#Activity	walking 
#ActivityID	1 
#Date 09-24-16-56
acc_rf_x	acc_rf_y	acc_rf_z	gyro_rf_x	gyro_rf_y	gyro_rf_z	acc_rs_x	acc_rs_y	acc_rs_z	gyro_rs_x	gyro_rs_y	gyro_rs_z	acc_rt_x	acc_rt_y	acc_rt_z	gyro_rt_x	gyro_rt_y	gyro_rt_z	acc_lf_x	acc_lf_y	acc_lf_z	gyro_lf_x	gyro_lf_y	gyro_lf_z	acc_ls_x	acc_ls_y	acc_ls_z	gyro_ls_x	gyro_ls_y	gyro_ls_z	acc_lt_x	acc_lt_y	acc_lt_z	gyro_lt_x	gyro_lt_y	gyro_lt_z	EMG_r	EMG_l	act
-32768	-12900	21636	-2513	32767	25180	-32768	-10824	-3272	-14575	26592	-5826	-15952	14944	1824	-20960	-9794	9934	-19076	-4288	20612	-5971	-5	-9133	-18484	8148	-17576	-8585	14138	8736	-24784	8528	-10736	5548	13750	5044	127	117	1
-32768	-17244	26384	-1826	32767	31077	-32768	-8344	-3584	-5337	28006	-5713	-29560	-5200	-11980	-20376	-4177	1234	-9700	644	15576	-2222	211	-2636	-17768	-3644	-10764	5613	11180	3342	-26652	12032	-11532	7082	12087	7298	127	100	1
-24076	-19360	32767	-10323	32767	27378	-29592	4216	-976	1930	24351	-8552	-31540	-1308	-13112	-17004	-12843	1765	-9448	3236	14516	-1084	142	-1651	-15968	7816	-9172	7349	8606	3299	-17368	3964	-4548	1450	11567	5565	128	111	1
-16596	-9704	30612	-19815	21345	14630	-19760	1476	-6176	-6844	14845	-6297	-31368	1992	-7228	-9545	-18359	-694	-8940	3020	14092	-218	519	-1333	-17188	3116	-8152	1690	6984	2586	-15940	3656	-2904	745	11857	2508	132	94	1
-6828	-29420	31888	-19516	-13995	-1628	-18872	-328	2684	-13039	9001	-4259	-29416	3224	-10988	-3137	-18720	-306	-9212	2936	14004	636	848	-516	-16808	3656	-7028	-2039	5627	1662	-18292	2776	-2436	-2864	13892	2088	126	112	1
8872	-17388	18008	-236	-19037	-6954	-14492	-740	4220	-7232	-1477	-6885	-30052	2096	-11028	-3310	-21662	-662	-9516	3392	13812	720	1422	-150	-16988	2292	-6864	-3022	4245	1943	-17608	388	-1864	-2496	14598	2269	120	106	1
8324	-4944	13860	2466	-17881	-12450	-5736	4	1312	-1655	-11719	-4285	-19600	1392	-10956	-6250	-21380	-733	-9380	3672	13868	1038	1746	437	-16248	1212	-6316	1033	2856	2099	-16128	524	-2016	-1200	16150	2512	139	124	1
2808	-2856	13284	-1295	-19554	-16076	-6468	444	-332	869	-19105	-2335	-16436	856	-11796	-5757	-20561	-2861	-9384	3880	13440	1287	1904	756	-15780	2468	-5808	3904	1797	2221	-16568	-444	-1684	362	17226	1471	128	119	1
-1976	-3072	14064	-875	-24522	-16086	-7988	-548	-1788	3779	-24567	-976	-15496	516	-11988	-5924	-20979	-4124	-9352	4060	13432	1230	2009	691	-16112	2392	-4708	4327	1226	2456	-15848	828	-840	1607	16413	1193	126	121	1
-5808	-2440	14740	1435	-30341	-14799	-8104	936	-3212	4697	-29295	426	-12724	-2560	-10908	-2392	-20247	-4754	-9336	3708	13456	1311	2112	710	-15656	2472	-4140	3293	1164	2483	-15796	484	-472	1412	16746	1464	123	124	1
-8404	-1332	14896	2640	-32768	-14139	-9224	1896	-4064	3666	-32768	2554	-11928	-1640	-13228	-26	-23127	-5996	-9396	3952	13056	1251	1997	626	-14796	3052	-3388	2835	1375	2624	-15300	44	-612	3019	14481	754	125	127	1
-10324	-644	15620	1238	-32768	-14084	-10524	2196	-4552	2527	-32768	5338	-8444	-2596	-12512	4727	-19331	-4263	-9520	4000	12796	861	1592	190	-14520	2732	-3128	3700	1832	2797	-13408	324	860	6099	16152	537	130	125	1
-13096	-2172	16772	133	-32768	-13689	-12828	2164	-4876	499	-32768	7353	-5416	-1120	-12232	7079	-17972	-2753	-9820	4308	12644	496	1093	-77	-14320	4368	-3212	5693	2209	2721	-14768	2660	-264	9226	14908	745	130	127	1
-15372	-3772	17752	-181	-32768	-12794	-16184	2424	-5448	-1752	-32768	8302	-4548	-740	-13240	10608	-15686	-2700	-9780	4196	12576	138	437	-280	-14216	4724	-3180	5567	2813	2418	-14644	3260	-112	9447	14766	866	130	130	1
-19816	-5704	20332	-1162	-32768	-12327	-20140	2076	-6776	-3519	-32768	8164	-2540	720	-13900	14932	-13075	-3543	-9528	4048	12680	-277	89	-649	-15260	3760	-3888	4412	3295	2167	-12448	3368	1320	8749	14440	2404	128	129	1
-24576	-5368	22928	-5917	-32768	-13372	-23536	1792	-7504	-5298	-32768	9209	-1376	1620	-12564	14457	-9431	-4951	-9408	4016	13016	-419	54	-954	-15980	1224	-3348	5909	3598	2296	-16380	1076	-1672	6816	17314	4002	125	126	1
-25608	-5992	23752	-12365	-32768	-13913	-30860	1444	-7640	-7988	-32768	9277	-2484	-536	-9252	11860	-6800	-4768	-9208	3676	13464	-261	511	-1041	-15752	2080	-1936	7959	4473	2349	-19476	5184	-2956	7051	13062	949	124	124	1
-32768	-14356	29540	-11609	-32768	-14722	-32768	-2176	-13304	-8690	-32768	7919	-9864	-720	444	7532	-9264	-2806	-9200	3884	13480	-180	1362	-1195	-15228	4724	-1148	4592	6408	2270	-19384	7656	1532	1829	7883	642	120	123	1
-32768	-11236	22092	-4396	-32768	-18110	-32768	-764	-18668	-7829	-32768	6971	-20600	-1184	13560	8265	-14638	-1254	-9100	4388	13560	-354	2534	-1811	-15368	5604	824	990	8839	1718	-17968	7068	7844	619	10177	1952	122	127	1
-32768	-6832	3292	-1781	-32768	-17323	-28380	-6776	-28152	-12003	-32768	3724	-18392	7800	18180	5768	-16795	-1492	-8908	4476	14080	-477	4828	-2950	-16324	4336	1856	507	11719	1279	-19284	4004	8540	2136	11363	2632	131	131	1
-32768	13928	-32768	-4363	-32641	-7375	-8008	-812	-32768	-14190	-21497	-7922	-12028	17456	32767	6186	-9194	4301	-9236	3956	14588	-101	7886	-3982	-16664	3064	48	-216	14854	1078	-18908	3076	7120	3529	10034	2145	123	138	1
-32768	32767	-32768	-14606	-3579	1141	3080	-8708	-32768	-9108	5290	-5694	-20952	9948	32767	8686	8762	-1649	-9432	2808	15928	453	12258	-3371	-17852	3532	-2740	-2068	18078	109	-18444	4368	4100	2807	7855	1654	112	143	1
-32768	12476	-13056	13113	14968	6797	-11896	-7308	-32768	14208	22256	-2408	-16384	-2700	9140	-757	5323	-7496	-9620	5132	16320	783	18791	-3631	-21636	2728	-2112	-1311	20605	-310	-21936	3380	4004	3528	5816	1154	134	152	1
22260	-24424	19976	18043	16617	6166	-18392	-3692	-3520	22802	32767	-2664	-13236	-4640	-10872	-12477	17022	-5635	-9020	5276	16600	594	27594	-5722	-23432	-896	-1344	2820	22583	830	-25168	3032	7416	5353	703	312	149	160	1
32767	944	32767	9181	21803	1121	-32768	32767	28116	32767	12179	5491	-7544	-140	-12140	12495	14876	-4387	-7800	4504	18476	1733	32767	-6437	-29504	-2132	624	5148	25309	577	-27968	4332	12524	1250	-8285	-106	123	165	1
-32768	16548	7284	384	32767	-5162	-15324	7736	-17936	7321	8627	-202	-31684	-6228	32767	15433	-1953	3486	-7104	9208	18856	2777	32767	-8863	-32768	-9640	5440	9811	26437	1286	-28080	-1132	23624	-962	-19390	-2062	128	160	1
-20532	14536	25040	-4168	19081	16227	-16884	12088	-15456	6440	11467	72	-23368	26184	-15092	32767	14646	-966	-14624	14020	20864	2489	32767	-17195	-32768	-1392	10256	20444	25477	1650	-24404	-9756	21736	-11007	-23176	-10910	127	170	1
-9748	-28940	7804	1708	22953	3869	-16332	-9096	-1256	9680	24351	-7883	-14004	16624	-15548	-8743	2707	-5963	-32768	9596	17804	-761	32767	-32725	-26664	18880	-7736	14385	26881	1772	-20312	-5532	4040	7366	-10568	-8249	119	162	1
-22240	4908	19448	4709	10562	12195	-11060	-5172	-11816	6223	14126	-7390	-3464	-14272	-10552	-25198	3996	1574	-32768	19516	24944	-4430	32767	-32768	-29068	9944	-9484	6068	25735	2786	-31264	11404	-14368	18197	-14751	-4666	117	159	1
-15224	1672	15888	7592	2177	6382	-21136	-4536	-12164	-2336	15047	-6808	-19036	-10392	-11728	-5105	13030	-5182	-26012	20176	32767	-498	32767	-29761	-25960	3792	-9276	-3863	20195	2617	-32768	2932	-13144	3974	-18413	-464	130	139	1
-10820	-4508	14048	3704	701	2732	-21800	4732	-6584	-7911	14791	-2584	-24024	-2900	-10348	-3648	11928	-3705	-32768	11544	32767	17249	16881	-15015	-16168	4756	-14128	-6519	14921	1300	-27872	-964	-4552	-471	-24887	2441	125	127	1
-8856	-3624	13964	2170	388	1912	-17684	-1076	-5560	-8174	10042	-2743	-17080	-3172	-6400	-1072	13079	-1993	-8884	28340	31588	16117	-23329	387	-15816	-2384	-4748	9036	3102	2330	-28524	-72	-7368	68	-22237	-199	120	113	1
-9216	-2376	13688	510	1100	1220	-18192	-1608	-5840	3090	6184	-1876	-18244	4360	-4316	3247	13903	-2004	5792	16228	17104	7340	-31099	4781	-12420	-740	-2828	18413	-6473	2904	-26564	1168	-8448	2751	-21099	-2420	126	136	1
-8460	-2552	13592	-609	1927	156	-18848	4196	-4560	7230	4713	-1969	-16940	5228	-3548	2277	14709	-34	8516	9116	10444	3799	-27727	7007	-6836	3976	-3224	12883	-14610	3624	-20996	2360	-8640	4574	-18810	-1569	118	113	1
-9076	-2936	13128	-567	2491	-775	-17152	3668	-4292	162	4333	-3298	-17580	2752	-4436	-24	14894	1189	1088	7740	11300	3115	-25079	8520	-5144	3684	-4500	495	-20304	2272	-16492	960	-8884	2927	-17397	-433	119	110	1
-9168	-3768	12736	9	2340	-1534	-16948	720	-3312	-5329	4422	-3797	-16296	-2620	-4112	-563	15381	1334	-5520	7532	13956	3216	-28897	9291	-6732	2884	-5932	-4331	-25028	2010	-13960	276	-9996	2878	-16459	622	124	109	1
-9036	-4192	12560	321	1923	-1435	-16932	-2456	-1972	-7185	4176	-2703	-16056	-3336	-1500	-462	16006	-616	-9188	5356	15292	6392	-32768	12063	-7564	1236	-6764	-4213	-29617	1370	-12908	3696	-10452	3845	-16391	1325	133	112	1
-8652	-4012	12580	437	1464	-1004	-16236	-3468	-1332	-2920	3293	-1711	-15440	-2656	-136	552	14221	-2034	-9320	5380	14212	9483	-32768	15014	-9228	660	-6976	-2038	-32768	506	-10240	4408	-10788	2010	-15088	1077	130	111	1
-8872	-3676	12508	501	1107	-495	-15972	-2876	-1232	-2093	3243	-1637	-15336	-440	-92	842	13676	-2850	-10612	5648	14216	10745	-32768	17042	-10388	736	-7696	-1924	-32768	-114	-7948	3976	-11000	4	-12223	313	131	112	1
-8656	-3576	12688	447	821	-55	-15848	320	-1356	1141	3638	-1046	-15636	1868	896	-3087	12041	-2851	-15908	7624	17276	10157	-32768	19083	-11948	1600	-9576	-3698	-32768	-950	-5908	2152	-11460	-2990	-9118	-543	132	119	1
-8832	-4116	12664	507	658	470	-16684	20	-1300	-2439	4852	-1360	-15260	4596	1784	-14464	10800	-3156	-21288	7796	20072	9552	-32768	22154	-13820	2196	-10268	-5301	-32768	-1264	-3500	2204	-14000	-11525	-8156	-716	131	119	1
-8692	-3716	12772	612	482	994	-16720	-308	-1548	-4616	5648	-1506	-10476	580	5736	-9880	13627	-2714	-21412	6312	18700	12450	-32768	25619	-18404	3100	-10252	-8518	-32768	-2604	-5052	3208	-12480	-17350	-2091	1364	126	119	1
-8916	-3692	12924	688	534	1241	-16360	-472	-1820	-3888	6609	-1365	-10980	848	5976	-8270	13919	-3166	-26288	10908	21528	10440	-32768	27400	-22596	5232	-12180	-12361	-32768	-5345	-4680	1476	-10580	-20659	-2240	2945	127	114	1
-8872	-3400	12952	754	650	1484	-16232	776	-984	-3345	7647	-1174	-19688	464	1404	-6863	18777	-2808	-32768	16708	28652	2030	-32733	28801	-28996	9960	-15016	-16397	-32768	-7161	-9044	1560	-1564	-17765	-8901	2798	131	116	1
-8572	-2816	13308	724	1189	1588	-15200	1920	-680	-2785	8978	-1608	-20540	1000	1172	-4611	9483	-1103	-32768	14016	21544	-7660	-32768	32767	-24308	7796	-17480	-20792	-32768	-10930	-16104	5444	7452	-14169	-19081	3697	125	118	1
-8660	-2832	13628	613	2388	1315	-15020	1852	-916	-2684	9284	-1675	-17064	-2320	2540	-2563	5622	134	-32768	10628	1536	-13897	-32768	32767	-20024	5100	-21284	-17854	-32768	-10578	-17256	-2364	7480	-16364	-11484	4663	123	126	1
-8724	-3164	13728	597	3958	1253	-17032	-216	-1688	1745	11461	-840	-15700	-2788	4032	-2292	13120	-787	-32768	-15564	-22884	-9355	-24739	28880	-13456	-1612	-23328	-14530	-28574	13	-10368	-13184	29104	-21831	-5710	2079	124	113	1
-8432	-3208	14268	443	5989	1744	-17104	988	-1844	1542	12981	-1253	-17232	-1804	4536	-1560	12776	238	-32768	-32768	-30816	31511	-9447	13176	340	3520	-20308	11409	-9360	7262	-27924	-21184	32767	-11254	369	-3240	126	116	1
-8512	-1776	15840	251	9756	966	-18976	416	-2420	3352	14903	-147	-18088	-3000	5120	928	11234	-284	-32768	-22292	-17476	3020	3033	-7437	-2732	16980	-21884	10516	9840	5721	-27144	-16404	32767	-5957	643	-4697	125	131	1
-8664	-5000	16640	-133	15578	1414	-22788	-96	-1856	5167	16435	869	-23272	-1196	3800	178	7306	-147	-32768	-4640	-6440	-13361	11866	-21050	-8444	10364	-22340	-4874	22132	2324	-15492	5460	3016	14468	-5892	5018	122	135	1
-8792	-4760	16840	-448	22211	3314	-23732	3648	-1416	3596	18785	-389	-23004	-80	7636	-3295	2417	1606	-2436	-6544	30892	-15209	20089	-10654	-24860	-7380	17316	-28365	25765	1887	-12964	3532	3460	15169	995	6193	125	126	1
-8460	-3192	19096	-1351	31005	4411	-26120	4996	-640	765	21858	-839	-24396	-340	13872	-6061	-2110	1723	-28004	2108	17732	-6700	32767	-10059	-32768	4596	-9764	-31880	25400	-2974	-32768	6412	25924	-19272	74	8814	125	109	1
-6320	-4144	19832	-4055	32767	5004	-31444	7356	4104	2001	24206	-65	-27608	1688	22216	-3701	-14412	1165	-26392	-13528	30188	-4328	20913	-9414	-9324	-13780	-13716	-29795	25928	4021	-9964	-6568	-12040	-13658	15749	103	126	96	1
-3192	-9424	22116	-3927	32767	8874	-32768	17252	11052	-5616	26735	-2681	-24812	14400	32500	8944	-9581	3187	-7760	17984	6776	-1836	18325	-11195	-12940	-2596	-14820	-8012	19944	7720	-11612	-16308	-17960	-14155	6553	3678	134	112	1
-20432	-19836	19268	-2879	32767	18326	-32768	-352	6696	-17823	26526	-4506	-20968	22408	976	-20725	-7099	12398	-30060	-2220	22152	-8201	9377	-14796	-14320	17676	-16580	3054	15019	10037	-8076	4624	-4404	7636	6456	15	131	125	1
-32768	-11536	21396	-338	32767	29353	-27584	-13536	-8472	-13287	25231	-5350	-22812	-4408	-6216	-26033	-4459	5917	-18584	3652	17876	-5986	-340	-7091	-23132	3256	-17172	-5691	13338	9376	-27988	13868	-13568	3585	14479	6553	131	114	1
-32508	-17048	30808	-6748	32767	29668	-32768	1392	-3928	-3428	28097	-6097	-32100	-2776	-14044	-19501	-8293	3499	-11672	4764	13856	-1864	-686	-1950	-15588	724	-9836	7905	11002	4110	-17260	7392	-7312	-62	9600	7074	126	100	1
-14260	-15756	30672	-12661	29584	22878	-25664	-2036	-5448	-2569	17793	-6957	-32768	3040	-5488	-10846	-15717	-675	-9632	3456	14076	-973	-677	-1312	-15032	6644	-8984	4784	9010	4126	-19324	2500	-6112	15	10589	7658	128	101	1
-25596	-21344	32767	-20487	-8212	5281	-18352	1828	-5076	-8840	10270	-2003	-29812	-488	-11456	-5552	-17266	-290	-8808	3324	13776	-303	-226	-1039	-17040	1764	-8200	3203	7083	3467	-15168	2712	-3504	1577	10381	3328	127	110	1
3416	-21108	19960	-11861	-22197	-181	-16252	176	3208	-10983	1602	-5398	-30288	2844	-11100	-4721	-20313	-380	-9164	2592	13832	704	160	-565	-17184	3612	-8664	1439	5648	2341	-18696	3128	-4432	613	12876	3200	124	126	1
8612	-11476	11308	-1248	-21906	-4890	-7356	-3380	1676	-5773	-7586	-4380	-22472	720	-11180	-5602	-18764	-2036	-9004	3444	13908	1074	625	-161	-17028	1852	-7548	-980	4055	2504	-18332	424	-3384	-403	14971	3153	127	135	1
5852	-7024	9576	-500	-19649	-10740	-5388	-1304	-268	1494	-15806	-2851	-18228	-80	-11300	-4278	-18492	-3833	-9408	3220	13756	1181	1256	475	-16676	800	-7712	117	2525	2547	-17140	-460	-3468	-86	16093	2528	129	131	1
624	-6396	10900	-1609	-19967	-14847	-7052	-384	-1660	5831	-21846	-1120	-15452	404	-11424	-2890	-19356	-5017	-9396	3468	13528	1292	1431	990	-16136	-308	-6664	3074	1097	3194	-16784	-2988	-2648	530	15949	845	132	131	1
-3800	-6028	12860	-343	-23558	-17510	-7744	1116	-2960	5223	-26922	-180	-13400	-540	-10684	-1203	-19066	-4825	-9200	3396	13624	1439	1782	1269	-15860	-812	-5060	6052	269	3842	-15608	-3236	-752	3417	16364	214	121	123	1
-8156	-4660	14552	2362	-29405	-19342	-8364	1272	-3680	3923	-30574	1074	-10908	-492	-11624	1187	-19800	-5572	-9132	3208	13484	1508	2072	1419	-15476	1592	-3568	7812	183	4263	-15756	-716	-448	5115	15244	332	126	129	1
-11288	-3124	15420	3881	-32768	-20068	-9328	1344	-3920	3444	-32768	3013	-8448	-1700	-10472	3958	-19216	-5134	-9448	4080	13176	1359	2116	1100	-14468	5356	-2440	5923	881	4087	-14480	2312	-156	8032	14366	187	130	131	1
-12260	-924	16316	2987	-32768	-19904	-11816	1640	-4140	3231	-32768	5172	-7976	-2096	-10392	7516	-17855	-4143	-9756	4684	12520	694	1343	316	-13748	5984	-2072	4667	1685	3473	-12920	4820	652	10324	14112	522	129	133	1
-14624	-1192	17568	601	-32768	-18416	-15512	2472	-4680	1197	-32768	6773	-5284	-1556	-11100	10422	-17177	-3333	-9632	4696	12324	-61	231	-391	-13356	5428	-2208	4937	2526	2683	-14000	6452	-132	9570	12912	1889	129	128	1
-18832	-3148	19828	-872	-32768	-15911	-18928	1736	-5916	-702	-32768	7067	-4728	-584	-12456	15364	-15122	-4256	-9512	4388	12908	-477	-302	-886	-15220	4648	-2968	4162	3366	2062	-14288	3888	1912	6707	12515	3523	126	127	1
-21088	-3872	20768	-3271	-32768	-14074	-21972	1820	-5436	-115	-32768	8644	-3604	1176	-12532	17533	-11900	-5021	-9316	3888	13300	-681	-414	-1172	-15972	2308	-3692	4281	3859	1970	-12668	44	2564	6244	15329	5119	128	129	1
-24344	-4740	21920	-8316	-32768	-12780	-26652	2224	-7004	-372	-32768	9627	-3792	2680	-10644	15515	-8315	-5961	-9188	3768	13384	-699	-185	-1473	-15572	1212	-3016	6256	4410	2266	-16368	828	-580	8220	16343	3379	127	128	1
-30748	-8956	25452	-11082	-32768	-14769	-32768	2616	-10260	-2207	-32768	9190	-5664	2892	-3396	13188	-9671	-5169	-9192	4016	13592	-659	390	-1842	-15612	3396	-2296	6788	5568	2419	-20588	5176	-3060	7511	11917	724	126	127	1
-32768	-17968	25628	-6741	-32768	-19758	-32768	-1032	-13696	-4843	-32768	8418	-16312	3412	11152	12341	-15940	-1536	-8956	4320	13548	-726	1109	-2386	-16080	4268	-1488	4815	7147	2396	-19732	6932	1004	3179	8470	1771	125	126	1
-32768	-9384	10460	751	-32768	-25041	-28452	-3496	-20144	-2123	-32768	6518	-18508	3272	12012	5030	-12577	-457	-9196	4264	13748	-901	2438	-2812	-15704	3540	-324	2994	9201	1999	-16960	5436	5712	2823	9834	2732	128	129	1
-32768	-2892	-3008	1313	-32768	-20614	-27132	-4100	-22096	-2737	-32768	6027	-12308	9268	20512	6839	-12847	372	-8956	4096	13860	-965	2629	-2834	-14980	3828	-32	1745	11845	1602	-17008	3892	6472	3939	10326	2321	135	136	1
-32768	22796	-32120	-7750	-24769	-5762	-7020	-3136	-32664	-10250	-18034	-7515	-13168	17628	32767	13897	-3565	1076	-8668	2736	15680	-340	7770	-3478	-17556	2584	-1908	-328	14883	916	-18468	4196	5028	3201	9048	1925	122	143	1
-32768	24228	-32768	-9490	-92	5928	-1432	-10328	-32768	-8508	7640	-5480	-20236	8504	31288	6862	5350	-5108	-8848	3120	16636	258	12953	-2983	-19604	2784	-3280	-1723	17711	-85	-20368	4444	2736	2222	7697	1095	136	145	1
-32768	10332	-9384	10672	12054	9334	-12884	-5352	-29376	9425	22545	-3336	-15728	3256	4728	-8996	4979	-6984	-9184	4928	16416	703	19962	-3849	-22428	1456	-3168	60	19516	208	-22096	3116	3656	2999	5986	328	124	145	1
25164	4340	32767	24148	20222	1809	-20428	588	16228	16832	32767	-3647	-12196	-136	-9604	-16180	19492	-4079	-9288	4684	17104	37	27951	-5457	-23140	-1044	-2704	2853	21376	829	-24452	1552	6984	4832	3078	104	118	150	1
17660	-6176	30864	12755	30115	-1582	-32768	26688	14396	26506	9340	1347	-13584	3832	4040	8524	11823	-2139	-9072	5220	18588	193	32767	-6536	-29020	-2312	-132	4739	23693	708	-27880	1836	11716	2349	-4313	175	123	150	1
-32768	19068	21852	-2005	32767	-5192	-18968	8232	-16380	7509	11373	854	-18856	-14624	22288	15770	1971	4138	-8784	6312	18628	720	32767	-9316	-32768	-8492	4776	8073	25371	1621	-28052	-2072	19360	-1318	-15790	-1412	140	163	1
-20356	6964	22392	-6958	20849	14245	-29492	15496	-9440	24031	13592	-1293	-27568	26380	-14024	32767	9698	-3562	-13284	16972	19324	745	32767	-18063	-32768	-3888	12724	21522	24272	2955	-27280	-7900	32767	-16158	-30290	-10049	139	165	1
-12032	-15928	11224	1296	23377	1792	-17636	-10660	-5340	11136	20819	-8374	-12156	12524	-13944	-9566	3830	-2428	-32768	10164	16416	-3031	32767	-32768	-26080	18020	-7068	15337	25361	3925	-17484	-8260	4356	7609	-11331	-9944	127	171	1
-23584	-6724	17452	3028	11225	10055	-12168	-5320	-11020	4284	13900	-6937	-8232	-9876	-7976	-15611	6423	-900	-32768	12052	21820	-2968	32767	-32768	-28128	8856	-10128	8849	24914	3950	-29472	11024	-8432	18990	-14812	-5217	129	168	1
-12168	6500	16092	5719	2525	4506	-21456	2276	-11108	-2284	13965	-7751	-23940	-7012	-11360	-6192	12775	-5249	-28348	16340	31912	3027	32767	-27942	-24616	4352	-10108	3233	20138	2348	-32768	5868	-14588	9593	-14613	-1626	121	146	1
-9972	-4036	13248	2184	1627	1314	-21536	1140	-5512	-11311	13480	-3052	-20200	-3052	-7764	-6262	9680	-3492	-30720	15672	29644	15980	20781	-16176	-16464	6632	-13256	-2233	15426	1475	-28660	-588	-6612	-924	-23714	2803	119	134	1
-8888	-4092	13492	1428	951	812	-16168	-2320	-5100	-7345	9584	-3504	-16284	-2296	-5320	-2186	12368	-2765	-16660	29312	32212	10967	-18372	897	-15388	1452	-7824	6297	6353	2173	-26452	688	-6220	-823	-22938	1863	125	110	1
-8460	-2280	13632	225	1379	99	-15860	-1688	-4808	-5806	9153	-3419	-17472	3088	-2948	1546	12604	-1725	3508	15560	15764	2878	-27024	8544	-11872	-508	-3240	13018	-2606	1633	-26008	1448	-8112	1859	-21189	-897	125	130	1
-8852	-2960	13264	-618	1866	-620	-19140	3388	-3812	5149	4632	-2819	-17488	4328	-2456	1335	13464	-745	8680	8800	8436	587	-23256	11594	-7692	3672	-3504	10970	-10321	1903	-25460	1700	-8280	2559	-20882	-873	123	110	1
-9196	-3456	12832	-195	1956	-1353	-17236	2304	-3812	-472	4200	-3870	-17552	3660	-3540	-2482	14613	454	3080	7628	8552	-431	-19523	11777	-4176	5268	-4448	-812	-16295	1702	-17176	2412	-9264	2742	-16934	1152	125	107	1
-9620	-4008	12452	381	1712	-2001	-16704	756	-3812	-6049	4324	-3857	-16004	-2520	-3548	-2441	15428	456	-3068	7636	11084	-1841	-22307	10636	-4908	4792	-6156	-7797	-21246	1175	-14616	444	-10160	1835	-15911	2135	130	108	1
-9148	-4208	12596	393	1384	-2192	-17184	-1776	-2412	-8493	4035	-2847	-16472	-2248	-1744	-1677	15765	-1284	-7092	5448	13784	304	-28174	10961	-6156	2032	-6900	-9065	-26062	875	-13564	3564	-10472	703	-15996	2956	129	106	1
-8800	-4288	12524	137	1214	-1898	-16532	-2296	-1676	-4719	3181	-2308	-15700	-896	132	-837	14840	-1994	-10252	5000	14804	5086	-32768	13149	-7488	1480	-7352	-6873	-30533	-444	-11072	4156	-10060	-1548	-14801	2685	131	109	1
-8652	-3904	12704	-191	1047	-1526	-15648	-624	-1428	-1518	3257	-1877	-15656	384	716	-1808	14170	-1993	-11892	5660	14860	8489	-32768	15392	-9848	1672	-7612	-4976	-32768	-1559	-10288	5256	-9668	-3894	-12886	2119	128	114	1
-8712	-4176	12580	-336	887	-919	-16300	-492	-908	-2288	3464	-1682	-15548	164	1304	-5371	13312	-2137	-14392	6996	15400	9449	-32768	17305	-11572	1400	-8504	-4561	-32768	-2335	-7156	3124	-10972	-7233	-10624	1049	132	121	1
-8956	-4492	12404	-132	588	-73	-16676	-820	-960	-5415	4494	-1611	-14776	-1336	1284	-9756	13169	-2146	-18668	8484	16988	8421	-32768	19092	-12676	2296	-9280	-4044	-32768	-2763	-6920	1888	-10912	-9810	-8322	-80	131	121	1
-8916	-4228	12316	143	400	446	-16248	-1696	-1560	-5711	5302	-1525	-14528	-3584	1080	-7897	13861	-300	-19988	8316	16696	8811	-32768	21116	-16712	3088	-9232	-5848	-32768	-3081	-4736	1340	-12148	-14294	-4410	1652	125	119	1
-8728	-4204	12648	291	388	676	-16072	-1352	-1668	-3678	5901	-891	-12568	-708	4112	-8006	13724	-2759	-23044	9416	17308	10134	-32768	23168	-19636	4396	-10604	-9427	-32768	-4585	-5712	-84	-11208	-20352	-1963	3343	131	120	1
-8756	-4052	12468	485	500	1282	-16836	48	-1664	-3396	6325	-885	-13576	1512	3076	-5516	15517	-4102	-30304	13616	22528	7149	-31688	24502	-24432	6584	-12668	-12516	-32768	-5907	-5968	-452	-6120	-17104	-3324	3874	130	122	1
-8880	-3708	12760	512	577	1609	-15928	1284	-952	-4655	7693	-1297	-19608	1316	544	-7578	14876	-2320	-32768	19816	24736	851	-32768	28171	-28100	11608	-14108	-17795	-32768	-6706	-13012	492	3240	-13197	-12053	2779	128	123	1
-8648	-3676	13148	423	1127	1878	-15420	172	-420	-3519	8812	-1745	-21660	-784	244	-5567	8415	-1018	-32768	12332	15228	-7236	-32768	32767	-22616	6352	-15560	-19391	-32768	-9113	-15704	3132	8676	-12090	-14633	3329	127	120	1
-8724	-3456	13300	43	2610	1852	-17724	-384	-1484	-340	9811	-1216	-18108	-3644	2740	-3119	6262	470	-32768	10676	12668	-7539	-32768	32767	-18312	144	-20824	-10147	-32768	-5342	-13744	-5348	13304	-15846	-10522	2294	127	117	1
-8552	-3356	13320	-371	4129	1907	-16312	60	-1440	1484	11073	-878	-15256	-1484	5388	-1051	12687	-477	-32768	-29296	-23080	11811	-23345	23615	-9212	1080	-18880	1544	-23473	4237	-15788	-18000	32767	-18445	-4345	3739	126	108	1
-8728	-2960	14148	-1073	6180	1729	-16320	292	-1316	2417	12861	-719	-15972	-1688	5780	74	13230	-172	-32768	-32768	-26376	22947	-7170	1213	-384	13140	-20092	12431	-3072	7586	-25548	-12088	30008	-4221	-981	-1713	126	116	1
-8688	-3564	15568	-1533	9853	1149	-19604	-452	-1628	5476	14458	345	-19828	-2276	5004	1425	11001	-673	-32768	-22292	-12940	-3809	1069	-16776	-4012	9092	-23160	1556	14553	4585	-19116	-2140	11020	14865	-10243	2290	125	134	1
-8480	-5636	16364	-1765	15222	2078	-22504	1084	-1576	6153	16553	195	-22932	-952	4768	-57	6378	-418	-32768	-8344	-10240	-21287	6251	-23328	-9676	6528	-21580	1564	23688	4640	-14308	1432	-128	22588	-5	5629	126	131	1
-8464	-3372	17268	-2605	22048	3120	-23664	6068	-2008	4361	18999	-924	-24304	1536	9260	-3227	3622	684	17848	2004	32767	-15246	21629	-4322	-32768	-26348	17828	-18379	21840	-352	-8844	1032	-360	18327	5008	4503	125	124	1
-7092	-2960	20212	-4374	32767	2550	-28476	6580	1172	1934	22485	-975	-26092	176	15048	-3894	-2887	494	-28660	-9344	9744	-12293	32767	-11736	-24384	11656	-17028	-32768	23424	1072	-19592	24128	5636	-16273	1395	11198	127	119	1
-5800	-7732	20220	-7508	32767	2137	-32768	7616	6804	2653	24820	76	-28664	3440	26840	-2379	-15857	400	-24732	-13740	30408	-2722	20484	-14935	-14324	-13476	-11804	-24545	23251	4309	-26760	-17272	-12068	-26023	19756	-1726	123	106	1
-6404	-12024	22752	-7071	32767	7315	-32768	13428	15144	-7684	27381	-3928	-23996	13164	26856	11869	-5661	6870	-15976	22476	10752	-5266	19142	-8557	-18208	2992	-12532	-1617	18896	7312	-13912	-13468	-11608	-6011	4447	2616	120	115	1
-32768	-19864	18556	-6397	32767	21733	-32768	-10252	-3772	-15144	27086	-5713	-18020	11024	4452	-21418	-6169	10048	-13040	-680	15644	-7585	5493	-11456	-12280	14664	-15852	-3150	15100	9581	-10568	9052	-11760	8867	8539	2129	136	113	1
-32768	-22080	26756	-4347	32767	29285	-32768	-10816	-3004	-2669	29728	-5162	-30496	-8708	-13456	-18055	-4357	3350	-12848	-3152	17660	-4930	232	-5034	-20344	-1424	-14888	1283	12696	6051	-25996	10108	-12912	7043	14399	7066	131	123	1
-25648	-19484	32767	-7523	32767	28976	-31292	3272	2224	2892	25581	-7559	-32768	-3192	-11416	-12131	-14882	303	-10092	3272	14336	-1813	-203	-1633	-16168	4632	-9080	11229	10329	3446	-16296	5548	-5312	3018	9899	6780	126	113	1
-9104	-5976	31076	-21167	29490	17137	-20460	448	-5632	-2222	14129	-4995	-32768	2344	-6064	-6183	-18016	-355	-8792	2860	13744	-710	-69	-946	-15564	4788	-8600	6531	8222	3431	-19036	3560	-5860	2174	11599	3988	129	110	1
-17056	-29672	32767	-22305	-14638	-1087	-18220	1104	-1620	-11926	9294	-1007	-30812	1592	-10760	-1929	-20281	764	-8764	2820	13976	337	396	-492	-17088	4044	-7732	1141	6912	2613	-16360	1776	-3416	840	11210	2208	125	123	1
7856	-21048	19668	-2336	-26237	-5632	-14568	-1904	5044	-8331	-1648	-4472	-29708	4344	-12268	-1261	-21407	273	-8900	2820	13788	1294	994	-167	-17136	2212	-6964	-4933	5731	2213	-18024	456	-2708	-1654	13961	2236	123	127	1
9804	-7648	12508	7075	-24412	-8792	-5052	-1972	2008	-2822	-12045	-3289	-19980	2884	-11760	-5236	-20716	-225	-9496	3212	13564	1488	1343	110	-16916	-8	-6952	-1169	3982	2829	-16560	-948	-2848	-671	15400	1706	129	120	1
2956	-3508	11812	4289	-24011	-11842	-4888	144	-120	1029	-20434	-1157	-15572	1804	-11680	-5948	-20259	-2434	-9840	3540	13284	1137	1290	441	-16116	1520	-6432	5389	2222	3288	-16616	-204	-3360	2052	15918	1177	135	115	1
-2132	-2640	13252	1205	-28548	-12840	-7928	-584	-1816	3135	-25815	229	-15416	-820	-12100	-6235	-20290	-3702	-9588	3608	13404	922	1239	664	-15888	3276	-5080	7254	1351	3318	-16960	2736	-3120	1656	16396	873	128	127	1
-6016	-2564	14436	-450	-32768	-12909	-8324	1448	-3296	2367	-30829	2006	-11340	-3380	-11000	-1471	-19467	-3914	-9444	3812	13324	802	1223	757	-15372	5012	-3968	4807	1251	2966	-15572	2484	-1184	1747	16512	1351	123	125	1
-8740	-2236	14480	-725	-32768	-13111	-8500	1928	-3844	148	-32768	3945	-9776	-3080	-13640	1806	-21219	-4577	-9628	3676	13080	743	1228	664	-14840	3864	-3384	1651	1611	2724	-14600	1028	-200	1950	15675	837	125	131	1
-10888	-1996	15404	-286	-32768	-13189	-10188	1404	-4360	-427	-32768	5776	-7268	-2472	-12984	6044	-17933	-3555	-9440	3752	13148	496	953	266	-14880	2336	-2664	2592	1914	2710	-14208	192	496	4784	15270	353	131	133	1
-13588	-2256	17076	-619	-32768	-13635	-13024	2664	-5116	-1061	-32768	7375	-4744	-1980	-13380	8294	-16914	-2142	-9536	3912	13000	94	716	-304	-14524	3812	-2624	5017	2347	2616	-14516	1832	856	8086	14569	624	130	124	1
-18332	-4636	20220	-883	-32768	-13816	-17592	2492	-6616	-3125	-32768	8193	-3384	-1188	-14384	12651	-13846	-2818	-9636	3936	12736	-217	355	-746	-14664	5156	-2896	6087	3021	2392	-14260	3884	372	10452	13380	1653	128	127	1
-20560	-4832	21012	-2811	-32768	-14796	-22088	2468	-5720	-4001	-32768	9212	-2448	16	-14964	17370	-9879	-4357	-9492	3652	13020	-474	29	-1148	-15216	4476	-3012	5041	3755	1884	-12532	4212	2396	8950	13080	2099	127	127	1
-23616	-6308	21012	-8171	-32768	-14373	-26512	1076	-6788	-2970	-32768	10361	-1584	1196	-13476	16207	-6376	-4988	-9312	3592	13180	-773	117	-1809	-15984	2012	-2376	6028	4369	1947	-13232	184	2308	9005	16477	5528	128	130	1
-32768	-13664	27660	-9771	-32768	-15266	-27776	268	-7544	-2643	-32768	10395	-4528	1924	-1604	15404	-10307	-4708	-9224	3992	13436	-893	618	-2264	-15220	2704	-368	8211	5590	2139	-19196	2680	1584	8318	15049	2647	125	127	1
-32768	-23580	22516	-1186	-32768	-22320	-32768	-3780	-15748	2536	-32768	7985	-13336	124	11196	12485	-18130	-793	-9140	3960	13680	-1035	1400	-2674	-14444	4880	1248	5240	8320	2346	-21572	8868	2436	5339	7976	1005	125	124	1
-32768	-12188	6064	7317	-32768	-31549	-26552	-3688	-24684	6552	-32768	7918	-20908	4040	13032	12502	-15006	558	-9448	3580	13828	-1170	2720	-3119	-15004	4872	536	1499	11369	1918	-17828	8248	7212	1971	8046	3019	120	132	1
-32768	-3596	-12572	9847	-29860	-27478	-22708	-8288	-29828	1067	-29083	-1678	-16208	10976	25620	14993	-14276	1900	-9104	3416	14788	-748	5059	-3680	-16688	3372	-1068	742	14014	1363	-17140	3812	6216	3051	10953	2882	131	138	1
-32768	25728	-32768	-3886	-18809	-9548	-1444	-5656	-32768	-2937	-11105	-6785	-14732	25228	32767	19916	1277	308	-9200	2392	15548	-217	8776	-3665	-17068	2920	-2648	120	16684	684	-17684	3840	4392	3599	10223	1472	125	143	1
-32768	20644	-31268	-6385	5358	5093	-6664	-11540	-32768	-118	12054	-4992	-18052	5896	24324	5214	3915	-5471	-9136	3436	16808	257	14733	-3346	-20568	3348	-2840	-2174	19625	79	-20788	5312	3932	2142	7671	623	133	141	1
-32768	6760	-10416	21840	24957	10368	-16880	-3672	-25408	14289	26251	-5768	-16916	648	-708	-14651	12842	-4659	-9208	4372	17556	119	23335	-4707	-23636	-152	-1856	669	21744	697	-25128	3084	7136	1472	3375	5	141	143	1
13412	-4604	32767	4338	32767	-2330	-32768	32767	30016	32767	27500	3472	-17808	560	8908	-2528	14643	-3028	-8624	4952	19340	-450	32767	-5893	-27904	-500	-60	3874	24518	875	-27328	4464	12116	553	-2999	-450	113	150	1
-32768	11096	13896	4180	32767	1734	-32768	5332	-20176	15408	15246	-2386	-13684	-10428	16436	4815	4025	277	-7696	5848	20300	835	32767	-7949	-32768	-6028	3184	4816	26981	1064	-29940	1560	19976	-2722	-13809	-377	127	155	1
-22472	12680	27424	-2691	23049	11335	-17188	8920	-9156	16497	19687	-5591	-16996	16404	-15292	30153	6985	-5590	-7224	12592	21156	2660	32767	-13125	-32768	-14364	11796	19784	26871	3049	-31232	-10720	32767	-23680	-32768	-8154	135	160	1
-7716	-16540	8460	-489	24057	3881	-16676	-1720	-6248	15217	21030	-7657	-15120	15980	-13336	1354	3642	-5706	-31528	12608	19244	580	32767	-29336	-29444	14768	1324	28267	25841	2491	-16984	-19912	3608	8079	-10450	-11116	129	168	1
-20908	-4124	15532	5020	11482	9250	-16160	-11136	-11928	5626	14608	-9366	-8236	-8600	-10536	-11738	6577	1096	-32768	19460	25100	-7253	32767	-32768	-27348	18540	-13592	11399	27689	4287	-29600	11200	-8632	24550	-16318	-5937	121	154	1
-20080	2244	19152	7074	3024	5706	-21612	2804	-12800	1362	13949	-8487	-22812	-5928	-10672	-4849	11246	-4968	-32768	25116	32767	-6886	32767	-32768	-25384	6952	-13788	-5978	23942	4274	-32484	5364	-11868	16345	-17839	-1615	122	151	1
-10988	-4324	13616	3282	1651	2078	-20260	2100	-6476	-9922	14898	-4073	-19708	-3004	-7368	-4931	9302	-4843	-22956	2784	32767	11035	8763	-17334	-18872	2556	-12796	-5983	17662	3111	-32168	2256	-6352	2541	-23717	4862	110	120	1
-9296	-3584	13236	2076	1068	1413	-16908	-1312	-5412	-8334	10878	-3858	-16208	-3100	-5128	-1932	11353	-2960	-2596	20904	25332	22590	-15938	-7091	-16196	-4320	-4464	8919	6121	3925	-30820	-712	-6812	1270	-24192	1977	128	96	1
-8976	-1692	13712	1208	1087	964	-17876	-392	-4680	-618	7630	-3287	-17632	1644	-2876	1002	12079	-1429	7184	18552	13900	16620	-19088	-1857	-11464	-52	-4528	15826	-3501	4778	-25344	-1400	-8284	5275	-21978	-1549	121	136	1
-8432	-2088	13688	300	1578	290	-19112	1064	-4432	5388	5606	-2925	-17832	3436	-2352	672	12945	-789	7880	14652	9572	8464	-15837	4587	-5068	2264	-4484	12896	-11618	5861	-21220	2408	-8372	7061	-19741	-915	119	113	1
-9256	-2812	13172	-215	2223	-350	-17696	3208	-4508	3290	4812	-3420	-17132	2652	-2820	-510	14779	-75	2584	10772	10900	4793	-14730	10587	-4164	3568	-5468	3561	-16937	4245	-18304	1424	-9920	2825	-17835	783	119	111	1
-9708	-3020	12844	-313	2349	-1327	-16972	2088	-4752	-2225	4697	-3886	-16540	212	-3468	-420	15061	-312	-3064	8616	13428	3171	-19392	14838	-4288	2600	-5956	-2781	-22029	3104	-13416	-132	-10456	2684	-16576	1615	126	110	1
-9516	-3684	12540	-433	2009	-1619	-16632	-56	-3412	-6295	4237	-3193	-16076	-892	-2696	-750	15772	-1005	-5972	5648	14680	1950	-26363	17463	-5096	756	-6016	-4678	-27014	2983	-12992	2540	-10264	2881	-16525	2377	133	114	1
-9272	-3664	12652	-443	1752	-1298	-16780	-2240	-2824	-5686	3876	-2915	-16200	-2412	-844	40	14952	-1423	-7764	2056	15280	4699	-31718	19627	-6504	284	-6268	-5129	-31018	1893	-12012	3196	-10416	2686	-16302	2356	129	111	1
-9072	-3496	12572	-311	1498	-688	-15864	-2252	-2228	-998	3389	-2365	-15084	-1340	32	1252	14110	-2218	-10084	2440	16624	8663	-32768	21197	-9284	852	-7624	-6408	-32768	156	-9012	4120	-9784	-1144	-13080	1678	130	115	1
-9028	-3712	12356	-117	1236	-142	-15720	-1172	-1860	1214	3503	-1738	-15492	-340	-60	360	13410	-2536	-13572	3912	18628	8314	-32768	21713	-12340	196	-8488	-7517	-32768	-673	-8720	2944	-10208	-4482	-10517	862	133	122	1
-9232	-4200	12056	403	843	806	-16544	-1236	-1616	-794	3841	-1737	-15000	-1096	256	-3549	13284	-2597	-18112	3488	21084	7502	-32768	22378	-12956	-588	-9624	-8457	-32768	-2277	-6544	1144	-10372	-7505	-7978	-626	123	120	1
-9316	-3748	12428	774	526	1373	-16376	-1180	-2428	-2414	4615	-1539	-14876	-1372	204	-6256	13367	-2504	-20016	1540	20596	11057	-32768	23467	-16096	-924	-9616	-8554	-32768	-3829	-6872	3256	-13040	-17161	-5645	-83	127	124	1
-9288	-3072	12560	821	609	1590	-16128	-976	-2868	-1211	5185	-1042	-13208	-648	696	-7429	13866	-1346	-23112	2676	20224	13892	-32768	22734	-19564	2008	-10572	-10638	-32768	-5916	-4148	228	-9704	-19099	-680	2704	132	119	1
-9248	-3212	12696	960	814	1894	-17172	664	-2920	-1233	5846	-1226	-13412	1976	4664	-4309	16034	-3223	-28476	5148	22344	11048	-32768	21322	-25164	2868	-11164	-12280	-32768	-8162	-5116	-1388	-5308	-16921	-4142	3638	131	118	1
-9340	-3176	12712	994	878	1873	-16384	1668	-2336	-2998	6839	-1623	-15100	3264	2164	-4943	17913	-3805	-32768	12304	21604	6999	-30828	22464	-27928	7644	-14988	-13622	-32768	-9907	-13720	1176	6596	-15226	-14991	3046	129	114	1
-9112	-2200	13232	697	1932	1676	-16328	1812	-2100	-3352	7069	-1666	-19448	1856	-320	-4787	10793	-1362	-32768	13344	7804	-1990	-27880	28399	-21180	6784	-19904	-14842	-32768	-9364	-15756	1824	13208	-14956	-15265	2419	128	115	1
-8992	-1484	13632	271	3353	904	-16780	956	-1900	-1822	10053	-2069	-18652	-2392	3244	-4681	3938	683	-32768	-588	-1944	-3735	-24253	31600	-13336	7788	-21740	-11494	-31125	-5886	-9704	-2592	14636	-15720	-2846	-2047	125	124	1
-9132	-2460	13752	-749	5356	634	-17848	512	-1776	897	10916	-1192	-16956	-3000	6424	-1123	13390	-1167	-32768	-17896	-15448	-190	-19710	24537	-10412	3272	-19288	-4057	-19368	-1469	-17260	-20424	26640	-18616	-2679	-445	123	121	1
-8940	-2848	14744	-1504	8152	663	-17820	-496	-1148	978	13245	-700	-18524	-3068	5964	-504	13504	-870	-32768	-29580	-24368	2867	-9429	6070	-2376	8512	-19636	5299	-3423	3259	-21020	-11928	25424	-3045	-2825	1981	125	125	1
-8996	-3724	15404	-1836	12386	1261	-20336	372	-676	2172	15302	-422	-21396	-3096	7304	-1355	10041	-396	-32768	-22556	-15004	1923	-1062	-11135	-4372	8108	-22704	3021	11439	5742	-16096	-3252	10792	15265	-4552	3608	126	131	1
-9032	-3744	16836	-1987	18539	2194	-22264	2392	-788	3607	17876	-549	-23032	-556	9632	-2118	5114	129	-32768	-6696	-21684	-27084	15184	-22331	-7608	6736	-24368	-1768	22104	7354	-14336	-1772	5920	21607	1809	2590	127	146	1
-8636	-3268	18164	-2763	27086	2946	-25480	5368	-136	3958	20940	-975	-23424	888	14320	-2988	261	1005	-4416	13848	32767	-1236	32767	-1948	-32768	-25876	22456	-9112	20249	-8357	-32768	3524	32767	3573	-9132	4156	126	132	1
-6708	-1268	21220	-5633	32767	2811	-31712	7848	3236	2981	24199	-362	-27488	-136	23124	-2346	-8589	1801	-32768	-10308	26432	-10508	22906	-15981	-12388	4236	-22240	-32768	27580	3714	-17692	14716	44	-423	12930	12466	119	97	1
-9476	-18244	20656	-5362	32767	4356	-32768	17652	11404	-1586	26171	-378	-30600	10288	32767	6930	-25114	4824	-3372	3044	15752	-3076	17449	-11810	-7860	-10568	-10308	-9960	22659	6340	-12584	-14392	-27832	-16812	10713	2378	120	112	1
-17588	-19144	23348	-5967	32767	13765	-32768	1768	9492	-17615	29435	-4412	-21028	20120	-3184	-10977	-459	12164	-32768	13360	17668	-9054	10747	-14763	-15360	18324	-16184	1645	17835	8788	-10512	-12356	-20344	-14835	6053	4188	127	103	1
-32768	-21920	26148	-2521	32767	25056	-32752	-16984	-1328	-10828	28821	-3654	-19380	18412	-1192	-16724	-2351	11849	-21616	1880	19192	-7243	-187	-9018	-21008	4088	-19864	-9406	14655	8468	-23632	8140	-12200	3992	14233	5340	137	108	1
-29828	-18596	31944	237	32767	32152	-32768	-1912	908	5655	28567	-5426	-31008	-3732	-13384	-14133	-11915	1261	-11440	624	15196	-2127	-928	-2364	-17372	-5164	-12416	8314	11781	3912	-24900	8196	-10868	3803	11973	6468	130	105	1
-13712	-14360	32767	-11593	32767	22232	-25940	2996	-3444	4855	16983	-6732	-32768	2852	-6480	-9005	-17551	-616	-9196	2532	14484	-702	-566	-1203	-15388	6460	-10032	10436	9230	4245	-19992	516	-5748	2289	11769	6574	127	102	1
-31600	-26488	32767	-18337	-5740	-911	-18456	3336	-6476	-7317	10056	-356	-32768	988	-11740	-3103	-18204	241	-8124	2340	14272	192	494	-776	-17336	1468	-8604	5729	7245	3828	-15356	2844	-3796	4438	10707	1501	127	113	1
5324	-21496	24096	-5895	-26234	-7023	-17640	-304	4980	-10096	309	-4911	-32008	5020	-12448	-501	-20809	-66	-9044	1776	14188	1380	1111	-252	-16792	4868	-8496	1285	5818	2441	-17916	3680	-3468	1916	12936	1428	130	121	1
9000	-9428	14252	5375	-26647	-9129	-7900	-3516	2164	-4591	-9662	-3076	-24228	2332	-12272	-3038	-20223	-1288	-9688	3624	13740	1749	1608	173	-16948	3160	-6956	-2605	4727	2531	-17828	1560	-2408	-336	14789	1478	127	125	1
4452	-4008	11344	4612	-25750	-11668	-4940	-1024	-128	1345	-18743	-1511	-17736	1204	-12272	-4002	-20225	-2103	-9260	3384	13692	1647	1929	394	-16704	1560	-6388	1510	3098	2538	-16808	2128	-2888	547	15700	1299	134	119	1
-1332	-2840	12428	1584	-28551	-12854	-7656	-640	-1884	4467	-24626	470	-15812	1288	-12928	-4199	-20336	-3321	-9472	3544	13796	1381	1881	547	-15748	2848	-5688	4766	1972	2605	-17256	452	-1148	1811	18560	1302	131	127	1
-5144	-2888	13796	264	-32768	-12668	-8200	1768	-3440	3416	-29605	1687	-13308	-192	-13312	-4135	-21141	-3557	-9328	3692	13492	1167	1817	395	-15728	2680	-4616	5047	1489	2573	-15908	1140	-264	1947	16578	1214	122	125	1
-7872	-1524	14116	-227	-32768	-12757	-8292	2788	-3760	401	-32768	3361	-8148	-1004	-11904	1180	-20392	-4194	-9292	3376	13524	1043	1786	339	-15252	2980	-3932	4329	1533	2771	-15608	120	-976	730	15315	749	129	133	1
-9376	-556	15004	-1244	-32768	-13153	-9616	2512	-4488	-1438	-32768	5205	-6972	-1544	-14268	1279	-21467	-3122	-9240	3748	13268	852	1853	124	-14732	4108	-3528	1787	2139	2728	-14164	-8	116	4304	16004	712	127	140	1
-12596	-1236	16940	-2560	-32768	-13376	-11972	2460	-5380	-2360	-32768	7031	-5452	-2296	-12324	6279	-17465	-2205	-9468	3760	13112	407	1736	-559	-14720	3980	-3192	2147	2530	2573	-14388	1276	200	6827	15852	601	129	140	1
-15936	-2872	19428	-2664	-32768	-13242	-16244	2840	-6364	-3893	-32768	8029	-3528	-2136	-14092	8630	-14642	-2865	-9588	4000	12772	-38	1401	-1088	-14948	3680	-3040	4668	2878	2482	-13868	2748	-348	11221	14115	981	130	141	1
-19372	-1984	21240	-5625	-32768	-13256	-20652	3176	-6524	-4815	-32768	8938	-2216	-1556	-15272	13735	-11293	-3973	-9476	3896	13148	-333	1039	-1743	-15060	3560	-3500	5835	3347	2517	-13020	2828	3760	8410	13890	3152	125	135	1
-24228	-2940	22992	-10700	-32768	-12063	-26032	2064	-8056	-5038	-32768	10733	-1932	600	-13688	15754	-8213	-5323	-9616	3344	13276	-600	1186	-2293	-15384	2384	-3080	6213	4088	2514	-14196	2016	1416	9222	16246	4009	129	133	1
-32768	-10204	28424	-10278	-32768	-12665	-32768	372	-11992	-3494	-32768	10563	-2928	616	-3892	16305	-10347	-5689	-9408	3140	13480	-608	1801	-2455	-15356	2576	-1532	6621	5539	2480	-19452	4884	36	8922	13351	1890	126	133	1
-32768	-19800	24532	-1942	-32768	-18876	-32768	-2476	-14312	-2129	-32768	9356	-4048	1676	-1148	16006	-12015	-5470	-9280	3380	13884	-376	3259	-2743	-15544	3288	-592	5714	7762	2547	-21284	6172	1908	4414	7574	869	130	127	1
-32768	-13880	6756	9008	-32768	-28078	-26924	-5148	-23752	6408	-32768	7780	-13668	1208	10432	13574	-18429	-2503	-9508	3100	13888	-92	4968	-2723	-15732	3680	-572	3640	10361	2046	-17432	6656	7320	2093	8314	1562	116	129	1
-32768	-3288	-6276	9082	-30421	-27986	-23952	-7940	-26824	6014	-32768	3216	-18108	9076	18668	14703	-13562	2107	-9524	3268	14244	-27	7049	-2568	-15540	3472	-784	1659	13178	1398	-15508	4552	8332	3498	11634	2041	143	135	1
-32768	20348	-32768	274	-23088	-12323	-7228	-3876	-32768	-2168	-17644	-4617	-12388	19220	32767	16723	-4152	4509	-9624	2720	14620	-63	10215	-2650	-16152	2752	-1556	-538	16193	1085	-16968	2760	6992	3442	11419	1798	127	141	1
-32768	26444	-32768	-10122	-155	5274	-2252	-11044	-32768	-9149	8357	-5831	-18960	9544	31468	12770	4947	-2468	-9676	2928	15996	135	15276	-2324	-19248	3752	-2392	-2305	19334	256	-19104	5224	4724	1295	8795	956	123	138	1
-32768	6932	-8916	3992	9598	13255	-12312	-9596	-28788	5195	21809	-3771	-14968	3436	1108	-9775	11296	-3954	-9560	5032	16620	-99	22730	-4064	-23716	600	-2404	-929	21312	712	-23320	4356	5420	1932	5580	244	124	140	1
-4628	-11312	15792	17790	21371	7415	-22944	12044	13868	22266	27907	-4852	-14556	3148	-3164	-17351	13494	-3244	-9664	5356	16760	-163	24059	-4391	-26296	-1100	-1740	2616	23295	1554	-26892	3700	9508	1438	-275	-842	135	150	1
1148	-6612	19316	1846	32767	-6552	-32768	13940	88	23865	16839	2451	-13384	-5636	5124	117	4326	-2511	-8808	5428	18656	-938	32767	-8024	-31240	-2932	1592	4235	25490	1390	-26912	3764	17244	-1955	-8393	-966	115	159	1
-9364	-4064	11608	2187	32767	-5773	-21100	860	-15304	19633	13065	-1758	-17756	-296	2600	31858	7650	-3550	-10244	12164	20268	-262	32767	-12893	-32768	-8900	8348	11262	26322	2827	-28120	-5296	32767	-9654	-26454	-3942	125	171	1
-16308	-14988	15836	-3945	17982	12272	-21344	8596	-9824	26577	23452	-6762	-20312	16796	-19388	20218	5490	-8133	-21680	18740	18916	582	32767	-29954	-32768	6652	9092	25043	24359	3964	-16452	-24304	-1856	11984	-8553	-13124	140	177	1
-22980	-4752	17032	3560	21108	4192	-14864	-8056	-7892	13364	16697	-9475	-13840	1160	-9732	-11529	4139	-1521	-32768	6352	20688	-6806	32767	-32768	-27508	14796	-8784	15370	27153	6665	-28340	7064	-1412	18718	-16025	-6663	105	165	1
-17328	-19012	11076	6313	3805	6734	-14748	-11260	-9764	10248	16056	-9671	-11364	-10360	-9968	-4910	9416	-3425	-32768	19432	29340	-3204	32767	-32768	-27608	6388	-9156	8311	23805	3097	-31492	11244	-15692	23017	-12616	-4939	130	158	1
-10940	-3388	13240	4224	288	4140	-20920	6608	-8904	-1247	15006	-5524	-24896	-2928	-10636	-3004	10042	-7867	-24044	19676	32767	10683	32767	-18953	-21728	4136	-12360	-989	17417	1850	-32768	-1448	-6772	3542	-23058	2433	142	143	1
-8456	-2672	13996	2503	462	2041	-18416	1368	-5332	-9864	13157	-3991	-17032	800	-5388	-3565	10106	-4961	-32768	32428	32767	16401	-6649	-998	-15596	3272	-14392	4946	10788	2753	-28424	248	-6520	-506	-23960	3585	133	107	1
-8340	-2084	13388	1553	783	1834	-16984	1532	-6196	-6856	9756	-4361	-17504	1876	-6084	-3885	12043	-2447	-116	22872	23076	6364	-28010	8382	-14260	-716	-3628	12365	-1251	4180	-28460	-180	-8048	1267	-24668	101	132	133	1
-9016	-1180	14228	334	1513	1267	-19020	1132	-5620	52	6200	-4262	-19800	4016	-4152	-4649	12034	-594	9496	10976	12356	1908	-27473	12992	-9196	2180	-3284	12364	-9930	3607	-24736	4016	-8684	5145	-21016	-626	119	116	1
-8908	-2764	13236	92	2306	155	-19240	604	-5624	5238	4641	-3781	-17320	3440	-3868	-6300	14062	26	5404	6488	10408	1869	-23258	14464	-4480	3572	-4044	1624	-16811	3446	-18972	1372	-9304	2764	-19214	613	120	111	1
-9432	-3292	13312	463	2606	-439	-17244	2424	-4928	2521	4036	-4946	-17468	3060	-3784	-6452	14581	68	-3832	6444	13756	936	-25958	13120	-4348	4288	-5724	-6653	-22024	2414	-15972	224	-10452	1983	-16410	1776	129	111	1
-9036	-3172	12912	608	2512	-962	-16772	1108	-4552	-2423	3254	-4208	-15796	-2752	-3956	691	15929	-715	-7628	2288	15940	3199	-32768	12464	-5408	1856	-6568	-9746	-26863	2292	-13736	1088	-10416	1980	-15732	2574	132	108	1
-9020	-2944	12740	333	1926	-899	-16264	-792	-3432	-5982	2383	-3623	-16576	-3288	-3008	385	15601	-872	-8568	2004	14924	8772	-32768	12744	-7800	-676	-6656	-7614	-32043	838	-11116	3764	-11500	1944	-15278	2966	129	114	1
-8852	-3912	12632	-3	1535	-490	-16948	-3852	-2228	-3054	2703	-3075	-15576	-3844	-1032	868	15017	-1812	-8560	3576	14316	11164	-32768	13643	-9536	-960	-7756	-4678	-32768	-542	-8920	4888	-11780	-894	-13906	1385	129	115	1
-8808	-3292	12884	-7	1428	-7	-15696	-1620	-2060	2244	2490	-1820	-15972	-1500	-252	2006	14091	-2741	-11972	5084	16948	11536	-32768	15879	-11228	-492	-9108	-4332	-32768	-1944	-8716	2972	-12104	-3372	-10245	-214	137	121	1
-8904	-3728	12988	153	1324	407	-16356	716	-2016	992	3092	-1639	-15064	1120	1200	-2477	12831	-2810	-17604	6580	19424	11314	-32768	19857	-12716	-648	-10032	-3214	-32768	-3039	-8216	2192	-12432	-4008	-9615	-689	129	124	1
-9068	-3644	12596	453	1189	951	-16648	4	-2528	-3547	3832	-1922	-13348	624	796	-7379	13302	-2347	-19752	6148	19480	12279	-32768	22883	-17144	1604	-10228	-3746	-32768	-3099	-4612	1948	-13880	-12353	-3673	-120	133	121	1
-8916	-3096	13076	517	1475	1253	-17176	124	-3072	-4352	4569	-1956	-14856	4072	4348	-10945	14946	-4285	-23232	6880	20232	13081	-32768	24236	-20788	4992	-12024	-9402	-32768	-4720	-2188	372	-12604	-21961	-2137	2468	127	120	1
-9004	-3196	12856	550	1782	1513	-17056	580	-2880	-4426	5214	-1978	-14160	2056	612	-7743	18407	-4049	-32768	11968	28500	10922	-31144	25644	-26656	7576	-14416	-14733	-32768	-6880	-5036	-216	-6604	-18244	-3652	4492	122	114	1
-8856	-2924	13164	703	2239	1870	-15972	1512	-1808	-5959	6233	-2513	-19144	1472	-252	-8251	16043	-2381	-32768	17988	26132	558	-32768	32287	-27764	10648	-15912	-19678	-32768	-8779	-13304	2300	6032	-15322	-17317	3271	124	121	1
-8676	-2084	13780	193	3843	1829	-16080	1400	-708	-5788	8362	-1929	-21092	-1016	3128	-6716	7817	-1044	-32768	8528	9092	-10781	-32768	32767	-20424	5892	-19436	-20310	-32768	-11710	-16296	2556	8564	-15823	-16109	3940	123	114	1
-8792	-2048	13744	-462	5958	1439	-17356	296	-404	-4971	10624	-2321	-20912	-1964	3752	-6704	7013	-1112	-32768	-1824	-8968	-14374	-29352	32767	-16536	3360	-23332	-16980	-32537	-6664	-12876	-4860	17404	-19890	-7449	250	124	109	1
-9204	-2912	13620	-307	7745	1279	-15836	-848	-136	308	11162	-1700	-16512	-3528	10052	-1589	14314	-78	-32768	-32768	-32768	10319	-19372	19251	-3264	1356	-22136	-1395	-14963	2332	-21020	-19420	32767	-30576	-5622	1498	123	101	1
-9112	-2360	14496	62	10181	1180	-16848	-296	-396	2298	14499	-1326	-16948	-4820	9028	526	13139	-679	-32768	-32768	-27308	5720	39	-6044	-704	14584	-23640	-488	7427	5366	-24380	-11656	27248	-4560	-1107	-4044	125	113	1
-9236	-3620	15712	-7	14462	984	-20628	-924	112	5208	16630	-323	-21604	-4592	8288	1883	10011	-579	-32768	-20576	-7580	-11506	4664	-18749	-5172	5852	-26496	-2655	21520	3752	-12188	-2296	2628	12160	-1064	-582	124	130	1
-9656	-6500	16784	96	20699	3350	-24016	972	560	5978	19107	-1255	-24636	128	10840	399	4839	78	-7900	4644	364	-12552	9702	-19683	-11732	5116	-9568	-5051	26127	4616	-7828	-2556	1640	24560	3384	3792	123	137	1
-9276	-4704	18532	-407	28939	5910	-26956	5492	860	3295	22259	-3182	-24824	3064	15684	-3999	-893	-290	6240	20976	32767	9375	32767	-3771	-32768	-24536	7780	-7826	19396	-6870	-3464	6604	-14700	13642	9603	3790	123	118	1
-7480	-3436	21240	-2315	32767	7385	-32768	7528	4596	837	25705	-3171	-29396	3280	24148	-5127	-11457	303	-32768	-14120	19792	-6444	29749	-9569	-10268	9404	-18644	-23245	22869	3470	-32768	-10820	13352	-13436	3479	8083	121	106	1
-4400	-11464	23168	-6674	32767	8566	-32768	19592	10240	-2529	26610	-4081	-27552	14828	32767	11797	-26277	3284	-15748	6636	16836	-1652	17173	-11359	-19432	-14108	-16632	-8557	20969	10663	-16520	-10620	-17272	-4451	6575	3648	125	108	1
-23960	-11248	26168	-2440	32767	18120	-32768	3364	5484	-19098	28756	-7607	-19460	20780	-2920	-23161	-3613	11240	-29404	4524	21544	-4316	10141	-10028	-14272	12444	-16556	15679	15823	9248	-8964	-2196	-9688	13497	4691	-1314	126	108	1
-32768	-21444	27808	-2472	32767	26392	-32768	-13828	-3564	-18331	31029	-4426	-26788	-6780	-10916	-29991	-7960	4182	-15248	1392	18352	-4350	2266	-5226	-16888	10044	-16388	3333	13190	9527	-25436	17308	-15732	10357	12311	3923	131	117	1
-32768	-24736	32767	-132	32767	30852	-32768	-5640	-2956	-1284	24535	-9701	-32768	-4032	-11272	-17843	-14725	1125	-9540	4860	14068	-1409	826	-981	-17416	3328	-9632	5159	11215	3858	-18280	9956	-7968	1911	10489	6109	135	102	1
-5948	-6584	32767	-12599	19114	14188	-22000	3216	-1328	4613	17465	-6414	-32768	520	-8596	-6275	-18147	-987	-9052	3632	14152	-522	1082	-434	-15804	6540	-8548	1314	9096	3092	-18004	5056	-5824	-670	11362	5700	126	93	1
-3796	-26368	32767	-22290	-14888	-1826	-19816	3228	4360	-7193	7466	-3400	-32768	3284	-10916	-1074	-19798	-212	-8644	4068	13764	208	1185	-670	-16760	4356	-7732	-2376	7387	2661	-18284	2744	-3832	-926	11758	2014	121	100	1
8964	-21064	21020	-7575	-22914	-8660	-13752	-1604	4296	-8611	-5686	-4860	-29696	3592	-12368	-2906	-21258	-1137	-9356	3832	13812	204	939	-794	-17060	2292	-7400	-2465	5709	2280	-16648	1536	-2528	-922	13563	1742	125	113	1
8048	-10288	15840	1465	-23678	-15952	-7128	-1708	1376	-713	-14552	-3422	-22052	928	-13276	-4077	-20410	-3007	-9312	3868	13720	102	897	-685	-16548	1492	-6700	1721	3851	2494	-17940	836	-2764	-929	14752	1645	118	139	1
2000	-4680	14236	778	-25827	-20671	-7796	-228	-284	4733	-22342	-933	-18976	1172	-13976	-3005	-21482	-4275	-9244	4096	13732	263	1071	-305	-16424	1744	-6452	2335	3650	2482	-16812	1876	-2296	390	15093	1235	129	127	1
-3040	-2852	14540	1118	-30277	-21005	-8412	716	-2388	6126	-29133	875	-16108	2624	-14424	-3643	-21993	-4846	-9556	3760	13464	550	1345	23	-16172	3112	-5660	3781	2002	1976	-16080	1188	-1604	322	15513	1543	127	129	1
-6656	-376	15748	2597	-32768	-19448	-8992	2456	-3912	5034	-32768	2697	-13204	40	-14364	-3514	-21918	-5502	-9328	3648	13536	630	1368	235	-15468	2032	-4592	3221	1631	2041	-15808	-84	-544	675	15884	1122	124	139	1
-9836	1844	16732	1313	-32768	-16932	-9652	3200	-4928	2105	-32768	5107	-9268	-2172	-14580	406	-19949	-5775	-9240	3872	13252	494	1241	276	-14908	2476	-3772	3038	1708	2258	-15076	-1136	888	3240	16279	724	135	129	1
-13360	1792	19144	-2019	-32768	-14350	-11200	2560	-5904	-829	-32768	7745	-6148	-1856	-14688	5717	-17417	-4593	-9180	4284	13132	154	930	-196	-14808	2952	-3180	3541	1969	2537	-14136	-472	1104	5214	14233	-316	127	128	1
-16296	-176	20092	-3637	-32768	-11670	-11656	2544	-5840	-1243	-32768	8110	-1496	-2640	-15016	8247	-17233	-3707	-9292	4120	12932	-337	439	-808	-14136	3912	-2884	4968	2393	2337	-14272	2024	784	8653	14516	-144	127	128	1
-16684	920	19680	-9378	-32768	-9091	-20052	5048	-5960	-6395	-32768	10318	-692	-2256	-16724	15522	-13545	-3642	-9388	4028	12724	-723	-258	-1198	-13944	4504	-2604	5306	3154	2024	-13976	3960	156	10205	13215	120	123	129	1
-24412	-1508	22736	-14614	-32768	-7070	-24272	3740	-9952	-8528	-32768	10549	-864	1452	-14668	17245	-10523	-4354	-9112	4448	13040	-1074	-788	-1936	-15048	4232	-2704	4191	3927	1711	-14008	4192	552	9415	13714	1079	130	129	1
-32196	-6260	28684	-15675	-32768	-8934	-32768	3576	-11948	-7739	-32768	11325	-2448	2552	-4360	17791	-12877	-4240	-9188	3948	13408	-1317	-1034	-2740	-15652	2204	-3620	3980	4544	1814	-14028	1600	2584	7657	14146	2716	129	131	1
-32768	-18384	28120	-9345	-32768	-14222	-32768	1268	-12948	-9535	-32768	8549	-8924	4588	6924	13973	-21243	-1529	-8924	3716	13756	-1225	-757	-2807	-15496	2080	-3304	5992	5163	1765	-12628	756	372	7372	14679	1734	126	132	1
-32768	-18264	13536	374	-32768	-24583	-31340	-4260	-20264	-723	-32768	4179	-17804	9772	12888	11831	-20944	-326	-8720	4108	13944	-1251	294	-2937	-16448	3316	-2200	4630	6359	1869	-18696	3884	-456	5418	14036	1633	119	132	1
-32768	-2764	7272	2422	-32768	-32768	-21912	-3316	-21464	5476	-32768	3596	-13476	6924	14856	5168	-8399	2896	-8956	3368	13932	-1357	1717	-3045	-15660	2720	-800	1969	8326	2001	-20832	8000	1828	2444	10579	1040	144	133	1
-32768	5812	-9484	7222	-28162	-25323	-19244	-3132	-26316	-427	-26195	613	-12228	8268	27636	12982	-7491	4209	-8820	3592	14316	-1069	3653	-2861	-15784	3812	16	70	11031	1599	-19408	6260	6992	-466	10789	1987	119	138	1
-32768	32767	-32768	-5776	-15340	-3329	-464	-1300	-31780	-14810	-7655	-5843	-14324	11084	32767	15120	-4995	792	-8176	3564	15732	-514	6818	-3105	-17204	4520	-840	-1431	14165	538	-18452	5220	7060	332	11367	2024	125	145	1
-32768	15872	-18768	-3543	2546	14030	-8644	-13816	-29844	-2585	12450	-3185	-17272	5460	27120	9770	4260	-4595	-8440	3968	16672	-161	12051	-3519	-20036	3592	-1704	-1595	17147	-424	-21156	4904	3984	355	8764	1119	119	147	1
-32768	2064	-5412	13014	10077	14479	-15400	-1724	-25432	10929	24959	-1134	-14448	5392	-1384	-7195	6408	-5129	-9064	4712	16932	-96	19209	-4681	-22588	964	-2860	-28	19542	99	-23540	2996	4256	2382	5943	199	132	143	1
-32768	-4860	1600	7076	14274	12072	-19892	-2644	-20500	7891	28550	-5353	-14296	8720	-6696	-13849	13770	-2026	-9352	4096	17560	-616	27512	-6045	-24220	-1488	-3092	2771	21249	558	-23628	24	7516	5096	3909	973	126	148	1
32767	6208	32767	13626	16499	1220	-30388	32767	32767	19682	21470	-2897	-1920	5772	304	5923	14587	-3136	-8632	3896	19336	-803	32767	-6996	-27368	-788	-672	5111	23697	295	-25480	-148	12072	5755	-935	129	130	155	1
-12156	15080	-2008	1845	32767	-6280	-21376	-344	-18484	12143	8120	182	-17380	-20096	9508	-2757	-5902	-2835	-8740	6528	17904	-662	32767	-9778	-31768	-4948	3020	5692	25390	704	-27984	-1152	17716	254	-9336	-2070	123	165	1
-29508	22540	32767	-3959	29435	10007	-24192	4556	-7936	15816	21723	230	-28660	9488	10772	32767	13661	-2875	-9804	13748	18620	116	32767	-16962	-32768	-8976	9676	17123	24594	3308	-26404	-2644	28196	-5158	-28296	-7581	130	172	1
-16208	-32288	9220	-3638	22161	6674	-27164	8232	-4892	18924	20549	-2303	-22936	18364	-9888	13883	6404	-5221	-32768	15216	18444	-1048	32767	-32112	-29296	13524	96	25434	24635	3957	-12800	-11404	-2984	14930	-8062	-12835	120	166	1
-11224	6276	15696	2680	20762	4207	-13504	-5824	-6780	10831	14847	-8887	-10476	5556	-10524	-17246	8479	-3415	-32768	12928	23276	-3683	32767	-32768	-28112	14044	-7604	13824	27270	3263	-26744	10924	300	13529	-15921	-3781	118	158	1
-20968	-17592	12244	4626	11472	7133	-14092	-3644	-10452	58	13840	-7172	-8368	-4968	-5720	-13665	9117	-4017	-32768	17764	30032	-551	32767	-31842	-25104	8160	-7532	963	23988	-574	-29296	12568	-15656	9362	-13014	-1775	132	148	1
-11384	3580	17024	4805	3648	4851	-22008	5032	-8024	-3364	13122	-6681	-24960	-6476	-7300	-11076	12220	-4187	-8968	13432	30108	6164	24520	-22587	-19240	7700	-11964	-9519	20184	415	-31572	-92	-5324	-6065	-22550	3422	120	123	1
-9908	-3040	13156	3335	2152	2315	-20708	-1160	-5420	-9995	12439	-4920	-20048	-4076	-6440	-8599	11166	-2019	-20536	29640	32767	7109	-11200	-2983	-17668	2608	-8792	-1530	11031	-116	-26748	-1260	-5032	-4249	-22374	3140	126	106	1
-9736	-3000	13700	2340	1301	1732	-16188	-3016	-4876	-3556	9460	-4066	-16560	-3472	-3980	-1114	12378	-2331	3600	18440	18836	882	-22506	4863	-13300	-1872	-3036	8475	719	382	-27312	1668	-7636	113	-21597	468	125	112	1
-9808	-2424	12952	932	1331	1153	-17968	-48	-5280	2813	6463	-3094	-17488	2408	-3020	1244	13180	-1948	8944	10496	10856	-1264	-21126	7838	-8532	2384	-3120	10274	-7326	491	-22628	2852	-7360	1591	-19778	-29	118	113	1
-9248	-3080	13176	-235	1775	470	-19136	2292	-4160	2821	5569	-3517	-18048	4128	-3372	-518	14293	-805	4928	7680	9488	-645	-18065	9187	-4756	4928	-4088	1294	-13999	51	-19424	4848	-8780	-205	-17327	1313	115	112	1
-9780	-2992	12664	-320	1818	-162	-16844	556	-4632	-1009	4905	-3884	-16112	-692	-3984	-2319	15091	316	-1752	8752	11592	-365	-20175	9131	-5476	5256	-5844	-6284	-18963	-1270	-17684	676	-10692	-3096	-15989	2251	121	109	1
-9724	-3548	12448	581	1564	-923	-16900	-964	-3576	-3882	4877	-3340	-16456	-4136	-3220	-1592	15755	-764	-7212	8184	14056	721	-27249	10323	-5860	3632	-7420	-9442	-24104	-1394	-14420	1104	-10240	-1320	-16408	2912	135	111	1
-9292	-3804	12348	876	1354	-1267	-16832	-2504	-2376	-3625	4331	-2562	-15796	-2872	-1692	2275	15284	-2438	-8312	7040	13504	3850	-32768	13626	-7308	1524	-7240	-7335	-29396	-2324	-12748	3360	-10688	-2018	-16138	3282	134	118	1
-9160	-3668	12380	1016	1162	-893	-16248	-1452	-2172	-139	3651	-1967	-15432	220	-724	1701	14313	-2212	-9544	7548	13044	6093	-32768	16733	-8872	1416	-7856	-5533	-32768	-3415	-11200	3180	-10904	-3207	-14893	2444	136	116	1
-9148	-3492	12540	813	1107	-578	-15880	-456	-2252	434	3748	-2067	-15744	964	-452	-173	13619	-2284	-13900	8572	15080	6215	-32768	19432	-9816	1744	-9248	-5138	-32768	-3706	-9236	2336	-11336	-5673	-12331	1423	128	117	1
-9144	-3632	12756	483	1260	-137	-16560	-56	-2260	-601	4047	-2122	-15096	848	456	-3311	13715	-1886	-18036	8240	16964	6346	-32768	22139	-11436	1568	-9708	-5084	-32768	-3621	-7380	432	-12172	-7948	-9200	-209	128	124	1
-9108	-3568	12740	228	1544	265	-17084	-4	-1960	-3165	4872	-2103	-15148	292	100	-8293	13969	-2299	-20180	7452	17420	9063	-32768	24289	-14780	2148	-10236	-4580	-32768	-3400	-6016	-220	-13116	-11010	-5482	-144	136	121	1
-9428	-3884	12740	214	1960	738	-16968	-1192	-2348	-4382	5435	-2139	-14032	-1180	2176	-11287	13483	-2768	-22892	7608	17620	12760	-32768	24885	-19132	4264	-10968	-6460	-32768	-3391	-3992	-1320	-13700	-13995	482	1982	130	117	1
-9336	-3392	12672	162	2282	891	-16600	-804	-2504	-4423	6373	-1827	-13712	280	5316	-5499	16256	-3678	-29776	11404	22652	11750	-32768	24247	-23620	6920	-12976	-9799	-32768	-4228	-3452	-1600	-8800	-15088	1130	3566	128	114	1
-9196	-3264	12760	302	2637	1106	-16264	604	-1488	-4907	7538	-1907	-16088	1868	2144	-8315	17502	-4817	-32768	15264	29412	7453	-32768	26771	-29312	8560	-15300	-11645	-32768	-6093	-10288	504	932	-13629	-8529	2888	124	119	1
-9104	-2276	13372	-255	3661	1044	-16188	800	-1896	-4954	7842	-1979	-19836	436	444	-7855	10987	-1548	-32768	11388	21252	653	-32768	32767	-25236	4448	-18036	-6498	-32768	-7516	-16168	3960	5748	-9480	-15621	3291	126	118	1
-9212	-2704	13584	-1171	5493	809	-17348	-260	-1520	-3826	10520	-1696	-20868	-4980	3480	-7273	5748	22	-32768	5628	4336	-660	-32768	32767	-18528	5264	-21788	-1022	-32768	-3276	-15860	-136	7348	-9875	-9689	4168	127	114	1
-9468	-3620	13020	-1526	7444	992	-17812	-1092	-1232	-998	11750	-1307	-15944	-4180	7864	-4455	11843	-75	-32768	-22396	-16808	15908	-31479	21393	-16100	-644	-20836	1493	-31066	6446	-10936	-13736	32767	-11223	-10799	1981	125	109	1
-9612	-3440	13640	-1324	9980	1553	-16848	-420	-888	355	13826	-1499	-16652	-2296	7428	-3098	12311	-491	-32768	-32768	-29848	32767	-15460	8011	3504	10564	-20592	21322	-8248	10176	-31536	-15272	32767	2247	1344	-272	125	111	1
-9476	-2468	15268	-1612	13953	1298	-19184	220	-588	3370	15876	-786	-19408	-3596	9076	70	10489	-641	-32768	-20696	-21572	-6743	922	-11186	-1796	15220	-22484	10157	13889	5024	-17156	5384	17248	11358	-8707	-217	123	115	1
-9108	-4344	16108	-2560	20497	1871	-23428	2328	-20	5843	18140	-558	-19992	-3208	9012	512	9952	-676	-32768	-12908	-3676	-10395	3881	-16885	-5696	9692	-25800	-10047	26574	1132	-13444	10204	-2248	15684	-197	5268	125	116	1
-8728	-3524	17004	-4292	29370	2735	-24104	7968	776	3943	21115	-2425	-24484	924	11352	8	5191	136	23752	12868	32716	-28736	15140	-6754	-28956	-12512	27848	-27403	24221	3474	-5532	7376	-1432	16651	9702	5266	124	122	1
-10736	-3392	20376	-8170	32767	1174	-29304	14756	2836	-2266	25388	-2909	-26020	6456	27916	-3026	-14254	4424	-21528	-21604	16544	-16039	32767	-18018	-32768	6188	-20392	-32768	23507	-158	-26856	19116	11668	-24039	-1925	8976	126	125	1
-2796	-10040	23460	-9812	32767	555	-31048	15988	6396	-2997	26336	-2832	-24336	16224	32767	15369	-11974	5638	-26776	-12744	32767	-1524	17790	-17649	-12464	-11268	-8620	-19251	27024	1788	-31336	-23884	-13928	-31133	20508	902	126	107	1
-32768	-16264	22644	-9770	32767	12637	-32768	-5312	1304	-12995	29315	-2798	-21056	11860	2088	-27419	-1261	10418	-12080	27764	7100	-8708	20808	-5431	-16836	6520	-13720	-6648	21524	7482	-10396	-15908	-14916	-590	2014	3295	130	91	1
-32768	-26668	24936	-4817	32767	23488	-32768	-12808	-3064	-1249	30843	-2424	-28812	-11460	-11228	-22444	-4593	4291	-27000	-3612	20048	-8039	8620	-13229	-10560	6324	-18972	-3785	16753	8903	-6908	1672	-9828	11365	6308	918	135	100	1
-29272	-22560	32767	-768	32767	28857	-32552	212	1148	2896	27500	-6933	-32768	-5820	-10304	-10367	-14827	1214	-13824	-4020	20236	-6645	4960	-6796	-22032	-3152	-17476	7486	13207	8515	-29992	11140	-15168	13237	12443	4598	126	119	1
-5856	-3796	32767	-14302	32767	18365	-24512	-1896	-5004	1837	17287	-4531	-32768	-8	-5796	-2244	-18331	-1083	-12004	7648	13888	-2739	1368	-2309	-16412	7588	-9368	16722	11440	5334	-14904	8672	-4680	6838	7099	5423	122	113	1
-21832	-27964	32767	-20892	-14878	1292	-19664	1156	-2584	-7187	10279	839	-32768	-236	-10168	2228	-18188	297	-9056	4240	14196	-1693	1409	-2014	-15536	8140	-9304	6040	9598	4374	-19008	7480	-7404	4431	10074	3214	123	112	1
6536	-19072	21232	-5825	-30156	-1914	-16432	-2600	4012	-7983	-1041	-1721	-32768	1832	-13424	1335	-19598	1326	-8260	2896	13608	-495	1409	-1914	-17004	6416	-9240	-2247	8070	2338	-16172	5052	-3348	1986	10588	1831	115	115	1
7964	-10652	12652	6369	-28700	-4873	-6416	-4220	828	-4699	-11879	136	-23972	-44	-13432	-11	-20110	587	-9108	3700	13876	339	1663	-922	-17556	2292	-7704	-3305	6418	2231	-18804	2272	-4484	1319	14146	2352	136	131	1
2164	-6744	11252	9393	-29236	-6949	-5492	-3476	-908	915	-20351	1882	-18556	-796	-13408	65	-20320	-916	-9664	3788	13600	583	1880	-743	-16832	2108	-7596	2513	4308	2489	-18512	2824	-4592	1337	14385	2121	126	125	1
-2792	-4332	12092	7246	-32768	-7856	-7320	-3092	-2620	6568	-25991	3692	-16628	736	-14076	-1878	-20592	-2824	-10172	3852	13232	675	1967	-188	-15728	3628	-7204	5540	3002	2322	-16536	2416	-3636	359	16037	1619	136	117	1
-6060	-3848	12876	2953	-32768	-8797	-8540	36	-3432	4789	-31535	5656	-13860	-1912	-14804	-2074	-21420	-3207	-9812	3984	13232	681	2150	135	-15912	4048	-5436	5813	2170	2139	-16432	2748	-2860	-213	15459	1201	131	121	1
-9536	-5528	13976	120	-32768	-9759	-8840	124	-4348	1884	-32768	7518	-9428	-1344	-14032	2754	-19016	-2915	-9688	3952	13348	714	2300	307	-15664	3904	-4492	3871	2085	2091	-15860	460	-660	-189	15803	557	122	129	1
-11812	-5680	14960	-914	-32768	-11362	-10408	156	-4668	-289	-32768	8695	-6596	-1432	-14468	3499	-20859	-2356	-9588	3736	13088	655	2431	223	-14656	-1140	-3672	3859	2073	2468	-14828	-1008	324	1855	16248	437	130	127	1
-14172	-4596	15684	-3201	-32768	-13084	-14352	5064	-4732	-2276	-32768	10117	-4160	-2200	-15240	8854	-17731	-1698	-9436	3932	13048	562	2503	-27	-14420	3792	-2232	4346	2498	2507	-14904	-268	924	4763	14812	518	134	132	1
-15380	-5908	15896	-6860	-32768	-14397	-17664	2436	-4880	-7060	-32768	9840	-1068	-416	-16128	12283	-13871	-2602	-9816	4348	12772	-12	2497	-822	-15112	4448	-3080	5725	2928	3035	-14112	1060	100	11670	14454	815	128	136	1
-19828	-4984	17280	-12609	-32768	-13589	-22560	1120	-7744	-8684	-32768	8454	-944	1332	-15544	14709	-10320	-3789	-9724	4272	12408	-176	2336	-1499	-14472	4716	-3044	6283	3634	2540	-12660	3272	2528	13509	13989	2791	127	136	1
-29144	-8868	25548	-15388	-32768	-14835	-28936	-24	-10604	-8782	-32768	9067	-628	2916	-7564	13437	-10253	-4594	-10068	4464	12300	-539	2034	-2318	-14444	3968	-3064	7039	4242	2291	-12024	3356	3088	9930	16377	3774	128	139	1
-32768	-19656	30236	-11012	-32768	-19062	-32768	-1628	-10796	-8300	-32768	7074	-6612	2312	4468	9974	-18391	-2048	-9956	3976	12724	-952	2034	-3014	-14308	3992	-2188	7618	5307	2399	-16288	6496	-236	12592	16906	731	127	132	1
-32768	-18148	19972	-808	-32768	-26647	-32768	-3064	-18980	-5091	-32768	4975	-15936	472	6864	9462	-15495	-1435	-9768	4060	13332	-861	3039	-3408	-15436	3936	-668	6277	7453	2231	-21844	7804	-444	8489	9702	68	126	137	1
-32768	-6452	8148	2458	-32768	-30332	-23260	-6476	-21260	-1017	-32768	4036	-14592	2476	9128	7324	-7281	-779	-9712	3476	13768	-743	4847	-3596	-15816	3952	-648	3735	9920	1966	-19696	7724	5548	1674	6286	1449	133	140	1
-32768	-464	-5852	3901	-30185	-22097	-24368	-5776	-25356	638	-32498	-91	-16060	7792	25204	11500	-13722	572	-10044	3472	13900	-569	7117	-3337	-16152	3636	-864	1784	12780	1455	-15692	5600	9296	2300	10097	1698	128	140	1
-32768	28760	-32768	-6180	-18213	-5625	-1236	472	-32768	-6946	-13671	-7444	-15080	18904	32767	15901	-1394	-434	-9988	2900	14432	-442	10394	-3189	-15932	3924	-1076	-438	15852	909	-16256	4628	9484	3565	11969	1059	114	145	1
-32768	19248	-27096	-6325	5520	6987	-4636	-11356	-32768	-4912	12413	-4885	-18232	8436	24820	4297	4491	-4400	-9952	3512	15920	27	15674	-3058	-19552	3316	-820	-3134	19482	353	-20216	3700	7544	1278	9532	1225	121	150	1
-32768	3664	-5024	11792	11814	10417	-13040	-4932	-26828	10642	24498	-2739	-14344	328	-3576	-12723	11026	-3600	-9820	4788	16680	263	23284	-4711	-23424	-1408	-452	-546	22229	1473	-24600	2284	9912	-57	3302	700	127	144	1
3372	6556	32767	16623	25834	4389	-24508	21972	23636	30683	28854	-2368	-16716	2104	-1796	-7716	12958	-1856	-9088	4276	19032	654	32767	-5989	-27484	-2396	-72	3565	25158	2224	-26136	2572	15356	-302	-3420	-394	122	163	1
-22020	20876	15192	6728	32767	3545	-32768	2732	-15880	27425	17232	-891	-18976	-6448	14824	7711	-800	-1636	-7720	6708	19892	1983	32767	-7498	-32768	-5260	3324	6611	27015	2086	-30236	1512	22016	-1926	-15772	-1588	124	164	1
-31224	14812	30848	-2576	27284	10098	-18156	11192	-9240	20899	18370	-49	-20136	14924	-12948	32767	7961	-4186	-8364	16084	21928	2669	32767	-14964	-32768	-6416	11904	19996	26125	3734	-28232	-11060	31080	-15873	-23949	-10529	136	167	1
-6908	-24208	5516	-275	25090	5184	-19124	-2156	-8372	19969	23423	-6430	-15956	16604	-18372	4363	1696	-7054	-32768	14368	16184	724	32767	-32768	-26836	16496	-4704	22191	25897	3856	-21660	-8292	1456	10372	-9344	-9054	139	172	1
-27692	4268	20644	6047	12237	10638	-12728	-11224	-16064	10154	15740	-8873	-9828	-5236	-13152	-17157	6350	1039	-32768	14136	25128	549	32767	-32684	-28740	14868	-11940	10302	27455	4546	-31092	13276	-14560	25014	-14043	-5683	125	158	1
-17912	-916	16696	9076	6342	5620	-22536	4300	-13400	-929	14431	-8285	-21816	-8708	-11812	-5269	11076	-4554	-32768	24104	32767	5196	32767	-29982	-27272	7728	-11296	-16	21845	4147	-32768	6020	-9036	10956	-20361	539	140	147	1
-11116	-6480	13784	3647	2226	2081	-20500	1900	-6320	-9623	15262	-3510	-21144	-2188	-8520	-2920	9634	-5117	-29236	13664	32767	19641	12233	-18839	-17964	6356	-11252	-2852	15374	2783	-31848	3384	-7284	2116	-21194	4339	119	133	1
-9108	-3680	13648	2576	1372	1579	-17044	-1980	-6048	-6720	10511	-3495	-17064	-640	-6004	-733	11351	-2797	-8344	28036	29484	18837	-27193	-6591	-14084	928	-3768	9799	3181	2486	-30400	956	-8904	-1628	-23111	2006	121	127	1
-9076	-2332	13796	1439	1467	994	-17128	1232	-5596	290	7190	-3127	-17828	2916	-4084	12	12695	-791	8008	17504	13848	9335	-32306	-2310	-12076	1260	-2956	12124	-6216	3763	-25636	1928	-8512	1628	-21011	298	123	132	1
-8936	-2168	13840	1232	1499	848	-19764	1460	-4448	3302	5219	-2838	-18408	3832	-3528	-1917	13645	340	10324	11400	8236	5038	-26545	2796	-6352	2552	-3888	7331	-13972	4131	-21804	4556	-9708	2431	-19039	909	122	110	1
-8864	-3216	12952	1182	2249	-242	-17584	1844	-4116	1124	4270	-3485	-17100	1684	-3368	-4362	15179	1461	3152	10816	9272	6021	-21720	9532	-4876	1428	-5544	-237	-19923	1018	-20668	3812	-10168	1303	-19006	1024	119	112	1
-9508	-3644	12832	1314	2209	-299	-17248	540	-3780	-3315	3970	-3148	-16684	-3472	-3136	-3767	16227	676	-3060	10644	12404	5077	-22770	16192	-5956	1808	-6436	-4208	-25048	18	-14004	-260	-10812	-813	-15780	1823	128	112	1
-9496	-4172	12356	1126	1732	-322	-16820	-2052	-2712	-5804	3562	-1979	-15492	-4404	-1448	-208	16184	-526	-8776	9600	15588	2418	-28344	22298	-5560	1792	-7308	-6853	-29746	-560	-11848	1596	-11252	17	-15900	2055	138	118	1
-9076	-3860	12492	1260	1095	102	-16200	-2752	-1792	-3662	3138	-1502	-15088	-2032	480	817	15754	-833	-10768	6092	16440	911	-32768	26616	-7776	1324	-7476	-8244	-32768	-1578	-10120	3992	-11128	-1665	-14240	1885	134	113	1
-8904	-3296	12552	1199	672	652	-15616	-1716	-1568	549	3206	-1084	-15304	-1224	1328	1834	14840	-1276	-11728	3912	16428	1590	-32768	28442	-10808	1088	-7968	-9987	-32768	-2995	-7444	3060	-11188	-4324	-11583	1075	137	114	1
-8716	-3456	12536	1112	465	1095	-16272	-160	-908	1986	3614	-489	-16156	536	1640	879	14099	-1925	-16232	3504	18660	1648	-32768	26815	-11324	660	-9304	-12601	-32768	-4499	-6948	752	-11744	-7009	-7886	-328	130	119	1
-8912	-3568	12576	1237	411	1866	-16692	244	-1352	111	4265	-703	-14996	968	2440	-3504	13474	-1627	-19488	20	19880	4856	-32768	23799	-14076	-648	-9812	-12577	-32768	-5378	-4792	-80	-12768	-10421	-4242	-1205	130	123	1
-9020	-3452	12788	1376	620	2187	-16196	-136	-1784	-1388	5360	-689	-14540	92	1584	-7274	12838	-1582	-21636	-656	20488	12934	-32768	19970	-18560	-1300	-11452	-10360	-32768	-6477	-5200	984	-12740	-21064	-807	-471	131	119	1
-8696	-2956	12992	1545	929	2619	-16464	492	-2108	-1276	5999	-828	-12988	1280	3660	-8690	13307	-1446	-28292	3800	25516	14562	-32768	16892	-23356	940	-12312	-6085	-32768	-7806	-3488	-2108	-7396	-19581	512	1239	132	116	1
-9096	-2788	13108	1578	1504	2851	-17084	1468	-2296	-1497	7027	-1107	-13916	2920	4596	-4786	15704	-3284	-32768	8016	30036	13814	-32768	18182	-29708	5608	-13808	-2564	-32768	-8731	-9880	-732	2620	-14549	-11661	-25	128	118	1
-9140	-2808	13216	1418	2285	3313	-16720	2032	-1504	-3568	8254	-1768	-17336	4396	3576	-8587	16592	-2875	-32768	9068	18916	5298	-32768	22521	-22640	8284	-19140	2440	-32768	-8036	-20100	2416	9260	-9330	-19310	-25	122	113	1
-8940	-2052	13692	1376	3486	3377	-15700	1320	-528	-3471	9901	-2119	-20456	892	2384	-4828	9719	-1432	-32768	-1540	96	-168	-32768	23403	-15404	6832	-22160	-4647	-32768	-5299	-16068	-2572	9032	-4230	-8151	1304	122	117	1
-9024	-728	14184	1057	5378	2781	-16800	1636	-848	-531	12040	-1511	-18708	-5288	5600	-2479	4753	-451	-32768	-18876	-13640	2301	-27197	16047	-14084	2216	-22136	-6067	-25864	-1041	-11724	-9312	31924	-16089	-10158	-1571	126	113	1
-9040	-1292	14544	911	7807	2033	-17456	976	-1668	2306	13750	-882	-16992	-6224	9124	-1282	9000	1732	-32768	-32768	-30348	8854	-13185	644	748	7708	-23696	5891	-6449	2668	-23708	-16132	32767	-5631	-346	-689	132	118	1
-8976	-1956	15632	991	11192	1655	-18588	920	-796	3924	16032	-733	-17648	-2456	8912	1602	11590	650	-32768	-31112	-20152	-3833	2330	-15556	-3500	7444	-25580	1742	12664	3449	-18312	-4364	15232	14720	-1977	-399	131	127	1
-9012	-3288	16956	484	16910	2173	-22136	1620	752	5297	18728	-915	-23804	-1228	12096	3487	6829	601	-27280	-16972	-16404	-23169	16241	-26272	-8164	7092	-23072	382	24578	5137	-17736	-6680	2332	28401	-2406	1867	130	129	1
-9060	-4068	19048	43	25102	3755	-26128	4080	904	6077	21792	-1780	-25172	856	16416	2953	-1756	854	-5528	19128	32767	4078	32767	-2572	-32768	-28276	19828	-2855	21345	-7155	-16140	-4112	14504	4375	512	2316	119	114	1
-8148	-3460	22440	-1869	32767	5529	-32768	6452	1756	5617	25014	-2081	-30192	-428	26512	-1368	-14146	1784	-32768	-10912	14836	-10207	22035	-10908	-9992	10316	-19696	-29712	27996	5829	-23640	9172	-7604	6600	5742	4140	120	116	1
-4556	-8188	25556	-6318	32767	8244	-32768	16476	10488	1433	27668	-2990	-21272	11452	16328	13572	2444	6932	-264	3748	12248	-5383	16266	-12389	-7428	-4936	-16208	-13609	21574	6351	-9960	-4384	-25044	-4888	5561	2505	125	146	1
-15660	-8868	25796	-2342	32767	13647	-32768	11628	9352	-12674	29587	-5203	-22836	23092	5300	-19241	-8503	8306	-29936	1368	19712	-7338	6472	-12132	-16176	14316	-19248	4260	17553	6958	-10920	148	-9868	7142	2512	2521	128	114	1
-32768	-18208	27512	-1274	32767	21922	-31824	-9280	-5064	-20845	30609	-1807	-29136	-8364	-7872	-30138	-3350	6405	-16792	3620	16660	-4560	-1240	-5417	-21652	6196	-17544	-2391	14395	6310	-28556	14212	-15132	567	10830	5309	133	84	1
-26376	-18472	30844	4895	32767	30238	-32768	-9048	-72	-7096	24413	-4727	-32768	-12572	-11404	-13595	-15467	1164	-10144	3532	14580	-2231	-1295	-2080	-16000	752	-10296	4785	11562	2096	-19124	2540	-5376	-5164	10782	7538	128	100	1
-14320	-17656	30580	-949	32767	19770	-20448	-4856	-7336	8513	15557	-2832	-32300	-2416	-6872	3674	-17044	-1973	-8024	1744	15068	-715	-377	-1263	-16788	2284	-9076	2015	9396	2943	-17568	-2200	-3996	-4097	14562	4754	123	99	1
-26252	-21140	32767	-10982	-8059	-850	-15484	-1024	-6160	3243	11096	2632	-29980	-1812	-11192	9233	-14820	-1968	-8176	1860	14160	636	651	-797	-17196	940	-9216	1310	7200	2886	-17732	-2604	-4004	204	12964	2066	129	104	1
3780	-17252	16600	-3144	-22757	-4440	-15764	-1280	2668	892	1092	-381	-29124	2084	-12900	6017	-17529	-1397	-8784	2780	14340	1475	1230	-45	-17140	1480	-8184	937	5328	3212	-18256	-100	-4304	2347	13993	1275	122	135	1
6732	-9684	9024	5626	-21824	-5555	-6732	-3112	556	1552	-7307	1438	-20912	-2156	-11384	3795	-18778	-971	-9124	3464	14076	1493	1752	392	-17012	2760	-7440	2572	3387	3714	-19128	0	-4396	4633	14744	2360	132	130	1
4040	-6256	7860	6476	-20343	-7986	-5120	-2004	-740	3812	-14156	2850	-17820	-2156	-10952	4511	-18069	-438	-9312	3756	13916	1518	1949	910	-16352	3024	-6704	4232	2029	3363	-16344	1816	-2736	6873	14390	2921	127	128	1
464	-5788	9028	3539	-21477	-10517	-6784	-2324	-1408	6258	-19372	4625	-15948	-432	-11828	4735	-18894	-1432	-9236	4008	13512	1340	2124	1174	-15524	3856	-4892	6299	1075	3186	-15904	3112	-1324	6937	14065	2763	129	129	1
-2756	-6948	10264	2487	-25379	-12103	-6420	-2300	-2360	5544	-24428	6209	-12048	4	-14000	3950	-20846	-1682	-9236	4256	13400	1195	2047	947	-15388	5076	-3664	5338	862	3045	-14340	3508	-2456	6125	12778	2400	133	129	1
-6472	-7544	11576	3746	-30766	-13545	-6836	-2468	-3204	5003	-28468	7095	-9680	-2508	-12116	4166	-20321	-2169	-9200	4248	13184	927	1773	532	-14716	5228	-2764	2691	1206	2807	-15724	3856	-92	3345	14116	1306	127	130	1
-8548	-6936	12500	5018	-32768	-15447	-8412	-2116	-3460	4639	-32345	8616	-9096	-3716	-10568	4542	-19617	-5078	-9092	3980	13144	543	1521	-72	-14516	3504	-2644	1661	1859	2694	-13912	1832	2400	3433	13184	1526	130	128	1
-10396	-6508	13148	4576	-32768	-17065	-9720	-4596	-4028	4327	-32768	9967	-9012	-2676	-14024	6291	-19753	-3384	-9168	4164	13144	173	1272	-573	-12816	4980	-2160	4146	2297	2717	-14232	1868	1832	5183	11635	658	137	122	1
-13012	-6120	14452	2298	-32768	-17923	-13684	360	-4284	1100	-32768	11898	-5316	-1736	-13484	10317	-15835	-3959	-9232	4316	12992	-292	717	-1107	-15512	4232	-2780	2907	3206	2723	-14308	2928	396	7900	10867	1337	127	126	1
-15456	-6492	15444	-2186	-32768	-17821	-17572	-340	-4332	-2270	-32768	12262	-4280	-1708	-14428	16117	-11399	-4403	-9300	3872	13064	-490	446	-1263	-15464	3576	-3272	3329	3833	2341	-14240	3272	728	8020	11044	1932	125	127	1
-19852	-7180	17172	-8553	-32768	-16481	-22692	-1328	-5864	-3425	-32768	11894	-3568	864	-14212	19083	-9644	-4745	-9148	3892	13564	-694	507	-1617	-15860	2140	-3536	5261	3998	2765	-13832	-28	4124	7714	14090	4456	127	128	1
-29044	-12664	22176	-11773	-32768	-17491	-28712	-3148	-10656	-3929	-32768	11989	-4308	2968	-7012	16731	-11526	-5251	-9340	3632	13680	-718	1054	-1721	-15624	2276	-2812	6087	4629	2937	-15644	-1388	2228	10322	16024	3958	127	128	1
-32768	-23724	20164	-4653	-32768	-23891	-32768	-6500	-11640	20	-32768	9485	-9456	1952	3940	11929	-15963	-2275	-9232	3484	13504	-729	1152	-1746	-14572	3592	-1196	6686	6225	3241	-18852	3740	-428	9123	11624	2344	125	135	1
-32768	-24804	7972	10732	-31477	-32768	-29504	-9476	-22632	12032	-32768	6869	-16776	-1352	7892	17011	-14290	-962	-8896	3984	14068	-277	2807	-2372	-15348	5132	-984	4588	8285	3319	-19820	8848	1228	5398	6407	2833	126	139	1
-32768	-6652	544	11500	-27523	-32768	-20240	-5192	-25520	16392	-32768	6284	-16540	3864	7952	22280	-6224	-1767	-9696	3248	14364	-251	4684	-2551	-16292	3412	-1892	3479	10373	2810	-17652	7564	5616	4341	7930	3546	120	140	1
-32768	2344	-12436	12463	-22601	-29939	-21032	-8392	-25940	12328	-26124	1867	-14776	15776	28052	22157	-6939	-1212	-9224	3624	14672	85	7333	-2637	-16616	3880	-1664	2194	12731	2428	-16176	5156	5740	3450	9804	2779	124	147	1
-32768	17836	-32768	5682	-13851	-11665	-4796	-4692	-31564	4669	-8819	-4793	-13648	14456	32767	20224	1030	-4133	-9344	3292	15308	323	10812	-2867	-17036	3788	-2048	642	15292	2436	-18216	3676	5588	3025	8446	2229	112	143	1
-32768	15364	-22760	-6703	4408	2185	-6872	-7428	-29052	1670	9857	-5103	-19196	9364	16268	8707	13232	-1831	-9412	3384	15280	399	11518	-2872	-20220	2880	-1880	521	17812	2412	-20840	3008	6476	2445	5882	2314	136	145	1
-32768	-2044	-15732	13842	21461	5524	-18464	376	-21820	7980	19562	-6506	-16024	6060	1852	-13744	14663	-1193	-9352	4492	16912	1100	23312	-4592	-22608	564	-1120	2397	20269	3036	-23116	2384	8816	3478	1166	1825	130	144	1
916	1888	32767	-6369	31819	-15237	-28828	32767	21380	26761	26446	5205	-13764	4444	1216	-15933	13874	-1886	-9128	4860	18412	898	32767	-5871	-26848	304	-904	4364	22885	3521	-25420	2292	13212	3626	-4671	1550	127	143	1
-26216	11704	16076	-4261	32767	6203	-32768	-1224	-13252	16649	10087	-1902	-31864	-5296	8684	18549	3851	-2835	-9528	7444	19236	1620	32767	-8904	-32768	-5024	1640	6670	24415	4567	-28852	-924	18228	2654	-15459	124	119	147	1
-23400	-10472	20628	-2724	22329	10352	-19532	1556	-12520	21027	16168	-5205	-22892	13716	-10328	26586	4966	-5220	-8336	12772	20980	2974	32767	-16177	-32768	-7908	6860	19558	23330	7746	-28760	-13696	27080	-10161	-27478	-8197	127	166	1
-17188	-7440	18532	2504	20752	4325	-19080	4944	-7640	20224	17406	-9112	-12356	7988	-10320	-3917	3358	-3917	-32768	14016	18168	1446	32767	-30368	-26160	11624	-5320	24332	22647	8749	-19804	-15992	2432	11087	-14765	-10447	125	166	1
-12132	-13964	10316	5570	9060	6598	-15684	-6968	-8172	3335	14330	-8659	-14464	-10976	-13252	-5235	8595	-815	-32768	15096	20900	129	32767	-32768	-23148	13436	-14076	14633	23482	11406	-25668	5476	-12260	29254	-12693	-7928	112	170	1
-10560	-672	14908	5373	2098	3836	-17932	3372	-9820	-3	11714	-6651	-20540	-3896	-11028	1631	11198	-5671	-24864	11180	24484	10098	32767	-28447	-23920	3580	-12768	8516	20015	10605	-32768	2580	-13748	24120	-14751	-2806	125	148	1
-9296	-3332	14048	3241	1105	1813	-21068	3312	-5304	-6363	10978	-3330	-20920	-2440	-10848	1593	10916	-6062	-26040	14844	32767	32767	-1412	-30254	-19596	3024	-11000	18332	11490	10141	-31536	-1820	-9444	10160	-22510	2425	128	122	1
-8732	-3196	14016	1868	1052	1197	-17360	1668	-4752	-4117	7409	-3673	-17732	1932	-4756	2855	11314	-2411	-2976	22076	18852	32767	-23983	-28468	-12604	-3988	-5448	22162	-128	11996	-27936	-3980	-7408	10031	-22649	-73	128	130	1
-8912	-2840	13620	726	1652	111	-17772	696	-5088	2949	4526	-3426	-17484	5288	-4552	1512	12063	-1064	8100	23844	8032	29234	-23089	-16740	-7392	-5200	-4052	26447	-8935	13177	-20412	-3228	-8496	12550	-20739	-1773	123	124	1
-9048	-3292	13188	321	2014	-911	-18248	3428	-4796	3807	3606	-3203	-16844	3544	-4564	-1466	13073	-871	10756	17904	6716	18149	-13587	-454	-5656	-2156	-4480	22458	-14345	11226	-17348	1052	-8856	12802	-18392	-746	128	118	1
-9216	-3008	12860	89	2189	-1852	-17024	3888	-4228	-1526	3127	-3626	-16196	636	-4400	-557	13991	-732	3924	12728	11072	15610	-8159	14757	-4972	420	-4332	11284	-18241	9650	-15256	84	-9660	11672	-17071	327	127	110	1
-8900	-3884	12700	163	2158	-2058	-16640	2532	-2904	-7497	2659	-3153	-16068	632	-3400	1021	14029	-1122	-5884	12380	16788	9274	-11973	23269	-4472	3060	-3820	936	-21964	9267	-14160	400	-9092	10034	-16650	1401	130	114	1
-8968	-3552	12664	-70	1948	-2041	-16556	164	-1432	-8948	3104	-3424	-15544	-1116	-452	456	13592	-1773	-6664	5844	19268	1791	-22135	25923	-6688	2388	-5836	-10884	-25609	9866	-12040	2932	-8896	6658	-16366	2010	130	115	1
-8848	-3636	12664	-386	1781	-1577	-15796	-2244	-728	-2010	2859	-2649	-14932	-616	1096	2381	12357	-1890	-3540	-4904	20144	5623	-25900	26602	-12028	-1744	-6108	-15754	-30563	6961	-10968	5512	-7420	2460	-14447	1177	128	116	1
-8876	-3628	12436	-352	1332	-1128	-15532	68	-792	2720	3006	-1891	-15252	936	1080	1916	11699	-2110	-7876	-5760	22324	12675	-28824	24281	-13720	-4752	-7440	-14226	-32768	3331	-9060	5032	-8212	-170	-10632	87	128	119	1
-8860	-4200	12456	-172	1088	-392	-16236	1160	-556	1260	3296	-2048	-16320	5272	552	-6189	10258	-3291	-11464	-5396	24328	13111	-32547	20458	-13512	-4564	-8924	-10020	-32768	546	-7476	4212	-10248	-8669	-10324	-2570	130	126	1
-8940	-3788	12580	-40	956	58	-16508	1636	-1600	-2778	4480	-2484	-12464	540	2388	-6561	10981	-2546	-14228	-5092	24184	14112	-32768	19237	-15484	-5052	-10124	-7063	-32768	-2419	-7260	5208	-10264	-11505	-4274	-1629	129	122	1
-8928	-3404	12756	-60	1006	-8	-16384	172	-2008	-2811	5406	-2093	-13032	1012	3908	-2929	11730	-3611	-18672	-2164	24400	14775	-32185	20009	-17816	-740	-11052	-4780	-32768	-6149	-6672	2924	-9632	-17735	-4018	1720	127	122	1
-8996	-4008	12340	17	902	321	-16448	-64	-1860	-2516	5411	-1986	-16876	1596	1668	-2874	14382	-2837	-24884	2540	25416	12089	-31953	19917	-21772	1852	-8440	-1755	-32768	-7927	-6504	-564	-9168	-15833	-4473	3091	127	118	1
-8732	-4080	12544	427	768	1011	-15924	304	-300	-1977	7061	-1536	-21616	732	380	-4157	12403	-2944	-32768	7836	25860	8961	-32768	20256	-24636	10492	-13932	-7015	-32768	-7581	-10264	944	-2644	-9988	-8028	3472	124	113	1
-8852	-4084	12964	654	947	1542	-15400	872	-1032	-1338	8307	-1842	-17604	-44	1164	-1504	7430	-1983	-32768	17584	20332	3227	-32768	25148	-26064	12292	-16572	-16857	-32768	-8840	-15020	2588	4588	-9742	-14379	1805	124	112	1
-8976	-2860	13332	575	1478	1467	-16364	968	-3076	-309	9130	-1500	-15992	28	2004	-5674	8963	-1486	-32768	12008	8760	-3222	-31613	32767	-20244	3808	-15772	-17660	-32768	-9606	-14436	1708	10176	-10503	-7205	733	125	118	1
-8880	-4000	13540	220	3069	1406	-18460	812	-2856	717	9628	-787	-15888	492	1276	-3293	13616	-1281	-32768	5560	-3232	-5719	-25285	32767	-17844	5560	-16868	-11868	-32302	-7241	-11236	-11324	22652	-12368	-1020	1219	127	114	1
-8708	-2948	14032	-374	4999	1895	-17488	2300	-1148	139	10803	-1047	-18552	-488	1832	-1678	12040	-375	-32768	-27048	-26192	8456	-16790	29420	-7148	336	-15352	-381	-18081	2436	-26008	-25608	32767	-9342	1489	5602	127	107	1
-8692	-2364	14864	-810	7909	1626	-17912	1508	-1924	2735	12086	-296	-18524	-1880	4136	421	9976	-33	-32768	-27236	-22612	23539	-828	10189	-1312	11464	-14740	10003	-587	7393	-19592	-3456	27980	536	-4051	-47	127	115	1
-8912	-3596	15676	-1292	12140	1225	-20692	1196	-2232	5428	13087	875	-20900	-504	3332	960	7804	-751	-32768	-11312	-8440	-1667	7529	-2215	-6216	12048	-17636	3185	13028	4862	-12264	3592	13728	7650	-6556	1883	126	118	1
-10052	-6492	14984	-1566	17015	2194	-21068	1504	-1428	4574	15254	680	-21212	1204	3752	-595	4741	347	-17140	-5152	-11668	-20344	15198	-14131	-11364	7232	-17316	-6698	20702	3121	-14344	10364	-1492	13684	-453	3892	125	132	1
-9072	-4056	15300	-1499	22107	3614	-20268	2760	-1332	2390	17822	-64	-18844	-556	7168	-2721	1789	1242	1620	508	32767	-12986	21606	-2013	-27220	-16140	16120	-25170	20308	761	-10872	13212	-7920	5184	8312	5872	127	109	1
-9124	-4476	16632	-2252	29522	4202	-23812	3392	264	2218	19719	649	-22392	-1136	11208	-3716	-1689	1040	-17240	-8784	11284	-5580	30805	-14880	-32336	-404	-12708	-31332	20350	-367	-20936	10956	19544	-19106	-2123	7062	129	120	1
-8664	-8200	16676	-1263	32767	6511	-27916	5556	3892	2399	21469	238	-25064	3700	17848	-3648	-11489	366	-27264	-1840	27816	261	19106	-13537	-12680	-8372	-5956	-14467	21573	3357	-20424	-18072	-652	-25184	17817	-1695	128	115	1
-8640	-10156	17944	-1724	32767	11149	-30876	9192	8052	-2777	23887	-2348	-21924	11344	29728	12325	-16171	2879	-13368	27640	9888	-6538	17220	-9999	-18548	11940	-10344	-9981	19665	6194	-17716	-13056	-12672	-11377	5403	2948	124	107	1
-22076	-14504	18972	-757	32767	20213	-31940	-1516	1720	-9883	26138	-3953	-18064	15792	-3424	-15616	-4323	9750	-15544	-9340	18776	-9976	7665	-14059	-11824	8472	-14464	-13832	15264	8211	-4840	4976	-10292	9699	7176	606	130	109	1
-32768	-14944	20468	1905	32767	27662	-30196	-8764	-3864	-5083	25915	-4791	-24136	-1184	-1704	-20623	-6204	3148	-16972	952	19560	-9053	1520	-9233	-18388	-3668	-15676	-3860	12455	6683	-25704	6392	-8680	7030	13318	6144	127	103	1
-29160	-13468	23516	-2660	32767	28133	-29868	1160	-3156	974	26265	-5356	-30752	-2176	-12060	-16084	-5084	2108	-12180	6208	13380	-2945	-52	-2489	-18216	1260	-8304	15349	10100	4041	-19188	8280	-6904	5211	7761	6484	129	96	1
-17692	-14992	27652	-12889	30630	22885	-24800	1236	-5132	-3615	20338	-6029	-30892	1196	-8848	-10253	-11489	-713	-10924	3364	14360	-1823	-414	-2112	-14708	8384	-8284	9206	8554	3779	-17916	4212	-4708	1593	9004	4799	127	109	1
-31348	-18784	32767	-13787	879	8330	-19284	-1336	-7828	-9282	12815	-2205	-30668	1580	-8916	-3088	-14290	-1748	-9224	3408	13612	-802	-118	-1663	-16632	3928	-7384	1825	7398	2476	-16028	2744	-3100	1382	9001	2635	126	123	1
972	-21740	20504	-6875	-15115	567	-19424	-1376	1056	-6651	5979	-4578	-31424	2968	-11416	-804	-18491	-1906	-9376	2864	13980	276	305	-1033	-17348	4228	-7140	-3398	6343	1716	-18456	2936	-3048	-205	10611	2874	124	122	1
5788	-10892	11412	2606	-15585	-4290	-10160	-1964	584	-2116	-3073	-3629	-24228	2312	-11140	-2555	-19746	-2715	-9400	3064	13764	702	798	-661	-16868	1828	-7592	-4569	4795	1934	-17280	1152	-3492	-1614	12190	2538	132	130	1
4400	-6292	9408	1856	-14673	-9293	-5308	-1032	-988	2569	-11041	-2419	-19680	2944	-11048	-4370	-18894	-3764	-9512	3144	13632	1170	1266	-24	-16808	604	-7476	1220	2884	2064	-17960	132	-3852	-761	13353	1855	127	123	1
660	-6188	10164	404	-16752	-12159	-6540	-768	-2060	4798	-17328	-1669	-16096	2188	-11592	-3015	-18820	-4865	-9728	3208	13520	1515	1629	684	-16372	1644	-6708	4606	1404	2238	-16628	-684	-2208	-1193	13791	1443	130	119	1
-2500	-5128	11780	1359	-21549	-13847	-6280	124	-3508	6030	-22699	-1084	-14396	3940	-11728	-3547	-19132	-4736	-9644	3500	13524	1596	1880	996	-16204	1592	-5172	5335	546	2517	-16080	-508	-1304	-662	12793	903	118	127	1
-5816	-3476	12996	2903	-28135	-15202	-6372	1620	-3824	4997	-27021	-319	-12308	588	-12324	-2136	-18498	-4771	-9520	3512	13260	1671	2017	1154	-15484	2432	-4044	4557	337	2986	-15856	-1292	-684	937	13325	71	126	126	1
-6552	-868	13092	3487	-32768	-15875	-7328	1700	-3784	3330	-30927	1440	-9388	-72	-11896	-337	-19990	-4615	-9400	3600	13188	1534	2101	1117	-15012	2480	-3104	3829	468	3177	-15056	140	620	4229	12054	-47	129	133	1
-8568	1816	14596	417	-32768	-15134	-8936	1620	-4268	3126	-32768	3763	-7536	-872	-11912	1749	-17861	-4243	-9832	4068	12884	1461	1871	1035	-14584	4224	-2800	4497	814	2929	-14320	3420	156	5739	11625	-179	131	125	1
-12268	628	16340	-3381	-32768	-12907	-11460	2024	-4552	781	-32768	5631	-5560	148	-12096	5269	-15969	-3238	-9684	4384	12704	1094	1446	615	-14880	4504	-2804	4452	1286	2928	-14592	4308	-900	5966	12440	797	130	128	1
-13432	316	16168	-7899	-32768	-9857	-16520	3704	-4384	-2309	-32768	6054	-3856	-84	-12600	9380	-13521	-3401	-9928	3884	12836	709	1149	347	-14996	3376	-3828	4472	1680	2499	-14800	2916	-1380	5595	12364	931	129	128	1
-16560	-188	15816	-15065	-32768	-7619	-20136	3716	-6336	-6917	-32768	5806	-4024	2396	-12624	13138	-11200	-4013	-9828	4052	12744	554	809	331	-15460	3572	-4208	5548	1702	2426	-14560	784	552	5928	13467	2108	126	131	1
-22108	-2584	18700	-18595	-32768	-7747	-23780	3192	-9156	-9832	-32768	6423	-4324	4680	-9432	10585	-8901	-4125	-9792	3900	12724	354	714	202	-15564	2972	-4048	6815	1699	2416	-12384	-252	1092	6609	15707	3636	125	133	1
-32364	-7140	27268	-18353	-32768	-11029	-32216	1908	-11052	-11610	-32768	5316	-8564	4428	3416	6291	-14170	-3339	-9884	3788	12944	257	724	-4	-15256	2700	-2748	7975	2161	2578	-14452	712	-680	8081	15546	2683	125	129	1
-32768	-9328	24252	-13554	-32768	-13363	-32768	-340	-11804	-15025	-32768	3790	-14668	-1060	8760	-124	-12742	-1440	-9684	3980	12892	293	737	-36	-14420	4252	-1340	8900	3447	2394	-20124	5776	-1064	6177	10996	395	120	131	1
-32768	-7024	17388	-11042	-32768	-16197	-28656	-2728	-15996	-13849	-32768	1662	-20632	928	8668	-1420	-7975	-3185	-9600	4148	13020	189	1002	-264	-14680	5472	44	5409	5627	1976	-19664	9188	2296	3310	6516	1812	120	127	1
-32768	3308	10672	-12762	-32768	-15219	-24448	-488	-16404	-14911	-32768	182	-13892	1180	13108	-3192	-8658	-1540	-9380	4416	13012	-24	1347	-566	-14940	4784	528	3607	7860	1472	-17776	7412	5796	2139	8256	2771	130	127	1
-32768	7676	1484	-12001	-31875	-7917	-22104	-660	-19756	-20376	-26385	-2848	-10884	4224	23284	-1591	-4736	-3268	-9368	4692	13100	-136	1939	-1144	-14568	5900	144	2326	10039	872	-15312	6084	5160	2738	10720	1583	130	133	1
-32768	20688	-22108	-11753	-21750	2546	-8320	476	-25824	-20950	-11644	-6051	-12128	4572	24956	-1033	-3155	-3512	-9356	3848	13944	4	3952	-1855	-16092	4300	-1524	-255	12274	300	-17180	4976	2764	1808	10355	1380	127	134	1
-32768	19868	-23660	-14204	-2639	12923	-5940	-5584	-25096	-17494	7681	-5279	-16412	5628	23988	-11405	471	-2209	-9320	3412	14796	771	7801	-1922	-17900	1844	-2720	-1296	14549	-397	-19980	2184	1740	597	8207	1622	120	136	1
-32768	5116	-8108	-518	7650	17541	-12868	-5320	-22888	-5934	18121	-4021	-13708	288	9992	-12445	3925	-3878	-9672	2820	15276	2412	11931	-1686	-18664	-592	-3480	1139	16524	-288	-20452	196	2752	2153	5639	1222	123	133	1
-21036	-23344	4552	32767	15140	12211	-16652	-3264	-9412	7025	27622	-7257	-10840	-1028	520	-2111	4477	-4967	-9748	3996	15128	2981	16882	-1392	-19128	-192	-3184	4268	18294	-17	-19196	-412	3572	5178	2975	257	125	139	1
26256	-3808	32767	27677	18785	-18750	-32768	32767	32767	23014	25235	1912	-15444	-7612	-3936	1431	10809	-1949	-9168	4332	16464	3744	24127	-1730	-21364	1312	-1892	5044	20568	94	-22344	1888	6644	3870	-3116	37	136	141	1
-8904	32767	9732	16880	32767	-5079	-23700	892	-9900	32767	7805	7467	-17484	-8096	-3460	4262	9302	-2551	-8292	5952	16716	4692	32767	-2804	-27552	-2464	1300	5547	22980	-110	-24992	3460	13692	-259	-9753	-922	125	139	1
-32768	32484	32767	395	17798	13662	-16872	18040	-12888	32767	6160	5323	-3900	8716	4288	32767	11307	6597	-6684	6812	19012	7280	32767	-4482	-32768	-8460	4576	12095	25025	435	-26272	-580	21900	-5047	-24522	-4431	99	158	1
-8572	-32372	7828	-4374	16309	8456	-24284	4280	1320	5689	22882	-3078	-14384	32468	-8896	19362	6894	-265	-11044	13364	19032	7046	32767	-9467	-32768	-1892	4416	19356	24630	-1133	-21172	-6588	13352	-6922	-17241	-11853	124	163	1
-13880	-2356	13756	7552	14411	5569	-11796	-16020	-6612	1874	15090	-8657	-16196	-4028	-8464	-21852	4826	3438	-32640	14536	16576	2778	32767	-21520	-24628	16500	-10400	8077	25128	-2345	-18920	-1536	-960	6910	-7015	-7245	135	164	1
-15912	-11648	13608	7538	7456	7011	-18092	2160	-8880	-1065	15014	-2614	-12476	-3876	-6372	-17944	6491	-3741	-32768	17800	19824	-3139	32767	-27378	-25200	9640	-13728	-5621	25088	-963	-30500	13712	-6580	10081	-10257	-5307	124	168	1
-13340	2912	17944	5691	2009	4933	-21704	5204	-7992	-3947	13754	-2288	-23252	-1284	-5052	-13136	9629	-5077	-32224	18568	31104	-4908	32767	-28118	-23676	5360	-11608	-7721	22295	-915	-31164	6712	-11696	426	-9669	-2812	112	167	1
-10032	-3092	13660	2929	1366	1941	-19128	-532	-5320	-8154	11691	-2036	-16044	-3480	-3312	-7196	7488	-1664	-4236	5864	30948	2060	20576	-16812	-19520	4348	-10600	-7179	17617	-1928	-27228	2956	-4704	-7065	-20226	681	116	149	1
-9084	-1900	13752	1847	1003	1035	-16260	-1732	-5876	-353	8982	-2866	-18100	92	-5944	-531	10461	-489	-16204	17800	32767	7811	-14162	-8428	-14280	424	-6608	5440	10091	-3346	-24108	2512	-7896	-4133	-17473	-1008	120	147	1
-8616	-2052	13468	621	1215	50	-18316	-16	-5368	5001	6441	-2676	-16880	2208	-3808	-534	11093	-58	3272	10912	18324	8078	-25247	-10262	-13984	1516	-2836	13747	741	-2933	-22856	3484	-7280	-3822	-17669	-4341	112	140	1
-8712	-2816	13332	-481	1366	-199	-18316	448	-4504	4338	4738	-2836	-18028	-1552	-3584	-1233	12349	1464	4928	8880	10780	5756	-26155	-12210	-7944	4856	-3140	10289	-6839	-3007	-21320	6024	-6844	-1648	-16498	-4761	123	119	1
-9096	-3984	12532	417	1163	-502	-17100	-1344	-3564	-2595	4371	-2568	-18068	-2424	-3248	-3677	13083	948	2284	10268	8760	4698	-25802	-10574	-5632	5516	-4084	2757	-13028	-4004	-17384	4696	-7544	-4112	-15137	-3325	127	112	1
-9068	-4636	12448	1575	564	-812	-16860	-2824	-2700	-7433	4300	-1580	-17548	-6064	-2324	-4712	13381	260	-1504	13764	8948	2588	-25688	-5878	-6072	4680	-5356	-1692	-18152	-5566	-15132	5980	-8936	-4791	-13947	-1421	131	111	1
-9108	-4036	12708	1608	165	-912	-17224	-4092	-2712	-6689	3777	-252	-17008	-8272	-1064	-633	13440	-969	-7244	15860	10708	-229	-28503	1648	-6976	5400	-6952	-3236	-22361	-6555	-13564	4296	-8348	-3690	-13432	-518	151	112	1
-8940	-3372	12744	1153	158	-978	-16692	-2720	-2992	-1404	2972	485	-15964	-2264	-824	2865	13314	-1347	-10028	16140	10608	-2917	-32717	11576	-8852	5836	-7164	-5792	-26159	-7362	-12896	5196	-8204	-3531	-12702	180	123	114	1
-8628	-2836	13060	423	428	-914	-16680	-2364	-3116	-472	2777	547	-15164	3160	-80	2287	13700	-303	-10408	15632	9532	-5612	-32768	19091	-10692	5400	-7400	-8391	-29814	-8425	-11440	4484	-8008	-6037	-12008	239	120	115	1
-8464	-2464	13152	-223	900	-839	-16640	2040	-2348	517	1978	-179	-16156	3744	1100	1293	13096	519	-14500	14064	10968	-6650	-32768	23922	-11068	5384	-8004	-10451	-32768	-9023	-10376	1952	-8636	-7492	-10352	-337	123	115	1
-8780	-2784	13028	-627	1135	-711	-16616	1260	-1668	-3053	2791	-1235	-15992	4084	1288	763	13128	515	-16756	12104	11584	-4525	-32768	26847	-13772	5072	-7660	-11118	-32768	-9032	-10080	1664	-8824	-8137	-10131	-495	134	119	1
-8780	-3428	12864	-750	1179	-568	-16236	-1296	-1268	-4902	3824	-1440	-15396	-928	1908	-5008	13372	-366	-16896	11724	11396	-3764	-32768	27051	-15724	4996	-9420	-11850	-32768	-8463	-7232	980	-10296	-13734	-6200	690	133	117	1
-8848	-3712	12516	-543	1102	-205	-16280	-2284	-1560	-2763	4191	-945	-14836	-1608	1300	-4811	12593	-1287	-23788	12180	13888	3100	-28693	25207	-17012	7112	-12464	-12196	-32768	-8375	-7084	-788	-5732	-16620	-6063	1272	127	118	1
-8832	-3600	12636	-284	1030	124	-16328	-600	-1744	-2626	5038	-885	-15848	-2804	532	-3307	12543	-556	-26972	13932	18244	3139	-27478	24336	-21500	8216	-11020	-15398	-32768	-8476	-7488	-812	-1884	-13571	-8548	742	127	118	1
-8616	-3600	12932	-218	1090	330	-16136	-1280	-1416	-3429	6116	-967	-14328	-1064	1500	-7119	11998	-1390	-32768	17696	20424	227	-30433	26505	-22812	7816	-12484	-11472	-32768	-8903	-12728	940	2812	-9721	-10910	576	130	120	1
-9004	-3688	12852	-117	1495	670	-16540	-1672	-2132	-2712	6596	-774	-13028	-660	3600	-5121	12789	-1925	-32280	11540	16440	-1708	-32438	27906	-21856	5552	-13156	-5264	-32768	-7857	-12360	2064	1444	-9393	-8365	575	131	111	1
-9036	-3636	12760	27	1833	1036	-16344	-1772	-2696	-2348	7277	-588	-15444	-2076	-1496	-4829	11101	-1529	-32768	8484	11712	1555	-32116	24986	-21196	4612	-12012	1082	-32768	-4681	-15004	-2596	5052	-8893	-7167	1364	128	119	1
-9152	-3232	12936	-6	2164	1404	-16084	-316	-2256	-2447	8018	-520	-19084	-1036	-1416	-5557	12931	-1642	-32768	1292	1384	8424	-30630	17713	-19784	2864	-12760	8030	-32768	1713	-14780	-10744	13816	-8095	-9263	2967	124	121	1
-8844	-3268	13328	44	3043	1640	-16104	-1200	-2000	-1395	9169	-266	-19676	-1504	-60	-4290	8277	-65	-32768	-13276	-12804	22460	-23561	11299	-9912	1732	-14628	15074	-24369	7419	-17512	-12680	31808	-6105	-6149	3082	124	114	1
-9000	-2428	14132	-122	5093	1618	-17844	-216	-2324	-151	10778	190	-17252	-3552	3172	-1563	10465	-162	-32768	-17932	-18012	26134	-10550	9964	-1272	8252	-13584	16298	-6909	7711	-17952	-3960	28980	10798	-4535	295	123	123	1
-8964	-3256	14596	-908	7979	1673	-18480	-348	-2320	341	11852	417	-18448	-1792	3128	-2720	10685	425	-32768	-7372	-14364	1239	1592	2092	-6992	13432	-14988	7672	7330	5403	-17432	5924	13884	14095	-9366	2957	123	111	1
-9284	-3644	14988	-1200	11429	1870	-19404	344	-1904	652	13750	597	-19460	-608	4200	-3584	9266	698	-32768	-5756	-5692	-11428	8720	-4292	-9536	12312	-17788	-14481	17313	3137	-15960	11456	1628	9788	-6274	6296	123	115	1
-9312	-3640	15140	-1505	15587	2548	-19904	668	-1840	1274	15726	202	-21080	-60	5756	-4881	6885	625	-20340	-436	-7348	-27765	23587	-3755	-12340	5304	-16932	-32768	24336	3217	-11936	11228	-464	1247	-161	8978	123	121	1
-9128	-3692	15956	-2123	21257	3251	-22008	2144	-1452	1203	17963	25	-20968	340	8088	-6013	2990	-54	-7728	-19216	32767	-4444	32767	8310	-32768	-27256	7072	-32768	22874	-8362	-14584	10760	760	-24858	586	9327	126	131	1
-9004	-4004	16140	-2187	22413	3297	-25840	2160	48	728	20598	271	-23584	-736	12116	-5984	-930	117	-32768	-26544	32767	-5505	22869	-22691	-24052	12	-23400	-32768	25474	1634	-20740	1072	30720	-22502	14256	10093	127	115	1
-7420	-4860	19564	-4592	32767	5467	-29528	5580	2760	1226	22788	69	-26920	52	21048	-5398	-10788	1995	-7968	27824	8156	-1506	13816	-12085	-11028	-7652	-5640	-6605	24092	5887	-22156	-23284	-31488	-28718	13243	-481	127	98	1
-6000	-9756	20224	-4942	32767	10021	-32768	11948	9164	-3495	24359	-2834	-26952	10216	32767	10587	-21422	4791	-19328	-3716	17404	-11232	9207	-16003	-13332	20144	-15768	-7450	18107	9174	-6780	-3652	-9500	3960	1210	3951	125	115	1
-30896	-15728	21888	-4905	32767	18906	-32768	3472	112	-13905	26388	-5343	-20260	18952	-3496	-15199	-9656	12041	-19188	10044	14628	-8087	-263	-9202	-15472	860	-18224	-14256	15748	6925	-10300	-5968	-12192	4439	13344	3849	130	121	1
-32768	-19456	22432	-3600	32767	25895	-31320	-12044	-5356	-11641	28104	-3826	-24960	-372	-2944	-20255	-7425	2301	-11780	-2528	17048	-2194	-577	-2803	-20940	-13764	-16364	8962	11403	6444	-14392	-6328	-13460	3489	14122	4681	128	105	1
-24600	-13924	26984	-2915	32767	28884	-31600	-788	652	-789	26269	-5815	-30536	-640	-13212	-17470	-7280	2314	-9716	5568	13808	-194	-118	-745	-14436	5696	-9508	26016	8182	5541	-19880	5720	-7140	6204	7315	5823	129	122	1
-11436	-14184	25928	-13452	32767	23128	-23404	2684	-5656	-2350	15732	-6474	-31328	4848	-7988	-12001	-15284	-99	-7780	3648	14364	288	241	-1100	-17172	8880	-8152	7831	7440	5096	-16992	6808	-4752	6003	8466	2706	129	96	1
-32536	-24000	32767	-14456	3817	2396	-15896	-616	-9344	-10715	9894	-2979	-29584	5008	-9404	-6809	-17564	-234	-9460	2812	13800	967	889	-750	-16008	6252	-8964	-7513	6770	2460	-16200	3712	-2584	357	11226	3168	124	106	1
-26160	-25576	32767	-14394	-2169	-144	-17888	1012	1784	-8469	3721	-6912	-29644	4112	-10808	-4806	-19433	-1235	-9304	3836	13892	1182	1606	113	-17732	-16	-8036	-8530	5159	2640	-18308	784	-3184	-3180	12516	2854	126	123	1
7080	-7716	13564	-1795	-20601	-10687	-16516	1052	2236	-7570	2591	-6970	-23592	3008	-11412	-6001	-18622	-517	-9696	4024	13628	1387	2028	806	-16256	-208	-8000	338	2982	3110	-16952	1420	-3892	-1438	13909	1986	131	131	1
4340	-2320	11408	-3285	-20128	-13069	-4760	56	-160	-2275	-14701	-4961	-17596	2872	-11160	-7387	-18712	-1589	-9252	4292	13416	1465	2183	1164	-15664	2740	-6516	5906	1534	3385	-17068	1912	-3200	-105	15535	2583	128	120	1
-560	-1856	12316	-4023	-22074	-13691	-7016	268	-1472	2339	-20403	-3450	-15512	960	-11244	-6309	-18837	-2599	-9364	4424	13276	1435	2180	1118	-16032	3184	-5104	5837	1021	2925	-15924	1668	-704	-226	15024	2497	136	117	1
-4184	-2024	14280	-981	-27052	-12890	-8164	1712	-2960	4174	-25291	-2499	-14464	480	-10520	-5619	-19771	-3398	-9156	4248	13380	1293	2417	596	-15840	3660	-4184	3028	1158	2682	-16388	524	-96	-1049	14812	2141	127	129	1
-7388	-412	15252	1184	-32768	-12857	-8360	3424	-4244	3797	-29322	-606	-12228	-1636	-12648	417	-19093	-3555	-9216	4376	13360	1317	2449	604	-15764	3688	-4096	2502	1231	2649	-15896	-140	-464	228	15201	1507	129	130	1
-9416	1712	16688	-226	-32768	-13767	-10408	3328	-4580	1938	-32768	2502	-11096	-2296	-11456	308	-21028	-4138	-9508	4240	12900	968	2414	147	-14744	1460	-3444	1963	1894	2645	-14528	-1160	1000	4014	13151	1313	128	130	1
-11420	324	17296	-2052	-32768	-13674	-13156	3012	-4296	209	-32768	5245	-8448	-2516	-10760	4090	-19257	-3035	-9368	4828	12864	623	2144	-180	-14744	3300	-2916	5696	2207	2957	-13648	760	108	9594	13228	-288	126	138	1
-13716	-1588	18136	-1863	-32768	-11863	-15784	2596	-4724	-1146	-32768	6904	-7160	-608	-11140	7135	-19282	-2465	-9764	4584	12736	201	1821	-646	-14560	4972	-3872	4876	2771	2748	-14640	4116	-860	9791	12488	1097	126	138	1
-16556	-2508	18708	-3869	-32768	-10141	-19032	3764	-5088	-3274	-32768	7320	-6804	-328	-10904	7783	-19216	-2503	-9632	4268	12876	70	1500	-649	-14748	3824	-4432	2705	3353	2094	-13296	3308	2524	5672	13169	3447	124	135	1
-18572	-836	17904	-12179	-32768	-9631	-21888	3684	-6368	-5822	-32768	8105	-3820	2540	-10488	12006	-16390	-3718	-9696	4380	12636	-110	1356	-783	-15080	3152	-4072	3014	3729	2026	-14584	2380	-548	4110	16119	4203	125	132	1
-26108	-5912	20692	-20208	-32768	-11556	-25556	2576	-9396	-8105	-32768	8689	-4160	2996	-8252	9933	-15203	-3896	-9656	4540	12764	-239	1235	-1291	-15176	2480	-3492	4194	4233	2081	-18440	3464	-3248	6051	15935	2579	125	128	1
-31972	-12432	24944	-15356	-32768	-14056	-32768	128	-10256	-10363	-32768	5985	-7860	3604	408	6586	-14605	-3022	-9468	4468	13116	-293	1708	-1932	-15576	2864	-3624	4736	5078	2286	-19616	3592	-3684	3230	10311	1048	127	129	1
-32768	-13164	16776	-8424	-32768	-16636	-32768	-2860	-15540	-11527	-32768	4084	-12036	-664	7852	3539	-14148	-3070	-9684	4068	13372	-247	2754	-2101	-15912	3260	-3516	3938	6311	2000	-17068	5056	116	1244	7714	1211	126	130	1
-32768	-3536	6788	-6499	-29329	-20248	-24128	-3944	-24320	-5713	-32768	3485	-13956	-1880	19048	8581	-9302	-2892	-9660	3764	13344	-103	4215	-2138	-15796	3080	-2304	3006	7812	1460	-16548	4724	4120	3893	9981	1712	126	131	1
-32768	6020	-3540	-5021	-26214	-15663	-20756	-4932	-27228	-8065	-27195	952	-9988	4960	24624	2406	-6393	-723	-9608	4172	13780	-74	6138	-2268	-15480	4796	-556	1977	10207	864	-17508	4840	6828	3668	10273	1650	123	134	1
-32768	10248	-18596	2419	-21809	-6477	-11728	-7320	-27932	-5127	-13026	-2616	-16808	5716	22640	5328	757	-2806	-9176	4772	14516	-21	9443	-2861	-15728	4976	-308	1634	10612	742	-20616	3868	8276	1698	9113	2148	134	138	1
-32768	12856	-24620	7443	-10363	901	-6344	-5452	-29972	3583	1131	-4350	-14484	2212	20436	5290	-2120	-4258	-9492	4720	15292	-47	14064	-3712	-19108	1608	-360	-937	16540	127	-20964	1772	7808	2645	7247	1377	117	140	1
-32768	9648	-17536	7707	195	3644	-9224	-4516	-26640	9461	13775	-4868	-11784	1556	10204	8254	523	-3246	-9840	4088	15648	24	20303	-4271	-20404	184	-1824	-232	19353	187	-21352	2408	7132	3225	5675	417	115	146	1
-4496	25596	-4252	30645	19667	4696	-11844	3804	-16400	17531	23071	-11544	-13088	4684	10284	4662	7006	-2687	-9472	4520	16344	175	28559	-4718	-22668	-924	-2180	551	21977	213	-21684	1808	7676	3722	2375	27	132	156	1
14408	7060	32767	17213	32700	-1667	-11160	10432	24	19301	27770	-8186	-27240	1492	25584	15645	16609	-3264	-8908	5684	17872	1132	32767	-5691	-29616	-2024	344	3344	24159	25	-27956	1752	10800	844	-5631	-412	134	168	1
-32768	21036	22948	2846	23079	11246	-23444	12596	-17180	14403	13870	3388	-14884	1736	14728	15271	11370	243	-8928	11280	17308	-21	32767	-9660	-32768	-7380	5572	8131	24911	929	-28884	-76	17940	-2625	-17187	-2268	136	166	1
-4808	-15016	12576	801	16999	6685	-16792	8500	-2296	12318	24682	-5760	-17512	15408	-22472	10454	6514	-4594	-15280	17892	18744	1487	32767	-19890	-32768	-956	8252	19347	23952	2947	-25676	-10788	25376	-17907	-27906	-9978	133	172	1
-7284	2744	12096	2988	21945	6889	-8532	-5124	-7868	11112	17290	-6694	-7388	11040	-9436	-19029	4001	-1434	-32768	9260	16012	-2795	32767	-32768	-24896	16408	-9192	11850	25187	3786	-16324	-9804	2716	8051	-10264	-7802	134	169	1
-25828	-12596	15816	8079	13061	10275	-16624	-5032	-13412	-3864	13938	-6903	-8448	-5468	-4828	-13607	8550	-129	-32768	16532	20488	-1541	32767	-32252	-26860	4388	-11060	6355	24317	4009	-28820	10016	-9152	19307	-13650	-3802	127	175	1
-15160	7068	19408	5172	2142	5385	-27752	9632	-11108	-6261	17027	-5038	-32768	-8092	-9188	-8020	13591	-3412	-30376	16276	29524	8552	32767	-24481	-22776	4852	-12364	5762	19961	1449	-30184	5264	-13700	12816	-13966	-2690	100	155	1
-9892	-2124	13704	3232	1340	2244	-19848	-5060	-5680	-9220	14009	-3501	-17212	-6224	-5520	-2419	7951	-2385	-25620	24580	29900	6418	12014	-8074	-16620	6240	-12788	2831	14766	1375	-28524	752	-5888	3719	-22402	2140	117	123	1
-9916	-1768	13704	2321	469	1456	-13688	-3192	-6992	1798	9775	-2063	-16676	-2660	-5340	776	12316	-1993	-5364	25840	26388	-1894	-15258	8781	-15732	1260	-4628	6836	6530	284	-26152	2072	-7140	1770	-20623	1925	123	112	1
-9512	-1256	13864	939	556	550	-18368	656	-6500	5503	7220	-1646	-18400	-1592	-3900	3764	13407	-1181	6452	11664	15844	-4457	-17157	13305	-12604	1600	-2480	8115	-2089	631	-26304	2168	-7588	1589	-19764	180	123	105	1
-9156	-1816	13556	-81	1029	-340	-19916	1032	-5296	5064	5782	-1512	-18916	352	-3988	5670	14381	-9	5576	6068	12360	-2132	-15349	13297	-7804	4940	-3400	1960	-9255	678	-21368	4104	-7304	2350	-17379	304	121	131	1
-9300	-2168	13228	-20	1130	-905	-16956	760	-5360	1516	4959	-1568	-18136	1752	-3796	2785	15464	-191	-1048	6768	14236	-1529	-17478	10309	-6832	6036	-5308	-6445	-15220	524	-18584	3220	-8108	263	-15498	1247	119	109	1
-9068	-2556	12992	124	1059	-1418	-16608	432	-4724	-2788	4361	-1615	-17644	104	-3240	-233	15804	-243	-7036	6112	17244	-2082	-26345	6124	-7744	4616	-6840	-9686	-20681	629	-16416	2620	-8540	-2676	-15779	1930	122	109	1
-8824	-2488	13220	-16	1120	-1374	-17288	-1604	-4344	-3017	3426	-894	-17200	-1276	-2460	-46	15616	-251	-9252	2788	17332	2938	-32768	4986	-8928	836	-6872	-8028	-25877	-357	-13820	2616	-8604	-3124	-15636	2246	127	113	1
-8880	-2632	13032	-134	1205	-738	-17180	-1644	-3916	220	2194	-338	-16148	-176	-1608	632	15477	-973	-10080	3308	15068	9461	-32768	6528	-10488	-960	-6528	-3653	-30229	-2104	-12652	3492	-9076	-3728	-15350	2222	128	112	1
-8808	-2376	12848	-144	1155	-228	-16116	332	-3396	976	2002	-548	-15828	500	-360	1340	14731	-1037	-10968	5808	13960	11127	-32768	8391	-11188	-1136	-6872	-314	-32768	-3540	-11048	1768	-9408	-4877	-14258	1897	131	117	1
-8840	-2716	12760	-131	1077	153	-15980	108	-2636	-128	2255	-927	-15052	1300	620	746	13903	-1249	-13708	8572	14928	8744	-32768	10794	-12224	-532	-8096	578	-32768	-4262	-9224	1372	-9620	-5321	-12233	1049	133	119	1
-9096	-2536	12464	-4	740	554	-15612	-236	-2324	-1251	2964	-1219	-14956	1136	1176	-1163	13286	-1309	-16704	9592	16212	5318	-32768	14443	-13428	320	-9308	-104	-32768	-4193	-6632	144	-10208	-6654	-10098	236	130	123	1
-8968	-2432	12656	-36	606	961	-15612	-404	-2188	-1682	3621	-1287	-14060	408	1316	-3375	13625	-1150	-18088	8520	15760	5796	-32768	18176	-16452	1976	-9236	-3263	-32768	-4296	-6308	136	-10484	-9816	-7937	513	126	121	1
-8868	-2364	12888	-14	285	1153	-15792	-812	-2360	-1375	4454	-997	-15576	-1448	100	-3168	14240	-679	-21740	10024	16692	8026	-32768	20663	-19080	2716	-10372	-9047	-32768	-4776	-3408	-472	-9192	-15791	-5823	1861	127	117	1
-8820	-2316	13028	259	269	1451	-16692	40	-2844	-929	4992	-999	-14588	996	688	-7485	12257	-1637	-31488	13284	21340	6520	-31257	22896	-22372	5672	-12656	-15062	-32768	-4957	-4924	-2488	-4944	-18412	-6385	2159	129	116	1
-8788	-2120	13496	431	623	1442	-17020	1308	-3220	-2485	6022	-1246	-13156	2908	5648	-7382	14727	-3252	-32768	12948	18568	1621	-30115	28442	-25404	6692	-13516	-21547	-32768	-7528	-10820	-768	4752	-15701	-13422	488	127	115	1
-8800	-1940	13344	302	1414	1589	-17172	1340	-2616	-5065	7252	-1755	-14352	3532	2908	-7383	19374	-4249	-32768	10064	12804	-9235	-26332	32767	-19628	3432	-18540	-18735	-32768	-11589	-16084	2524	10876	-15811	-15471	529	125	114	1
-8640	-1764	13772	544	2491	1605	-15112	776	-1676	-5128	8796	-1898	-23032	2036	-416	-12249	13630	-2307	-32768	-1044	3904	-12417	-29016	32767	-15668	5748	-20860	-10480	-32371	-10083	-10520	236	7348	-15395	-4579	-408	125	123	1
-8756	-1512	13960	955	3818	1205	-15800	-364	-1840	-2879	10477	-1651	-24360	-2476	-1148	-9146	10846	-54	-32768	-13868	-14276	-5216	-28392	22930	-12716	1244	-19992	-1763	-23909	-2949	-14304	-12952	19700	-15014	-5119	-1454	125	120	1
-8716	-2216	14692	837	6065	939	-18452	-984	-1756	195	11844	-286	-16688	-3408	7244	-3069	13857	-349	-32768	-24692	-27116	15055	-17989	8316	-3268	6984	-19700	7957	-8936	3076	-22484	-15832	28620	-6770	-5640	-983	126	123	1
-8664	-2624	15680	423	9581	1648	-19828	560	-1876	-415	14106	-305	-21296	-1852	4824	-3470	12151	218	-32768	-15944	-22244	9342	-1918	-4305	-5312	9008	-21412	10532	6006	5390	-18128	-4908	15544	12733	-1022	-2080	127	123	1
-8972	-2552	17108	-105	15122	2154	-22112	1816	-1788	70	16603	-189	-22508	-2652	7012	-4287	7145	969	-32768	-14264	-19944	6742	120	-6288	-5192	10456	-23432	10820	15718	6007	-14096	-1760	1768	23404	575	-87	131	124	1
-9060	-3012	17844	-382	22249	3062	-24108	2636	-1240	1811	19127	-330	-23944	-648	10912	-2397	3498	877	4640	3100	592	-8739	18744	-8883	-12444	4776	-2328	-7068	23825	6704	-13552	-452	18048	10624	3029	2933	124	140	1
-8980	-3332	19800	-1512	31037	4483	-26836	4568	384	2070	21856	-628	-23844	460	17044	-3035	-1770	1758	2188	11456	32767	9078	32767	3349	-32768	-5624	10696	-20777	19321	-12531	-14424	30028	-14744	4945	6433	11149	124	110	1
-8240	-4960	20496	-2854	32767	6766	-32692	4256	5264	654	25181	-605	-27940	1044	26124	-3124	-13275	2895	-32768	-1836	26544	-3183	26844	-14259	-11020	800	-21332	-32768	24344	1467	-30820	-20048	4352	-29542	13673	4335	127	111	1
-6056	-12440	24032	-1906	32767	13419	-32768	11036	11572	-3279	27572	-3741	-25868	5432	28104	7490	-4348	6214	-17720	14184	18240	-6829	16837	-12381	-18612	-7312	-15984	-16570	20595	11710	-16916	-12088	-17100	-13522	7172	3803	124	89	1
-27760	-10996	24020	-97	32767	24705	-32768	-84	3804	-17568	28368	-6039	-22152	14708	4700	-19152	-11686	11847	-17584	6464	14920	-6336	5866	-9736	-13556	11200	-16252	3020	15953	9348	-7452	1772	-13912	9213	7724	2449	128	96	1
-32768	-16712	28932	166	32767	31472	-32768	-12884	-4428	-19375	30052	-3097	-27536	-6068	-7152	-21745	-3874	4459	-14164	1048	16872	-5459	283	-5717	-16392	1604	-16176	5647	12006	9441	-23804	9700	-15096	11029	12985	5923	136	132	1
-31784	-16556	32767	-3645	32767	30596	-31924	-4612	-1572	330	24800	-5375	-32768	-4100	-14392	-13907	-10189	897	-9412	5704	13536	-2486	-183	-2141	-18368	3684	-9624	15369	9702	4468	-20656	10936	-7388	7783	9238	5804	125	112	1
-1088	-10720	19896	-15162	29298	20301	-22564	-824	-7760	4447	17915	-3888	-32768	4048	-6572	-1884	-16418	-2504	-8100	5040	13412	-1361	373	-1809	-15476	8360	-8092	7962	8136	3010	-19620	7192	-5800	1570	10446	5824	123	125	1
-14104	-32768	32767	-10954	-7253	1803	-18952	-1136	-2468	-2039	10294	-3205	-31320	6356	-10388	435	-19211	-2166	-9328	4760	13848	-438	697	-2204	-17064	4360	-8416	-3803	6936	2179	-20052	6436	-6152	951	10440	4716	124	116	1
4604	-15732	16248	7084	-17380	-6077	-13748	2280	1628	-2087	-111	-6065	-31596	4548	-11800	-4919	-21584	-2252	-9816	3868	13576	363	998	-1134	-16900	1360	-9072	-6564	5389	1839	-17636	-288	-4080	-1906	13440	2411	123	128	1
7528	-3580	11132	1300	-17195	-13883	-4928	1068	-252	-1152	-9276	-2933	-23484	864	-11536	-5940	-19824	-3428	-9208	4768	13452	461	1445	-503	-17132	-1188	-7564	-474	3028	2751	-18416	-916	-4060	-897	14546	1660	132	119	1
3588	-4556	10628	-3538	-18465	-17526	-5608	-1328	-1328	915	-17089	-1408	-18768	2148	-12676	-3823	-20241	-4810	-9204	4840	13512	513	1535	-421	-16224	1480	-7408	4812	1361	2892	-16732	380	-3296	1146	16078	1566	129	106	1
-612	-3516	11924	-2304	-21937	-17673	-6480	-172	-2480	6533	-22774	-979	-16548	3968	-12620	-3460	-21431	-5126	-9684	4880	12928	1007	1887	518	-15804	2656	-5864	5874	415	2986	-15400	260	-932	433	17742	1020	131	125	1
-4192	-2220	13760	311	-27031	-17683	-6336	2780	-3112	7104	-27408	109	-15888	4112	-12652	-3826	-21702	-5126	-9464	4840	12996	997	1861	517	-15564	2560	-4264	4422	252	3073	-13408	1760	-5772	807	13228	1526	130	127	1
-7128	-300	14812	2763	-32768	-17726	-7820	3092	-4372	5418	-31619	1452	-8860	1156	-7292	3339	-17099	-6717	-9664	4556	12864	1097	1868	596	-14928	2344	-3872	2416	595	3160	-15120	-996	-28	19	14909	-11	135	133	1
-7712	2528	16196	1224	-32768	-18267	-9352	3520	-4316	5541	-32768	4541	-9136	-1140	-13212	3301	-23357	-4248	-9272	5000	12700	1041	1872	459	-15072	2496	-2864	3098	1168	2998	-14548	-508	148	4957	14966	754	129	128	1
-10620	2672	17856	-1131	-32768	-17406	-11336	3996	-4616	3666	-32768	7782	-7000	-2676	-11928	6581	-19058	-2937	-9676	5524	12300	618	1538	-196	-14568	3860	-2728	6340	1435	2943	-14016	1660	100	9356	12914	52	130	131	1
-14072	1572	19728	-2269	-32768	-14581	-13652	2676	-5392	1368	-32768	9891	-4992	-2300	-13132	10965	-17690	-1123	-9836	5388	12164	-9	709	-786	-14356	5084	-3356	7509	1948	2663	-12852	4708	64	11406	12838	825	124	127	1
-17824	316	21152	-5417	-32768	-11453	-18228	2620	-5684	-567	-32768	11278	-4968	-1984	-13352	11769	-17293	-1161	-9516	5396	12524	-419	152	-1321	-15116	3568	-2828	6920	2606	2343	-12032	5012	3200	7836	14304	4081	123	134	1
-20360	-708	19596	-12016	-32768	-9839	-22684	3880	-7684	-2999	-32768	12131	-1344	1308	-14976	17814	-12350	-3603	-9360	4868	12764	-611	206	-1949	-16188	2036	-1848	7464	3439	2554	-14000	1212	2272	7606	15827	3871	127	137	1
-28940	-4944	25236	-17376	-32768	-10814	-27344	2476	-11236	-5887	-32768	13090	-3116	3856	-9028	16202	-11502	-3673	-9288	5192	12928	-603	786	-2260	-15152	2664	4	6550	5228	2440	-21616	3612	2260	7798	14327	2933	128	131	1
-32768	-16052	26808	-15915	-32768	-17284	-29408	2312	-12140	-6664	-32768	13113	-9144	4480	2428	12384	-17168	-812	-9184	4988	13096	-601	1592	-2691	-14516	4796	244	3722	7691	2600	-20552	6964	1360	2166	7786	1121	126	126	1
-32768	-15800	9216	169	-32768	-26747	-32768	-9240	-23032	-3553	-32768	5668	-17204	-332	14400	17106	-14194	3	-9500	4852	13264	-500	2869	-2787	-15544	4896	-432	-201	10284	1743	-16964	8768	5216	-1039	7811	2779	116	130	1
-32768	-888	488	3682	-26960	-29804	-23120	-12632	-29752	8802	-32768	5795	-20036	-160	19224	9898	-14169	-532	-9308	4756	13976	-161	5137	-3081	-16680	3140	-916	-1336	12610	888	-16776	6444	6804	871	11052	2706	125	138	1
-32768	6260	-14252	5239	-23566	-20328	-17020	-10620	-29464	7835	-21738	2530	-9996	11736	30020	8871	-2458	-1990	-9144	4860	14996	139	8782	-3479	-18096	2628	-1264	-2426	15189	625	-19332	3312	6340	1033	11701	2009	122	148	1
-32768	14000	-28108	2172	-12789	-7251	-8204	-4628	-30780	1748	-5379	-4206	-14768	19024	25140	13874	2089	-4894	-9028	4772	15848	156	14481	-3704	-20268	1524	-1380	-3440	18106	437	-21344	1696	5988	620	9533	1210	125	145	1
-32768	14432	-21292	-3336	2939	2094	-7216	-7044	-27304	-1509	10150	-7555	-12608	9448	15396	537	5274	-3630	-9288	5248	16556	250	21862	-4104	-21508	-260	-1908	-3474	20812	573	-21688	1100	6184	94	6053	331	124	148	1
-9948	22956	-13020	24824	27564	448	-9612	6836	-21760	4788	21607	-12491	-18296	3144	9668	-13177	8805	-2770	-9188	5032	16968	167	31462	-4599	-24464	-2240	-1884	-2184	23218	730	-25660	1076	7576	-1292	1623	539	127	151	1
10872	11572	32767	6286	32767	-4626	-32768	13244	22508	24016	25998	7675	-27244	-4452	32767	-2550	20975	-6951	-8076	6124	18312	1144	32767	-5374	-30352	-2732	832	714	25204	605	-27552	2172	12380	-1810	-4086	373	132	163	1
-32768	12320	25236	-958	24952	11650	-21596	13984	-15232	21086	13265	2738	-17820	-7636	11684	14467	14439	2231	-8436	6688	18180	1089	32767	-5642	-32768	-6552	7220	6703	25418	1838	-30620	-632	19152	-5557	-16407	-1019	119	171	1
-4448	-13908	10412	-1232	20061	6807	-17228	21128	-12416	24439	12626	2379	-12984	13300	-21872	17868	4320	-5511	-18948	20236	17400	1561	32767	-24051	-32768	1092	7008	18181	23871	4751	-29232	-2252	21468	-6667	-20831	-1663	119	168	1
-15408	-3656	15304	3915	22298	7669	-8136	-11936	-8028	9703	16828	-7875	-10368	6932	-6248	-14121	4167	608	-32768	11428	17684	-4327	32767	-32768	-25600	14884	-11104	9471	25643	6768	-20336	-8632	1476	7168	-13794	-6446	138	170	1
-15272	-5216	15980	10203	7583	8126	-19416	-5556	-12212	6010	14021	-7886	-12132	-12512	-10672	-9275	9061	-802	-32768	16960	23972	74	32767	-31600	-27168	1628	-9244	8097	22817	6113	-30536	7380	-15004	21546	-14312	-5418	114	166	1
-12124	324	15588	5549	1316	3660	-25968	11264	-9216	-2096	17115	-2551	-29224	-2916	-11292	-1874	12257	-4870	-26272	15324	30844	14873	32767	-22623	-22688	-464	-11208	5691	17498	5269	-32276	44	-13944	14749	-18711	-2486	105	143	1
-11916	-584	15688	4876	1226	2953	-17768	-1548	-6260	-10497	12779	-3113	-16508	-760	-6396	-2504	10577	-4405	-32768	26784	32767	21940	23	-7510	-14996	4624	-14932	8375	11983	4920	-27176	-288	-7232	7788	-23232	1373	127	118	1
-8540	-1496	13904	1911	309	1164	-15712	-392	-6668	-1692	9047	-2374	-17196	1908	-5292	771	12164	-2392	-628	24832	26116	14161	-27448	4291	-15812	-1472	-3076	15570	1099	5798	-27292	-264	-8688	3805	-22977	528	129	111	1
-8352	-720	14004	518	653	519	-18768	1572	-6040	4422	5827	-2148	-18048	2380	-4408	2666	13605	-1179	9204	13872	14952	7930	-28050	9626	-15512	-2012	-2980	16385	-642	5753	-24864	-428	-7624	5653	-21467	-1486	126	126	1
-8544	-1524	13716	153	1116	-65	-18756	1652	-4936	6147	4026	-2357	-18848	2432	-4376	2620	14564	-296	7864	6800	11392	4986	-22356	11900	-6528	1652	-2880	8025	-14917	5616	-19680	1380	-8628	8473	-18609	-1501	126	104	1
-9012	-2180	13272	408	1416	-1004	-16936	1568	-5028	2337	3516	-2621	-17396	1276	-4136	2013	15541	135	-1472	5496	14388	2908	-22478	11013	-6104	1860	-4852	-1480	-20446	5250	-18572	992	-8904	8453	-17943	-1512	120	107	1
-8808	-2600	13208	376	1165	-1263	-16716	932	-4024	-3383	3109	-2529	-16940	-76	-2892	31	15699	-189	-6304	2124	16708	2757	-29052	9958	-6536	504	-4788	-3869	-25074	4916	-14052	736	-10044	5345	-15177	303	126	106	1
-8548	-2764	13204	287	755	-892	-16988	-908	-2792	-4782	2743	-2052	-16068	-1452	-952	29	15604	-792	-8756	704	16624	7445	-32768	11287	-8056	-2036	-7368	-4534	-29137	3588	-12036	1828	-11164	4640	-14452	907	131	108	1
-8216	-2372	13340	140	659	-367	-16768	-744	-1992	-1228	2312	-1676	-15328	860	504	3133	15246	-1564	-9308	1820	17172	10623	-32768	13592	-10608	-2040	-7820	-4039	-32768	1654	-10304	4044	-10524	859	-13201	289	132	116	1
-8364	-1616	13552	-80	868	-125	-15740	1496	-2188	1489	2192	-1469	-15632	3516	1556	2104	14631	-1748	-12188	3712	18780	9116	-32768	16559	-12128	-2416	-8644	-3538	-32768	-274	-8476	3820	-10528	-1922	-11022	-958	133	118	1
-8440	-2260	13208	-132	928	-46	-16272	912	-1376	207	2733	-1605	-15020	2600	1936	-2810	14632	-1605	-16336	4264	20472	6622	-32768	19212	-12988	-2056	-9752	-2822	-32768	-2297	-4972	2440	-11432	-3854	-7818	-2299	128	121	1
-8584	-2780	13176	59	724	473	-15936	164	-1156	-3035	4121	-1839	-14348	-196	2100	-7052	14703	-1908	-18636	3428	20436	6309	-32768	21072	-16028	748	-10292	-4968	-32768	-3891	-4724	3924	-11852	-8667	-4531	-1624	127	121	1
-8636	-2528	13240	282	629	756	-16388	-324	-1340	-4047	5241	-1676	-14708	-1572	2188	-8509	14834	-1827	-20336	2596	19260	9705	-32768	21178	-19408	1960	-11004	-8511	-32768	-6399	-3324	2640	-11028	-15817	-2883	138	127	114	1
-8360	-2164	13260	404	755	1003	-16228	60	-1276	-2169	6084	-1111	-14844	-876	3752	-5522	15132	-787	-30040	9672	23408	9431	-32226	20427	-22720	3320	-11556	-8789	-32768	-8767	-4232	224	-8248	-17125	-3140	2074	124	117	1
-8544	-1784	13684	401	1214	1225	-16744	2036	-1664	-2947	7231	-1323	-13276	2796	6352	-5222	14450	-3535	-32768	17380	25228	1747	-32768	22371	-27120	8404	-12916	-10853	-32768	-9275	-11144	-96	996	-14331	-11913	1557	123	115	1
-8340	-2016	13672	378	1875	1314	-15696	1588	-1072	-4445	8903	-1671	-16100	1748	2828	-5504	13157	-3498	-32768	12700	13564	-5850	-32768	27526	-21960	5420	-16516	-9321	-32768	-9656	-16500	100	7084	-10644	-17242	256	126	124	1
-8284	-1800	13676	483	2683	1418	-15848	136	-1144	-2930	10101	-1672	-16800	1392	2316	-5698	12815	-3243	-32768	7276	-3304	-5262	-32768	29247	-16592	1580	-20972	-3973	-32768	-5894	-16656	-8372	9268	-11374	-8884	56	125	127	1
-8692	-1756	13992	662	3790	1603	-16412	176	-1680	-215	11603	-1076	-18560	-2980	3884	-4498	7477	335	-32768	-21764	-18808	10841	-26924	20643	-12000	-816	-20540	7003	-27628	4200	-9516	-16352	32767	-14948	-7905	-675	124	117	1
-8468	-716	14968	477	5863	1442	-17188	1164	-2108	1188	13230	-507	-15140	-1992	8236	-405	13427	179	-32768	-32768	-30232	32767	-13430	7957	2260	10096	-19180	24756	-7726	8069	-27300	-17252	32767	421	1599	-2836	124	116	1
-8244	-1180	16472	-326	9677	1278	-19548	1304	-2412	2221	14869	87	-17624	-1680	6296	-513	11204	958	-32768	-17436	-20108	-650	1311	-13604	-3496	16536	-19848	10383	11337	5738	-17476	3804	15868	19873	-10118	946	124	117	1
-8436	-3280	17128	-841	15477	1880	-22924	2012	-1244	2751	17142	393	-26060	128	6096	-1771	7693	1003	-32768	-8512	-5336	-11531	6195	-20490	-7124	10044	-22716	-7251	23061	1414	-13788	5472	332	24152	-5879	4732	127	124	1
