#Activity	walking 
#ActivityID	1 
#Date 10-10-18-19
acc_rf_x	acc_rf_y	acc_rf_z	gyro_rf_x	gyro_rf_y	gyro_rf_z	acc_rs_x	acc_rs_y	acc_rs_z	gyro_rs_x	gyro_rs_y	gyro_rs_z	acc_rt_x	acc_rt_y	acc_rt_z	gyro_rt_x	gyro_rt_y	gyro_rt_z	acc_lf_x	acc_lf_y	acc_lf_z	gyro_lf_x	gyro_lf_y	gyro_lf_z	acc_ls_x	acc_ls_y	acc_ls_z	gyro_ls_x	gyro_ls_y	gyro_ls_z	acc_lt_x	acc_lt_y	acc_lt_z	gyro_lt_x	gyro_lt_y	gyro_lt_z	EMG_r	EMG_l	act
-11772	-3932	12104	1043	8701	4228	-16928	-2204	-1832	-1694	13511	3597	-17624	-1340	-3672	-3853	4675	1797	-32768	-28176	-29848	10288	-9860	-2913	-5856	-1892	-5020	14663	-2708	4979	-20240	-2220	26140	-3645	3840	-2345	132	209	1
-11296	-3960	13208	1248	11485	4673	-17648	-1168	-2924	-244	14759	4125	-16708	-1848	-4988	-5006	3560	2394	-26260	-10632	-14304	-4189	6334	-7881	-4660	4604	-5792	6445	13298	-6008	-19388	-4944	18484	2931	-96	-6856	135	175	1
-11080	-4232	12940	2253	14750	6411	-18232	112	-3696	-2244	15065	4514	-17128	-1496	-5696	-3964	1535	3404	-11708	7312	32767	-11111	7215	-11892	-25252	5664	14576	11490	14566	-8565	-17180	-228	2052	12764	6552	-6675	136	132	1
-10980	-4536	13408	2591	19734	8304	-19404	-1676	-4588	-4310	15314	4799	-19340	-3880	-4736	-3261	314	4333	7316	3544	-6368	-5808	18622	-16840	-32768	7080	11972	-4129	5151	4415	-16612	-5624	5440	17982	7749	-5250	132	119	1
-11584	-5508	12496	3292	26353	11536	-22764	-1972	-2272	-3867	15486	5371	-21272	-2560	-1812	-2345	-2684	4433	-28976	5548	25244	-5279	31130	-8644	-5524	-6932	8232	-5926	11639	-5366	-18124	2716	8048	311	2336	4581	130	92	1
-12008	-5848	12344	3190	27071	12271	-22888	-1004	1432	-5574	15753	5570	-23376	-636	4380	-3668	-8144	4926	-20348	-10552	18524	-2535	20645	-10722	-24264	-1908	-3924	-343	15671	-9311	-23604	7580	5048	-5756	2969	5197	130	58	1
-13772	-7972	13280	3567	32767	20491	-25560	1576	3468	-10540	15809	6070	-25332	-1300	12496	-5061	-20101	3708	-13016	10064	10092	-13100	3213	-10639	-26840	3336	-11716	3726	15533	-6399	-19580	-4520	-6700	13487	7460	-3771	126	102	1
-20216	-12612	10092	6515	32767	26573	-26660	-2068	10276	-20799	16802	6306	-21628	3996	9468	-5995	-16896	5466	-17536	-1924	15980	-7329	542	-5691	-15344	104	-9328	-8329	15907	-7120	-12368	-280	-10116	15883	12913	-1018	127	78	1
-29712	-2576	7292	3440	32767	32035	-25932	-2828	8356	-21323	17026	6257	-21416	-1524	4608	-6634	-15615	4045	-11508	1388	15708	-4250	-727	-3480	-13572	-936	-8280	-13206	14052	-4797	-8044	11720	-11860	1575	10890	963	130	151	1
-32768	-12920	14620	-1533	32767	31941	-21328	-12052	-5172	-12057	21442	6500	-20140	-6824	-4224	-4134	-15263	-940	-10684	6708	12380	-2032	-472	-1784	-15672	-3060	-9276	-2638	8910	-5705	-14816	7148	-9200	-7369	9220	-3418	137	111	1
-28304	-13284	14840	2043	28138	32767	-23728	-2668	-8180	-1681	18884	4310	-22340	-3728	-9140	1260	-15681	-5065	-9824	5588	13028	-1773	-135	-1719	-18832	1288	-7260	2043	7786	-2261	-17180	-2456	-6220	-6900	11815	-2446	136	91	1
-2116	-13324	12112	-572	27351	32767	-18508	-212	-6484	-466	13304	2630	-25236	2908	-8352	6631	-17476	-5319	-9508	4404	13612	-1455	-134	-1593	-17728	364	-2856	3097	5598	-2775	-18532	-3008	-2096	-358	11976	-1539	134	93	1
-32768	-12784	16084	-7645	21203	16333	-16548	1660	-20732	2814	6923	4526	-21300	4228	-8940	6263	-17924	-4932	-9572	3840	13552	-607	160	-1175	-16296	436	-2164	2491	6206	-2278	-15864	536	-648	4501	11263	-3500	126	99	1
-22036	-24184	15664	-5047	-8007	-6995	-10928	4096	-15616	-7966	5063	-10	-21348	3180	-7180	3722	-19232	-6823	-9604	4608	13480	19	803	-824	-17352	3812	-2328	10	5440	-2146	-16512	1820	-760	5850	10614	-4009	130	121	1
-9736	-18440	12044	6129	-20237	-12455	-10704	1216	-5920	-16242	-2469	-1955	-20808	1608	-8592	-1879	-18541	-7932	-9524	5188	12932	92	1165	-723	-16752	3532	-2712	-2751	5442	-2197	-16540	2736	-1440	6289	11564	-2475	124	127	1
-1968	-6244	9528	3706	-22548	-13996	-10764	-5260	-11012	-9689	-8610	-3655	-18856	-2132	-9716	-2565	-16999	-9536	-9760	5116	12964	8	1124	-946	-16552	1860	-2976	-1051	5071	-2455	-15048	2596	-1744	7777	12303	-1274	122	128	1
-6432	-1616	7824	-10008	-22418	-18579	-6304	-4348	-9760	7533	-12644	-4744	-19616	-2140	-9396	1915	-17445	-9967	-9608	5020	12824	-34	960	-1054	-16000	324	-3496	5046	4752	-2347	-15012	1848	-1992	10179	12346	-1277	117	111	1
-12456	-8312	6464	-16017	-26157	-22519	-6528	-72	-10992	19235	-17000	-8833	-16496	684	-7888	6792	-18138	-8044	-9760	4884	12744	-117	673	-1110	-16052	1468	-3356	9035	4620	-2054	-14404	3452	-2016	11107	13084	-2094	115	107	1
-13300	-10136	5128	-10373	-30149	-24315	-7680	4160	-9944	17697	-22187	-11175	-13860	2520	-8008	5896	-17607	-6361	-10912	5528	12936	-122	342	-1307	-16116	1800	-3416	9121	4682	-2021	-15204	4452	-2644	6994	12961	-3035	119	111	1
-11712	-5244	5356	-5433	-29722	-26083	-8876	5860	-10456	11248	-26037	-11789	-13020	1924	-7384	3671	-16024	-5373	-9696	5088	12552	-296	494	-1329	-15968	4276	-3040	2119	4598	-2812	-15248	5268	-4096	687	12662	-2785	125	116	1
-14184	320	6200	-9187	-26918	-31128	-11040	3668	-10740	5091	-29067	-9292	-11256	1984	-7896	2261	-14280	-4407	-9760	4548	12868	-281	432	-1390	-15980	1768	-3464	-1475	4879	-2986	-15688	3524	-4468	-1499	10728	-2017	128	120	1
-17388	-5176	7068	-9960	-25515	-32768	-8940	3240	-10436	3295	-32101	-11055	-9648	2924	-8292	1517	-11884	-4579	-9684	4560	12688	-184	493	-1387	-16396	-496	-3836	-338	4693	-3027	-15204	2028	-5312	-2106	10440	-2333	133	119	1
-18348	-5912	8844	-4207	-24917	-31180	-9076	1592	-11376	2480	-32768	-13514	-8096	3576	-9360	664	-8815	-4352	-9564	4448	13068	-367	561	-1363	-16344	544	-4288	1012	4699	-2515	-15512	2260	-5400	-2771	10387	-2955	121	118	1
-19396	-3008	11596	-5527	-25514	-30599	-10040	-280	-12448	8870	-32768	-14238	-7336	3444	-9824	-2782	-5582	-4123	-9084	4564	12736	-270	634	-1758	-16704	1132	-4036	943	4400	-2377	-15084	2760	-5064	-3106	10250	-3055	105	121	1
-25128	-10000	14112	-6653	-26990	-29747	-13132	420	-13316	14186	-32768	-14496	-6616	3376	-9068	-2273	-2019	-4085	-9600	4592	12976	144	895	-1693	-16640	840	-3924	107	4505	-2427	-15648	1192	-4396	-2380	10511	-3061	105	124	1
-32768	-15224	15036	-883	-29997	-30106	-19420	580	-14744	16050	-32768	-15651	-5996	4480	-6100	516	1029	-3591	-9748	4924	12912	1361	1112	-2720	-17364	1528	-3440	280	4572	-2364	-16440	172	-3172	-1076	10669	-2529	112	125	1
-32368	10496	12816	-4330	-26420	-32768	-19744	-2324	-9972	21918	-32768	-11212	-7284	404	-3624	3146	1048	-4237	-9444	4476	13600	1367	2488	-2709	-18624	788	-2056	1919	4829	-2514	-19008	672	-748	-527	10278	-1338	122	123	1
-32768	9524	4684	-12084	-21327	-32768	-20448	3548	-12564	22948	-32768	-4476	-10372	-4548	-3720	6332	1677	-7378	-9712	4412	13692	336	5113	-2577	-17988	1652	1412	5316	5761	-3610	-19100	2404	2872	2491	8301	-104	118	124	1
-32768	14268	4464	-1217	-18280	-29764	-25616	5620	-28332	14251	-29953	350	-26808	-11048	18936	13028	-21460	-13592	-9964	4552	13608	252	7543	-2705	-16664	3720	2744	4717	7872	-5174	-18608	2072	3464	5960	6786	-641	118	125	1
-32768	18228	-16140	8490	-13580	-18625	-17016	4776	-7452	-6131	-21217	2921	-26468	-10308	13276	10780	4101	-19292	-9884	4168	13908	702	10407	-3025	-17740	4500	436	2841	10125	-7048	-20580	5172	396	7168	5984	-1780	40	124	1
-32768	32767	-31564	3882	-17448	14714	-820	5688	-7516	-15283	-3448	-2971	-17976	-1708	20988	5204	9895	-2197	-10244	5596	13988	943	13771	-4365	-19452	1988	-1116	3944	11645	-7607	-19220	4644	-1228	8638	3597	-1354	51	127	1
-32768	32767	-27912	-25994	-1720	8687	-192	-4548	-7548	1550	9878	-6641	-17392	-296	22800	4217	8236	826	-9584	5580	14304	591	14433	-4551	-19704	632	-1272	7141	11761	-8021	-19232	2012	-1884	5935	1433	-1193	85	126	1
-32768	-32768	-6652	15263	1053	12629	-17916	1688	-4508	-989	22484	4698	-16912	7604	4100	479	9930	11501	-10264	4324	13268	471	22452	-6806	-18964	400	-2136	6852	12269	-9229	-18348	3652	-600	8457	148	-2615	83	119	1
6280	-23220	30660	15742	17209	5078	-32768	-1224	21796	-8089	4949	4424	-17708	6988	-7700	-8907	18848	7527	-10904	4696	13412	43	28034	-7518	-21684	1576	-312	5790	12957	-9987	-20952	5992	564	6733	-1431	-3164	122	123	1
-6240	2348	480	17952	27965	11697	-19612	-14204	-2940	17623	6340	-1597	-14124	708	4328	-8670	6615	8	-12880	7020	13192	512	32767	-10138	-24188	348	2616	5707	13899	-10485	-22972	3620	5388	6739	-6036	-3932	124	121	1
-32768	14704	21596	6768	13050	15261	-2244	6252	-3492	26489	11965	-2964	-27532	-20688	7176	10454	-1007	-8625	-14452	7344	14428	190	32767	-14954	-25748	2752	4800	11640	13884	-10768	-24112	7200	13896	9124	-17256	-2078	91	117	1
-21488	-10792	8796	15073	-2258	11611	-32768	-5716	-7080	22364	20295	3730	-24656	816	-512	25318	18715	-4858	-24720	11136	18432	830	32767	-19754	-29684	8344	6284	15612	14752	-11383	-23248	3372	9544	5953	-18123	-1544	79	112	1
-13292	10480	19228	6519	-643	5305	-20856	9648	-11308	23149	16787	2075	-19636	22416	-12044	4205	13376	7676	-29860	11800	15812	6633	32767	-23473	-25128	9356	1268	13797	17904	-10710	-23008	3948	3204	2251	-17374	-680	140	108	1
-11344	-2756	13240	3731	46	2105	-10684	11408	-5540	-328	12606	-1894	-8092	12172	-5056	-16738	9649	5777	-32768	12860	21136	6855	32767	-30730	-22356	9960	-5580	9605	18564	-11489	-21728	4628	-1800	-688	-19947	2686	144	101	1
-11140	-6156	10756	1016	1354	239	-12688	-372	-4636	-16311	11320	-1587	-8788	-10196	-11028	-10651	9104	3962	-23732	8328	23428	15415	31213	-24975	-21820	212	-7648	627	19571	-12092	-23112	3884	-8836	-1463	-20931	4411	149	104	1
-11224	-5308	10084	1266	784	1087	-13996	-8572	-5892	-18019	7436	-2111	-13380	-13728	-7164	-1357	9219	-1038	-6948	15392	8140	28054	20550	-22946	-21552	-8044	-11060	-3297	13677	-8145	-26192	-100	-9584	-6858	-21826	5118	171	105	1
-10056	-5356	10684	1298	-432	1768	-18976	-12048	-3428	-3346	6629	974	-17104	220	-6532	5631	11842	168	-27072	32124	24824	12515	-4017	-4830	-13324	-10656	-20248	-352	7708	-7306	-23400	-5568	-6800	-10371	-24352	3616	158	90	1
-10148	-3844	11812	1580	-1063	1962	-16388	-4196	-2144	10581	6353	654	-17656	5844	-3044	1064	12642	1573	-2200	25500	12800	-11796	-15617	336	-11628	-6428	-6204	22366	617	-2596	-21364	-2364	-4996	-3551	-23513	4162	168	132	1
-10188	-3304	12180	861	-712	1040	-16288	3984	-1600	9307	6709	199	-16528	-1088	-2052	-3151	12089	4434	2000	4644	10416	-11283	-15795	1479	-10584	2276	-6940	23281	-5006	2808	-18580	2516	-6812	1747	-20500	7252	166	146	1
-10268	-3740	11784	-11	143	221	-17508	2060	-1904	-5324	6035	241	-16036	-1776	-1908	-3850	12098	4812	692	2764	10368	5081	-15450	8719	-4272	4044	-7728	2529	-7861	6510	-18388	2652	-7272	1160	-18224	8073	146	164	1
-9808	-4800	10968	-404	822	307	-17240	-4972	-196	-10009	4420	-15	-13076	-1720	-3280	-2384	14397	5271	-4556	12628	10884	11384	-17463	13905	-6312	-952	-8496	-11899	-11314	9978	-18820	2260	-6676	-2311	-17374	7181	147	150	1
-9836	-4808	11000	-492	1182	1037	-17192	-5760	-20	-9543	4159	32	-14724	-348	-1824	328	14302	1946	-9680	17856	11772	4868	-23453	16273	-8544	-5632	-8836	-13132	-16225	14335	-17764	1208	-6768	-5397	-17599	6779	148	153	1
-10288	-4584	11268	-436	1205	1395	-13832	-3096	-252	451	5124	1021	-15744	-728	96	-171	14164	169	-12008	13488	11292	-46	-30363	19418	-9352	-6268	-9428	-6827	-20042	17975	-15324	-248	-6792	-6216	-16581	5235	143	168	1
-10468	-4304	11496	-506	1078	1260	-16988	-1212	-960	-1843	6033	1023	-16988	-2812	-2112	-4043	11677	1186	-12660	8932	9816	2153	-32768	23860	-8360	-4336	-7448	-3811	-23020	20100	-12288	-680	-7520	-7275	-14336	3734	147	167	1
-10540	-3892	11380	-891	1226	730	-16436	-1516	-92	-4818	6546	625	-18156	-4700	-5636	-1118	8461	2010	-13404	6608	9532	5339	-32768	26741	-8444	-3736	-8808	-8238	-25243	21498	-10556	-1548	-7380	-7313	-11137	3693	150	143	1
-10440	-4624	11068	-755	1402	930	-14844	-3816	-1520	-5229	6686	1231	-16704	-4328	-4460	1821	7501	1693	-18024	6016	11316	7769	-31999	28223	-10528	-3932	-8652	-12194	-29087	23305	-8440	-748	-6960	-5596	-8039	2695	139	141	1
-8864	-4620	10956	-587	1081	1673	-15608	-4168	-2260	-2372	6751	1272	-14636	-1956	-3432	-495	9095	2537	-22160	8860	12724	6666	-32011	29046	-11952	-6212	-9268	-11799	-31811	23668	-8516	-1952	-8076	-2418	-4610	2802	131	147	1
-10428	-4612	10832	-228	946	1535	-16348	-2128	-2736	-1008	6872	1335	-14240	552	-4196	-1344	10671	2788	-23640	10004	14084	3297	-32190	29220	-13884	-7776	-11468	-6761	-32768	24497	-7940	-3432	-8040	1213	-1543	2280	126	135	1
-10348	-3836	11128	-394	1175	1340	-15616	-132	-2592	-2790	7108	1435	-15032	772	-4324	-2094	10404	3029	-27780	11628	15924	1996	-31100	31381	-16104	-5080	-10156	-4056	-32768	26135	-6188	-3892	-6540	4029	1855	2679	130	137	1
-10796	-3804	11336	-682	1800	1439	-15788	-1408	-1608	-4923	7508	1471	-15676	1144	-2976	-2656	9628	2176	-32768	9768	17776	1150	-29732	32767	-19268	-2364	-10924	-7020	-32768	26546	-5580	-2600	-3672	3586	3388	2798	130	160	1
-10608	-3976	11612	-1111	2334	1725	-15776	-2064	-1024	-4102	8353	1633	-16840	1132	-2224	-1893	8764	882	-32768	2372	14576	270	-30812	31493	-19992	-244	-8672	-12259	-32768	24248	-8312	2752	-1488	431	2416	5764	129	168	1
-10500	-4864	11340	-1892	2899	2180	-15832	-2120	-1192	-3991	8498	1750	-15844	-2284	-1948	-3372	9300	1150	-32768	-5412	7272	171	-31044	23985	-22692	-1316	-8004	-17257	-31704	18472	-18304	4512	7056	-4338	-2994	8963	130	150	1
-10412	-4840	11336	-1138	3634	3310	-15940	-3028	212	-5499	10010	1881	-16312	-3160	-1652	-4530	8674	1461	-32768	-9828	-1140	-5971	-25381	18630	-22400	-9428	-12264	-19844	-22250	13047	-26608	10916	20144	-8646	-8097	13712	127	190	1
-11108	-5180	11596	418	5537	3374	-15912	-3068	564	-5560	10050	1836	-17508	-1640	-1504	-4371	7011	813	-32768	-20116	-18596	-5775	-19782	6308	-11048	-14640	-7288	-5598	-12756	6635	-18256	5820	22184	-11446	9725	10412	130	243	1
-11432	-4816	12216	1419	7519	4287	-16960	-3280	-484	-3932	13019	3279	-17932	444	-2296	-5314	4879	1398	-32768	-31808	-25900	11305	-10825	-5303	-2036	-2432	-5024	14735	1237	6060	-18596	-2304	27176	-4104	1171	-2291	131	225	1
-11204	-3948	12516	1728	10218	5250	-17540	-2136	-3072	-583	14617	3624	-16972	-1932	-4420	-5113	3111	1572	-32768	-10892	-21348	239	1647	-14112	-8560	2724	-5712	5980	15884	-6151	-17568	-4096	18972	340	-1719	-9436	133	163	1
-11372	-4248	13312	2059	13202	6430	-18072	-712	-4900	-938	15411	4044	-16784	-1748	-4924	-6201	1877	2401	-12160	21884	32767	-20081	7336	-18832	-21652	4532	13344	16228	20091	-9972	-17140	1072	3712	5229	3847	-5884	133	120	1
-10852	-4208	13268	2526	17072	8673	-19136	-40	-5012	-5200	15690	4326	-19560	-3112	-4684	-5417	766	3325	-108	23080	32767	-17129	6604	-14018	-32768	10600	29280	10869	3979	3818	-13444	-736	-4672	16536	10130	-5060	130	110	1
-11064	-5844	13200	3754	23243	11466	-21816	-2392	-2868	-6643	15954	4839	-21804	-3860	-2468	-3891	-3031	3718	-23936	4856	14600	-3337	32767	-5731	12	-6044	1324	-11848	11235	-2598	-16136	-12716	13424	-7577	628	-24	131	82	1
-12064	-6596	13776	3804	29958	16634	-23704	-1272	92	-5746	16478	4944	-22532	-1080	5160	-4680	-9262	4374	-26360	-14644	23500	-1615	27537	-10897	-24828	-396	-4940	-2185	14386	-11881	-27528	15440	10504	-7839	6068	6358	135	48	1
-13076	-5208	14860	3317	32767	22309	-26008	744	3012	-9691	16673	4927	-25436	-1780	11368	-4394	-16889	3464	-32768	20292	5568	-13278	3775	-10758	-30576	3684	-17472	-6807	18574	-8147	-24988	-10480	-3096	9264	8242	-2427	125	116	1
-15596	-12696	10660	5752	32767	27665	-29596	-264	8432	-20029	16890	5982	-25148	4272	9004	-5535	-15656	5003	-14884	-4700	18564	-6988	2229	-6199	-16640	-6728	-10048	-11989	17398	-5760	-11096	-4468	-16980	20739	13494	1701	122	59	1
-31784	-8136	13348	7213	32767	32767	-22964	-6240	2284	-24597	18754	4715	-23056	296	5004	-7678	-16288	4124	-11716	2996	15116	-5689	-482	-4981	-14168	-3344	-8752	-7249	15645	-3521	-5284	14188	-8808	10199	10806	3010	131	137	1
-32768	-12264	16444	-3817	32767	31666	-22124	-11460	-5668	-17404	20629	5985	-21992	-5356	-3924	-5954	-15968	-400	-10512	8536	11832	-3191	-812	-2503	-10960	-1884	-9384	7591	8020	-5160	-15184	14024	-10572	-5777	9966	-1080	137	96	1
-28960	-15532	14724	1421	30575	32767	-23724	-4048	-10304	-7064	17640	3630	-24476	-4132	-9628	-1276	-16640	-4827	-9876	6336	12720	-2348	-280	-2141	-22188	4660	-8096	6066	8640	-3653	-17416	160	-6188	-8876	11642	-2518	134	74	1
-36	-13848	13048	-1245	28162	32767	-19392	-360	-3716	-4049	12709	2137	-25668	2940	-8184	3843	-18467	-5629	-10120	4532	13676	-1943	164	-2081	-20188	2092	-3544	1172	4767	-3508	-20800	-4188	-2572	-2604	11870	-2484	136	90	1
-32768	-6764	11764	-7415	27043	22306	-14996	448	-19812	2703	4768	2668	-20984	3916	-9084	4312	-18955	-5498	-9752	3404	13812	-913	641	-1553	-14904	-1052	-1600	-5104	6735	-2697	-15448	-2036	1296	73	10687	-3151	125	99	1
-25160	-23808	15844	-8274	-5709	-5283	-9608	4904	-19300	-6408	3595	-545	-20664	3916	-7108	2975	-19989	-7253	-9616	4232	13508	278	1345	-679	-16704	-444	-2140	-3839	5836	-2731	-17084	36	-184	4096	10269	-5119	130	109	1
-11240	-19648	12252	3624	-21713	-14986	-9080	2708	-5984	-17114	-3445	-2843	-19668	1964	-8620	-3565	-19714	-8512	-9720	5392	12760	569	1858	-419	-17300	2664	-3904	-3303	5685	-1602	-16172	2236	-1872	5256	9757	-4428	121	124	1
-1972	-5532	8304	1524	-24935	-16615	-9404	-3964	-11148	-11916	-9541	-4783	-18692	-3400	-9408	-3933	-16865	-9658	-9976	5660	12396	256	1749	-784	-16828	724	-4624	-8	4649	-1848	-15188	2596	-3268	6706	10630	-2573	114	122	1
-5020	44	6412	-14259	-23539	-19470	-6500	-3552	-10640	2559	-13672	-6495	-18224	-2300	-8736	1490	-16067	-9528	-9992	5120	12416	130	1295	-907	-15852	-32	-5080	6204	3611	-1847	-14896	768	-3608	9066	11856	-1837	109	122	1
-13628	-5888	4280	-22572	-25396	-22324	-6104	-1304	-9376	14291	-18000	-11343	-15916	1388	-8244	3955	-17252	-8482	-9844	4804	12564	189	978	-907	-16000	328	-4496	9226	3132	-1410	-15448	568	-4392	12885	13003	-2610	107	105	1
-16156	-9992	3760	-16259	-29409	-24394	-6812	1376	-12152	18868	-21340	-13503	-14340	1192	-7024	4200	-17471	-6767	-9892	4668	12728	353	1041	-746	-17480	1504	-3392	8656	2872	-912	-15804	3128	-3160	12497	12984	-3865	120	113	1
-14108	-4340	2708	-9030	-28898	-25327	-9136	6692	-10984	13293	-24965	-14332	-13372	244	-6288	3906	-16541	-5617	-9932	4936	12804	582	1269	-571	-17056	3536	-2884	4980	2804	-1447	-15188	5928	-2744	5764	13383	-4260	119	120	1
-13720	2240	3384	-10555	-23490	-28477	-13512	5304	-11792	5434	-26208	-10455	-11724	584	-6160	4031	-15111	-5900	-9848	5208	12364	346	1089	-751	-15896	2880	-2752	1895	2620	-1875	-14060	4672	-2324	-1523	15200	-3076	125	127	1
-19328	1224	3836	-13964	-18213	-31817	-9748	4524	-11080	-283	-28630	-12325	-11700	-76	-5760	5742	-14448	-5912	-9984	4912	12240	-66	580	-944	-15416	2696	-2316	205	3008	-2336	-14744	1648	-1672	-3404	14426	-2685	132	127	1
-22776	-3716	4576	-9169	-16545	-30165	-9224	2144	-12260	-3157	-29887	-14121	-10840	1484	-6088	6082	-13026	-5579	-9904	5012	12384	-420	287	-1142	-15684	1880	-1612	241	3699	-2508	-15712	2844	-2480	-1791	10988	-2835	134	115	1
-21628	-1664	5916	-4814	-18613	-26941	-10220	-828	-12000	1188	-29991	-15628	-9652	2780	-6248	2094	-11156	-5698	-9788	5044	12356	-758	-162	-1439	-15640	2104	-1556	585	4318	-2752	-16700	5756	-3128	-3671	9843	-2610	136	115	1
-20408	-1188	8172	-6706	-19764	-25760	-10436	-672	-11124	10769	-30663	-16487	-8644	3152	-7176	-1859	-7721	-5689	-9796	4996	12400	-957	-360	-1593	-16352	3124	-2260	-1140	4946	-2971	-16424	5292	-2788	-6116	9151	-3010	120	112	1
-24452	-6392	9668	-7489	-21701	-25744	-13184	-144	-13612	17063	-32581	-16656	-8472	3308	-6648	-4408	-3572	-5685	-9664	5020	12636	-694	41	-1870	-16876	1912	-3088	-3249	5387	-3445	-16596	2444	-3236	-4733	9910	-3234	100	118	1
-29892	-10620	8532	-2336	-24508	-27066	-14412	1084	-12160	17997	-32768	-16323	-6576	4220	-6196	-4506	1369	-5155	-9916	4828	12664	306	406	-2471	-17244	236	-2712	-1490	5564	-3482	-16080	-556	-2268	-1671	9880	-3427	98	122	1
-29044	4360	8484	768	-22747	-32191	-15588	2292	-14548	27395	-32768	-14977	-7428	3004	-1660	-4557	1710	-4422	-9656	4412	13168	1226	1186	-3029	-17516	1660	-1652	2669	5950	-3256	-17416	-528	-192	222	10202	-2153	107	122	1
-32768	17960	6120	-10081	-14530	-32768	-15408	268	-12132	26105	-32567	-14027	-8812	-3044	-1152	-1478	2166	-6134	-10000	4308	13232	-314	3537	-2831	-17928	1404	1744	6203	6921	-4279	-19032	500	2008	1558	8564	128	116	122	1
-32768	16556	4256	-6451	-14313	-30896	-19292	7180	-12608	6039	-23470	-1931	-16340	-6772	5656	4237	2121	-8737	-9524	4172	13776	-153	5350	-3018	-16444	4124	3172	4888	8743	-5824	-18904	2308	2984	3785	6407	-410	115	123	1
-32768	23528	1640	10207	-14373	-14802	-20332	-2100	-17484	-7115	-20277	-222	-20616	-12440	14416	5605	-2508	-14727	-9972	4164	14316	166	8594	-3088	-18292	2768	440	588	11016	-7768	-19536	4140	1060	6732	5216	-1600	100	123	1
-32768	23572	-18780	8191	-17861	4917	-10696	9468	-10144	-9405	-10204	969	-16004	-8612	9744	11554	20972	-14397	-10400	5844	14004	663	12993	-4040	-20104	1160	-1480	1543	12078	-8385	-20116	4000	-1372	7924	3687	-1984	97	123	1
-31912	32767	-20708	-15272	-10507	14389	-8496	9824	-10424	-10091	-7283	696	-17808	4812	15108	1987	15725	4963	-9468	5360	14888	-417	17582	-6414	-20732	-144	-1476	6814	12261	-7706	-19960	1196	-1792	6712	868	-1852	98	121	1
19708	-32768	15060	11700	-2468	-4450	-7456	3012	-10784	3124	17514	-2132	-13660	5660	9408	-116	9843	17371	-8732	4788	14124	-21	22728	-7648	-19212	-1392	-1768	7654	12860	-8900	-17968	1176	-684	7353	-625	-1794	121	118	1
11376	-31872	32767	12708	8072	6581	-32768	3984	27856	-14851	449	7750	-15616	5020	-3068	-7890	20163	14515	-10352	3476	14068	-231	29477	-8179	-22084	476	-740	5947	13606	-10186	-21548	5260	376	7380	-1478	-3505	142	123	1
1644	6900	-1560	16085	26298	13137	-21280	-14616	-952	13491	-1256	-2176	-26504	5892	-1360	-4569	15201	3298	-11344	5864	13784	1068	32767	-10097	-25532	-256	3344	4920	14150	-11031	-23504	5128	5660	6711	-7294	-4421	148	123	1
-32768	4636	23964	8803	6896	16268	-2424	1860	1148	19173	10030	-4335	-32768	-15536	4672	21551	1966	-2968	-13464	7316	14476	941	32767	-14768	-28244	4196	5704	12018	13383	-11495	-24844	7984	16552	4459	-21886	-3194	137	114	1
-14756	-11336	8736	18089	746	14433	-32768	-8520	-4912	24162	17382	2690	-32768	-3164	-712	31860	10454	-9427	-23984	10848	17164	-2462	32767	-20577	-28564	12248	9040	16758	14505	-12722	-21836	3808	10392	-30	-16724	-3721	111	111	1
-14396	-4716	13320	18442	2448	14046	-16928	9388	-12104	29452	10800	2877	-16952	10248	-2596	2140	30639	912	-32768	11320	18384	3919	32767	-23426	-24468	13224	-792	7332	17672	-12483	-22512	8920	3476	-1501	-17175	-564	132	110	1
-11852	-948	15236	4479	511	2020	-14564	15900	-4960	7000	10718	-178	-2912	10132	-7260	-23746	23951	9770	-32768	7580	25348	2119	32767	-29027	-24016	11212	-9944	-2345	17973	-14228	-21736	10768	-3352	-4960	-18845	2914	109	100	1
-9816	-4720	11948	526	2320	-932	-18896	652	-4236	-15195	7833	-2536	-6608	5932	-15684	-6127	14899	9554	-20348	14992	23388	8065	32386	-24382	-23904	-52	-9592	-7757	17961	-14825	-23888	9772	-10732	-7559	-19586	4964	109	94	1
-10900	-4516	10952	-860	1998	-800	-15144	-11576	-5740	-17596	4483	-2648	-16324	-1216	-13356	2043	5001	-6737	-32768	14824	7732	16955	22788	-24522	-20560	-3720	-9668	-6458	10213	-10001	-26180	1856	-8852	-15849	-24234	2930	135	113	1
-10812	-5308	10756	-694	781	-239	-12940	-10816	-1464	-5474	2735	301	-12080	-8996	144	-1138	11915	-4578	-25504	32128	22480	-253	-3726	63	-11900	-5484	-18960	-7227	6780	-11945	-22120	-2288	-6616	-18011	-26234	2067	144	120	1
-10088	-3688	11416	-549	48	-308	-15716	-2068	3008	-722	2779	1216	-16648	-10528	-1224	-8570	19553	-3040	-1044	21160	11916	-20682	-14511	1334	-11600	-2572	-6472	10832	-595	-6581	-21264	712	-4324	-10730	-22837	4960	158	157	1
-9308	-4080	11684	-483	6	-595	-16732	-740	7968	-8316	5732	327	-25484	-5280	-1312	-6560	9245	3780	-496	16656	11128	-21272	-15130	659	-11364	2776	-9380	12060	-6984	-1349	-19128	5888	-7108	-4968	-20573	5833	143	148	1
-9596	-5544	11436	-711	760	-233	-14484	-6680	9512	-10414	6509	1436	-17880	-7488	4724	-3391	5295	3425	-1792	6364	8908	1032	-15484	6667	-10428	3720	-10100	10345	-8085	-519	-22072	6560	-8340	-7174	-19156	7286	127	152	1
-10052	-6132	10752	-219	1175	836	-12448	-10968	5724	-693	8849	655	-16596	-2396	3260	-3873	5673	2260	-7916	18280	8252	1772	-18907	11341	-5896	1124	-11732	-14215	-15390	4691	-21576	4600	-8384	-11196	-18639	7479	128	177	1
-10728	-4768	10984	137	751	1324	-13724	-4936	852	3339	9699	1290	-13352	-232	-540	-5393	7989	330	-11724	20864	6448	-8288	-24681	14575	-7424	-2048	-12040	-16018	-19264	8219	-19712	3084	-9112	-15188	-19339	7198	128	186	1
-10448	-3964	11664	52	559	978	-14224	-3560	240	3083	9845	1394	-15760	-540	-6756	-8015	7799	-1460	-13288	15492	4964	-12859	-30381	18981	-7836	-3232	-12684	-13503	-22895	10736	-16404	-536	-7612	-14363	-19085	5652	128	175	1
-10140	-4516	11716	-401	963	900	-17152	-688	-1420	-8551	9041	1691	-15152	-1036	-7248	-7154	3423	-992	-12628	10460	3724	-9392	-32467	23818	-7784	-2600	-11172	-12593	-25950	11997	-12776	-2376	-6676	-11636	-16644	4805	129	170	1
-10480	-4528	11248	-895	1514	1140	-15752	-3556	-2796	-10024	8711	1832	-12964	-3864	-5176	-7673	5027	339	-13804	10404	3820	-5254	-31167	26977	-7816	-2884	-10024	-13308	-29133	14604	-10232	-3084	-7552	-7575	-11238	4869	127	162	1
-10428	-5004	11140	-1064	1800	1813	-15960	-4460	-2416	-6815	8126	2103	-12656	-768	-6508	-6234	7687	-169	-16376	11028	6196	-4964	-29651	28927	-7640	-3844	-10616	-14685	-32278	17353	-8672	-4484	-7992	-828	-6613	3313	130	151	1
-10960	-4652	10728	-927	1536	2213	-15272	-3548	-2440	-1926	8140	1831	-13944	24	-6460	-3951	6342	-67	-18764	10444	9672	-4805	-30366	29404	-8572	-4744	-11548	-14295	-32768	17975	-6972	-4828	-8176	4471	-3713	2986	135	150	1
-10420	-4032	11116	-254	1534	2378	-14576	-652	-2016	-1674	8573	1477	-13728	-2504	-4888	-4349	7032	1084	-21744	9596	13212	-2515	-32559	29042	-10948	-5508	-12356	-10451	-32768	19858	-5940	-3504	-9696	9338	-667	2610	131	161	1
-10924	-3452	11248	-595	1597	2016	-15496	-872	-3292	-3400	8706	1147	-14256	-896	-5564	-3841	8128	1844	-27116	10284	16264	-381	-32768	26854	-14420	-4720	-13328	-6300	-32768	21416	-5364	-2912	-9364	7852	3654	2249	121	130	1
-11400	-3924	11136	-1258	1897	1862	-16104	-1524	-2632	-5424	8798	1308	-14664	172	-5716	-2816	7484	1836	-32768	9944	18712	2681	-32768	25805	-17600	-4480	-13904	-2674	-32768	22529	-5592	-1844	-5644	3358	3514	2573	127	142	1
-10428	-3372	11448	-1823	2677	2242	-15452	-2260	-2876	-5195	9116	1211	-14628	-592	-4212	-4188	7454	1574	-32768	5072	14656	5922	-32768	24480	-21536	-4696	-11748	13	-32768	21394	-11328	4084	-2232	718	-1822	3998	125	187	1
-11040	-4648	10792	-2758	3422	2483	-15376	-2204	-3008	-5137	9190	1235	-16188	-1628	-1952	-5551	7914	1560	-32768	-4492	5224	10018	-32768	19655	-22108	-4844	-11320	490	-32768	21117	-18280	5780	3516	-3939	-2991	8525	130	145	1
-10348	-5184	12236	-789	5020	2516	-16724	-2872	144	-9664	10529	2182	-17188	-3808	-1248	-6322	7976	598	-32768	-9448	-3272	7445	-32768	13962	-21352	-7816	-14076	6270	-27842	16350	-23364	7828	19656	-9351	-3870	11732	129	179	1
-10912	-4888	12192	-588	7074	3206	-17312	-3480	848	-10241	11847	3408	-18396	-2000	-392	-7672	6451	414	-32768	-11196	-20572	2745	-28045	1519	-13464	-7376	-7332	8040	-15530	11619	-14232	6528	22820	-22	11030	13778	128	216	1
-11572	-5180	11908	210	9606	4414	-17012	-4172	592	-6582	13923	3768	-18772	-3124	-1292	-9147	4270	1856	-32768	-31588	-32216	11197	-20224	-9649	-2752	3020	-3844	12178	-1316	5840	-16300	1524	29396	8673	6807	-1334	135	178	1
-11544	-5644	12988	771	12357	6150	-17264	-3684	-580	-3044	15794	4103	-17956	-3060	-3336	-6707	2085	1831	-32768	-12452	-31784	7107	86	-11684	-7660	-164	-4232	1181	15446	-4758	-21084	2860	19044	2259	723	-8133	133	157	1
-12060	-4384	13924	1596	15764	8276	-18704	-1028	-4296	-1923	17242	4237	-17740	-1732	-4132	-6375	-329	2315	-9880	26700	32767	-18035	7553	-10941	-24372	2592	15864	15123	20357	-10294	-20072	3864	15636	619	1427	-7439	134	126	1
-10368	-3948	13748	2197	21447	9683	-20088	936	-4156	-4696	17762	5127	-19348	-2272	-3884	-5585	-2721	3669	14884	-1044	-8836	-7511	20881	-7181	-32768	18576	22784	699	1209	7528	-14528	-2992	-2944	8605	13630	-3315	134	103	1
-10980	-4932	14180	2616	29696	12655	-23180	-620	-1976	-6127	17639	5178	-22300	-2928	-12	-4562	-6520	4073	-24988	-2100	20424	-4821	32767	-5832	2484	-5796	3696	-25685	12781	-5185	-19208	292	11132	-17500	2948	3671	137	58	1
-12424	-5652	14932	1700	32767	17232	-26280	924	1280	-7550	17621	4924	-24888	876	10988	-5615	-16976	4569	-26648	-11996	23700	-1885	19770	-14075	-23200	-1656	-4140	-11830	14032	-10762	-24508	12056	7388	-19878	6040	5523	130	33	1
-13992	-11700	12392	4414	32767	21718	-28936	-16	12168	-18668	17310	5814	-22728	5508	7472	-8831	-14609	5561	-32768	32767	-204	-15219	4093	-13638	-32392	2996	-16348	-8464	15477	-5844	-22728	-11944	-3648	2126	8769	-10443	123	94	1
-27236	-12180	12296	6581	32767	30164	-23780	-3608	5172	-23186	18754	6055	-23552	1372	8188	-10275	-17348	4552	-18336	-11192	22788	-12646	2402	-11064	-13452	3116	-5076	-19508	18971	-4050	-12728	2408	-10052	7347	14550	203	130	76	1
-31996	-4460	13212	-2168	32767	28946	-23808	-10668	-5728	-14297	22162	4578	-23308	-9492	-36	-9685	-16576	458	-11560	6720	14996	-10453	-1029	-7731	-13616	-4288	-7708	-23488	16051	-5340	-9452	9972	-8400	-3135	10868	4151	137	128	1
-32768	-20872	13612	2398	32767	32767	-26200	-9592	-9832	-4571	20581	7671	-23096	-9704	-11004	-2123	-16400	-4566	-12688	3940	15304	-6918	-2172	-3469	-14484	-8308	-10780	138	9527	-6798	-14968	1912	-7452	-6805	8582	-930	144	102	1
-9004	-15436	16320	3991	29839	32767	-21364	-2084	-7908	2014	15613	3589	-27904	-116	-9316	7296	-19176	-6723	-9816	3972	14376	-4888	-1369	-2725	-20468	-2088	-6308	13654	8597	-1314	-17368	-4788	-5148	-1961	11605	-1275	138	70	1
3464	-1056	7372	-1149	32767	32767	-16176	-1252	-5876	6765	5971	3998	-25220	4472	-10740	7609	-20187	-5044	-8508	4316	14328	-3086	-610	-2197	-19876	2028	-3256	12904	5959	-1325	-18488	-1144	-2800	5276	12009	-1137	127	98	1
-21284	1716	4856	-1553	32767	32767	-10216	-1260	-22272	7618	-276	4598	-19388	3880	-8236	4529	-21444	-6092	-9136	3628	13972	-1676	-46	-1627	-16648	4416	-636	6466	6971	-2849	-14948	2096	-304	5654	10792	-1666	135	109	1
-22572	-17296	16184	-3521	1189	-1225	-9224	5768	-20632	-4697	-4388	1127	-21216	-196	-7092	449	-21332	-8041	-9112	4396	13656	-982	414	-1430	-14792	6500	-1264	-4024	6629	-2685	-16168	2568	-740	5444	10896	-3157	123	113	1
-14868	-11468	12884	-2518	-19376	-16278	-7980	3764	-13480	-14925	-9487	-3773	-19320	-1436	-8564	1775	-17939	-7027	-8768	5044	13460	-709	944	-1292	-16988	3960	-2884	-12408	6473	-2596	-15480	2616	-2796	4020	11704	-2113	106	112	1
-13908	-2668	8580	-11876	-28127	-24046	-9756	1608	-11592	-15602	-15329	-5646	-19440	-1364	-8748	5529	-17061	-5515	-9124	4512	13228	-586	1042	-1349	-17540	-1936	-4300	-8122	5021	-2042	-15120	1820	-3424	6409	11838	-1802	102	117	1
-18468	720	2868	-25594	-32768	-32768	-5472	-240	-11252	-12394	-18982	-7446	-15724	3288	-8140	6221	-16597	-4575	-9056	4316	13364	-413	982	-1565	-16380	-2904	-2928	6935	4108	-2099	-15576	2184	-3100	7803	11990	-2016	107	101	1
-18904	-3656	-3620	-30761	-32768	-32768	-1812	1632	-8864	-11435	-19557	-9501	-15832	600	-7484	5946	-19083	-4891	-9444	4252	13308	-275	747	-1268	-16404	1840	-3620	14404	3963	-1168	-15332	3556	-3036	7688	12230	-2267	121	113	1
-10376	-5276	-5196	-21232	-32768	-32768	-4988	-1096	-4648	-7110	-21264	-13657	-13264	656	-5368	6485	-18479	-2332	-9420	3920	13500	-132	679	-1129	-16616	6988	-1196	7285	4630	-1341	-14724	3528	-1408	3120	12401	-2492	123	119	1
-13028	-5184	-3268	-6153	-31914	-26068	-10032	-2048	-10428	10867	-23215	-16720	-11772	2608	-5404	4249	-15995	-2183	-9180	4164	13200	33	820	-918	-16032	5532	-992	-4576	5111	-2909	-15188	2720	324	-835	12902	-2456	129	121	1
-15612	1048	-404	-902	-24390	-29725	-11580	2104	-10656	19649	-24233	-16341	-10484	1532	-6024	1466	-14126	-3001	-9084	4160	13076	83	948	-954	-15752	704	-1664	-6841	5238	-2933	-15948	2056	-456	-725	11766	-943	134	120	1
-14120	-1004	2176	-2820	-18700	-32768	-10252	7800	-10132	15504	-26017	-12559	-8924	1404	-6984	-695	-11496	-4558	-9428	4304	13044	-103	949	-1105	-15980	-1088	-1272	870	5873	-2739	-16644	3280	-2748	1403	9824	-547	136	117	1
-16956	-4004	5160	-2268	-15677	-32768	-8404	4304	-12288	7844	-29589	-12486	-8496	3320	-7844	-5175	-9173	-4514	-9524	4396	13016	-226	686	-1392	-15840	1880	-2012	5479	6463	-2360	-17264	4972	-2824	-525	8140	-1192	140	117	1
-18972	-6168	7620	1338	-17497	-32768	-6232	268	-11904	8949	-32221	-13466	-8352	3548	-9204	-10806	-6260	-3854	-9272	4292	13272	-290	627	-1680	-16528	3912	-2600	2881	7154	-2864	-16004	4844	-2452	-116	8157	-1304	138	120	1
-21932	-7264	8840	5042	-21030	-31141	-9632	-508	-11728	14392	-32768	-14681	-6408	2328	-10440	-12974	-1974	-3824	-9392	4092	13348	-337	1160	-1770	-16768	1924	-3220	-1311	7317	-3343	-15520	1456	-2624	1546	9269	-1365	132	119	1
-26912	-8424	10212	7908	-24793	-30861	-13656	-1156	-12572	19712	-32768	-13672	-4980	1600	-8796	-9072	2000	-3073	-9148	2960	13396	169	1595	-1996	-16856	-652	-3440	562	7229	-3187	-15440	-988	-2892	3147	9464	-1804	126	120	1
-29788	-588	10712	6264	-25311	-32768	-16756	-672	-12668	26654	-32768	-10274	-5484	-2488	-5824	-96	5376	-3839	-8584	4804	13644	714	2449	-2754	-17264	344	-3696	5532	7558	-2802	-16676	-560	-2152	5023	9355	-1014	123	123	1
-30664	1444	11308	5310	-25007	-32768	-20808	3524	-12600	27697	-32768	-4223	-7428	-6648	-3584	8605	4960	-6552	-9132	2680	14544	-71	4393	-3571	-18480	3052	-2164	9611	7636	-2351	-16952	-100	-2000	5370	9413	-750	126	124	1
-32768	6592	3464	2551	-22099	-31511	-21164	4288	-11676	12278	-29610	196	-15816	-7292	1704	19541	3066	-7862	-9424	3348	13976	481	6457	-4323	-18464	848	128	11262	8452	-3952	-17064	4188	-28	7690	7078	510	123	125	1
-32768	14128	-88	14453	-17110	-21517	-23676	-1924	-14384	2508	-25145	2744	-27304	-13812	12760	21380	-4125	-14091	-10380	4168	14016	689	9659	-4553	-17164	3928	4	8217	9774	-5150	-18664	3904	1240	8276	6570	-1095	92	121	1
-32768	11248	-23664	15481	-18871	-2587	-11668	11836	-11660	4892	-14480	1582	-21308	900	13612	23708	17590	-9199	-10140	4292	14380	783	13188	-4938	-18832	2752	656	4301	11677	-6473	-19648	3188	792	9220	4378	-1757	41	123	1
-32768	32767	-23572	-13795	-13916	8997	1820	-1264	-5152	890	49	-3662	-18424	5448	21424	13318	9028	10935	-9144	3916	14616	444	17154	-5820	-19860	-236	-644	5607	12936	-7222	-19392	2712	-260	7945	2507	-1059	75	124	1
-32768	-2920	-27332	4022	3594	9772	-8836	3372	-3924	-1803	13540	-221	-13320	6520	12680	1834	13105	18591	-9724	3612	14088	469	17908	-5803	-19880	204	-1192	7110	13744	-8103	-19668	3148	1096	8291	369	-1844	123	122	1
-6864	-24764	32767	11286	11625	20187	-32768	3232	20184	-16709	3652	7645	-19436	8384	-1740	-6504	23976	13195	-10580	3948	14192	-907	28165	-7912	-22024	1696	-632	5805	14546	-9316	-21504	6116	1936	8894	-1443	-2696	141	122	1
-15316	-7760	-3992	7387	29082	8638	-26312	-10712	1192	5013	1316	-4292	-24752	9780	-1436	-11539	15202	8326	-12092	6480	14600	-1872	32767	-11415	-24900	268	3236	6226	15935	-9383	-23332	4532	5832	7723	-6053	-3392	124	124	1
-30732	-5540	26600	5890	21424	14101	-5780	2424	6872	9653	7752	-2051	-25680	-11240	1996	13689	894	2921	-12812	7004	15352	-1184	32767	-16072	-28052	1812	5208	12680	16301	-9298	-25844	4788	13828	8299	-17185	-2612	125	127	1
-32768	-11408	10848	9318	3947	16911	-32768	-4744	-1980	12521	14735	1433	-32768	1764	1020	18576	6577	-8587	-18880	6384	13088	2511	32767	-21606	-32540	3640	2920	21027	16034	-8608	-25008	-1292	11180	5207	-21341	-2482	120	116	1
-14484	3380	18512	10351	-986	9707	-32768	-2404	-8384	16176	14425	-784	-29404	12696	-1472	8675	27715	-4518	-32204	13380	18724	10461	32767	-23976	-26124	10820	-52	27189	16477	-7547	-23096	3196	1408	7688	-19074	-1399	134	120	1
-11080	-1760	13968	4806	-694	2973	-16712	11484	-4544	19038	14455	1158	-5312	9064	-4040	-9906	25083	-4029	-32768	13580	24416	14455	32767	-28175	-21244	11424	-8344	18712	16426	-9502	-22148	8500	-4752	6565	-18889	3379	110	111	1
-10144	-4116	12272	2411	1163	1160	-15052	5056	-2128	-1400	11483	-368	-2804	5312	-11488	-9677	12595	2768	-23036	8448	25428	20634	26135	-24371	-19528	1804	-10204	5249	18173	-11350	-22984	4956	-9040	3348	-19382	5366	112	105	1
-10060	-5316	11008	496	2231	771	-13208	-3292	-3108	-12680	8654	-2711	-10956	-7296	-13416	-4194	6884	888	-32768	15668	7068	23502	13010	-32001	-20012	-5744	-10432	386	12090	-4616	-24272	1336	-9828	-6012	-20170	5292	120	98	1
-10168	-6580	10296	-73	2241	853	-17248	-7724	-1696	-12213	6053	-1555	-19216	-10984	-5876	-5731	10175	-4135	-20544	29288	20184	4901	-17629	-11228	-10832	-7624	-13644	9677	8080	-6367	-21928	-3932	-6204	-10404	-22638	4423	148	80	1
-10352	-5420	10768	181	1145	1277	-16364	-4172	236	-12821	3714	840	-13152	-10048	-4080	-5470	10719	2176	2372	18200	9244	-11575	-22833	-13690	-12180	-2204	-6360	22948	57	690	-20976	-544	-4600	-2167	-21797	6380	147	123	1
-10204	-5396	10496	1015	-25	1427	-13908	-4192	3780	-7355	6894	-762	-16816	-2656	-2308	-2915	10337	2197	4344	148	7832	-910	-17783	-6027	-7980	2092	-6576	13887	-4519	5346	-17000	3764	-6008	1625	-18759	7876	127	148	1
-10160	-4340	11192	1074	-211	1644	-15696	-4832	4560	1016	7725	1599	-17944	-2096	524	-1454	7428	5475	744	7020	6508	15539	-13484	4850	-5000	-2488	-6816	166	-7392	7010	-18796	3552	-5376	-2682	-17631	7000	122	175	1
-10200	-5052	11124	652	-134	1543	-14732	-3132	3980	6225	9190	1110	-16688	-472	2484	-1662	8720	4437	-6268	14744	6996	17556	-12106	12140	-7020	-4184	-4676	-3341	-10824	10393	-17020	788	-6736	-8754	-18084	5955	121	169	1
-10544	-5244	10820	577	-42	1393	-15644	-2284	2404	4400	9926	1085	-16184	3600	624	-441	8774	683	-9480	15768	8940	11897	-14662	19375	-8052	-5604	-8308	-5935	-13990	14495	-16764	-1884	-5860	-10544	-17415	5837	117	157	1
-9752	-4952	11152	560	-160	1740	-15156	-900	1180	832	10288	883	-14380	2464	-2004	663	7627	-209	-9836	11436	9756	7076	-16931	25149	-9612	-6044	-7160	-3211	-16689	18140	-17332	-1956	-5776	-9722	-17296	5134	120	154	1
-10432	-4660	11264	518	33	1763	-15008	-1468	-1244	-3260	10100	973	-14784	-3620	-5224	-2123	7167	140	-12272	5932	11568	7853	-19082	29304	-9192	-5896	-7780	-3332	-19095	20789	-14592	-2252	-5856	-9232	-15950	4151	124	146	1
-10596	-4404	11512	371	299	1816	-16400	-3024	-2380	-4002	9783	1226	-14164	-4916	-7212	-3195	7836	857	-14796	4148	12696	9897	-21702	30997	-8920	-5808	-7916	-3899	-19684	20989	-10844	-2748	-6076	-6934	-13719	3719	132	141	1
-11628	-4304	11120	219	666	1790	-17076	-3852	-3332	-752	9283	1538	-13976	-2820	-7244	-1895	7848	1732	-17688	5588	13800	8376	-24439	30619	-9272	-4676	-6616	-13265	-24268	24911	-8236	-3164	-5848	-3670	-9485	2537	120	140	1
-10688	-4816	11184	186	847	1811	-15364	-1832	-3180	323	8972	1809	-13432	-792	-6364	-803	8164	2711	-20028	5596	16252	5353	-27831	31252	-10720	-6980	-9036	-14907	-28047	25451	-8592	-4836	-6668	1988	-5214	2058	119	151	1
-10216	-4364	11172	-2	869	2005	-15692	-908	-3060	-864	8795	1737	-13408	488	-5528	-25	8558	2275	-21212	4576	17560	5438	-31307	32767	-12068	-7576	-8548	-12210	-30627	25712	-7876	-5468	-7592	10680	-1248	2038	125	150	1
-10124	-4036	11276	136	1358	2190	-15400	-996	-2656	-2085	8579	1545	-14132	1180	-5276	-302	8763	2293	-23792	5544	19712	5818	-32768	32767	-14352	-6188	-8884	-10067	-32768	26151	-5276	-3716	-8312	15101	2297	3022	129	164	1
-10104	-3408	11476	-146	1789	1939	-15604	-1284	-2472	-2089	9061	1798	-14836	-1432	-5276	-980	8818	2608	-31596	9192	21776	3726	-32768	32767	-17396	-4392	-11268	-11695	-32768	26190	-4692	-2892	-7448	15768	5785	3411	129	181	1
-11112	-3876	11696	-577	2451	1890	-15764	-1436	-2456	-2141	9253	2131	-15408	-924	-4492	-1070	8706	2894	-32768	5580	19916	-504	-32768	32767	-22660	-2748	-9616	-12427	-32768	24053	-5588	2836	-4444	10844	6256	5294	127	191	1
-10380	-3580	11572	-1217	3113	1909	-16200	-1100	-1500	-3448	9778	2294	-16348	-420	-2892	-620	8133	2931	-32768	-4692	12468	1058	-32768	30821	-24920	-1652	-7056	-12451	-32768	19524	-11564	10224	508	1352	1732	10536	132	168	1
-8676	-5452	12812	147	4420	2376	-15892	-2184	536	-4733	10547	2821	-16252	196	-956	-2496	7641	2119	-32768	-6444	4896	1640	-29336	25445	-23992	-14140	-10444	-15008	-29397	14900	-27544	15184	15124	-19087	-2229	16253	135	161	1
-10768	-4316	12152	605	6168	2862	-16808	-1180	548	-4107	12303	3443	-16952	672	-1112	-4156	6968	1259	-32768	-18864	-11768	1718	-22063	13727	-15936	-11456	-6344	-1289	-18630	12282	-22396	6072	23316	-19250	3235	10605	130	253	1
-11116	-4644	12276	1459	8219	3544	-16584	-2676	-1508	-2154	14145	4089	-17776	-804	-2556	-6024	5333	1525	-32768	-32768	-24816	14318	-15057	-2984	-2024	-3560	-5456	12607	-4565	7556	-19260	-720	32468	-6525	4432	-1239	128	253	1
-11076	-4744	12868	2086	10602	4962	-17284	-1824	-2928	-1343	15410	4484	-17488	-1952	-5048	-6538	3093	1443	-32768	-16344	-26728	4109	-1901	-11676	-5668	2496	-3224	10215	11787	-4640	-15384	-2452	25440	1351	802	-10986	131	176	1
-11492	-5756	13396	2942	13419	7051	-19104	-1012	-4460	-3117	16070	4589	-17728	-2208	-6228	-6451	727	2263	-5856	15472	32300	-14597	8188	-15058	-19428	3996	10256	16716	20103	-10243	-18996	1972	-272	4634	7292	-7265	136	110	1
-10888	-5184	14012	3181	18067	9566	-20012	-912	-5368	-5618	16013	4961	-19312	-3312	-5232	-5485	-889	3894	16508	17904	-10596	-9773	17136	-15581	-32768	21284	22216	3257	2927	6887	-18028	-4324	-296	14463	11254	-8338	133	105	1
-11356	-6340	13848	4180	26454	13071	-23440	-1408	-2972	-5600	16108	5837	-22592	-3232	-1924	-3470	-4306	3776	-27788	1748	15236	-7139	32767	-4581	544	-3000	2848	-18950	11843	-2712	-17984	-3056	8384	-4655	3551	4036	142	85	1
-10532	-6412	15024	3817	32767	19609	-26436	628	712	-6134	15757	5621	-25256	-864	8232	-4523	-13635	4132	-29428	-18316	28548	-7517	19446	-16244	-26500	-292	-6064	-10957	14560	-12013	-25496	11204	7520	-14365	4986	11088	132	45	1
-13956	-6848	13544	3519	32767	24754	-28672	1332	8172	-14065	16211	6614	-25352	1788	9092	-5376	-16891	4528	-28976	-17176	26376	-6083	17522	-16634	-30664	-2076	-11372	-15140	15021	-5368	-26032	-11976	-8276	7581	11679	-4854	129	104	1
-21840	-14404	9572	8876	32767	32767	-25976	-3200	7696	-22519	16900	7053	-24552	2836	7584	-5622	-16633	5555	-14960	-18324	26288	-11568	4344	-10972	-14180	-3964	-7396	-12598	16447	-2936	-10876	1164	-7720	15421	12544	-3541	138	66	1
-30564	-3836	13920	4721	32767	32767	-22336	-13444	-420	-20398	19151	6099	-21900	-7176	2320	-7849	-15756	2112	-9436	11216	13656	-7746	1574	-5995	-15120	-1212	-6952	-13937	16612	-5832	-10696	9956	-11952	-1881	10949	988	139	135	1
-32768	-20000	13192	6159	32767	32767	-23960	-8912	-9292	-6858	20575	8223	-21776	-9448	-8508	-977	-16686	-3902	-10144	6512	13168	-5527	303	-3380	-15648	-2976	-11428	6142	9152	-6054	-14300	6344	-9720	-4725	9622	-3313	142	98	1
-16744	-12788	14988	5983	24678	32767	-21840	-1468	-7704	1249	17567	4296	-24704	-680	-8164	6624	-17811	-5572	-10256	3544	14548	-4313	-14	-2440	-17168	2648	-7476	14517	6976	-649	-14780	-2184	-6772	-2281	11538	-2074	136	75	1
16468	-9900	7560	7156	32767	32767	-17400	-1876	-7256	5054	9130	3167	-25364	4328	-9016	9544	-18567	-5324	-9368	3556	14728	-2462	418	-1962	-18516	2400	-2736	9097	4686	-2147	-18316	-3348	-3960	2663	15327	10	128	82	1
-22192	-7228	13572	-4548	31314	22496	-13972	1660	-14948	6752	2919	6542	-19844	3536	-8528	5768	-19224	-6397	-9308	3264	14536	-2114	559	-1832	-18136	1920	-2016	7999	4589	-2487	-16436	-1184	-2768	7872	14949	-2772	126	95	1
-25228	-7184	12444	-5720	29636	18303	-9236	5688	-22604	-4660	-2792	4405	-19764	128	-4580	4868	-21582	-7988	-9172	4324	13376	387	1461	-464	-16716	3116	-1608	-2900	4681	-1657	-14520	2896	-2572	8028	16305	-4895	132	105	1
-22712	-14164	10152	-8215	-6868	-19355	-7808	6440	-14456	-17249	-5769	-4146	-18568	-792	-5524	5356	-19020	-7954	-8960	4920	13108	613	1746	-375	-16696	4672	-1720	-7918	4157	-1635	-14916	4740	-932	2918	18103	-4467	111	100	1
-20036	-5012	3260	-7584	-23295	-29091	-10388	-1940	-11012	-24882	-7317	-6224	-17420	1600	-6536	2044	-17442	-7109	-9032	5028	13128	742	1911	-391	-16764	1148	-2724	-4747	3487	-2111	-14356	2492	-840	-633	17978	-1430	107	100	1
-22756	-6028	-1776	-6589	-32768	-30853	-7904	-7584	-11952	-8149	-7456	-6044	-20888	-1108	-4828	2704	-18527	-7550	-9244	5084	12684	356	1718	-908	-15452	-360	-1180	7660	2892	-1653	-15012	2236	-1640	4126	14357	-321	104	104	1
-13468	-1884	-5040	-6351	-32768	-23756	-7184	-3952	-8516	8244	-10200	-9945	-20288	-1912	-5748	6051	-20356	-9024	-9328	4988	13064	390	1488	-1094	-15544	4560	1256	13416	4377	-1589	-18060	6140	-1984	7100	9899	-1236	104	108	1
-3952	1240	-6076	-3748	-31452	-14203	-10812	-532	-8912	17419	-13132	-12001	-17596	-3060	-6168	8149	-21165	-8499	-9700	5020	12952	363	1097	-1237	-15996	8948	1060	7019	5212	-2118	-19408	8668	-2004	1653	7337	-2887	103	101	1
-8340	-1640	-2504	-2498	-21371	-14724	-9520	1508	-13312	27983	-17106	-11516	-14108	-1192	-7812	8633	-19254	-5895	-9680	4876	13048	112	1030	-1332	-15844	6372	-200	-2843	6060	-3766	-17364	6548	-1560	-3010	6744	-1801	114	109	1
-13008	-4216	456	368	-17205	-22600	-5484	6412	-15984	24259	-20147	-12021	-12208	1476	-7828	6414	-17075	-4351	-9640	4944	12816	-176	978	-1394	-16468	2088	-1436	-3578	7132	-4218	-15616	2288	-1052	-1421	7091	-1063	124	118	1
-15244	-5204	2476	3457	-18241	-31458	-5828	6020	-11680	12666	-23056	-8635	-11568	1408	-7996	2766	-13872	-5691	-9696	4916	12660	-567	561	-1732	-15660	1184	-1632	2065	7089	-3984	-14780	876	-1152	1364	7163	-1178	137	128	1
-15128	-5364	2672	4163	-18500	-32612	-6056	1480	-11360	7557	-25603	-8788	-9364	1828	-8452	30	-11142	-6602	-9304	4912	12824	-691	140	-2022	-15812	2220	-1912	3606	7469	-4008	-14664	1148	-2300	1724	8237	-764	136	117	1
-13872	-3096	4064	8562	-19149	-32768	-6196	-2800	-10428	13505	-28918	-8092	-7568	1948	-9036	-4036	-7640	-7830	-9488	4160	12752	-1096	234	-2249	-15692	2104	-1936	1366	8167	-3878	-14448	-360	-3388	2724	7821	-805	135	119	1
-16236	-3816	5984	8648	-20077	-32768	-6440	-2688	-11940	25203	-31534	-9514	-6192	2888	-9340	-5840	-4440	-9223	-9360	3964	13060	-430	550	-2060	-15360	428	-3088	677	8525	-4065	-14816	-60	-3760	3585	7168	-788	132	119	1
-18620	-3288	9088	7628	-22084	-32768	-8196	1556	-12700	32155	-32768	-9548	-7160	4680	-9364	-6129	-2739	-8516	-9232	4304	13240	536	908	-2370	-16812	-352	-3600	3148	8486	-4107	-14868	732	-4648	5470	7382	-554	123	121	1
-22948	-848	12536	2455	-24617	-32069	-11372	3664	-14828	30852	-32768	-8206	-6796	4644	-8232	-5879	218	-6706	-9088	4696	13488	829	1718	-3232	-17428	1392	-5292	5006	8381	-3431	-15308	1440	-5836	7090	8278	-954	107	120	1
-32132	-1352	13832	-2040	-28635	-31238	-16156	5592	-14536	19131	-32768	-5045	-6288	2024	-4976	-3654	3600	-4903	-9700	4016	13764	40	4244	-3007	-19424	-332	-5004	5609	7858	-3795	-17536	3644	-6552	5948	8988	-961	103	121	1
-32768	6200	11760	-4142	-32291	-29369	-19216	4756	-13864	6679	-32768	-2967	-6400	-1776	-1828	5173	7115	-4999	-9572	4120	13844	185	6655	-3278	-18668	1828	-2756	4667	7522	-4060	-17820	3376	-3676	4377	7538	-1515	110	119	1
-32768	15536	5584	-10232	-31814	-27055	-20760	4368	-14244	1046	-32768	-2226	-12884	-3192	-508	16969	8335	-4387	-10964	4000	12804	157	9216	-3400	-17216	3044	-1484	2784	8374	-5070	-16924	3268	208	4020	6327	-1473	129	124	1
-32768	18108	644	-10610	-28199	-20766	-23340	1176	-10396	-11710	-30285	-1360	-23292	-7372	16420	17980	875	-1284	-10164	4420	13512	431	11909	-3849	-17504	1984	-96	3963	9615	-6165	-17488	2304	1808	6306	5531	-806	124	129	1
-32768	24104	-11572	-6503	-21912	-8787	-19368	1900	-2584	-20918	-21164	-777	-22028	-7724	14808	6915	5603	-6340	-10040	4304	13996	0	14971	-4989	-18960	2388	-596	6745	10712	-6966	-19620	3716	516	8044	5195	-1154	88	130	1
-32768	26192	-27344	-8756	-20159	11735	-6252	2024	-7648	-13032	-5879	-651	-22088	1668	18136	4107	15021	-443	-9728	4728	13440	-206	18982	-6305	-19592	1180	-300	6541	12117	-7726	-19504	3424	-24	9575	2766	-1910	73	126	1
-32768	31104	-27640	-10794	-18606	13866	-3420	-6444	-228	-2419	9172	-1293	-18560	1372	18248	495	10954	10708	-10468	3264	13292	-821	24200	-7579	-19708	524	-452	6219	13140	-8463	-18896	2272	276	7479	790	-2310	94	126	1
-23860	-22404	32767	16467	9121	20375	-28176	1920	20636	-1856	9525	5143	-17368	3060	3156	-5004	19601	12284	-11884	3600	13488	-320	29791	-8266	-21100	1148	-552	5885	13788	-9856	-20664	3976	2036	8480	-972	-2568	130	124	1
-16852	-1792	-2436	12541	28846	10426	-32768	-10764	4492	21633	2450	-1581	-26584	8372	4148	-3137	18451	7979	-13260	6568	13192	-479	32767	-10287	-24004	-116	2204	6986	14586	-10271	-22304	4668	4580	8711	-4984	-3476	145	118	1
-32768	248	26004	7936	15874	18597	-10480	4920	4288	20964	7812	-1749	-25668	-4792	2548	11913	9832	2902	-12824	6660	13012	-558	32767	-10917	-26264	3324	5076	12966	14600	-10384	-23196	6780	10700	7916	-14235	-3667	151	133	1
-29496	-13724	3516	16427	2974	14403	-31760	-2592	-5904	15137	15940	-2673	-32768	-728	-24	20157	13533	-6894	-25012	6548	17324	1342	32767	-18111	-28680	8888	4504	16738	15647	-10784	-23148	6264	9732	3666	-19227	-3030	137	113	1
-16016	18808	22632	8594	-119	8269	-22872	2024	-11332	23006	14979	976	-23268	13776	-3360	5390	30161	-6332	-31736	13988	18392	8033	32767	-20471	-26776	11336	260	14729	17697	-11216	-22088	5644	2576	327	-15296	-1471	134	108	1
-14280	-1848	14532	2512	-412	1577	-17108	13472	-4848	7563	11885	496	-2984	7168	-11680	-18216	21063	53	-32768	10172	25952	6483	32767	-26838	-21444	10920	-8804	4478	17937	-12126	-23080	9136	-3492	-1286	-16911	2611	104	108	1
-11328	-5284	11660	-750	2077	-1572	-17932	2540	-1664	-14124	9418	-2416	-2540	-2908	-19140	-11304	9727	5967	-16028	9532	24148	16029	27132	-18858	-23448	792	-9220	-6443	18373	-14141	-25196	7236	-9588	-4026	-17786	4995	113	109	1
-9924	-5700	10420	-1124	2307	-805	-11492	-10988	-2420	-19888	6878	-2100	-16120	-14368	-5668	-3197	2426	-3312	-32768	8408	20484	13431	19746	-23554	-20972	-9340	-13184	-6658	11957	-7871	-25100	496	-10396	-12146	-20661	4867	132	103	1
-10536	-6664	9664	-70	782	658	-12064	-17752	2580	-3743	5589	1079	-15252	-10464	2440	908	11937	-80	-21072	29504	23260	-3497	-8559	-5483	-12808	-5972	-13524	3197	7792	-10030	-23612	-2244	-9224	-12773	-21781	4318	137	86	1
-10068	-5120	11076	889	-179	1930	-15116	-4768	5780	10355	6422	195	-17592	-4516	1024	-2689	13628	-10	-14508	29092	21132	-6950	-11509	-5333	-12908	-3268	-5572	18240	-575	-3982	-19788	-476	-4760	-6965	-24544	4710	147	127	1
-10324	-4372	11428	1235	-621	2163	-17176	3244	6240	2934	9234	1521	-19928	-4332	1216	-5728	7410	3257	1312	1296	10872	-3525	-15178	-3142	-9856	1584	-8332	14365	-6272	754	-18688	2704	-6248	-944	-19725	7167	149	149	1
-10320	-4124	11364	824	-275	1750	-14712	480	4288	-9955	10275	1307	-17780	-5164	1792	-6144	7655	3939	-1328	10164	9944	8205	-14992	5216	-7728	1192	-9300	1590	-8870	3486	-19752	4428	-8072	-3291	-18175	7133	134	146	1
-10188	-4520	11120	662	-79	2114	-14848	-6924	2820	-9405	10132	857	-15124	-424	300	-6588	9445	2564	-6544	19460	9732	4589	-17842	11597	-6500	-2628	-9796	-6236	-13796	6197	-19592	3644	-8360	-7618	-18721	6642	118	158	1
-10660	-4412	11112	797	-121	2516	-14316	-6524	668	-1593	10459	981	-13324	3028	-3840	-1917	6018	686	-7220	19992	9788	3075	-18563	12495	-7672	-2564	-9240	-7551	-18026	9765	-18668	3116	-8264	-13105	-18635	7369	127	159	1
-10556	-3188	11420	1204	-542	2249	-14960	-2036	-2632	2718	11251	1467	-13164	40	-4908	-4196	5712	-1786	-11108	13856	8936	-7374	-28335	23946	-7868	-2304	-9416	-9496	-21496	12559	-16024	956	-8760	-16800	-18263	5620	127	172	1
-9712	-3216	11676	848	-258	1995	-16972	1344	-3528	-876	10918	1431	-14068	-1260	-7580	-5232	7294	-331	-11112	9160	8056	-5318	-30503	28594	-7528	-2536	-8788	-14565	-24419	15193	-11768	-1932	-7808	-15944	-16192	3887	137	164	1
-10364	-3736	11652	200	789	1667	-17104	-284	-4328	-5926	9538	1255	-14240	-2816	-8804	-4607	6234	1087	-12980	7012	8680	-1944	-30224	30383	-8540	-2692	-9448	-19767	-27928	17268	-9816	-3276	-7564	-11551	-11679	2507	145	133	1
-10524	-4044	11296	-42	1520	1801	-15816	-3028	-4764	-6890	8475	1166	-13080	-3616	-7960	-3849	7391	2316	-17712	7732	11116	-597	-30025	30685	-9884	-4024	-10732	-23934	-31097	17816	-9080	-3512	-7608	-4307	-7628	1928	136	133	1
-10556	-3196	11104	-38	1389	2020	-15452	-4036	-4764	-3626	7551	1138	-12428	-1560	-7972	-2120	8626	2838	-21432	8704	13236	-1665	-32097	29489	-12472	-6636	-12412	-22089	-32768	16679	-9484	-3968	-8020	2167	-4891	2193	125	131	1
-10676	-3140	11108	28	1060	1807	-15412	-3692	-4640	-3001	7606	1158	-13212	668	-6352	-888	7924	2546	-23960	8428	14632	-1150	-32768	28296	-14716	-7324	-12112	-12722	-32768	16828	-8456	-2956	-7920	5896	-2011	3374	122	133	1
-10868	-2856	11516	-176	1397	1473	-15264	-376	-3336	-1761	7621	1214	-14732	904	-4332	-2436	8423	2806	-29584	12460	15816	-1772	-32768	28714	-16348	-7000	-12848	-3028	-32768	18419	-7796	-3296	-7140	6690	859	4066	124	128	1
-10580	-3432	11556	-854	1867	1539	-16312	-696	-2324	-4524	7895	1131	-16084	868	-4072	-2683	8952	2149	-32768	11976	15408	-3099	-32768	29820	-18124	-4016	-12528	2462	-32768	19835	-6296	-1860	-3448	3169	1478	3951	123	133	1
-10244	-3428	11496	-928	2843	2167	-16656	-2012	-1620	-5095	8217	929	-16400	-360	-3808	-2966	8339	1798	-32768	5892	12648	397	-32768	27073	-18180	-584	-11156	899	-32768	21383	-9060	2952	-1072	-110	-1843	4695	123	143	1
-10804	-3460	12012	-1205	3599	2685	-15972	-1996	-1912	-5506	9031	1070	-16456	-1652	-2412	-4207	7993	1837	-32768	296	7008	7721	-32768	20088	-20208	-296	-9476	-3863	-32768	20866	-15504	4860	2920	-4171	-7731	6155	119	141	1
-11172	-3316	11688	-577	5276	2010	-16568	-108	-1424	-7215	10098	2166	-15824	-1396	-1792	-5873	7800	1381	-32768	-4244	224	10028	-32648	15072	-21892	-6144	-11732	-5578	-26753	16971	-23072	3972	16248	-8016	-8934	8151	119	207	1
-11100	-3012	12120	-355	6894	1991	-16104	-2996	-736	-7585	11251	2865	-16324	-308	-1804	-6293	7270	1376	-32768	-11552	-12132	7013	-23434	10026	-16944	-8388	-9244	3372	-16999	12517	-17232	6852	20256	-1572	2131	10323	131	253	1
-11732	-3376	11896	-345	8881	2067	-16892	-2628	-1264	-6317	12860	3581	-17716	-3520	-2748	-7205	5521	1958	-32768	-20324	-24468	4257	-17126	-1433	-5168	-4852	-8128	16970	-6353	7788	-13840	3800	21836	5864	6998	4674	135	215	1
-11412	-4444	12984	123	11187	3286	-16996	-2596	-1548	-6100	13140	3810	-17860	-3976	-3776	-7475	3820	2605	-32768	-22268	-26880	8393	-5514	-10514	-5176	3968	-4276	12060	8546	-573	-14552	3108	18656	8218	223	-4976	127	159	1
-11820	-5260	12532	829	14195	5617	-18752	-864	-2188	-5221	15066	4342	-17996	-1120	-3476	-6638	2507	2666	22572	9180	6564	-23345	17352	-24205	-15400	1808	-2504	8222	20426	-8629	-19020	5072	8840	5115	2560	-5456	130	128	1
-11060	-5328	13256	2069	18208	8818	-18736	-1376	-3704	-7055	15414	4304	-19172	-1164	-2224	-6534	1004	4146	12304	25524	16940	-7757	18646	-7831	-32768	12260	22696	12905	9116	-4231	-15036	3512	-3812	11451	12358	-4983	129	106	1
-11456	-5136	13944	3456	24909	11763	-21144	-2332	-1452	-7032	16386	5082	-22352	-4740	-1240	-5719	-1964	3284	-17972	-6144	12024	-6099	32767	-13404	-12060	-2348	-208	-16713	9868	792	-17660	-10208	8248	-8239	4724	-332	127	92	1
-11748	-6532	14252	3255	32084	16455	-25612	424	1180	-6206	17314	5252	-24028	-792	3932	-5569	-7378	3994	-29328	-5956	24388	-3014	22176	-14046	-22660	-7560	-3264	-14244	16708	-11988	-31432	13332	14500	-16871	6340	7810	127	52	1
-13240	-6156	14652	2556	32767	21915	-27744	2204	4376	-11317	17229	5036	-27472	-244	13764	-5793	-20127	4204	-32768	26608	5108	-11099	7120	-10688	-32768	-2140	-15440	-9011	19985	-8559	-22176	-10468	-4812	3131	6070	-4031	124	112	1
-22464	-12524	10624	5220	32767	27859	-30580	328	11980	-24720	17042	5273	-22424	5980	8108	-10093	-18686	5636	-17084	-10424	21380	-6772	5218	-7207	-15664	-5620	-11128	-6946	15811	-2374	-11220	-6128	-12068	14741	11915	-1231	131	79	1
-27532	1284	12548	1249	32767	30705	-21264	-11112	-496	-23915	20439	4797	-23352	-3708	2944	-10380	-17115	3199	-10576	7004	14408	-5286	3172	-5814	-14024	-1184	-9288	-5953	16527	-3998	-7320	8840	-10012	10404	9749	1740	131	151	1
-32768	-15336	12616	873	32767	32767	-22792	-13812	-6208	-14300	21060	6959	-21596	-7384	-7400	-4923	-17640	-2038	-10552	8476	11876	-3224	1894	-3100	-12488	-2364	-9912	9646	9301	-3481	-14088	11268	-10268	682	9621	1141	137	124	1
-21788	-13332	17500	2593	27636	32767	-21884	-3212	-7756	-351	18424	4301	-23452	-1724	-8928	3328	-18918	-5397	-9704	4428	14088	-1755	1701	-2083	-19808	4216	-8128	12474	8626	-2422	-16860	2060	-7460	-1262	10802	184	141	96	1
10204	-18932	12900	3371	30677	32767	-16304	-1836	-11808	6228	12666	3093	-23692	1752	-8848	7386	-18393	-6576	-9612	5280	13388	-863	1579	-1488	-18576	2988	-4052	7810	5485	-2290	-19384	-2736	-4172	3518	11817	-2743	136	103	1
-32768	-18320	20320	-4035	8203	4643	-12296	144	-28720	10339	9174	4222	-19680	2644	-8324	7098	-18921	-7114	-10032	4124	13652	341	1836	-877	-15932	1220	-2304	-264	6467	-2458	-16212	452	-1472	4702	11476	-3737	137	108	1
-15180	-23008	14588	3839	-16716	-13772	-9760	6504	-10684	-6853	3648	1889	-21732	840	-7316	2762	-20474	-6707	-10220	4596	13240	1405	2105	-130	-17468	1248	-3964	-3329	5991	-1632	-15284	3388	-2228	5749	12615	-4843	130	127	1
-1968	-10636	9252	10047	-22011	-12077	-9688	-3836	-6516	-13618	-5178	-33	-19344	-2204	-9172	-1076	-17711	-7630	-10056	5932	12188	1382	1959	148	-15984	1544	-4908	-2032	5248	-1594	-14960	3108	-3340	4073	13389	-4597	124	123	1
-3072	-3180	7044	3109	-19905	-12155	-7776	-8688	-9488	2665	-11211	-2452	-19624	-1568	-10128	1216	-16643	-7489	-9368	6388	12168	572	1579	-372	-16584	496	-5196	4017	3808	-934	-15308	2488	-3656	4010	15578	-2286	115	126	1
-12172	-8860	8544	-4037	-25321	-20044	-4608	-5760	-16916	26001	-12454	-4247	-17644	-2328	-9968	4912	-17151	-7526	-9408	5824	12300	-210	1157	-1132	-16360	1476	-4108	8832	3023	-524	-14172	1440	-3360	8289	17357	-1059	112	121	1
-14448	-11792	6532	466	-32768	-25864	-6968	4348	-9076	23892	-20491	-6427	-16548	-3180	-9720	5894	-16877	-7981	-9808	5168	12684	-152	1014	-1174	-16432	3788	-2196	5607	3254	-585	-15652	1984	-1040	10025	17540	-1668	111	131	1
-11044	-4412	2376	1505	-32768	-26622	-10028	-828	-10020	19943	-23621	-3697	-15344	-4784	-8516	11529	-17107	-8977	-9968	5216	12632	380	1358	-916	-17056	3964	-1716	814	3521	-1402	-16292	5640	-1084	5227	15293	-3106	111	109	1
-13632	-4132	692	-2146	-30641	-25304	-10508	-3088	-13460	19373	-26937	-2879	-13956	-596	-7648	13919	-15847	-7134	-9824	5684	12512	496	1630	-803	-15908	2628	-1628	-220	3676	-1789	-15580	6348	-2496	-1011	12654	-2182	121	103	1
-19216	-5532	1512	-2725	-27120	-25615	-9052	-1116	-14288	18550	-29996	-844	-12644	2200	-7912	13479	-14741	-5026	-10028	5660	12008	219	1395	-991	-15436	3452	-2232	1226	4185	-1963	-16116	4444	-3508	-1101	10585	-1212	128	114	1
-21824	-7692	1244	94	-27140	-25353	-7932	2056	-13852	9466	-31755	-3984	-11012	3952	-7604	10291	-14547	-5434	-9852	6016	11888	-325	916	-1385	-15632	3456	-2560	762	4633	-2240	-16336	4520	-4188	-1822	9358	-1927	139	121	1
-20136	-6196	2052	1211	-26093	-24945	-10120	-416	-13212	1471	-32768	-4469	-9224	3688	-6700	2652	-11838	-6995	-10108	5516	12056	-784	783	-1565	-15944	2264	-3192	-404	4880	-2330	-15348	6084	-4348	-2615	9492	-2591	136	110	1
-21156	-6704	4040	-960	-24297	-24594	-9936	-2976	-13952	652	-32768	-6381	-8660	3384	-6280	-4005	-8177	-7821	-10136	5200	12312	-810	556	-1495	-16316	1820	-3152	-1553	5107	-2594	-15100	3636	-4180	-3838	9771	-2971	127	106	1
-23640	-6820	6880	-4464	-23964	-24024	-10868	-2888	-14088	5285	-32768	-8810	-8984	4084	-7124	-6215	-4726	-7175	-10024	5268	12340	-635	594	-1559	-16128	2448	-2228	-2767	5371	-2939	-15608	-516	-2800	-3924	9389	-2289	119	115	1
-26104	-6236	8940	-7847	-25890	-22429	-11828	-2376	-14196	9575	-32768	-11068	-7412	4128	-5644	-6923	-573	-6196	-9888	4532	12832	95	1010	-1698	-16600	728	-2260	-2728	5962	-2851	-16340	-2280	-1304	-2456	9169	-1160	109	121	1
-29680	-872	9416	-11550	-26739	-19692	-14280	-244	-13244	10154	-32768	-12253	-6752	1808	-3028	-6087	2363	-6224	-9904	4836	12792	1241	1812	-1807	-17264	752	-1752	967	6682	-2669	-17704	-292	-452	1329	8842	-506	109	125	1
-32768	7692	7892	-17404	-25503	-18125	-18100	1592	-12404	6259	-32768	-9875	-8492	-1328	-1316	-1476	2038	-7313	-10068	5164	12520	1723	2877	-1906	-17036	2360	0	5479	7537	-3053	-17836	3472	28	4725	7680	-11	115	125	1
-32768	15320	4904	-22279	-24252	-15894	-19328	5724	-15932	-3071	-31482	-8600	-14344	-4076	1372	2933	857	-10046	-9680	5872	13024	437	4553	-2471	-16956	2676	184	5948	7687	-3093	-17780	5228	780	5469	6575	572	122	123	1
-32768	21276	1708	-20916	-21507	-14737	-17668	3656	-14064	-19160	-26291	-6418	-22804	-3116	8296	4257	20	-10480	-10328	5888	13000	-341	6565	-3283	-17136	5968	-372	3039	10438	-5297	-17964	4116	448	6055	4793	966	123	123	1
-32768	20496	-8284	-10190	-19490	-2408	-15504	7144	-10696	-30688	-19691	-7312	-17096	-5652	10696	1650	8753	-13888	-10340	5332	13104	-598	9749	-4002	-18768	2044	-1912	1944	11667	-6225	-19220	3852	-1172	7445	5159	252	113	126	1
-32768	32767	-17088	-11134	-16391	11388	-7788	-2260	-7404	-18383	-5845	-4032	-14620	-6084	13992	-8796	14594	-5500	-10560	5092	13156	425	14816	-5011	-19792	-1456	-2840	6053	12462	-6385	-19252	208	-1928	8804	2591	74	126	128	1
-32768	26128	-15232	-12442	-6301	12039	-5936	780	-8476	2835	9158	-3421	-12164	-5756	11208	-8533	10708	8177	-9964	4120	13860	1808	20856	-5402	-20752	-3148	-2492	10305	12512	-6646	-19208	-1616	-1464	9791	674	250	128	127	1
1820	5604	21968	24817	-2776	23899	-17708	2724	9148	6575	12035	2415	-12984	-5168	-1356	-2477	14330	12454	-8832	3224	13540	2843	27455	-5667	-22220	-1232	460	13344	13294	-7281	-21040	1484	-24	10772	439	-604	132	126	1
-2664	-8388	11652	14197	21729	79	-32768	-10100	16872	18017	1159	2127	-23000	436	-3976	5010	22286	8871	-11368	5040	14112	5699	32767	-5938	-24300	2608	4224	12506	13684	-8529	-24000	4280	4112	10009	-3024	-1651	132	126	1
-25036	8136	25356	11996	23065	13568	-13784	2716	4056	30722	7336	974	-29988	-1800	980	23685	6568	7112	-14272	5680	14044	7470	32767	-8188	-25432	3224	6228	13380	14884	-9361	-23548	4796	7956	11243	-8700	-2360	131	120	1
-21900	-6916	9292	6491	9078	12587	-21328	-1092	-5480	18117	15950	3602	-32768	-5964	2480	32767	575	4246	-17788	7704	17552	8634	32767	-9156	-26712	5348	7864	16352	15703	-10364	-24804	7060	13788	10859	-19675	-2094	118	116	1
-15492	4252	15652	13823	155	10467	-27736	-7928	-7076	6982	12464	-2515	-23180	6480	2928	15800	15052	988	-25524	14428	13476	9226	32767	-11551	-27380	7980	3748	13460	17375	-10892	-22420	3476	7260	5285	-18177	-1877	127	118	1
-11764	-4208	12896	6838	102	5205	-13416	-372	-6076	20574	13024	3090	-6076	8824	-3724	-11718	26411	4179	-32768	15228	20112	19166	32767	-11896	-23924	7084	-6220	1354	18757	-11552	-21568	6948	308	-563	-17893	-246	97	121	1
-10640	220	14312	4336	143	3101	-15280	8096	-3988	8660	12705	-432	-5592	6444	-10096	-20370	15475	6482	-30596	8620	26008	20175	31308	-16536	-22844	3172	-9264	-5366	20161	-13181	-23772	6540	-5572	-4804	-21030	1505	92	110	1
-11232	-5340	11168	1796	778	1797	-16172	3084	-4316	-13996	9073	-768	-7144	6360	-10812	-18334	13412	6905	-1836	11468	15460	27265	23844	-11597	-23144	-4520	-10328	-6811	17061	-11397	-24480	4652	-8448	-5948	-23169	1469	112	118	1
-10660	-4920	10828	722	639	1588	-15580	-5032	-4000	-23004	5304	-1693	-15964	-1716	-5596	-2419	6315	-7799	-32768	30040	32767	11647	-3637	-22677	-16408	-9464	-19284	1733	11126	-9593	-21984	-748	-8512	-10178	-25395	533	127	116	1
-9964	-3920	11908	514	265	1685	-16432	-10664	-1480	-10873	4191	661	-15440	216	544	-3724	14989	-8857	-7012	19848	19628	-10199	-21328	-22044	-13224	-2200	-9752	16950	4238	-5641	-20300	1452	-4984	-8275	-25200	989	146	126	1
-10512	-3332	11920	181	348	1059	-15440	-5220	-16	5976	6363	331	-15088	-288	-3860	-11136	19902	-4388	-544	5824	12532	-5140	-26532	-20254	-12948	-2064	-8696	18359	2861	-5102	-19712	2376	-6624	-5548	-22452	2896	152	149	1
-10580	-3568	11804	-365	588	317	-16844	164	-104	3676	6514	640	-14792	-1128	-4720	-12142	19832	-3204	1416	9936	7408	4798	-26238	-14402	-6908	1640	-7384	16071	-7393	1375	-18056	3332	-8108	-3745	-19809	3463	137	139	1
-10340	-4500	11128	-843	558	-64	-15820	-1812	1824	-5657	5932	1224	-18144	-11660	-6384	-3624	6159	4275	-788	20200	6144	3609	-25412	-4687	-6700	1308	-9608	8181	-11986	3232	-18220	3816	-7988	-2232	-18567	3185	132	139	1
-10720	-5212	10576	-786	511	325	-13960	-7888	1376	-6316	6267	781	-15200	-6752	-1232	63	5187	4185	-3316	23080	6260	-3583	-24967	7099	-5912	1460	-9944	-1812	-16840	8008	-16864	4544	-8248	-2270	-16779	4463	132	141	1
-10560	-4856	10840	-371	119	860	-13524	-6316	1308	-3047	6809	742	-14232	-2220	404	-2377	6317	2851	-5112	21280	6596	-7930	-24240	19397	-7532	3500	-9980	-9380	-21321	9578	-16736	5516	-7452	-5106	-15092	5744	120	153	1
-10288	-4132	11256	-154	150	1146	-16728	-3380	604	-2274	7496	1785	-16852	672	-1208	-4637	8760	2045	-10148	19304	7192	-8747	-24522	29041	-9484	2676	-11336	-17595	-25633	11945	-15544	3268	-7680	-8275	-13809	5007	117	151	1
-10516	-3776	11508	-390	583	1236	-16636	-1180	424	-4155	7926	1482	-16060	956	-3408	-4424	7260	873	-13708	16740	7796	-11498	-25974	32767	-7680	1892	-11360	-25910	-28586	13995	-13648	1788	-9732	-12228	-11729	5051	111	160	1
-10148	-3924	11508	-753	1027	1195	-15316	-2636	-828	-5296	8368	1525	-14968	-1840	-3784	-4855	6158	823	-15616	7624	10012	-9844	-27655	32767	-8896	-1604	-13236	-32654	-31011	14122	-10588	328	-9148	-12257	-9570	5935	114	153	1
-11364	-4164	11456	-727	1138	1049	-15820	-4080	-1440	-4084	8633	1726	-14332	-3248	-3744	-5322	7769	830	-20684	6168	12852	-1859	-30700	29422	-12120	-2972	-12888	-32768	-32768	12875	-8600	-2128	-8536	-10679	-6411	5250	113	151	1
-9976	-4412	10824	-747	1244	1579	-15100	-3856	-1912	-2702	8932	1678	-14148	-1548	-4852	-4079	7857	194	-24196	12412	14044	-1717	-32768	24413	-14668	-10532	-13020	-24138	-32768	12416	-8736	-3344	-7468	-10461	-3508	3814	125	144	1
-10496	-4692	11040	-376	1461	1801	-15056	-2480	-2248	-2832	9290	1657	-14316	-1248	-4928	-5204	7023	597	-26332	11724	16292	-3333	-32768	24487	-16092	-11412	-14788	322	-32768	13482	-9232	-4208	-7684	-9149	-2797	3522	120	139	1
-10816	-4024	10972	-470	1945	2058	-15224	-2072	-3200	-4531	9310	1467	-14328	-3408	-5616	-5094	7414	1983	-30556	10380	17660	954	-32768	26595	-17416	-6508	-13948	16617	-32768	17651	-6600	-4552	-1916	-1382	2657	1742	127	134	1
-11484	-3972	11240	-780	2550	1929	-15520	-2460	-3916	-4987	9722	1704	-14476	-2820	-6624	-2697	7273	2257	-32768	8856	15376	5264	-32768	22484	-17208	-708	-12892	17537	-32768	22744	-7736	-2576	-1272	520	1098	2501	127	139	1
-10680	-3628	11360	-1478	3245	2263	-16300	-2840	-3976	-3987	9538	2015	-14408	-1464	-5352	-2110	7496	2731	-32768	4488	9552	12294	-32768	16335	-15916	6460	-8388	7846	-32768	25810	-14500	-748	1080	1021	-3697	3055	128	144	1
-9876	-3708	12872	-565	4388	2668	-16440	-2928	-3008	-4187	9580	1861	-15252	-312	-4328	-2636	8230	2551	-32768	1464	580	15619	-32768	12535	-22048	2472	-7016	-5272	-27923	21224	-21896	2304	14436	-648	-9371	6249	127	142	1
-11096	-3504	12052	-533	6378	2030	-17364	512	-2276	-6565	10382	2651	-16376	-108	-2656	-3454	7660	1614	-32768	-4072	-9200	10678	-22142	12744	-20232	-5828	-8104	-3661	-21146	12934	-21428	6920	23636	3504	-4880	12785	129	185	1
-10848	-3084	12428	-437	8577	1655	-16280	-2492	-948	-6816	11829	3675	-17704	-744	-1744	-5103	7090	2195	-32768	-4688	-11356	9571	-19573	12677	-8772	-7980	-4888	4373	-8556	8503	-15544	7540	20760	3923	8462	11428	139	208	1
-11548	-4512	12288	-594	11419	1935	-17400	-3004	-1668	-3828	13279	4230	-18344	-1652	-3348	-6836	4860	2719	-32768	-18788	-23704	7043	206	2079	-3824	3844	-4740	12285	2915	4597	-18920	3032	20164	7472	-264	2198	143	177	1
-12240	-5832	12244	505	13537	3767	-18472	-2704	-3152	-4474	14413	4255	-17684	-2848	-4120	-5962	3210	2495	-32768	-17772	-23376	7190	1719	738	-10320	4836	-5196	-2241	17014	-3794	-14848	6180	13664	3683	-731	-2920	136	145	1
-11620	-6260	11756	1813	16415	6620	-18180	-2236	-4360	-4679	14923	4505	-17548	-1988	-4172	-6367	1805	2356	-5708	19140	29136	-28151	19057	-11607	-22924	2412	8872	181	21549	-8567	-11884	9012	2928	6283	5564	-951	127	119	1
-11148	-5636	12864	3153	20593	9892	-18436	-2692	-3700	-5130	15677	4261	-18712	-3052	-3260	-5948	658	3889	12140	-8880	11204	-8782	23144	-2189	-32768	1660	19696	-3842	8350	-2194	-8956	5532	-13156	5802	18322	1101	132	105	1
-11828	-6760	12444	4049	27840	13445	-22592	-2408	-1624	-5191	16213	4946	-23004	-3784	-384	-4501	-2031	3552	-22260	-6628	17088	-3350	32767	-8767	-7300	-6768	-592	-20034	10957	-4364	-19668	-6076	5692	-31979	1424	-2589	131	63	1
-12708	-6636	13340	3253	32767	19423	-25848	1048	1372	-5920	16665	4288	-24188	2372	6204	-6265	-9038	3404	-31024	-2440	20724	-2356	18039	-14698	-22108	668	-6892	-12711	13648	-10976	-29952	7000	10980	-27222	5495	-1658	128	61	1
-14036	-7428	12748	4143	32767	23950	-27456	2556	5452	-16796	16199	4284	-25956	2976	13096	-7338	-18850	3153	-21012	25716	4936	-18824	1526	-14652	-32768	9892	-11352	-16400	17225	-5394	-27564	-8152	-440	-4477	12262	-5805	132	136	1
-30640	-13660	13956	9540	32767	30646	-27280	-2924	8440	-26065	16910	5226	-24248	3164	7956	-12931	-16286	3881	-16532	-2208	17912	-11246	607	-8130	-29600	11988	-5772	-18277	16558	-3883	-11036	-336	-10932	5782	16669	1081	134	98	1
-32768	-3384	15880	-462	32767	29955	-21952	-10088	-3148	-18904	21797	4730	-23424	-6108	1080	-12041	-15808	1219	-10344	-124	18000	-8087	-1172	-6001	-14176	-13016	-6812	-17597	14931	-4983	-7744	-368	-5728	3956	9752	2604	139	173	1
-32768	-17320	14872	4995	32767	32767	-24708	-8964	-7628	-4006	21128	4860	-22364	-6128	-7416	-3993	-17437	-2754	-10156	5752	13524	-4860	-1152	-3626	-11760	-8288	-8532	15939	11328	-3260	-14464	4260	-7460	2995	9400	2535	138	134	1
-12124	-12672	19244	2604	30327	32021	-22424	88	-1764	1588	17865	2833	-24428	0	-8568	4418	-18913	-6317	-9888	4852	13676	-3644	-1330	-3021	-20300	3212	-8304	23877	8609	-1311	-16072	1452	-5508	7648	11928	1012	139	119	1
-13024	-1996	9604	-2151	32767	29914	-15552	2656	-16460	5457	9452	495	-24156	5700	-7472	7391	-20510	-5941	-10436	4532	14348	-3214	-1340	-2982	-20244	6372	-2272	12494	7117	-2477	-19028	1216	-2640	6936	12758	-1506	133	114	1
-31932	-19496	20804	-9795	-4541	-7439	-12464	1696	-19124	-1298	6321	1418	-21584	4308	-5868	5681	-20828	-5625	-9076	3904	14512	-2402	-911	-2368	-13188	8568	348	-8640	8459	-3731	-15384	4528	-1144	1222	11493	-1224	131	111	1
-7328	-18412	14892	-306	-20390	-11881	-12804	6748	-2684	-17704	-759	-1622	-20844	3192	-6292	-943	-22069	-5414	-9768	3684	13448	-1473	72	-1853	-15956	2632	-3604	-19936	8852	-3984	-16296	5024	-1592	-925	11086	-3385	130	114	1
-1032	-5572	10192	-1046	-21532	-8588	-12628	-2576	-7664	-23785	-8361	-3894	-18220	-328	-8568	-3501	-20435	-5954	-9136	4152	13720	-1124	413	-1402	-17768	-2468	-5232	-17931	7858	-2815	-15228	2616	-3044	-2233	11441	-4346	126	108	1
-5260	-4084	9276	-9041	-21237	-11178	-12260	-3416	-7632	-21458	-9350	-3977	-19536	1208	-8596	-2068	-18829	-7441	-9120	3752	13556	-1070	335	-1406	-16628	-5780	-4740	-1314	6499	-2158	-14368	648	-3380	-1865	11160	-2900	119	130	1
-10344	-10120	10640	-10544	-25181	-16976	-6428	-2196	-13136	18970	-16151	-9315	-18480	252	-8596	-1259	-18501	-7420	-9656	3336	14016	-987	130	-1595	-15372	-1092	-3608	11692	5185	-1608	-15600	-1140	-2360	3180	11274	-1700	120	123	1
-11172	-10272	10704	-10080	-26477	-18167	-9836	6132	-10436	19386	-21918	-9421	-15620	184	-8536	1698	-19964	-8643	-8632	3244	13832	-535	-55	-1371	-16568	4836	-3724	8085	5976	-1151	-16252	952	-1904	6718	12010	-2750	115	118	1
-11528	-5420	9164	-10568	-32768	-27345	-8912	7400	-11276	6891	-28111	-9448	-13424	1968	-9120	204	-17362	-6080	-8880	3588	14068	-317	584	-1201	-17572	4968	-2752	-2686	6220	-2045	-15656	3160	-2028	4493	12391	-2743	121	119	1
-13072	-4108	8816	-11377	-32768	-30097	-8708	2184	-12260	-114	-32768	-9057	-11376	1588	-9392	-524	-15201	-3205	-8872	3568	13828	-387	1166	-1341	-16540	1036	-3496	-6302	6051	-2599	-15592	3808	-1692	-427	13563	-1191	126	110	1
-17168	-4628	9544	-9741	-31563	-31764	-8216	-24	-11032	3906	-32768	-10538	-9620	904	-10524	-1120	-12253	-2867	-9136	3724	13588	-375	999	-1557	-15748	-1784	-3800	-789	5879	-2393	-15168	1924	-1588	-100	14078	-529	130	113	1
-19144	-5000	10936	-6201	-30788	-31856	-8636	648	-12208	8488	-32768	-12002	-7284	1700	-11472	-3086	-8860	-4010	-10536	4128	13480	-479	1031	-1701	-16268	-120	-3960	4915	5677	-1418	-15632	2092	-3836	1943	12706	-1718	128	114	1
-22248	-6344	13472	-4509	-30653	-32677	-8996	540	-12628	9143	-32768	-11982	-6192	724	-10492	-2412	-5902	-4730	-9216	3308	13612	-233	1146	-2035	-16548	1276	-4456	5113	6387	-1517	-15924	3484	-5800	1482	12979	-2199	117	120	1
-30036	-12124	14260	122	-32394	-32768	-13428	528	-12308	14452	-32768	-9040	-5200	908	-9284	3787	-4062	-4675	-8504	3768	14204	-619	2586	-2264	-17256	1404	-4836	1714	6080	-1800	-16688	1924	-5076	-816	11851	-2204	112	120	1
-32768	-2868	14208	1501	-31545	-32768	-17236	-1132	-11848	18251	-32768	-7504	-4380	564	-6376	10239	-1288	-3563	-9372	3520	14016	-160	3608	-2639	-18280	372	-4776	1705	5547	-1397	-16568	1252	-4492	-566	11893	-1751	119	117	1
-32768	-168	8980	-961	-29554	-32768	-18692	176	-14412	25155	-32768	-4291	-4628	-2920	-5624	16128	803	-5330	-9340	2560	14544	162	5368	-3096	-17932	168	-2328	6027	5895	-1430	-17200	1220	-1440	1845	11122	-1560	124	121	1
-32768	2484	3208	1579	-27453	-32768	-21112	856	-10908	19649	-32768	-429	-14560	-2992	856	20255	-4975	-6368	-9956	3240	14152	747	7057	-3524	-17248	860	-12	8481	7102	-2324	-17820	724	2312	3568	9695	-203	131	121	1
-32768	10316	-2976	7026	-20097	-28895	-23472	388	-14904	13841	-30207	2708	-29772	-9180	16532	19856	-20523	-10204	-10200	2908	14172	1190	9353	-3823	-16972	2828	1316	7752	8608	-3435	-17796	212	2936	4386	9218	-80	85	118	1
-32768	14020	-19936	2901	-15747	-18643	-12304	11024	-14608	7670	-18626	1186	-17308	3188	16400	18779	5132	-6385	-9840	2896	14508	1696	12476	-3991	-18460	2100	844	5276	11337	-5209	-20068	3116	1316	8620	6332	-523	7	122	1
-32768	30992	-25528	-10085	-11351	-4311	-156	3800	-7824	-7627	-7023	-2075	-10500	3504	24032	12888	7733	7011	-9316	3384	14828	2035	16548	-4189	-19644	288	-1020	6333	12737	-6326	-19232	4136	-612	9840	4111	-748	29	125	1
-32768	16600	-27452	-13168	-1326	3450	-4804	-1556	-6852	-12753	7449	-3580	-19532	11736	19696	2091	4335	7675	-9472	3452	14296	1782	21525	-4955	-19252	348	-1836	7885	13392	-7184	-17832	3056	-1156	9716	2834	-1045	63	121	1
17524	-3504	-7764	15908	17920	23102	-14924	-6080	-3052	-14247	19370	1598	-18244	7616	5936	-9597	2948	6324	-10356	4224	14056	806	25825	-6536	-19536	864	-720	8106	13883	-8037	-19248	3952	-812	10165	777	-2648	84	125	1
6532	-22756	32767	12896	18548	10329	-32768	-10016	24844	-6591	9984	-312	-15792	924	916	-21618	7394	1966	-12160	5792	14368	-1276	30150	-9416	-21856	3484	-148	8658	14562	-8741	-21232	7176	1000	8694	-843	-2367	97	136	1
-14008	-3712	5408	14586	32767	19277	-23852	-8220	-4492	23149	12832	-2787	-17484	-5108	6944	-14586	8810	-4137	-11836	7684	13712	-2329	32767	-13768	-25828	2444	1736	7787	15658	-8890	-24700	4640	6172	7457	-7108	-2369	110	127	1
-32768	11400	23860	6548	11486	16503	-8184	8456	-6004	22717	17259	-98	-28344	-19060	5840	10496	10007	-11984	-16412	7940	14296	-1890	32767	-20513	-28916	1980	4188	13349	16450	-8016	-28540	3760	13548	9296	-19631	-1639	108	121	1
-32768	-16932	4128	8522	5200	11505	-32768	4704	-13984	18787	23080	1167	-28644	12092	-7396	20105	12091	-4233	-25260	4148	17040	5273	32767	-22415	-32400	2508	4460	24861	17303	-7187	-24588	-1724	9900	5724	-19430	-1353	120	108	1
620	10716	16160	4030	-1008	5587	-15988	6044	-13068	11935	17999	-1979	-16780	12076	-8116	-11396	6906	3798	-32768	16088	26688	16587	32767	-24216	-25400	8960	-2216	29931	17775	-7202	-22496	2880	-532	8318	-19376	507	178	104	1
-10492	-3288	12392	3363	-649	2434	-14464	4132	-6280	-2338	16962	-1893	-14652	10200	-8092	-13133	7483	4726	-32768	11816	28244	23797	32767	-22660	-20172	9236	-7460	16620	17945	-10402	-22484	4076	-6976	6640	-20709	4332	165	104	1
-11020	-7312	9680	1064	2156	126	-15260	-3164	-9412	-7634	13113	-680	-9232	-12204	-9368	-462	8581	3615	11644	28900	15188	19446	20756	-26042	-21904	-6144	-13928	2315	16714	-8639	-25020	2000	-8984	1872	-20354	6725	169	103	1
-10724	-5344	11052	570	2044	1110	-10748	-6968	-6348	-6363	11167	532	-16912	-4820	-8344	10518	10822	-371	-32768	28312	30952	4779	-10035	-10793	-15288	-9776	-19396	1462	11920	-6324	-24296	-5480	-7492	-5532	-22582	6211	164	99	1
-10268	-4952	11812	347	1247	1104	-19096	-5420	-4456	1786	8537	-2612	-18084	5388	-3892	7479	10388	507	2128	22892	12060	-8436	-17759	-5316	-13960	-4616	-3748	19523	5822	-2272	-22888	-2784	-4848	-3353	-21972	6359	156	107	1
-10488	-4096	12260	-248	1108	949	-20272	-188	-3424	5348	7860	52	-19420	6844	-1992	-3775	10736	1671	3032	32	10204	1109	-14441	-614	-9992	-532	-6712	17091	-144	3168	-18572	-40	-5608	2286	-20858	8275	154	152	1
-10264	-2888	12068	-869	1311	225	-15536	3656	-4216	1518	7434	-1114	-15444	1204	-1352	-8434	11701	3204	2260	5016	6804	16203	-11353	7148	-7432	832	-4372	1746	-2592	8322	-18404	2068	-5524	2500	-19878	8319	159	157	1
-10436	-4648	11452	-1534	1973	-381	-16556	1700	-2796	-8966	6081	-1149	-15560	-656	-1296	-8686	12655	2833	-4804	17204	8552	13049	-9964	12114	-6436	-3960	-6576	-7346	-6026	11970	-19216	-868	-5656	744	-18920	7653	154	172	1
-10536	-4568	10964	-1983	2482	-296	-15164	-4668	-2876	-10131	4810	-812	-13736	-2088	-1440	-8430	12722	3886	-8316	14000	11716	3782	-14008	18633	-8800	-4756	-7660	-12192	-9606	13437	-17476	-2136	-4748	-1399	-18205	7343	144	154	1
-10664	-5472	10572	-1579	1994	10	-14076	-4848	-3336	-6118	4879	-656	-14656	-2464	-1792	-6925	14464	3580	-6936	6884	11660	3573	-16966	24647	-11668	-6352	-6928	-12375	-14250	16328	-16724	-712	-4968	-2192	-18018	6144	151	157	1
-10624	-5404	10612	-1479	1922	88	-15792	-3472	-3468	-3356	5252	-312	-14584	-2012	-1852	-6991	17362	3238	-10140	3648	14036	5797	-18802	27151	-9064	-7400	-7716	-8997	-18595	18479	-15092	-464	-6388	-3330	-17308	5601	147	144	1
-10336	-5312	10828	-979	1366	543	-16484	-1056	-3060	-3919	4979	23	-14320	-2100	-2096	-7112	17667	3241	-12276	3644	15560	4511	-23401	26936	-8416	-5256	-7308	-8807	-21893	20293	-11724	-188	-6620	-3137	-14912	4798	144	129	1
-9456	-5304	10948	-782	1320	1112	-15468	-1384	-2584	-6604	4919	-43	-17116	-5492	-7568	-1382	12602	2950	-12508	3320	15848	4095	-24128	26680	-9720	-5964	-8492	-11158	-25730	21371	-8948	340	-6168	-2233	-11569	3251	143	135	1
-10996	-5008	10628	-152	1190	1332	-15252	-4232	-3484	-4351	5216	241	-16256	-6144	-6120	2530	11086	3557	-13228	-176	17672	4060	-28318	25503	-10580	-7536	-7408	-8295	-29768	20852	-7732	668	-6656	-3463	-8274	1470	136	126	1
-11088	-4852	10052	334	674	1484	-14964	-4180	-3208	197	5458	779	-14232	-4472	-4068	4448	11737	4943	-18184	1436	18916	8806	-32768	23507	-12024	-7148	-8764	-6047	-32768	20710	-8080	16	-7652	-5593	-5478	2747	130	124	1
-10404	-5192	10236	839	-238	1853	-14004	-2836	-2784	2391	5926	903	-13344	-1608	-2616	4967	12967	4647	-21736	5656	19352	6027	-32768	23671	-14184	-7076	-9460	-4164	-32768	21036	-6644	-1788	-8328	-4565	-2978	4186	123	129	1
-11680	-5660	10548	1485	-1083	2621	-14188	-1824	-1796	1434	6589	976	-14676	828	-1532	6148	12617	3381	-26532	9980	19312	1697	-32768	26013	-16456	-6100	-10004	-4901	-32768	21172	-7368	-3000	-5712	-964	82	4996	125	131	1
-10264	-4008	10972	1260	-789	2782	-14992	-1320	-1988	1251	7430	1019	-15800	1372	-1016	4750	12337	3107	-32328	9360	18720	-798	-32768	29893	-18040	-4096	-9276	-7383	-32768	20964	-8380	-3468	-1184	1120	993	4370	123	137	1
-10372	-4020	11960	194	593	2642	-16760	352	-2496	640	8109	1139	-17284	2224	-1864	980	12262	2747	-32768	3924	15352	-1141	-32768	29404	-18536	-880	-8124	-12807	-32768	19579	-9656	-664	612	307	-1454	3859	126	148	1
-10372	-3832	12348	-750	2196	2535	-18032	1608	-1832	-3877	8656	1153	-17796	3356	-1352	-1659	11140	1850	-32768	-1964	9304	479	-31121	23603	-20416	-3320	-7424	-18412	-32768	16197	-14080	1412	3520	-3158	-2200	4654	118	155	1
-9864	-4108	12688	-581	4358	2507	-17524	864	-916	-7290	9747	1234	-17160	1972	-988	-4283	10546	524	-32768	-3668	3120	-898	-26471	19654	-22108	-12752	-9904	-16753	-27061	12707	-19512	3728	14888	-8558	-4152	5393	121	206	1
-10556	-4236	12632	-472	6649	2654	-17116	-2312	-740	-6509	10998	2522	-17884	-112	-1448	-6472	8581	540	-32768	-14360	-7336	586	-18559	14011	-16576	-10284	-7900	-1261	-16918	9133	-20016	4904	19632	-14779	3627	7809	115	253	1
-11272	-5104	12544	169	9192	3396	-16924	-3168	-1204	-2908	12954	3030	-18360	-4084	-3484	-5675	6414	1466	-32768	-22356	-18064	8187	-11803	2183	-7644	-4020	-7048	12987	-8685	7083	-16716	-1384	22312	-7363	3982	669	129	250	1
-11552	-5480	12984	1184	11519	5218	-17588	-2852	-3312	-891	14454	3285	-17560	-5560	-4992	-3657	3968	2517	-32768	-14640	-19048	5566	-1160	-6402	-6892	5232	-4644	9649	5682	-67	-17772	-3572	19636	3234	861	-6338	131	178	1
-12116	-4668	13052	1815	14301	6767	-18088	-1628	-4720	-946	15309	3843	-17728	-3352	-4996	-2802	2303	3358	8036	-5596	1256	-11437	18503	-16634	-17172	3164	-5152	1857	15196	-6291	-18276	400	9636	7152	2668	-5192	136	142	1
-11260	-6032	12788	3072	18185	8783	-18928	-2164	-4948	-2589	16015	4248	-18352	-3420	-4352	-2165	801	4406	-6440	14884	16148	-2744	25163	-10305	-32768	4976	19564	2958	7421	-939	-24668	-1580	2152	11978	9206	-4502	139	118	1
-10996	-7312	13944	4976	24498	12285	-21968	-4220	-2892	-3172	16604	4920	-22312	-4380	-2872	-1037	-1097	3683	-18092	-6052	16756	-7079	32767	-13481	-13888	2212	3512	-6144	10441	-1964	-24616	-3424	12912	4711	1602	3052	135	91	1
-12624	-7868	13484	6373	28741	18855	-24980	-2884	16	-3321	17186	4491	-24552	-1864	3080	-1269	-6267	3310	-32768	-6680	22268	-3671	19848	-16859	-26360	-2452	-3844	-11347	16509	-8151	-19980	5140	10596	-8444	4480	5960	127	65	1
-14616	-9348	14528	7491	32767	26715	-28240	-2124	2780	-6344	17796	3613	-29644	148	11296	-2225	-16670	2310	-19844	21500	4440	-13935	3590	-11643	-23996	6248	-11664	-10384	20585	-8614	-19272	4440	6700	-7799	6636	5331	131	95	1
-24504	-14752	14904	9197	32767	32767	-31008	-456	5352	-15074	18404	2687	-26088	5040	8364	-4684	-18668	2157	-17552	-4332	18456	-8811	1594	-6917	-15476	-4500	-11132	-12566	17877	-5029	-11724	3016	-13384	18595	12006	-2957	132	70	1
-19204	-4484	11544	5154	32767	32767	-23568	-172	1012	-17129	19677	1278	-22600	1796	3348	-9032	-15806	1854	-11268	4220	16212	-7443	-351	-6058	-14508	-1360	-5704	-9005	14742	-5779	-5432	7212	-9264	207	8722	1547	133	118	1
-32768	-16516	19132	-2236	32767	32767	-22080	-9016	-4768	-17445	20637	3911	-20108	-3616	-6900	-10243	-16419	-2221	-11060	6828	13248	-4086	-1242	-2838	-14188	-4012	-8136	1831	9616	-4731	-14748	11680	-5856	-9561	8781	2163	138	102	1
-18664	-10584	16208	3103	30870	32767	-21972	-2040	-6972	-10736	14597	1432	-22800	-5004	-9104	-2591	-17105	-7059	-9556	4728	13784	-3398	-1231	-2662	-18980	3088	-5768	8948	9743	-2274	-16976	864	-4200	-7444	10921	-2610	139	110	1
2000	-12024	11012	821	32767	32767	-17544	868	-8892	-7225	8467	1670	-22376	1820	-7548	4502	-16922	-5982	-9280	4336	13896	-2705	-865	-2276	-18932	4800	-860	1819	7625	-3488	-18700	-4628	-612	-3119	11478	-1820	131	100	1
-32768	-14936	22740	-7285	11982	3550	-11008	-2652	-29844	1092	7181	3469	-18744	3096	-7244	7227	-18306	-7615	-9040	3284	14104	-2101	-540	-1901	-13116	2504	-344	-10400	8290	-3620	-14716	-212	3400	1169	11635	-1796	129	101	1
-15152	-22840	15848	-2827	-17916	-17540	-9704	-4420	-26316	-291	6849	1836	-21072	2272	-4180	3814	-19260	-8793	-9016	3632	14120	-1061	254	-1167	-13208	1584	-712	-11479	8597	-3325	-15552	2112	1628	814	11280	-3037	123	117	1
-1044	-10972	10408	3163	-19935	-14343	-14712	-2332	-4044	-18406	-5693	-845	-18704	-1276	-6008	-1443	-18680	-8660	-9244	4360	13568	-723	567	-1000	-18128	-676	-3068	-1662	7651	-2479	-15576	1376	-804	2457	11480	-2583	120	119	1
-4684	-4568	8528	-2039	-18168	-13166	-8684	-9584	-7044	-556	-9995	-2627	-19680	-1084	-7348	-684	-16705	-8766	-9072	4992	13148	-1189	166	-1258	-14656	3148	-3544	4275	6277	-2280	-13564	1244	-1324	7643	11810	-495	121	116	1
-10020	-10460	9636	-5007	-21301	-17261	-5948	-5060	-11480	22588	-12873	-8174	-19560	8	-7320	1157	-16796	-9209	-9096	4840	13200	-1802	-504	-1510	-15572	3716	-2776	4160	6310	-2485	-14476	2484	-980	11233	12639	476	117	122	1
-9132	-10788	10836	-1177	-25625	-21384	-11692	2244	-9436	31331	-16920	-8928	-17400	112	-7512	2684	-18431	-9052	-9012	4024	13624	-1586	-631	-1571	-16784	1232	-2740	1798	6306	-2580	-16340	4020	-1868	7821	13190	-668	115	127	1
-7908	-5640	11180	-2688	-26665	-27427	-12368	7080	-10884	24835	-24396	-7262	-14896	256	-8492	4153	-17644	-6794	-9200	3592	13712	-1099	-275	-1216	-16628	952	-3196	-397	5979	-2524	-16464	4084	-3220	2061	13112	-3671	129	120	1
-8100	-5396	11200	-3413	-26717	-28385	-9464	6228	-10520	12835	-29352	-5091	-12124	1200	-9172	5526	-14990	-4555	-9440	3824	13624	-715	264	-982	-16612	748	-4312	-1763	5521	-2620	-14004	3840	-3576	-119	13923	-5279	127	126	1
-14100	-4952	13804	-5324	-27994	-32768	-8708	2888	-11104	7199	-32768	-4947	-9540	2936	-9552	5667	-11932	-2754	-9212	4256	13368	-672	164	-1041	-16484	748	-5000	-50	4818	-2456	-13976	3488	-4384	104	16461	-5206	130	125	1
-18196	-4340	14636	-3276	-30198	-32768	-7856	2444	-11028	5881	-32768	-6249	-7132	4172	-10484	3212	-8698	-2180	-9232	3948	13348	-904	96	-1213	-16648	1136	-4472	1304	4245	-2205	-15048	3228	-4504	-584	17101	-4631	126	124	1
-20332	-3244	16396	-2713	-32662	-32768	-9024	1048	-12360	7398	-32768	-6804	-5480	3644	-11524	1800	-4856	-2106	-8824	3720	13524	-830	115	-1210	-16664	-84	-2976	2116	4553	-2072	-16136	2048	-4528	-1320	15758	-4183	122	119	1
-23784	-4932	18240	-4341	-32768	-31621	-11996	352	-13244	11509	-32768	-5781	-4188	3524	-11140	1935	-470	-1549	-9160	3480	13520	-738	349	-1261	-16064	1684	-744	1470	4782	-1948	-17060	1216	-1704	-3982	12628	-3772	121	117	1
-32768	-9404	19568	-2918	-32768	-28108	-17320	1244	-11652	11778	-32768	-6141	-4112	3824	-6952	4575	2358	-1522	-8800	3308	13480	-722	347	-1343	-15348	2336	356	258	5953	-2355	-17540	1500	1012	-4693	10927	-2857	123	114	1
-32768	-1796	16500	-4357	-32768	-29535	-21836	212	-10328	9520	-32768	-4877	-4132	1144	-3420	7334	770	-2268	-8804	4932	13304	-1272	720	-1477	-16136	3100	-1252	156	7151	-2520	-17188	2696	2240	-2606	11337	-1549	129	117	1
-32768	948	7004	-5797	-32768	-28932	-21168	-1620	-10012	10938	-32768	-2797	-8324	-2100	88	13326	-2881	-5016	-8936	4524	13596	-654	1039	-2469	-17600	2260	-1436	2510	7928	-2557	-16544	2604	1232	257	12601	-249	131	122	1
-32768	9628	1940	-1010	-27572	-25214	-23540	-204	-11484	10214	-32768	-28	-26284	-10084	16172	20831	-26706	-11614	-8424	4932	14972	-938	1759	-3170	-17864	1568	-732	6077	8618	-2773	-16824	1300	1096	4184	13018	487	107	116	1
-32768	12756	-15684	-1469	-20754	-20382	-13732	7256	-8644	7230	-23612	2467	-32768	4492	18436	22888	-5888	-15777	-8768	4456	14572	482	4238	-4910	-18284	3212	992	7630	9955	-3479	-18048	-1048	892	7131	10514	325	0	123	1
-32768	11440	-19364	-1602	-20232	-16573	-992	2372	-9036	-6744	-13627	-2120	-11328	1676	25476	2705	4026	4934	-9844	-208	15636	-352	7431	-4964	-16780	2676	2056	7225	11595	-4595	-20236	2280	248	8580	7740	114	2	127	1
-32768	32767	-23640	-12907	-12832	-2265	-2432	-1244	-2248	-7550	5931	-1956	-15832	6584	23372	-5659	-421	9542	-9672	3020	15444	591	11249	-4826	-18060	428	796	7286	14022	-7789	-18340	4656	-2748	7892	4523	360	78	122	1
-21680	13188	-32768	14023	21792	24979	-14720	-3680	-3372	-14932	14180	262	-22056	3828	8412	-11083	1507	7597	-9376	2920	15852	892	15857	-4694	-19692	3840	-2828	2783	15079	-7994	-19716	7148	-1036	7400	2254	-1500	114	119	1
-8984	-17968	32767	16481	22696	22855	-25400	-6436	17900	-12632	14866	2895	-20020	-2756	-196	-16976	3243	2670	-8408	5156	15940	728	22075	-5905	-23296	216	-4276	4019	16022	-9592	-22408	6348	-2320	6262	867	-1868	128	130	1
-16108	-6012	6660	9536	27843	14377	-32768	-6592	3104	8756	14183	-3997	-11092	-2956	2792	-18518	8609	-820	-8744	5948	16324	-542	29991	-8663	-26712	524	-1588	5626	15734	-9277	-24704	4568	-180	5182	-2150	-1672	112	128	1
-32768	10728	22832	6222	17717	17874	-18676	-1852	-8960	25223	18666	2424	-27232	-12552	1208	3828	6966	-7918	-10868	6960	18072	-2668	32767	-13851	-28456	2852	2808	6853	16710	-10171	-28396	4732	4744	5382	-7306	-1861	106	134	1
-14356	-5868	12956	9640	-1777	9034	-28732	4320	-13224	18065	24441	1457	-24908	4700	-12360	18580	9314	-2528	-12724	7196	17224	-2768	32767	-20698	-31544	-1648	4644	9119	17927	-9184	-28828	4040	5704	5764	-8983	-1665	113	121	1
-13764	7452	15576	4068	295	4639	-17000	5212	-15556	15000	20538	-212	-14936	8176	-7480	-1789	6412	4182	-26124	7940	16692	3334	32767	-25038	-31028	-2060	6976	24958	16894	-6108	-20460	-10824	8776	4840	-21843	-2332	163	109	1
-12284	-4448	12000	3111	-679	2036	-10604	4828	-8332	-3235	16572	-77	-6164	3608	-10444	-6932	9539	6022	-27896	4528	20740	15461	32767	-24551	-21288	4104	-7784	29853	17164	-6001	-19852	-1000	732	10754	-19352	-206	163	110	1
-11192	-6552	9792	1727	-15	1393	-13896	-5232	-7240	-13073	13602	745	-9660	-10976	-10296	-2495	8906	4360	-29344	17864	24808	18638	32767	-24631	-20808	8368	-4712	27174	14761	-8329	-19856	5512	-9204	12568	-19110	4497	165	106	1
-10300	-5128	11140	2266	-631	3001	-13792	-10440	-5696	-3610	10203	340	-15796	-9200	-8812	10656	12126	-838	4084	20492	13848	17176	26042	-26035	-17784	-2904	-9456	13361	15170	-7567	-22276	2500	-6668	5207	-20078	5782	161	118	1
-11120	-4156	10612	3096	-1715	3668	-16760	-4032	-6864	6727	7880	2747	-18576	1888	-5116	11312	12813	-305	-32768	24176	32767	14877	2496	-14024	-14084	-7928	-18680	3872	10910	-4910	-20648	-1056	-6432	-2362	-21029	4726	150	95	1
-11336	-3280	11624	3668	-2839	3145	-18856	-476	-4960	9224	8108	790	-17908	7052	-2124	3603	12309	641	-3124	29212	13220	889	-11835	-3487	-13704	-2564	-4720	15511	6916	-3109	-20720	996	-4256	-3126	-21873	5087	154	122	1
-11020	-2704	12380	3206	-2797	2213	-16332	3320	-3636	7591	5940	-1285	-16612	2496	-1052	-1152	13867	2944	-1696	11776	11076	-5981	-11727	-2333	-12148	1444	-4316	17979	496	2665	-18036	2072	-4784	686	-21034	6707	151	140	1
-10116	-2536	12416	3029	-2527	1986	-15828	3956	-2836	4154	6978	362	-16452	844	-616	675	13712	3005	-124	7460	10348	2620	-11745	5644	-11140	2512	-4776	16385	-173	3058	-18012	2232	-4416	2147	-18895	8028	150	155	1
-9816	-3028	12276	397	323	607	-17148	2440	-2732	-865	6127	-676	-16476	4104	-552	364	13513	3606	-1432	13140	10304	6702	-11635	11693	-8708	-608	-5692	-11501	-4174	9740	-13924	-64	-5660	2866	-19054	7441	144	134	1
-10064	-3608	12012	-336	885	381	-17080	-1888	-3312	-2754	5521	-909	-15244	3216	-2112	-4634	13382	3836	-4680	14700	12188	3421	-13938	16648	-9276	-4432	-6876	-15109	-8894	13117	-17752	316	-6484	546	-18553	7054	138	129	1
-10256	-3668	11544	-247	501	390	-14604	-1904	-2740	-2935	4972	-1392	-14712	92	-3048	-6503	14758	2901	-6112	11716	13940	1653	-18288	22927	-9996	-5736	-7616	-14100	-13977	15757	-16696	832	-6204	-718	-18099	7071	150	136	1
-10156	-3548	11872	-65	487	497	-15856	-2288	-2332	-2245	5504	-1005	-14808	-2008	-2052	-5446	16008	2429	-6656	7512	14968	2805	-21632	26955	-10388	-5712	-6432	-9930	-19092	18207	-14668	1072	-6168	-1809	-16500	5257	146	151	1
-9728	-4076	11872	303	567	1178	-17312	-3484	-2572	-1155	4891	-927	-16468	-3304	-1248	-2047	18564	3047	-9380	4532	17424	4808	-24150	28901	-9852	-4700	-6976	-9677	-24062	20269	-11456	588	-6560	-2797	-13580	3653	143	147	1
-10008	-4228	11584	739	655	1561	-16040	-2704	-600	167	5138	-995	-14404	-5908	-3816	2112	18917	3179	-12400	4132	19760	5112	-27737	29388	-10788	-4776	-7908	-12866	-28222	21874	-9296	204	-7456	-3500	-9754	3357	131	143	1
-10332	-4224	11184	1392	517	2219	-15000	-4016	-2748	75	5317	-627	-16448	-6576	-7312	768	13616	2197	-16408	3488	21604	4336	-31671	29483	-11224	-5444	-8288	-13926	-32768	21751	-7508	-180	-8620	-3530	-5694	3092	133	140	1
-9964	-2416	11804	860	1176	2141	-14700	-2372	-2832	2525	5735	-58	-16456	-2284	-4232	2329	11157	2590	-22256	6580	21736	2003	-32768	28988	-13480	-6816	-9136	-13894	-32768	20785	-6960	-64	-8540	-5295	-2765	3586	128	144	1
-9908	-2884	12008	291	1691	2223	-16536	444	-2572	-869	6467	217	-17448	340	-1640	2023	12613	2802	-27764	6948	20264	-1530	-32768	30646	-14864	-6064	-10572	-12536	-32768	19329	-5816	-800	-9484	-6452	-922	3569	119	149	1
-10256	-3556	12212	-287	2566	1989	-16692	-940	-2300	-5431	6587	-348	-16556	-240	-2288	1922	12946	3135	-32768	7500	18744	-4385	-32768	31517	-17672	-3804	-11484	-15563	-32768	17861	-5192	-628	-7472	-6867	1287	3410	118	157	1
-10848	-3428	11780	213	3257	2667	-16156	-2792	-740	-6457	6947	-235	-16768	-1156	-768	-1637	11852	3000	-32768	6800	14872	-6552	-32768	30772	-23400	-6748	-11616	-17331	-32768	14535	-9636	1260	-2924	-12076	177	4168	127	149	1
-10500	-3288	12208	-408	3874	3621	-15836	-2192	-456	-6236	8102	167	-16396	1492	1300	-3172	11463	861	-32768	1864	6580	-5354	-32768	26007	-24272	-6156	-10928	-13995	-32768	13640	-18144	-628	3924	-19553	-3153	4705	116	143	1
-10824	-2432	12304	-1823	5409	4171	-16160	-368	-252	-8383	9773	283	-17804	3584	1556	-4846	10076	-706	-32768	-5316	-6664	43	-30184	18971	-17596	-7484	-10816	-8566	-28267	11591	-28132	-3964	19536	-23754	-5158	4508	125	217	1
-10748	-2992	12740	-1883	5635	4117	-16252	-204	-300	-8866	10008	560	-19208	652	-1696	-9263	8880	-701	-32768	-13664	-17956	4122	-17288	14412	-12276	-3680	-13056	-5651	-13769	13056	-18600	-3060	26024	-15205	5521	5882	125	253	1
-10788	-992	14264	-1786	11724	2605	-18812	-724	-1244	-12978	13563	3172	-18820	-2016	-4244	-9665	5350	1135	-32768	-15520	-26008	5512	-4251	6899	-9172	-5040	-7940	3199	-2341	2941	-17112	-11948	23040	4031	4182	-2473	123	236	1
-11244	-2928	14544	-1363	15489	2396	-18472	-2756	-3684	-6447	14923	3878	-17904	-3016	-5296	-9051	3211	2518	-32768	2040	-18152	-5161	12774	2579	-4728	1728	-10080	9955	9741	-950	-18720	-4572	13620	15428	276	-6771	135	157	1
-11064	-5184	13620	-490	19220	4213	-19292	-836	-3020	-4107	15578	4652	-18808	-2836	-4432	-6386	1354	3562	-25632	8640	19360	-8235	24083	-3772	-18208	6252	1492	7876	18317	-3856	-10976	2176	11068	19780	1856	-2030	132	122	1
-11192	-7096	13720	2634	23878	7902	-20080	-3964	-2588	-4852	16264	4687	-20868	-5516	-2240	-4835	-381	4569	-748	-8312	10284	-5137	28304	-6869	-32768	5260	13308	-2977	7155	-257	-16640	4260	-9376	19895	18414	4144	127	89	1
-12236	-9492	13120	5661	31202	14192	-23980	-4620	824	-3489	16929	5180	-24252	-5836	1544	-3474	-3806	4016	-32768	-7352	32767	-5930	32767	-12902	-11144	-3556	-40	-19886	12389	-2372	-25696	3788	7636	-10997	3733	5771	124	53	1
-9596	-3520	15788	5334	32767	21913	-26260	-672	2632	-3210	18137	4574	-26312	-2708	9876	-2236	-13000	4443	-32768	22108	26240	-15621	7085	-23461	-28080	-1908	-12068	-14027	18385	-8551	-27196	9536	4832	-20862	6946	3572	131	64	1
-16532	-8872	13304	4982	32767	28675	-30052	884	7880	-16100	17181	4554	-24604	684	11920	-5965	-20135	2793	-12504	-7476	27000	-15270	2857	-13546	-26864	1164	-5008	-12851	16101	-2049	-19888	-7456	-8420	2396	12883	-6882	131	156	1
-32768	-12040	15992	11084	32767	32767	-26376	-5004	6896	-26061	17737	4655	-24032	5180	6568	-6842	-16822	3597	-10672	12516	11660	-7788	-894	-5324	-13212	-1136	-7400	-15531	16411	-6009	-7024	528	-9552	-2145	15247	-1596	132	100	1
-32768	-10608	18292	46	32767	32767	-20508	-14744	-3884	-18929	22658	5009	-21296	-5212	-3316	-8935	-16798	-1563	-10608	8092	12720	-2694	-290	-2627	-12180	-5504	-9500	-11287	14034	-4381	-10400	8696	-10152	-6909	10340	-2335	136	123	1
-27824	-16056	14548	4187	30160	32767	-23996	-4568	-7604	-3599	19461	2705	-22100	-1916	-9508	-1915	-18566	-6257	-9988	4576	13212	-2550	-722	-2636	-13736	-1716	-8992	4509	10978	-2439	-17000	-16	-7144	-9072	11114	1974	134	104	1
3728	-18384	11728	1689	29816	32767	-20600	3104	-7620	-172	14166	824	-25936	6452	-8112	3833	-19049	-6622	-9624	4216	13684	-2767	-765	-2517	-23792	2828	-4840	5037	8078	-1219	-16400	-5104	-3192	1592	14056	1656	130	108	1
-32768	-7088	13904	-8094	32767	25886	-15580	3796	-16016	3135	5568	1969	-20916	7380	-8668	2484	-18658	-8198	-9744	2928	14096	-2187	-278	-1901	-15440	988	-2324	-39	7101	-2543	-17744	-2932	-1772	8725	13332	-1083	126	117	1
-25116	-21548	15096	-12989	4756	-4506	-14032	3428	-22900	3771	6009	1651	-20856	7116	-5676	-130	-20871	-8273	-9556	2904	14132	-928	351	-1087	-15128	-264	-1932	-2863	8134	-1653	-15944	2268	-816	7593	12036	-2191	132	116	1
-14908	-20572	13584	-1032	-16070	-19151	-7756	6852	-8512	-22396	-1906	-7002	-20836	6652	-5856	-1446	-20735	-8475	-9004	4592	13412	-341	818	-733	-18356	1352	-2836	-1277	7503	-1142	-15928	4360	-1672	5866	12719	-2210	123	116	1
-5444	-7712	10396	1585	-22518	-22358	-10320	-1268	-7232	-22857	-8203	-9209	-17732	8	-9188	-8216	-16755	-7849	-9268	4316	13484	-331	944	-907	-16280	2592	-3580	208	5871	-919	-14112	2764	-2412	3869	13817	-2213	119	122	1
-2440	-712	8924	-9799	-21923	-23974	-6520	-7292	-8300	-6065	-12260	-9252	-18396	-784	-9480	-6159	-15287	-8956	-9308	4232	13380	-232	932	-973	-16076	1592	-3432	2026	6138	-1708	-14880	2252	-2268	3139	13657	-1312	117	116	1
-11516	-4864	9060	-18663	-23306	-26874	-5432	-2176	-9980	15249	-16518	-12678	-16144	-96	-8588	-731	-15394	-9207	-9296	4192	13384	-196	849	-1195	-16492	1636	-2244	4144	5594	-1575	-15384	3696	-1616	4141	13060	-1727	120	123	1
-14312	-7828	10564	-15443	-29811	-30806	-8024	3188	-10568	24471	-20124	-14180	-13680	1964	-7916	1699	-15678	-9222	-9336	4152	13328	-53	931	-1188	-16384	2756	-2148	2624	6449	-1591	-16440	5768	-1712	2760	11993	-2785	121	114	1
-11536	-3940	10060	-9322	-31554	-32682	-10496	6876	-10044	20191	-26092	-15235	-12444	1596	-8276	-305	-15278	-6696	-9508	4032	13184	2	1069	-1366	-16256	3048	-2372	197	6365	-1925	-16328	6420	-3720	-965	10492	-2382	127	110	1
-13412	2308	9556	-10295	-28978	-32768	-12460	5068	-9440	11440	-30185	-12340	-12252	1292	-8000	-748	-14831	-6406	-9260	4288	13372	-104	1274	-1480	-16156	2304	-3292	-1843	6623	-2587	-16664	3996	-3924	-3504	9765	-1730	133	110	1
-17636	-2044	10240	-11876	-27842	-32768	-9380	4156	-10132	8556	-32768	-11304	-9704	1904	-9356	-186	-10368	-4937	-7116	2916	13032	-80	1184	-2319	-16388	852	-3808	-947	6705	-2378	-16076	2208	-2636	-2520	9930	-1242	133	119	1
-20960	-4192	12256	-7262	-27918	-31893	-9244	4372	-12328	4871	-32768	-13629	-8560	3392	-10380	530	-7884	-4830	-9732	3980	13476	350	1162	-2112	-16408	-672	-3856	1523	6732	-2219	-15464	648	-3060	-346	10655	-1371	133	123	1
-22408	-2120	14732	-7332	-29583	-31928	-10348	1516	-12772	5052	-32768	-13593	-6332	2884	-10424	-305	-5028	-3849	-9332	4324	13508	126	2342	-2566	-17176	584	-4376	2799	6734	-1824	-15540	696	-4284	422	11616	-1706	132	122	1
-25580	-7248	15924	-9128	-30727	-31792	-13828	1320	-13312	7341	-32768	-12560	-4108	2864	-8644	1482	-1154	-2709	-9460	2536	13972	143	3747	-2362	-17984	-2380	-4384	1815	6565	-1664	-16712	-1344	-4904	-303	11777	-1472	124	121	1
-32768	-15044	16208	-3740	-32731	-30397	-19960	684	-11444	7283	-32768	-15152	-4200	3588	-4648	4740	1186	-2628	-9420	2436	14048	803	5358	-2104	-17560	-1932	-3944	2944	6609	-1880	-16744	-3784	-3652	1814	10608	-1585	122	118	1
-32768	14256	13436	-9638	-28868	-32768	-20380	-3424	-8056	15616	-32768	-11868	-6268	-1400	-2588	6637	699	-4002	-10132	3172	13476	1755	7508	-1996	-17536	-1556	-4416	3022	6610	-1806	-17920	-1584	-1192	3984	9803	-984	126	120	1
-32768	6060	5912	-13056	-25109	-32768	-20312	1244	-10188	18984	-32768	-4832	-15460	-7076	6680	13578	-7613	-8110	-10120	3788	13124	2016	9490	-2150	-17420	2072	-1376	9871	7559	-2200	-16080	3996	1240	6960	9129	-69	128	124	1
-32768	18352	1444	6177	-19228	-28933	-25576	-2176	-4300	3421	-27946	1731	-28064	-13532	16260	11661	-16476	-18889	-10184	4176	13752	1467	11315	-2684	-16320	5416	-4	9998	9138	-3880	-17844	7040	1048	8054	8620	-289	75	126	1
-32768	12412	-28968	17762	-19340	-8121	-9952	14996	-19100	13023	-17820	-1297	-23732	-1780	17896	16928	10492	-14510	-10184	5376	12868	1458	13658	-3765	-17368	4464	1412	6020	11172	-5374	-19152	4544	2492	10143	5565	-1280	9	125	1
-32768	32767	-27888	-18918	-9827	1442	6712	-420	-6676	-1744	2535	-5600	-15484	3588	30188	8307	2182	8704	-10012	4640	13496	701	17014	-5492	-17492	4072	1708	5956	11525	-5491	-18740	3460	2132	8499	3527	-312	57	124	1
-16712	-15320	-10604	-1960	20	6419	-6296	2596	-8224	-3131	18364	-1800	-18236	11340	17648	-4066	8468	15371	-10292	4888	13392	-259	21475	-7173	-18968	2080	300	7251	14595	-7476	-19344	3796	2800	9669	1391	-80	78	123	1
-4428	-7572	30392	20845	7718	22971	-28428	3788	10700	-9365	10326	4551	-18084	9984	-8408	-11760	18508	9998	-11564	5056	13732	-1739	27138	-9437	-21960	2228	928	8381	15443	-8393	-22460	6752	3296	10568	-1785	-1405	104	125	1
-3220	4212	-812	16065	25128	17947	-32768	-11500	10064	6928	2826	-6317	-12540	5612	1052	-22507	10011	3182	-12680	6196	14572	-2340	32767	-13038	-26844	1528	3624	9879	17099	-8621	-25248	5440	6028	8070	-5572	-1289	91	124	1
-32768	-5176	25232	14258	29970	17020	-8440	15236	5740	16640	11664	-73	-24012	-10804	8872	-4937	-2656	-4190	-14744	7724	14372	-433	32767	-18430	-28416	864	5368	13748	17842	-8261	-24388	1884	12452	9334	-16612	-1450	77	115	1
-32768	-18340	23676	14625	12006	18682	-30708	-3944	-7888	4903	21095	5259	-29668	-5556	1432	15217	12777	-7798	-23512	6580	15732	3579	32767	-22293	-29368	4152	2608	18324	18698	-7695	-23268	-2652	10636	7613	-18732	-756	72	123	1
-11052	7400	21616	8046	1878	6794	-31080	1548	-8752	10133	16566	-343	-21336	16468	-16328	-6913	8393	4583	-32768	14840	24368	13604	32767	-23751	-27984	7972	-2208	21595	18904	-7455	-25916	4212	-576	10473	-16742	144	127	119	1
-9592	-4428	12432	3236	3779	1370	-14232	5928	-9128	7265	17349	1900	-8272	7760	-10228	-16477	8307	3132	-32768	1104	25192	18051	32767	-25889	-20812	6944	-9660	13718	18645	-8597	-22796	7144	-7972	9233	-18249	3964	173	114	1
-9908	-4092	11772	-103	3717	-592	-13324	-3268	-7928	1383	13443	723	-6596	-9564	-13896	-9545	9451	8218	-20304	13956	24004	24320	25901	-20815	-22848	-2448	-11956	4004	16852	-8283	-24008	6676	-11796	-1485	-18945	4947	158	104	1
-11900	-6140	9780	-402	1467	296	-6796	-5840	-8608	-5275	10159	1003	-13960	-8392	-12428	2744	8685	3798	-32768	18372	26324	15159	14147	-16762	-18416	-9860	-16324	3624	10673	-3566	-24440	5848	-11104	-4196	-19426	5164	169	103	1
-11672	-5572	10240	-286	211	1162	-18956	-5920	-7932	-5042	7053	-960	-14684	-556	-10108	6074	11939	1160	-11780	25856	21496	-1088	-12670	-3311	-11068	-3848	-9672	14382	5014	-6276	-21772	-2088	-7264	-12264	-22211	4243	155	87	1
-10812	-4576	10880	-336	-651	1205	-23292	-2212	-4912	-5944	4114	1658	-17100	2784	-7084	1564	12915	2744	2400	7576	12308	-6864	-17174	-7479	-11096	308	-5984	19564	-2022	1193	-19608	-208	-6028	-3774	-21518	5363	164	92	1
-10928	-3580	11504	-278	-532	649	-14088	360	-4324	-6165	2760	172	-16480	2172	-5468	-2769	14222	5643	1212	2484	10736	5096	-16643	-1318	-6092	1992	-6100	8395	-6202	5477	-16576	2044	-7904	-1139	-17754	6461	161	135	1
-10912	-3412	11500	-820	292	-282	-15200	-1824	-3252	-6094	2960	409	-15792	-608	-4900	-4253	16836	5870	-2172	14308	9792	9908	-18311	5883	-6820	-1268	-6548	-3722	-8965	7557	-17488	-328	-7444	-2958	-16904	6107	152	143	1
-10704	-4508	11092	-1582	996	-920	-18644	-3472	-2188	-2748	2054	1081	-14016	204	-3800	-2500	18558	5924	-6736	18272	10732	2563	-21597	12084	-7136	-4432	-7712	-8452	-13550	11931	-16740	-696	-8020	-3629	-17292	7257	146	148	1
-10488	-4800	10636	-1858	1063	-1009	-16684	-2744	-780	-3209	1391	1135	-13028	-212	-2864	641	17598	4530	-10748	14460	12176	-1529	-26964	21459	-8124	-3728	-9384	-8418	-17854	14069	-15680	616	-7136	-5591	-15768	8885	157	132	1
-10660	-4824	10396	-1856	699	-825	-12796	-1816	-916	-7897	1745	1441	-14532	-2712	-708	-408	14271	2213	-11384	11880	10932	-1948	-31358	28108	-9596	-1920	-8880	-10758	-21990	16612	-14212	1508	-7308	-7323	-14510	7659	139	142	1
-10520	-4948	10336	-1846	565	-768	-14716	-2496	-48	-12332	1340	703	-14212	-3260	-1208	-1041	13882	1601	-13408	5736	10224	-589	-32051	30846	-9376	-1772	-8668	-11435	-22702	17023	-11440	324	-8460	-11173	-12385	6370	133	150	1
-10596	-5588	10184	-1392	-487	-38	-17184	-6452	2580	-8600	2671	1641	-20516	-5184	-2928	2909	10884	2713	-15616	1544	12060	4456	-31779	29948	-9732	-1764	-10124	-25860	-27453	19832	-9948	-1328	-8236	-10892	-10227	5663	135	142	1
-10504	-5708	10324	-812	-582	643	-15668	-4624	2964	-1395	4265	2236	-19492	-3824	-1648	4386	8693	2180	-21032	5676	14536	7455	-32768	28191	-12640	-6588	-10712	-28872	-31508	18992	-9020	-3176	-8212	-6742	-6311	3641	140	138	1
-10188	-5624	10428	-24	-1019	1286	-13972	-3356	3620	910	6225	2432	-16932	-2548	1148	1056	8084	3933	-22988	8420	17156	5035	-32768	29367	-16292	-12016	-12312	-18622	-32768	17825	-9640	-3476	-8968	-3195	-2928	2001	144	135	1
-11584	-6572	9796	968	-1708	2447	-15004	-3404	4124	1139	7928	2464	-16380	-964	2064	-413	8681	4487	-26168	7648	19500	3065	-32768	31333	-16936	-11620	-13420	-1069	-32768	19188	-9832	-4372	-7172	488	25	1853	134	137	1
-10132	-4360	11132	1106	-1067	2914	-15276	-2536	1284	3486	9566	2248	-17948	1592	200	-254	9580	3316	-29872	5404	20696	3440	-32768	30135	-19652	-5168	-10732	6994	-32768	21468	-8156	-3800	-3268	46	1565	3093	122	141	1
-10652	-3892	11848	459	193	2516	-17244	176	228	931	10450	2808	-17260	2972	-2100	-2934	8823	1644	-32768	1324	20052	7505	-32282	26151	-19108	-1148	-10196	2827	-32768	23617	-8132	-320	-2076	-1447	781	4726	120	147	1
-9816	-4872	11252	144	1484	2489	-16956	-212	-944	-3753	11153	2931	-15788	864	-3412	-5018	7941	1023	-32768	-1372	15260	11301	-32768	20138	-20688	56	-7416	-4079	-32768	22287	-14068	960	1132	-4523	-4709	5510	129	140	1
-10204	-4912	10852	-59	2074	2942	-15344	-3064	-464	-4967	11694	3170	-15028	-2376	-3212	-5055	6831	887	-32768	-4924	7756	9496	-30962	14636	-25188	-1160	-8208	-11917	-31210	16559	-22136	1076	15648	-7726	-10935	8285	119	160	1
-11448	-5532	11288	-110	2211	3687	-14640	-3128	472	-4045	12465	3520	-15288	-3620	-2284	-4494	5607	1005	-32768	-14024	-1940	3891	-22162	11208	-19344	-8192	-6368	-3696	-20588	11309	-18612	4268	20456	-5309	-2675	11556	131	239	1
-11164	-5584	11332	-1197	3371	5112	-15672	-4756	-1352	281	13820	3702	-17100	-2512	-3404	-4600	4400	2209	-32768	-13848	-4888	2761	-20871	9743	-7628	-7972	-5504	8359	-10042	7291	-16644	3072	24472	4729	5578	5376	137	223	1
-11148	-4040	13300	2380	6963	6510	-18436	336	-2316	860	14799	3937	-18240	-1520	-5224	-4239	2744	2678	-32768	-28716	-19728	8418	-10032	-15973	-5728	836	-3052	13823	2279	1545	-19056	-1484	22992	9939	-3165	-4182	139	176	1
-10944	-4136	13792	2215	10146	7374	-19708	824	-3748	-1407	15351	4475	-17756	1848	-5160	-3893	494	2037	-32768	-16756	-11552	-1311	-175	-24864	-10624	-4204	-6184	8825	15311	-7820	-19552	-1044	11904	7008	-3993	-7316	132	150	1
-11888	-4268	14296	1974	14502	8572	-19764	612	-6752	-2134	15462	4159	-17856	2960	-5588	-6459	603	3432	-9440	2416	31412	-13522	6675	-25753	-24948	-4288	5760	21236	17462	-8488	-17996	-2100	4268	13653	-211	-5452	127	143	1
-10024	-3284	14664	3162	19637	10193	-20888	1060	-4624	-4880	15155	4869	-19544	-3392	-5432	-5833	141	4593	6620	15092	-484	-3651	18301	-17233	-32768	5356	12472	19762	5317	3539	-7188	-5112	-10896	24761	8139	-4511	132	140	1
-10588	-6220	14204	3885	27869	12935	-22784	-3428	-960	-4803	15158	6448	-22236	-4768	-584	-3706	-3529	4117	-20448	6012	18520	-3828	32767	-5199	-6376	3332	-4704	-721	8735	-5485	-15436	-4172	520	4087	7887	-2588	129	93	1
-10628	-7484	14344	3636	32767	18139	-23868	-1240	1076	-2145	16088	6026	-24700	-3436	8756	-3191	-12546	4442	-26776	-9196	21196	-5100	17845	-11989	-24756	5008	-8996	-11481	11714	-9669	-26396	25476	424	-7467	7529	7846	130	63	1
-14100	-7732	13352	2459	32767	23583	-28896	1108	10136	-13397	16334	6453	-23780	-1508	9460	-5128	-16291	5155	-18220	11812	6668	-16713	-1246	-10649	-26804	6356	-11172	-16866	15409	-9153	-21368	2652	-3716	-3512	9501	-1145	133	119	1
-21020	-15028	10100	8696	32767	32510	-27116	-3508	9636	-24765	16547	7178	-24364	2708	10320	-3896	-17560	5848	-18436	-1272	16640	-9678	-1135	-5868	-16940	-5840	-8224	-25330	15064	-5567	-15000	-6956	-7224	-52	14912	-395	139	103	1
-32768	-1108	11504	5707	32767	32767	-20016	-10820	-1320	-18978	19051	5934	-20640	-4420	6108	-5015	-18151	3807	-8940	-412	17556	-4090	-1130	-2838	-16088	-13352	-5084	-15501	12634	-3281	-12556	-4032	-3596	2065	12776	-1171	138	136	1
-32768	-18120	15084	1733	32767	32767	-23460	-11840	-9316	-5424	22862	8498	-20732	-9356	-6556	-2505	-17489	-2056	-9204	4612	13644	-1252	397	-1614	-15452	-9432	-6164	17641	9810	-3360	-14848	3964	-4724	3537	10145	-4844	141	153	1
-23248	-12872	15560	4417	25418	32767	-21172	-2600	-6400	1059	19248	6044	-23268	-4068	-10040	4598	-17929	-5538	-9036	5372	13136	-647	958	-1361	-18232	3632	-6568	29654	7102	3	-16072	3592	-4800	2799	10212	-918	141	123	1
6856	-21476	11600	3530	29920	32767	-17112	-3188	-10140	4050	10920	3099	-24916	3748	-9428	8048	-17500	-5766	-9604	4904	13364	-505	1020	-1600	-19060	13428	-2224	16461	4934	-1354	-16840	-532	-904	6453	11247	404	132	119	1
-32768	-18960	17340	-5791	13698	7210	-11940	-36	-27916	10537	7154	6001	-20912	3328	-8612	7087	-19553	-7168	-9744	4652	13688	-151	956	-1457	-12860	10052	-1040	-9707	7200	-3269	-16208	3132	-2032	9290	12076	-1756	128	105	1
-18516	-27620	13704	3391	-13352	-15716	-7896	5240	-12820	-6471	3233	1392	-19832	564	-7756	2780	-19862	-7520	-10252	3732	13508	476	1633	-716	-17568	1032	-4796	-19555	7269	-4357	-16320	4784	-3092	8191	11442	-3946	128	94	1
-17020	-25868	12788	6400	-16179	-16610	-8268	-4028	-7992	-14633	-5033	-1664	-17500	-3584	-9012	-1306	-17305	-8091	-9060	4340	13684	1106	2120	-359	-19528	-4808	-5552	-9347	5670	-2341	-16060	4080	-2776	6947	12209	-4364	108	97	1
480	-3592	6628	7795	-27875	-15957	-8752	-9500	-10380	-4690	-11711	-3409	-17928	-4420	-10708	-853	-15358	-9660	-9132	4288	13580	1240	2500	-333	-16800	-5396	-5396	11903	3790	-1034	-14680	732	-3960	7824	13147	-4230	115	114	1
-4240	-4100	6008	-4905	-24811	-17743	-4428	-9088	-11216	17585	-16063	-3013	-18236	-3888	-10824	3604	-14013	-9539	-9740	4604	12924	1357	2161	-350	-15900	3024	-4968	22099	2855	-860	-13724	40	-4012	12150	15059	-2346	114	133	1
-16280	-12872	4988	-6938	-30501	-21023	-6076	-2732	-14740	29767	-19807	-6097	-14736	-2592	-9088	8887	-13552	-10010	-9688	4820	12820	1175	1904	-452	-16028	9172	-2872	13322	3567	-1135	-14820	2420	-2492	14924	16056	-2487	114	115	1
-16808	-10260	2208	-1433	-32768	-22947	-6812	1456	-10296	25253	-24506	-6149	-13504	-2948	-9224	13168	-14159	-10628	-9700	4752	12832	897	1807	-618	-15968	6396	-2352	29	3996	-2731	-15872	6488	-2460	7539	14498	-2992	117	96	1
-16240	-4388	876	-706	-32768	-26000	-8332	2472	-13832	19231	-27564	-5530	-13040	-1436	-7948	15042	-13360	-8036	-9684	5008	12600	424	1296	-899	-15844	1180	-2876	-598	3310	-2853	-15088	8820	-3768	-389	13109	-1436	121	104	1
-17584	-2828	616	-3661	-30772	-30769	-11548	1256	-11608	13066	-30730	-2427	-11436	1228	-8308	15250	-11755	-5139	-9672	5140	12428	-283	608	-1203	-15000	1804	-2532	4349	4248	-2877	-15172	5948	-4032	-1284	10220	-1585	129	119	1
-20588	-7132	2604	-300	-25939	-32768	-9808	3400	-12364	8445	-32717	-5341	-10272	3336	-9224	15197	-10546	-3702	-7044	4052	12304	-478	-155	-2080	-15428	4040	-2500	4375	4514	-2956	-15836	3120	-3164	-1820	8957	-2422	126	118	1
-21228	-5132	5900	3252	-23787	-32768	-10668	316	-13608	5239	-32768	-7381	-9808	5592	-8180	11650	-9076	-3812	-9612	4508	12880	-519	-117	-1588	-16100	2160	-1912	1503	5034	-3542	-15956	2728	-2380	-1711	9083	-2721	93	116	1
-22688	-4312	9612	374	-24120	-32191	-11672	-2408	-13004	10254	-32768	-7367	-9640	6036	-8220	5569	-5633	-3925	-9696	4328	12944	213	-79	-2018	-16656	1224	-1660	583	5623	-3645	-15148	2880	-2364	-1266	9567	-3094	93	119	1
-26688	-7664	12208	-2288	-26438	-29691	-13936	-2320	-13000	16002	-32768	-8640	-8912	5628	-6692	9	217	-3921	-9652	4580	13032	576	274	-2147	-16184	2228	-2148	-128	6267	-3694	-15508	1064	-2336	-1010	9528	-3473	111	123	1
-31668	-8656	13360	-3646	-29511	-27219	-17540	-584	-12752	19649	-32768	-9749	-7892	5524	-3980	-1890	4187	-3988	-9508	4516	13184	863	739	-2466	-16752	2376	-1960	-553	6952	-4186	-16384	-384	-2132	-691	9310	-1776	120	126	1
-32768	1956	11752	-9472	-29641	-28603	-20636	3228	-10160	14773	-32768	-8566	-8108	2388	-2288	570	3933	-5482	-9108	4208	14208	-345	2656	-2321	-17764	864	-1836	-39	7820	-4703	-18452	416	-1876	476	8795	-1399	129	126	1
-32768	4992	4856	-14632	-26519	-26883	-21724	4420	-9604	4620	-32768	-7410	-11872	-684	1012	5340	739	-7492	-9480	4160	14048	-204	4919	-2362	-18348	168	-1144	2232	8396	-5270	-17692	3244	-816	2589	7687	-1254	128	125	1
-32768	19356	2924	-14851	-20919	-21225	-19552	1768	-17540	-7993	-30265	-5618	-21912	-4184	14164	10432	-14480	-14572	-9384	3800	14080	-207	5239	-2319	-17976	2920	-648	1595	9514	-6195	-17896	3632	-252	2969	7481	-1764	114	124	1
-32768	21400	-10056	-17375	-15717	-18099	-17988	2268	-12408	-24388	-24275	-4436	-26724	3524	13684	4131	-4131	-16949	-9800	3880	14336	690	11657	-2712	-18876	2516	-1156	-184	10963	-7618	-19824	3196	280	3727	6918	-2592	54	123	1
-32768	27872	-25092	-14082	-19227	6633	-1848	1152	-7316	-31367	-7867	-5363	-19020	-1768	19944	-8702	4133	-10582	-9524	5228	15076	604	15922	-3864	-20356	492	-380	2581	11814	-7923	-20760	2292	468	6297	4707	-2432	84	127	1
-32768	31972	-24656	-21576	-7232	12501	-2384	-6564	-4800	-8714	7761	-5880	-13712	-428	21828	-24009	5074	4189	-9136	5656	13804	240	20686	-5895	-20452	580	72	3512	11874	-7937	-20928	880	764	5550	1159	-1633	99	130	1
-1776	-20032	9596	19233	-4372	3594	-10884	2820	-9812	2506	22683	-82	-9696	-3376	7984	-18450	5861	7844	-10460	5052	13416	-533	25868	-7849	-19824	536	-944	5739	14056	-8855	-20116	1240	1556	7968	-753	-1868	104	130	1
13924	-26220	32767	21753	9704	3931	-32768	3064	26916	-12331	4432	4669	-16016	-348	-11040	-13724	19068	11498	-12036	4576	14288	-805	32745	-9045	-23468	776	-180	5820	15106	-9717	-22332	4672	2028	7945	-2843	-2444	122	128	1
-3668	15704	5020	18182	22638	9752	-23668	-13796	-5528	27720	7342	-1580	-22020	-10200	1552	-7044	11981	-1635	-11676	7272	13904	-1307	32767	-12208	-26644	196	3204	8313	15346	-9966	-24084	4672	6920	9095	-9096	-2690	117	119	1
-32768	10708	29424	7167	15232	21207	-976	9848	-60	32767	14760	3491	-31740	-17812	12856	31182	-8419	-9668	-17704	6428	13880	-2113	32767	-17071	-28828	4156	6508	16402	15132	-10367	-24040	4244	13728	7632	-20777	-2153	86	111	1
-27444	-25216	11572	10186	11068	13111	-32768	4580	-10196	24599	21284	6126	-21652	5224	-264	28345	16222	5422	-22572	5164	13060	2321	32767	-18074	-29092	9516	7940	19766	16973	-11833	-22888	2996	9732	3723	-16860	-3074	100	107	1
-9348	11616	19772	12306	2760	9627	-17440	788	-9440	6331	14375	-1136	-13384	19360	-12804	749	17466	12117	-32768	17768	22956	5656	32767	-25552	-25884	14756	-2272	14885	18592	-12221	-24200	9732	1628	3676	-18467	-341	147	101	1
-12552	-8116	10528	6921	-132	5709	-11108	24	-6404	9057	15715	-990	-9584	5372	-7708	-5439	11807	5723	-32768	6124	28664	8689	32767	-23743	-22652	7912	-11624	-1040	18825	-14932	-23268	13336	-6816	-121	-20415	3250	95	96	1
-11696	-556	13516	5720	158	4855	-12216	-1060	-7932	-1646	12142	172	-9844	-6656	-11964	-5132	6825	318	-9376	16900	22276	14925	28109	-16573	-24428	-1700	-10028	-7378	16512	-14609	-25516	8868	-11596	-9512	-20242	5185	126	107	1
-12320	-6100	10464	4106	-119	3723	-15292	-2960	-7476	-10614	8436	-477	-13512	-3792	-4972	-4641	10478	-2328	-32768	32767	32767	9417	6128	-13026	-16596	-11552	-24064	-12431	11050	-12133	-25636	-932	-8972	-19134	-26015	3375	146	104	1
-10724	-3624	11904	2143	-180	2485	-19276	-3640	-4124	-9205	6715	7	-17528	5188	-4760	-8554	15364	-943	-9288	30632	19904	-16167	-17621	-4353	-12940	-3788	-9128	4070	4431	-9349	-23676	-3072	-4556	-16439	-27032	2812	166	120	1
-10612	-2880	12408	1029	258	1508	-18360	-3180	-1500	-4398	6794	437	-19804	-256	-2592	-11553	12755	2124	504	5676	13388	-16530	-21590	-6680	-11796	-1540	-7128	13482	-3302	-2779	-20208	836	-5548	-4707	-22421	5370	175	159	1
-10080	-3508	11980	403	706	874	-16032	-1732	212	-2291	7528	993	-15280	-6856	-1660	-7964	11637	4598	1188	3088	10908	1396	-22687	1334	-7528	1072	-8988	6656	-8400	1507	-18580	4448	-7768	-3654	-19984	5668	173	142	1
-10492	-4800	10852	266	226	589	-13848	-5312	-432	-3918	7479	1235	-14552	-7504	-1356	-1674	10323	3615	-2116	17032	8676	4471	-24470	7534	-5408	-1848	-8392	-1691	-12336	4550	-20432	912	-7724	-4118	-20401	4461	154	148	1
-10112	-5332	10808	406	47	953	-14352	-7568	-872	270	7386	1414	-13040	-4296	-2448	1291	10613	4341	-4448	19708	7984	-5448	-26026	11227	-6072	328	-8148	-6554	-17121	6818	-16844	2516	-7932	-7819	-19593	5553	162	148	1
-9792	-5012	11128	402	428	1682	-16476	-3912	-1616	2653	6997	978	-14640	-240	-4092	-1133	11982	3312	-6992	13216	9124	-6562	-28456	19207	-6524	-1084	-9320	-10888	-22132	11142	-14832	-84	-7508	-7763	-18233	5137	150	158	1
-10152	-4464	11820	139	767	2296	-16900	572	-832	-3301	6225	1859	-16768	-352	-2312	-3486	12071	2697	-7100	13448	8280	-3525	-29664	26244	-7524	-2484	-9236	-13415	-26130	13335	-12376	260	-8428	-9006	-15758	4331	122	159	1
-10552	-3484	11672	-350	1166	1839	-15968	-2288	-712	-8455	6534	1507	-16664	-2480	-1440	-2253	11797	3450	-10460	11860	9760	-3854	-29308	29846	-7840	-2244	-9828	-16096	-30357	15951	-11000	-1892	-9116	-9921	-12058	3080	127	148	1
-10764	-4084	11232	-693	1527	1587	-15648	-5496	-884	-4832	7391	1348	-14468	-3116	-132	522	12307	4240	-11212	11152	10096	-3925	-29362	30203	-7912	-1796	-10608	-20084	-32768	16943	-9280	-2204	-9164	-5830	-9120	2273	130	143	1
-9840	-4520	10836	-585	1609	2121	-15172	-5040	-888	-699	7833	1830	-15296	-2764	-492	-1270	12144	3202	-21740	6816	16176	34	-32768	27918	-10296	-2672	-12360	-21664	-32768	16338	-7608	-1212	-8580	-1145	-5747	3180	129	138	1
-9764	-5208	11248	-128	1623	2215	-14524	-2616	-2400	42	8616	2121	-14944	-1092	-4056	-2268	11660	1456	-25716	10076	18004	806	-32768	23957	-13840	-5672	-14224	-17890	-32768	16102	-8816	-1144	-9552	1609	-2091	4270	134	130	1
-11732	-4160	10916	-111	1784	2476	-15424	-584	-3140	-4281	8690	1476	-15836	-2344	-5012	-1296	11036	2393	-31524	13804	18880	268	-32768	23698	-17364	-7576	-14680	-6356	-32768	16924	-8904	-2816	-8608	1865	1386	4038	141	128	1
-10688	-3180	11644	-700	2634	2399	-16532	-1480	-3964	-7021	8645	1676	-16280	-2696	-4992	-2583	11278	3877	-32768	12796	17568	417	-32768	26311	-19896	-5820	-14576	4847	-32768	17831	-6316	-2140	-3672	-1345	1129	4897	132	128	1
-11552	-3744	11704	-1556	3608	2366	-16404	-3080	-2736	-5688	9136	2286	-15968	96	-4264	-1654	10070	3264	-32768	4624	12556	5744	-32768	24422	-19796	-4140	-14200	9266	-32768	20784	-9728	1000	-1968	-2420	-2151	6310	135	141	1
-11668	-4408	11004	-1445	4398	3295	-15824	-2976	-768	-4278	9744	2225	-15588	-192	-1280	-2032	8847	2039	-32768	-128	4192	12859	-32768	16703	-18152	-776	-11380	8634	-32768	22677	-17956	1512	4004	-5613	-7419	6868	128	151	1
-11056	-2660	12008	-127	6203	2679	-15876	-304	-1312	-4466	11277	2439	-17628	-1524	-476	-3127	8224	1082	-32768	-7924	-4808	16891	-32768	9414	-19680	-1404	-11132	4251	-25728	20428	-30548	-104	20180	-5627	-9695	6590	135	192	1
-10900	-3616	13172	-181	8475	2774	-17396	-448	-388	-7201	12640	3913	-17520	-968	-1252	-5704	6384	2062	-32768	-15208	-16048	16336	-21716	6495	-15096	-6200	-10236	7479	-12653	15928	-14848	7848	28196	6306	530	7944	132	227	1
-11788	-4176	12764	149	11773	3133	-18728	-2272	-2456	-6288	14026	3762	-17984	-792	-1600	-6003	6311	2234	-32768	-15324	-24324	6592	-9812	702	-6080	-4340	-6160	12397	-1594	5578	-12216	4088	20860	8173	7540	3658	132	183	1
-10940	-5184	13656	1363	14569	4819	-18752	-1964	-2972	-4694	14920	4416	-17920	-1840	-3672	-6600	2330	3527	-32768	-19948	-22404	2249	692	-6861	-3984	2184	-6296	8260	12628	-2182	-17280	4064	14264	9807	364	-800	133	118	1
-11616	-6096	12404	2435	18337	7960	-18508	-1480	-3060	-3191	15954	4603	-17520	792	-2328	-6286	299	2992	17992	24800	27456	-32768	18574	3417	-12424	-592	-10708	-105	23880	-8851	-15420	4612	15564	8618	-2447	-4167	134	103	1
-11140	-5056	12204	3285	23365	11588	-18452	244	-4260	-3419	16950	3737	-18340	-228	-556	-7975	-980	3644	15704	0	31272	-10842	12310	-2072	-32768	5412	23888	4598	8980	-6884	-6428	6296	-18140	19707	20241	-3296	129	104	1
-11736	-5504	14428	3918	30091	14287	-22640	-1444	-1256	-7865	16906	4319	-23336	-4832	2420	-6471	-5881	4320	-4944	-13080	3456	-5681	32767	-8406	-12180	-7356	-5400	-22033	8327	-549	-23592	-5868	8592	-23033	3111	-234	123	56	1
-12696	-6960	13844	3138	32767	20862	-29276	1848	2504	-10820	16872	4296	-25468	-892	11276	-6171	-14384	3735	-32768	-2920	31620	-6240	22953	-13484	-18464	-8420	-6376	-13350	15024	-12559	-30304	16000	13052	-24403	7593	2761	121	57	1
-16608	-12916	11472	3764	32767	26252	-28656	256	10016	-22405	16819	4302	-24460	7692	12684	-6208	-14757	5737	-24120	24164	16680	-5843	14432	-9455	-32768	-896	-8600	-16501	14771	-7104	-26464	-17208	-2808	-9129	11293	-7465	130	166	1
-32768	-9768	14596	9402	32767	32767	-25172	-7844	4404	-26914	18265	3999	-23724	-2204	7056	-14050	-15608	4536	-2704	-11296	25072	-9939	3086	-9088	-15000	-888	-6828	-14086	16506	-3193	-12908	-5228	-14488	11716	11927	976	130	124	1
-32768	-5308	17152	-430	32767	32767	-24564	-15116	-4532	-15381	21856	5526	-24796	-12256	-4000	-12497	-15595	-1277	-11708	11344	11988	-6503	426	-4907	-13772	-3228	-10624	-11205	15490	-4693	-7160	10952	-9032	5566	11300	259	141	194	1
