#Activity	walking 
#ActivityID	1 
#Date 08-18-11-47
acc_rf_x	acc_rf_y	acc_rf_z	gyro_rf_x	gyro_rf_y	gyro_rf_z	acc_rs_x	acc_rs_y	acc_rs_z	gyro_rs_x	gyro_rs_y	gyro_rs_z	acc_rt_x	acc_rt_y	acc_rt_z	gyro_rt_x	gyro_rt_y	gyro_rt_z	acc_lf_x	acc_lf_y	acc_lf_z	gyro_lf_x	gyro_lf_y	gyro_lf_z	acc_ls_x	acc_ls_y	acc_ls_z	gyro_ls_x	gyro_ls_y	gyro_ls_z	acc_lt_x	acc_lt_y	acc_lt_z	gyro_lt_x	gyro_lt_y	gyro_lt_z	EMG_r	EMG_l	act
-9308	-7412	15296	-2061	-21777	654	-17764	3708	-3560	-7131	-25024	4824	-12408	1588	4900	7230	-5016	1971	-9328	5008	12128	-70	11	-66	-14624	6040	-3512	122	211	22	-15256	4208	608	22	564	-123	126	104	1
-11076	-7060	14664	-1073	-19239	-565	-17696	2704	-4232	-7772	-24705	4582	-11620	688	5480	1787	-2684	1927	-9144	5224	12136	-90	26	-97	-15304	5672	-3200	-45	329	-22	-15784	3872	680	55	594	-58	127	117	1
-14272	-5752	15728	-867	-17238	-1417	-17948	1536	-4824	-7094	-23958	4275	-10324	-764	6772	-2268	597	1819	-9256	5128	12152	-112	35	-111	-15120	4592	-3104	160	385	-36	-15624	3016	1248	176	579	-45	119	124	1
-16584	-3612	14540	-2353	-15892	-1975	-18100	2372	-4324	-7646	-22281	3944	-12344	-804	10552	-1632	760	1347	-8984	5120	12288	-124	58	-136	-15168	5632	-2960	297	448	-25	-15808	3448	800	364	572	-54	125	119	1
-18604	-3044	13196	-3211	-15803	-1614	-16340	828	-4884	-9341	-18908	2640	-14272	-612	11592	-1219	374	446	-8952	5280	12104	-129	84	-177	-15256	5992	-3576	195	528	-66	-15880	4768	-912	352	606	-41	128	128	1
-18716	-1852	9260	-3395	-15497	-237	-15304	-700	-4272	-8050	-15536	1467	-13768	1812	12344	-506	235	19	-9160	5264	12072	-149	104	-223	-15392	6232	-3824	177	535	-73	-15160	4880	-2008	228	657	-32	129	126	1
-17648	-68	4780	-5331	-13010	628	-14428	1184	-4224	-6123	-11047	426	-14784	1624	12072	-133	-145	55	-9344	4872	12408	-117	167	-231	-15792	4496	-5512	-8	620	-148	-15640	4192	-2048	189	680	-82	129	127	1
-17344	8	3948	-5599	-12291	741	-13448	1604	-4016	-6041	-6044	-597	-14540	352	12156	-223	85	131	-9536	4496	12472	-63	285	-214	-16560	4248	-5320	126	652	-162	-16352	3448	-2048	252	717	-154	129	123	1
-17072	-960	716	-3502	-2411	2043	-12852	584	-4756	-4766	-940	-1436	-14032	-652	12120	-245	-307	-10	-9512	4560	12240	-7	401	-197	-16224	4032	-5184	177	677	-197	-16064	3768	-1256	270	762	-212	128	111	1
-17432	-1200	1480	-202	2415	2354	-13376	-672	-5444	-2286	3956	-1483	-14020	-1724	10636	520	-505	-678	-9528	4688	12688	75	533	-165	-15920	4432	-5232	179	773	-246	-16048	4232	-720	291	747	-281	130	122	1
-17548	-1652	1316	2011	6657	3022	-13576	-1024	-5884	943	8102	-1591	-15728	-1596	9452	406	-311	-1160	-9328	4984	12544	138	693	-175	-16656	4808	-4896	224	847	-282	-17080	3744	-912	247	680	-326	122	123	1
984	-6352	3528	5328	11626	2743	-14348	-1432	-4056	2224	11313	-2081	-15624	228	8072	-1068	116	-1891	-9544	4960	12432	192	831	-203	-16504	4696	-4768	244	893	-288	-16928	3592	-552	326	572	-337	128	112	1
-5884	-9432	24912	7847	12251	4356	-20596	4144	12324	-2274	10087	-1493	-14056	1040	5308	-3411	1161	-2488	-9504	4544	12760	314	1049	-263	-17792	4752	-4512	244	972	-312	-18088	4192	328	315	424	-313	127	115	1
5132	-6748	5268	6969	16933	6575	-21712	6492	7304	10194	6083	-3645	-19220	1112	8280	-4199	341	-3712	-10120	4528	12656	319	1381	-360	-18992	4592	-3680	228	1111	-347	-19824	4384	2328	171	336	-282	127	108	1
-12988	-2548	19656	5563	23136	3998	-15652	4432	104	12327	8597	-2295	-22460	-3004	14516	1464	-5511	-7054	-10048	5296	11984	230	1827	-547	-19240	3280	-2912	230	1286	-415	-19384	4136	3728	118	243	-348	132	109	1
-18868	2068	24744	3412	15618	2927	-17224	2564	-3056	11986	11350	-2201	-15084	-2720	11732	7173	-3839	-8008	-10424	5208	12672	84	2341	-673	-18984	4152	-2736	230	1473	-471	-19240	4728	5480	57	-77	-424	132	112	1
-11724	1608	19960	1385	9666	4674	-18196	5528	-3808	10925	11365	-3536	-12064	1276	2284	4511	6997	-3217	-10072	6464	11896	-31	2946	-845	-20992	4496	-1848	184	1761	-552	-20168	5376	8208	-277	-670	-358	115	116	1
-7420	-5656	14404	-1177	8754	3155	-13472	4304	-1900	10332	9881	-3658	-14340	2888	-5836	3221	11271	-1799	-13440	6504	11752	-217	3762	-1184	-23768	3672	416	488	1978	-554	-20640	4648	14416	-764	-1715	-357	126	118	1
-5780	-6412	12292	-1329	10950	2070	-14336	1804	-2832	11019	7751	-3807	-13200	144	-2932	759	6727	-2499	-17184	6544	13720	-532	4491	-1664	-24608	4848	-528	789	2150	-617	-18032	1728	11616	-933	-1506	-398	120	121	1
-9600	-2068	14824	-883	11854	2537	-16668	2232	-3860	9508	6385	-3745	-14632	-1892	2256	-458	6261	-4777	-20968	8344	16104	-924	4824	-2058	-25008	7112	2808	725	2495	-764	-17864	1736	11456	-942	-1590	-403	115	134	1
-12020	-4204	16312	41	9966	4076	-17696	1088	-3772	7326	5877	-4276	-18088	-3276	1420	-2709	8105	-5209	-21024	10312	17656	-1133	5186	-2552	-26528	7664	408	34	2762	-765	-21288	7072	-1888	-1342	-2256	-623	128	154	1
-14692	-7964	15868	1584	7796	3588	-16428	-228	-4960	6074	5535	-4464	-17812	-1236	2880	-2651	11281	-5638	-26104	10576	19064	-1273	5271	-2955	-24640	8112	-3048	15	2816	-860	-19824	1872	4888	-432	-1625	-304	123	138	1
-10392	-1072	14732	1816	2661	2142	-16880	2204	-4824	5381	5125	-5222	-16728	-2988	584	-5265	10137	-2880	-27280	12664	18304	-1404	4861	-3189	-19824	7288	-2984	-77	2767	-907	-20960	4008	-6152	202	-1516	-316	128	126	1
-10624	-3996	14884	1350	2939	1656	-16416	3852	-4192	-696	5379	-4928	-14200	-3092	1408	-4595	9189	-548	-27240	15552	22608	-1951	3494	-3077	-12752	9816	-11648	-882	3251	-879	-21680	2608	-4640	470	-1767	80	122	120	1
-9488	-3264	13840	712	1295	588	-15920	152	-3428	-4221	5075	-5247	-14764	-4936	-496	-5435	9053	-575	-24312	17760	27704	-3046	1992	-1646	-15328	8040	-13448	-2564	2329	-705	-25384	3648	-4584	-91	-2006	447	133	109	1
-10072	-4324	13812	719	870	447	-16876	-1584	-3120	-2344	4448	-4292	-15548	-6400	8	-3852	9500	-1755	-6304	19960	26656	-1763	-1005	859	-15408	272	-6416	-2266	1641	-468	-25912	-104	-4160	-263	-2145	272	124	120	1
-9524	-3848	13636	754	598	408	-16868	-956	-3016	747	3402	-3386	-15724	-6860	-272	-2564	9747	-1799	2048	7104	16208	-1657	-1603	1088	-14504	768	-1000	-641	493	-213	-25928	2704	-3576	-472	-2322	376	115	115	1
-9264	-3552	13576	918	249	377	-16556	-128	-3236	979	2839	-2753	-15528	-5092	-608	-1342	10237	-1379	1904	3264	14592	-709	-1979	1126	-9632	328	-2504	-244	-441	-249	-22296	1728	-2176	-406	-2400	336	123	119	1
-9288	-3312	13464	1246	189	487	-16216	1540	-3440	507	2273	-2485	-15840	-2596	-176	-764	10666	-1118	672	6472	14472	-96	-2542	1062	-8144	2104	-3296	40	-1212	-469	-19576	2944	-3112	-192	-2296	207	126	111	1
-8932	-2972	13416	1288	317	424	-16140	2336	-3396	-2285	2171	-2609	-15932	-1412	-260	-1527	10540	-41	-1824	7456	14280	-215	-3187	934	-7704	3088	-3808	81	-2023	-336	-18448	864	-3888	-613	-2474	-33	127	147	1
-8748	-3044	13520	2066	322	752	-16324	780	-2932	-2980	1876	-2917	-15744	-1644	-700	-3821	11195	54	-5240	5808	15512	-97	-3828	1069	-7416	2032	-5168	-147	-2644	-369	-16144	1056	-4880	-643	-2035	179	126	176	1
-9288	-3644	13336	2571	218	912	-16228	-336	-3188	-1327	1445	-2838	-15356	-3024	-128	-4296	11883	49	-6832	4680	14112	435	-4573	1477	-7600	1656	-5440	-159	-2742	-379	-13920	1568	-6072	-483	-1911	131	125	185	1
-9596	-2952	13544	2242	156	721	-15912	892	-2756	-533	1276	-2782	-15384	-2860	12	-3072	11929	567	-5136	4168	10264	796	-4932	1677	-10104	1296	-3440	31	-3816	-367	-12360	2480	-3168	-540	-1773	167	118	179	1
-9508	-2888	13608	1505	182	351	-15756	1524	-2516	-2515	1806	-2909	-15864	-2252	92	-2692	12367	580	-6880	3576	8168	962	-4581	1588	-13520	4512	-5192	-342	-4427	-198	-12936	1136	-6360	-433	-1479	56	123	181	1
-9296	-3188	13336	986	120	173	-16056	348	-1648	-4202	2667	-3086	-15624	-3180	-160	-2821	12308	444	-12616	5232	11416	1058	-4230	1537	-10512	1624	-8192	-1350	-4611	-405	-11120	-712	-6104	-510	-1182	21	130	181	1
-9280	-3056	13428	666	112	106	-15936	-784	-1520	-2800	3103	-2992	-15736	-3988	476	-1200	11388	462	-13952	6288	14656	1030	-3869	1402	-16784	3608	-8304	-1503	-4587	-446	-9480	-1184	-5696	-887	-1109	-16	127	189	1
-9152	-3440	13440	558	-48	210	-15856	-448	-1000	-1514	3260	-2639	-15772	-4444	956	76	11436	399	-21688	8200	20000	1184	-3736	1567	-20632	1968	-12736	-1262	-5051	-451	-10472	-1296	-3680	-1229	-1144	-109	123	198	1
-9204	-3236	13500	445	-95	344	-16236	-752	-240	-436	3865	-2682	-16092	-4824	2072	911	10964	-210	-20656	7528	17248	979	-3669	1586	-22064	2584	-12040	-280	-5341	-416	-10888	-760	-352	-1072	-1248	-129	117	191	1
-9116	-3432	13492	487	-187	681	-16212	-1604	-328	2033	4773	-2549	-15868	-5256	1960	1822	10482	-965	-22176	5264	17680	729	-3224	1129	-21184	5952	-12584	59	-5498	-125	-10104	888	808	-738	-973	-72	123	184	1
-9124	-3228	13612	106	188	839	-16056	-412	-1196	2897	5680	-2383	-15988	-4532	1072	2533	10866	-847	-25480	5224	20432	1178	-3018	1035	-19968	5408	-12768	-166	-5543	-250	-11848	1392	664	-76	-604	-63	127	170	1
-8900	-576	10716	-410	532	393	-15544	868	-908	-363	6909	-2787	-16240	-1924	224	1425	10672	-1186	-29800	9552	21640	1693	-3047	1311	-23456	5008	-12600	349	-5334	-316	-13480	2056	3512	25	-271	116	125	158	1
-8192	-5436	16992	-210	446	551	-17036	428	-1964	-1599	7410	-2637	-16264	-676	-880	-2753	10439	-1169	-32768	10760	23568	1859	-3456	1806	-23656	6360	-14984	1310	-5251	-76	-9640	1512	6432	295	198	68	123	149	1
-9372	-2612	13612	-857	2324	451	-16548	-220	-3532	-1862	8518	-2801	-15976	-1648	-1892	-5118	9797	-1051	-32768	6144	17568	2067	-4302	2399	-19752	5448	-14968	2406	-4731	600	-12024	544	12440	261	233	-17	125	135	1
-8944	-2416	13672	-1457	3892	227	-17288	1024	-3620	-1748	9431	-2841	-17316	-2728	-1300	-5521	9001	-944	-32768	-5040	-1360	2373	-4382	2697	-17824	3904	-10704	2784	-3517	1075	-18288	392	27984	215	-35	148	126	122	1
-8868	-2408	13868	-2924	6658	-101	-18172	1860	-3460	-3468	10430	-2677	-18144	-3608	-468	-5920	8218	-812	-32768	-18400	-23152	2508	-2992	2679	-8312	2808	-10216	3024	-1838	869	-22408	2920	32767	528	-692	240	125	136	1
-9052	-2508	13744	-3944	10162	-397	-18456	2728	-3004	-4281	11867	-2772	-17784	-2928	32	-6040	7172	103	-32768	-16344	-31400	1329	-709	1167	-5216	10976	-8392	2275	388	272	-13352	88	23528	1197	-882	-119	126	148	1
-9568	-2328	13264	-4252	14358	-671	-17620	44	-3020	-3144	13456	-2522	-17440	-3768	-320	-6460	6236	1083	-26824	-4920	-12520	-1029	1390	-1761	-13648	14656	-9736	-725	1864	318	-12624	5416	10096	2576	-677	-276	130	146	1
-9348	-4140	13420	-4633	18541	234	-19436	-1500	-2360	-203	14514	-2265	-18844	-4124	-2156	-7281	5041	1107	-30864	3224	8496	-1566	1796	-2098	-12328	6616	-14504	-3193	2632	-355	-8376	15728	888	886	118	541	123	134	1
-9844	-4236	13088	-4446	22073	2224	-19912	1312	-2796	-1342	15622	-2819	-19564	-2556	-860	-7820	2916	-529	28488	13560	19528	-3068	1272	-479	-15064	504	-6536	-2702	3615	-536	-7272	16104	2856	137	124	788	128	134	1
-10548	-4144	12576	-3399	26074	3859	-19956	4012	-3012	-5005	17272	-3219	-19240	-192	2792	-9773	1499	-1301	14760	8840	-3144	-1929	1752	-514	-32768	1352	16744	-2827	1558	215	-24992	-1336	-2240	-2288	1373	1246	128	106	1
-11360	-4024	12080	-1784	32767	5266	-22980	4120	-1316	-6148	18859	-2908	-21452	-1292	5600	-12265	-2005	-19	-23368	-15288	26464	-1008	4237	-846	-20000	-920	-13296	-1735	1311	299	-28744	1576	14944	-2398	646	817	127	69	1
-13896	-4936	12844	-1517	32767	6501	-24880	5464	-2240	-3054	21125	-2003	-24112	-3368	13140	-15120	-10177	905	-27808	-12232	31328	-642	1279	-890	-18856	3640	-10720	-3080	3440	-1236	-17880	-3912	12320	-3445	1133	592	128	62	1
-19000	-1852	14700	-3371	32767	6677	-26452	10984	5832	-6134	22658	-778	-21868	1556	13240	-14216	-17282	3611	-16	15984	5840	-221	1107	-751	-18848	-7032	-3384	-2839	2610	279	-15480	-17664	-14352	-1668	2397	123	131	62	1
-25752	-5736	16596	-7878	32767	4463	-28000	4896	204	-4181	25685	345	-20600	1540	7584	-9530	-19984	3488	392	17792	4936	-213	1279	-657	-9968	896	-7376	-398	1463	487	-7000	-544	-9408	1803	1043	-255	128	84	1
-30748	-10356	18196	-4182	32767	11059	-28548	-3564	-236	4352	26537	-641	-19576	-216	3272	-9035	-21959	3209	-11616	336	16256	-308	1203	-834	-15904	6440	-8424	-290	1491	437	-13464	7976	608	841	620	832	128	87	1
-31432	-13208	16972	-2932	32767	16022	-26376	-3568	-2572	4737	25459	-2657	-21208	-3504	-3608	-9442	-22457	787	-15392	13576	13768	-662	891	-695	-22520	1600	-7416	461	1324	626	-25968	2400	-3336	787	1357	1144	119	81	1
-32768	-14512	25264	158	32767	20214	-20404	-3560	-5416	2544	25653	-2837	-23824	-6032	-4884	-16080	-23282	-3097	-9936	3424	14672	-558	665	-642	-15384	5264	-4288	1491	662	850	-16400	4776	-432	1417	1271	417	124	77	1
-16348	-16428	31336	-1037	29300	16508	-17448	-5088	-14764	8311	20572	-1193	-26016	-6392	-4832	-2172	-22515	-5017	-8776	5360	13176	-594	440	-521	-14424	6776	-3080	525	853	333	-13920	9456	2256	584	1397	-25	123	67	1
-32768	-21956	32767	685	-4276	9865	-12576	-3220	-18564	13495	11626	1179	-25060	-5528	-8064	5313	-20761	-6181	-8952	5064	12696	-647	407	-557	-14864	6496	-2608	319	882	314	-14984	3960	72	-45	1193	218	105	73	1
-6000	-10828	24860	4395	-27898	6026	-12208	1988	-940	-3435	4110	-77	-25324	-984	-5480	6715	-20999	-3997	-10984	4576	14608	-661	295	-497	-15408	6288	-4664	-554	765	302	-16944	2424	544	211	1164	264	127	63	1
2140	-3436	14252	1027	-29559	6714	-11408	3936	284	-5645	-1649	221	-24384	-1420	-4928	3935	-22289	-4588	-10496	5232	13256	-585	79	-395	-16544	3984	-5088	-104	649	280	-16152	4440	-800	606	1392	247	139	75	1
2932	-4664	11576	-2813	-28344	5360	-5592	1844	-2108	-6945	-8160	1723	-20184	-1364	-4356	2827	-21447	-5211	-9696	4736	13168	-480	-13	-297	-17256	3448	-4392	451	418	343	-16840	3928	-1568	524	1508	107	135	75	1
-1096	-8120	12644	-1922	-29859	3210	-5500	-240	-3936	-9811	-13581	3674	-16912	-2876	-5232	4316	-18023	-4304	-9328	4480	12904	-352	-3	-211	-16096	5112	-4392	549	296	280	-16008	2240	-1048	543	1561	17	133	118	1
-5448	-8856	14120	673	-32768	-728	-5616	-1708	-5028	-6639	-19381	5048	-15416	-1848	-6672	6211	-15466	-4519	-9216	4464	12672	-258	12	-152	-15952	5040	-2792	246	364	258	-15632	4096	-392	336	1619	-13	130	142	1
-9044	-7884	14676	711	-32768	-6959	-5656	132	-6120	-3692	-25280	6473	-14344	-1844	-7204	5831	-12925	-4055	-9200	4376	12648	-193	30	-124	-16000	4928	-2008	50	361	291	-15904	2728	512	156	1660	-50	127	125	1
-9372	-7492	12428	259	-32768	-13132	-6736	1252	-5728	-4482	-30376	7986	-12832	-2204	-8836	7631	-10222	-3968	-9368	4464	12864	-167	1	-118	-15576	4960	-1984	157	406	295	-15216	2976	1272	295	1703	-28	123	142	1
-9116	-7404	11624	317	-32768	-13942	-8096	308	-4068	-3144	-32768	8874	-10692	-648	-9516	8688	-7257	-3575	-9248	4632	12624	-154	-41	-128	-15200	5472	-1632	308	394	329	-15008	6088	2008	406	1723	-38	126	132	1
-9872	-3948	7596	-1944	-32768	-19355	-11832	88	-5792	1103	-32768	8953	-9440	1568	-9856	9794	-5373	-2435	-9160	4448	12688	-121	-38	-115	-15184	5944	-1376	314	417	327	-15208	6232	2376	271	1671	14	120	130	1
-13804	-2412	9644	-6871	-32768	-22372	-11468	312	-10240	8641	-32768	11000	-8604	1892	-8680	11799	-4291	-1276	-9176	4256	12264	-97	-30	-113	-15656	5904	-1984	163	520	280	-15856	4864	2008	71	1692	32	123	127	1
-17808	-5104	16228	-7930	-29488	-21165	-16580	3672	-9960	3290	-32768	12587	-7060	3900	-7388	13291	-3627	1335	-9040	3920	12688	-78	-14	-103	-14824	5280	-1560	156	624	250	-15072	3464	3336	-60	1645	3	126	126	1
-31544	-7992	26488	-5022	-32587	-21132	-21848	1876	-15832	130	-32768	11548	-7392	3452	-5400	13924	-2788	2505	-8856	4392	12624	-51	21	-106	-15304	5712	-368	325	723	283	-15496	3096	5056	-39	1540	23	126	119	1
-30304	-6468	24592	-173	-32768	-17886	-24632	1488	-15436	-8979	-32768	11490	-8580	2444	-2416	11573	-3647	1866	-8816	4448	12656	-61	67	-144	-15112	6248	-72	455	846	265	-16328	3272	4376	-29	1333	110	120	124	1
-32768	-4668	24116	-1010	-32768	-14849	-23676	848	-13952	-13060	-32768	10323	-11012	1116	524	5408	-5701	1423	-8752	4208	12816	-82	137	-203	-15176	6608	-408	408	1030	221	-16216	3184	3096	235	1166	200	126	128	1
-32768	-7432	22552	-1125	-32768	-11569	-24376	-2656	-14428	-17397	-32768	9827	-14900	-1552	2232	-155	-3831	963	-9016	4208	12792	-100	242	-269	-16592	5216	-1984	366	1141	203	-16992	3240	3048	476	1103	247	137	118	1
-32768	-3552	14552	-3365	-32768	-8077	-26180	-1840	-14428	-18942	-32768	5263	-16520	-3244	5992	2754	-594	-296	-8864	3488	13200	-42	437	-291	-17032	4696	-2760	428	1309	177	-16568	3376	2696	681	1167	218	131	114	1
-32768	3268	3692	-13712	-32768	-7255	-24192	664	-17152	-22287	-32768	1257	-17900	-192	19592	4029	-357	-534	-8528	3640	13792	82	699	-262	-17056	4736	-2792	427	1336	176	-17232	4232	2568	600	1032	159	131	122	1
-32768	10540	-14888	-21530	-28914	-9112	-15056	1444	-17416	-29295	-20166	-3154	-21316	1624	32767	1159	-1014	-317	-8288	3304	13672	201	1127	-289	-18912	5064	-2728	361	1689	176	-18320	5848	2192	521	891	76	130	117	1
-32768	17868	-32768	-15984	-12919	-7426	-7012	-5696	-13748	-22826	1766	-4168	-24204	-6704	32767	-7796	-6167	622	-8400	3176	14200	264	1777	-326	-19384	4848	-3888	224	1897	88	-18544	6032	1072	477	739	-1	132	114	1
-30792	6684	-30028	5292	10005	9822	-10660	-13888	-13552	493	17065	-389	-17412	-3592	11908	-9435	-4524	1464	-9424	4536	14088	125	2328	-419	-20344	5496	-3696	249	2018	82	-19560	4800	2056	531	580	-107	139	112	1
-5652	6572	2320	19924	25811	20259	-18364	-10816	-11288	18730	21426	-2117	-11420	-4552	3484	-12034	2812	-1109	-9152	6016	13088	-20	2920	-641	-22000	4136	-2128	460	2156	132	-20408	2176	5264	554	256	-119	124	109	1
-4364	-19808	29624	18325	16144	10732	-27508	12920	19984	25616	13830	-1308	-5752	-8276	-3088	8205	5110	-9754	-9408	4176	13576	-127	3826	-927	-24056	4944	-1608	912	2240	185	-21784	4184	12432	285	-562	-87	131	115	1
1732	3264	-816	5323	32767	1096	-24676	19912	-8608	32767	11910	-2794	-27848	-8872	-4408	14718	4634	-14954	-12568	7064	14688	-338	5007	-1246	-30312	5000	4936	1484	2528	107	-23440	7280	21136	-258	-2032	117	129	114	1
-32768	20240	32767	167	24136	1426	-13772	2312	-16028	17353	16224	268	-22616	204	7888	27683	430	-4297	-20320	7336	18432	-709	6133	-1718	-32624	4544	4672	1421	2792	84	-22320	-4480	17048	41	-1863	-381	138	100	1
-13596	-4272	20796	-3203	14900	8917	-21044	6796	-8680	14177	15012	-5180	-17572	11596	-9672	10124	15277	3350	-25048	8128	24368	-689	6906	-2097	-32768	5576	5864	1654	3103	55	-24632	-6432	15024	69	-2193	-725	138	119	1
-11892	-19376	9636	1340	18128	4138	-15560	-3996	-5388	14247	10280	-6552	-14548	9456	-7480	1902	17640	-44	-31312	9056	25480	-307	7110	-2359	-29960	7128	24	1224	2956	-89	-21032	2408	4672	1108	-1805	-607	131	103	1
-20976	2972	22584	5452	9308	7792	-14548	-6372	-8120	14021	8093	-7856	-7324	-13952	-8932	-13513	7909	1056	-32768	13776	25840	-4	6392	-2464	-19768	8120	-6960	988	3122	-289	-20744	7728	-10112	1998	-1739	-357	132	117	1
-9748	-12172	11496	5543	6020	6416	-18368	4552	-4844	3336	7845	-5208	-17724	-5184	-2052	-3347	7392	-5366	-25856	23040	31736	-651	4391	-2445	-16104	13872	-13944	531	2976	-395	-25880	7256	-5232	1290	-2258	202	138	119	1
-10524	-11036	12180	5802	5893	6439	-14440	5216	-6700	-14912	8493	-5988	-17816	248	-3356	-7357	11937	-7853	-31904	27264	32767	-876	920	-635	-12856	6608	-14448	-1775	2196	-172	-26072	1424	-6272	521	-2261	288	122	124	1
-10264	-3952	14384	2138	1510	1817	-18616	2512	-4464	-22296	8288	-5033	-17608	-2316	-2396	-13039	11778	-2662	1328	13816	21480	-1172	-1365	289	-15160	-440	472	-488	1183	305	-26816	2512	-3264	132	-2611	336	94	101	1
-10172	-3328	13904	904	1442	576	-18244	-5376	-2396	-5210	5592	-4937	-17924	-2764	-1928	-12489	11806	-2009	3648	4152	17456	-377	-1904	709	-10816	-1728	-976	-46	-70	71	-23768	4128	-3792	-129	-2388	150	110	103	1
-9776	-3656	13296	-48	1359	-242	-16848	-2496	-2072	8370	3116	-3890	-14156	-5236	-1292	-9073	11942	3532	3224	6816	16528	206	-2435	998	-8128	184	-2384	510	-893	-331	-20240	1568	-3712	-175	-2413	181	116	125	1
-9680	-4596	13184	-762	1394	-556	-16104	1340	-2032	6738	2885	-2525	-13924	-6524	-1412	-8238	11984	3389	-552	8152	16224	-101	-3101	1116	-7336	3280	-3416	444	-1736	-283	-17448	3696	-4072	-225	-2396	211	122	187	1
-9564	-4408	12796	-542	1292	-213	-15456	3728	-1860	-6317	4095	-2133	-16792	-4248	-724	-366	12668	-892	-3352	5536	16064	-328	-3910	1302	-6368	3704	-4520	-192	-2384	-404	-17728	4456	-5624	-656	-2266	214	123	200	1
-9012	-4276	12952	6	1179	283	-16400	80	-1172	-12583	5145	-3328	-15704	-3108	636	-2587	12998	-176	-5408	2528	14664	16	-4629	1599	-7920	584	-4584	-505	-2999	-539	-15480	3064	-6592	-763	-2129	160	123	202	1
-10224	-3636	12980	449	1218	615	-16952	-2816	-672	-4727	4475	-2669	-15136	-4152	2320	-4075	13256	1744	-4824	2016	11712	378	-5170	1675	-7760	1192	-3984	-217	-3624	-588	-13112	3240	-7792	-867	-1882	107	125	183	1
-9800	-3540	13156	885	1061	955	-16604	-1744	-656	3328	3567	-1966	-15832	-5376	1820	-3039	13498	2348	-4696	2456	9344	414	-5181	1354	-10296	2248	-3760	-430	-4277	-600	-12336	2152	-8872	-975	-1600	17	121	176	1
-9980	-3724	13020	1199	849	1197	-15608	1312	-808	1690	4472	-2052	-14868	-3948	1136	-1478	13783	2003	-7736	2568	9016	527	-4726	1052	-11160	2592	-6672	-1287	-4843	-506	-11360	-1264	-8840	-1259	-1297	-200	114	159	1
-9964	-3784	13032	1403	677	1381	-15328	1208	-1956	-3495	5475	-2393	-15540	-2456	172	-1078	13507	801	-11392	4296	12144	830	-4286	960	-11776	-2224	-8400	-1636	-4929	-848	-9560	-4216	-8560	-1439	-1063	-351	118	178	1
-9964	-3456	13000	1304	433	1122	-15728	-224	-2076	-3929	6189	-2658	-15504	-2228	-636	-1554	13231	-7	-17808	5408	20336	1448	-3995	1080	-18720	2064	-12432	-817	-5420	-587	-5664	-5552	-8016	-1463	-1028	-541	123	203	1
-9916	-3688	12968	1190	750	1017	-16356	-596	-2368	-1660	6468	-2036	-15700	-1524	-84	-1601	13504	107	-23488	7816	22752	1764	-4246	1535	-21488	1272	-13760	163	-5878	-536	-7960	-3880	-3800	-924	-980	-673	126	204	1
-9428	-3532	13320	621	1133	790	-16144	1736	-1284	-3243	7122	-2466	-15780	-2388	-4	-2772	14223	-138	-23872	4120	21184	1638	-3968	1445	-22984	3936	-14480	1012	-6174	-216	-8456	-464	-1224	-535	-1095	-482	127	193	1
-9620	-3244	13344	177	1832	711	-16620	964	-1040	-4884	8551	-2508	-16428	-4528	500	-2222	13660	15	-30936	5624	22120	1827	-3652	1433	-22664	6696	-15264	1033	-6183	-187	-10624	1336	1664	163	-642	-109	127	183	1
-9508	-3260	13384	-771	2708	683	-16476	-776	-608	-3259	9814	-2306	-16220	-4212	888	-1393	12601	578	-32768	10496	23248	1425	-3818	1683	-22088	9952	-18088	739	-5562	-406	-12624	6224	3584	795	-101	289	123	172	1
-9864	-3516	12916	-1569	4001	644	-16712	-196	-552	-1319	10914	-1944	-16736	-3508	1352	-1121	11111	748	-32768	8048	14720	759	-4471	1937	-21816	8296	-18720	964	-4874	62	-14584	6040	8288	380	152	544	127	162	1
-9796	-3784	13024	-2167	5571	678	-17084	736	-912	-761	12350	-1710	-17576	-2384	1572	-2292	9185	-33	-32768	192	216	1082	-4417	2207	-21200	6712	-18680	986	-4017	642	-16904	-56	19168	-644	121	397	123	145	1
-10112	-3484	13280	-2819	7909	474	-18036	1424	-1720	-931	13991	-1642	-17376	-1540	1400	-5337	7288	-415	-32768	-10488	-15256	2109	-3302	2665	-14848	2584	-17784	916	-2489	659	-19568	-1136	30568	-299	-54	-28	122	136	1
-10112	-2856	13468	-3805	11719	266	-19240	1868	-2860	31	15573	-1283	-18280	-2844	352	-7484	5864	372	-32768	-15400	-26936	1906	-1441	2279	-7800	5264	-15160	1711	-552	442	-18416	1904	29056	526	-468	-175	121	132	1
-9704	-2840	13388	-4607	16662	415	-19824	2980	-3528	736	16794	-1007	-18228	-3996	-96	-8245	4708	1423	-32768	-10656	-24304	-168	699	192	-8736	14464	-14120	862	1267	216	-14464	7120	15504	1428	-513	-160	123	155	1
-9840	-4120	12732	-5007	21651	694	-20068	3352	-2912	700	18127	-851	-19060	-3664	384	-6595	3812	2188	-32768	-304	-17144	-2360	3228	-2185	-14128	12888	-14392	-2194	2281	119	-11120	9840	7560	1447	154	370	122	159	1
-10464	-4444	12724	-5400	27767	1450	-21428	3908	-612	152	19593	-1005	-20060	-2304	2620	-4481	2883	2152	-5184	25128	32767	-2494	3366	-2261	-27672	5152	23920	-4118	2656	373	-17896	13360	6432	-833	425	1342	123	95	1
-11008	-5344	12680	-5771	32767	3330	-25184	5340	440	-1034	21392	-700	-23716	-3092	7840	-5734	-2534	1245	-19032	-3816	14216	-888	4616	-388	-28648	-5736	-15648	-3517	2156	248	-23592	7224	20512	-3793	1148	2133	130	62	1
-13512	-4624	12900	-6396	32767	4981	-27616	9160	3084	-3042	23120	521	-23776	-504	15896	-9173	-11241	2307	-28512	-15912	31880	-487	2221	-455	-13616	752	-13600	-2549	3934	-935	-17816	-3968	-4160	-2935	2428	287	133	61	1
-22292	-4236	16668	-10991	32767	3531	-28220	10928	3336	-4125	25346	2032	-23072	4052	13408	-14104	-14080	5468	-5616	14752	10024	-198	1385	-983	-19184	2984	-4616	-1459	2476	521	-13160	-8368	-21576	-1202	2452	110	137	68	1
-26420	-11356	17332	-5837	32767	10305	-31444	728	3364	-1830	27115	1755	-25148	2432	3504	-8968	-20421	5853	-14880	13816	12512	-968	1784	-851	-8536	11120	-9544	-1718	1716	522	-5056	2264	-5280	-20	291	392	132	72	1
-32096	-17016	17988	-5267	32767	18621	-29612	-6340	-512	3328	26500	-560	-22364	1376	-2976	-8621	-22304	3649	-12488	-1416	16832	-1152	801	-1113	-15176	4216	-10680	-2979	1974	635	-21824	7024	-2016	78	1099	940	128	76	1
-32768	-18640	18284	888	32767	25704	-25028	-4504	-580	3475	24879	-2466	-20948	-3796	-7416	-10568	-22452	-457	-10192	6320	13232	-1186	673	-1006	-25960	-6120	-6504	66	1522	718	-21960	-3016	-6120	834	1432	1238	128	45	1
-29052	-18636	29036	-331	32767	23504	-18708	-3028	-11420	6054	23797	-2676	-24228	-5124	-6372	-8774	-23114	-5384	-14000	4000	17544	-913	345	-744	-14888	3192	-6696	3283	387	1001	-15168	3840	744	1921	1243	380	122	45	1
-26704	-5380	32767	-5301	12047	15072	-14464	-4608	-15268	12224	14908	1260	-25700	-1560	1008	-14436	-24755	-6200	-10568	3864	13792	-520	-55	-413	-15320	9696	-4096	1797	379	543	-13488	8848	-1232	1217	1595	-18	118	64	1
-11380	-17348	32767	-3131	-24050	4338	-12180	1220	-5252	-212	5157	632	-24792	-1216	-5812	5221	-21063	-4932	-9056	4104	13272	-338	-81	-252	-16736	9440	-3328	-1150	895	390	-16792	4856	-1184	74	1373	143	124	88	1
-212	-8852	17288	3294	-31507	5440	-12604	1520	828	-7474	407	-765	-24380	1100	-5680	2630	-20990	-4752	-9144	4320	12752	-298	-30	-206	-16512	3704	-4128	-1948	848	221	-16784	872	-712	86	1404	239	116	70	1
544	-5088	14232	776	-32768	5236	-6824	988	-1220	-3982	-6515	-734	-20828	876	-4456	206	-20587	-5472	-9264	5256	12952	-261	-7	-203	-17064	-168	-3192	-389	755	264	-16440	3208	-656	558	1484	125	138	94	1
-1144	-6036	12984	-3433	-32768	3254	-4536	408	-3072	-7146	-12138	705	-18280	-2392	-5864	-647	-20257	-6041	-9584	4360	12640	-191	26	-174	-16624	4544	-2768	1474	297	616	-16568	3912	40	790	1480	124	120	101	1
-3944	-8096	11780	-3944	-32768	668	-5464	-312	-3984	-8830	-18506	2112	-16672	-3380	-6524	3967	-16209	-4799	-9056	4104	12752	-140	65	-173	-15600	8536	-1472	1066	264	553	-16544	4400	272	814	1482	109	149	97	1
-6984	-8728	11912	-2230	-32768	-3228	-5712	-1040	-5496	-7703	-24061	2991	-14684	-636	-7964	6455	-13349	-4483	-9232	4360	12888	-117	75	-174	-15216	7520	-1704	145	479	332	-14960	6168	1360	304	1511	4	139	116	1
-8124	-7952	10840	-901	-32768	-8055	-5824	1548	-5428	-7102	-29617	3929	-12600	-1140	-9704	6331	-10581	-4028	-9080	3824	12784	-74	73	-163	-15384	5136	-2136	-129	635	240	-15056	4544	1792	190	1560	69	127	127	1
-6924	-5896	8476	-1473	-32768	-12500	-7364	884	-3860	-6750	-32768	4726	-10736	-2092	-10316	7060	-7627	-2838	-9240	3760	12448	-48	81	-146	-15744	3448	-2664	366	531	330	-15176	3472	1728	343	1647	33	125	143	1
-8848	-3424	8392	-6964	-32768	-16643	-10880	1372	-5848	-4579	-32768	4891	-9312	44	-10972	8490	-5125	-2784	-9288	3512	12904	-11	97	-97	-15032	4936	-2880	682	500	349	-15112	3768	1240	482	1717	28	123	133	1
-12668	-3292	8232	-13242	-32768	-20990	-12896	-1632	-11044	4567	-32768	5133	-8200	1856	-10548	10938	-4335	-2934	-9048	3808	12424	3	150	-60	-15352	5632	-1872	546	579	318	-15600	4368	1160	240	1665	91	124	136	1
-17036	-6580	14420	-13196	-29255	-21765	-15164	3180	-9696	4872	-32768	8274	-7344	3996	-9792	13731	-4063	-729	-8552	3424	12784	-39	217	-60	-15544	4568	-1560	451	690	323	-15752	3584	2272	-107	1574	139	122	134	1
-20396	-7548	17472	-13004	-28689	-21766	-20820	3676	-17148	1387	-32768	7262	-7056	4892	-8124	15205	-3405	595	-9128	3536	12768	-24	336	-27	-15704	4624	-1664	544	785	335	-15360	2344	3568	-117	1449	177	123	139	1
-31620	-9176	24636	-3833	-32768	-22962	-25308	2264	-16992	-10214	-32768	7106	-8800	2976	-4012	11930	-5881	1112	-9456	3880	12648	82	488	18	-15848	4232	-1808	817	920	351	-15624	1912	3584	102	1344	121	123	128	1
-32768	-5764	23440	-3105	-32768	-21271	-24148	-608	-16180	-15154	-32768	6166	-10368	-1656	84	3389	-6585	-915	-9376	3736	13280	212	653	39	-16448	5040	-2040	1132	1010	360	-16560	3576	2608	218	1323	145	128	128	1
-32768	-5460	19240	-5099	-32768	-18630	-21968	-5332	-14552	-17535	-32768	5942	-11728	-5528	480	-5042	-1801	-2240	-9152	4792	12872	220	639	-33	-16600	6640	-880	925	1104	322	-17408	4568	2408	353	1285	145	132	129	1
-32768	-6404	10968	-6162	-32768	-14136	-22000	-5556	-14620	-16625	-32768	5531	-15068	-4720	4116	-534	1986	-2762	-9152	3960	12816	275	774	-92	-15792	6184	-1344	472	1348	257	-16824	4840	4080	500	1212	109	133	117	1
-32768	2692	-1596	-11177	-32768	-11232	-24516	984	-18880	-17505	-32318	-2987	-20232	-1712	22360	6917	-2296	-3795	-9296	4096	12864	369	1050	-114	-17752	5120	-1776	344	1645	200	-17600	3304	3504	526	1028	175	137	114	1
-32768	13372	-20704	-19445	-24943	-14957	-13080	1788	-19884	-23785	-16501	-4975	-23444	196	32767	2274	-3496	-3336	-9384	3952	13008	425	1476	-163	-18760	5120	-2880	402	1731	206	-17696	4216	3240	699	831	96	123	117	1
-32768	18268	-32768	-7130	-7352	-7027	-5276	-6596	-16040	-12948	4873	-4842	-22240	-3864	28276	-6170	-3310	-1777	-9664	3680	13416	426	2023	-238	-19800	4728	-3104	315	1934	169	-18888	5424	2888	879	687	29	126	126	1
-32768	9896	-22848	8102	14055	10077	-12388	-10752	-17348	9150	19900	-1086	-16528	-5412	9432	-5846	-1431	-428	-9072	5048	13288	373	2627	-344	-21160	4000	-2280	392	2157	180	-19976	4672	4440	813	412	-9	136	122	1
-18188	-21516	24932	32767	24381	17087	-23884	-916	9960	18679	16672	-2062	-11192	-6328	-1624	-2993	4650	-1932	-9800	5104	12544	365	3588	-530	-23672	3360	-1568	688	2271	234	-21640	3784	12240	476	-484	30	114	110	1
5120	-2168	12752	9681	30897	-2529	-32768	19760	576	32767	9754	-1299	-18484	-10132	-2804	15278	6407	-7611	-10392	7552	13448	388	4800	-834	-29424	4320	3456	1448	2473	236	-21392	4512	19896	501	-1773	181	127	96	1
-32768	27124	32767	4953	32767	-214	-19548	14412	-17324	32767	14912	2090	-30576	-11476	8932	28128	3563	-16501	-16224	8136	16120	361	6217	-1258	-32768	192	4560	1473	2760	166	-23024	-8136	20712	238	-1844	-388	135	105	1
-13852	16112	24000	-1467	12311	11060	-18944	5348	-6268	10963	20041	-3782	-11040	12668	-12900	30516	12655	1800	-25336	8424	21880	474	7318	-1527	-32768	1856	3864	2141	3004	214	-28112	-5744	11984	548	-2233	-741	137	130	1
-4656	-28416	4200	-814	18969	5838	-12884	-1816	-4164	16786	13016	-5190	-15056	21788	-11680	1819	21935	4727	-30624	11864	22856	577	7614	-1998	-31160	8304	-416	2430	2880	-33	-22992	1016	4240	1143	-2353	-843	137	128	1
-24412	-1980	23420	5976	15852	7467	-12692	-10520	-9324	16590	9624	-7302	-6184	-8012	-12548	-7617	8807	1148	-32768	13168	21696	425	6864	-2509	-22032	10080	-1960	1226	2816	-234	-21792	6112	-5624	1884	-2235	-253	126	120	1
-9368	-9988	11264	5730	6041	7502	-21956	1672	-7068	13207	8590	-5731	-15728	-17520	-4500	-11995	-2816	-3426	-32768	22424	32767	817	5111	-2356	-16408	11648	-12232	322	2895	-403	-24632	7568	-8200	1510	-2372	185	135	119	1
-14164	-436	17156	6585	3658	6398	-14984	3844	-7452	-4212	9068	-4382	-20816	-2352	-6132	-2392	17702	-12187	-14528	21904	32767	-144	1799	-1373	-11152	12352	-18464	-2015	2190	-561	-28680	3744	-2968	615	-2508	293	131	119	1
-11188	-4928	14336	4466	1484	4168	-16100	4760	-5336	-17969	9104	-4996	-17520	500	-2876	-6801	10913	-2176	1312	15464	27912	-998	-2036	-193	-15416	2008	296	-1589	1222	163	-27048	2152	-3248	59	-2508	271	92	98	1
-9248	-900	14880	3759	525	2883	-17824	-1784	-2304	-12645	8120	-4691	-14964	-3580	-28	-9581	12987	-283	2528	4992	19776	-959	-2720	-142	-14864	-3736	392	-352	-148	515	-26608	3776	-4384	-93	-2398	63	118	100	1
-9244	-5200	13428	3911	289	2529	-17684	-4696	-1820	4314	5449	-3710	-14056	-5756	-984	-9946	12481	2559	2272	4544	16280	-30	-3310	243	-7720	-2608	-2104	732	-1112	-164	-21368	664	-3512	-133	-2465	109	111	119	1
-9444	-4380	13368	3909	-191	2334	-16628	-2468	-3324	15403	2935	-2953	-14220	-7704	-2196	-3053	11421	1201	432	7960	15144	158	-3840	501	-7560	960	-3240	1180	-2010	-364	-17632	3968	-4928	2	-2417	175	129	164	1
-10400	-3836	13436	3132	-372	2031	-15744	3064	-3752	10199	2593	-2269	-15888	-5468	-1812	3764	11841	-113	-3896	7864	15696	-226	-4463	678	-6488	4016	-4696	812	-2770	-291	-16936	3920	-6504	-332	-2230	83	112	206	1
-9804	-3416	13232	2227	-688	1451	-15720	4776	-3004	-3276	3745	-2481	-17032	-1304	-936	4539	13012	-912	-7064	4744	15440	-96	-5158	1055	-7056	2224	-4840	179	-3378	-400	-14696	2808	-6464	-549	-2160	61	120	216	1
-9724	-3304	13364	1861	-808	1177	-16200	640	-2388	-8025	4689	-3250	-15184	-4	-288	-194	13652	459	-7752	3480	13240	376	-5715	1416	-8672	1304	-4032	118	-3942	-491	-12872	3216	-7808	-497	-1817	28	121	208	1
-9472	-3144	13428	1458	-721	919	-16684	-2928	-2224	-459	4216	-2809	-15208	-3436	324	-2847	15001	602	-6592	3832	9408	668	-5774	1378	-10968	1528	-3448	114	-4606	-385	-11872	3024	-8760	-544	-1541	9	127	208	1
-9316	-3084	13304	1223	-464	846	-16312	364	-2296	4778	3009	-2457	-15508	-3536	368	-2672	15008	837	-7736	3584	7888	898	-5204	1073	-14296	4584	-5336	-415	-5238	-175	-11480	1096	-8832	-882	-1225	-130	126	188	1
-9320	-2724	13344	977	-26	591	-15592	3076	-3324	893	3883	-2432	-15272	-780	-892	491	14966	690	-14936	6184	12064	1106	-4590	916	-10720	1720	-8952	-1684	-5374	-345	-9232	-1808	-8704	-1122	-980	-244	118	184	1
-9348	-2704	13488	614	313	244	-15672	1728	-2952	-4457	4746	-3189	-15480	-364	-1300	-2255	14438	-147	-20328	8032	20136	1534	-4326	1119	-18184	2080	-12336	-1586	-5334	-372	-6624	-4088	-8056	-1483	-797	-306	130	166	1
-9392	-2828	13592	262	493	127	-16160	-452	-2556	-4168	4867	-3195	-15576	-2024	-1272	-3524	14683	403	-25496	11392	23312	1782	-4477	1751	-24136	1504	-14672	-1068	-5884	-456	-7440	-4952	-4960	-1256	-1030	-287	121	178	1
-9328	-2792	13504	-59	729	47	-16400	-780	-1964	-2755	5038	-2961	-15632	-4928	-396	-2651	14480	734	-29504	9256	24200	1427	-4511	2006	-23352	1984	-15936	829	-6219	-272	-8512	-1240	32	-883	-1299	-428	125	178	1
-9344	-2932	13592	-423	1112	-55	-16664	-444	-260	-2584	6102	-2732	-16844	-6120	2080	138	13767	735	-32768	6432	22240	1541	-4539	2363	-20936	6232	-16408	1482	-6096	52	-9128	1888	3048	-249	-947	-75	125	170	1
-9160	-2936	13544	-731	1816	-32	-16324	812	1288	-2896	7814	-2786	-18556	-4444	4932	2336	12816	-212	-32768	6472	17928	1459	-4616	2793	-19928	11440	-15080	1435	-5473	-78	-9296	7584	2856	968	-67	306	127	163	1
-9568	-3432	13260	-815	2642	132	-16208	740	1344	-3004	8150	-2750	-18524	-2188	6060	475	11153	-305	-32768	9440	6200	176	-4523	2519	-20912	10312	-17520	379	-4609	66	-12680	9176	9848	756	240	481	125	125	1
-9172	-2732	13824	-1341	3820	228	-16868	-108	852	-1430	12721	-2656	-18076	-2100	3260	-2743	8990	-203	-32768	-3536	-7232	91	-3650	2157	-21112	5856	-18904	-539	-3497	591	-16296	2816	25064	-1575	373	630	123	113	1
-9524	-3892	13428	-2267	6342	452	-18620	656	-300	-227	15007	-2542	-18556	500	2896	-6651	6905	-1518	-32768	-14096	-19632	1900	-2005	2688	-13592	-152	-19024	-329	-1757	401	-21696	-88	32767	-2298	-20	198	122	108	1
-9056	-2924	13976	-2671	10549	1282	-19156	1536	-1860	-383	16760	-2762	-16940	-1396	464	-11076	4916	-1474	-32768	-12200	-26336	466	150	1730	-6888	7400	-16472	606	327	185	-20784	-2704	26880	-667	-464	-201	119	124	1
-8640	-3404	14376	-1779	16296	2423	-19324	160	-3160	1219	18443	-2357	-18056	-6820	-376	-12352	3434	-413	-32768	-15728	-13888	-1956	1870	-771	-10176	14056	-16560	-619	2063	139	-16624	1784	15488	1437	-634	-74	122	168	1
-9380	-4328	14572	-151	21688	4282	-21424	44	-2356	2885	19427	-2535	-19464	-8096	984	-8713	848	249	-14192	6056	13168	-1287	2431	-1768	-16928	7800	-1664	-1935	2736	-259	-11040	4968	3272	931	430	344	124	141	1
-9012	-5572	14172	2162	27122	7664	-23640	1664	-800	1724	20484	-3233	-20788	-5676	3092	-4443	-1187	19	-5264	22400	25904	-1253	2448	-2790	-32768	-3968	12488	-3719	1855	685	-15648	2832	9032	-450	-73	940	129	90	1
-9068	-4740	13236	4460	32767	12023	-27352	3844	524	-56	22111	-3744	-24736	-3804	10024	-1368	-3153	-104	-17064	8320	11168	-329	4248	-997	-18520	-4456	-14944	-714	1702	69	-23240	5816	16088	-1208	1277	1173	132	57	1
-12736	-3596	13100	6772	32767	15843	-31092	8956	5212	-5782	23783	-3556	-25664	-44	22528	-4813	-16366	357	-26832	-5560	28824	-272	2621	-416	-18456	6832	-11088	-628	3289	-535	-18792	-9512	-6560	-1304	1678	165	129	77	1
-24600	-1760	17472	7661	32767	17277	-29284	10844	3056	-7343	26718	-3458	-21000	10208	12592	-11312	-18064	4138	-7480	8520	12736	-74	1890	-691	-18456	-1448	-6512	-1245	2202	560	-12392	-4856	-10496	-221	1566	583	132	61	1
-32768	-1872	21824	-4438	32767	11569	-28616	4248	-1316	-5794	30797	-2956	-22704	5336	4596	-13941	-19943	5619	-14576	8152	14480	-115	2187	-481	-10424	5784	-7848	-804	1798	357	-10632	2848	-5216	1007	810	60	127	106	1
-32768	-11488	24736	-5277	32767	15898	-32272	-2832	-260	-7524	29809	-2511	-21792	-2292	-6152	-13830	-21964	3145	-13568	5064	14008	-590	929	-664	-17664	8136	-10360	-1649	1808	552	-19048	6880	-4288	249	1181	625	129	87	1
-32768	-14368	24040	1634	32767	23530	-21344	-3444	-624	-3985	26171	-3172	-23056	-5244	-8556	-13195	-21706	-2267	-12784	5640	14992	-540	649	-615	-21088	-1224	-7032	93	1465	887	-20248	1064	-3504	433	1314	702	122	57	1
-26172	-17904	32767	5432	32767	22710	-15236	-6924	-15088	-1760	21768	-3027	-26240	-5952	-7132	-11616	-22566	-5916	-10128	5208	13944	-411	364	-419	-14952	3016	-5776	2205	740	706	-15320	3048	-552	978	1315	410	121	34	1
-31992	-10628	32767	4741	5888	11390	-9552	-4492	-18836	15034	11753	28	-24332	-6492	-7708	-1284	-23244	-7231	-9704	4544	13280	-260	265	-274	-16520	5736	-3816	1852	684	599	-15032	5440	248	842	1443	173	123	74	1
-6448	-11632	28928	-3056	-24616	-1255	-11068	2500	-2244	-1273	2766	827	-25096	-3736	-7204	2612	-20670	-5280	-9544	5336	12776	-132	311	-204	-16888	8720	-3208	213	851	439	-15888	5024	1056	502	1386	47	130	68	1
1720	-8624	15516	695	-28093	-3742	-11080	3060	576	-1193	-2782	501	-23960	-1456	-5904	650	-20821	-4976	-9560	5872	12272	-95	268	-150	-15712	7008	-4280	-925	845	247	-15592	4992	32	485	1428	93	134	89	1
3056	-5680	12180	748	-28371	-6144	-4944	1420	-2028	1236	-10366	1376	-20700	-1872	-5880	-1008	-20037	-5886	-9600	6064	12192	-82	228	-150	-16600	2904	-4008	-535	689	224	-16248	4928	-744	456	1523	126	134	108	1
-456	-5280	12988	-879	-29685	-9179	-4668	1064	-3760	-1845	-15453	4135	-16372	-3548	-5492	2748	-18077	-6417	-9384	5464	12384	-49	210	-154	-16744	2120	-3776	894	401	390	-16648	1896	608	486	1554	62	139	142	1
-5668	-5940	14336	-759	-32768	-12072	-5004	1208	-4044	-2102	-16434	4445	-14840	-3348	-6612	7502	-14313	-5380	-9232	5376	11952	-62	184	-168	-16344	5256	-2192	1322	284	449	-15824	2520	1120	597	1573	-35	139	141	1
-9356	-5704	15036	712	-32768	-15434	-5828	-652	-5456	100	-26651	7282	-13516	-1008	-6904	9948	-11439	-5184	-9304	5344	12032	-139	189	-223	-15656	8016	-1552	647	426	365	-15928	3016	1008	612	1562	-58	122	127	1
-10924	-4864	13516	2307	-32768	-18269	-7640	1396	-5880	-437	-31099	8619	-12312	-1000	-8400	10907	-8635	-3945	-9528	5176	11704	-201	155	-270	-14992	6888	-1712	-144	581	235	-15400	4760	1616	392	1544	-61	123	124	1
-9108	-3008	10168	2556	-32768	-19670	-9472	1036	-3716	-529	-32768	10033	-10756	-1360	-9004	13178	-5952	-2870	-9312	5304	11920	-207	141	-278	-15344	5352	-1944	70	599	232	-14584	5104	2024	444	1578	55	124	130	1
-9932	-524	9316	-1376	-32768	-19533	-12312	2108	-5092	1944	-32768	10995	-9580	-392	-9412	16308	-4860	-2273	-9816	4752	12152	-341	53	-358	-15280	5264	-2032	156	600	233	-14632	5640	2008	477	1599	78	118	137	1
-14412	-948	12312	-5386	-32768	-17597	-14196	-1320	-10640	5384	-32768	11070	-9328	184	-9636	16774	-4714	-2091	-9352	5040	12024	-354	-3	-327	-14672	6192	-2512	685	691	245	-14744	5808	2120	386	1665	-12	126	137	1
-20248	-3240	20544	-6635	-32706	-14246	-16068	3116	-10696	3076	-32768	12442	-7448	5712	-8396	18677	-2406	1243	-9792	4544	11968	-310	11	-286	-14520	5704	-2512	244	841	139	-14904	4648	2064	80	1821	-26	126	137	1
-30080	-5204	28436	-7486	-32768	-13997	-21828	3900	-15332	-2560	-32768	11982	-6996	6420	-5636	15946	-2319	2372	-9680	4160	12584	-259	41	-250	-15552	4688	-2920	-22	975	130	-15512	2768	1448	-153	1817	-38	125	132	1
-32064	-5608	28144	-5422	-32768	-13440	-24212	3588	-15316	-13448	-32768	12109	-7804	5544	-2780	7590	-2561	2481	-9488	3984	12624	-178	90	-230	-16056	4000	-2760	110	1024	168	-15464	1664	1296	-108	1649	-54	124	127	1
-32768	-3348	25048	-5837	-32768	-13023	-24564	3616	-13272	-24388	-32768	10535	-9880	3940	1288	-2579	-1779	1744	-9464	4768	12136	-124	184	-259	-16240	5536	-1936	183	1045	200	-16672	2200	2328	-48	1456	-1	126	127	1
-32768	-3404	19272	-6425	-32768	-11708	-27048	-4768	-14504	-23737	-32768	7835	-12996	-1768	3540	-8824	685	1103	-9176	4288	12640	-21	370	-279	-16728	5120	-1416	43	1221	191	-17312	3520	4088	-76	1433	118	137	115	1
-32768	-3800	17296	-6180	-32768	-10729	-25348	-3412	-15120	-17273	-32768	2877	-20148	-4392	12900	-3990	-2366	-806	-9224	4032	13056	101	645	-307	-17424	4384	-768	142	1422	187	-17536	3936	6224	214	1404	114	130	128	1
-32768	12504	-9480	-19105	-32768	-7854	-18856	3416	-21900	-20171	-26856	-2540	-24284	-4268	30340	3814	-6905	-2579	-9176	4160	12880	230	1053	-315	-17464	5592	-872	181	1642	161	-17864	3584	6112	281	1161	132	132	129	1
-32768	20780	-31644	-24378	-19368	-13442	-8608	-180	-19012	-21560	-5650	-3476	-22564	-4940	32767	-129	-6784	-733	-10264	4296	13616	257	1611	-376	-19264	6096	-2120	-131	1964	126	-18904	5528	5040	343	898	103	138	123	1
-32768	12040	-32768	1782	3302	658	-8468	-10888	-17908	-6170	13531	-821	-21372	-3768	17084	-5011	-5072	1937	-9720	4112	13840	237	2246	-445	-21504	4504	-2544	-71	2220	102	-20648	6088	5128	551	578	13	122	123	1
-32768	17208	-20888	11796	28035	23055	-17332	-13788	-16552	15800	22740	572	-14660	-2920	5504	-8012	1588	1526	-7776	5496	12912	205	3074	-629	-24160	2624	-1104	473	2378	163	-21528	3920	10560	484	-77	-12	121	123	1
-1304	-28592	32767	13645	20262	25744	-30076	10900	32767	23980	12578	-1538	-13580	-4656	-5360	-994	7315	-3196	-9016	4632	13912	117	4334	-978	-29360	5240	3656	1445	2553	208	-24272	6544	23064	-245	-2043	114	123	127	1
-16496	-11332	116	1493	32767	5546	-21980	21264	-20888	27918	15196	-3217	-21036	-5784	-356	9697	1717	-11982	-14320	9464	15680	-217	5876	-1605	-30824	5096	5040	1467	2588	213	-23616	-2616	20272	309	-1917	-199	115	131	1
-32768	14808	32767	3696	20957	3876	-16532	-5656	-14324	797	21925	-1702	-17592	-2572	2260	16865	2087	-5896	-28040	7312	22200	-406	7323	-2197	-32768	3704	4056	1629	3137	200	-27240	-8112	20536	-30	-2251	-641	139	144	1
-4032	-9276	11156	-448	16896	5522	-19348	5952	-5344	12519	16676	-5594	-17532	13256	-15136	5465	19047	2071	-31824	10992	27696	22	7893	-2403	-32768	4240	3496	1724	3175	199	-23784	-1664	6736	884	-2141	-795	134	147	1
-17944	-6504	17144	1781	18562	4827	-12120	-5820	-9440	23507	9983	-4568	-17188	15448	-14476	3031	19680	2145	-32768	15456	27544	221	7249	-2797	-24624	9560	680	1644	2980	-212	-23488	3232	-9024	1881	-2533	-779	135	127	1
-17888	-4724	18460	2894	8865	4966	-17076	-232	-10456	15933	8257	-7695	-9704	-14288	-8272	-17735	1254	3352	-32768	20648	32312	244	5636	-2978	-18992	14144	-12088	760	2927	-215	-25768	8720	-7456	1939	-2503	11	141	119	1
-12612	-7048	14176	3956	4061	3994	-19284	4116	-7280	-5084	9299	-5521	-21036	-6224	-7140	-2926	14134	-5639	-13872	19144	32767	-637	2213	-1705	-11032	14664	-15744	-1147	2372	-487	-28680	4688	-5240	1020	-2442	488	134	123	1
-11104	-3052	14848	2588	1631	2677	-15016	2964	-6044	-21937	9362	-5159	-17336	-3296	-4752	-8301	11497	-4239	1056	18120	30400	-590	-1878	220	-16248	3368	-912	-1534	1522	20	-28032	5792	-4528	146	-2409	456	123	127	1
-10296	-3780	14184	1226	1375	1041	-17856	-2032	-4392	-20004	8296	-3450	-15216	-4460	-1668	-10296	14057	-1643	5792	7232	17864	-666	-2313	590	-15360	-3008	2560	-578	-115	362	-26296	4160	-3344	-157	-2485	478	117	108	1
-10100	-4336	13504	93	1285	2	-18448	-4244	-2824	-2290	5465	-3272	-16588	-5796	-828	-8040	14558	1179	5296	6440	17728	-580	-2356	664	-7328	-1096	-1888	213	-976	-348	-21392	3000	-4064	-210	-2452	287	115	107	1
-9828	-4260	13128	-321	1347	-469	-16900	-768	-2852	8799	2830	-2582	-14652	-4760	-1496	-5493	13941	3263	872	8736	16776	-158	-3342	1321	-7504	2488	-2136	405	-1925	-471	-17952	6216	-4768	-292	-2395	335	120	148	1
-9460	-4716	12888	-188	1257	-384	-15780	2488	-2648	5160	2596	-1731	-14292	-4096	-1508	-2589	14158	2879	-3144	7048	16056	-535	-4064	1429	-6832	4440	-4200	-91	-2676	-469	-16392	3768	-6120	-762	-2252	300	118	172	1
-9180	-4864	12488	566	845	211	-15316	2452	-1784	-6521	3695	-1798	-15344	-3056	-756	-2114	14725	1065	-5960	3952	15440	-388	-4755	1613	-7272	2120	-4056	-529	-3305	-650	-13704	3240	-6880	-988	-2093	287	117	191	1
-9240	-4588	12740	1489	533	1013	-15880	496	-888	-12127	4475	-2689	-15716	-2284	1144	-3614	15126	1044	-7872	2752	13744	108	-5384	1790	-7432	1056	-4176	-475	-3865	-756	-11000	2880	-8600	-1042	-1813	236	122	197	1
-9276	-4456	12804	2197	141	1436	-16424	-2320	-552	-7305	4720	-2564	-15372	-3952	1892	-6022	15584	1249	-7760	3584	11184	354	-5655	1691	-8448	1584	-3744	-404	-4505	-735	-9384	2624	-9104	-977	-1474	184	124	192	1
-9476	-4656	12680	2423	104	1663	-16500	-1188	-616	-522	4213	-2031	-15628	-4460	2364	-5341	15156	2505	-8960	3616	9832	429	-5460	1365	-12872	3408	-5168	-775	-5063	-654	-9032	1272	-9760	-1230	-1062	130	124	172	1
-9640	-4376	12936	2104	170	1570	-15724	668	-844	-1231	5320	-1692	-15056	-3960	1772	-3779	15784	2580	-9352	3592	9616	474	-5395	1313	-12032	2024	-7888	-1574	-5432	-705	-8328	-296	-9248	-1520	-752	-71	115	171	1
-9672	-4568	12768	1606	118	1754	-15668	128	-728	-4264	6539	-1899	-15216	-3196	1032	-2990	16495	1143	-18352	8160	17832	1075	-4249	977	-18464	2136	-10616	-1286	-5462	-737	-6992	-2488	-9192	-1895	-447	-182	125	160	1
-9984	-3996	13084	759	286	1692	-16052	148	-856	-4058	7335	-1969	-16184	-2920	776	-2262	15523	429	-24080	13128	21728	934	-4326	1149	-22752	5456	-13736	-1479	-5886	-659	-7240	-5672	-6568	-1846	-545	-230	126	163	1
-9388	-3524	13140	536	485	1670	-16216	720	128	-2104	8349	-1830	-16364	-2592	948	-1388	14254	534	-25200	9856	22080	571	-3921	1250	-26280	3272	-13840	-789	-6152	-641	-10096	-4752	-1312	-1642	-938	-411	124	157	1
-9508	-4244	13108	558	1224	1926	-16964	-776	-256	1366	8882	-1654	-16752	-3196	1576	-536	12511	1339	-32768	7248	26768	995	-3660	1516	-26632	2520	-16736	904	-6108	-481	-10864	-1968	3344	-1014	-624	-237	124	161	1
-9420	-3868	13328	-68	2607	1840	-17400	680	-740	3386	10129	-1542	-17900	-3104	2228	378	11159	697	-32768	7136	25624	1390	-4189	1889	-22360	12752	-17712	1606	-6027	-152	-12480	-112	4432	-290	14	151	127	149	1
-9404	-3520	13408	-1096	4608	1785	-17568	2724	-996	2122	11689	-1586	-18028	-1420	1560	-490	10457	130	-32768	7552	10632	927	-5257	2181	-20032	10896	-19544	786	-4868	285	-16864	5576	13872	185	138	449	128	134	1
-9900	-3844	12768	-2186	7105	1729	-17032	1816	-1204	854	13569	-1970	-17520	-1500	1604	-2831	9269	563	-32768	-11624	-11456	1613	-4535	2515	-21360	1888	-19920	392	-3324	864	-18848	168	32767	-960	3	344	126	136	1
-9792	-3616	13268	-2831	10769	1615	-18488	472	-1668	3233	15166	-1957	-17188	-1656	1612	-3332	9145	627	-32768	-26416	-31496	3087	-2453	3178	-8136	1624	-18424	1585	-1474	644	-21872	-2904	32767	-846	-808	-151	122	109	1
-9712	-3076	13280	-3415	16000	2100	-19600	1760	-2224	5540	16917	-1469	-18912	-4604	280	-4686	6139	615	-32768	-18600	-32768	632	308	1186	-4736	11456	-18144	1411	1139	74	-20440	-9656	8016	991	-1262	-639	118	117	1
-9828	-3096	14192	-3317	21281	2262	-20636	2364	-2352	5741	18636	-1222	-19592	-6428	1188	-5593	5073	951	-32768	-8344	-6864	-1761	1969	-1412	-11280	15496	-19536	-1327	2867	-59	-12544	4304	4472	2409	-31	-180	123	143	1
-9600	-5200	13052	-2066	27099	4265	-23228	2660	-244	3704	20485	-1564	-21244	-3564	2808	-4402	3238	1219	5328	2160	31760	-1164	1908	-1744	-15216	4200	2360	-1504	3636	-225	-1464	9568	4560	959	450	941	121	125	1
-10064	-5556	12148	-688	32767	8427	-23852	4724	1368	337	22259	-2716	-21752	-1524	9480	-4366	473	708	12432	16072	5912	-545	3012	-2534	-32768	-3272	16504	-3924	1593	381	-20712	6024	-2888	-606	1564	1387	127	86	1
-12556	-5976	12804	576	32767	11991	-29912	6748	6364	-7264	24928	-2095	-27828	-3396	28360	-7664	-15593	-251	-32768	6208	31264	81	5514	-835	-10096	120	-19920	-224	1112	-30	-32432	4160	7752	-970	957	-95	134	69	1
-22036	-4496	14516	1657	32767	15139	-31420	8956	7812	-8171	25568	-1723	-18284	7496	14416	-17886	-14886	1607	-26960	-9680	28192	-1135	1826	-1708	-24408	20888	-13160	-751	4156	-859	-18784	-4576	5936	-2582	1340	952	128	54	1
-32768	-6676	19600	-9204	32767	10789	-26148	3404	-596	-5322	32090	109	-18172	8828	13052	-16705	-13254	2748	-8304	19936	9480	-964	1804	-1023	-18664	912	-5240	-2879	2202	889	-13216	-3392	-14872	408	2611	746	129	40	1
-32768	-11344	23472	-3016	32767	19724	-32768	-6840	-1768	-1369	31480	-1561	-26872	-3348	-6484	-12023	-19670	2493	-18120	-3136	21536	-1086	1332	-974	-6144	5264	-11600	-2037	2093	509	-3976	7192	-5296	1163	271	-161	133	61	1
-32768	-18056	21576	-1149	32767	23847	-26084	-1092	64	-1784	27450	-1369	-24756	-5784	-11492	-6780	-23762	88	-11968	11064	13632	-783	736	-766	-19240	-712	-10200	-960	1855	354	-23928	5808	-6304	52	1435	1044	127	71	1
-32768	-17472	22340	-810	32767	24842	-19932	-4604	-10980	1902	24197	-1941	-25744	-976	-7904	-2249	-25700	-4840	-9992	1272	15608	-577	407	-559	-21816	-896	-6872	1842	1162	1045	-19800	-3008	-3688	663	1341	842	117	46	1
-27324	-9952	32767	3680	16819	19964	-13960	-7296	-16496	15382	15490	832	-27624	-2704	-7668	-643	-25501	-8181	-9336	5008	13904	-463	285	-420	-15872	6480	-4888	2564	574	695	-15488	1512	-1864	1346	1506	79	118	92	1
-20456	-18520	32767	-2032	-22886	3215	-10848	2740	-9512	7192	4586	437	-25336	-1224	-8328	3644	-22842	-6327	-9288	3760	13504	-335	189	-308	-14424	8824	-3816	633	739	418	-14712	7384	-1784	1149	1503	34	127	122	1
48	-10684	17336	3643	-31472	1114	-11952	3000	448	-4583	-794	262	-25252	-1180	-7372	-60	-23295	-5330	-8408	4672	12976	-296	231	-278	-17520	7528	-3944	-1062	877	333	-17016	6136	-1568	598	1421	163	125	127	1
2352	-4800	11640	2323	-30934	375	-6432	1528	-1624	-1632	-7586	131	-20932	-1800	-5776	-488	-22888	-6754	-11032	5608	13032	-278	232	-273	-16776	4024	-4720	-1062	723	227	-16512	4848	-1008	416	1549	126	139	120	1
692	-4500	11116	-2076	-31469	-2446	-2840	592	-3156	-4414	-13617	1978	-17640	-5372	-5856	673	-20632	-7074	-9152	5032	12584	-320	134	-278	-16792	2104	-3720	540	403	345	-16640	4560	-888	350	1650	75	138	124	1
-3420	-6816	12048	-3124	-32768	-4868	-5092	-344	-3792	-6669	-19115	4150	-14720	-4932	-6720	5889	-16306	-5878	-9480	4760	12688	-298	77	-278	-16624	6056	-2512	1262	219	538	-15704	3912	-16	311	1606	-58	146	143	1
-7872	-7592	13492	-1561	-32768	-8532	-5528	-2220	-6316	-3723	-24640	5234	-13904	-1504	-7716	9532	-13126	-5520	-9336	4160	12472	-247	80	-244	-15272	6824	-1944	664	324	348	-15432	3488	1216	179	1585	-110	135	118	1
-9292	-6924	12380	52	-32768	-12860	-6100	500	-5612	-1890	-30184	6578	-12760	-1472	-9136	10426	-10613	-4762	-9304	4208	12408	-197	96	-215	-15240	6224	-1720	-17	645	231	-15432	3680	1576	180	1643	-34	121	107	1
-10072	-6268	11304	784	-32768	-16578	-7800	1280	-5368	-2901	-32768	7675	-11016	-1200	-9624	11586	-7147	-3274	-9440	3760	12600	-117	128	-173	-15856	4760	-1872	18	654	255	-14992	3776	2376	286	1651	11	128	105	1
-11152	-4656	11104	-986	-32768	-19637	-8412	644	-5016	-1168	-32768	8779	-8772	-304	-10824	14729	-5044	-2263	-9248	4264	12632	-71	149	-162	-15344	4544	-1856	331	654	287	-15104	3784	2752	605	1709	86	121	101	1
-11976	-3288	9744	-5347	-32768	-21389	-12892	1372	-6108	1662	-32768	8771	-7052	1128	-12168	17860	-3827	-1456	-9408	4024	12360	-42	181	-160	-14960	5920	-2232	452	689	282	-14536	4832	3008	604	1841	28	127	108	1
-14820	-4372	11536	-7717	-32768	-21162	-15172	-740	-9852	5386	-32768	9428	-7088	3024	-11416	18757	-1720	-537	-9472	4272	12560	-44	212	-168	-15472	5472	-1912	378	748	262	-14568	4456	1968	28	1907	105	127	114	1
-28588	-6516	25384	-8545	-32174	-19928	-19008	1872	-14900	6411	-32768	10464	-6904	6104	-9760	15505	-641	1365	-9368	3584	12520	-38	281	-177	-14976	4728	-1888	372	857	259	-15760	3744	568	-216	1723	158	126	119	1
-32768	-8920	30868	-6834	-32768	-21218	-25748	2376	-15872	1543	-32768	11277	-6820	6212	-9292	14871	-674	1575	-9176	3600	12600	3	383	-154	-15408	5064	-1864	408	978	250	-17128	3552	200	166	1460	28	125	111	1
-32768	-8252	29868	-3000	-32768	-20915	-29592	2256	-18156	-11221	-32768	12943	-8676	1648	-88	5200	-4635	1254	-9144	3456	12680	64	529	-178	-17032	5496	-2752	385	1082	261	-17040	2824	1504	96	1431	74	124	117	1
-32768	-2576	20768	-4544	-32768	-19946	-24084	-1688	-16412	-27167	-32768	10126	-11948	-3024	3140	-257	-4415	-1101	-9144	2952	13224	173	784	-170	-17544	3376	-2192	570	1168	288	-17416	3336	4824	-8	1469	136	125	110	1
-32768	-1212	2432	-6332	-32768	-12851	-25520	-8212	-18456	-21985	-32768	3427	-16528	-5248	8128	-1806	-1649	-2475	-9296	3240	12952	316	1102	-105	-16752	3680	-472	795	1389	259	-17280	1928	6736	370	1254	38	136	105	1
-32768	9856	-11272	-15171	-32768	-5878	-23292	-2236	-22204	-18704	-28725	-3212	-27008	48	30832	9890	-3666	-4055	-9224	4448	13144	385	1491	-113	-18104	6520	-424	601	1713	246	-18608	1848	6336	492	863	56	134	92	1
-32768	18608	-28928	-26425	-20527	-10721	-11348	640	-22484	-21682	-11279	-4640	-22832	1712	32767	-2530	-4962	-1231	-9240	3768	13312	419	1998	-140	-19336	5392	-528	276	2002	145	-18160	5504	6048	731	624	94	135	96	1
-32768	13600	-32768	-6996	-692	-557	-4836	-7920	-19296	-17032	10453	-3373	-19960	1636	22580	-16408	-4458	1573	-8992	5696	13192	249	2576	-307	-21448	6376	-1136	201	2227	113	-20024	6616	5080	1104	529	45	123	114	1
-32768	7764	-17724	9785	16359	16459	-15972	-13016	-19580	3878	23911	-1554	-17332	-6524	7344	-17734	-849	-24	-9160	5592	12080	182	3409	-600	-23312	3360	96	384	2440	167	-21024	4648	8824	992	117	-51	119	121	1
-24468	-24336	32767	31554	17758	14614	-21144	1268	5264	13209	20085	-3098	-7152	-9888	-6788	-9414	8877	-5422	-9848	5120	12240	228	4566	-916	-26400	656	1632	976	2615	283	-22680	2040	21904	267	-1134	8	116	123	1
18568	1204	8104	-1406	24943	-8474	-32768	29692	16228	32767	6780	186	1212	-13304	-14808	10487	15602	-14220	-17096	7192	16392	165	6243	-1268	-32768	1624	8048	2143	2881	362	-19632	-5760	19960	670	-2294	-271	126	129	1
-32768	31036	32767	1325	32767	8000	-26128	-1828	-18128	32767	14824	3315	-32768	-12980	17940	32767	-5683	-10123	-31136	7448	21240	121	7624	-1557	-32768	3176	6720	2611	3060	133	-24128	-9752	17352	543	-2040	-681	149	140	1
-23840	-5172	21092	2338	10785	13835	-16016	140	-10000	25728	16534	-6202	-21140	13588	-8024	32767	9901	5533	-32768	12448	27408	115	8160	-2268	-32768	12696	2448	2276	3343	0	-27768	5000	7056	1305	-2491	-901	130	148	1
-8500	-22200	7468	7607	20314	7026	-19704	3732	-5992	19784	11368	-8855	-13440	28468	-8668	302	26803	2978	-32768	13480	25752	494	7526	-2828	-25080	11904	680	1117	3060	-339	-25624	6152	-13952	1876	-2805	-810	138	151	1
-20152	8044	24600	5828	8122	8529	-7968	-4164	-11304	11863	9204	-9351	-904	-6796	-22392	-20674	6753	898	-32768	26608	32767	537	5364	-2806	-17928	13048	-12944	597	3281	-466	-26064	8944	-11072	891	-2380	43	145	139	1
-11048	-15408	10316	7542	4137	6761	-17656	1080	-7508	-17499	11559	-4264	-12784	-13436	656	-20753	-3173	-5499	-5904	21552	32767	-426	1746	-1519	-13456	13224	-21896	-2346	2474	-686	-30752	3080	-4664	101	-2578	429	109	141	1
-10876	2496	15876	2785	1008	2484	-18536	4704	-7168	-22443	10139	-4002	-23240	-9924	-8264	-15349	20500	-14153	2560	17496	27992	-1005	-2150	-164	-16576	1168	1112	-1828	1236	105	-30928	1248	-4992	-421	-2422	291	115	152	1
-10956	-1300	14748	1501	1572	1401	-20784	-3952	-4716	-13594	8328	-5221	-19864	-1076	-2500	-11640	11762	1669	5000	6232	18400	-941	-2678	-21	-13336	-4200	1240	-401	-229	358	-27144	-608	-4536	-140	-2492	146	116	124	1
-9456	-5404	13356	227	1704	307	-16652	-3284	-2280	10211	4078	-4551	-15476	-7228	-772	-7551	15954	2725	2840	6904	17120	6	-3324	509	-6248	-2368	-3048	726	-1243	-246	-20992	392	-4416	368	-2609	73	120	137	1
-9260	-3172	13716	-260	2407	140	-17048	1756	-1124	14734	1389	-2361	-13248	-5776	736	-2325	12670	5593	0	9096	15984	190	-4057	842	-5984	1656	-3272	1485	-2248	-333	-17072	5192	-5648	609	-2494	210	125	148	1
-9972	-5232	12736	722	2141	1005	-15616	4708	-840	-5091	5031	-1977	-14036	-4316	124	-1752	12257	1709	-4304	7584	14592	5	-4778	1071	-5792	4872	-3912	1126	-3026	-151	-15784	3840	-7368	-89	-2332	280	116	196	1
-9712	-4584	12928	1683	1250	1609	-14940	164	-1600	-17134	6875	-3666	-16392	-5068	-20	-1763	13494	-981	-7400	5648	13728	121	-5408	1337	-5888	3616	-3744	194	-3584	-273	-13400	4432	-7680	-344	-1980	323	109	209	1
-9996	-3144	13168	1641	1083	1427	-17084	-3572	-1772	-8819	6059	-3184	-16460	-4988	92	-1440	13604	-699	-7800	3192	10952	560	-5963	1616	-7168	1984	-3352	-103	-4116	-273	-10952	3392	-9248	-488	-1626	234	120	198	1
-10076	-3148	12960	1160	1335	1144	-16932	-184	-1904	1603	5353	-1468	-14184	-2504	1568	-916	14277	1281	-6096	3024	7488	981	-5829	1583	-10768	1568	-3272	-392	-4741	-231	-9864	3088	-9680	-635	-1365	153	119	203	1
-10352	-3244	13008	1066	1353	1002	-15904	2348	-3000	7	5524	-1752	-16024	-2480	1416	-2563	15008	1184	-10024	4200	8552	1190	-5132	1344	-12440	4256	-6360	-964	-5377	-100	-9792	1112	-9592	-872	-1026	10	114	195	1
-9920	-3568	13016	-9	2114	544	-15864	812	-1752	-4403	6773	-2159	-15624	-1824	404	-4224	15828	2608	-14800	6376	13096	1258	-4604	1285	-12272	1424	-8872	-1663	-5343	-349	-8104	-1288	-9640	-1303	-682	-114	117	182	1
-9992	-3196	12908	-348	2335	526	-15756	496	-2184	-5214	7604	-2222	-14860	-764	192	-6151	17084	703	-21656	8488	21024	1520	-4256	1469	-20280	3000	-12032	-1667	-5599	-259	-5728	-4232	-8928	-1740	-559	-129	126	186	1
-10044	-3132	12736	-617	2570	279	-15292	668	-2100	-4650	8150	-1975	-14424	-1488	-440	-6231	15847	23	-25568	12816	23224	1291	-4368	1905	-24152	2904	-13744	-1274	-5911	-440	-7488	-4336	-5112	-1748	-901	-246	128	175	1
-10028	-3252	12956	-778	2694	245	-15064	204	-1508	-2921	8822	-1878	-14804	-3520	4	-6035	14475	383	-28144	8936	24984	770	-4219	1963	-24360	3856	-14952	-251	-6205	-292	-7816	-3688	-3824	-1694	-987	-282	127	171	1
-10196	-3780	12664	-1098	3390	221	-16132	-1252	-1800	-559	9728	-1758	-15668	-5568	-216	-3475	13280	1293	-32768	4344	24304	1113	-4165	2132	-24736	5512	-14896	360	-6066	-162	-10616	1616	4280	-332	-793	-9	127	163	1
-9948	-3848	12764	-1336	4279	524	-16968	4	-1732	1372	10382	-1647	-16524	-5352	-92	29	12849	1659	-32768	4440	23464	1317	-4396	2427	-23896	11248	-17256	1138	-5551	-287	-14112	5848	10096	352	-603	501	128	171	1
-9956	-3524	12780	-1660	5878	867	-17400	788	-1404	2158	11360	-1638	-17740	-3488	824	950	10157	1401	-32768	5008	8624	625	-4957	2270	-20496	9056	-19040	1257	-4630	55	-17552	7768	15312	328	224	918	125	148	1
-9744	-3336	13096	-2429	8482	971	-17600	1508	-1284	2301	12997	-1600	-18608	-684	3216	846	8136	188	-32768	-12048	-17208	822	-4225	1940	-16168	2520	-19936	677	-3209	676	-15112	-3248	31736	-1406	-30	320	126	127	1
-9788	-3164	13320	-2832	12328	1533	-18728	2132	-1572	3466	15059	-1799	-18204	2052	3168	-2919	7156	65	-32768	-25432	-32504	3413	-2029	2135	-7904	2536	-17880	1420	-936	788	-21152	-600	32767	-1552	-733	-359	123	129	1
-10272	-2736	13088	-3001	16704	1804	-19104	2776	-2736	4194	16914	-1801	-18260	-1012	556	-6719	5148	769	-32768	-5728	-27600	417	869	935	-6880	11920	-17808	542	1485	31	-17656	3464	19760	730	-861	-765	120	123	1
-10212	-3784	12992	-2897	21697	2072	-20268	1620	-2020	3944	18929	-1477	-19784	-5636	1888	-9654	4707	896	-32768	-7752	-4688	-3387	2647	-987	-12488	12352	-18520	-2099	2885	-217	-10952	7392	1288	1698	297	132	123	166	1
-9648	-5660	12016	-2338	27942	4627	-23800	2724	408	1958	20787	-2027	-21812	-5180	5528	-9070	2009	685	256	22504	15344	-1171	2193	-1621	-18280	13608	18224	-2181	3314	-337	-8824	8472	-1840	1412	617	411	124	125	1
-10636	-5300	12480	-2147	32767	8640	-26840	6280	1296	-3634	23099	-2871	-25124	-3076	16080	-6044	-7484	211	2904	-10688	-1952	-615	4110	-2123	-32768	-11240	-7944	-4089	1309	1257	-32768	8792	6680	-505	1163	887	125	68	1
-15568	-6936	13020	-895	32767	11975	-32768	11256	7644	-7076	26606	-1058	-23656	2964	20248	-12779	-18498	306	-32768	-944	32767	-691	3657	-591	-12488	4080	-14184	1	3941	-1263	-25864	-9216	3472	-1552	573	280	130	48	1
-27284	-2608	19500	-5342	32767	10627	-32768	11356	6272	-8286	26827	-687	-21976	3160	8856	-14520	-15980	4634	-8128	2608	15256	-539	2209	-990	-22016	-568	-7248	-1697	3261	340	-13008	-11144	-10088	-1844	1914	1083	136	26	1
-32768	-8836	23048	-6667	32767	13771	-32768	-2084	-608	-2405	30542	561	-26112	-1308	7476	-15495	-20314	4636	-17496	8448	16920	-467	2556	-756	-10280	3624	-9912	-663	1697	720	-9224	-6224	-10472	1518	747	-123	125	70	1
-32768	-16932	20240	-1067	32767	22089	-29488	-4976	-868	-666	28756	-1066	-22820	0	-12580	-6621	-17190	1855	-6496	2696	9856	-907	838	-837	-13968	9320	-10112	-1501	1905	573	-16488	11064	-9464	1303	988	21	118	87	1
-32768	-19264	24040	578	32767	27430	-21716	-5320	-3784	136	25748	-2773	-25316	-5260	-8056	-8359	-24714	-2485	-6384	4976	13136	-859	916	-830	-24736	-576	-8168	-40	1616	885	-23440	6560	-5888	619	1181	932	129	79	1
-20784	-17180	32767	2524	30652	22593	-16404	-5852	-14224	10419	20213	-740	-27012	-3664	-6944	-5788	-25137	-7000	-12152	4360	15232	-713	501	-672	-16160	3680	-6984	2774	685	934	-16616	2064	-2248	780	1354	559	123	26	1
-32768	-24264	32767	-3764	-7928	6837	-11216	-984	-18532	15166	10557	876	-27092	-4412	-7912	1790	-22926	-8101	-9464	4360	13272	-137	292	-230	-15448	7792	-4144	2133	535	503	-14440	5752	-1048	989	1524	9	116	61	1
-2288	-15368	21136	2655	-29577	2197	-11148	264	-15068	11580	8380	768	-29208	-2416	-5844	-129	-24016	-4560	-9352	5040	12760	-99	297	-208	-16736	9808	-3296	355	824	352	-16440	6720	-536	554	1453	-72	122	67	1
1896	-5680	13428	4915	-31025	3253	-9368	1088	-68	-1129	-4707	-346	-23112	-712	-6076	338	-21729	-5841	-9840	5744	12488	-7	259	-120	-16024	7216	-4160	-915	783	212	-16248	3976	-384	424	1484	80	122	88	1
848	-3552	12528	-47	-31831	355	-3748	1384	-3300	-653	-11266	723	-18872	-1992	-5884	249	-21496	-6980	-9384	6192	12192	8	218	-115	-16416	3528	-4000	-692	762	137	-15808	4072	-896	519	1596	111	131	82	1
-1900	-5240	12296	-3904	-32768	-2897	-4196	1688	-3856	-6831	-16340	3514	-16396	-4692	-6728	4019	-18563	-5180	-9296	5688	12224	-36	174	-168	-16504	2560	-3064	812	407	344	-16136	4264	208	459	1640	20	138	110	1
-6068	-7024	12944	-3176	-32768	-5940	-5236	-548	-5312	-7722	-21796	4810	-14488	-1220	-7088	7538	-15584	-5391	-8992	5176	11984	-133	136	-233	-16088	6136	-2120	1342	235	467	-15168	5152	896	280	1656	-106	141	114	1
-7496	-6700	11916	-112	-32768	-9361	-5888	-368	-5328	-6001	-27510	5668	-13288	132	-8196	8949	-12913	-5053	-9248	5048	12304	-193	157	-272	-15304	8544	-1864	403	417	306	-15432	4576	1736	35	1627	-94	119	96	1
-8104	-5308	10676	1207	-32768	-12390	-7172	1708	-4720	-5700	-32270	6401	-11000	-464	-8704	8408	-9684	-3954	-9456	4800	12296	-168	181	-265	-15584	5384	-2056	-372	627	154	-15736	3472	1840	-134	1662	-60	126	121	1
-9408	-4140	10676	88	-32768	-14623	-7332	456	-4640	-4380	-32768	7379	-8644	-532	-9724	8031	-6607	-2907	-9600	4368	12416	-120	165	-227	-15736	3648	-2464	86	623	172	-14976	2656	2008	47	1753	-2	132	128	1
-11676	-3208	11924	-3296	-32768	-15949	-10552	460	-5964	-1850	-32768	7385	-7288	480	-10516	10029	-4029	-2404	-9416	4832	12024	-87	162	-200	-14696	4944	-2136	707	585	282	-15368	3344	2176	496	1676	66	122	124	1
-13676	-2540	10840	-8410	-32768	-16716	-13344	-168	-8880	2885	-32768	7291	-6244	1628	-10696	13506	-2487	-1331	-9624	4744	11960	-61	189	-187	-14872	5864	-1704	650	691	252	-15312	4688	2936	496	1820	-36	124	124	1
-18308	-4580	16136	-11546	-32612	-16393	-13912	-444	-9888	4022	-32768	7325	-6296	4428	-10068	15572	-917	270	-9776	4496	11720	-75	174	-192	-14720	5368	-1944	586	842	210	-15072	4392	2576	406	1918	-15	125	127	1
-29996	-6320	26204	-12333	-32768	-16890	-21828	4028	-14860	665	-32768	8846	-6316	5936	-7560	14984	-1121	2032	-9592	4696	12024	-88	197	-205	-14664	5952	-2136	487	902	201	-14640	3984	1912	257	1837	75	121	125	1
-32768	-7700	27484	-8612	-32768	-16763	-27384	2548	-16168	-9200	-32768	9225	-7536	3732	-2296	10812	-3784	2708	-9592	4432	12312	-18	284	-182	-16200	4312	-2032	427	1079	189	-16432	2944	3064	60	1592	62	119	117	1
-32768	-4292	26452	-6570	-32768	-16493	-26328	2284	-16348	-20943	-32768	9077	-10004	-520	2180	4063	-4946	76	-9528	4600	12272	29	420	-198	-16616	4984	-1400	578	1190	205	-16392	2608	4344	140	1495	45	125	104	1
-32768	-2584	19748	-7843	-32768	-16366	-24212	-5264	-15212	-24079	-32768	5678	-13692	-4988	3184	-5006	-388	-2367	-9160	4824	12256	107	622	-234	-16816	5600	-968	561	1329	213	-17272	3088	5032	202	1474	57	135	109	1
-32768	-916	5672	-7482	-32768	-11135	-25120	-5364	-17060	-18751	-32768	408	-20936	-2988	15308	-708	-1339	-3333	-9488	4288	12600	246	911	-247	-17344	4704	-680	458	1606	137	-17720	2904	5784	268	1233	88	133	112	1
-32768	13968	-16080	-19004	-32768	-12761	-19640	3732	-21668	-20187	-24350	-4223	-26708	-2248	32767	8168	-5429	-4039	-9960	5216	12784	298	1333	-315	-18352	5736	-1168	338	1829	109	-17368	3016	6640	556	1090	102	134	120	1
-32768	22904	-32768	-23155	-15921	-18180	-5812	-1804	-17380	-16134	-1921	-4988	-23280	-2820	32767	-238	-5506	-253	-9744	4344	13520	223	1964	-420	-20000	5336	-1992	121	2106	81	-19336	5968	5520	712	810	131	138	126	1
-32768	9260	-32768	5288	9746	-555	-8856	-12008	-18164	133	17494	-609	-18224	-2880	14348	-3860	-4591	1532	-9304	4832	13400	296	2683	-458	-22544	4056	-2240	130	2402	30	-20776	7296	10360	715	184	160	122	113	1
-11376	23320	-3152	24944	29185	18027	-21348	-12368	-10476	18920	23188	-905	-14012	-3288	2796	-10557	1666	-311	-7840	6480	12704	455	3736	-590	-27072	1864	2648	1030	2654	67	-21952	1048	20552	678	-1432	55	112	118	1
3556	-12080	30088	16373	20078	10578	-29656	14564	30676	32767	12376	-262	-9828	-6636	-5016	3517	7588	-6426	-9960	8368	13632	394	5175	-1013	-31544	2040	4856	1502	2845	134	-21480	-7048	20120	787	-1629	-440	124	125	1
-11412	6168	5136	6481	32767	2396	-23024	21400	-19600	32767	14083	-346	-22988	-16516	-1492	14316	8044	-18329	-22904	9880	20976	257	6973	-1601	-32768	-360	7616	1773	3207	131	-29024	-3064	14984	615	-2257	-572	135	142	1
-32532	21148	32767	2313	24212	6659	-13764	-1792	-12516	16628	20417	-146	-20148	2932	1212	32767	3068	-2181	-29648	11824	24040	439	8152	-2005	-32768	6976	4000	2256	3248	-45	-25936	-96	16200	334	-2724	-828	157	158	1
-11896	-13672	12960	-712	19844	9779	-16380	-2544	-9708	14562	20544	-2026	-19540	21780	-12684	15835	18053	6223	-32768	16120	28144	563	8046	-2697	-28064	12048	448	2013	2995	-397	-24064	1608	-2744	710	-2380	-715	150	157	1
-26352	-11112	20872	8185	18403	10407	-15044	-7928	-10760	15254	12146	-8438	-7560	6372	-8972	-3624	7817	-853	-32768	17368	26776	1018	6518	-2846	-16824	12936	-13120	669	3373	-441	-23072	8968	-8032	1793	-2423	-327	124	145	1
-14392	-3384	17264	8104	5882	7948	-18080	-1884	-9024	13153	10299	-8993	-9440	-17556	-6820	-19843	1935	-328	4160	18200	32767	462	3386	-2292	-13896	16192	-15744	-1075	3034	-689	-27008	7544	-3280	807	-2455	263	129	140	1
-11768	-2536	15736	5812	985	4524	-16180	3292	-8384	-4759	10772	-4274	-21948	-9956	-8260	-5240	12270	-9731	-13688	30504	32767	-594	-936	-636	-16136	6424	-6520	-2623	1880	-154	-30688	5288	-5320	-87	-2288	399	132	141	1
-11492	-4012	13916	4187	-510	2833	-15848	3820	-7180	-21810	11193	-4690	-18100	-2328	-3772	-7596	11785	-4728	7368	11120	20240	-1537	-2011	-534	-15312	-2296	4800	-882	264	380	-29224	3872	-4800	-357	-2569	554	94	119	1
-10652	-2868	14080	2633	-771	1504	-17752	-1996	-5068	-18223	9689	-4351	-16048	-2852	-2036	-9368	13897	31	984	8552	20992	-607	-2834	-12	-7808	-1288	-2984	-321	-834	-182	-23408	3752	-4272	-142	-2401	319	130	112	1
-9752	-3252	13484	1511	-407	748	-18512	-6068	-3820	1853	6059	-3678	-15476	-5484	-1504	-8332	15444	929	744	10944	18168	-232	-3866	508	-6336	544	-3552	674	-1824	-530	-19616	3464	-4888	-28	-2404	228	118	127	1
-9532	-3284	13492	896	-175	386	-17240	-1572	-4216	15751	2644	-3086	-14248	-5012	-2264	-4227	13964	3060	-2744	9072	15448	-422	-4571	855	-8232	2472	-3176	827	-2800	-395	-16560	2400	-6416	-431	-2207	216	126	166	1
-9504	-3080	13280	726	-36	263	-15048	4088	-3984	11072	2357	-2445	-15200	-4004	-2272	867	14015	2252	-6424	6168	14232	-270	-5230	1283	-5680	2312	-4576	528	-3470	-532	-13816	1592	-6696	-688	-2088	301	111	198	1
-9408	-3732	13148	826	-79	446	-15240	3716	-3248	-3777	3627	-2551	-16540	-2344	-1300	2701	15298	416	-7848	4080	12264	76	-5685	1593	-7464	1384	-3544	383	-4012	-486	-11080	2592	-8464	-690	-1814	246	120	195	1
-9580	-3808	12932	1127	-293	736	-16356	820	-2544	-11249	4944	-3512	-15632	-1484	-292	155	16192	-57	-7656	2424	9264	623	-5854	1666	-8464	2000	-3200	39	-4562	-406	-9384	1984	-8656	-514	-1492	243	129	193	1
-9364	-2392	13356	875	-2	674	-16548	-1304	-3468	-4904	4624	-3367	-14756	-2164	808	-2228	17527	551	-8560	4096	8600	897	-5509	1386	-13048	3904	-5304	-378	-5122	-314	-9288	1512	-8792	-622	-1087	138	127	186	1
-9408	-3024	13436	515	653	274	-16296	-528	-1716	1087	3829	-2292	-15672	-1808	1712	-3303	17019	1818	-9200	4416	9040	918	-5425	1331	-11208	2616	-7680	-1544	-5419	-267	-8592	-528	-8640	-885	-732	-49	119	175	1
-9436	-3380	13036	598	919	445	-16388	-396	-1520	2029	4619	-2363	-15396	-2604	1596	-4728	17183	1839	-16664	7432	15320	1294	-4137	1169	-16944	1440	-10096	-1858	-5320	-331	-6640	-1848	-9112	-1420	-454	-128	120	161	1
-9580	-3176	13196	602	1067	640	-15528	1432	-1144	-1778	5751	-2554	-15968	-3132	1880	-5133	16199	514	-24400	13936	21568	1299	-4091	1719	-22336	2720	-13048	-1966	-5733	-506	-6624	-5320	-6640	-1534	-497	-118	125	146	1
-9616	-3212	13496	358	1239	911	-15824	800	-1640	-4209	7126	-3100	-16496	-4684	800	-4075	15328	99	-24984	11744	22200	541	-3802	1961	-25192	3776	-14248	-1073	-5995	-569	-8592	-3624	-1464	-1507	-965	-298	120	150	1
-9472	-2416	13792	-147	1929	648	-16772	684	-1628	-2770	8544	-2960	-15860	-3272	748	-2678	14251	552	-31384	5656	25480	913	-3535	2220	-25136	3920	-14576	74	-6076	-416	-9528	584	1480	-928	-805	-212	126	141	1
-8972	-2420	13964	-1210	3400	614	-17556	192	-1544	-637	9125	-2641	-17728	-2740	1392	-1437	13350	981	-32768	6624	26712	1746	-3777	2638	-25376	7912	-15376	768	-5915	-480	-13608	2512	7440	-496	-517	202	125	146	1
-9064	-2340	13680	-1324	3733	618	-18056	1700	-1176	-473	10170	-2952	-18832	-2200	2592	-1758	12172	549	-32768	9456	19048	1147	-4707	2639	-21408	11608	-18016	1499	-5143	-196	-17224	5520	9016	134	61	704	134	135	1
-9712	-2784	13292	-2478	8532	1294	-17568	1744	-840	-1348	12283	-3285	-18344	-1592	3424	-2781	9164	-109	-32768	-880	-2976	268	-5094	1893	-19336	6520	-18480	1118	-3956	711	-17912	2312	19496	-567	309	480	130	119	1
-9524	-3168	13980	-1990	12116	2202	-17860	872	-392	-565	14590	-3356	-18340	-3672	3136	-4014	8075	-95	-32768	-24344	-26264	2240	-3578	1831	-13240	2096	-19016	1280	-2360	1005	-19784	520	32767	-1123	-605	-43	122	112	1
-9068	-3236	14156	-935	16545	3009	-19828	1460	300	1904	17045	-3248	-19016	-4364	5088	-4063	7360	-258	-32768	-15104	-32768	2338	-1030	1900	-4568	8568	-19808	1109	259	137	-24784	-472	32488	-34	-840	-218	121	95	1
-9196	-3616	14100	765	21428	4435	-21488	1284	512	3957	19636	-3128	-20156	-5376	6312	-4384	7369	-478	-32768	-4112	-23640	-2334	1771	-281	-8440	15328	-20544	-1111	2525	-243	-12312	3072	7808	1028	-58	-15	124	135	1
-9536	-4044	13644	2208	28149	7191	-24404	2308	1776	4300	22288	-3664	-23396	-4592	9260	-6306	1399	-53	-12256	4264	-5736	-1697	3079	-912	-16200	12488	-4576	-3009	3047	-141	-7960	8336	-2392	870	1011	926	122	120	1
-8716	-5500	12544	3983	32767	11637	-27192	5960	2376	-211	24693	-5160	-24292	1772	16852	-8767	-8377	629	-5632	1760	22456	-1674	4238	-3182	-32768	-10088	5464	-7016	1755	837	-28016	6720	8504	-350	-313	1268	124	74	1
-14572	-5128	13548	6105	32767	15588	-32768	10668	6800	-9679	26946	-4864	-24420	2280	17232	-8816	-9965	1035	-32768	-1760	32767	-586	4143	-947	-13088	-6688	-17704	-890	2843	-1059	-26616	7960	21992	-1827	834	937	129	22	1
-25308	-2476	19412	6458	32767	17797	-31500	8044	5508	-8539	29559	-3554	-23080	4380	8916	-22313	-13826	3171	-13216	2168	18496	-589	1843	-1318	-19232	6968	-6872	-566	4144	-248	-12632	-18440	-14536	-2121	2710	5	129	14	1
-32768	-3628	21072	-4207	32767	13723	-30996	3580	-4052	-6400	31561	-3095	-26604	4620	480	-16619	-14694	2245	-10736	22512	10944	-922	2288	-976	-12024	7208	-7160	-274	1794	1123	-5296	-104	-15840	1454	1426	365	125	77	1
-32392	-9992	21808	-1351	32767	19907	-29584	-1428	916	-13271	27100	-4554	-23812	-3732	-9496	-12046	-24223	2143	-15360	-5792	19520	-1248	1156	-1158	-10640	11880	-12080	-2302	2190	448	-7856	13440	-4624	837	-171	-18	140	76	1
-32768	-18980	31384	-2942	32767	23440	-20632	-3128	-4704	-7668	23502	-4735	-21940	-4316	-10400	-9277	-27270	-1415	-15712	8080	15824	-1095	680	-863	-24536	-4344	-11936	-1906	2357	418	-29424	792	-5160	-769	1620	1444	124	58	1
-21144	-20168	32767	1360	24523	16937	-14736	-9708	-17000	2284	19914	-1857	-24936	-4404	-6420	-4550	-26461	-6827	-10280	4896	14264	-431	142	-335	-18912	-4904	-8192	2076	1030	1014	-18448	-7832	-3744	675	1246	653	111	40	1
-32768	-23316	32767	-7846	-21149	1910	-12432	-848	-10024	6136	9397	-288	-28000	-6256	-6684	-1651	-25416	-7704	-9448	1768	13952	-145	133	-156	-15480	4216	-6520	3020	471	878	-13504	1168	-1896	1538	1554	-180	116	55	1
2520	-14000	18540	-2737	-30004	-1533	-13848	1868	4016	266	-1666	-388	-26388	-1900	-6644	2798	-22481	-6686	-9088	4056	13192	-24	183	-62	-15576	9664	-4144	1523	789	678	-15032	8936	-2872	1324	1440	-97	122	102	1
1720	-7952	15160	-1046	-30406	-4976	-6644	2240	-1172	9692	-8786	-12	-21372	-3184	-6392	1562	-21780	-7526	-9016	5080	12704	13	226	-30	-16624	10440	-4328	-776	804	418	-16568	7512	-1696	632	1527	145	127	106	1
-492	-10304	15464	-2532	-31329	-14177	-3512	4132	-6024	5192	-14170	3391	-17912	-3552	-6512	2651	-20901	-7314	-9272	5488	12320	16	237	-65	-16368	4688	-3824	-1032	826	153	-16768	5728	-1704	557	1730	180	129	109	1
-6824	-11548	15428	-1038	-32768	-26249	-5656	5532	-5884	-5847	-19886	7327	-17928	-3728	-6964	2769	-20273	-7403	-9008	5200	12312	-6	212	-119	-16384	1152	-3040	694	471	271	-16072	5120	-88	502	1760	82	141	129	1
-7832	-8492	12008	5374	-32768	-32333	-6476	-264	-3428	-8694	-25888	9198	-15032	-2068	-8112	11014	-14097	-5353	-9080	4640	12536	-86	163	-191	-16168	5360	-2008	1599	266	558	-14840	2976	648	348	1667	-119	140	160	1
-6472	-2588	8764	11860	-32768	-30891	-8088	-1916	-2620	-4421	-32079	9487	-12568	-1332	-9296	11855	-10706	-4418	-9040	4208	12512	-168	91	-252	-14864	7760	-1560	614	355	442	-15192	2208	1784	264	1634	-217	121	124	1
-8596	4448	11296	10167	-32768	-24911	-9444	-3588	-3060	5133	-32768	10784	-10028	-2252	-10192	11025	-6380	-3464	-9272	4608	12704	-166	96	-249	-15592	6944	-1744	-316	759	257	-15536	3720	2256	294	1698	-151	124	130	1
-14192	2024	15932	2618	-32768	-18192	-11288	-1796	-6976	10496	-32768	12187	-7648	100	-10856	13532	-2156	-3074	-9160	4912	12456	-165	80	-240	-16216	4744	-2344	-34	749	259	-14872	4600	2176	582	1795	1	127	132	1
-18528	408	17104	-711	-32768	-10600	-13892	-1428	-11368	11499	-32768	12809	-6680	3028	-10400	18862	-1294	-1920	-9256	4320	12480	-165	109	-244	-15096	4768	-2368	437	661	288	-14536	5816	2352	789	1925	41	125	134	1
-18884	-736	17668	-5112	-32768	-3471	-16844	7064	-9356	5575	-32768	15705	-6072	5888	-9820	20577	-1226	492	-9824	4416	12624	-147	122	-236	-14912	6032	-2504	590	713	280	-14592	6384	2288	785	1947	25	125	132	1
-30292	-5104	25600	-10789	-32768	-1665	-23148	7512	-16068	-11779	-32768	13885	-6260	6904	-7624	19304	-2050	1753	-9360	4016	12576	-86	153	-227	-15912	4976	-1680	489	785	259	-15176	5024	3040	-98	2052	-65	121	133	1
-32732	-11732	24956	-6656	-32768	775	-27420	2684	-16952	-27947	-32768	11325	-8332	6080	-3820	13966	-3816	2395	-9232	4112	12600	-28	282	-226	-16320	4808	-912	324	980	231	-16736	3072	2792	-331	1798	-29	123	135	1
-32768	-8080	22456	-4665	-32768	3495	-26400	-320	-15508	-32768	-32768	5938	-10848	5820	840	3367	-4610	1752	-9216	4016	12960	33	411	-273	-16448	4544	-1184	290	1144	236	-17712	1832	3904	-116	1611	-37	123	122	1
-32768	-1584	19104	-14815	-32768	-1135	-25016	-6268	-14788	-24748	-32768	1443	-14580	604	3824	-4603	-3172	1414	-9152	4112	12968	102	641	-292	-17320	4208	-664	394	1315	251	-17800	3432	5984	-184	1507	33	132	103	1
-32768	-1584	7972	-23817	-32768	-9722	-24576	-5932	-16256	-21967	-32768	732	-20556	-4516	14200	-1440	-5064	-544	-9328	3360	13096	163	967	-333	-17152	4840	-240	427	1557	261	-17024	3104	7224	105	1390	75	134	121	1
-32768	5376	-14772	-19873	-32768	-19894	-19520	2936	-20996	-19010	-25303	-2662	-22952	-4080	32767	1936	-9787	-3066	-9184	4016	13552	151	1417	-356	-18024	6032	-656	242	1865	183	-17688	2920	6416	329	1157	88	138	129	1
-32768	19656	-32768	-4194	-15819	-25431	-6248	-920	-19108	-10089	-4078	-2269	-21488	-3416	32767	-3097	-6723	-3589	-9640	3800	13544	43	1930	-437	-19704	4888	-1440	55	2183	126	-19112	5336	4424	563	952	48	140	134	1
-32768	22388	-32768	-1379	-11833	-25107	-6528	-12064	-19368	9504	15642	351	-20824	-2944	15276	-4124	-5438	-116	-9112	4312	13592	-67	2542	-577	-20960	5344	-1160	113	2402	133	-20344	7112	5736	735	520	52	112	121	1
-32768	12568	-4240	12393	19431	6732	-17340	-9584	-21432	30215	23547	15	-11728	-76	2696	-11916	2656	32	-9240	4608	13032	-30	3425	-891	-24080	3840	-480	382	2664	223	-21024	3648	17144	280	-610	130	118	129	1
12748	-12468	30504	10099	14344	13940	-29756	13848	32767	12953	12536	956	-7148	-824	-340	1991	2915	-5675	-9040	4512	12976	2	3592	-943	-29848	1968	3704	1739	2836	341	-18120	-5256	20544	1305	-1850	-112	128	131	1
-8712	-4684	-14740	-40	32767	12262	-31400	23884	-22764	15143	18138	-7751	-30876	-13740	-1580	-2768	1786	-11053	-18496	7864	18216	-347	6332	-1875	-32768	2544	6592	2970	2905	365	-27112	-8360	12192	979	-1342	-276	110	120	1
-32768	1940	32767	2158	23602	2932	-11668	-9672	-13508	-791	23431	453	-23740	-2316	5756	26962	2291	-6441	-29088	7392	25264	-147	7557	-2141	-32768	5440	3608	2567	3029	237	-28880	2360	14624	1416	-2473	-763	134	139	1
-8144	-5196	16448	2475	19909	7351	-18708	1020	-6128	16071	20532	-7045	-15108	10092	-13256	11193	21023	-124	-32232	11288	29968	549	7937	-2330	-32768	9312	1832	2141	3225	-227	-23952	4592	248	704	-2284	-647	140	142	1
-20748	-7580	19932	3635	21273	6967	-12636	-5128	-11472	31928	10306	-4114	-6444	5948	-10880	2549	9022	-629	-32768	18208	27072	435	6887	-2992	-22688	10920	952	764	2970	-369	-24144	6880	-6664	988	-2122	-101	154	139	1
-18812	-5412	17976	6764	8504	7565	-16780	-2616	-12856	24523	8393	-8847	-9672	-8860	-3308	-7616	1313	2607	-27896	24752	32767	-362	4729	-3157	-13760	16024	-15624	480	2987	-501	-25192	7344	-4312	609	-2548	174	126	147	1
-11916	-4500	15728	6659	4576	6357	-18580	7636	-7156	957	9073	-6638	-22760	-6824	-8152	-3348	12676	-7474	-32768	31872	32767	-846	694	-1237	-12960	10232	-20400	-2589	2226	-289	-29688	2728	-5824	171	-2554	365	137	157	1
-12200	-1988	15604	3844	1180	3199	-14312	4004	-7724	-21464	10504	-5390	-19968	-2428	-2700	-6234	10433	-4781	7680	16672	18616	-1021	-1865	240	-16288	-1864	1176	-1410	932	400	-29160	2576	-5728	101	-2503	378	115	144	1
-9544	-3576	14344	2109	941	1641	-18428	-1896	-5800	-21579	9468	-3960	-14572	-3948	-2044	-9204	14812	-1859	3288	7848	17688	-554	-2113	840	-11496	-3192	-1088	-377	-428	59	-25592	1680	-5104	236	-2706	375	110	118	1
-9576	-3884	13760	1103	1229	913	-18540	-4260	-3784	-3339	5676	-4229	-16592	-4956	-1924	-8184	14788	1115	1672	9248	17064	-114	-2873	1343	-4608	112	-3936	711	-1357	-360	-20608	3184	-5312	390	-2573	280	113	110	1
-9504	-3444	13456	702	1592	416	-17504	-1600	-4592	8487	2620	-3785	-16748	-5272	-2016	-7867	14643	1411	-480	7448	15264	-198	-3713	1596	-6312	3312	-3200	721	-2279	-287	-17840	4208	-5464	142	-2393	251	120	138	1
-10008	-4068	13336	298	1701	101	-16376	2556	-3688	5996	1595	-3032	-15540	-2676	-1912	-2529	14460	3461	-4936	4312	15136	-12	-4382	1852	-5624	3072	-4696	25	-3018	-316	-15456	3448	-7136	-412	-2134	365	119	158	1
-10020	-4208	13172	235	1634	171	-15324	3468	-2768	-8598	3131	-2578	-15836	-3576	-960	-2075	15989	1550	-7696	2920	14368	375	-5191	2112	-5544	1824	-5008	-175	-3573	-458	-12528	3008	-8288	-512	-1828	311	119	179	1
-9808	-4544	12836	572	1121	496	-16148	-1144	-1828	-15932	4434	-3398	-15248	-3940	-1020	-3149	16972	355	-6328	1888	10368	563	-5641	2033	-8040	2512	-2784	-304	-4162	-379	-11096	3080	-8376	-562	-1542	289	118	180	1
-9940	-3896	13176	652	931	783	-16284	-1528	-1760	-15449	4435	-3499	-15032	-3860	304	-4466	17542	725	-6792	1736	8384	724	-5431	1615	-11800	3088	-3632	-893	-4769	-327	-10344	1936	-8992	-680	-1163	195	132	187	1
-9880	-3380	13004	284	1074	643	-16172	-728	-2284	-1204	3274	-2256	-15748	-2904	1656	-3888	17224	1587	-13656	3000	11760	1221	-4928	1427	-10056	1944	-8800	-1746	-5178	-373	-9336	-8	-8728	-941	-800	54	121	180	1
-9800	-3708	12928	-39	1124	418	-15768	1824	-1728	-3572	4342	-2082	-14724	-2540	1748	-6638	17420	2017	-16080	7456	16664	1644	-4605	1582	-9912	616	-9312	-1825	-5189	-504	-7920	-1560	-9104	-1459	-600	1	106	186	1
-9804	-3620	12868	-110	1166	393	-15528	304	-1048	-7029	5828	-2232	-15308	-3580	1508	-7523	16690	2059	-23488	12544	21496	1472	-4612	1981	-21544	2352	-12512	-893	-5578	-556	-6184	-4208	-7832	-1690	-556	-27	121	176	1
-9792	-3720	12932	-136	1225	490	-15628	-256	-112	-6601	6994	-2149	-16280	-4560	1020	-4565	15819	1232	-26880	11576	22312	1115	-4537	2497	-23216	2920	-14360	-20	-5997	-514	-8768	-3424	-2728	-1717	-1020	-218	123	154	1
-9612	-3692	12984	-320	1568	558	-15556	-676	-204	-4569	8287	-1824	-16040	-3668	1464	-2790	13595	221	-32544	10320	24896	1110	-4625	2829	-22128	5600	-15080	333	-5965	-217	-9040	-232	632	-1158	-992	-176	127	146	1
-9516	-3728	12932	-741	2145	731	-16180	432	-284	-2361	9379	-1578	-16528	-1568	1952	-1360	11721	-11	-32768	9016	22152	897	-4805	2818	-23016	9088	-11880	-369	-5674	-199	-11096	208	4888	-589	-629	-10	126	154	1
-9464	-3836	13008	-1353	3309	1011	-17100	480	-1208	-1453	10377	-1505	-17288	-1816	1796	-3817	11664	12	-32768	6344	17016	729	-4620	2468	-26200	6568	-15576	-113	-5270	-311	-14576	4208	8168	-255	-260	407	126	158	1
-9504	-4212	13020	-2140	5053	1206	-17836	948	-1300	-106	11773	-1435	-18108	-2852	1332	-4735	10494	-91	-32768	3144	3776	609	-4365	1606	-19224	6368	-16264	1256	-4680	284	-15712	2304	11848	-503	454	429	130	139	1
-9580	-3448	13216	-2931	7654	1201	-18040	1844	-980	1653	13068	-1415	-18760	-2740	1572	-3852	8871	280	-32768	-10600	-9944	1614	-3164	947	-18032	3488	-17992	1175	-3483	953	-16200	-4944	30608	-1328	42	169	122	129	1
-9832	-3732	13364	-3984	11540	1340	-18152	1888	-1008	1840	13352	-1374	-18416	-2632	2056	-5116	7776	785	-32768	-15992	-18920	2436	-1498	849	-8928	4008	-17856	2083	-1396	738	-18048	-2608	32767	-715	-1529	-524	122	123	1
-9632	-3132	13364	-4732	16290	1403	-19268	3068	-2380	3641	16783	-1289	-18444	-2020	1156	-5185	6269	682	-32768	-10592	-22552	-362	217	-281	-4824	9624	-16752	1564	931	136	-16080	3368	17696	1400	-820	-456	120	135	1
-9588	-3968	13172	-4387	21506	1719	-20300	2884	-2168	3833	18660	-1137	-19764	-3248	1164	-6001	5577	1272	-32768	-6112	-7080	-1738	1690	-1623	-12608	11888	-17312	-1201	2555	-61	-14984	4168	14304	1686	-695	-403	121	152	1
-9972	-5388	12620	-4075	27747	3449	-22924	3316	-440	2430	20524	-1545	-21460	-2616	5144	-5225	2925	1437	15264	-3800	11592	-2001	2422	-1533	-12048	8096	-3680	-1749	3266	-341	-5160	8016	-872	545	826	810	122	140	1
-10488	-5440	12052	-3958	32767	7006	-25084	6320	1424	-1173	22759	-2259	-24204	-1428	19224	-6083	-7721	993	16416	19752	13600	-1575	3110	-2163	-32768	-456	31912	-4903	1542	438	-20816	7184	680	-1519	1508	1302	129	65	1
-14504	-7832	12008	-3180	32767	10816	-31004	9624	6904	-6741	25898	-1216	-21376	436	20472	-15663	-17738	1509	-32768	-2928	32767	-421	5153	-762	-21600	0	-26096	-1690	1640	-103	-32768	5352	21472	-2275	941	1004	140	28	1
-22580	-4644	16596	-4078	32767	11944	-31236	9200	6324	-4572	28506	1324	-22532	-2380	8320	-20626	-12368	3014	-15168	-5000	22184	-836	1435	-1404	-18712	7904	-8304	-2025	4377	-1079	-14872	-10688	-4880	-2925	2214	309	131	29	1
-32768	-8876	21656	-3585	32767	14476	-31052	-1236	-2620	367	30463	2156	-27084	-836	5084	-11127	-17490	3758	-2760	21744	4968	-696	2263	-907	-16600	112	-3672	-1522	2149	970	-7960	-8264	-14432	342	2102	556	134	26	1
-32768	-15092	20340	-2813	32767	20959	-30200	-5828	-116	45	28922	-595	-24068	-2156	-11948	384	-19401	2735	-25040	-4440	24664	-1254	1698	-1276	-5208	10168	-14400	-756	1689	624	-2400	4960	-3248	1810	-389	-512	125	67	1
-32360	-19680	23192	-151	32767	26679	-22576	-4460	-500	4292	25327	-1426	-23264	-4500	-8164	-2396	-25258	787	-10200	12720	12296	-927	805	-897	-20864	1584	-9952	-1555	2179	371	-27608	12352	-8960	666	1374	1145	127	95	1
-29520	-19400	32767	1955	32767	23513	-16804	-5184	-13376	9551	20943	139	-24360	-4216	-6932	-4532	-24805	-5038	-11320	2440	15448	-794	415	-670	-23408	-736	-7856	1631	1078	908	-20840	-72	-4128	630	1248	1156	118	44	1
-32768	-17184	32767	-2001	-6020	9699	-13112	-3796	-16192	13212	11929	2520	-26592	-5788	-7700	2124	-22997	-7836	-10448	4312	14920	-586	257	-457	-13312	6056	-6088	2615	559	667	-15856	1400	-568	1311	1609	-11	115	54	1
-32768	-25948	32767	-3030	-13256	7218	-13596	536	2604	-2398	553	1880	-27596	-3240	-6228	5878	-22410	-6070	-8376	4176	13312	-343	159	-274	-16424	5688	-3392	1088	665	428	-13288	6144	-1880	1119	1564	-22	123	71	1
3528	-6036	14108	4924	-32768	7420	-10768	1256	2288	1072	-5439	890	-22704	-924	-6096	2376	-22429	-5672	-9000	3720	13520	-280	216	-248	-16808	6288	-3440	888	724	436	-17408	4712	-976	431	1379	139	116	108	1
184	-6252	14020	711	-32768	5531	-4604	1424	-2184	53	-11666	2128	-18168	-2060	-5064	312	-20516	-6920	-9592	5656	12456	-354	148	-275	-15520	6672	-4224	-1231	711	220	-16288	4144	-1320	359	1586	140	134	91	1
-3868	-8804	13680	-1630	-32768	2385	-4308	1492	-2752	-1194	-12502	2463	-15956	-5128	-6012	3203	-17768	-6444	-9640	5744	12528	-322	84	-285	-16104	3216	-4000	-483	500	161	-16600	6216	-1144	367	1698	67	129	88	1
-7336	-9492	12852	-1353	-32768	-2474	-6448	-1724	-5040	-9362	-22520	6216	-14364	-2568	-7300	8423	-14822	-6274	-9360	4488	12384	-270	26	-256	-16552	3184	-3032	855	270	454	-15448	4584	456	91	1717	51	146	114	1
-8728	-8936	11036	-1104	-32768	-8182	-7148	-552	-5568	-7012	-27989	7162	-13084	-404	-8328	10308	-11845	-5559	-9096	4040	12656	-246	13	-224	-15592	5480	-1496	922	264	400	-14936	2456	1504	21	1675	-64	122	112	1
-9120	-8180	9644	-889	-32768	-13365	-8828	1212	-4952	-6670	-32768	7614	-11940	-608	-9136	10053	-8611	-4286	-9224	4048	12720	-172	68	-184	-15192	7280	-1800	216	459	329	-15856	2264	2184	111	1690	-84	126	119	1
-9136	-6832	8928	-1451	-32768	-16875	-8956	152	-4656	-4597	-32768	8159	-9616	-760	-9216	10454	-5632	-3297	-9240	4048	12456	-128	76	-148	-15304	5632	-1800	-203	720	236	-15048	2416	2648	437	1761	-70	123	127	1
-12236	-5632	10564	-4680	-32768	-18888	-13424	-280	-5980	-1157	-32768	7087	-7892	952	-10192	12833	-3738	-2565	-9272	4184	12640	-98	76	-135	-15480	5192	-1680	-174	731	234	-14680	3680	2192	870	1733	165	124	132	1
-15876	-5676	12228	-7771	-32768	-19988	-15024	-2308	-10368	6297	-32768	7150	-7152	2668	-10392	15927	-1949	-1539	-9160	3920	12656	-79	73	-124	-14632	5520	-2304	549	668	321	-14656	5832	3200	803	1844	34	126	132	1
-24456	-6148	20804	-10211	-30818	-20738	-17676	2384	-13128	10055	-32768	8441	-7088	5828	-8976	16001	-2043	259	-9080	3920	12608	-48	104	-111	-15784	5736	-1576	517	753	325	-15200	5344	3008	126	2068	102	126	139	1
-32432	-8536	28028	-9438	-32768	-22438	-22908	3664	-15312	3890	-32768	8798	-7412	5928	-5656	14261	-3795	2079	-9128	3864	12560	-30	171	-119	-15656	4504	-1184	506	826	315	-15376	3520	2008	-150	1976	89	123	132	1
-32768	-8468	28876	-3894	-32768	-23061	-26676	2640	-17832	-8239	-32768	10249	-8196	2880	-652	9268	-6197	1736	-8816	3760	12752	-15	278	-143	-15624	5488	-896	521	948	296	-16888	4072	2168	66	1648	-14	125	132	1
-32768	-2944	22756	-2721	-32768	-23920	-23096	-180	-14684	-20987	-32768	9563	-9960	-4068	1240	2680	-5276	-1411	-9104	4240	12984	23	430	-185	-16704	6112	-1032	373	1130	281	-17880	3664	3632	-188	1461	106	126	130	1
-32768	-4060	11496	-2413	-32768	-18923	-24736	-6632	-14904	-18314	-32768	5436	-14168	-5256	1928	-1505	11	-2403	-8424	3800	13384	131	614	-224	-17024	4944	-496	448	1333	287	-17288	3512	5320	-1	1344	123	134	139	1
-32768	2408	-1108	-7457	-32768	-11600	-25404	-3776	-18036	-11411	-32768	-1187	-22328	-756	19776	10960	-1891	-2780	-9088	3664	13368	223	910	-253	-17568	5208	-432	625	1497	295	-18016	1832	6584	487	1048	108	144	141	1
-32768	16116	-17528	-24154	-25775	-15503	-16136	3888	-23040	-16117	-20614	-4046	-26384	-1660	32767	11148	-6622	-1858	-8944	4032	13648	272	1378	-319	-18008	6272	-752	460	1803	242	-17816	2416	5912	663	666	189	126	142	1
-32768	14616	-32768	-16415	-8366	-14413	-5896	-4472	-19240	-13608	405	-4063	-21284	1988	30316	-1571	-3447	409	-8936	3896	13840	239	1956	-396	-19776	5688	-1720	221	2126	206	-19128	5248	5712	993	585	133	129	130	1
-32768	10112	-25348	9547	10885	3769	-11144	-11176	-19240	1407	18568	-557	-18320	-4056	12028	-8450	-2914	-137	-8960	4352	14016	167	2618	-512	-22864	3736	-1544	415	2366	229	-20960	6248	6048	1174	205	93	119	131	1
-1076	-10136	4804	18864	17883	8366	-17620	-10116	-14796	19145	22418	-2006	-12296	-4584	284	-9971	1902	-1497	-8216	4152	13008	205	3610	-737	-24816	1144	-1344	925	2513	323	-21136	2512	15448	802	-888	21	119	139	1
10212	-13092	23496	13047	16452	7609	-31580	17316	32767	26415	10945	1582	-7320	-4368	552	6790	2398	-6169	-9584	7360	14856	365	5194	-895	-32344	-768	4104	2094	2749	415	-19776	-3080	21672	224	-2616	29	120	147	1
-2860	1996	-2044	1585	32767	3636	-22224	19936	-12996	32767	13842	-1391	-27452	-14080	-4632	4459	7909	-13812	-18080	10376	17784	156	6774	-1456	-32768	-440	9584	2951	2974	382	-24712	-14160	17688	371	-2104	-669	126	140	1
-32768	15112	32767	397	24789	4381	-13408	-4216	-15800	14684	19859	699	-23736	-212	7316	32767	1524	-3937	-27544	9552	23656	119	7949	-1883	-32768	9016	3744	2466	2956	299	-25944	-2152	16280	1199	-2638	-880	143	153	1
-10604	-14416	14448	-919	18778	7727	-19964	6660	-8988	21230	16735	-4476	-18348	16516	-11416	15090	18660	1262	-32768	14240	28328	433	7909	-2351	-29952	11152	1128	1841	3210	-128	-20488	768	-21240	1025	-2598	-1862	134	153	1
-21384	-9068	19832	3509	19060	5387	-14232	-3424	-10512	19711	10779	-7461	-8824	7324	-12536	-1833	13004	849	-32768	14072	23872	971	6863	-2631	-18776	9856	-6936	745	3098	-99	-23040	10464	-5600	2347	-1950	-196	130	123	1
-15948	-3428	16884	4061	6028	6378	-16204	-2888	-10352	11949	9662	-8183	-8492	-9564	-3496	-13732	-1407	1490	-29016	24184	32767	790	4299	-2209	-13952	13984	-13992	-39	3019	-476	-27320	7240	-3656	1141	-2372	290	132	124	1
-13164	-7372	15196	5664	4958	5691	-16308	3880	-7360	-7587	10092	-5689	-21284	-8080	-7372	-7577	13193	-8707	-27672	32767	32767	-221	-337	-610	-13552	7856	-7680	-1789	1908	51	-30576	2760	-5888	18	-2363	316	128	125	1
-10388	-3140	14872	4007	1942	3697	-15880	4360	-5824	-24123	10710	-5199	-18228	-2932	-3268	-9644	11093	-4601	8144	12168	18984	-1192	-1980	-280	-15536	-1360	3792	-527	264	804	-29520	1448	-5072	-145	-2478	361	113	106	1
-10576	-2192	14964	2098	1510	1503	-18732	-2560	-5240	-20348	9446	-4547	-16064	-5072	-1960	-10785	12499	-416	3016	5560	19200	-129	-2617	170	-8320	-2048	-1968	-117	-862	138	-23368	2720	-2928	261	-2289	211	125	82	1
-9616	-4328	13684	864	1917	755	-18000	-4932	-3888	1316	5847	-3400	-15400	-5624	-1332	-7715	14287	1805	968	9832	18216	441	-3545	663	-5576	120	-3936	758	-1764	-237	-18336	4184	-4856	534	-2410	189	116	134	1
-9568	-4184	13432	238	1957	177	-17044	916	-3768	11415	2628	-2847	-15520	-4188	-2096	-4161	13258	4043	-1672	8784	15736	183	-4282	962	-8008	2352	-2808	1050	-2709	-43	-16456	3288	-5752	73	-2244	190	116	198	1
-9640	-4568	12832	253	1950	114	-15924	3244	-3892	5332	2906	-2394	-15268	-2768	-2132	-1194	13624	2522	-5960	5664	15144	212	-4851	1323	-6112	2456	-4392	463	-3359	-123	-13528	2480	-6528	-306	-2084	264	117	215	1
-9388	-4576	12828	686	1625	574	-15220	3784	-3032	-7601	3845	-2579	-16216	-932	-952	-485	14640	1107	-10008	3720	15568	639	-5536	1768	-7016	1440	-4760	189	-3838	-221	-13056	2608	-6728	-347	-2040	263	125	199	1
-9492	-4760	12688	1537	1255	1177	-16428	428	-2008	-12881	4689	-3722	-15764	-1240	-336	-3559	15424	834	-6904	1528	9432	1121	-5919	1986	-9336	1424	-2600	29	-4398	-145	-10704	3096	-7976	-242	-1513	267	124	205	1
-9720	-3888	13088	2002	981	1501	-16748	-2228	-1796	-6013	4109	-3294	-15464	-3844	1160	-5541	15946	773	-6064	1840	5912	1206	-5276	1636	-14504	4584	-3920	-419	-5010	-39	-10536	2424	-8024	-445	-1109	166	121	190	1
-9964	-4240	12960	1912	1066	1455	-16616	-1584	-2384	653	3596	-2367	-15744	-4588	796	-5055	16503	2284	-13496	4024	11240	1023	-4467	1234	-11168	1648	-8800	-1895	-5162	-282	-9104	208	-7768	-777	-848	21	124	185	1
-9936	-4040	12756	1222	1103	1183	-16364	-880	-2584	987	3626	-2209	-14772	-3928	120	-3908	18105	2053	-17920	6568	18616	1113	-4075	1144	-17504	2488	-11520	-1943	-5110	-285	-7744	-872	-8136	-1489	-643	55	112	183	1
-10016	-3752	12920	510	1228	817	-15124	1460	-2836	-7142	5943	-2334	-14460	-3068	-132	-3444	18448	1976	-21800	9888	20560	1144	-4089	1507	-22912	1472	-12480	-1955	-5507	-511	-7432	-3768	-5304	-1762	-798	88	123	166	1
-9892	-3968	13056	172	1495	790	-16476	-716	-1836	-6608	6549	-2145	-15292	-4136	-264	-3964	18548	2085	-22968	7976	21232	727	-3732	1605	-23560	1728	-13616	-507	-5844	-567	-8768	-1656	-1472	-1695	-1117	-117	127	158	1
-9668	-3704	12788	-234	1942	840	-16408	-228	-740	-3764	7028	-1613	-16000	-4132	-904	-1259	15551	1961	-24320	4480	21096	1127	-3241	1768	-23456	4016	-12424	559	-5982	-338	-8824	328	480	-918	-672	-112	128	153	1
-9500	-4016	13024	-619	2587	1066	-15708	88	436	-1067	7984	-1495	-16628	-1312	1036	869	12296	1505	-30744	7056	20048	1694	-2677	1984	-25952	6432	-13376	530	-5917	-443	-11720	600	4192	-201	-215	49	124	143	1
-9708	-3960	12928	-1203	3598	1397	-16520	224	140	1408	9651	-1327	-18812	-1196	3248	1471	11420	58	-32768	10648	16464	1345	-2547	2143	-24096	8056	-15840	1459	-5360	-312	-17160	1936	8608	-156	37	486	129	148	1
-9524	-3856	13224	-1433	5263	1679	-18040	1552	40	2763	11433	-1135	-18828	-2092	2532	-1890	9391	-390	-32768	8776	11464	580	-3230	2180	-17312	8320	-23240	943	-4628	472	-17080	1160	18136	-390	347	339	124	131	1
-9852	-3824	13252	-2112	8051	2056	-18344	2360	-1248	2579	13306	-1337	-18872	-2328	2760	-4483	8470	-266	-32768	-13624	-4504	1567	-4329	2858	-14224	1768	-18896	1691	-2714	1222	-15888	-472	32767	-1123	-577	-1	124	126	1
-9768	-3516	13204	-2803	12617	2185	-18332	2536	-1696	3255	15349	-1314	-17420	-2500	2244	-5797	7280	425	-32768	-28904	-32768	2898	-3554	3826	-6496	4896	-13672	2351	-320	552	-20488	3152	31504	-226	-1100	-312	126	126	1
-10120	-2824	13516	-3002	17456	2187	-19140	2132	-2656	5230	17055	-1056	-17960	-2032	728	-5040	6613	1325	-25352	-12872	-32768	-1002	339	229	-9552	17040	-11760	-37	1876	-128	-16256	4168	14704	1154	-515	-293	125	133	1
-10044	-4140	13016	-2430	22463	2428	-20744	1948	-1784	5764	18667	-735	-20560	-5056	1064	-5587	4989	1957	-32768	-32768	-11400	-2341	3401	-3060	-10768	12096	-14136	-3366	2754	-115	-10248	8264	3984	1095	316	454	122	148	1
-9528	-6376	12084	-1408	28503	5120	-23308	3820	928	2861	20547	-1502	-21360	-3632	4616	-5959	2414	1006	-12376	25216	32767	-2252	2206	-2889	-23192	3992	30504	-2970	3813	-178	-5768	4464	6560	-1138	-251	1109	126	119	1
-11244	-5836	12044	-461	32767	9266	-24616	5344	2612	-704	23114	-2065	-22420	-2160	11416	-3349	-2856	639	-7368	1424	-9296	-649	3907	-1637	-32768	-10856	-19064	-990	1764	1063	-31808	760	17784	-1100	695	1257	125	70	1
-12996	-6696	13364	739	32767	12571	-30816	7316	7796	-2031	25527	-39	-26956	-3996	26592	-8721	-22260	2	-31496	-144	31344	-759	2984	-663	-7256	4464	-9448	207	3451	-975	-20008	-5176	-4448	-787	1551	-19	133	64	1
-24496	-3024	14564	-1646	32767	13672	-27884	9792	596	2207	26901	856	-18332	2916	10324	-14531	-14324	2977	-7192	5408	12952	-689	2320	-1143	-17944	4032	-4304	-1166	3102	483	-9768	-3768	-14432	-984	1485	726	133	52	1
-32768	-6016	20624	-926	32767	15282	-26616	976	-2672	2972	30051	-380	-23724	3328	3876	-7784	-16752	7056	-30520	11688	25496	-1358	2723	-1723	-9736	10144	-10680	-1168	1778	527	-9776	-1200	-4120	1260	477	30	130	78	1
-31136	-12068	19320	-1218	32767	20205	-30916	-3592	-1944	1023	29671	-1806	-21796	-2816	-9624	-6352	-18367	3231	-10640	1216	15496	-1216	1001	-1124	-15768	5416	-10672	-2825	2252	575	-18616	10672	-5872	414	1038	473	133	80	1
-32604	-15048	20688	3289	32767	25068	-22192	-3720	-1040	-1299	26438	-2450	-22888	-2104	-11340	-2864	-19923	-595	-13016	4544	14656	-1053	689	-882	-24632	-2888	-7896	-271	2071	692	-21904	1832	-3872	182	1011	1036	116	76	1
-29556	-17724	32767	3214	32767	21986	-17148	-5460	-13448	2457	22194	-1015	-26044	-3380	-8300	-3308	-22374	-5890	-12080	4760	13728	-699	331	-566	-13960	1608	-7856	2771	890	1020	-16264	-1720	-1288	1101	1159	410	116	50	1
-32768	-13668	32767	-708	1364	8979	-12508	-3540	-17984	14182	14187	2179	-25428	-4916	-8084	1346	-23060	-7566	-10968	3880	13576	-382	220	-307	-16568	7264	-6440	2686	718	652	-14192	5848	-736	1550	1258	23	123	30	1
-4732	-12704	26468	1120	-27997	1499	-12100	1952	-1320	593	4172	1635	-27268	-448	-6224	4138	-20781	-4586	-9616	4760	12656	-187	244	-205	-16712	11624	-4472	608	1035	469	-16672	9144	-1832	941	1307	-33	123	62	1
1392	-6620	14712	4593	-30356	1832	-12324	3108	580	-1443	-1399	557	-24660	-312	-6280	1564	-21717	-4533	-9912	4688	12112	-87	257	-150	-16064	7632	-5560	-1146	974	255	-16864	6640	-1072	317	1478	136	120	59	1
864	-4748	12968	2227	-30521	401	-11316	2932	268	-855	-2393	569	-21124	-992	-5064	-106	-21630	-6374	-9840	4784	12136	-10	266	-130	-16160	3864	-5192	-969	937	145	-16928	5536	-1280	191	1604	118	127	80	1
-1632	-6164	12600	-163	-32174	-2054	-4920	348	-4064	-4593	-13260	4278	-17704	-4736	-5660	1287	-19318	-6236	-9896	4680	12056	40	272	-135	-17016	2120	-4728	539	548	291	-16800	3704	208	244	1671	46	142	60	1
-6444	-7708	13560	177	-32768	-5363	-6312	-360	-5816	-3246	-19227	6054	-16244	-3796	-6416	7038	-16832	-5431	-9656	4608	11824	15	268	-164	-16608	4952	-4040	1518	279	461	-16080	3208	808	406	1709	-39	143	62	1
-8260	-7400	12632	2214	-32768	-9664	-6676	60	-6160	-2412	-24921	7209	-15516	-1044	-7100	9639	-14367	-5162	-9840	4024	12208	-18	303	-181	-15888	7400	-3088	964	382	354	-16080	3384	1544	304	1692	-108	129	84	1
-8220	-6316	11016	3725	-32768	-13516	-8356	2096	-5236	-3370	-29641	8320	-13948	196	-7696	9973	-10594	-3682	-10112	4184	12264	23	364	-150	-15496	6808	-2936	112	588	234	-15968	4312	1784	175	1677	-99	122	92	1
-8836	-4788	10624	2990	-32768	-16277	-9216	556	-4960	-2506	-32768	9710	-11700	-428	-8160	9294	-7832	-3187	-9776	4216	12064	49	400	-143	-15760	5504	-2616	53	692	201	-15360	3728	1312	233	1709	-64	130	103	1
-10252	-3836	11000	480	-32768	-17815	-11272	776	-5748	-541	-32768	10404	-9572	496	-9052	9853	-6218	-3353	-10072	4616	11544	34	406	-159	-14880	5304	-3544	444	646	218	-15296	3720	904	651	1765	-55	129	114	1
-13340	-3144	11792	-2785	-32768	-17957	-13204	-600	-8616	2745	-32768	10503	-7944	1680	-9636	11338	-4171	-2228	-10328	4568	11480	14	393	-182	-14488	5504	-3536	713	599	247	-14400	4144	256	763	1832	-53	127	126	1
-16036	-5820	15628	-3647	-32768	-15822	-14344	1220	-8888	2701	-32768	11430	-7900	3972	-8952	11947	-2680	-1066	-10600	4256	11584	1	366	-194	-14400	6096	-3832	682	582	249	-14440	3904	-24	783	1948	-89	127	126	1
-24652	-7820	23764	-3708	-32768	-14833	-19628	1868	-13324	1911	-32768	10736	-7072	5164	-7384	11140	-2481	653	-10624	4312	11160	-27	305	-188	-14136	7008	-3608	370	671	187	-14408	5368	864	757	1999	-109	129	126	1
-25544	-8416	25120	-1295	-32768	-14197	-23708	1448	-11992	-3844	-32768	11312	-6928	4052	-4724	9407	-2687	1798	-10448	4416	11512	-12	283	-192	-14392	6840	-3736	15	800	107	-14480	6392	792	561	2025	-127	126	124	1
-30116	-5848	26008	97	-32768	-12617	-26128	2608	-12508	-12034	-32768	12508	-8216	1992	-2136	5198	-2907	1318	-10272	4584	11752	8	316	-231	-15904	5104	-3480	202	864	138	-15768	4392	856	167	1809	-103	126	132	1
-32768	-3152	26500	-1238	-32768	-10782	-26196	-1056	-13660	-19438	-32768	11060	-10452	-2876	1596	2317	-3059	546	-10312	4320	11776	62	448	-279	-16816	4552	-2152	586	852	204	-17264	3736	4008	-236	1720	-11	124	121	1
-32768	-496	22780	-5265	-32768	-8685	-25516	-4748	-19352	-19964	-32768	6662	-15764	-6008	8248	4802	-4951	-1568	-10072	3672	11816	131	705	-291	-16872	5000	-424	637	1086	198	-17496	4352	7496	-162	1606	-59	132	115	1
-32768	7580	-2040	-15173	-32768	-6090	-25044	-4728	-19288	-20996	-32768	5495	-21908	-184	26264	9182	-5832	-3815	-10352	3600	12416	202	1078	-264	-17336	5424	392	323	1452	126	-17784	2776	9032	-48	1352	-9	138	122	1
-32768	22212	-30604	-32768	-31788	-8240	-11984	2572	-20512	-29714	-14627	-6250	-25224	1404	32767	6411	-5435	-1587	-10792	3944	12824	248	1555	-272	-19128	5400	-432	2	1893	37	-19072	2424	8368	222	1173	87	127	114	1
-32768	13700	-32768	-22991	-10796	-7920	-5664	-8840	-18004	-16452	5904	-4731	-20752	-1076	26192	-8189	-6625	3834	-10048	4376	12544	262	2154	-310	-21120	4216	-1416	82	2154	30	-20400	4464	7128	764	883	20	128	112	1
-32768	3400	-26448	13141	11006	13307	-12276	-12532	-17468	5676	20550	312	-15800	-4512	8032	-8646	-2519	467	-10056	4888	12608	236	2988	-482	-23680	3280	-72	498	2379	93	-21984	3464	10448	779	240	38	115	114	1
-18904	-2552	1680	19259	19867	14165	-16356	-8316	-16996	22775	22287	-2396	-8012	-2328	-3064	-9540	6994	-2951	-9912	5192	11904	318	4114	-827	-25960	2176	768	956	2578	180	-20648	-2800	24312	1013	-1484	-111	118	116	1
18612	-11912	25888	8937	20069	3927	-30740	22716	32767	31541	9929	798	1460	-6136	-8068	7033	6318	-10372	-14216	6520	14072	416	5674	-1121	-32768	-664	6208	1945	2909	283	-21392	-7936	20440	1466	-1869	-365	119	120	1
-25596	7920	12164	2209	32767	4736	-32768	28592	26220	32767	9363	654	-32768	-12080	11800	12882	-5557	-14251	-25432	8560	22696	407	7140	-1537	-32768	2592	8312	2791	3067	196	-28760	1960	13592	1452	-2354	-465	137	132	1
-28400	14396	27120	2533	21975	12553	-11856	-3936	-10596	15773	20085	-2541	-24500	8436	3316	30767	3720	1265	-32768	14232	24736	748	7941	-1999	-32768	12664	2928	2567	3010	-125	-25448	5496	12608	1023	-2621	-808	156	134	1
-9944	-24088	5492	2602	21742	7734	-19996	3764	-5996	17700	15574	-7684	-12268	19128	-10732	9085	21441	943	-32768	14712	25512	830	7232	-2765	-25176	14792	-1832	1289	2988	-443	-23352	9792	-5496	952	-1529	-246	119	144	1
-29392	2500	29716	10163	13820	11634	-12460	-10312	-12204	13203	12766	-10027	-4124	-5168	-15820	-22014	332	5756	-32768	22320	32408	1102	5360	-2795	-19648	13072	-10128	195	3654	-562	-25152	11584	-4368	710	-2488	97	147	146	1
-13528	-10536	14296	8614	2994	6881	-16612	768	-10752	4010	10962	-8868	-11792	-13136	-5136	-9046	5057	-3850	-26248	29976	32767	391	2035	-1785	-14120	15936	-11736	-1372	2696	-596	-28912	2000	-3504	-311	-2460	269	134	142	1
-12228	-696	14900	5175	7	3735	-17408	7240	-11112	-14855	11927	-4252	-24940	-6912	-9564	-9479	11360	-10001	-1312	23232	31056	-1646	-1674	-646	-15664	4808	80	-1607	1571	6	-30928	-48	-5392	-372	-2428	263	132	143	1
-10964	-1316	14384	2149	168	1549	-18612	396	-8716	-21489	10965	-5390	-20992	-968	-5172	-7714	12469	-3347	5808	6456	19176	-1702	-2281	-353	-14512	-2624	1832	-901	27	423	-31848	3552	-11776	164	-2775	411	98	115	1
-9892	-2808	13708	207	1138	342	-17600	-4896	-4824	-7237	7709	-4599	-16372	-4328	-3124	-9567	15096	1675	2984	6520	18120	-213	-2944	359	-7992	-2600	-3768	61	-987	-263	-23736	2888	-4616	405	-2557	274	107	94	1
-9864	-2756	13524	-666	1706	-160	-17808	-2472	-5016	7891	3821	-3907	-15544	-6260	-3624	-6931	15805	3808	392	10936	16744	88	-3770	789	-6552	520	-4016	1029	-2034	-475	-19560	3712	-5528	302	-2436	319	115	132	1
-9704	-3044	13532	-1118	2431	-529	-17216	2232	-3992	9584	2403	-3297	-15208	-4648	-3072	-2182	14322	4199	-3944	8120	15912	-211	-4521	1100	-5576	3752	-4720	881	-2900	-210	-16864	2208	-6904	-239	-2277	307	120	171	1
-9960	-3576	12980	-993	2627	-362	-15704	3240	-3920	-2589	3281	-2332	-16504	-2732	-1828	466	15485	2021	-7984	4952	14992	64	-5336	1610	-5448	3512	-5320	753	-3004	-217	-13664	1840	-7632	-503	-1997	338	122	188	1
-10096	-4088	12636	-363	2184	96	-15836	312	-3168	-13359	4326	-3111	-16152	-2828	-2056	96	17602	622	-6808	2512	10952	439	-5911	1918	-7616	1152	-3160	266	-4140	-369	-11648	2720	-9376	-392	-1704	283	117	185	1
-10128	-3392	12864	-6	2060	306	-16264	-1640	-3396	-10164	3965	-3163	-14864	-3252	-912	-2675	18383	743	-6168	2432	8768	666	-5769	1729	-10368	1952	-3512	-153	-4758	-298	-10800	2664	-9712	-325	-1364	244	129	185	1
-10160	-2660	12872	-421	2330	25	-16544	-1660	-2792	-3363	3152	-2009	-15260	-3400	828	-3506	18064	1560	-10336	3616	9680	784	-5284	1322	-12240	5224	-6184	-878	-5423	-126	-10328	920	-9856	-469	-942	118	124	191	1
-10220	-3588	12728	-758	2494	127	-16596	-252	-1948	-1676	3473	-1545	-15864	-2876	1252	-5844	17922	1850	-14088	5376	12160	872	-4726	1067	-12520	1584	-8168	-2082	-5354	-405	-8448	-1280	-10176	-942	-699	-12	106	194	1
-10180	-3552	12680	-880	2696	343	-15684	972	-1676	-4976	4752	-1886	-15356	-1784	2268	-8419	17959	1896	-20984	8304	20072	1147	-4222	1079	-20664	1976	-12320	-2142	-5569	-435	-5552	-3552	-10152	-1674	-617	-120	124	196	1
-10076	-3528	12656	-1039	2845	652	-15308	776	-316	-6633	6281	-2024	-16184	-3720	1388	-7139	16828	968	-25240	12720	23056	1019	-4363	1539	-24184	2720	-13712	-1497	-5911	-626	-7240	-4552	-5304	-1534	-940	-129	120	180	1
-10304	-3276	12616	-1221	3361	810	-15712	-116	-436	-4494	7672	-2393	-16584	-3828	1396	-4123	13557	647	-28160	8024	23408	862	-3975	1766	-25624	2440	-15320	-185	-6304	-553	-10160	-280	-1280	-1351	-1403	-174	128	171	1
-10244	-3092	12580	-1300	4032	931	-16148	-56	-428	-721	8996	-1909	-17112	-2392	2960	-2071	12257	764	-32768	6176	23680	1372	-3752	2193	-24312	5728	-15232	812	-6181	-349	-10288	2248	2568	-962	-773	35	126	180	1
-10392	-3944	12748	-1560	5287	1368	-17008	-44	-624	809	10223	-1693	-16884	-2632	2772	-2659	11533	555	-32768	9616	25328	1343	-3798	2465	-24256	11272	-16512	501	-5817	-373	-11784	2008	4480	-929	4	485	130	178	1
-10288	-2848	12688	-1977	7467	2024	-17852	1680	-2264	22	11804	-1932	-17928	-2648	436	-3693	10225	397	-32768	7712	18904	537	-5123	2544	-21336	10024	-19384	723	-4808	72	-15776	5176	13168	-930	8	761	127	149	1
-10504	-2312	12764	-2353	9919	2221	-17608	2752	-2020	-1622	13318	-1902	-17836	-1492	468	-3978	9807	384	-32768	-11400	-11984	1289	-5125	2720	-18992	-1464	-19168	871	-3460	800	-19192	-5144	30344	-1674	0	1	125	142	1
-10292	-3288	12820	-1938	13150	2438	-18612	1796	-1040	162	14749	-1812	-18136	-2044	2572	-4437	8576	938	-32768	-28944	-32768	3289	-2630	2990	-8640	520	-16840	1936	-1534	746	-21360	-5984	32767	-1281	-964	-609	124	113	1
-10788	-3360	12524	-964	17133	2964	-18972	2204	-1436	4713	16529	-1514	-18028	-2564	2784	-4631	6070	1181	-32768	-12888	-32664	704	138	1348	-4136	11744	-17496	1708	1028	31	-11816	10104	30880	-483	-1221	-868	127	137	1
-11148	-3060	12380	-389	21885	3616	-19136	1164	-756	6364	18641	-1190	-18620	-6400	2844	-5879	4773	1814	-32768	-10344	-7344	-2930	2200	-1586	-11560	16480	-18176	-1889	2926	-138	-9120	7240	2368	2271	151	142	125	186	1
-10924	-6008	11320	200	28641	6861	-23004	1928	2212	4531	20950	-1764	-21732	-5548	5852	-5620	3355	1409	-2888	12696	9632	-776	2135	-1616	-15072	11224	-1256	-3557	3234	-583	4576	7880	984	700	1066	1003	121	134	1
-11540	-6256	11424	1458	32767	12043	-26276	4772	3812	-1079	23751	-3428	-23828	-1012	16408	-4674	-4848	41	8768	-248	5128	-312	3936	-2937	-32768	-13320	1600	-5612	1838	949	-32768	6416	5968	-1310	850	1146	131	71	1
-11968	-5960	11676	1596	32767	12861	-32768	7972	4964	-8668	26433	-2357	-22412	3536	17292	-17022	-16833	261	-32768	4032	32767	-771	4177	-549	-17600	2592	-15136	813	3606	-817	-27088	-3776	5216	-981	171	288	132	70	1
-31976	-2824	17240	-112	32767	14837	-30236	7256	1208	-7120	29669	-1094	-23096	1948	5992	-18094	-13334	2894	-7736	-2616	17528	-690	2167	-1165	-16696	4248	-7504	-1360	3657	141	-13184	-5576	-13024	-1374	1717	703	132	20	1
-32768	-14156	23192	-7471	32767	16433	-32768	-2652	-800	-3617	31177	-1369	-28480	-3648	4028	-14101	-19312	2991	-23064	17296	19104	-790	2546	-1085	-9752	5560	-10808	-772	1739	685	-5552	-7448	-11928	1702	571	247	127	59	1
-32768	-15004	20688	-2199	32767	23167	-29168	-2188	300	-3154	28879	-3069	-22376	-4564	-11664	-4252	-21841	1823	-11280	440	15616	-957	1090	-1032	-13976	7344	-12512	-1485	1905	653	-16688	14472	-10144	1155	840	-118	122	84	1
-32768	-24452	32767	-3902	32767	27747	-21888	-5144	-9640	-3566	26034	-3237	-23656	-3780	-8360	-3420	-25385	-3387	-12816	5648	14656	-852	667	-801	-26056	392	-7664	464	1712	723	-25240	6464	-5888	108	1218	976	126	74	1
-9148	-14704	32767	1819	20702	22771	-15648	-7520	-13500	7867	20239	-527	-25480	-4396	-7272	-1057	-24977	-8200	-11976	6304	13568	-551	410	-518	-16256	4320	-7824	2468	653	920	-16824	-1248	-1520	431	1398	497	124	41	1
-31420	-24804	32767	-2591	-18319	4630	-12052	632	-11328	12545	8318	1127	-26932	-1900	-8188	3621	-22185	-9427	-10872	4840	13688	-268	255	-287	-14624	6672	-4704	1658	733	511	-13328	5088	-640	970	1535	-141	110	68	1
208	-15480	18640	6177	-28515	784	-13316	3224	524	1556	264	579	-26632	328	-8156	4165	-22795	-6919	-10256	4760	12936	-110	290	-200	-17576	9840	-3632	220	883	347	-17512	9208	-2920	682	1364	6	132	77	1
2920	-5444	13220	6086	-28127	-1889	-7332	4128	-1456	5824	-6526	493	-23260	-652	-6908	-519	-22681	-7181	-9696	5448	12272	-40	286	-165	-16480	6616	-4320	-911	827	208	-16424	4480	-896	189	1544	33	125	80	1
992	-4032	13432	1156	-29358	-6907	-3012	2864	-5340	43	-12286	2419	-18804	-3592	-5856	1054	-21111	-7701	-9400	5552	12368	7	282	-178	-16288	3064	-3920	-404	724	126	-16224	3704	-8	186	1631	103	134	102	1
-2372	-4272	13372	-1140	-32470	-10001	-4200	2508	-4268	-7036	-17752	4452	-16784	-2240	-6868	5155	-18270	-6765	-9504	5488	12048	5	279	-214	-16680	2872	-3480	1020	392	356	-16232	3672	-280	187	1643	114	152	112	1
-6284	-4060	13532	-973	-32768	-12956	-5064	-252	-5192	-5822	-23373	5533	-14664	900	-8152	7374	-15033	-6144	-9736	4624	11976	11	266	-220	-15888	5096	-3344	1296	314	420	-15888	2904	1016	349	1581	-161	130	127	1
-9376	-4176	13840	522	-32768	-15740	-5576	116	-6420	-3296	-28778	6794	-12928	-760	-9004	7093	-11819	-5889	-9688	4448	12056	-8	269	-205	-15984	6472	-2544	558	471	308	-15736	3760	896	227	1575	-142	126	127	1
-10024	-3812	12388	2555	-32768	-17209	-7816	396	-5016	-1975	-32768	8003	-11240	-1176	-9264	8227	-8176	-4515	-9056	4880	12232	-8	264	-197	-15592	6160	-2448	-82	560	178	-15368	3648	1040	53	1651	-110	123	122	1
-9964	-2040	10944	1567	-32768	-17616	-9296	708	-4712	1823	-32768	9138	-9820	-280	-9564	12012	-5577	-3699	-9512	4936	12024	-2	286	-212	-15200	5184	-2848	-10	577	163	-14968	3584	1200	205	1749	-84	126	142	1
-11240	200	9360	-4210	-32768	-17613	-12188	1776	-6420	5188	-32768	9016	-8036	3080	-10904	15630	-4239	-2482	-9888	4496	11640	19	311	-208	-15112	4624	-3136	328	552	181	-14880	3176	1560	577	1863	40	127	138	1
-15428	-1444	12356	-8628	-32768	-15803	-13476	1180	-9812	6674	-32768	10352	-7340	4192	-10756	18006	-3093	-1158	-10128	4608	11512	23	309	-198	-15128	4424	-2992	811	563	237	-14840	3856	1192	669	1965	-61	125	136	1
-16128	-2088	13512	-8979	-32768	-15079	-18008	4116	-13240	1462	-32768	10799	-6520	6892	-8440	15480	-3398	1933	-10344	3864	11704	8	302	-159	-14432	5320	-2624	928	601	218	-14960	4704	1696	473	2025	-111	125	137	1
-31992	-5680	28660	-10757	-32768	-12631	-23744	1744	-14996	-9713	-32768	9938	-6388	5164	-4844	11203	-4827	3215	-10240	4504	11544	-1	309	-145	-14560	6248	-1704	826	778	151	-14184	5272	2592	285	2021	-142	122	140	1
-32768	-6068	31192	-9768	-32768	-12480	-26176	1780	-17568	-19701	-32768	9483	-8212	1896	-884	4735	-5507	950	-9832	5080	11392	-3	344	-172	-15312	6432	-104	628	937	121	-15192	4160	4368	132	1825	-113	124	132	1
-32768	-5284	30568	-9863	-32768	-12602	-24472	-1428	-14648	-28213	-32768	6869	-11352	-1724	1940	-2364	-3954	-678	-9800	5400	11824	-33	419	-257	-15784	6264	344	402	1185	77	-16928	3512	6096	-108	1773	1	131	128	1
-32768	-2380	12360	-12796	-32768	-12292	-25612	-4096	-14292	-23468	-32768	3707	-14872	-4324	4212	-5607	-351	-1997	-10032	4792	12048	2	583	-298	-16832	4328	-488	290	1452	37	-18152	3480	4704	-73	1587	96	133	127	1
-32768	2736	600	-15452	-32768	-8701	-23896	-1564	-16264	-20024	-32768	-1649	-19988	-2180	19752	-549	-3413	-3765	-10128	4064	12464	90	870	-319	-18200	4128	-912	399	1691	26	-18152	2536	6352	154	1313	55	127	122	1
-32768	13256	-16916	-23058	-27578	-12389	-15548	1080	-20896	-18745	-21650	-4799	-23124	-3924	32767	1430	-6653	-4181	-9904	4496	13088	157	1346	-342	-18776	5304	-1208	169	1920	-49	-18144	1888	6112	337	1084	67	133	119	1
-32768	17944	-32768	-13977	-9738	-13734	-5972	-3212	-17808	-10710	-92	-3854	-22376	-5852	32076	-1459	-5942	-1429	-9976	4064	12712	194	1927	-389	-20128	4216	-2424	-123	2246	-92	-18688	3216	5400	565	786	30	123	106	1
-32768	12256	-23328	7315	10420	673	-10808	-9692	-18772	4197	17539	-733	-17580	-5324	12552	-304	-5211	494	-9624	5080	12728	267	2648	-457	-22368	3168	-2312	156	2448	-79	-20480	5360	11080	881	119	57	131	108	1
-32768	4940	1248	12780	17036	7653	-16828	-7644	-21612	20120	24028	-1756	-13352	-3000	2316	-3747	1748	-18	-10560	5808	12208	318	3705	-693	-25864	2456	2408	1064	2655	-18	-20232	-296	17296	1267	-1233	-181	114	117	1
15864	-11328	18740	19000	16997	11235	-29188	13856	32767	14800	13978	-3	-4116	-2056	5840	9229	-1306	-5502	-12240	7768	13488	139	5075	-1332	-29712	3992	5040	1730	2823	72	-21224	-4200	14752	839	-1505	-413	122	125	1
-16	5364	-6368	477	32767	5309	-27548	19824	-14824	32335	15423	-2388	-26040	-13204	-6012	313	8253	-12443	-13072	7736	13792	129	5320	-1450	-32768	4792	8304	1661	3188	11	-28728	3488	16512	732	-2277	-405	134	135	1
-32768	13336	32767	1745	26637	6797	-11724	-5604	-18160	20657	20670	2082	-30428	-948	8732	32767	-2323	-6701	-32392	10672	24344	-133	7688	-2569	-32768	8984	3544	1602	3371	-271	-24624	2904	14832	306	-2385	-669	150	136	1
-32768	10508	32384	2468	22868	9598	-13984	-6120	-15392	20561	20802	622	-19808	17588	-13148	7462	18183	-37	-32768	15840	27536	36	7570	-3110	-28720	11512	-416	1359	3150	-496	-23888	3368	-784	-523	-3156	-1630	146	135	1
-29548	-7556	23512	8213	19423	10396	-20468	7348	-9888	22034	16248	-5759	-7280	9388	-12712	-4573	11263	-1504	-32768	19920	26680	848	6315	-3013	-18040	10304	-10512	687	3417	-507	-23608	11144	-8536	816	-2010	-82	131	139	1
-11968	-5568	14472	5471	6471	6863	-15720	-2076	-10364	6929	9432	-9706	-6804	-13056	-7768	-17958	1546	2201	-6696	26528	32767	241	3343	-2398	-15640	15928	-16128	-470	3053	-869	-27296	7960	-3920	-9	-2469	323	134	131	1
-14336	-2520	16568	6176	3269	4788	-17520	1488	-9180	-8411	9518	-5301	-23956	-14504	-10328	-10065	12337	-7326	-15592	32767	32767	-1308	-592	-505	-15680	6368	-9744	-2467	1884	-521	-30696	4184	-5728	-509	-2332	407	138	139	1
-10596	-6380	13768	2636	1370	1899	-17460	3808	-7008	-23145	9825	-3981	-20620	-2208	-3268	-6248	12570	-5438	5784	10744	19504	-2280	-1866	-105	-15152	-416	2184	-1435	568	60	-29112	3880	-9480	-363	-2638	623	102	107	1
-10028	-1528	14760	864	1200	461	-18084	-2184	-5032	-18021	8001	-4978	-19804	-1944	-3464	-6446	13090	-4334	1336	6056	19384	-1066	-2549	432	-8848	-1184	-3256	-976	-518	-497	-24312	4608	-4392	-273	-2320	365	125	97	1
-9636	-3960	13528	-159	1739	-137	-18108	-4568	-3604	224	4512	-3889	-15552	-4488	-1380	-9699	15180	1455	616	9848	16848	-491	-3400	751	-7464	896	-3232	216	-1522	-845	-19440	2888	-4480	-371	-2382	402	118	125	1
-9604	-4612	12988	-559	1923	-506	-17392	-1096	-3072	10071	1715	-3581	-14760	-5976	-1404	-6614	13813	3787	-3592	9760	15872	-697	-4141	916	-7192	3968	-4088	503	-2471	-630	-17888	5248	-6120	-554	-2222	391	118	161	1
-9372	-4908	12836	-371	2045	-334	-16012	1912	-1836	3852	2250	-2370	-15088	-5364	-440	-3719	13994	2268	-7680	7144	15256	-533	-5068	1313	-5000	4088	-5760	123	-3102	-794	-13840	3104	-6976	-1074	-2095	420	116	163	1
-9540	-5524	12376	817	1885	761	-15784	1136	-1680	-10632	3926	-2495	-16140	-4924	-252	-988	15110	299	-7312	5568	10880	-233	-5640	1595	-7504	2288	-3704	-21	-3702	-799	-13464	2712	-7112	-1121	-2060	408	121	149	1
-9612	-4116	12588	1769	1483	1429	-15932	-992	-1840	-13780	4774	-3493	-15604	-3028	432	-3258	15832	560	-6624	4912	7280	21	-5730	1581	-8256	3184	-2984	-136	-4280	-741	-10360	2504	-8320	-900	-1559	319	127	166	1
-10252	-3516	13016	1594	1744	1284	-16704	-2356	-2204	-6062	3908	-2653	-15168	-2936	2164	-5470	16287	1355	-8536	5416	6912	305	-5359	1359	-11552	4376	-5168	-745	-4853	-681	-9224	1720	-8616	-953	-1194	185	114	151	1
-10096	-4136	12932	882	2059	830	-17032	-460	-1888	-1644	3849	-2279	-15788	-3192	1696	-7062	16723	1826	-12664	6824	8024	612	-4766	1179	-10752	3736	-7440	-1681	-5156	-656	-9088	-64	-8416	-1301	-937	37	119	143	1
-10304	-3560	12844	217	2337	535	-15256	1112	-2276	-4193	5114	-2276	-15116	-2548	1120	-8272	17436	2429	-16160	9624	13624	1010	-4125	1155	-16456	3264	-9896	-1558	-5146	-575	-7040	-2120	-9344	-2081	-765	-75	110	156	1
-10076	-4040	12592	-234	2444	410	-15116	560	-1280	-8174	6602	-2295	-14976	-3368	468	-7434	16906	1501	-23752	14664	19040	1291	-4118	1666	-20456	4000	-13312	-1652	-5554	-511	-7432	-5560	-6784	-2091	-757	-125	127	164	1
-10116	-3924	12812	-735	2817	438	-16164	-508	-1608	-7843	7495	-2736	-16124	-3768	-464	-5472	15554	428	-24144	14400	18808	890	-3867	2048	-22664	4624	-13352	-970	-5790	-456	-8992	-5608	-2360	-1828	-1044	-453	124	162	1
-10004	-3684	12748	-1440	3457	230	-16336	-360	-1024	-5864	8629	-2125	-15856	-3044	988	-3430	13762	-11	-27160	9856	20696	1018	-3488	2305	-23120	4552	-12720	-103	-5971	-206	-9008	-3280	-304	-934	-796	-453	127	160	1
-9804	-3712	12516	-2263	5028	213	-16924	308	-804	-4621	9437	-2146	-16440	-2984	1488	-4327	12810	711	-32768	8712	26960	1526	-3518	2497	-23760	8728	-15600	302	-5951	-137	-12168	16	3640	59	-549	-215	127	163	1
-9716	-3880	12856	-3032	6809	301	-17304	1048	-1280	-4821	10861	-2109	-17716	-2648	1292	-5427	12575	749	-32768	4928	25928	1969	-4374	2814	-24152	9784	-17328	1293	-5486	31	-15736	6264	9176	759	-367	432	130	166	1
-9904	-4000	12632	-4123	8521	210	-17260	580	-1480	-3209	12143	-1759	-17412	-2596	536	-6035	11003	574	-32768	2712	8584	1959	-5296	2703	-20392	7152	-18656	2559	-4652	612	-13624	6216	13872	635	84	597	125	140	1
-10292	-3568	12576	-5540	10864	-191	-17848	392	-1584	-1831	13387	-1304	-17660	-3900	1508	-6411	10037	649	-32768	-14248	-17344	2053	-4492	1854	-16208	6200	-17024	2603	-3476	1309	-19472	-2328	32767	-37	-269	552	126	124	1
-9804	-4552	12628	-6579	14789	-172	-19920	2392	-156	-69	15151	-1080	-19892	-2412	2836	-6930	8478	1053	-32768	-24920	-32768	3390	-2487	1405	-5480	5872	-16048	2650	-897	996	-20496	3696	32767	807	-1499	257	121	124	1
-10336	-5088	11928	-6528	19355	440	-19528	2980	-704	2305	16840	-1100	-18672	-1952	2512	-7786	7011	1080	-32768	-5024	-32240	106	623	-268	-5176	12816	-16168	580	1749	-21	-16256	8152	15800	1575	-722	-212	122	169	1
-11384	-5028	12176	-6984	24645	273	-19548	2164	-232	3728	19067	-718	-19896	-5932	3344	-7714	5970	1928	-30392	13032	-12528	-4082	3000	-1944	-6464	13584	-15936	61	2101	-102	-10472	9544	-48	1912	270	354	125	171	1
-11188	-6596	11356	-8755	32224	1301	-23144	4832	2036	1334	21382	-700	-21468	-4120	7404	-6103	2007	1104	-12920	12816	32767	-3418	3351	-1764	-23992	7808	32528	-3606	3471	-170	5024	14560	-7720	-2051	1421	1730	126	96	1
-8168	-5928	12708	-8949	32767	3567	-26520	6852	3832	-3963	24002	-845	-23936	-3156	19236	-13424	-12051	-424	-20472	-16456	5616	-1520	5983	-1343	-28760	4040	32767	-5006	3105	107	-32768	16288	20936	-3414	993	1896	126	79	1
-17632	-6248	14504	-11462	32767	4539	-31320	11384	8000	-5893	26733	1982	-22208	1604	12412	-15952	-12445	2160	-32224	-16816	32736	-896	2690	-1203	-10224	-2056	-13248	-2553	4656	-1999	-19432	-16512	-6048	-4073	1544	-448	135	75	1
-29648	-11160	17112	-10655	32767	8910	-30304	2428	1284	-343	29343	3055	-26560	-1148	7656	-10016	-16064	4421	-9608	25912	4624	-907	2232	-1216	-19320	648	-4704	-834	2868	959	-13176	-19984	-9312	-2323	993	506	134	18	1
-32768	-17640	17960	-8955	32767	17440	-32768	-4608	604	4060	29645	93	-26080	-1888	-4340	-1509	-22079	3934	-20056	-9608	22128	-1580	1658	-1369	-6264	11336	-14264	-1179	1687	966	-9752	-18176	-4192	-915	1072	486	137	103	1
-32768	-21776	18044	-4574	32767	25616	-26632	-7280	-2104	8648	29058	-2058	-22660	-2012	-7720	-647	-23891	1934	-11696	14960	12072	-1043	821	-1062	-19992	-2000	-12040	-1086	2527	599	-20008	14784	-9224	1949	878	915	119	114	1
-32768	-21724	31016	-1974	32767	24181	-21492	-1440	-13772	9728	25517	-1961	-23292	-3852	-8476	-5289	-25928	-3851	-10592	-792	16112	-834	576	-720	-21096	848	-7376	2458	1184	956	-23824	7296	-4944	876	1138	1374	114	63	1
