#Activity	walking 
#ActivityID	1 
#Date 10-20-15-41
acc_rf_x	acc_rf_y	acc_rf_z	gyro_rf_x	gyro_rf_y	gyro_rf_z	acc_rs_x	acc_rs_y	acc_rs_z	gyro_rs_x	gyro_rs_y	gyro_rs_z	acc_rt_x	acc_rt_y	acc_rt_z	gyro_rt_x	gyro_rt_y	gyro_rt_z	acc_lf_x	acc_lf_y	acc_lf_z	gyro_lf_x	gyro_lf_y	gyro_lf_z	acc_ls_x	acc_ls_y	acc_ls_z	gyro_ls_x	gyro_ls_y	gyro_ls_z	acc_lt_x	acc_lt_y	acc_lt_z	gyro_lt_x	gyro_lt_y	gyro_lt_z	EMG_r	EMG_l	act
-8560	-6008	12480	-191	368	217	-15576	-4688	-216	-1001	661	-278	-16968	176	1832	-1273	2699	744	-32768	16008	29016	1890	-5499	5294	-26016	-4872	-18176	-683	-7145	1716	-1512	-2336	-9008	-1318	-1158	-236	129	132	1
-8440	-6820	12320	-136	386	359	-14728	-4800	1104	-924	903	-354	-21808	-232	4144	-932	1888	517	-32768	7784	23768	1865	-5311	5328	-30216	-2800	-20400	206	-6645	1987	-2336	824	-3304	-549	-1075	-48	147	150	1
-8724	-5652	12984	-162	468	397	-14312	-2968	1400	-1032	1277	-290	-21648	-1616	7968	-911	1865	-200	-32768	5680	16808	1820	-4380	4501	-23992	2944	-21984	-927	-6059	1591	-8768	3176	1776	-594	-1048	566	161	151	1
-8404	-6364	13804	-179	665	412	-16256	-4648	1432	-1061	1673	-211	-16888	-3504	9584	-1323	2357	-163	-32768	-760	4504	805	-3372	4215	-22816	-1384	-27360	-1929	-4535	760	-30624	2240	21632	-1227	-3849	707	144	147	1
-8992	-5480	14588	-188	1043	480	-16816	-4560	2096	-797	2128	-164	-18088	-24	9632	-1215	2300	63	-32768	-16304	-17976	-124	-1497	3494	-8016	-2392	-32120	-2465	-2581	-16	-32768	-20912	16232	-738	-2799	189	122	143	1
-8340	-5736	16356	-230	1765	572	-19328	-4472	2984	-224	2692	-28	-26344	-4216	9992	-826	1273	54	-32768	-24152	-18120	525	251	1914	-584	320	-32768	-1485	-395	72	-1304	3944	32104	-251	-226	-141	114	128	1
-8020	-5668	17680	-319	2667	814	-22192	-2552	1864	441	3256	-2	-28216	-5704	12720	-456	484	136	-32768	3144	-17032	233	976	22	-3800	104	-32696	-76	2150	321	-17184	-5776	7968	-1200	2025	-219	78	55	1
-7736	-7464	19360	-486	3800	1191	-27040	-1528	2888	274	3704	-118	-26256	-6120	17456	295	-481	238	4384	-32768	10816	-3474	4064	-2139	-23216	2840	-1816	782	3778	157	-20840	3008	-288	672	776	-53	54	32	1
-4748	-12140	22156	-667	5317	2113	-32768	-304	6960	-374	4035	-445	-30216	-4008	30944	629	-1992	156	-32768	-32768	32767	-2857	5195	-4153	-32768	-13904	-16288	-4124	3101	-69	-32768	22408	1880	-3311	-434	3127	90	84	1
1064	-12156	27040	-982	7746	3740	-32768	3488	18136	-1585	4061	-481	-32768	-392	32767	2912	-747	37	-22536	10336	21912	-557	3363	-1478	-4480	-30960	-25560	-3186	4599	-1704	-27600	-15504	-20808	-3342	2936	-1316	137	171	1
-16792	-8460	24824	-1792	10342	5402	-32768	2512	5776	-3141	3734	-633	-32768	23392	16032	-91	-2333	1286	-14400	11544	11992	-1282	1542	-1317	-9168	28872	-20848	-2266	2931	-1136	-3368	-18888	-28640	476	-74	-343	148	179	1
-32768	-12540	20356	-4061	10786	4321	-29208	-11768	-5688	-4926	4102	-350	-28040	688	-18456	-4268	-1700	691	-11344	7736	13216	-770	543	-724	-10248	-13048	-20744	-2464	2207	781	2464	17016	-23816	1264	1379	-194	155	157	1
-32768	-32768	32767	-2286	8074	5507	-32768	-32768	-12736	-1899	2344	-483	-30184	6256	-9128	-3061	-2889	-178	-9896	-1128	17080	-505	387	-553	-27496	-12968	-17144	2820	2523	11	-32768	5528	-17672	-922	2381	1704	144	139	1
8664	-32768	32767	120	1241	3572	-16816	-7608	-29064	2562	1967	-786	-32768	2352	-10008	-1246	-2286	-1019	-8520	5184	13800	-199	400	-389	-18352	8496	-11448	2278	1377	427	-21536	-3584	-11536	-100	2003	585	112	131	1
12824	-32768	32767	-646	-5968	-1550	-18664	7952	10744	-160	727	101	-32768	-1744	-12360	470	-2193	-1771	-7232	4448	14616	22	404	-310	-14048	5368	-10896	-1020	808	122	-18392	312	-12152	160	2312	-397	90	131	1
19692	-16600	15840	352	-5300	-2065	-13736	-712	3384	-854	-1561	-240	-28408	10880	-14416	189	-2974	-1609	-7648	7352	12344	94	510	-258	-21208	-2136	-9416	-1654	351	-39	-14968	7272	-6216	-205	2593	-145	110	112	1
13276	-8216	15028	-438	-4379	-2438	-6360	880	-1112	635	-3051	-883	-22592	9600	-15336	-586	-3384	-1317	-7488	9448	11464	-1	585	-327	-19864	-720	-5264	685	337	80	-17960	6768	-4344	-831	2909	372	126	99	1
708	-10000	17908	-1081	-4737	-3053	-5864	1336	-4776	634	-3828	-377	-19784	8432	-14880	-698	-3483	-1214	-7800	7960	12112	-134	620	-427	-16152	3800	-3360	1419	294	222	-17088	-2848	-3792	-266	2988	440	123	85	1
-6388	-8088	18884	-696	-5553	-3545	-6680	2312	-6056	542	-4741	-424	-2888	4256	-13680	-1169	-2717	-966	-8136	6944	12144	-182	644	-473	-16184	3712	-2200	921	310	184	-14432	-4360	488	1093	3049	764	114	84	1
-6228	-436	17604	-691	-5888	-3882	-6496	3952	-4552	337	-5531	-336	-4104	-192	-15160	-989	-2245	-1016	-7832	4856	13248	-151	708	-530	-16560	3464	-1872	805	327	164	-14624	-4904	2912	900	2482	515	110	77	1
-9880	-8	18000	-1158	-5919	-3712	-8624	2008	-6256	471	-6057	-284	-1608	928	-14536	-152	-1988	-761	-8592	3960	13064	-42	877	-553	-17336	-5472	-2160	559	478	37	-10936	-2928	4280	-286	2231	304	103	81	1
-14188	-3980	22812	-947	-6006	-3145	-11784	3600	-10120	603	-6472	-77	720	3520	-13336	496	-1718	-317	-9552	4984	11328	50	897	-470	-14320	920	-1536	922	705	51	-15336	-4328	304	258	2855	507	107	77	1
-20480	-4432	27764	-846	-6134	-3079	-17232	2728	-12512	56	-6841	15	1816	-24	-13680	1256	-1451	-174	-9736	6768	10616	16	819	-462	-13224	4248	-2008	520	866	43	-21984	1152	-3424	1274	2775	771	110	85	1
-27092	-8300	29948	-912	-6211	-3404	-21256	-1136	-13952	114	-7182	150	-840	-2512	-12360	1928	-1443	-213	-9456	7336	10520	-48	713	-583	-16632	2576	-1104	568	1153	-48	-19088	1888	-56	900	2155	683	112	94	1
-32768	-14984	27312	-417	-6034	-4066	-25504	-2832	-16480	731	-7101	415	-4352	-1496	-6432	1849	-1572	-380	-9584	6112	11648	-117	708	-701	-15880	744	-800	902	1326	-73	-17464	-1488	3560	927	2018	676	120	103	1
-32768	-13072	21752	397	-5419	-4518	-25992	-5432	-20144	1467	-6568	563	-6832	-1016	608	2010	-1934	-562	-9720	6008	12272	-154	860	-781	-17480	536	392	1077	1581	-113	-17912	-1240	3992	1234	2296	455	117	109	1
-32768	-5476	9656	819	-4545	-4556	-20016	-18568	-19640	2163	-5585	1404	-9552	-2760	3992	2087	-2146	-612	-9424	4728	13848	-212	1165	-823	-18112	1424	2864	799	1934	-313	-17048	-264	4704	1075	2224	407	115	114	1
-32768	-1624	-11100	1143	-3116	-3707	-16200	-7776	-27896	2227	-3793	773	-32768	3520	32767	1703	-4765	-459	-8704	6080	16032	-224	1722	-906	-20520	720	4080	122	2378	-590	-27136	-3768	6712	781	1456	610	121	116	1
-32768	12120	-26232	515	-1253	-2399	-5424	-5992	-32768	1812	-1793	579	-5816	2432	26712	212	-945	-706	-8472	5088	17536	-279	2463	-1055	-20992	576	3992	56	2455	-621	-27096	1832	6424	563	1106	-12	117	115	1
-32768	12988	-32376	-1115	-137	-687	-608	-2544	-32472	-554	652	-356	-16352	3344	23864	448	1189	236	-8136	7768	18240	-290	3297	-1336	-25432	2176	3296	-740	3178	-1029	-27232	4896	9040	-38	500	-189	114	104	1
-32768	524	-32768	1395	3482	2247	-2744	-11184	-29512	-1368	2637	-1058	-23544	4144	7544	-224	1671	246	-6992	13328	17560	-248	4314	-2108	-28248	3240	5000	-749	3555	-1074	-30792	2184	14456	-494	-637	-397	100	93	1
1160	-12204	32767	2356	7342	3153	-32768	5376	24720	1712	2423	14	-32768	-6000	32767	-2436	1332	-992	136	21664	17480	-146	5393	-3603	-32768	3288	10792	72	3839	-846	-31040	2720	25208	-213	-2077	-393	83	70	1
-32768	7580	32767	1441	4130	3035	-14168	2256	-28072	6875	4687	-1443	-9872	-10936	-13512	-1130	1754	271	-20648	16312	22528	-244	7470	-5406	-32768	-1408	24016	1712	3875	-644	-30224	-4608	19144	-1505	-3469	-540	48	44	1
-30244	-8984	19780	1228	1850	1461	-6576	-760	-24560	-164	4698	473	-18208	12840	-31088	1728	1260	246	-32768	3736	24152	8	8294	-6059	-32768	-3032	-12784	1223	4359	-331	-20080	-5064	-120	3021	-1225	-1103	4	0	1
-23412	-2424	17408	841	514	609	-11240	-8064	-23808	691	3214	-1496	280	11824	-23400	490	835	-783	-32768	32767	29240	1353	7757	-5565	-32768	23056	-4192	2414	4402	-1088	-32768	672	-22752	4139	-2821	81	145	138	1
-10708	-11184	14124	437	123	206	-11664	1272	-21400	-907	2374	-925	-17104	-3184	-21880	-43	2074	1014	-21896	32767	32767	-690	4072	-5717	-29200	13704	-9184	-467	3064	-148	-31936	3736	-17752	3523	-2723	990	162	157	1
-8652	-1928	15104	81	66	41	-24048	704	-16616	-2275	1846	-731	-31360	2240	-18376	389	2130	-343	-32768	32767	32767	-985	-607	-57	-19408	-4896	-17360	-1521	2680	58	-32768	5472	-12456	836	-3441	1096	173	179	1
-7732	-3812	14588	-111	128	-31	-18760	-8536	-10112	-1815	1250	-714	-16384	-2480	-8152	234	2184	-171	12840	25888	23128	-311	-2847	2579	-15544	176	3008	398	411	-711	-32768	-4880	-16152	-635	-2916	580	164	176	1
-7888	-4484	14600	-298	287	-38	-15632	-8656	-10888	855	1024	-363	-21640	4840	-9072	683	2437	675	11944	17088	17200	457	-3224	2731	-11880	1240	928	640	-1352	828	-23216	-7352	-16064	22	-3237	882	167	166	1
-8072	-4664	14352	-423	348	-88	-18784	-64	-7448	969	802	36	-16080	-328	-5360	222	2550	641	6296	16296	17520	695	-4180	2789	-5072	1976	-2880	185	-2533	1048	-21136	-5744	-17032	157	-3337	895	149	159	1
-7652	-6904	13420	-348	407	-12	-16760	-4304	-3720	-368	610	-129	-16800	-6712	-3560	337	2632	361	1480	8648	15728	1191	-5095	3123	-6384	-1032	-3368	-223	-3589	1412	-11688	-3920	-16952	133	-2981	405	148	136	1
-7628	-6924	13348	-193	454	153	-15496	-1672	-3896	-1128	411	-380	-17880	2320	-3464	362	2279	75	-2472	6120	14208	1852	-5517	3564	-8448	-5008	-4512	-309	-4503	1626	-5864	-2192	-16248	-83	-2768	436	144	122	1
-7720	-5568	13808	-162	516	236	-16544	-5808	-3568	-869	422	-272	-16152	2520	-2392	-191	2400	250	-6304	3632	15584	2345	-5742	3682	-7424	-7104	-5856	496	-5165	1791	-3488	-976	-15392	-392	-2005	506	140	129	1
-8020	-5532	13880	-176	593	324	-17664	-4072	-3808	-15	520	-31	-14696	2184	-848	-694	2388	445	-10744	4120	19432	2637	-6026	3612	-8984	-4816	-8680	1059	-5720	2108	-2376	2624	-14816	-512	-1553	426	137	127	1
-8812	-4200	13632	-148	724	341	-16128	-504	-4152	-13	512	-27	-13040	2848	4512	-857	2299	539	-15104	6456	22640	2671	-6214	3489	-13320	-4352	-9904	1011	-6227	2325	1544	3960	-15384	-1482	-1046	226	133	125	1
-8964	-5576	12756	-192	766	330	-14656	-784	-2536	-715	581	-108	-14216	1608	5056	-793	2414	549	-19656	8680	24144	2662	-6136	3436	-17584	-4272	-9416	870	-6471	2348	1800	2792	-15488	-2280	-797	-30	122	128	1
-9392	-5644	12088	-169	742	415	-14016	-4088	-2248	-1015	686	-168	-17960	-3320	824	-1092	2591	597	-25536	14088	26080	2521	-5723	3768	-22888	-1552	-12016	173	-6648	2338	-1256	2240	-11480	-1960	-1040	-112	125	129	1
-9088	-6736	11860	-114	674	491	-13800	-4104	-776	-1029	937	-237	-16176	-2952	1264	-930	2011	468	-31840	20032	28168	2028	-4959	4415	-32768	-480	-16864	-942	-6810	2380	-5296	-88	-3496	-1650	-1735	112	151	150	1
-9240	-6216	12260	-61	685	588	-14584	-3680	-736	-819	1193	-202	-18504	872	4536	-434	1630	144	-32768	8472	22344	1877	-3877	5240	-24472	-424	-17888	-2122	-6346	1689	-7520	1264	104	-1207	-1553	180	149	146	1
-10064	-4784	12880	-25	851	632	-16768	-2120	-1448	-752	1470	-109	-18392	-1000	5872	-697	2041	206	-32768	9864	11680	727	-2720	6029	-21816	-264	-24544	-3054	-5166	788	-18920	1632	9360	-1043	-2144	640	133	135	1
-9580	-4896	14144	-84	1193	675	-18520	-1016	1968	-897	1817	-78	-19840	-168	11024	-928	2197	316	-32768	-16040	-8656	-481	-1629	5359	-15384	-1296	-29424	-3503	-3646	275	-32768	-4240	23320	-2137	-4077	766	106	101	1
-8928	-5048	15668	-93	1817	703	-18480	-2208	5776	-486	2393	28	-23968	-936	16904	-485	1581	238	-32768	-25624	-17088	677	-13	3144	-1984	-552	-32768	-3120	-1530	-36	-9360	-3912	29944	-1760	-520	-307	74	61	1
-8544	-5148	17168	-101	2621	906	-20120	-2368	5296	300	3094	54	-26832	-120	19632	-371	972	76	-32768	-22928	-16072	418	537	932	2216	-6520	-32768	-883	1219	225	-16112	-6088	14232	-2418	1672	-332	57	43	1
-8012	-6556	18968	-146	3719	1260	-25600	-1016	5480	495	3681	-36	-27544	-3416	20040	-96	49	-5	-32768	25032	-7856	-682	1553	-827	-5808	4424	-29976	1058	3485	393	-18496	-5696	-1600	-678	1594	-156	66	58	1
-5540	-11564	19900	-314	5084	2144	-32768	1608	7936	6	4089	-284	-26584	-7176	27960	207	-1247	200	32280	1352	32767	-3307	4974	-1575	-32768	1984	32767	2570	3376	-566	8600	8416	-22048	1529	3851	148	116	115	1
-564	-11236	27504	-824	7094	3769	-32768	1368	13336	-1541	4094	-597	-31952	-3208	32767	2681	125	198	-32768	-22488	32767	-2294	5295	-3305	-22816	-18168	-32768	-6432	3065	1260	-29664	3040	-104	-2951	-384	509	165	199	1
-15624	-15236	24112	-1419	9724	5387	-32768	-1056	8392	-3208	3717	-604	-32336	18440	21528	-836	-2316	1301	-32768	25432	17320	-1497	3081	-2066	-19624	-22776	-28536	-6794	2969	1030	-29736	-32768	-32584	-2205	416	1545	157	207	1
-32768	-8068	25816	-3467	10075	4920	-32768	-12128	-2960	-4279	4392	-360	-32608	-6160	-18048	-4023	-1571	861	-16456	-6528	20600	-620	1288	-1010	-15776	-9408	-25632	-1981	2332	1044	3504	10000	-31632	4450	1301	188	167	165	1
-32768	-32768	32767	-2766	7971	5550	-32768	-28920	-6104	-2152	2771	-418	-32544	3144	-11696	-2660	-2690	-350	-10264	3696	16904	-385	686	-499	-19176	-11008	-22760	1638	2180	311	-14440	22568	-22960	469	1957	-699	150	146	1
2256	-32768	32767	155	2047	4001	-19416	-13176	-26912	1737	2219	-824	-32768	936	-11280	-516	-2383	-1359	-8312	9704	12480	-6	628	-320	-25072	10008	-13736	3066	1800	548	-31912	9432	-19040	-549	2363	1904	108	139	1
3148	-32768	32767	609	-5179	-1675	-16496	2040	5256	-73	918	304	-32768	-3480	-14536	818	-2140	-1722	-8920	6776	13080	35	523	-245	-13152	10280	-12360	-773	777	113	-18496	3344	-12144	-550	2348	-82	101	134	1
18156	-14768	16472	1452	-4855	-2250	-15792	1416	6784	-257	543	346	-31664	7536	-16672	706	-2691	-1680	-7248	6768	13192	272	604	-179	-20280	-712	-9736	-2043	260	-228	-17392	736	-9424	-912	2562	-492	126	122	1
12132	-8636	15580	182	-4298	-2629	-7064	640	-1736	1544	-2756	-304	-20688	7848	-14648	164	-3174	-1384	-6984	7984	12656	220	779	-282	-19536	-9208	-7416	-72	109	253	-16512	1576	-4240	-1045	2936	363	131	110	1
-84	-11476	18244	-516	-4945	-2982	-4056	1952	-4152	795	-3687	81	-13256	5648	-14008	196	-3526	-1085	-8192	7688	12400	235	841	-350	-19104	2400	-3416	2048	237	237	-17688	-3304	-2648	-227	3215	532	122	92	1
-5800	-9028	16528	-646	-5857	-3363	-6832	312	-4696	500	-4598	-166	-3408	6608	-13832	-113	-2967	-1208	-8216	8968	11536	181	847	-457	-16416	6360	-848	1921	184	431	-14200	-5112	2824	1323	3332	828	111	86	1
-7400	-6872	14128	-680	-6193	-3601	-6472	1848	-5480	341	-5332	-227	-2912	3544	-14392	-291	-2298	-1074	-7064	8032	12304	65	888	-598	-16272	4832	1488	916	254	175	-15680	-4368	4912	1763	2617	929	106	69	1
-8472	-5284	14024	-732	-5994	-3718	-5848	-3456	-5696	1132	-6125	-491	-2768	3736	-15416	-101	-1975	-954	-9112	5936	11392	3	898	-636	-16448	-1448	-160	901	463	128	-9944	-688	6768	614	2054	721	109	75	1
-14076	-8148	18076	-743	-5707	-3635	-12264	1248	-8432	863	-6097	195	336	2704	-13816	506	-1805	-687	-10104	6448	9504	-17	794	-521	-13464	1088	0	717	651	74	-13408	-2032	232	416	2192	815	111	91	1
-20052	-10188	23852	-728	-5795	-3722	-16064	176	-11904	1059	-6634	128	2264	1904	-14472	1607	-1525	-413	-9968	7280	9304	-144	633	-520	-11656	5208	-40	542	923	-6	-21344	2584	-2816	1769	2540	588	113	92	1
-25616	-10752	26388	-765	-5924	-3997	-18824	-1720	-13056	1107	-6996	34	784	1536	-13400	2709	-1648	-497	-9288	8216	10064	-275	501	-624	-15408	3792	-1336	429	1301	-21	-20824	5304	-200	1177	2241	551	111	95	1
-32000	-15624	27604	-680	-5600	-4409	-26912	-2464	-15920	1417	-7158	99	-2696	4024	-6472	2274	-1905	-379	-9752	7264	10776	-326	529	-741	-15856	3704	-1832	479	1351	-44	-17168	1600	1760	593	2198	343	113	96	1
-32768	-12420	28232	-286	-5074	-5028	-30000	-2688	-19680	1327	-6823	392	-7240	1544	1288	1567	-2113	-404	-10040	5064	12416	-290	781	-783	-18272	-80	-624	880	1622	-122	-16344	160	2000	850	2464	442	122	110	1
-32768	-3220	19072	-13	-4643	-5154	-19744	-2288	-20384	1297	-5574	1294	-9072	-1112	896	767	-1685	-765	-9976	4768	13064	-241	1110	-757	-17344	424	1296	741	1911	-294	-16600	-2928	2584	925	2194	442	121	114	1
-32768	-2092	-2616	647	-3741	-3471	-23344	-11208	-25992	1432	-4614	544	-32768	-696	32767	932	-3939	-1054	-9320	5616	14952	-175	1616	-774	-19096	1280	2408	87	2262	-523	-21872	-3448	4400	611	1531	485	117	116	1
-32768	14644	-20324	-321	-2281	-2031	-9040	-592	-32768	1801	-2724	291	-24664	21104	13128	541	-2233	-1952	-9296	6344	15872	-85	2317	-911	-23440	200	1568	-386	2608	-695	-26624	576	4464	599	1395	268	118	116	1
-32768	16180	-29808	-1155	-920	-957	1776	528	-32224	-903	-288	-303	-11640	-1416	32767	-715	714	71	-8584	7480	17152	-19	3085	-1150	-24544	2656	2376	-447	2959	-849	-27128	5440	6248	230	749	-9	120	112	1
-32768	18008	-27268	-1004	632	712	-3152	-8336	-32616	-1837	2189	-768	-21008	3056	8680	-755	1764	40	-7480	12248	16384	98	3893	-1749	-26424	4224	4632	-494	3365	-926	-30736	2160	12168	-246	-252	-24	109	109	1
-32768	4912	-11768	-1347	1593	1615	-7880	-10312	-31256	-263	3794	-298	-13936	-1032	-8936	-2122	2039	-42	-6488	14296	15968	253	4986	-2924	-27544	-1440	8248	-27	3747	-661	-25552	-1968	18816	-368	-1078	-289	79	67	1
32767	-23164	32767	3150	4650	2785	-32768	11424	32767	953	1514	-69	2216	-9712	-32768	-2978	4595	307	-10168	13144	21904	290	6646	-4199	-32768	-1560	8672	1386	3922	-406	-27936	-1312	32767	229	-3110	-242	82	61	1
-32768	30016	32767	1392	5807	3449	-8352	-2184	-32768	7703	3568	-595	-32768	-28536	2280	2825	-468	-1001	-32768	18456	21320	310	8406	-4775	-32768	2472	-664	1600	4165	-718	-27168	-18624	15480	-1246	-1252	-934	0	0	1
-27468	-32768	5976	1703	1647	1370	-15696	-3048	-22384	-783	4768	-54	-23080	32767	-25208	3934	1884	-170	-32768	16664	32767	1768	8361	-4772	-32768	10144	-416	1323	4565	-857	-26456	4832	-3968	5315	-1642	-596	40	29	1
-22684	4216	20316	557	624	628	-23424	3904	-22552	1279	3209	-1374	-4976	13960	-23344	-701	734	-648	-32768	32767	32767	-10	6761	-5676	-32768	14008	-6304	359	3629	-592	-32768	13592	-26416	4665	-2516	22	145	154	1
-9244	-7136	14132	304	260	179	-3520	48	-19656	-1269	2463	-568	-5528	5856	-20224	-1057	1350	1725	-32024	26128	32767	-645	2533	-4093	-23736	4016	-21664	-1509	2790	-135	-32768	4776	-11200	620	-4062	869	189	192	1
-7724	-2680	14704	13	179	32	-18736	-176	-17424	-2550	1898	-1052	-26216	-1736	-19544	-1171	2124	-780	-1872	32767	32767	424	-3471	-27	-23296	-1368	-4272	263	1864	-1107	-32768	352	-12872	-1303	-3456	353	188	191	1
-7764	-4888	14436	-166	206	-28	-23040	-14184	-11576	-2108	1128	-1007	-22344	-11592	-13424	-878	2369	-140	14584	20504	17848	488	-4711	889	-14384	-624	272	1804	-469	-191	-31768	-5912	-17824	-278	-3056	351	172	174	1
-7980	-6036	13876	-269	287	-7	-14744	-9296	-10664	801	877	-47	-22488	-2208	-10552	509	2340	879	14712	19656	16128	550	-4778	952	-8528	1752	-984	1801	-1810	487	-23624	-4368	-16936	135	-3259	534	158	173	1
-8044	-5524	14036	-346	347	-30	-15544	-1664	-7232	898	689	68	-15048	-936	-5248	609	2666	652	5688	18208	12528	767	-5395	1763	-5288	2712	-3160	1290	-3146	708	-19792	344	-17088	-113	-3338	133	156	156	1
-7536	-7248	13284	-277	375	9	-18424	-3272	-4288	-339	497	-167	-15680	-5304	-3696	596	2555	251	904	13608	11136	1280	-5544	2694	-7672	1592	-3144	607	-4237	1211	-12304	328	-17880	-766	-3202	-5	148	143	1
-7440	-7232	13300	-180	418	118	-15216	-3944	-3120	-1016	343	-274	-17448	2120	-3000	480	2478	98	-3792	14200	11064	1673	-5614	3509	-8248	-176	-5912	39	-5068	1505	-7520	-1032	-17768	-858	-3023	24	146	129	1
-7796	-6504	13304	-107	458	207	-15080	-6008	-3008	-885	353	-237	-16864	2856	-1568	-157	2301	198	-8768	13104	14720	1719	-5703	4075	-7568	-128	-7832	-42	-5780	1700	-3576	504	-17096	-1123	-2185	119	141	131	1
-7872	-6288	13488	-49	500	295	-16544	-4576	-2840	-286	495	-66	-13264	672	2808	-534	2087	328	-14928	9960	18512	2100	-5933	4482	-11080	-1176	-9712	-131	-6396	1981	-656	1912	-16048	-1107	-1614	93	134	131	1
-8384	-4776	13360	-115	537	335	-15472	-1784	-2896	-101	492	-127	-11632	1496	4512	-814	1766	503	-19288	10208	21352	2524	-5906	4533	-11704	-1640	-9960	-143	-6484	2023	3560	1624	-15848	-2243	-1249	-64	133	124	1
-8872	-5512	12880	-102	612	311	-14432	-2168	-3120	-547	607	-119	-13904	-1088	3344	-738	2788	477	-26408	13096	25400	2519	-5745	4518	-18416	-2528	-14000	-218	-6991	2058	3296	168	-14168	-2336	-945	-144	128	127	1
-8680	-6480	12192	-102	550	348	-14488	-3488	-2200	-860	726	-156	-19896	-1136	-2464	-1371	2931	716	-32768	17080	27936	2215	-5341	4864	-29032	-2880	-18024	-239	-7205	2162	-984	-384	-7144	-1275	-1363	-74	130	129	1
-8960	-6112	12112	-122	541	422	-14856	-2624	-768	-969	913	-219	-19864	-424	1968	-841	1857	386	-32768	14688	25304	2187	-4853	5014	-29656	-2992	-17640	-203	-7192	2187	-3792	1488	-2928	-810	-1352	41	145	154	1
-9040	-5884	12720	-139	600	467	-14912	-2976	552	-1178	1211	-212	-18048	-560	9960	-706	1659	-89	-32768	6448	17048	2096	-4079	5117	-23760	2792	-23664	-1996	-5885	1721	-8968	3040	2064	-726	-1356	320	153	148	1
-9164	-6128	13624	-122	815	451	-16176	-4328	1224	-1040	1609	-134	-16400	-2352	9936	-1314	2375	89	-32768	-1056	1944	645	-2613	4966	-21856	-3136	-27072	-2348	-4514	659	-32000	4848	23952	-959	-4039	757	145	143	1
-9332	-6012	14868	-124	1220	568	-18480	-3840	3904	-706	2068	-72	-21144	376	12720	-1132	2262	163	-32768	-19176	-17488	30	-1020	3964	-5704	-1960	-32768	-2497	-2559	282	-32768	-19408	15784	-790	-2948	811	135	144	1
-8384	-5764	16584	-159	1970	683	-19976	-3144	5184	-169	2725	49	-27520	-5856	14528	-850	1353	402	-32768	-21632	-16296	627	380	2107	640	2424	-32768	-2155	-227	333	-1488	4744	28744	-792	77	-78	121	109	1
-8188	-5768	17832	-267	2905	930	-21320	-1848	3312	400	3344	27	-27608	-5144	15528	-256	517	238	-32768	-18808	-14064	306	1071	450	-4304	-4800	-32768	-525	2195	143	-14512	-5984	7888	-1924	1659	-79	62	50	1
-6856	-8580	18892	-398	4112	1347	-27832	-1288	3264	342	3818	-129	-26400	-2968	20728	306	-511	139	-32768	-28832	-11736	-4204	3634	-2092	-14656	6136	-23464	249	3853	319	-19984	1904	7016	37	523	74	39	26	1
-3724	-12616	22844	-618	5563	2337	-32768	1328	6440	-252	4090	-399	-26880	-4848	32767	481	-1936	308	-19520	-15136	32767	-3187	6173	-3457	-32768	-23984	816	-4042	2296	-2502	-14616	22160	3560	-608	1270	2054	105	94	1
780	-12596	27788	-1227	8063	4002	-32768	4504	16816	-1782	4017	-562	-32768	4920	864	95	220	857	-31512	11040	27720	-646	3504	-2321	-10128	-28008	-20296	-5013	3943	-601	-19592	-10608	-19016	-4204	2164	-1082	149	191	1
-21608	-9100	22488	-2242	10621	5553	-32768	1160	5328	-4005	3628	-593	-32768	16144	13792	-961	-1865	1188	-32768	19616	18552	-1402	3274	-1978	-2272	15888	-26656	-1112	3342	-1362	-11040	-30888	-20264	-274	-269	10	153	197	1
-32768	-15672	23468	-4163	10411	4583	-30064	-13888	-4936	-5051	4088	-226	-29288	-1928	-18864	-3895	-1645	793	-8624	10536	12184	-778	1212	-1189	-13488	-11232	-22744	-1876	2233	1478	5920	12424	-25504	3125	1672	-640	155	161	1
-32768	-32768	32767	-2637	7022	5150	-32472	-32768	-15320	-997	2723	-526	-28760	8232	-8408	-2527	-2671	-640	-11120	-3064	18520	-316	602	-524	-28656	-15592	-20216	3102	2631	16	-29864	22136	-19816	936	2576	1338	146	143	1
-25260	-32768	32767	-141	173	3205	-20048	-5432	-19224	2135	2203	-450	-32768	3400	-10064	-820	-2379	-1096	-9896	6128	13408	-107	572	-360	-20560	15464	-12488	3358	1655	449	-24936	7080	-11720	-287	2029	791	105	130	1
11732	-32768	31072	264	-5267	-609	-17016	3328	3280	12	439	9	-32768	664	-15304	272	-1934	-1819	-8480	7152	13136	-34	520	-278	-13856	9648	-10608	-723	1011	47	-18624	4776	-10472	-265	2101	-763	86	127	1
17360	-15952	16448	438	-4992	-1250	-12048	-520	56	-341	-1427	-482	-30504	8904	-15712	-4	-2807	-1546	-7992	8144	11968	35	545	-215	-19704	2408	-9488	-2392	462	-437	-15584	7000	-7056	-819	2402	-30	123	109	1
12624	-11340	13840	-526	-4459	-1988	-6440	2248	-1176	379	-2970	-824	-22512	10656	-14720	-571	-3279	-1173	-7576	8544	12464	-11	513	-338	-20496	-4824	-6120	-1070	364	-214	-18184	2416	-5344	-1643	2709	99	129	106	1
2600	-12876	14972	-1123	-4388	-2968	-6200	2224	-4016	484	-3864	-524	-10600	7744	-13480	-893	-3425	-1059	-8096	7416	12032	-41	515	-461	-17208	-1192	-5992	806	409	53	-18816	-5176	-6312	-1039	2681	289	115	78	1
-5484	-11048	16848	-730	-4823	-3876	-6416	1936	-5184	786	-4670	-540	-2624	5296	-13768	-892	-2955	-1260	-8448	6824	12312	-24	589	-488	-17032	-536	-5600	973	396	86	-13056	-5360	-4008	393	3047	855	100	75	1
-8608	-6132	17640	-278	-5241	-4534	-6408	2544	-5848	1060	-5406	-478	-2488	3320	-13720	-808	-2305	-1176	-8264	6856	12384	16	634	-530	-17024	1264	-3032	534	288	63	-14240	-5200	-688	1938	3631	777	95	58	1
-9196	224	19084	-254	-5368	-4734	-7832	3656	-4704	781	-5824	-293	-1344	168	-14024	-358	-2011	-942	-8960	4720	12048	-14	732	-547	-17256	-3064	-3352	403	304	70	-13096	-4656	5840	1137	3022	512	94	69	1
-14372	992	22084	-751	-5643	-4094	-8104	3792	-4968	777	-5878	-275	616	88	-13584	257	-1692	-515	-9256	5344	11160	18	733	-456	-13992	-1640	-1904	848	580	59	-10576	-3384	2928	-388	2465	314	102	79	1
-19916	-3092	27048	-760	-6087	-3362	-13528	808	-11000	1053	-6688	90	3816	-936	-14800	1451	-1437	-306	-9592	6208	10336	-24	661	-433	-13824	2376	-1752	673	631	60	-16752	-1192	-3344	730	2831	756	106	95	1
-27508	-7456	30212	-601	-6602	-3259	-18928	1608	-13248	937	-7000	358	1920	-88	-14736	2693	-1531	-244	-9600	7312	10048	-132	568	-497	-15168	2800	-1280	715	913	-9	-18472	-288	-3576	984	2805	744	111	91	1
-32768	-13288	31380	-262	-6686	-3789	-27480	-1088	-15000	572	-7288	543	-2984	720	-9448	2802	-1600	-254	-9920	6664	11016	-229	578	-589	-15528	2280	-1176	718	960	27	-20168	1376	-72	807	2255	790	109	94	1
-32768	-17240	24500	505	-6225	-4447	-31640	-3352	-19336	781	-7037	680	-7832	3528	568	2259	-2033	-408	-9560	5216	12760	-233	739	-616	-17024	776	448	970	1395	-141	-19192	1416	4016	887	2161	338	121	110	1
-32768	-11764	12680	822	-5131	-4640	-25384	-7168	-22424	1316	-6162	714	-15960	1416	5544	1946	-2385	-322	-9640	6496	12824	-245	1063	-730	-18536	2768	3976	840	1802	-303	-20640	-1000	10408	896	1953	133	116	109	1
-32768	976	-6608	489	-3819	-3939	-22024	-8256	-26880	1767	-4410	573	-32768	4392	31664	1918	-4520	-298	-8472	5808	16040	-220	1555	-848	-19640	2936	5240	397	2358	-561	-24944	-7128	10136	826	1528	568	83	73	1
-32768	10844	-24156	596	-1737	-2777	-8416	-7272	-32768	1977	-2528	422	-25488	24904	16584	117	-2467	-1236	-8432	7224	17872	-211	2373	-1118	-25760	-816	4048	-218	2883	-820	-29800	-2544	8296	1039	1190	328	98	86	1
-32768	19440	-27580	-520	-646	-869	-984	-128	-32768	-596	7	18	-7912	-1232	32767	-1141	1056	95	-7736	6680	19376	-165	3346	-1381	-27072	-1272	4464	-506	3254	-968	-28824	5776	7952	541	547	-295	107	93	1
-32768	19516	-28208	-1427	244	1596	1024	-6736	-32768	-1601	2298	-920	-17416	1440	8544	-445	2328	89	-6360	11928	18304	-34	4462	-2046	-28152	1672	6616	-593	3632	-1113	-30464	1712	12776	-193	-669	-418	95	86	1
-32768	1856	-14384	2120	3391	3530	-11888	-5192	-12312	-2507	3553	-631	-19120	7512	32767	-2189	2434	264	432	21976	15136	170	5452	-3562	-31184	-1872	9872	-8	3907	-707	-25608	-2600	25248	-318	-1819	-598	72	59	1
12460	-32768	32767	3094	5850	4764	-32768	-32768	19592	896	2096	-1049	-14840	-23416	10384	-4292	2728	31	-15384	11888	23160	115	7571	-5207	-32768	952	21784	1985	3796	-520	-24736	-11072	29144	-2912	-3353	-729	56	28	1
-32768	-10828	32767	1332	5025	3128	-240	8496	-32768	8606	4206	360	-28056	-17928	-616	2677	-400	-350	-32768	11120	21200	-188	8604	-6095	-32768	8144	-8120	2284	4292	-434	-15120	-6640	856	3729	-1259	-941	5	5	1
-23236	6620	26156	2050	1486	1272	-22792	-5160	-29488	771	4398	-224	-25984	24944	-25696	3349	1825	-1505	-32768	25992	32104	1285	7846	-5609	-32768	19984	-2560	2014	4485	-1042	-32768	12760	-20224	4870	-2120	-471	64	53	1
-16272	-8384	14748	400	390	333	-13480	8392	-16944	-1087	2874	-1442	-7168	15624	-25272	-68	798	326	-30864	32767	32767	155	4894	-5934	-32768	13176	-6080	-132	3325	-401	-31432	1920	-19968	3057	-2542	723	165	171	1
-11812	-6164	14320	270	111	142	-9160	232	-19160	-2105	2201	-559	-17320	4416	-20880	-921	1825	1131	-32768	32767	32767	198	-460	-2199	-21224	-1576	-23552	-1324	2680	91	-32768	3648	-9896	308	-3937	1124	195	200	1
-8408	-5416	14104	26	102	6	-18952	-5856	-15064	-2959	1677	-907	-21184	-5912	-15824	-903	1932	-393	5032	32767	22728	-232	-3491	1028	-17680	1696	-504	641	724	-669	-32768	-4336	-14416	-521	-3178	783	189	185	1
-8040	-4112	13948	-98	118	-42	-22136	-13200	-9360	-1241	1078	-630	-19016	-8920	-11168	-5	2385	-48	13168	20312	14000	-218	-3666	2075	-13792	1120	-872	805	-1071	486	-28000	-4376	-17928	615	-3139	1032	186	182	1
-8320	-4504	14224	-211	213	-70	-15464	-7648	-9144	1422	936	27	-21272	296	-8256	896	2399	730	8240	19080	13728	372	-3893	2781	-6336	3368	-4088	273	-2378	719	-23144	-2216	-19008	576	-3305	1205	157	175	1
-8008	-4136	14160	-263	260	-100	-16304	-496	-5800	1184	769	143	-15152	-624	-3368	847	2523	581	1800	13872	13528	739	-4441	3345	-5728	1592	-4840	-263	-3659	1061	-14816	144	-17912	-292	-3254	811	160	153	1
-7304	-6380	13736	-233	326	-25	-18264	-1080	-4032	-70	587	-97	-16648	-1136	-2968	663	2496	188	-4904	9544	13648	1473	-4963	3952	-6992	-608	-5392	-694	-4560	1375	-9112	-1616	-17256	-719	-2984	592	149	148	1
-7588	-6184	13520	-151	392	97	-14784	-1680	-4208	-1118	400	-162	-17384	3136	-3488	157	2498	249	-9184	9472	14552	1708	-5619	4338	-6624	-3352	-7264	-538	-5217	1538	-3080	-2944	-16280	-956	-2347	593	152	137	1
-8012	-5416	13532	-113	430	158	-15960	-5624	-4048	-1050	340	-214	-16400	3736	-1072	-567	2295	271	-9584	4456	16128	2002	-5919	4455	-8816	-4080	-6840	70	-5868	1752	-1984	-72	-15144	-978	-1850	534	141	128	1
-8220	-4620	13704	-126	473	202	-17640	-3720	-3440	-235	388	-30	-12680	3400	-800	-916	2351	616	-13696	5200	19272	2528	-5839	4198	-11888	-6504	-8800	366	-6421	2073	1736	800	-16064	-1796	-1387	319	136	126	1
-8660	-3748	13488	-210	510	220	-15816	-720	-2608	-355	427	-84	-12608	1280	2992	-1223	2197	719	-22528	7632	25496	2731	-5988	3805	-13744	-6768	-11528	676	-6602	2246	4152	648	-15536	-2654	-1051	-32	132	127	1
-8648	-5448	12652	-180	533	211	-13064	-2680	-1944	-837	551	-93	-13952	-2024	7128	-955	2619	468	-26304	11384	27464	2824	-6238	3881	-19512	-2576	-11760	825	-6716	2303	1680	712	-13152	-2457	-1188	-285	118	125	1
-8804	-6444	11756	-109	434	330	-13592	-4376	-160	-1168	740	-210	-16544	-3152	2120	-1297	2798	353	-32504	16728	26872	2330	-5676	4345	-31568	-1448	-16112	-17	-7041	2610	-2848	1080	-6880	-1504	-1655	-149	138	149	1
-8656	-6300	12564	-88	374	431	-13528	-4112	976	-1167	1029	-208	-18928	-304	3984	-966	1756	203	-32768	13184	23480	2282	-4543	5133	-25208	1328	-20592	-1570	-6599	2023	-6008	2408	-2696	-1391	-1485	169	152	156	1
-8928	-5172	13396	-72	477	456	-16808	-4136	288	-1036	1413	-107	-23328	-4736	6240	-1027	1691	200	-32768	6064	15624	1409	-3327	6056	-24432	-1128	-24552	-2844	-5646	1145	-10936	3008	3048	-1025	-1476	662	146	147	1
-9200	-5508	14480	-91	726	498	-17672	-3056	936	-819	1787	9	-20856	-2472	9656	-1091	2085	191	-32768	-7032	-4496	-474	-2008	5678	-16720	-2984	-29152	-3124	-3984	206	-32768	-1768	25880	-1380	-4184	664	140	145	1
-8376	-5092	15992	-102	1207	594	-19552	-2432	3920	-804	2244	56	-19976	1720	14368	-833	2027	189	-32768	-26440	-18912	199	-432	3608	-15176	-2584	-30136	-3072	-3710	337	-32768	-29064	17696	-1423	-1644	637	142	149	1
-8000	-5052	17532	-123	2029	815	-19904	-3448	4648	-234	2907	127	-27992	-784	16168	-741	1347	228	-32768	-23080	-16624	787	443	1223	2000	-6504	-32768	-1561	654	200	-8200	928	25528	-1805	512	-213	121	109	1
-7732	-5028	19368	-197	3128	1074	-23760	-1616	3376	414	3581	152	-28848	-4352	16840	-422	310	226	-32768	-18608	-10256	595	1163	-638	-3816	-2296	-32768	1226	3179	612	-18976	-11144	3400	-1824	2015	-209	61	50	1
-6096	-9524	20500	-327	4514	1636	-32136	-104	4912	302	4062	60	-26840	-4424	22744	242	-1081	189	5936	-10216	23312	-4492	3200	-2161	-28784	4432	17360	2193	3841	-76	-18672	-9872	-5768	-639	492	46	33	22	1
-2212	-13012	22012	-537	6240	2962	-32768	1056	4208	-350	4222	-299	-27744	-8448	32767	262	-2929	426	-32768	-32768	32767	-3629	6211	-5165	-32768	1632	-21904	-4655	2639	377	-32768	23656	21872	-537	-1085	2508	100	106	1
1904	-18948	28164	-786	8743	4960	-32768	2296	15928	-2449	3987	-576	-25080	10624	-5000	-1374	-1031	1200	-22344	6512	18464	-1177	3357	-2075	-7120	-32768	-32768	-5190	4601	-2163	-23184	-14056	-25120	-3581	2608	-875	147	180	1
-32768	-13528	23024	-2294	10850	5700	-32000	-5008	-3784	-3991	3983	-397	-31696	1600	-3776	-2342	-938	853	-23560	4712	20528	-1523	2078	-1626	-15456	12824	-24848	-1811	2749	-582	-7136	-18248	-18464	1941	405	268	137	159	1
-32768	-32768	31168	-2974	9477	5376	-32768	-21504	-8944	-3821	3570	172	-28824	-1768	-18520	-3771	-2287	509	-13968	12768	12712	-802	1031	-989	-11592	-11600	-22792	-396	2300	1039	2072	-7544	-20520	3149	886	-161	140	132	1
-28972	-32768	32767	-566	5072	5521	-20408	-24400	-13992	1661	2880	-935	-32768	4976	-4264	-1117	-2852	-1245	-10720	4104	15528	-354	651	-548	-27584	-3480	-16016	3383	2377	284	-6592	19280	-18088	1141	1432	-1060	134	129	1
-32768	-32768	32767	-517	-2251	640	-21952	1904	-14528	1883	1600	-113	-32768	-4144	-12112	68	-2086	-1304	-8928	6200	13976	-199	577	-345	-17384	13904	-10672	1444	1283	234	-20624	3224	-11088	-469	2079	979	110	120	1
15440	-30288	20016	845	-4609	-1810	-12344	1408	1768	-88	-632	547	-32768	3152	-17064	1049	-2365	-1766	-8864	4968	14080	-58	529	-287	-14800	3408	-11176	-1656	799	-137	-18800	1368	-11184	-571	2330	-589	113	119	1
15880	-13352	13420	723	-3857	-2801	-10608	-1872	-552	558	-2123	-320	-32768	7136	-16632	972	-2495	-1784	-7976	7016	12848	52	541	-221	-21112	-5952	-8808	-1564	332	-184	-15072	368	-5456	-940	2525	-81	111	112	1
4792	-12024	16288	-221	-4080	-3518	-4328	32	-3808	1202	-3297	-73	-18744	6200	-15200	-42	-3315	-1359	-7880	7544	12480	98	594	-272	-18856	-2456	-5072	840	377	206	-17104	360	-4976	-721	2875	416	116	95	1
-4256	-11268	16468	-233	-4826	-3862	-4288	-2936	-6224	1202	-4114	-35	-6768	6176	-13568	-145	-3226	-1209	-8128	7440	11904	113	645	-322	-16944	3944	-3520	1508	457	251	-15400	-3160	-4344	10	3067	509	112	88	1
-7716	-6848	15052	34	-5619	-3917	-5200	2328	-5720	1027	-4932	-125	-2288	4736	-13288	0	-2536	-1308	-8392	7080	11712	101	634	-346	-14960	4728	-3192	919	265	221	-13840	-4008	-1816	1573	3451	1044	105	96	1
-8068	-1464	14532	-409	-5871	-3861	-5496	-480	-4480	929	-5577	-14	-2760	4168	-13120	-84	-2354	-1239	-8144	6840	11656	44	608	-411	-17400	-136	-2720	563	304	43	-13848	-4232	2288	1960	3104	751	112	83	1
-9916	-3152	16524	-720	-5787	-3587	-9352	1176	-7608	1486	-6128	-319	-1480	2816	-13936	574	-1888	-874	-8544	5648	11944	24	614	-508	-16376	-168	-2336	985	394	143	-9112	-1664	3552	210	2396	370	113	90	1
-16164	-5536	22040	-825	-5885	-3216	-12984	3872	-11288	614	-6377	231	2424	5032	-12936	1179	-1736	-369	-9624	5896	10096	22	541	-455	-13696	1960	-1912	946	591	107	-15168	984	-3216	430	2558	580	111	105	1
-23568	-6344	26480	-1180	-6193	-3294	-15640	3600	-13240	-272	-6929	-53	2624	2920	-13040	2036	-1859	-208	-9344	7064	9888	-75	375	-448	-13888	4480	-192	492	734	-46	-22600	5504	-3240	1818	2554	892	111	103	1
-30872	-9976	26168	-1142	-6276	-3589	-18944	-1960	-12544	-513	-7111	-253	-32	3088	-10224	2034	-2028	-132	-9072	7344	10632	-173	273	-515	-16448	2000	-1896	683	1053	-24	-19448	2792	824	636	2307	894	109	99	1
-32768	-14516	22724	-379	-5624	-3975	-27952	-7712	-16072	924	-6838	-335	-3928	840	-1368	1392	-2045	-273	-9520	6672	11040	-244	328	-582	-16800	736	560	1184	1299	-22	-18792	64	4840	840	2313	557	110	98	1
-32768	-10844	20052	273	-4785	-4438	-26704	-5216	-20904	2361	-6161	227	-8832	-2864	3752	1377	-2040	-650	-9424	5728	12472	-226	571	-548	-15664	816	3616	1221	1626	-137	-18040	-1512	7224	986	2352	413	109	104	1
-32768	-3168	8804	430	-3751	-4954	-24992	-13960	-25336	2511	-5087	955	-17008	-4792	7608	1615	-1970	-851	-9120	4960	14616	-206	967	-493	-17008	3792	3584	400	2068	-419	-17584	-5584	4640	808	2046	485	107	106	1
-32768	-316	-10844	1440	-2447	-4200	-16688	-6256	-27912	2065	-3376	688	-32768	9408	24120	1097	-3481	-797	-8392	6152	16976	-115	1659	-640	-23600	856	1184	-508	2460	-687	-28408	-4312	2632	883	1449	523	115	114	1
-32768	17708	-21772	513	-1183	-2419	-7696	-8720	-32768	1763	-1658	215	-7312	-2176	25032	-223	-751	-709	-8120	7400	18168	-34	2527	-886	-26296	-1312	1400	-327	2801	-765	-27752	7288	3720	929	1107	56	119	114	1
-32768	16732	-25808	-972	-284	-202	-6152	-5616	-32768	1654	-1323	201	-17424	-48	21632	-17	1025	25	-7480	10080	18216	54	3458	-1275	-26056	2792	3184	-138	3190	-875	-29872	3848	7736	183	288	-41	116	109	1
-32768	14792	-21456	-1259	773	1751	-2600	-4168	-32640	-2318	2501	-999	-17256	5960	3096	-162	1396	234	-6760	13288	17672	89	4364	-2108	-28248	3336	4816	-340	3551	-928	-29776	48	13040	-218	-580	-347	102	96	1
1212	8860	1024	2910	3769	4024	-23192	-3368	8104	-2721	3088	-688	-16648	6400	28232	-1719	2527	136	-2672	17728	19472	148	5429	-3462	-32456	-1024	8328	10	3801	-671	-27488	-2648	20616	-234	-1360	-412	85	70	1
6192	12164	22988	2617	4036	3801	-32768	-32768	6184	2622	2540	-518	-21040	-19000	19952	-3519	2390	-327	-10456	14592	21424	85	7339	-5006	-32768	-1640	10952	1278	3705	-406	-32240	-4128	20832	-187	-4254	-241	78	72	1
-32768	-8280	27704	577	4538	2617	-2160	11352	-26168	7447	3798	614	-19128	-12904	-3568	1947	738	394	-32768	14640	17872	-186	8679	-6007	-32768	7592	-2680	2206	4068	-358	-21840	-10880	7040	371	-901	-1254	0	0	1
-32768	-8012	19632	1558	861	1162	-25040	-14928	-28272	421	3908	-727	-19440	22760	-23688	3500	2126	-662	-32768	19512	30680	1481	8335	-5640	-32768	15048	376	2083	4572	-717	-29912	5560	-9992	4440	-2386	-514	77	67	1
-16664	-7692	13864	327	360	291	-13800	4936	-17728	-155	2757	-1035	-12576	9064	-24736	9	1115	565	-32768	32767	32767	765	6246	-5893	-32768	13680	-5104	460	3505	-428	-31280	12016	-22544	4407	-2417	470	155	163	1
-10932	-3988	14696	237	72	134	-7776	2344	-18320	-1274	2132	-595	-17896	5928	-18624	-621	2124	269	-32768	32767	32767	-561	802	-3420	-20896	3168	-22168	-1511	2722	91	-32768	8416	-11800	913	-3841	959	181	183	1
-8984	-4328	13672	1	66	-10	-17600	-496	-14088	-3411	1584	-956	-18640	-5352	-13448	-1018	1876	-416	3216	32767	29560	-344	-3753	767	-19096	24	440	149	1285	-1023	-32768	2480	-15696	-1339	-3298	797	181	179	1
-8028	-4636	14024	-128	99	-59	-23032	-16072	-8456	-1587	1029	-716	-18496	-6816	-9160	66	2318	239	16856	19800	15472	87	-4086	1951	-14704	-688	2272	627	-773	-158	-27848	-5792	-16888	-553	-3158	854	175	176	1
-8204	-4688	13776	-257	219	-83	-14384	-7984	-8352	1543	1115	-35	-21776	864	-7088	824	2446	851	13056	19832	14448	351	-4117	2498	-7128	952	-384	565	-2142	344	-22624	-6832	-17456	50	-3075	969	133	167	1
-8112	-5556	13520	-283	255	-105	-16448	-536	-5512	1277	937	141	-14728	-144	-2864	687	2419	406	5488	14808	13792	260	-4488	2879	-6152	2088	-2872	209	-3478	701	-18768	-3008	-16872	-21	-3287	478	156	155	1
-7804	-7020	12920	-196	274	-6	-16816	-896	-3936	-394	692	-147	-15280	-2816	-2280	482	2466	74	-1192	10320	13424	732	-4943	3285	-7568	-352	-4984	-384	-4435	1140	-9416	-1608	-17504	-584	-3088	318	147	147	1
-7736	-7292	12816	-79	314	130	-14272	-4376	-3104	-1508	435	-357	-16336	2144	-2096	95	2440	208	-6592	8080	14616	1291	-5382	3568	-8000	-2888	-7536	-463	-5274	1282	-3832	-1888	-16384	-702	-2472	405	147	134	1
-8320	-5808	13084	-21	337	191	-15864	-7840	-3552	-868	597	-254	-16176	2872	-1400	-453	2381	224	-12192	8560	17520	1619	-5786	3790	-8832	-3104	-8856	95	-5869	1393	-3936	1768	-16624	-881	-1767	507	139	131	1
-8416	-5528	13376	-15	382	228	-16496	-3928	-3984	177	713	-36	-13216	2768	-968	-760	2259	455	-18096	7936	19544	1868	-6133	3930	-12272	-4560	-10016	226	-6395	1706	-1248	1144	-16120	-1852	-1391	210	138	127	1
-8832	-4520	13220	-69	434	216	-16248	-104	-4920	80	627	-8	-13536	432	-1280	-979	2343	573	-22912	8392	21672	2254	-6087	4038	-14656	-4632	-10504	236	-6600	1914	2408	40	-16656	-2963	-1148	-190	129	128	1
-8492	-5528	13280	-147	471	259	-15648	-1768	-4248	-751	640	-120	-15768	640	1776	-762	2408	577	-26408	13280	24456	2170	-5903	4339	-18640	-776	-14424	-366	-6777	1787	1296	-584	-14240	-2644	-1266	-479	123	126	1
-8848	-5872	12472	-156	525	349	-16560	-2280	-2808	-1267	711	-234	-14384	-1136	2424	-821	2873	442	-32768	15632	28120	1985	-5500	4777	-30296	-2792	-18416	-904	-7110	1915	840	-520	-12360	-2452	-1416	-481	144	150	1
-8884	-5932	12596	-166	526	421	-14208	-2856	664	-1399	943	-287	-18096	328	3552	-849	2051	278	-32768	15752	28208	2001	-5439	4850	-26376	-3432	-20968	-1073	-6887	1717	-3480	544	-3720	-1206	-1222	-92	150	150	1
-9252	-5208	13072	-215	622	388	-12992	-4728	1000	-912	1344	-147	-21480	-1744	7200	-803	1692	300	-32768	2688	17184	1995	-4165	5396	-22072	-2040	-23616	-1342	-5969	1228	-9608	3280	2296	-1062	-1243	391	151	147	1
-9128	-6024	13728	-203	873	401	-18280	-3304	1088	-569	1765	-32	-20448	-2720	8768	-1045	2024	167	-32768	-3000	-2800	95	-3179	4515	-23040	3536	-26640	-1525	-4403	704	-32768	2864	23736	-1439	-4189	891	145	144	1
-8708	-6564	15544	-164	1349	549	-19464	-3536	2824	-674	2170	-36	-20696	-696	12376	-926	2093	92	-32768	-21888	-22024	393	-1330	3120	-2424	-2120	-32768	-2912	-2467	243	-32768	-24464	16816	-703	-2600	564	134	145	1
-8268	-7052	16400	-164	2100	839	-20296	-3120	4368	-465	2759	7	-27160	-1776	14104	-836	1385	176	-32768	-20104	-19696	651	360	1988	2952	-1456	-32768	-1768	369	124	-4704	3232	27848	-823	446	-240	120	116	1
-8040	-5408	18016	-219	3066	1126	-22168	-1912	3080	187	3348	33	-26520	-3136	15600	-475	505	127	-32768	-21160	-14256	261	1277	339	-3896	-1016	-32768	192	2730	257	-15888	-7592	5528	-1331	1974	-199	55	60	1
-7104	-8396	18796	-298	4337	1619	-28376	-736	3928	333	3845	-77	-25792	-4496	20448	65	-749	205	-23328	30752	4312	159	2050	-744	-9696	6464	-26848	-309	4126	189	-9504	-5448	-17568	-1235	2951	-231	45	32	1
-3840	-11872	21404	-643	5879	2744	-32768	3024	6024	-223	4126	-441	-26368	-3704	32767	324	-2358	332	32767	-608	25944	-2110	5053	-1562	-32768	2584	32767	1931	1803	-1187	7392	32767	-24344	1452	1637	556	105	99	1
1804	-19524	25812	-968	8124	4718	-32768	1368	16360	-2391	3978	-766	-27480	14624	-2336	-504	-428	949	-32768	-9896	32767	-2510	5829	-3580	-18880	-10712	-32768	-6291	2147	1031	-32768	-10024	3816	-6449	255	724	161	192	1
-32768	-12760	22696	-1838	10391	5792	-32768	-4584	2968	-4001	3728	-608	-30792	8504	11952	-2370	-872	905	-32768	28840	24424	-2606	3202	-2452	-7160	-3880	-23168	-1598	4144	-2117	-32768	-32768	-11208	-1541	423	218	153	179	1
-32768	-25800	28008	-3212	9893	4983	-32768	-16824	-5088	-3810	4110	-232	-29960	-9264	-21256	-4648	-1455	975	-12672	-160	17264	-407	1325	-974	-22848	-21752	-21752	-2689	2447	735	9592	4240	-28160	3897	1104	-258	124	154	1
-32768	-32768	32767	-1870	6638	5131	-28792	-26608	-9616	439	3079	-645	-31192	-8024	-19888	-4176	-1798	810	-8424	3408	15104	-240	654	-343	-11824	-2608	-19720	1967	2490	183	-5576	18952	-23472	1701	1691	-496	139	122	1
-32768	-32768	32767	678	-60	2776	-20016	-3872	-19944	2023	2272	-277	-32768	136	-11088	565	-2601	-1357	-9304	6520	12904	-76	561	-227	-22064	13344	-17240	1968	1829	701	-31080	17736	-20744	311	2474	2184	117	121	1
14576	-32768	27920	519	-4940	-1176	-15528	2856	2096	118	282	326	-32768	4168	-16552	973	-2306	-1727	-9456	7336	12288	-63	403	-173	-17664	9816	-12864	-322	923	-31	-30032	15216	-20592	72	2433	2040	99	119	1
19368	-17220	14556	715	-4465	-2129	-13312	-2576	-472	202	-1539	-9	-30096	9648	-16592	96	-2733	-1605	-7928	5640	13680	90	431	-178	-20952	-2624	-10792	-1312	475	-194	-19504	-2928	-11296	-1344	2580	-514	131	119	1
8116	-12468	16280	247	-4289	-2729	-4408	1304	-3864	814	-3106	-130	-20632	6368	-15376	-172	-3117	-1169	-7744	6040	13552	280	580	-161	-17712	-8392	-7192	331	223	341	-15024	-4864	-4928	-1060	2898	594	117	95	1
-1568	-10320	16888	-249	-4980	-3344	-5064	-64	-4416	539	-3994	123	-11920	4528	-14896	150	-3418	-1030	-8040	6928	12280	410	721	-173	-20832	1912	-4192	1991	299	347	-16632	-1184	-3664	-137	3279	387	115	84	1
-6448	-8712	14824	-375	-5714	-3647	-5704	896	-4800	506	-4874	24	-3336	6048	-14272	300	-2999	-1164	-8512	8264	11496	381	740	-245	-17056	6072	-1352	1631	189	321	-16312	-2104	504	1132	3400	583	110	87	1
-8416	-6024	13632	-397	-6056	-3572	-5808	-344	-5008	471	-5524	-61	-2872	5048	-14648	3	-2267	-987	-6672	8112	11824	209	732	-384	-15392	4984	312	1012	266	131	-15120	-3328	3336	1453	2709	929	120	91	1
-10204	-5476	15136	-707	-6127	-3420	-5376	-712	-5280	440	-5598	-36	-1448	3656	-14376	-34	-1993	-877	-8672	6704	11136	129	772	-524	-15592	-960	232	951	505	99	-10160	-1136	7152	175	2108	708	117	91	1
-14328	-7872	18644	-953	-6013	-3216	-12152	448	-9504	801	-6433	85	928	2968	-13992	378	-1788	-614	-9696	6400	9360	39	751	-542	-14176	2728	-912	853	527	136	-12008	-2000	2136	137	2094	857	115	101	1
-21048	-11216	23340	-1066	-6085	-3314	-14376	-1392	-11792	542	-6823	32	1672	1152	-14408	1322	-1637	-424	-10232	6928	9128	-25	593	-525	-11784	4952	-1368	480	865	27	-20408	528	-2584	1900	2643	774	115	105	1
-22392	-11980	24076	-1069	-6109	-3388	-19392	-3784	-13536	756	-7124	-108	-112	2768	-13008	2105	-1996	-342	-10528	6760	10056	-72	530	-564	-16456	1576	-2320	271	1107	-3	-19776	4008	-864	1242	2489	1018	115	101	1
-32768	-17660	24144	-659	-5591	-4824	-26488	-5232	-17704	1450	-7092	169	-2568	424	-6320	1773	-2145	-427	-9736	6944	10704	-119	621	-651	-17832	-464	464	981	1418	-56	-19264	1368	2832	859	2319	536	117	100	1
-32768	-15180	23888	-15	-4853	-5519	-27296	-4656	-22456	1388	-6753	471	-5176	-3840	232	1367	-1856	-828	-10336	5792	11296	-204	784	-662	-14208	3920	2472	992	1703	-48	-14872	1880	6504	904	2321	460	114	104	1
-32768	-6388	14528	438	-4452	-5373	-27440	-464	-26680	1093	-5304	329	-11920	-4016	2288	471	-1516	-958	-9792	4752	13016	-215	1042	-640	-15592	3312	2584	35	2072	-343	-16448	-3360	4944	533	2008	502	107	101	1
-32768	1228	-9052	113	-3812	-3562	-16048	-6912	-29328	1184	-4198	68	-32768	640	32767	1251	-4556	-1166	-9248	6128	15760	-115	1617	-677	-16640	3056	2056	-111	2122	-391	-27272	-2288	3352	406	1625	518	112	108	1
-32768	20512	-22968	-800	-2224	-1337	-5920	-1320	-32768	782	-2284	-238	-17848	18176	16664	62	-2043	-1602	-8728	6744	17344	19	2472	-913	-27064	-1816	1032	-269	2781	-575	-29264	1728	3784	572	1264	108	111	109	1
-32768	18372	-28044	-1663	-1092	103	-1360	3104	-32768	-2156	95	-684	-11584	1080	29256	-1587	1234	-28	-8248	7920	17368	194	3376	-1274	-24584	2768	3784	-73	3175	-664	-27832	672	10056	177	470	50	114	107	1
-32768	16580	-27136	-1630	425	1918	-1848	-7872	-32768	-2671	2394	-1300	-16736	1984	5792	-1388	2035	134	-5256	13296	16688	346	4333	-1928	-26704	2648	7256	-289	3631	-793	-29696	-1560	15264	-102	-543	-24	108	108	1
-2864	-32768	-9168	2260	2661	1542	-13528	-7248	-15088	-1273	3852	-254	11360	7448	-15032	-1675	5087	-380	-4792	14008	18512	595	5662	-3137	-30376	-3792	10840	107	3970	-628	-26008	-5992	22648	-7	-1406	-405	73	61	1
32767	-23276	25044	5025	5268	3072	-32768	-32768	32767	1566	1465	-281	-10680	-32768	12360	-2234	2298	867	-13936	11112	24832	730	7874	-4322	-32768	-4288	18184	2063	3973	-248	-26344	-11720	25872	-605	-3161	-542	80	60	1
-32768	11100	32767	2377	5313	4782	-1824	23624	-32768	10449	3942	594	-32768	-23352	14624	6691	-1367	-1634	-32768	10904	23968	842	9381	-4929	-32768	3064	-2080	1825	4358	-463	-22888	-9040	6664	3267	-1349	-1057	0	0	1
-7104	12932	30832	2018	1038	685	-26976	-2888	-13768	255	4308	-476	-31536	32767	-21472	6176	2724	-1347	-32768	32767	32280	1402	8569	-5019	-32768	21232	-2120	1483	4424	-1040	-32768	17296	-21376	6061	-2283	-475	57	55	1
-12156	-9248	13784	289	489	89	-13472	12720	-13648	-175	2788	-924	2488	32767	-23256	-586	238	228	-22576	32767	32767	-596	5216	-4971	-32768	9536	-9608	-813	3373	-448	-31688	12216	-21408	3041	-3042	607	171	175	1
-9440	-11692	12612	232	250	114	-4776	440	-20272	-2563	2298	-937	-12168	4696	-22096	-3062	1558	1803	-32768	32767	32767	1283	-951	-2062	-21664	-3720	-22112	-1335	2805	-611	-32768	4752	-11104	-1293	-4241	1041	187	194	1
-9036	-5412	13652	-69	166	-3	-26488	-7240	-15976	-3438	1513	-1309	-22896	-16472	-19848	-2457	2351	-1208	7064	29136	25272	443	-4501	-272	-17344	-624	-104	1328	487	-669	-32768	-8992	-15856	-975	-3190	168	186	196	1
-8608	-5636	13968	-189	201	-10	-17896	-18936	-9736	-632	830	-496	-24696	-14664	-15032	-338	2435	860	14568	20360	15064	373	-5030	428	-11096	104	-416	1879	-1346	298	-26224	-6840	-20008	272	-3421	365	180	182	1
-8156	-4928	14252	-202	212	-14	-14832	-6024	-8448	1127	846	313	-20192	-1416	-8032	1247	2473	778	8448	18448	13056	502	-5358	1215	-5096	584	-2904	1609	-2733	529	-21616	784	-17144	334	-3528	228	164	170	1
-7780	-4964	14108	-209	291	10	-17752	-1112	-6064	601	678	151	-13992	1864	-3344	840	2795	154	2168	13928	11816	952	-5534	2150	-5224	1608	-4376	1384	-3953	918	-14280	2664	-17736	-484	-3180	-220	156	151	1
-7424	-5768	13912	-170	389	73	-18240	-2168	-4328	-532	379	-123	-16328	-1296	-3536	713	2729	136	-4504	12600	11000	1619	-5763	3127	-6760	1464	-6560	784	-4760	1238	-8096	-392	-18392	-1150	-3009	-139	142	137	1
-7928	-5308	13780	-185	482	116	-15192	-3448	-3808	-923	313	-177	-18664	4920	-2816	434	2500	260	-8008	12240	11824	1739	-6019	3790	-6200	1024	-7184	311	-5477	1486	-4072	296	-17728	-1285	-2368	-29	143	131	1
-8036	-5316	13684	-181	490	120	-16216	-5224	-2816	-680	369	-24	-14344	3888	-192	-604	2188	497	-12736	10272	15256	1826	-6079	4193	-8832	264	-9936	-30	-6157	1774	-880	1848	-15272	-951	-1754	37	140	132	1
-7796	-4824	14008	-248	606	276	-16488	-2600	-2056	-325	504	-97	-13368	2592	200	-737	2146	561	-18456	9016	18984	2267	-6109	4342	-12816	-4408	-10208	-93	-6632	1966	1568	2400	-15896	-1841	-1449	-96	137	128	1
-8564	-4684	13136	-201	706	301	-14024	-1896	-1192	-524	552	-73	-12480	-1648	9176	-460	2237	492	-24216	10448	22360	2652	-6108	4258	-15784	-2824	-10760	152	-6779	1957	3784	1792	-15624	-2264	-1185	-196	125	123	1
-8792	-6124	12228	-161	669	324	-13424	-4856	-992	-773	806	-113	-18104	-1824	1720	-930	3022	499	-30376	17056	24568	2305	-5815	4524	-22728	-560	-16280	-156	-6946	1977	1080	32	-11192	-1586	-1551	-195	127	123	1
-8616	-6296	12372	-145	649	430	-14584	-3344	168	-690	997	-98	-21392	2256	1888	-1183	2102	710	-32768	16624	22032	2039	-5137	5198	-29472	-248	-19032	-429	-6819	2080	-2800	2528	-5872	-814	-1598	101	146	145	1
-8936	-6500	12376	-104	691	502	-14608	-3008	40	-721	1036	-104	-20728	496	5904	-896	1537	-57	-32768	15656	15160	1769	-4407	5486	-20264	5624	-24200	-2037	-6156	1845	-5144	992	-3240	-1095	-1177	185	164	146	1
-9668	-5072	13292	-90	851	549	-15800	-4784	-448	-1196	1630	-120	-16696	-3360	8800	-1574	2204	-121	-32768	960	11280	1318	-2986	5994	-24624	-2416	-26688	-3239	-5274	992	-16816	1520	7016	-683	-1647	123	142	146	1
-9280	-5576	13960	-84	1138	615	-16848	-3448	1584	-1048	1998	-39	-15992	-536	10568	-1423	2322	43	-32768	-8176	-7952	13	-1460	5345	-17416	-2064	-28776	-1808	-3803	482	-32768	2160	24984	-1570	-4194	597	124	127	1
-8824	-5156	16032	-103	1720	696	-18384	-4256	3968	-521	2558	86	-24344	-2944	12016	-1110	1591	187	-32768	-24136	-17056	253	-320	2713	-13232	80	-29928	-1752	-3411	372	-14288	-11360	22752	-1032	-845	1012	97	90	1
-8280	-6564	17000	-132	2550	1017	-21104	-2232	2048	187	3159	99	-29376	-4120	12800	-581	737	363	-32768	-17696	-17248	873	305	969	1696	-5176	-32768	-1576	821	235	-9432	-1984	22168	-1894	1256	344	57	43	1
-7976	-6092	18780	-159	3605	1367	-25496	-760	2256	73	3585	-5	-23744	-5840	15136	-283	31	439	-32768	-13272	-11864	164	1565	-167	-5080	-1232	-30728	305	3129	359	-19496	-6664	-624	-1142	1971	-179	39	40	1
-5776	-11072	19788	-240	4893	2137	-31544	-1808	6568	-318	3935	-228	-25352	-3760	26232	-99	-1284	358	9472	-10656	21984	-3674	4603	-1497	-32768	5768	21896	1471	3826	-236	-7568	-3000	-9640	-1352	2287	197	85	79	1
-1944	-12556	24204	-555	6698	3660	-32768	1440	12464	-1300	4022	-532	-25624	-1640	9432	1680	-64	421	-32768	-32768	32767	-2759	5622	-4706	-32768	-9752	-32768	-5985	3106	932	-32768	15472	4864	-2556	-210	1554	165	170	1
-12928	-11756	24276	-1189	9032	5096	-32768	-336	9368	-3088	3822	-665	-27824	18736	18272	-1135	-1811	787	-18544	25928	7304	-1577	3218	-2353	-280	-23096	-28616	-2564	4801	-2494	-32768	-25240	-32768	-3636	1645	745	176	202	1
-32768	-11108	24828	-2478	10142	5026	-32768	-6384	-7360	-4030	4188	-215	-32768	-6096	-9336	-4109	-1548	1127	-19464	-17240	27816	-1424	1688	-1440	-13232	1480	-26480	-2862	2630	239	5680	-9248	-24856	2824	904	644	140	174	1
-32768	-32768	32767	-2715	8877	5295	-32768	-23584	-7184	-2569	2963	-110	-32768	2424	-12672	-2690	-2606	177	-11632	6848	15800	-750	853	-581	-17720	-17192	-25496	22	2269	916	-6144	13536	-22848	1035	1484	-852	151	151	1
-23444	-32768	32767	-714	3943	4503	-22448	-18840	-25552	1575	2283	-648	-32768	6240	-5576	-671	-2645	-1290	-8696	10240	11752	-140	587	-283	-25064	2864	-14312	3336	2277	401	-32768	11864	-21896	-127	2328	1823	133	139	1
-32760	-32768	32767	223	-4309	-854	-19856	1232	-4456	329	1337	-202	-32768	920	-10240	-67	-2045	-1617	-9168	6352	12728	-64	493	-222	-12952	11152	-12560	555	1061	314	-18848	4616	-11488	-401	2126	254	107	134	1
14912	-16872	18312	835	-4852	-2188	-16040	-3720	520	-141	-1073	181	-32768	7776	-16288	194	-2382	-1851	-8200	5400	13704	123	486	-184	-17048	3296	-11272	-1514	592	-123	-18816	1128	-11576	-779	2364	-397	86	118	1
13412	-10016	14060	-283	-4158	-2734	-8632	-480	-2600	894	-2488	-605	-23816	9248	-14928	-443	-3048	-1375	-7600	6720	13072	165	529	-151	-20816	-7400	-6872	-772	243	50	-14664	1752	-5152	-1238	2690	234	129	107	1
1408	-11384	17568	-852	-4608	-3160	-3976	1608	-4888	728	-3496	-284	-17088	8080	-14512	-355	-3400	-1306	-7608	6920	13040	199	639	-197	-19064	-248	-5080	1161	386	189	-18440	-2128	-5048	-909	2865	465	121	93	1
-4672	-8588	16928	-764	-5415	-3404	-7368	1088	-3744	516	-4436	-471	-4440	6984	-13024	-559	-3012	-1282	-7656	7104	12800	195	690	-277	-16232	3312	-3512	1178	238	243	-14752	-3792	-3152	57	3143	622	118	90	1
-6364	-2952	15080	-936	-5909	-3476	-5656	2112	-4304	313	-5123	-600	-3032	3808	-13648	-601	-2412	-1260	-8264	7256	11848	69	706	-371	-17056	2728	-2336	812	249	235	-15144	-5208	-56	1604	3441	1096	120	89	1
-6288	-1788	14908	-1415	-5853	-3363	-7416	552	-5912	593	-5737	-534	-2776	2280	-15016	-422	-2177	-1151	-7736	7000	12640	5	741	-540	-17208	-2736	-1136	978	314	215	-14440	-6200	5232	1393	2925	888	120	90	1
-10824	-5724	20172	-1247	-5737	-3117	-11880	2664	-9456	1038	-6251	-580	-720	2848	-13464	424	-1878	-848	-9128	5024	11960	5	799	-574	-16736	-240	-656	1375	523	297	-10776	-4576	3656	161	2155	455	120	102	1
-18680	-5884	25620	-1306	-6086	-3238	-14320	3648	-10752	381	-6575	-206	1568	2424	-12824	1122	-1805	-451	-9760	4952	10496	31	777	-499	-12160	3984	-1424	786	685	124	-15080	-1392	-2424	1178	2719	528	123	113	1
-22476	-8388	26236	-1436	-6244	-3580	-16736	56	-10992	325	-7025	-289	2232	1912	-13160	1941	-1942	-388	-9728	7144	10416	24	707	-489	-14504	3112	-2064	110	902	21	-19912	9312	-2872	1696	2719	900	119	110	1
-23684	-9588	26284	-1380	-6217	-3631	-22656	-4144	-13360	949	-7122	-458	160	2000	-10168	1918	-1931	-257	-9384	7040	10608	-86	669	-599	-16840	352	-1488	628	1146	-2	-20128	2720	536	620	2361	797	124	107	1
-32768	-12076	27020	-494	-5103	-4887	-30216	-4504	-18800	2039	-6886	156	-5336	72	-1392	1579	-1984	-376	-9624	6640	10928	-103	676	-621	-15856	480	1120	1193	1397	-3	-18768	-1824	4752	698	2165	484	116	106	1
-32768	-8536	24812	77	-4510	-5684	-24816	-3320	-23600	1846	-6199	752	-8728	-5128	2512	1537	-1812	-1046	-9368	5176	12784	-164	950	-650	-15504	3008	2064	802	1769	-207	-14688	-408	6712	912	2287	275	111	105	1
-32768	1624	6100	729	-3973	-4927	-23880	-7152	-26864	1277	-4716	730	-22032	-344	22040	853	-2766	-846	-9160	5576	15544	-138	1369	-704	-15968	2912	2728	701	1828	-246	-22592	-4536	4016	515	1843	599	106	107	1
-32768	9976	-20664	754	-2405	-2524	-11400	-8152	-32768	2146	-3116	319	-32768	20152	16440	1318	-3116	-1510	-8728	6288	17256	-65	2140	-872	-25136	-1968	2424	-412	2576	-648	-31120	-2496	5656	557	1409	429	111	106	1
-32768	17236	-25576	-1025	-905	-1079	544	2312	-32768	570	-688	86	-1288	-7256	32767	-159	-287	180	-8056	6360	17976	11	3014	-1114	-25480	-80	4616	-237	2997	-726	-27808	3552	9192	363	903	-69	120	107	1
-32768	17456	-28100	-1186	8	629	-200	-4208	-32768	-2114	1832	-788	-18912	5000	11880	-404	2055	486	-7224	11104	18472	70	3984	-1601	-26800	4536	6656	-443	3462	-965	-31024	1080	13792	-115	-113	-43	104	104	1
-32768	-32768	-26284	2558	2972	2659	-7016	-11640	-26624	-1799	3386	-1109	-20960	2224	32767	-1038	2874	49	-5120	14800	17784	236	5130	-2775	-27024	4544	8336	-505	3516	-982	-28640	-864	21536	-307	-1312	-346	64	54	1
32767	-32768	32767	3371	5652	3280	-32768	-11248	32288	1056	1775	215	-2248	-19912	-3304	-4097	3450	432	-7080	17704	22632	210	6899	-4361	-32768	-272	12016	979	4041	-652	-30832	-536	31272	243	-2871	-383	73	57	1
-32768	-4212	32767	1445	5211	3270	-7120	9272	-32768	8991	4052	-239	-32768	-24656	-3120	3845	-123	-1161	-32768	20328	24160	-204	8669	-5446	-32768	4880	1184	1554	4334	-599	-25192	-14656	23112	-3041	-1389	-952	0	1	1
-17460	9968	29580	1775	1614	880	-18712	624	-24304	1060	4315	-309	-28312	32767	-30176	4994	1654	-922	-32768	14672	32767	917	8491	-5300	-32768	6984	-6704	961	4762	-1025	-27360	8496	-11816	5156	-1943	-706	28	10	1
-13892	-10920	14772	296	531	201	-18784	8616	-17072	-544	2739	-1171	-5760	25552	-28144	-709	780	-105	-32768	32767	32767	-157	6797	-5697	-32768	14480	-7616	177	3576	-669	-32768	11016	-25848	3891	-2655	329	56	50	1
-10928	-8724	14312	118	208	78	-6248	2376	-19640	-2485	2020	-765	-13488	192	-21752	-1979	1687	1907	-32768	25608	32767	-647	2328	-3826	-24072	1760	-23664	-1770	2579	-108	-32768	3080	-11832	573	-4126	1062	122	118	1
-8272	-5540	14064	-84	144	-25	-22008	-7584	-14856	-3617	1456	-1150	-23568	-8448	-16728	-1135	1967	-847	3384	32767	32767	185	-3539	458	-20576	-3192	-776	530	1487	-1168	-32768	-1280	-15288	-1151	-3394	351	180	179	1
-6600	-5900	13764	-168	164	-40	-21048	-19384	-7768	-1105	911	-619	-19392	-9536	-12128	-469	2522	445	18008	18872	17112	319	-4437	1167	-13344	-104	2640	1974	-858	18	-28416	-7232	-18152	-243	-3289	505	187	189	1
-7644	-4720	14140	-213	239	-7	-13608	-6200	-8816	1937	796	174	-21344	-1136	-7696	1054	2527	798	11480	19344	13848	725	-4646	1447	-6592	1144	160	1697	-2085	720	-24328	-1968	-15624	396	-3904	524	173	189	1
-7596	-5764	13984	-244	272	11	-18784	2688	-5640	436	600	126	-14760	840	-2928	691	2747	343	4464	17056	12512	714	-5120	1966	-5760	1352	-536	1632	-2289	736	-15088	-928	-16840	-101	-3241	100	175	162	1
-7192	-6808	13404	-169	314	76	-16208	-3496	-2320	-1363	320	-152	-15224	-1936	-2856	268	2834	117	-712	11880	10704	1317	-5388	2905	-6800	1912	-4624	184	-4254	1371	-9704	-1744	-17200	-492	-3141	150	156	155	1
-7096	-6772	13520	-152	325	88	-14784	-5744	-2648	-1569	260	-294	-17024	2840	-568	-241	2563	273	-5680	11904	10568	1752	-5481	3690	-6936	1768	-5112	65	-4377	1397	-5136	1056	-17744	-1026	-2546	314	148	144	1
-7376	-5612	13736	-23	421	254	-16168	-7872	-1808	-745	394	-114	-14448	1808	744	-1244	2225	616	-9696	11392	13192	1647	-5647	4172	-7152	-40	-7256	-287	-5600	1672	-2696	1928	-16624	-1010	-1985	344	139	138	1
-7848	-4748	14100	-88	483	335	-17728	-3104	-1720	-51	444	60	-11768	-1536	5176	-1025	1814	561	-13560	9856	17120	1833	-5606	4517	-10936	-1456	-10032	-737	-6301	1873	440	648	-17144	-1627	-1439	99	141	139	1
-7944	-5308	13688	-109	569	388	-14216	-1744	-1880	-457	564	-17	-11848	-3936	5728	-252	2381	424	-18656	10312	22000	2086	-5554	4683	-15496	-5264	-12072	-809	-6809	1881	3040	2288	-16920	-2523	-1073	-237	132	130	1
-8608	-5836	12264	-120	524	405	-13608	-2584	528	-1239	776	-177	-23424	-1544	392	-1303	2654	602	-26424	11408	27176	2424	-5407	4758	-20632	-4712	-13664	-291	-7063	1745	440	1304	-13600	-2212	-991	-249	130	132	1
-7856	-6788	13124	-61	486	481	-13608	-6176	1000	-1076	1050	-177	-21448	-472	3432	-1142	1615	671	-32768	19488	31128	1847	-5370	4990	-29160	-1264	-19232	-216	-7233	1932	-3856	48	-6528	-1142	-1401	-56	153	156	1
-8604	-6128	13296	-44	582	589	-17536	-4112	136	-831	1354	-92	-18824	904	7952	-639	1520	-75	-32768	12480	26344	1774	-5292	5187	-29200	1288	-19496	-443	-6742	1750	-5936	2192	-2904	-929	-1377	273	156	151	1
-8648	-4940	14228	-66	778	609	-16448	-2128	-232	-957	1643	-49	-16304	-376	7904	-1347	2472	-18	-32768	7184	13616	1680	-4462	4804	-23488	3608	-22296	-1874	-5906	1596	-11232	3120	-104	-906	-1268	478	138	137	1
-8892	-5536	14416	-124	1116	622	-16880	-2272	744	-957	1966	-21	-16128	-1488	6528	-1303	2462	396	-32768	-2968	1464	770	-2903	4689	-20592	-5312	-29848	-2572	-4468	582	-32768	-320	23536	-1419	-4408	536	130	123	1
-8920	-4100	15716	-152	1646	659	-17680	-3048	3216	-619	2434	24	-21784	-1376	11032	-780	1726	292	-32768	-20296	-18448	199	-1111	3919	-6144	-3832	-32768	-2124	-2665	249	-32768	-25088	14840	-822	-2569	253	77	73	1
-7820	-4984	17312	-190	2460	773	-20704	-3624	3048	216	3012	191	-26432	-2584	12424	-327	1107	291	-32768	-26224	-17184	914	173	1813	2768	2256	-32768	-1098	-20	286	1168	3752	31080	-662	243	-219	75	59	1
-7708	-6284	18172	-229	3437	1065	-23664	-1568	2216	610	3506	147	-27320	-4248	14176	-85	344	432	-32768	-20472	-13960	633	759	65	-2216	-4984	-32768	-201	2518	315	-17024	-9848	7192	-1986	2134	20	62	58	1
-6300	-9384	19256	-304	4624	1643	-28584	-1048	5176	129	3820	-60	-26808	-5128	21080	318	-777	435	-32768	-648	-20352	-3797	3216	-2222	-14168	6288	-25024	508	4013	98	-19800	-8952	15488	-666	26	37	69	76	1
-2840	-13344	21100	-567	6085	2901	-32768	112	7472	-600	4093	-521	-26440	-4064	32767	293	-2824	322	16696	12872	32767	-3705	5591	-3518	-32768	4712	32568	-877	1810	-1514	-17304	32120	1744	1983	565	1273	141	150	1
-3336	-15832	26448	-894	8360	4546	-32768	-80	17088	-2416	3911	-640	-25784	14592	-3608	-566	-714	877	-32768	15064	32767	-1918	3964	-2848	-11904	-24920	-26280	-6494	3208	-223	-30624	-9408	-12608	-3584	1189	-785	166	212	1
-32768	-10008	24728	-1757	10528	5069	-32768	440	-6088	-2033	4390	-320	-31728	1344	4840	-2955	-668	931	-31648	10376	23296	-1948	2587	-1796	-6480	5952	-31688	-1449	3439	-1598	-20016	-25768	-20928	-541	25	385	171	187	1
-32768	-32768	32740	-2788	9721	4648	-32768	-18064	-3976	-3036	3849	198	-32768	-10552	-22216	-4585	-1991	758	-13504	7040	14904	-627	1094	-916	-17040	-21136	-22160	-1602	2385	1125	2664	3016	-23320	1189	1025	-751	152	163	1
-32768	-32768	32767	14	6531	5463	-24088	-25200	-8896	1094	2882	-728	-32768	1048	-7320	-42	-2990	-1009	-10944	1264	17080	-329	771	-550	-20368	-5792	-18648	2826	2473	-21	-22016	10280	-20224	560	1841	118	141	148	1
-32768	-32768	32767	36	-1534	1668	-22216	-22536	-18784	1568	2746	-675	-32768	-3624	-10720	854	-2280	-1459	-9480	2512	15680	-222	731	-537	-20552	12112	-14832	2552	1757	667	-27696	9472	-20232	676	2021	755	97	145	1
14680	-30792	25456	-183	-5689	-1094	-15384	2080	2384	-124	-332	802	-32768	5040	-18344	1653	-2536	-1707	-8640	6928	12792	23	548	-312	-14912	6976	-11088	-457	890	-12	-18096	10296	-11488	318	2415	132	86	132	1
19020	-16468	12884	536	-4993	-1541	-12736	1016	112	-67	-1988	35	-27176	11992	-16760	572	-3173	-1500	-8224	6576	12864	125	552	-247	-20192	-912	-9280	-1551	411	-176	-17784	3424	-8336	-763	2485	-333	126	127	1
6676	-12848	15720	-301	-4967	-2259	-3624	3664	-3696	-257	-3399	121	-20752	8248	-17248	-52	-3549	-1081	-7312	7544	13072	66	599	-256	-19176	-4696	-5968	6	311	172	-16768	960	-3840	-1083	2755	245	139	106	1
-1224	-12996	14768	-809	-5486	-3012	-5912	-2328	-4256	-413	-4307	73	-8632	6880	-14272	-30	-3431	-841	-8048	6528	12704	104	697	-306	-19064	-3816	-5576	281	326	179	-16728	-2248	-3232	-424	3021	374	119	94	1
-5868	-10808	14136	-757	-5835	-3529	-5936	-2400	-4328	-254	-4470	9	-2392	6192	-14752	74	-2854	-1086	-8232	7280	11832	101	708	-342	-15800	4288	-3032	950	286	179	-13424	-2928	-2176	1023	3437	672	121	95	1
-7404	-7224	13432	-777	-5889	-3815	-6464	-80	-5408	589	-5775	-203	-2792	4752	-15512	-208	-2269	-780	-8328	6480	11912	50	689	-427	-16088	3168	-2840	482	315	36	-13984	-2416	1288	1937	3397	917	119	90	1
-9944	-5324	16128	-1017	-5669	-3829	-8336	-1888	-6752	1332	-6334	-417	-808	4592	-14456	195	-2064	-715	-8176	6416	12720	7	730	-562	-17208	-2056	-2056	743	390	80	-11896	-2256	3808	466	2566	410	117	84	1
-17792	-7752	22872	-1201	-5682	-3660	-13096	1848	-11456	1240	-6690	-95	2200	4128	-12536	677	-1702	-405	-9728	5448	10592	87	770	-565	-15408	560	-2288	728	467	136	-10784	-288	-328	-364	2523	463	120	110	1
-24852	-6296	27264	-1391	-5917	-3724	-17248	3488	-12864	641	-6920	-93	2912	3344	-13752	1574	-1701	-199	-9448	6288	10584	32	652	-548	-13136	2104	-2088	649	666	58	-19456	312	-3752	1297	3015	682	120	111	1
-30228	-9604	27668	-1348	-5949	-3994	-17656	376	-13104	335	-7161	-76	1320	3512	-9856	1577	-1775	7	-9264	6152	11296	-20	564	-593	-16592	976	-992	588	937	52	-21296	1864	-1880	1145	2499	1030	117	103	1
-32768	-13048	27772	-628	-5549	-4340	-29704	-4256	-15392	459	-7043	-101	-2736	-232	-1176	781	-1991	-233	-10328	6080	10456	-104	565	-638	-17392	912	232	1097	1183	-18	-20992	-304	4840	564	2042	562	117	101	1
-32768	-8076	25532	-320	-5031	-4647	-28432	-6616	-19304	952	-6507	173	-8400	-5520	3752	559	-1899	-827	-9992	5384	11488	-248	624	-616	-13624	3016	3984	1280	1567	-92	-17096	368	10048	1045	2359	433	112	102	1
-32768	-2668	12204	158	-4496	-4301	-23248	-3648	-24056	1633	-5130	494	-16768	-2712	9320	324	-1831	-951	-9608	5360	13624	-303	880	-572	-16176	4176	3616	446	2038	-388	-16376	-5768	6160	894	2177	486	107	106	1
-32768	2824	-8876	784	-3285	-3081	-16160	-4608	-29608	1708	-3819	327	-32768	7832	29392	1054	-3295	-1565	-8776	6384	16152	-274	1472	-689	-22896	600	712	-221	2394	-641	-26880	-4296	2064	1011	1676	562	112	110	1
-32768	18728	-25200	-323	-1755	-1855	-5280	-1888	-32768	858	-1773	166	-8376	-8640	24328	15	-1028	-570	-8448	6216	17528	-178	2284	-950	-25296	-1136	8	-79	2760	-708	-28824	5640	2880	1131	1242	152	111	111	1
-32768	19528	-26876	-577	-1505	-1561	352	-3048	-32768	-1093	733	-430	-20136	4736	22496	-45	672	514	-8344	8736	18264	-94	3177	-1304	-25208	4008	3368	119	3119	-866	-27200	4136	6944	431	426	47	121	109	1
-32768	12168	-19924	-832	688	1801	-5120	-7744	-32768	-1599	2786	-711	-18800	2904	1088	-632	1202	494	-7728	12296	17160	10	4027	-2077	-27392	4072	6000	-173	3482	-948	-30104	-352	13168	-1	-460	-156	106	95	1
-5040	-10680	-5768	3450	3534	3563	-21248	-7912	12920	-1524	3403	-788	-21912	-2192	32767	-1662	2739	-63	-4080	14048	19712	32	5144	-3362	-31384	-696	8592	115	3757	-729	-26608	840	20784	-25	-1305	-417	68	52	1
-29824	11988	23168	3128	6852	4774	-32768	-32768	-11840	5945	2630	-855	-26464	-31960	20096	-1838	2330	-346	-8000	14056	23168	-86	7111	-4779	-32768	-2272	12728	1173	3761	-608	-32768	-160	25264	417	-3527	-272	65	50	1
-32768	-11392	29284	936	3913	2540	-10144	32767	-32768	6215	4432	1343	-18024	4840	-12312	3882	843	272	-32768	18888	21664	-88	8577	-5704	-32768	5424	-2720	1423	4056	-592	-25088	-11008	15256	-1250	-1384	-1103	0	0	1
-13668	5108	19228	1653	1505	1081	-22064	-21528	-25248	533	3310	-1131	-14112	23800	-23336	2687	2300	-1824	-32768	32767	32767	1311	8206	-5383	-32768	17256	-4152	1744	4483	-1136	-27656	4992	-14232	4678	-2120	-573	40	34	1
-12848	-12544	13164	444	396	315	-12568	8272	-17144	-473	2471	-1109	-7624	7888	-24096	-1266	1072	616	-32768	32767	32767	172	5764	-5492	-32768	12608	-6888	-210	3248	-447	-32768	11576	-20784	3361	-2608	598	116	123	1
-12176	-1048	16220	178	161	116	-16112	736	-19592	-2108	1925	-825	-25248	-3312	-20944	-776	2135	460	-32768	32767	32767	-771	577	-2070	-20192	144	-24312	-1675	2790	-197	-32768	4096	-10672	59	-3911	981	188	189	1
-8440	-5192	13768	-87	109	-38	-18488	-6064	-11640	-2852	1293	-891	-16200	-2464	-10528	-263	1955	-526	5144	26096	27568	-280	-3335	982	-19816	-856	432	466	939	-1177	-32768	-464	-15816	-1205	-3261	421	185	191	1
-7188	-5092	13572	-144	167	-33	-19288	-11224	-7688	-999	868	-628	-18992	-2544	-10048	245	2561	133	14448	18088	15536	472	-3874	1420	-13752	-1520	1208	1248	-863	42	-25360	-5264	-16640	-660	-3456	572	177	180	1
-7752	-4500	14532	-259	314	-32	-15752	-5536	-6952	1138	779	-98	-19824	3264	-4544	567	2456	766	8992	19272	13776	581	-4405	1664	-5768	2048	-1984	1265	-2053	447	-24704	-5344	-15224	2	-3705	594	165	174	1
-8184	-4556	13988	-326	358	-41	-18248	1824	-4416	122	654	-228	-14944	-776	-1784	287	2541	400	3840	14312	12240	724	-4849	2191	-4848	2976	-2760	800	-3181	802	-21792	-4136	-14816	109	-3603	550	161	151	1
-7640	-6764	13388	-277	388	23	-15624	-4040	-2000	-1337	428	-344	-15640	-584	-1784	36	2559	-6	-1352	12192	10312	1237	-5171	3045	-7080	1408	-4856	-11	-4086	1167	-9424	-320	-16216	-326	-3032	277	151	137	1
-8008	-6620	13000	-143	400	118	-13688	-7328	-2960	-1478	348	-425	-16600	1728	-352	-733	2339	12	-4768	11520	10032	1504	-5348	3692	-6944	896	-4616	-74	-4235	1190	-5648	1456	-16856	-868	-2412	365	147	139	1
-8424	-5872	12748	-59	360	162	-15392	-7488	-3016	-771	487	-212	-13200	-80	-2472	-1440	2225	263	-9056	11208	12432	1510	-5416	4143	-7672	744	-6696	-320	-5472	1407	-3488	3448	-16376	-972	-1965	384	137	134	1
-8036	-5516	13360	-30	385	222	-17008	-3272	-2760	-273	509	-77	-11472	-2520	-16	-1387	2080	447	-13272	10784	16440	1438	-5627	4416	-10248	24	-9360	-800	-6107	1573	240	2904	-16376	-1571	-1518	227	136	132	1
-8608	-4820	12988	-37	404	231	-14832	-2304	-3808	-593	550	-216	-13456	-3488	3776	-715	2329	323	-17752	11016	20160	1705	-5662	4635	-13416	-2328	-11088	-1153	-6628	1514	2400	4104	-16856	-2634	-1248	-107	139	129	1
-8852	-5464	12784	-131	386	298	-15216	-2944	-2480	-939	632	-192	-17280	-4608	-1200	-945	3135	656	-24144	13432	25112	1995	-5702	4952	-19936	-2712	-13664	-1067	-6896	1374	32	2456	-15112	-2824	-1095	-156	133	128	1
-8524	-5840	12880	-95	404	402	-15528	-3408	-728	-1254	756	-264	-20632	-720	-184	-859	2295	739	-30784	20376	28480	1682	-5471	5340	-21256	-2280	-14800	-1069	-6945	1343	-3328	-1384	-9544	-1913	-1388	-65	145	148	1
-8336	-5536	13480	-155	486	480	-15112	-3144	496	-1254	1046	-228	-23472	1864	5840	-371	1358	219	-32768	16600	25376	1198	-5315	5259	-29280	-328	-20272	-539	-7001	1542	-4200	840	-5048	-1315	-1046	51	149	151	1
-8460	-5780	13456	-152	506	486	-16264	-3544	1816	-1114	1425	-196	-19784	-1208	10904	-901	1969	-63	-32768	11088	14552	1854	-4677	4742	-23304	5872	-24176	-1745	-6175	1467	-8264	2224	-1840	-1381	-1085	315	152	145	1
-8736	-6012	14136	-179	908	455	-16104	-4144	3112	-758	1882	-18	-16464	-1952	11088	-974	2309	116	-32768	-320	3984	1013	-3377	4155	-24056	-2696	-31432	-2122	-4630	1033	-32768	-2816	26688	-1892	-4385	396	142	151	1
-8548	-5464	16140	-196	1483	550	-19744	-3792	4488	-475	2413	7	-22336	-2880	13240	-871	1946	115	-32768	-22456	-15904	748	-1551	3389	-5792	-1928	-32768	-1184	-2442	355	-32768	-26680	15576	-693	-2590	223	128	136	1
-7644	-5624	17648	-211	2364	825	-22240	-3312	4616	-119	3027	95	-30376	-840	15584	-780	1152	44	-32768	-25800	-16352	829	-229	911	2992	3560	-32768	-828	40	562	664	-1728	32767	232	95	336	88	72	1
-7348	-6676	18668	-268	3363	1171	-23112	-1400	3896	177	3574	22	-27072	-5128	17048	-600	401	288	-32768	-19432	-12680	519	843	-683	-2488	-3224	-32768	51	2496	431	-13152	-8640	7432	-915	2115	252	48	55	1
-6192	-8644	20136	-345	4677	1699	-28648	-352	5296	119	4050	-161	-25584	-4192	21992	42	-1012	269	-9016	-26240	7664	-4720	3657	-1760	-18792	2784	-8936	695	3994	149	-18456	-3616	10344	243	519	162	64	57	1
-1696	-12408	22676	-620	6322	2844	-32768	2456	6568	-428	4260	-566	-28280	-6832	32767	649	-3123	73	728	-27648	32767	-3370	6693	-2979	-32768	-16040	5424	-3389	1980	-1601	-20648	32767	944	328	611	1721	137	133	1
-984	-17312	27196	-1060	8787	4530	-32768	1624	17536	-2313	4020	-646	-25240	14952	-10184	-755	-856	1132	-32768	5792	31672	-878	3902	-2915	-32768	-10320	-9288	-4238	2541	26	-31568	-26784	-16392	-5522	1791	-1108	159	212	1
-32768	-12616	22400	-2128	11117	5125	-32768	112	-6872	-2464	4100	-410	-32248	8224	4056	-2753	-1118	837	-32768	24464	25216	-1707	2856	-2115	-5408	-32768	-32768	-5070	4133	-1588	-15264	-27400	-12776	575	-215	-364	145	185	1
-32768	-32768	32767	-3302	10005	4771	-32768	-19496	-6248	-3486	3782	-96	-30928	-4256	-21408	-4730	-2202	664	-8808	12000	12048	-615	1015	-1060	-16336	-15024	-20472	-1082	2301	1403	1312	18320	-25752	2794	1254	-708	158	156	1
-30732	-32768	32767	-718	5577	4622	-23224	-23512	-14680	1142	2860	-1224	-32768	1088	-4616	-1580	-2874	-1161	-9520	2592	16256	-475	649	-628	-21648	-1304	-16680	2864	2497	-119	-25160	22088	-21760	869	2305	1331	138	138	1
-32768	-32768	32767	-476	-2286	356	-21880	-1312	-12560	1416	1711	-276	-32768	-4064	-11024	144	-2088	-1586	-10000	4664	13976	-352	483	-414	-17728	12840	-14328	1963	1480	436	-24064	10240	-14616	-612	2228	1330	94	138	1
13572	-25428	24260	607	-4893	-1723	-13664	-1896	1632	163	-616	480	-32768	3736	-17680	1006	-2401	-1816	-8712	5448	13896	-231	381	-329	-16000	4656	-10752	-1323	835	-261	-19720	1080	-12464	-905	2405	-644	82	134	1
16548	-11196	15744	446	-4226	-2391	-11328	-128	-1288	970	-2253	-292	-25528	10416	-16024	-5	-3091	-1582	-7888	6072	13448	-63	442	-242	-21024	-4624	-9456	-2129	295	-258	-16440	-952	-7800	-1330	2692	-131	116	120	1
4016	-10820	18864	-401	-4586	-3003	-4440	3976	-4648	638	-3518	78	-18728	7616	-15328	-232	-3593	-1192	-7632	6432	13320	25	525	-255	-18800	-7392	-6392	32	329	99	-15936	-2464	-5752	-1118	3047	526	145	95	1
2680	-10768	18944	-471	-4734	-3079	-6832	1016	-4624	22	-4403	29	-7448	7256	-14048	-328	-3346	-1067	-7776	6344	12912	102	600	-286	-17560	1656	-3944	1392	369	228	-14456	-5280	-4936	-236	3432	604	119	82	1
-7048	-5668	15580	-424	-5916	-3536	-5336	2296	-4584	52	-5239	-80	-712	4752	-14160	-413	-2617	-1146	-8176	6800	12064	76	620	-315	-16280	5264	-3304	1088	233	297	-15336	-5152	-1160	1458	3454	955	119	79	1
-8584	-1772	15820	-508	-6098	-3446	-6088	456	-5760	201	-5852	-27	-2024	1664	-15288	-531	-2249	-979	-8352	6416	11832	-29	574	-372	-16584	1992	-2184	625	281	85	-13600	-3088	1208	1641	2795	538	117	83	1
-10936	-3308	18612	-678	-6200	-3230	-9416	520	-7696	960	-6330	-65	336	136	-14456	265	-1954	-736	-8480	5088	11800	-67	554	-439	-15736	-408	-1728	1006	485	132	-7664	2848	3648	145	2052	519	122	95	1
-17936	-7396	22596	-595	-6386	-3046	-13176	1352	-10800	530	-6596	327	3040	1016	-13304	1305	-1811	-546	-8952	5184	10424	-73	501	-416	-12248	1000	-328	960	567	133	-14160	-752	1064	813	2407	875	120	101	1
-25072	-8612	25328	-641	-6568	-3258	-16752	640	-11856	386	-6955	240	2120	1424	-12952	2609	-1934	-305	-8624	7584	11248	-97	401	-467	-14528	3816	360	1114	955	144	-22272	984	-912	1927	2375	1058	117	102	1
-30936	-12496	24328	-673	-6390	-3688	-20704	-2856	-12880	617	-7080	145	-520	5328	-9072	2623	-2346	37	-8968	6640	11928	-146	393	-577	-18800	2288	232	1164	1168	72	-22960	-1352	2744	1221	2041	843	117	100	1
-32768	-16072	22812	-295	-5604	-4435	-27792	-5712	-18552	1560	-6844	306	-5168	2936	-992	1823	-2546	44	-9320	5008	12800	-119	549	-646	-17432	-728	280	1043	1405	-26	-22352	-1744	2864	1130	2030	710	116	106	1
-32768	-13720	20452	326	-4758	-5128	-27728	-5088	-25256	1568	-6151	763	-8304	-1680	1504	1312	-2046	-652	-9296	3440	13312	-60	865	-511	-16136	-368	2256	857	1746	-248	-14864	2072	5072	1111	2541	335	120	104	1
-32768	-4632	8080	635	-4263	-4987	-25648	-3648	-28728	1186	-4785	672	-18336	3736	11728	31	-1871	-551	-8392	5136	15624	-66	1288	-460	-18144	4552	3608	206	2174	-505	-18536	-2672	5624	578	1959	452	121	110	1
-32768	3784	-17820	289	-3250	-3108	-11832	-10480	-30624	1097	-3274	387	-32768	17120	20304	-1124	-2883	-1430	-8272	7040	17448	-81	2004	-688	-24352	2792	2848	-558	2621	-780	-32768	-1272	6152	604	1436	278	116	116	1
-32768	11724	-25428	-645	-1479	-949	-3496	-3728	-32768	791	-1479	-147	-3320	-13776	31504	-1575	-5	-900	-7912	8400	18552	-105	2870	-1062	-26576	464	2008	-434	3051	-862	-28600	7472	7080	376	975	-263	114	116	1
-32768	14508	-27748	-1799	-661	17	-704	-1128	-32768	-1676	973	-712	-15840	-6664	14368	-512	1551	379	-7712	10952	18904	-82	3789	-1638	-27480	3552	4528	-168	3475	-933	-29616	816	10504	-157	54	-165	117	109	1
-32768	11180	-20536	-1313	1138	1534	-2432	-7632	-31200	-2035	2877	-957	-15720	-648	1080	55	1790	-329	-6744	13488	18200	-30	4695	-2709	-28424	1496	6904	-162	3855	-863	-28688	-4112	15752	-303	-844	-291	77	62	1
14232	-492	32448	3181	3996	3368	-32768	-3224	32767	-1352	2303	-444	4872	-1512	-18984	-2808	4519	426	-2768	14264	22664	19	6076	-4273	-32768	-2056	7008	401	4077	-554	-28632	-5160	32416	130	-2531	-406	65	49	1
-32768	32767	30708	2440	5794	4318	-23512	-18168	-32768	8378	3143	-990	-32768	-31160	4360	1242	462	-731	-25432	22376	23448	-202	8270	-5498	-32768	80	11784	2234	3997	-648	-26944	-14504	27144	-2826	-1979	-680	0	0	1
-32768	-32768	23924	1953	3082	2672	-9824	16672	-29112	2244	4407	1412	-21984	21088	-11952	4203	1121	-84	-32768	6216	32376	467	8623	-5623	-32768	2368	-10376	1051	4701	-596	-16904	1920	1816	4836	-1834	-849	7	0	1
-16988	22252	28524	1560	1599	1290	-21776	-5752	-25104	1473	3149	-1556	-8808	12976	-20384	802	1663	-919	-32768	5728	32767	757	8535	-5545	-32768	19008	-2664	1258	4097	-868	-32768	12112	-30064	5425	-2319	-48	38	26	1
-8952	-7540	14708	597	466	339	-10080	3896	-18896	-1274	2479	-816	-9600	12704	-20904	-691	1493	1161	-11848	32767	32767	-1181	3973	-4936	-28664	8160	-19056	-1147	2899	-211	-32704	5160	-14704	1747	-3495	1138	153	157	1
-10112	-2600	15196	81	175	31	-18280	1024	-16704	-3040	2083	-866	-25544	-1392	-18576	-1269	1871	-173	-5896	32767	32767	-39	-2216	-38	-24904	4800	-21320	-1472	2695	-8	-32768	3840	-13872	-986	-3548	827	195	196	1
-7844	-5820	13560	18	138	-3	-19352	-10096	-11632	-3052	1323	-882	-18184	-9488	-12664	-714	2106	-274	15856	22592	20688	99	-3612	1465	-14848	408	552	1029	-194	-636	-32768	-5208	-17312	-740	-3109	655	182	193	1
-7032	-4284	14732	-106	227	6	-16208	-15272	-8736	383	1002	-401	-21648	-2208	-8768	640	2365	535	11816	19976	15248	468	-3991	2009	-9704	648	-688	1134	-1733	479	-22264	-5480	-16304	165	-3202	723	163	190	1
-8396	-4708	14104	-237	289	-34	-16592	-400	-8208	1758	943	100	-18184	1832	-5976	779	2490	747	5936	17480	14384	492	-4630	2507	-4616	3696	-3792	768	-2971	644	-21336	-1216	-17184	132	-3509	480	166	171	1
-8136	-5004	13968	-282	312	-36	-18832	-1024	-5480	115	681	-85	-15512	-2408	-3040	678	2520	294	-1616	12864	12752	965	-5240	3196	-6032	1848	-4848	-61	-4075	1006	-10976	1096	-16872	-754	-3185	114	164	159	1
-7688	-6052	13448	-195	359	73	-14496	-2000	-3560	-1077	429	-261	-16840	1880	-3256	360	2486	185	-4160	10400	11144	1461	-5665	3798	-7152	-312	-5776	-533	-4943	1278	-6992	-400	-17240	-1123	-2910	241	153	138	1
-8056	-5688	13356	-114	395	161	-14368	-5184	-3600	-1492	356	-394	-15856	1880	-2376	-561	2534	233	-6968	8688	13008	1668	-5680	4066	-7656	-1744	-7000	-285	-5658	1391	-3728	2304	-17000	-1216	-2020	346	144	138	1
-8048	-5588	13120	-80	403	201	-17024	-8120	-2888	-660	419	-137	-15632	-416	568	-878	2435	252	-15136	8984	18064	1855	-5879	4108	-10064	-1560	-9376	-33	-6213	1682	-1032	2544	-16088	-1450	-1532	279	140	135	1
-8256	-4912	13512	-56	448	287	-17032	-1768	-3720	-33	451	5	-12848	1704	-408	-872	2194	589	-16168	8760	18768	1903	-5949	4101	-13048	-4992	-11296	-129	-6649	1858	2856	2024	-15840	-2516	-1181	-2	133	126	1
-8592	-4004	13312	-121	502	298	-14064	-928	-3632	-331	486	-220	-13152	456	3528	-861	2206	494	-23376	10680	23080	2529	-6014	4040	-17016	-3416	-11720	122	-6797	1829	3456	496	-16304	-2932	-1073	-403	140	126	1
-9004	-4852	12712	-182	527	263	-15248	-1368	-2600	-1067	616	-206	-14816	-2200	4808	-857	2848	475	-28344	16392	28008	2313	-5618	4352	-25464	-1456	-17520	-41	-7054	2028	-232	-1064	-8744	-1831	-1521	-367	141	131	1
-8848	-5536	12448	-166	501	333	-14952	-4320	-296	-1286	777	-262	-16616	-1920	1384	-1333	2651	722	-32768	17416	26944	2206	-5111	4775	-32088	-2632	-18192	-365	-6995	2154	-3656	-1880	-4232	-684	-1458	-178	151	155	1
-8932	-5840	12520	-133	479	409	-12816	-5208	1776	-1131	1089	-253	-21528	8	6488	-729	1675	391	-32768	8896	19544	2298	-4254	4998	-21024	5032	-21344	-1608	-6301	1849	-6784	272	-488	-390	-1119	-13	145	151	1
-8572	-5296	13716	-127	600	438	-15856	-4904	1296	-846	1511	-142	-20992	-3504	9376	-1050	1896	-122	-32768	4800	10824	1288	-3174	5369	-24904	-4304	-25416	-2111	-5034	1143	-20280	328	19896	-542	-2771	506	142	145	1
-8712	-4868	15340	-167	958	513	-19992	-1960	1776	-754	1895	-49	-19968	-280	10984	-1112	2432	-63	-32768	-18440	-11712	295	-1759	4651	-12816	-808	-29656	-1947	-3399	423	-32768	-1744	19616	-1282	-3806	673	135	147	1
-8368	-4660	16368	-208	1622	620	-19928	-2904	4960	-743	2439	-31	-23744	-152	14528	-931	1924	353	-32768	-26640	-16264	969	-294	2246	-144	1656	-32768	-2321	-1163	470	-4832	-5664	31800	-852	-768	240	128	133	1
-7448	-5844	17568	-220	2489	843	-19040	-4112	4952	29	3114	24	-27976	-4304	15744	-660	941	293	-32768	-22000	-16080	716	386	530	576	-8880	-32768	-460	1610	298	-14472	-8752	17904	-1687	1305	229	87	69	1
-7300	-6036	19100	-306	3596	1164	-24712	-2800	2456	542	3673	-9	-25512	-5032	15616	-155	-23	78	-32768	-11960	-6344	374	1400	-1044	-8928	4360	-31976	1082	3752	308	-18304	-4920	-6496	294	1498	-135	54	40	1
-5956	-9512	20392	-392	4945	1935	-32768	1688	5096	56	3980	-264	-26648	-2776	24560	303	-1399	250	-11400	11536	14608	-4605	2431	-859	-9944	5672	-31400	923	3876	236	10520	6360	-30920	660	4747	248	63	60	1
-996	-9148	21584	-840	6682	3264	-32768	1808	5552	-56	4012	-341	-24120	-3832	32767	1352	-3291	175	21464	-28248	13856	-3209	6763	-3119	-32768	-3856	31792	-1298	1364	-156	-20392	32767	20576	-1194	-1803	1034	134	135	1
-5380	-12932	25884	-1266	9070	4947	-32768	1024	14208	-3028	3866	-736	-22608	22072	15960	-1819	-2567	1201	-32768	21040	22416	-1912	3504	-3110	-12400	-31824	-32768	-7054	3796	-1386	-32768	-32768	-18304	-7027	1797	-428	135	217	1
-32768	-14900	23312	-2926	10739	4720	-32768	-2840	-8968	-3376	4275	-458	-30808	-6376	-7552	-3926	-580	977	-28992	-13976	32767	-2012	1925	-1391	-17144	5248	-26704	-2130	2883	-790	-16512	-17272	-17472	2203	704	-542	143	195	1
-32768	-32768	32180	-2789	9343	5084	-32768	-23488	-4872	-2804	3250	-54	-32768	-4504	-16888	-3599	-2377	582	-11872	22096	7288	-491	1081	-681	-9440	-18864	-21536	-258	2312	1169	15920	7616	-21712	2783	1011	-168	148	150	1
-26376	-32768	32767	-702	5364	4822	-22720	-20936	-20928	1309	2421	-771	-32768	-968	-5640	-686	-2774	-1382	-9264	5320	13960	-141	603	-360	-18360	1464	-17616	2422	2258	269	-28568	22304	-21784	903	2214	605	150	134	1
-32768	-32768	32767	-137	-2979	465	-18032	-3424	-15056	1050	1433	113	-32768	-6600	-11912	864	-2358	-1410	-8776	6072	13256	-2	532	-251	-21744	11512	-13792	1630	1340	540	-30624	8272	-18992	-197	2285	1985	105	140	1
9056	-25296	21968	1051	-5596	-1742	-12320	-1832	360	171	-710	725	-32768	5096	-18080	1408	-2424	-1859	-7736	5672	13848	68	482	-223	-19600	11392	-12720	1132	1184	429	-19912	5256	-9760	-469	2475	-534	122	126	1
15816	-11464	12128	735	-4985	-2508	-10856	-936	-1208	969	-2319	129	-25560	8512	-16736	319	-3077	-1424	-7456	6816	13272	233	578	-231	-17184	3584	-10840	-1369	612	-192	-16808	-4016	-5080	-863	2515	7	101	113	1
4492	-10800	14732	62	-4875	-2967	-3272	1544	-5112	927	-3540	382	-18528	4904	-16088	320	-3469	-1120	-7664	7936	12536	297	714	-223	-20016	-8656	-8064	-583	311	161	-14848	512	-3328	-305	3003	780	134	92	1
-5320	-9620	15224	-163	-5483	-3285	-5696	-1216	-4728	479	-4374	465	-6288	4968	-14608	347	-3269	-891	-8160	8184	11608	292	760	-252	-17768	5672	-2680	1679	321	297	-16000	-1344	-2096	255	3130	289	118	74	1
-9888	-9264	14368	-131	-6242	-3440	-5080	-1176	-5768	447	-5111	212	-1952	4696	-13648	330	-2443	-976	-7736	9096	11280	173	743	-338	-15880	6592	-1232	1050	340	185	-16240	-2096	1024	1563	2992	809	112	86	1
-9556	-6396	13048	-248	-6506	-3519	-6152	-2328	-6096	579	-5966	262	-3944	3032	-14728	186	-2150	-995	-7640	7688	11816	21	691	-489	-16952	1536	-1208	839	371	96	-14664	-1848	1328	1519	2535	834	120	82	1
-12568	-7668	13684	-527	-6296	-3469	-10848	384	-7888	1256	-6338	21	-1384	2256	-14816	608	-1941	-791	-9064	6016	11360	-48	717	-592	-16040	-696	-2864	998	553	162	-9096	-656	4024	56	2209	608	117	100	1
-17576	-10892	19060	-729	-6069	-3346	-12848	-1376	-11216	905	-6554	411	1968	4056	-13936	1324	-1700	-398	-9752	6184	10416	-6	684	-474	-13584	1584	-2624	843	610	42	-13064	192	-1880	568	2752	720	114	96	1
-24896	-13692	24224	-692	-6197	-3604	-18128	-2184	-13120	848	-6975	194	2528	3584	-14008	2391	-1909	-168	-8784	8576	9888	-70	576	-516	-13944	3752	-800	391	637	5	-21208	2408	-3816	1931	2895	724	118	95	1
-30084	-14768	24296	-749	-6084	-4222	-22480	-3304	-14208	1081	-7142	98	504	4672	-9248	2235	-2081	-108	-9288	8488	10656	-206	498	-665	-17160	4200	-1288	682	1127	8	-20392	2024	776	1061	2265	774	117	94	1
-32768	-14672	24000	-469	-5293	-4801	-27672	-3472	-17832	1128	-7013	206	-3312	1400	-1448	1471	-2082	-134	-9168	7056	10792	-249	583	-745	-16736	568	1504	813	1328	-51	-19264	152	5472	826	2146	736	113	97	1
-32768	-8688	22856	-251	-4502	-5092	-26768	-7528	-21968	932	-6376	419	-7576	-5184	3152	1053	-1618	-608	-9904	5200	11744	-236	739	-731	-14648	1056	1344	872	1604	-113	-14880	144	5960	1140	2521	586	111	102	1
-32768	-4928	8340	221	-4147	-4552	-23288	-8056	-24160	1039	-4912	376	-20880	-2712	16480	344	-2247	-773	-9504	5144	14344	-174	1126	-632	-17888	1744	1584	362	2004	-405	-17024	-2352	1192	816	2137	446	113	110	1
-32768	4532	-17508	596	-2958	-2578	-12040	-7200	-30856	1689	-3399	48	-32768	11160	24528	973	-3099	-1680	-8576	6424	15816	-59	1754	-701	-22720	1536	1280	-336	2374	-614	-29616	-864	2840	609	1437	346	118	113	1
-32768	14144	-25660	-762	-1290	-1477	-3368	-560	-32768	1037	-1359	-104	-2704	-5000	31808	-273	-548	-636	-8456	8448	16480	-7	2515	-963	-24344	752	1232	-364	2735	-716	-26632	2896	6008	642	980	62	122	116	1
-32768	15032	-28052	-1010	-110	-298	-1544	-2320	-31392	-1546	1173	-696	-17704	-528	19192	-653	1448	89	-7920	10384	17376	94	3351	-1379	-26136	3736	3776	-224	3148	-817	-29784	1112	9432	353	409	118	120	114	1
-32768	-892	-16220	-933	1312	1349	-4880	-9856	-27472	-1403	3111	-650	-20896	1400	-376	-1158	1459	230	-7248	13528	17472	231	4194	-2238	-27696	1080	4408	-177	3566	-777	-29944	-1648	13216	119	-598	-92	102	92	1
9288	19152	32767	2609	4813	3198	-32768	2976	32767	-771	2582	-793	3088	7448	-32128	-1737	4093	-395	-3888	13872	20704	337	5529	-3493	-32768	-856	10512	625	3829	-545	-27936	-3864	21872	408	-1558	-374	71	51	1
-32768	31632	32767	1775	5122	3780	-18072	-18104	-32768	6301	3695	-884	-29128	-25376	5576	500	544	-428	-13096	15888	22272	156	7505	-4866	-32768	-1912	11832	1455	3746	-453	-32184	-6768	16784	-177	-3899	-262	60	55	1
-29576	-14872	16096	776	3589	2072	-4016	14472	-24088	2478	4087	843	-23920	15320	-19240	4261	1251	218	-32768	13880	22160	279	8855	-5430	-32768	1056	-2312	1177	4262	-421	-22808	-5712	3344	1918	-912	-1365	0	0	1
-25936	11488	26528	1527	1347	1042	-23328	-20232	-25408	1997	3172	-1268	-10296	13080	-21696	1984	1601	-1056	-32768	32767	30640	1880	8574	-5268	-32768	18776	-4000	1842	4254	-897	-32768	5464	-16712	4650	-2605	-102	43	23	1
-13540	-15724	12780	584	381	327	-13976	7824	-19296	-668	2375	-686	-16768	8472	-20760	103	1859	596	-27224	32767	32767	427	5456	-5404	-32768	19912	-1384	1688	4034	-791	-31744	10176	-19696	3517	-2668	605	106	101	1
-10448	-4144	15024	59	173	76	-16328	2176	-15960	-2481	1901	-853	-22408	5216	-15752	-615	2007	-378	-32768	32767	32767	570	-357	-2367	-18512	-2064	-24696	-685	2621	-157	-32768	3544	-13584	162	-3739	835	190	194	1
-8472	-5112	13720	-65	131	-22	-16616	-6104	-11096	-3069	1307	-956	-14064	-5504	-9312	-974	2023	-260	7768	30544	24248	417	-4335	286	-16000	-216	2920	1327	731	-667	-32768	-4224	-14744	-811	-3192	291	182	192	1
-6868	-4872	13876	-144	213	-33	-18856	-13672	-7384	-613	923	-544	-19768	-2208	-9088	-51	2368	469	17816	21080	12552	936	-4071	1513	-11912	-1880	3088	1921	-1131	381	-23216	-4552	-14464	-114	-3340	383	179	186	1
-8152	-4156	14504	-307	323	-62	-15672	-4656	-7616	1660	950	-56	-18192	-568	-5136	496	2497	615	8896	24040	11536	551	-3699	2695	-6144	3248	-288	1607	-2262	763	-22360	-5280	-14288	440	-3415	485	164	173	1
-7988	-5640	13604	-306	330	-50	-19144	1176	-4488	182	748	-96	-15712	-2768	-1712	657	2513	266	976	14976	13360	143	-4216	3626	-4600	6288	-4200	308	-3400	1038	-13656	-432	-16680	58	-3080	214	163	152	1
-7724	-6576	13088	-194	347	63	-13840	-1568	-2488	-1270	516	-387	-15480	2352	-480	232	2520	-44	-3584	10296	13048	512	-4960	4346	-6904	3320	-5256	-862	-4271	1345	-7520	736	-16408	-432	-2814	210	157	142	1
-7752	-6048	13004	-91	353	145	-13760	-5752	-2488	-1590	532	-482	-16608	1768	-560	-746	2374	109	-6032	6960	13056	1392	-5544	4411	-7232	1024	-6568	-1425	-5079	1293	-5504	1768	-16248	-943	-2209	431	144	136	1
-7868	-5812	13540	-24	406	217	-17528	-9336	-2360	-324	673	-191	-15384	1136	-704	-1052	2106	383	-11736	7800	16088	1607	-6111	4107	-9240	-2272	-8464	-1209	-5709	1364	-3304	3128	-15112	-1152	-1736	307	145	134	1
-8476	-4556	13624	-26	459	280	-16624	-1264	-4312	324	704	-94	-12984	232	-1744	-1181	2124	588	-14592	4624	18944	1961	-6403	3625	-13664	-10384	-9712	-156	-6390	1636	-1176	2592	-15608	-2331	-1422	16	139	133	1
-8828	-4228	13452	-113	500	243	-14160	-880	-5024	-324	680	-52	-14568	-1608	-1184	-941	2194	491	-20864	7952	23000	2353	-6364	3267	-14336	-9664	-12312	1507	-6453	1805	1224	-792	-15816	-3064	-1128	-480	136	124	1
-8792	-4952	13012	-121	539	294	-16040	-2888	-4344	-900	715	-240	-14704	-872	2896	-572	2908	568	-21872	8480	23672	2379	-6379	3233	-17832	-2048	-11768	2311	-6506	2090	-680	-1936	-12368	-1823	-1187	-619	130	126	1
-8948	-5868	12336	-127	512	370	-15808	-3152	-2144	-1189	776	-222	-15136	680	-2880	-1192	2737	504	-32120	20992	26632	1993	-5930	3618	-32768	6080	-16520	825	-6713	2779	-3960	-1040	-3928	-249	-1619	-287	151	154	1
-9196	-5232	12588	-148	535	476	-13040	-3176	-1368	-1167	954	-281	-20248	2032	2360	-802	1671	183	-32768	15696	22736	1926	-5056	4208	-27088	1840	-17624	-1584	-6407	2193	-6720	1208	288	-6	-1379	45	138	155	1
-9168	-4588	13840	-236	707	426	-17640	-2440	-528	-1178	1265	-238	-20896	-1856	6832	-1253	1886	136	-32768	5984	15560	1413	-3323	5669	-24072	-6752	-22360	-3279	-5544	1012	-13816	5936	5088	-502	-1694	521	143	146	1
-9028	-5588	14344	-280	1031	436	-18688	-3704	3112	-1119	1650	-117	-21032	-2888	6864	-1330	1981	179	-32768	-4768	-768	-1311	-1630	5850	-23696	-8936	-22544	-3239	-5303	746	-32768	-864	15320	-1823	-4068	1141	133	139	1
-8680	-6288	15232	-233	1590	577	-16928	-4608	4800	-603	2222	-27	-21808	-2456	14256	-665	1802	209	-32768	-24128	-13352	-149	-432	3828	-5712	1640	-32768	-3528	-2306	-34	-20016	-6352	24352	-1149	-2182	-61	121	124	1
-8484	-5292	16528	-174	2351	805	-19448	-4552	3512	-42	2883	60	-26064	-3240	13184	-568	1197	196	-32768	-20856	-15056	-58	272	1228	-536	-6624	-32768	-2208	179	-307	-12280	1240	19992	-3043	725	-963	66	53	1
-8216	-6504	17808	-175	3291	1122	-23992	-3728	2808	331	3401	53	-26000	-6440	13544	-424	384	67	-32768	5080	-14096	-1103	1338	-909	-4480	-1888	-30960	1212	2634	464	-18208	-9776	888	-2906	1954	-453	46	38	1
-6468	-10476	19160	-225	4521	1779	-30304	-2200	6240	76	3766	-133	-28112	-5640	21832	105	-970	249	-2240	-26488	20200	-3140	4733	-1896	-26936	3472	12992	1711	3724	76	-26480	-11000	18704	-806	-776	572	71	64	1
-2528	-12984	22812	-425	6245	3127	-32768	-472	9080	-599	3984	-430	-30480	-9392	32767	-103	-2509	299	-32768	-32768	32767	-2551	5332	-3567	-32768	-4784	-32768	-5465	3317	507	-23912	560	-1832	56	642	1522	143	153	1
-724	-18660	24632	-846	8752	5196	-32768	1920	16472	-2337	3695	-644	-29504	13872	-1528	-480	-992	970	-14688	10136	14640	-928	3514	-2177	-936	-27144	-31264	-3912	4265	-1951	-23992	-7528	-27336	-409	1999	307	161	208	1
-32768	-8736	20684	-2609	10523	5575	-31504	1200	-8304	-3607	3940	-572	-32768	7080	1440	-2031	-1047	694	-25288	-3272	22824	-1306	1288	-1266	-12432	7728	-28032	-2295	2576	-450	-776	-10032	-17888	2029	891	700	151	189	1
-32768	-32768	32767	-3822	8804	5138	-32768	-22616	-5352	-4420	3542	-334	-29568	1464	-18784	-3969	-2057	417	-13240	14192	12320	-634	778	-717	-20816	-12968	-21968	883	2379	1155	-14776	24696	-24112	598	1801	-82	152	154	1
-32768	-32768	32767	-1072	4510	5378	-21216	-24736	-20456	1238	2802	-1139	-32768	6688	-5856	-1871	-2860	-1103	-8048	8520	13144	-181	571	-450	-24168	1960	-13032	2805	2187	187	-27368	5880	-17536	-1133	2137	698	132	149	1
-32768	-32768	32767	-597	-3357	-79	-23136	4984	-8728	1102	1523	-600	-32768	600	-10336	-389	-2252	-1352	-8912	5896	13792	16	491	-311	-12600	9920	-11088	194	1206	172	-16216	992	-10760	-603	2087	84	100	138	1
20136	-27144	19860	641	-4348	-1977	-14904	-1504	3208	-364	-742	60	-32768	4280	-16296	354	-2531	-1951	-8344	6352	12864	98	448	-225	-16440	3776	-10048	-1608	674	-153	-17608	4792	-10864	-653	2443	-86	83	128	1
15312	-12768	17600	-61	-3707	-2853	-10480	-936	-496	887	-2183	-919	-23240	10232	-14240	-177	-2942	-1731	-7264	7192	12536	1	477	-250	-21536	-7504	-7072	-772	314	-24	-16952	2536	-5952	-1196	2544	-31	128	117	1
4056	-12000	20724	-996	-4478	-3618	-3760	2072	-3600	873	-3321	-594	-18448	9264	-15448	-546	-3224	-1532	-7792	7600	12328	-58	593	-344	-18928	872	-4232	1214	478	165	-17184	-616	-4520	-1022	2757	506	140	102	1
-2956	-7384	18812	-860	-5221	-4012	-4512	1568	-3336	839	-3449	-532	-7760	6416	-13736	-1010	-3220	-1332	-7856	6960	12368	-107	637	-387	-15944	2384	-2712	1141	334	184	-15048	-5304	-4056	62	3029	541	132	87	1
-4928	-320	18060	-607	-5704	-4074	-7040	4360	-3680	767	-5129	-472	-1488	664	-13752	-941	-2452	-1324	-8104	6136	12440	-115	673	-403	-16112	944	-2784	420	385	180	-12760	-6520	528	1201	3293	768	124	98	1
-5696	2424	17816	-919	-5732	-3789	-8176	1440	-5312	1057	-5681	-225	-3832	-1416	-15944	-447	-2074	-1343	-7280	5600	13256	-70	730	-400	-17744	-2552	-1768	289	390	68	-13152	-6544	3512	778	2798	750	126	95	1
-10624	-2248	22260	-533	-5689	-3159	-12128	3216	-9144	1800	-6208	-88	-1464	2160	-13648	597	-1899	-1016	-9008	4984	12232	44	831	-387	-16232	-2344	-1808	882	580	132	-11152	-3568	2120	-168	2606	617	130	110	1
-19852	-4852	27668	-547	-6184	-3111	-14696	4408	-12032	1017	-6538	457	2056	2848	-13760	1435	-1672	-690	-9168	6328	10648	15	785	-379	-14008	4520	-120	552	681	61	-19200	-464	-3104	716	2869	657	134	115	1
-22388	-9144	27144	-657	-6478	-3556	-17960	656	-12400	897	-6946	308	1344	2088	-14456	2279	-1794	-382	-9432	7216	10544	-28	711	-461	-15056	3064	-488	376	1029	30	-23296	7896	-3672	1361	2341	796	130	109	1
-27528	-12504	26592	-296	-5856	-4312	-25816	-2760	-14624	1233	-7218	455	-688	-48	-11536	2461	-1723	-237	-9688	6416	10824	-109	694	-582	-16816	672	-1048	670	1164	-55	-19360	1576	2616	787	2000	688	130	105	1
-32768	-17032	27984	461	-4984	-5214	-29248	-7056	-20384	2293	-6951	1097	-4504	-688	-3368	2911	-1783	-603	-9232	6416	12048	-150	801	-656	-15872	1576	632	1148	1452	-73	-17552	-2136	5392	959	2116	538	122	104	1
-32768	-12256	23008	1400	-4898	-5635	-26592	-3064	-23120	2243	-6195	1458	-10216	1312	624	2983	-1980	-878	-9536	5640	12896	-163	1021	-718	-17512	1256	3224	1008	1824	-238	-16416	-3440	7608	1196	2389	399	117	105	1
-32768	-4704	-1132	1366	-4065	-4524	-23496	-10280	-26648	2254	-4843	985	-27248	7632	28896	2529	-3976	-186	-8784	4496	15920	-164	1490	-765	-19352	2216	4088	400	2280	-486	-22656	-6208	4096	898	1772	694	115	107	1
-32768	7632	-21040	373	-2201	-2839	-12704	-6888	-32768	2199	-2890	443	-27384	21432	25008	1993	-2930	-640	-8512	5136	18072	-117	2265	-886	-25544	88	2944	-436	2699	-814	-30512	200	5856	1153	1130	420	117	108	1
-32768	16572	-31192	-1437	-958	-1029	2136	-1344	-32768	-936	-360	-29	-18896	128	32767	22	154	575	-7912	8200	18728	-87	3204	-1145	-27064	608	4024	-660	3073	-1038	-29384	7392	8696	462	684	-70	113	103	1
-32768	16756	-28624	-1961	103	1526	440	-10008	-32768	-3104	2007	-1143	-20368	10952	9848	-1256	1962	245	-6712	12680	17856	2	4195	-1806	-27760	2920	7232	-564	3490	-1087	-32768	2096	12552	-170	-409	-481	110	102	1
-32768	1516	-14488	-2078	809	3014	-6408	-14536	-32768	-2199	3537	-810	-10880	4704	-8136	-3848	2803	-39	-5208	16840	17080	134	5309	-3224	-29952	-1808	9672	-20	3851	-822	-27112	-3336	19288	-369	-1398	-759	70	52	1
-20748	-32768	27752	3384	2761	2530	-24896	1856	29600	-2170	2728	-964	26672	-7768	-32768	-7483	6478	996	-8344	15456	19992	180	6896	-4907	-32768	-4376	5208	1335	3928	-377	-23088	-12016	32767	-1565	-5549	-284	82	53	1
10568	32767	-5456	4912	7986	5789	-32768	-32768	-24384	6080	2026	-1584	-32768	-32768	32767	313	-1293	-2026	-32768	14896	19152	-106	8495	-5813	-32768	3560	-2504	2548	4049	-487	-14816	-18192	9912	2464	-546	-371	0	0	1
-32768	-32768	21604	2226	1468	2631	-20280	21104	-32768	5708	4899	2035	-32768	32767	6792	6148	1297	-1256	-32768	23552	31664	1248	8170	-5495	-32768	18512	1976	2231	4490	-1074	-32768	12624	-17304	7052	-1782	-359	23	8	1
-8620	23636	29212	350	728	501	-29792	20264	-21200	-331	2305	-1210	-12568	23968	-23416	2065	2011	719	-32768	32767	32767	-149	5602	-5897	-32768	13216	-5968	236	3609	-718	-32768	19224	-23440	5542	-1979	-71	125	95	1
-6444	-3548	13684	-75	446	58	1440	-1160	-14384	-1296	2587	-907	9104	14896	-20832	-1055	332	1342	-32768	20040	32767	-510	355	-3620	-21168	3192	-20608	-2144	2783	-179	-32768	8960	-14312	-485	-3858	825	164	193	1
-7904	-2444	14876	60	161	25	-4008	-5224	-19256	-2861	2234	-1187	-19184	-3736	-23944	-3722	1457	-34	11424	32767	26656	-287	-4348	640	-24872	3672	3152	84	919	-1266	-32768	840	-13784	-2727	-3760	604	181	184	1
-6976	-7148	13300	-98	145	-45	-32768	-14200	-13872	-2887	1260	-1628	-25976	-23392	-20704	-2131	2646	-1321	15224	19744	14200	-498	-4124	1343	-15976	192	-544	417	-1085	-77	-31312	-11352	-16312	-679	-2920	929	189	183	1
-7804	-6328	14096	-160	214	-9	-12176	-13848	-9448	161	679	-124	-24704	-11704	-13064	801	2346	1368	8064	20736	14632	160	-4264	2386	-6736	560	-4776	120	-2368	114	-24000	-2744	-18552	569	-3262	905	171	177	1
-7628	-4504	14720	-196	249	-29	-13872	-1040	-7928	1157	773	141	-16008	10968	-3728	1544	2591	598	208	15608	13600	162	-4951	3329	-6488	1584	-5472	235	-3675	350	-15864	2752	-17152	-95	-2933	352	168	166	1
-7092	-4856	14332	-268	374	3	-21400	1864	-4104	53	558	-69	-14160	1928	-936	424	2853	-22	-4656	11720	12456	685	-5499	4006	-7464	1968	-6960	68	-4565	782	-10344	3704	-18592	-1005	-2920	137	147	141	1
-7148	-5616	14252	-309	503	61	-16136	-1832	-2808	-1041	336	-316	-17728	48	-1648	288	2708	102	-7464	9048	11760	1186	-5918	4064	-8224	-328	-7032	-39	-5361	1018	-7776	464	-17488	-1571	-2538	346	134	125	1
-7188	-5624	14168	-308	526	76	-15088	-6456	-2536	-1218	393	-318	-17512	4304	-64	-392	2307	180	-11512	8048	13304	1916	-6015	3724	-9368	-1456	-7600	280	-5884	1447	-3656	-1016	-15928	-2083	-2002	256	143	122	1
-7632	-5964	13696	-317	639	250	-17032	-5904	-1888	-702	497	-143	-14968	-896	384	-1251	1851	573	-16048	10624	16992	2286	-6053	3276	-12784	-2176	-10104	215	-6375	1912	-712	-896	-16032	-2514	-1752	-30	135	123	1
-8020	-6204	13176	-234	716	339	-15040	-4192	-2712	-399	619	-237	-10440	-5496	5208	-603	1744	437	-22312	13712	20288	2571	-5895	3388	-14984	-2648	-11816	408	-6523	2067	2808	-2088	-15344	-2404	-1433	-288	125	119	1
-9180	-5192	12356	-250	679	270	-13136	-3296	-3368	-566	717	-79	-15072	-3920	424	-457	3281	237	-25272	18000	22920	2579	-5418	4155	-22040	320	-15768	85	-6701	2174	280	-1336	-10680	-1296	-1694	-321	131	124	1
-8176	-6736	12504	-227	628	342	-14544	-3184	-2040	-772	817	-128	-20232	3216	-3248	-1375	2695	917	-32768	24128	25536	2142	-4756	5100	-30360	-1280	-20064	-727	-6945	2341	-2240	-824	-7496	-616	-1781	-85	134	138	1
-8080	-7236	13084	-199	690	538	-16936	-2616	528	-1364	963	-318	-22392	3848	5128	-1071	1404	264	-32768	17096	18728	2104	-4381	5699	-21368	3256	-19552	-1931	-6407	2194	-3232	1416	-5160	-868	-1173	2	150	144	1
-9164	-5628	13036	-163	821	608	-15160	-4240	1024	-1669	1320	-272	-14560	-2584	10312	-1661	2033	-328	-32768	944	18152	2144	-2915	6402	-24816	-2640	-25832	-2933	-5606	1452	-12952	3200	1976	-1253	-1382	274	139	142	1
-9164	-5968	13352	-153	1090	643	-14888	-4896	3000	-1238	1769	-118	-17016	-2272	11008	-1905	2542	-232	-32768	-7816	1104	328	-1991	5544	-22632	-2896	-28832	-1434	-4290	754	-32768	5656	24160	-1617	-4434	1086	121	121	1
-8476	-5724	15880	-165	1665	690	-18768	-4680	4936	-460	2383	23	-22504	-5088	12736	-1276	1745	247	-32768	-28280	-17416	431	-1077	2586	-576	2448	-32768	-2259	-2343	515	-31728	-25648	13320	-970	-1985	1275	96	84	1
-7860	-6440	17120	-231	2477	927	-22032	-2376	4072	85	2998	57	-29248	-5000	14120	-675	1006	330	-32768	-21016	-16832	1074	56	933	2248	-6776	-32768	-1643	615	313	-4896	-1144	29088	-1397	568	298	60	50	1
-7876	-6300	18968	-308	3543	1234	-25032	-664	3696	75	3501	-55	-26432	-4344	15568	-177	154	129	-32768	-16920	-14840	241	1271	-265	-5984	-1808	-32768	815	3035	414	-19424	-10544	2432	-1129	2097	-150	50	43	1
-5704	-9424	20080	-460	4895	1873	-30720	264	6192	-9	3953	-253	-26608	-1640	23784	318	-996	121	-32768	-1240	-6128	-3987	3525	-1398	-16568	5888	-12952	364	3792	85	-11680	-4696	-19336	-728	3694	-108	71	68	1
-2200	-12416	22020	-811	6527	3124	-32768	3024	7320	-713	4210	-751	-25488	-1544	32767	1628	-4046	334	9768	-25672	31904	-3374	7158	-2864	-32768	-3680	26232	-2285	1744	-1320	6192	2656	-32768	1215	4985	113	131	136	1
-8424	-11468	25888	-1615	8999	4499	-32768	2880	8952	-948	4195	-743	-20488	18224	1632	-2262	-2023	1352	-32768	22944	28464	-1456	3704	-3157	-11936	-32768	-32768	-7981	3315	-717	-32768	-28720	-12984	-8022	1265	-590	140	206	1
-32768	-14184	23208	-3038	10888	4538	-32768	-2792	-8256	-3404	4132	-472	-32768	-4216	-6200	-3809	-669	830	-21560	-16776	32767	-1872	1634	-1286	-16592	8936	-27472	-1294	3455	-710	-21936	-31320	-21160	968	518	19	169	191	1
-32768	-32768	32767	-3968	9464	4701	-32768	-22816	-6264	-3405	3406	-264	-31784	-2672	-17400	-3787	-2385	777	-11424	20456	7400	-427	983	-637	-13928	-19616	-19656	-500	2356	1142	8128	5952	-26960	3925	1255	-230	151	159	1
-30008	-32768	32767	-1460	5124	4617	-21912	-20768	-21400	1321	2734	-1010	-32768	5640	-4496	-1040	-2855	-1231	-8592	9576	11712	-217	622	-463	-18512	2408	-17328	2857	2407	412	-18424	30896	-21424	2169	2125	427	134	123	1
-32768	-32768	32767	-446	-3366	585	-19304	-1224	-11776	855	1629	-175	-32768	-1760	-12376	233	-2281	-1536	-9448	7896	12400	-159	495	-316	-20584	11752	-13608	1510	1439	505	-31072	12632	-20472	-1040	2487	1667	124	134	1
15084	-21720	21388	677	-5627	-976	-13256	-904	800	-285	-853	334	-32768	8288	-17280	445	-2488	-1568	-8520	5688	13624	-18	450	-251	-15944	4608	-11792	-1594	717	-237	-20496	1312	-13144	-1344	2635	-656	97	128	1
17192	-11476	13052	64	-4965	-1579	-10120	312	-1216	258	-2420	-489	-22704	8400	-16072	-481	-3101	-1317	-7536	6736	13584	93	532	-217	-21424	-8776	-9504	-1365	254	-128	-17424	-3992	-7528	-1377	2627	-174	127	114	1
6476	-11052	14816	-925	-4917	-2431	-3376	3056	-3832	95	-3578	-173	-17864	4440	-15832	-314	-3348	-1078	-7584	6472	13104	146	660	-243	-20008	-2376	-6440	1319	234	428	-13576	-1200	-5424	-680	3253	901	124	92	1
-3268	-11304	14992	-970	-5285	-3017	-5880	-792	-4320	-77	-4404	-252	-4760	6568	-13760	-173	-3143	-924	-7544	8264	12472	164	783	-301	-17712	2616	-1768	1826	239	299	-15800	-4872	-3296	258	3681	436	110	83	1
-6772	-7692	14676	-660	-5746	-3345	-4864	1248	-5040	139	-5163	-341	-1344	4248	-12792	-139	-2491	-1039	-7312	6896	12640	23	810	-394	-17128	5200	-568	1144	274	296	-17376	-5528	2824	1240	3053	740	110	89	1
-9272	-3864	15604	-900	-5999	-3585	-6896	-152	-5848	368	-5725	-307	-3072	2872	-14496	-384	-2207	-1089	-8120	6600	12256	24	920	-505	-17080	-616	520	598	348	140	-14464	-3448	7760	825	2424	858	114	101	1
-10984	-4572	17884	-1168	-6053	-3516	-10160	632	-7344	841	-6204	-437	-400	2528	-13352	167	-1839	-784	-9040	5808	11256	31	955	-491	-16032	8	-512	629	679	66	-9960	-1912	4336	142	2278	874	117	96	1
-16312	-7048	21968	-1158	-6076	-3341	-13624	1424	-9904	705	-6575	-182	1832	2280	-12944	794	-1667	-584	-9736	6688	9528	20	848	-454	-10664	3464	-704	586	888	-15	-17672	-2080	-1408	1091	2570	741	121	108	1
-22096	-8912	25748	-1057	-6111	-3510	-16952	-504	-12104	756	-6959	-178	1216	1136	-14160	1745	-1737	-310	-9240	8984	9720	-113	693	-550	-13976	4816	-1728	143	1100	-36	-19528	3928	-1496	1601	2512	814	123	113	1
-28528	-12748	27964	-836	-5886	-4105	-21728	-2704	-14016	1222	-7123	-82	-1360	424	-10976	1825	-1884	-151	-9496	6624	10600	-202	668	-697	-18016	584	-1432	601	1306	3	-18000	2408	1120	1103	2539	721	125	110	1
-32768	-15632	28180	-50	-5381	-4946	-30840	-4672	-19088	1681	-7001	298	-5664	-1808	-2536	1551	-1929	-552	-10216	6384	10800	-201	804	-757	-16424	-16	672	1246	1507	-49	-18552	40	1880	1165	2380	660	122	113	1
-32768	-8376	22600	603	-4519	-5530	-26872	-3952	-23480	1815	-6298	913	-10344	-2848	2920	1879	-1975	-1093	-9944	5424	12328	-227	1001	-736	-14744	3064	2144	915	1884	-210	-15800	928	4824	1049	2019	384	120	113	1
-32768	-2048	4588	827	-3932	-4785	-23104	-4120	-26296	1611	-4784	719	-21872	4568	14864	1410	-2487	-772	-9112	5312	15376	-192	1419	-743	-19352	2328	952	-30	2251	-546	-20120	-3384	3776	657	1563	564	114	113	1
-32768	9616	-18004	276	-2656	-2724	-12472	-6416	-32768	1782	-3119	252	-32768	11936	21712	1465	-3940	-1228	-8600	7184	16944	-143	2121	-954	-25840	-960	664	-383	2581	-679	-29984	-1624	4888	730	1368	360	108	110	1
-32768	16128	-28500	-1116	-1068	-1172	176	-1336	-32768	107	-836	46	-3992	-5496	32767	438	-96	845	-8336	9032	17456	-121	2944	-1273	-25976	1176	3312	-158	2940	-767	-28528	4872	7216	507	839	-12	117	109	1
-32768	13832	-29496	-1390	93	530	-224	-5392	-32768	-2025	1459	-800	-17488	8048	10928	321	2087	-66	-7216	11776	17600	-114	3842	-1918	-26400	4600	5304	-289	3377	-877	-30416	864	13240	41	-161	46	119	106	1
-32768	7452	-16912	-1899	1235	1373	-6120	-12224	-32768	-1018	3250	-441	-16384	6064	3400	-1811	2862	-176	-6064	15304	16520	-41	4880	-3143	-28328	536	9096	-232	3783	-780	-27624	-2048	18856	-375	-1000	-142	74	63	1
30400	-14092	32767	3613	4512	2484	-32768	3648	32767	-285	2020	-442	12200	-792	-32768	-5015	5055	528	-7400	14808	21648	65	6439	-4693	-32768	-2528	7800	949	3889	-392	-26768	-3072	21696	-298	-1261	-220	76	62	1
-32768	32767	32767	2269	6442	3823	-19256	-12008	-32768	8996	3019	-1220	-32768	-32768	-1552	1062	-115	-1803	-32768	19584	20120	-443	8206	-5735	-32768	6072	40	1949	4125	-432	-27440	-16336	16392	-1636	-1317	-752	0	0	1
-32768	-25988	5988	1937	1615	1783	-7984	5432	-32344	34	4898	1003	-20248	32624	-23136	3936	1648	-485	-32768	13256	32767	1036	8141	-5438	-32768	8312	-6056	1209	4799	-771	-25624	3296	-7400	4939	-1867	-664	13	6	1
-18772	11944	23300	577	467	720	-27536	4088	-23152	284	3180	-1488	-8504	16272	-24072	292	1265	-108	-32768	32767	32767	662	6644	-5830	-32768	13712	-4184	745	3904	-458	-32768	10512	-26408	4710	-2353	-3	55	52	1
-9404	-2960	15256	245	206	166	-4120	-2080	-18360	-894	2347	-613	-2296	7328	-20424	-1043	1296	1594	-29480	31936	32767	-695	2078	-4181	-24360	2768	-20648	-1287	2955	169	-32768	2288	-12944	1201	-4087	1015	162	171	1
-7628	-2024	15208	-15	114	12	-17080	-2472	-16712	-2118	1967	-878	-26136	-6440	-20792	-962	2111	-229	2864	32767	32767	251	-2946	473	-22984	-3800	-1272	317	1754	-902	-32768	-1536	-13600	-843	-3516	792	190	189	1
-7236	-5672	13720	-105	137	-45	-19304	-4624	-16840	-2216	1806	-903	-20392	-8720	-14504	-373	2400	-144	15368	21992	19536	450	-3891	1894	-14824	-112	-200	1180	-622	11	-30952	-6928	-17992	60	-3055	563	182	180	1
-7288	-5224	14352	-148	203	-21	-15744	-10160	-9760	806	867	-177	-21440	-5232	-10864	966	2510	755	13368	19896	15416	722	-4364	2550	-7568	1864	-112	1017	-1989	613	-22632	-4504	-18032	274	-3121	886	166	179	1
-7772	-5104	14100	-155	231	-31	-15528	136	-7176	705	698	136	-15456	3144	-4232	1143	2588	411	12832	19136	14824	713	-4412	2631	-5272	3296	-1776	561	-3343	869	-18592	456	-18016	98	-3163	388	165	162	1
-7020	-6292	13552	-183	291	13	-19152	-1360	-4104	-490	548	-67	-15208	-448	-2040	742	2754	199	-2080	11664	14272	1146	-5467	3780	-6592	1376	-5320	-449	-4406	1272	-10392	1184	-18680	-540	-3060	270	149	146	1
-7164	-6112	13864	-130	353	99	-16168	-3096	-2600	-1087	326	-253	-17576	3024	-2648	318	2631	185	-2368	7824	12536	1458	-5836	4098	-8144	-1928	-4528	-506	-5164	1337	-6064	304	-17472	-857	-2749	342	144	125	1
-7620	-5712	13952	-89	420	177	-15448	-7096	-2592	-956	378	-164	-17816	4040	1344	-408	2311	302	-8552	6800	14664	1909	-5802	3947	-8920	-2568	-6816	-126	-5862	1489	-2624	872	-17176	-970	-1999	477	139	131	1
-7604	-5348	13780	-68	462	262	-17760	-2880	-2496	-353	464	-46	-11984	1360	888	-1159	2130	547	-13880	7920	19960	2131	-6045	3691	-11136	-4360	-10728	-169	-6473	1870	-80	-760	-16320	-1666	-1488	337	136	129	1
-8020	-4548	13788	-150	528	324	-15520	-1280	-1584	-418	537	-136	-11256	-1024	5648	-823	1863	507	-18896	9040	23880	2510	-6012	3638	-15416	-8720	-11912	405	-6724	1954	4168	-624	-15656	-2435	-1109	-73	134	127	1
-8184	-4608	13620	-118	627	356	-14632	-3376	-1880	-693	671	-178	-15136	-2544	4512	-609	2945	419	-26160	12768	26984	2688	-5785	3770	-19280	-3912	-12416	1212	-6845	2049	2464	-264	-13576	-1775	-990	-398	135	127	1
-8688	-6336	12600	-108	606	417	-14712	-3232	-808	-857	842	-145	-21376	16	-1064	-1548	2739	838	-32432	19960	30928	2307	-5503	4167	-32080	1912	-18688	590	-7109	2594	-2440	120	-6792	-946	-1615	-278	153	151	1
-8332	-6524	13072	-110	606	496	-14032	-2496	1064	-1118	1135	-199	-21608	584	-792	-1541	2518	900	-32768	12352	25272	2302	-4811	4541	-29048	40	-17808	-1208	-6779	2282	-6920	864	-3136	-862	-1485	-16	150	150	1
-8684	-5808	13408	-89	764	537	-16288	-4680	344	-1060	1486	-132	-17616	-3752	9760	-936	1677	-246	-32768	5872	20400	1996	-3381	5421	-23976	-3128	-23832	-2635	-5877	1430	-11608	3632	4448	-910	-1550	288	139	143	1
-9148	-6004	13624	-58	995	634	-17032	-2856	1216	-1003	1827	-64	-15776	-1944	9592	-1470	2433	68	-32768	-4944	2528	-385	-2285	5615	-24952	-2120	-28744	-2307	-4233	405	-32768	4672	22304	-1598	-3917	949	123	127	1
-8772	-4584	15328	-54	1438	660	-17320	-2584	3680	-846	2310	4	-18616	-608	12032	-1057	2076	208	-32768	-25104	-18872	-256	-816	3950	-3072	1040	-32768	-3658	-2597	-20	-32288	-24152	18992	-1425	-2447	1435	97	97	1
-7988	-5120	17052	-90	2165	833	-20152	-2392	4520	-29	2952	57	-28296	-2264	15728	-661	1166	227	-32768	-23552	-18040	631	435	1767	4976	-3688	-32768	-2356	290	12	-6872	1832	31056	-1753	382	-477	70	60	1
-8116	-5136	18780	-88	3146	1057	-22824	-928	3640	516	3561	33	-26440	-6088	17080	-48	461	455	-32768	-16088	-15560	391	661	1438	-6408	-4200	-32768	356	2802	373	-19800	-7792	13168	-2269	1212	-531	66	55	1
-6684	-8984	20308	-173	4419	1547	-28992	-1920	5056	392	4073	-62	-25016	-6704	23200	631	-898	331	1344	26528	32767	-3227	6562	-3221	-32768	11384	32767	3580	4695	-770	-32768	-13096	8872	-1339	-315	270	73	66	1
-2500	-14204	25360	-379	6214	2832	-32768	-5072	4560	-150	4270	-289	-30280	-11576	32767	296	-2840	404	-25936	7496	31032	-1158	3446	-2520	-22664	-19080	-17152	-4813	4241	767	-8360	-4864	-22904	-644	1806	-66	152	162	1
-4420	-21212	26276	-988	8687	4883	-32768	3336	13448	-2074	4053	-432	-27592	15456	-6712	-397	-1612	1386	-14776	5744	5184	-1042	3932	-2082	6280	616	-23832	-1238	4141	-2034	-10352	1208	-32768	224	110	355	140	188	1
-32768	-5156	23908	-2410	10319	5365	-30552	136	-8192	-3950	4371	-737	-32768	9040	-6640	-1958	-1027	550	-17248	680	17096	-1422	1250	-1302	-944	4544	-27312	-2053	2513	615	3488	-3776	-21544	121	422	198	165	173	1
-32768	-32768	30468	-3188	8953	4896	-32768	-18576	-8240	-4012	3520	-181	-25656	3520	-17984	-4137	-2136	279	-17624	1456	17912	-647	682	-738	-32768	-23888	-31048	-285	2688	659	-32768	19264	-24992	-383	2324	618	159	159	1
-24804	-32768	32767	-21	4548	5422	-20872	-26552	-23192	1327	2806	-932	-32768	6720	-6096	-1920	-2496	-961	-9408	6704	13800	-130	488	-345	-19152	8496	-11672	3039	1917	141	-26592	-2680	-13864	-259	2024	885	144	156	1
-32768	-32768	32767	-385	-3407	187	-26872	8944	-688	774	1653	-369	-32768	-3192	-9072	-693	-1813	-1021	-8616	4544	14056	168	533	-237	-10832	3656	-13552	-68	1121	348	-17552	2544	-12440	-102	2166	-272	109	137	1
23404	-23756	17752	199	-3688	-1162	-13768	-696	3952	-514	-658	78	-32768	5400	-15224	419	-2536	-1660	-8768	7264	12136	228	561	-143	-18776	5248	-11312	-1335	502	-102	-13336	7088	-9184	-434	2470	-139	88	120	1
18120	-13504	15916	-295	-2894	-2027	-8664	-1024	136	464	-2123	-640	-21832	11312	-13024	-222	-2916	-1529	-7440	8360	12568	95	590	-175	-21024	-2648	-6120	-622	245	17	-19160	6832	-6448	-1362	2774	84	132	119	1
5632	-13292	18580	-1119	-3332	-2798	-5408	1128	-2936	235	-3120	-439	-17728	8160	-13976	-771	-3461	-1190	-8200	8264	11952	75	649	-289	-18368	1240	-5424	1020	295	196	-20088	-2064	-4912	-995	2673	585	126	93	1
-2400	-11284	18272	-853	-4180	-3208	-6800	-1144	-4120	377	-4136	-641	-8008	5928	-13368	-979	-3227	-1165	-8400	6904	12064	11	677	-342	-16032	3248	-3680	1171	191	194	-13040	-3736	-3616	211	3053	847	115	87	1
-5392	-6120	16928	-657	-5045	-3465	-5528	2008	-4248	362	-4886	-578	-3008	1952	-13424	-668	-2431	-1099	-8048	6904	12464	8	707	-361	-16976	1320	-2792	717	208	195	-14632	-4984	-424	1508	3530	794	110	86	1
-6812	-1372	15572	-1191	-5367	-3586	-6752	72	-4776	538	-5459	-431	-3384	1480	-13800	-627	-2371	-1122	-8864	6168	12056	30	792	-431	-18288	-1888	-2824	839	189	145	-13336	-6552	5616	1087	3084	593	112	81	1
-10304	-6416	16320	-1103	-5416	-3420	-8600	96	-7224	1557	-6088	-737	-1152	664	-13584	345	-1877	-908	-9400	3880	11312	77	777	-403	-14528	-1848	-1344	1217	437	159	-11104	-3112	2432	-390	2676	310	113	92	1
-15112	-7040	21048	-869	-5464	-3281	-11464	1304	-9064	888	-6127	-60	2656	1496	-13336	768	-1758	-623	-10216	5112	9480	83	672	-316	-11648	4016	-64	772	652	88	-15952	1256	-3968	546	2614	448	115	97	1
-20236	-8660	23824	-977	-5707	-3562	-13680	-384	-11288	941	-6607	11	2208	128	-14552	1714	-1690	-507	-9680	7832	9544	-34	549	-334	-13704	5440	-1128	-61	911	-40	-18800	6360	-1616	1341	2273	793	113	103	1
-26932	-12936	26948	-891	-5841	-4011	-19456	-2000	-13192	1102	-6991	-50	-704	704	-13336	2336	-1692	-384	-10120	7768	9736	-143	424	-477	-16624	896	-2712	246	1051	-83	-18384	-496	1536	608	2277	703	115	106	1
-32768	-16108	28436	-260	-5783	-4735	-31176	-3320	-17232	1355	-7037	115	-4776	1192	-5136	1923	-1712	-497	-10016	6264	11088	-221	453	-577	-16200	264	-1240	1163	1307	14	-17528	-776	2720	1051	2537	572	113	102	1
-32768	-10120	25064	518	-5118	-5380	-28360	-5128	-21328	1335	-6557	763	-10104	-4360	2160	1573	-1749	-971	-10008	4832	12648	-195	653	-585	-16944	2016	2600	1303	1610	-85	-17704	1328	5768	1329	2282	434	112	101	1
-32768	-5196	10404	830	-4228	-4880	-21936	-10104	-24376	1899	-5201	1561	-16096	-2976	4416	1133	-1673	-1177	-8992	6120	14608	-157	1049	-603	-18056	4096	3680	462	2056	-463	-21912	-3592	5376	790	1766	645	112	109	1
-32768	-2448	-14296	891	-3253	-3042	-14432	-8720	-31024	2252	-3607	98	-32768	8336	29456	2133	-4659	-1375	-8896	6520	16744	-91	1726	-802	-24392	496	1232	-402	2450	-697	-28928	-4400	3400	909	1503	488	123	118	1
-32768	16716	-27920	-900	-1348	-2218	-4320	-888	-32768	1511	-1564	122	-3680	264	26904	783	-1049	-304	-8632	7384	17616	-32	2591	-1075	-27056	-1432	1432	-173	2790	-741	-28872	4408	4424	826	1075	45	122	118	1
-32768	16416	-28696	-1195	113	-800	-640	720	-32768	-1565	973	-668	-12688	10312	19632	170	1748	57	-7600	10400	17888	24	3489	-1510	-26200	3816	4752	-9	3215	-897	-30176	3032	9736	204	116	43	111	105	1
-32768	17424	-19696	-1635	1040	1247	-3904	-8816	-32768	-1671	3053	-571	-17960	1016	1760	-1163	2183	77	-4728	14520	16160	110	4385	-2420	-28368	3008	7568	-211	3597	-957	-30528	-2176	15688	-161	-999	-299	97	90	1
-32768	4512	4648	3185	3501	2509	-17504	-3664	8320	-1463	3564	-1092	10088	14536	-27200	-2348	6657	-492	-4216	16960	19000	169	5697	-3945	-32528	-3040	10784	443	3896	-605	-25920	-4824	27144	214	-1890	-392	82	68	1
5012	27332	7508	3616	6705	4581	-32768	-32768	7480	4396	1945	-898	-32768	-32768	32767	-647	821	164	-23960	11280	22816	64	7727	-5194	-32768	-816	19976	2372	4045	-420	-26592	-13840	30040	-1441	-3131	-541	60	55	1
-32768	-14596	32767	1317	4417	3504	-2688	19832	-31616	7809	3824	1593	-28656	96	-1280	5403	71	-568	-32768	6080	24856	493	8409	-5562	-32768	704	-5280	1352	4447	-413	-18056	464	2856	4103	-1108	-703	0	0	1
-32352	-5960	20116	2456	1808	1362	-27576	-20720	-25904	554	3925	-608	-26192	29360	-14800	3867	2471	-1755	-32768	32767	29224	1080	8011	-5584	-32768	19648	-1744	1455	4329	-1118	-32768	13368	-23040	5370	-2173	-312	35	19	1
-12804	-11384	12568	292	503	491	-12584	14840	-16000	-64	2807	-782	-5776	17000	-21736	-680	768	519	-20208	32767	32767	-538	4536	-5414	-32584	10008	-7904	-613	3234	-359	-31928	8904	-17376	2662	-3051	772	84	74	1
-12532	-1960	15304	317	182	290	-7592	-2064	-19840	-1781	2300	-880	-17200	1024	-19768	-1261	1540	615	-32768	32767	32767	55	-1241	-1192	-19760	-4000	-19408	-1445	2844	-468	-32768	5464	-11672	-1222	-3823	841	196	204	1
-8900	-4864	13464	75	116	61	-18088	-5984	-14264	-3038	1645	-1137	-17224	-6696	-14968	-1282	1922	-576	12416	28296	24848	23	-3969	787	-18384	840	2200	980	388	-765	-32768	-5200	-15952	-1308	-3179	425	198	213	1
-7696	-4812	13464	46	157	40	-21744	-15944	-9216	-1023	949	-684	-20272	-11248	-12528	-6	2339	215	14784	20376	16712	287	-4317	1307	-11512	208	320	1086	-1322	303	-25960	-6280	-17224	-355	-3374	532	195	199	1
-8752	-5000	14156	-112	276	28	-15576	-4960	-9056	1380	957	-36	-22344	2920	-8136	1206	2428	632	8080	19504	14600	397	-4825	1941	-5728	1168	-3136	939	-2715	481	-24184	-2672	-16968	312	-3364	504	163	193	1
-8448	-4276	13944	-217	306	-16	-16800	1848	-5960	174	796	4	-14944	3448	-2000	713	2498	274	920	13728	13104	777	-5404	2743	-5800	1704	-4392	562	-3868	856	-13528	1288	-17632	-322	-3213	156	186	166	1
-8168	-6104	13416	-231	360	42	-16824	-2920	-3296	-867	535	-310	-14360	1232	-1944	85	2621	51	-3456	12456	11064	1400	-5810	3531	-7144	320	-5840	186	-4721	1206	-8528	-48	-18424	-903	-2872	188	162	157	1
-8308	-6092	13176	-142	413	117	-14272	-4848	-3704	-1246	468	-373	-17576	984	-2352	-525	2485	262	-7800	11592	12352	1662	-5946	4000	-7472	-456	-8128	-28	-5468	1437	-4432	200	-17256	-1174	-2214	298	159	147	1
-8472	-5752	12832	-108	427	159	-15792	-7912	-3208	-735	572	-207	-15456	304	-1232	-849	2287	315	-12048	9224	16456	1903	-6017	4238	-9728	264	-8432	-82	-6188	1736	-2288	1696	-16064	-1182	-1692	243	149	140	1
-8572	-5496	13324	-85	469	239	-17896	-3744	-3160	-24	582	-87	-12096	-1896	-1496	-902	2034	551	-18776	9616	21248	2380	-6047	4161	-14448	-4072	-11760	-307	-6731	1911	800	1824	-15296	-2089	-1289	122	139	133	1
-8956	-4840	13316	-134	525	296	-14536	-1464	-4480	-354	589	-100	-14216	-1136	1344	-703	2189	379	-24568	8184	24872	2752	-6024	3891	-19088	-5952	-12184	199	-6823	1941	1592	400	-14512	-2710	-1245	-210	136	129	1
-9536	-4444	12584	-158	570	265	-14672	-1960	-4840	-875	676	-173	-17072	-144	1352	-817	3004	484	-30240	15104	25792	2789	-5627	3953	-23192	-1408	-15064	708	-6802	2053	-1880	304	-8912	-1692	-1590	-247	139	130	1
-9144	-5556	12536	-206	599	319	-15720	-2912	-2880	-1112	754	-205	-15168	2304	-912	-1404	2702	515	-32768	23088	26488	1891	-5148	4315	-32768	3448	-18368	-226	-6775	2406	-5304	-2880	-2088	-749	-2008	-40	155	150	1
-9308	-5840	12820	-237	710	402	-15560	-2392	104	-1420	959	-279	-19576	672	4704	-1021	1686	165	-32768	15696	16624	2049	-4481	4846	-24840	5328	-18760	-2232	-6158	2074	-7760	-336	-160	-528	-1679	49	145	147	1
-9688	-5848	12396	-212	827	456	-14856	-4072	2408	-1411	1333	-224	-22600	-6376	10008	-1317	1800	262	-32768	2712	12232	1955	-2549	6208	-21336	-1408	-26584	-3434	-5099	1137	-16848	3352	5936	-977	-1913	154	132	138	1
-9036	-5532	14108	-192	1145	505	-16800	-5496	4304	-803	1853	-55	-17088	-5128	12552	-1022	2162	195	-32768	-12440	-2176	-398	-1307	6108	-18704	-7624	-27944	-3286	-4705	774	-32768	512	19952	-1673	-3809	1102	103	99	1
-8516	-5592	16160	-182	1801	666	-21024	-3952	5024	-313	2452	45	-20080	-3712	14128	-916	2172	232	-32768	-27328	-16320	341	-538	2984	-1128	3160	-32768	-3129	-1818	175	-7296	-5600	24928	-904	-903	912	94	55	1
-8364	-5900	17152	-224	2662	959	-22192	-1408	5576	-70	3051	24	-29560	-2344	17136	-580	999	301	-32768	-23400	-14608	1133	115	779	3064	-10608	-32768	-1908	1025	312	-14240	-5904	19872	-2265	1549	426	53	46	1
-7552	-6196	19004	-361	3806	1299	-24088	-896	6032	33	3649	-57	-26664	-4080	19216	-199	-125	331	-32768	-15976	-10200	293	1281	-566	-3968	-1104	-32768	1236	3417	219	-21872	-9240	-2368	-664	1787	-211	67	63	1
-5308	-10012	19932	-650	5263	2057	-25728	-728	5440	18	3731	-75	-26960	-1120	29200	157	-1647	200	15136	-21192	32767	-3210	4335	-1880	-32768	1816	32767	2869	3677	-88	-20720	-7880	8480	324	1274	-219	99	95	1
-2224	-10268	26052	-1232	7142	3439	-32768	5568	17064	-1915	4117	-459	-28568	704	32767	2381	-542	288	-32768	-32768	32767	-2740	5414	-4408	-29736	-6136	-32768	-5578	2741	1155	-32768	19600	7784	-3295	-794	580	159	199	1
-21112	-11312	22984	-2066	9865	4731	-32768	-888	5824	-3553	3869	-498	-30016	21000	22496	-1525	-2483	1265	-29728	19240	12008	-1717	4141	-2061	-1856	-18856	-26872	-2583	4685	-2602	-32504	-32768	-22176	-4815	927	1370	130	219	1
-32768	-13804	31360	-3771	10187	4460	-32768	-11320	-1776	-4471	4395	-365	-32768	-4960	-20600	-4775	-1188	994	-21608	-10856	25640	-1001	1493	-1282	-20592	-7536	-27136	-2849	2243	747	-1136	-2160	-24800	2505	1104	232	169	179	1
-32768	-32768	32767	-2234	7969	5476	-32768	-27384	-7096	-1622	2773	-571	-32768	2168	-10704	-2926	-2808	22	-12472	5456	16680	-494	726	-526	-15728	-12848	-23072	1553	2376	677	-7608	11528	-21032	1823	1545	-304	154	156	1
-2564	-32768	32767	-558	1655	3886	-18496	-11200	-26200	2013	2309	-704	-32768	1320	-9640	-309	-2749	-1379	-7696	10648	11536	-138	559	-349	-24536	9304	-13744	3018	2175	298	-27552	19040	-17744	666	2294	1677	107	129	1
920	-32768	32767	-401	-5645	-527	-19056	3712	4296	-402	852	75	-32768	-1088	-13768	793	-2407	-1675	-9096	6672	13272	-90	465	-285	-13312	10720	-12280	-28	1115	147	-20488	9592	-14512	-616	2336	391	109	134	1
