#Activity	walking 
#ActivityID	1 
#Date 10-10-18-18
acc_rf_x	acc_rf_y	acc_rf_z	gyro_rf_x	gyro_rf_y	gyro_rf_z	acc_rs_x	acc_rs_y	acc_rs_z	gyro_rs_x	gyro_rs_y	gyro_rs_z	acc_rt_x	acc_rt_y	acc_rt_z	gyro_rt_x	gyro_rt_y	gyro_rt_z	acc_lf_x	acc_lf_y	acc_lf_z	gyro_lf_x	gyro_lf_y	gyro_lf_z	acc_ls_x	acc_ls_y	acc_ls_z	gyro_ls_x	gyro_ls_y	gyro_ls_z	acc_lt_x	acc_lt_y	acc_lt_z	gyro_lt_x	gyro_lt_y	gyro_lt_z	EMG_r	EMG_l	act
-32768	21864	-20748	6711	12822	7649	-8416	1748	-1512	-3168	12860	932	-18280	604	14116	6075	7056	7906	-9032	4360	14268	139	15904	-5558	-19052	1352	-872	10030	13417	-5342	-19660	3868	776	10811	898	494	68	132	1
-28384	-16064	24092	15833	12238	21718	-20288	-1716	6336	-10319	16742	2920	-18224	2916	-492	1907	12171	5879	-9384	4892	14080	538	21184	-6729	-20820	1892	-1992	8574	14445	-6161	-20616	4132	1012	10489	-844	549	87	127	1
-9996	-584	14656	6842	20132	14705	-32768	-11500	5808	2398	6584	-3543	-21776	5448	1372	-7581	12573	8503	-11540	4892	13968	560	28223	-8465	-23528	1036	-436	8194	15916	-6860	-22404	4148	2184	9480	-2916	-195	108	127	1
-17468	-3468	14240	9151	23947	18259	-18560	3184	5544	14675	11259	-1424	-13508	428	5204	-3071	4217	19	-11044	5360	14200	574	29404	-8888	-25628	0	1864	11242	16763	-6638	-23608	2344	5608	11420	-7405	-719	101	125	1
-23576	1140	10772	7456	17270	13448	-17908	2292	-7332	7487	17235	2366	-22224	-5096	5548	8552	6179	-5689	-14808	7116	14412	2555	32767	-15102	-28248	1088	3944	14862	16971	-6353	-26628	1252	11284	12118	-17050	609	98	129	1
-23940	2592	14324	8671	1566	9637	-29864	-372	-8900	3643	17797	-1549	-23644	9000	-5352	2808	14205	-2992	-23912	4544	16964	8511	32767	-18721	-29808	1212	584	17894	18422	-4451	-24252	-4716	10160	9407	-20865	256	127	125	1
-12072	-124	13432	4772	729	3720	-15944	4816	-9796	6039	17694	1367	-14680	7360	-14604	-16791	9600	3738	-28452	8676	16308	20807	32767	-17076	-26656	2240	1312	24350	19418	-3469	-22088	-5316	1872	12074	-21399	-742	159	120	1
-11392	-3960	10952	2900	142	1251	-13752	-2824	-5680	3033	14627	718	-7468	-5892	-7620	-11077	9422	1883	-32768	14288	21564	25350	32767	-23325	-20244	6152	-7176	23848	19929	-3439	-22504	-1596	-4464	15877	-20669	2234	175	117	1
-12012	-5028	10812	1974	1328	1166	-12424	-5760	-4988	6984	11219	-444	-11420	-13692	-9264	5906	9964	3073	-19576	9172	21748	32152	32193	-23301	-20404	1100	-10416	18108	18587	-2340	-24260	1836	-9360	19453	-20490	5097	169	114	1
-10144	-6272	10164	1919	168	2038	-13200	-4800	-3792	7022	9924	-421	-15088	-5572	-6844	17730	11015	2281	8736	21952	6152	32767	15965	-19909	-18600	-8788	-9104	12328	13567	1407	-24148	44	-10804	10500	-21158	7087	163	97	1
-10728	-4904	10744	2450	-1181	3094	-18588	-2412	-3372	7169	8961	-135	-16192	856	-4728	17242	9807	1796	-26924	32767	24284	10918	-11751	-2447	-9532	-8308	-16032	14447	8276	-560	-21992	-1368	-7132	2810	-22976	6609	159	111	1
-10684	-3652	11904	2240	-1369	2909	-18012	1276	-1020	4369	8375	314	-18008	4680	-208	12186	8542	1811	3248	14312	11968	-6250	-17678	-2577	-11784	68	-4272	25669	1809	5246	-21508	2340	-5052	3351	-23335	8223	155	129	1
-10648	-3048	12192	1345	-545	2114	-15536	1620	-1480	2117	8493	-558	-16408	3484	1004	6632	9137	3388	2304	-4144	11228	7882	-16003	1566	-7148	4232	-4504	14926	-2296	10482	-16312	2336	-6132	4893	-19350	9168	160	151	1
-10440	-3392	11792	447	295	1413	-17064	-940	-2292	1381	8119	-335	-15516	1888	-572	2085	11461	4319	-1480	7872	10356	18848	-16720	8307	-6700	-1136	-6364	-2534	-3429	12407	-17944	168	-5568	4859	-18442	6938	152	156	1
-11100	-3960	11172	64	541	1001	-16512	-2836	-3076	1926	7352	-116	-14736	1708	-2232	-2267	14175	4773	-5420	15364	12324	9691	-18547	11567	-8512	-4196	-6508	-8022	-8749	15243	-17708	-620	-4964	3115	-18388	6500	143	156	1
-10640	-4152	11020	161	383	899	-14900	-2224	-3456	1970	6726	-415	-13004	1484	-2792	-5211	17465	3522	-7280	7700	14884	2922	-22072	17454	-9968	-6268	-6848	-8237	-13626	17982	-14208	1244	-4772	1075	-17978	6192	142	145	1
-10860	-4056	11072	138	275	902	-15840	44	-3724	-1667	5861	-175	-15596	1856	-2260	-8087	20013	1379	-6924	1420	15404	7133	-24176	23957	-11176	-6436	-5188	-5157	-18119	19232	-14116	1976	-4324	-1970	-15686	5455	140	139	1
-10740	-3776	11268	-23	399	886	-16324	-76	-2784	-7450	5147	-496	-14936	-132	-5304	-8197	17424	219	-1084	11219	-444	-11420	-13692	-9264	5906	9964	3073	-19576	91720	20175	-12952	948	-4700	-5953	-13500	3954	141	144	1
-10376	-3720	11152	-126	489	959	-15820	-3020	-2040	-8253	5180	-487	-16796	-3256	-9056	15	10899	-367	-14088	-1084	18852	7466	-29059	24465	-9956	-4896	-6400	-8248	-25821	20434	-8820	468	-5256	-8156	-10392	2636	147	136	1
-11368	-4136	11184	42	171	1284	-14456	-4720	-3124	-3554	5374	-215	-16216	-6344	-5916	2455	8722	1339	-17276	-3152	19012	8495	-32768	21536	-11112	-4732	-7404	-10723	-29100	19672	-7520	52	-5168	-8640	-7307	1634	137	139	1
-9488	-4092	10956	148	-164	1314	-15332	-3532	-4144	680	5783	314	-14424	-4720	-4988	1364	11927	2715	-20288	-316	18288	9656	-32768	18275	-12796	-6744	-7432	-9084	-31534	19009	-7880	-996	-5228	-6687	-5016	1593	135	146	1
-11816	-4516	11036	386	-486	1455	-16504	-1136	-3084	-1123	5334	276	-14864	-1180	-5732	1350	12655	3956	-21516	4112	17640	8071	-32768	18112	-14036	-8840	-9076	-2856	-32768	18842	-7852	-2460	-6204	-2095	-2451	1510	127	149	1
-10772	-3412	11384	407	339	1715	-16116	-976	-2364	-3736	5115	273	-16236	528	-4680	2582	10162	4029	-22492	6228	18196	5259	-32768	20541	-16108	-6664	-8944	2853	-32768	19639	-8168	-2932	-5384	2277	1034	1382	130	150	1
-10724	-3212	11536	96	1045	1619	-15656	-720	-1220	-4681	5960	414	-15980	1352	-1700	1601	9425	3060	-28228	9940	20248	3307	-32768	24005	-18788	-2800	-10240	1678	-32768	20788	-8692	-2060	-2516	4385	3135	1652	126	168	1
-10700	-3440	11812	-393	1700	1515	-16292	-2156	-1376	-3091	7062	1030	-16712	2724	-680	-943	10200	1915	-32768	7340	18796	1319	-32768	27167	-19724	-64	-9616	-3830	-32768	20235	-10584	2188	-628	4371	2008	3102	122	159	1
-10740	-3152	11756	-1091	2917	1312	-16848	-1560	56	-2605	8169	1449	-17684	3472	-396	-2435	10095	-23	-32768	1888	11416	2630	-32768	25228	-20900	3352	-5792	-12234	-32768	17765	-15044	5584	3208	946	-555	5018	118	153	1
-11108	-5124	12456	-1020	3655	1994	-16224	-1052	-120	-5314	9425	1897	-17208	1084	-296	-6701	9156	-777	-32768	1064	1196	2085	-28909	21734	-20364	-6148	-5624	-21503	-28699	12926	-20392	7096	13736	-7198	-2152	8604	118	164	1
-10904	-4492	12952	-126	5697	2434	-16828	-1408	-368	-8660	10651	2339	-18308	-1696	-1692	-10015	7933	-546	-32768	-6408	-10748	-1300	-17144	20142	-18272	-8588	-5916	-16525	-18320	7531	-21404	5352	21440	-16245	3839	10608	123	245	1
-11600	-3940	12356	-40	7691	3226	-17436	-1112	336	-10828	11968	3287	-17824	-3428	-2548	-9249	5176	-232	-32768	-16792	-20828	2651	-5222	13292	-8172	-6692	-5064	2670	-8648	5673	-18784	84	25124	-15671	6070	3019	125	253	1
-13172	-3612	11744	904	9999	4417	-16504	-3608	-1436	-6463	13730	3794	-17328	-2692	-3820	-7718	3233	1327	-32768	-5820	-18792	-3561	10105	7680	-4236	5912	-5016	5334	5930	-2	-20644	-4140	21968	-5630	1501	-7612	128	199	1
-11272	-3936	13896	2171	12285	6037	-17548	-2816	-4568	-1992	15047	4409	-17224	-2828	-5408	-5724	1325	2469	11472	-21676	-5188	-20372	22764	-12142	-10716	4684	-11668	-6966	19132	-7154	-17088	2396	11972	568	2279	-6901	131	147	1
-11040	-5144	13192	3217	16003	8186	-19604	-1072	-6068	-1241	15560	5182	-17720	-4068	-5244	-4216	-450	3423	-10900	6816	32767	-9163	18114	-12216	-32768	8532	21628	-3915	9855	-3924	-22348	3384	1852	5261	12460	-5165	132	107	1
-10980	-5824	14220	4810	20805	10698	-20684	-3188	-4052	-3691	15874	5767	-20904	-5428	-4088	-1403	-2499	4174	-6596	-6044	24484	-8067	18531	-11639	-19780	-10988	1144	-14269	10997	-1056	-15060	-3512	4524	2665	4945	2372	137	69	1
-12744	-7368	13016	6353	28061	16603	-23964	-1856	-1812	-3642	16122	5776	-23220	-2360	708	-739	-8702	4992	-20320	-4724	19836	5640	25906	-7868	-19880	-17124	-156	-2963	16530	-12436	-20776	-4200	7812	-12278	2504	1913	135	42	1
-32768	-7660	11900	-1055	21455	20640	-14068	116	-18656	4988	6694	1273	-19576	4936	-8500	8092	-16827	-6215	-9416	5644	13216	-1992	1010	-2992	-19260	5596	-452	6158	6940	-2904	-18900	-4344	60	-2156	9610	-3092	132	92	1
-22976	-20808	15300	-6397	-7344	-8295	-11128	6672	-15808	-3884	6351	-580	-20892	5032	-6784	4267	-18321	-7816	-10504	4620	13052	-1024	1474	-2475	-15208	4920	-2300	-7364	8590	-2862	-15236	-160	452	3391	10143	-2245	127	103	1
-7576	-16824	11148	759	-18211	-16356	-10444	3144	-6448	-14978	-1364	-2176	-18960	2632	-7056	-3490	-17295	-9365	-10460	4160	13024	-281	1879	-1749	-16444	1404	-4320	-14543	6913	-3213	-14836	2148	-2044	4377	11314	-3294	120	112	1
-2116	-2724	6780	-3262	-18039	-15570	-8980	-2416	-10936	-11535	-7690	-5335	-17736	-1712	-8320	-2573	-15397	-9970	-10224	5212	12852	58	2007	-1489	-17248	-3776	-4672	-6649	5736	-3302	-15644	2168	-3404	2953	11154	-3635	113	119	1
-7732	152	5128	-17812	-18334	-18717	-5376	-3944	-8968	5375	-10349	-7847	-17536	1932	-8680	1856	-15048	-9911	-10492	5192	12428	204	1748	-1435	-16788	-2428	-5596	7383	3792	-1378	-16648	992	-3704	4304	12546	-2622	107	114	1
-11396	-7460	4888	-18785	-21666	-18178	-6264	268	-11132	18622	-13901	-13582	-16956	3756	-7844	1065	-16852	-9127	-10720	4840	12192	399	1142	-1435	-16208	1748	-4380	11930	4306	-1000	-14832	-320	-3944	9012	14215	-2480	110	117	1
-11996	-3632	4632	-13778	-22898	-17708	-10100	7072	-9936	16328	-18549	-16179	-15812	3316	-6860	-447	-17382	-7742	-10552	4496	12348	517	945	-1261	-16208	4236	-2912	5568	3884	-1166	-15080	1204	-2320	10360	13741	-3701	110	142	1
-11048	-684	4432	-14929	-20981	-21678	-10456	7888	-9876	14636	-19184	-16286	-14152	2728	-6292	-2997	-16325	-6709	-10424	4836	12344	578	1151	-1230	-16212	2752	-2456	-819	4320	-2034	-15616	4124	-2404	3884	13253	-4539	115	141	1
-14444	536	5784	-15988	-16687	-25997	-9856	6496	-11916	-6148	-23992	-14122	-12336	1524	-5060	-2540	-15352	-5913	-10120	4996	12268	261	1401	-1239	-16064	968	-3100	-304	3551	-1989	-15588	4960	-2732	-1382	13061	-3054	123	133	1
-18516	-708	6332	-14296	-14916	-28164	-9440	5820	-11464	-7332	-24240	-14322	-11800	904	-5424	-1354	-13853	-6065	-9848	5152	12420	-260	1473	-1539	-16028	812	-2860	3169	4040	-1702	-15620	3464	-2308	-1930	12203	-3030	127	133	1
-18196	-340	8036	-11093	-15377	-26179	-9912	-1364	-11852	-606	-24956	-18336	-10368	584	-5184	-1414	-12388	-6595	-10700	4988	11868	-288	1098	-1804	-16200	1520	-2664	4845	4371	-1644	-15428	2584	-2936	-1072	11965	-3107	136	123	1
-20288	1896	9612	-13328	-16641	-25330	-11948	-1900	-10496	10611	-25335	-18154	-9976	580	-4616	-2491	-11645	-7440	-10636	4964	11836	-526	742	-1981	-15648	2484	-1956	3180	4829	-2122	-15728	2460	-3040	-1916	11560	-2765	139	120	1
-21156	-1692	9928	-13323	-18300	-24180	-13236	20	-11412	16984	-26207	-17758	-10540	-460	-4172	-1807	-10825	-8030	-10404	5040	11928	-744	597	-2048	-15788	2344	-1980	-323	5304	-2549	-15972	3460	-3168	-4059	10724	-2823	139	128	1
-20976	-564	9624	-11785	-18090	-24447	-13220	1992	-11524	18044	-28034	-15925	-10092	360	-5220	-983	-8875	-8332	-10488	4664	11880	-743	655	-2129	-15956	468	-2484	-3559	5982	-2878	-15688	888	-3088	-4022	10357	-2835	134	127	1
-22632	872	11188	-11981	-16832	-26040	-13356	3460	-12124	15506	-29137	-14610	-9668	2052	-3816	-2528	-6604	-8204	-10856	3548	12236	-350	1114	-1810	-15780	-1836	-2528	-554	6386	-2873	-15052	-1920	-1952	-1186	9440	-3065	132	126	1
-24072	3372	12476	-14046	-17195	-26151	-15064	4968	-11936	7491	-30019	-14165	-9176	3752	-1952	-7143	-2913	-6356	-10360	3792	12480	-335	2027	-1295	-16376	548	-2052	3786	7013	-3350	-16048	-648	-1652	130	9268	-2536	124	127	1
-24996	8516	13568	-17829	-17932	-23388	-15292	3824	-11984	-1815	-30114	-14099	-9464	2024	-260	-10827	1638	-5400	-10544	4488	12720	-411	3269	-1449	-17588	3648	-1960	2196	7508	-4163	-17960	2592	-2288	332	9130	-1675	109	127	1
-28388	19140	13272	-24648	-18811	-19815	-15872	2920	-11908	-11475	-28171	-12639	-11200	-4372	864	-13843	5076	-6258	-10620	3908	12856	-656	5237	-2448	-18288	3328	-696	-528	8645	-4965	-18924	4752	-1300	516	7393	-1677	111	127	1
-32300	20060	8900	-24208	-21422	-11088	-16648	3544	-10944	-21512	-23923	-9736	-13784	-8172	3904	-11692	5507	-6851	-10448	4436	13452	-384	7804	-2969	-17896	1688	-176	350	9784	-5950	-18948	3672	996	1700	5650	-1485	110	129	1
-31740	21984	1716	-15081	-20057	-651	-16800	2908	-8616	-25668	-16988	-6256	-15468	-9844	8664	-6694	8874	-7827	-10468	5020	13664	-899	11266	-3770	-18536	1780	524	3329	11255	-7073	-19440	1636	2900	4357	4745	-1312	104	125	1
-30504	22364	-7704	-6992	-13488	4987	-12908	1072	-4076	-18564	-6323	-1395	-19596	-8288	11684	-5505	9644	-4409	-10132	4664	13708	-349	15925	-5144	-19848	1956	540	4025	13031	-7689	-21244	340	2768	5284	1991	-1373	104	124	1
-32768	-13944	-7584	19499	-2032	-577	-6936	-1000	-5492	2570	6638	2383	-20008	-5632	12748	-5526	5311	4257	-9804	4820	13732	288	21409	-6079	-20284	-636	832	6041	14474	-8266	-20968	112	3664	7555	-1668	-1507	100	123	1
-19836	-12952	24804	23607	-1829	5731	-18604	-7488	3124	14262	9913	4257	-14556	-6684	2268	-1440	8437	10163	-9692	3776	14140	703	28125	-6831	-21832	-908	1148	8785	15454	-9315	-21280	2088	4788	9249	-4733	-1346	97	124	1
-1760	-4348	10792	29845	11382	22835	-32768	-30868	16848	26505	-2151	-1702	-24088	-10084	-608	7681	18195	11478	-12104	7144	13840	2759	32767	-8668	-26824	188	3532	11169	16764	-10585	-23728	4488	5860	9304	-9008	-2308	110	121	1
-32544	6504	15392	21095	3869	23435	-19644	1644	-4904	32767	11583	5964	-32768	-13988	552	29287	11961	-4850	-15056	8612	15192	1750	32767	-12780	-29164	3088	6384	13779	16246	-10901	-24808	5648	13284	5612	-22647	-2469	111	119	1
-19744	-1188	13756	29281	7430	17466	-32520	20156	-4844	32036	15927	5999	-32768	2164	460	32767	9902	-1507	-22524	3476	15656	2867	32767	-14168	-30120	4976	4928	14231	16984	-11780	-21744	388	8992	-484	-18793	-4675	112	117	1
-21376	11236	22496	28180	6555	16436	-20144	15428	-9080	-2716	13764	-856	-24360	22092	2204	11368	14348	11916	-28420	11128	15936	5668	32767	-18045	-27200	9352	-1768	11677	17273	-13165	-23060	6856	64	5071	-17829	-2876	119	110	1
-8532	3600	15856	1090	2120	543	-18860	2060	-3600	-27759	10289	-997	-11092	23924	6616	-14105	13092	19267	-32768	7676	24340	3221	32767	-21343	-20764	10972	-12036	-626	15910	-15347	-24388	15404	-8164	2928	-17292	2346	87	106	1
-13164	-7888	9012	-402	2070	-227	-16480	-15956	-2188	-20008	8063	211	2304	3308	-10420	-25437	15562	5906	-17952	12660	22752	10371	32767	-15306	-22796	2356	-12888	-11761	14292	-16762	-26344	12760	-12852	-6064	-18182	5343	78	106	1
-11780	-5728	10020	-517	621	697	-5896	-15560	-7088	4039	5580	2441	-11424	-10716	-14348	-11557	17946	-7627	-32768	11504	17576	12927	21703	-21496	-17684	-2968	-12552	-16287	7866	-12092	-25648	4608	-13060	-21227	-23831	3172	123	111	1
-11372	-3628	11020	361	-742	869	-14160	-3680	-6980	14558	5961	-577	-15076	-1996	-13192	-6079	19185	-14510	-19376	31280	21964	-11326	-10207	-4516	-16152	-6144	-19416	-17680	7778	-11681	-21312	952	-6064	-23350	-26261	2750	152	135	1
-10708	-2524	11796	-205	-804	72	-23888	7088	-4964	-3018	3638	1261	-16772	-7800	-7548	-14019	15163	-1807	-1760	7320	12508	-20333	-22527	-10525	-9692	-404	-7596	7928	-4586	-8083	-19100	3800	-4988	-16082	-22566	3513	175	133	1
-10428	-2932	12012	-1521	441	-964	-18208	132	-1608	-22893	2343	513	-18052	-13664	-3568	-17644	20475	8517	-248	3180	8432	-5457	-23947	-7979	-8064	2692	-11376	7003	-11054	-3752	-18364	5904	-8100	-11708	-17548	3749	154	170	1
-10612	-4516	10788	-2205	1077	-1164	-12392	-12264	3452	-21048	576	792	-17952	-7924	-6400	2409	10791	5837	-5272	16852	7132	-50	-26901	-2187	-6144	3164	-12628	663	-14812	-1687	-17352	6116	-8436	-12503	-16003	2030	137	174	1
-10744	-5196	10500	-1714	708	-600	-10360	-14036	6760	-2966	3364	1864	-17432	-4388	2016	4764	949	6932	-9828	24912	4996	-10678	-31362	3944	-5840	3192	-11844	-5252	-19594	394	-18908	5388	-8936	-15889	-16947	1479	140	154	1
-10608	-5032	10728	-755	-86	73	-13336	-6856	3500	6191	7110	2324	-18240	72	3336	1820	2888	1316	-11616	22292	2464	-19616	-32768	9524	-7428	4116	-11260	-9801	-22893	2325	-16088	4820	-7532	-18337	-16110	5127	134	161	1
-10640	-4052	11368	-633	-166	185	-17024	-200	540	-81	8036	2155	-17124	2956	672	-5307	8304	-2220	-11832	18284	1164	-19448	-32768	15774	-9252	3352	-13032	-14368	-25495	3625	-14956	2936	-7148	-17900	-14024	6866	141	162	1
-10508	-4288	11204	-1283	661	236	-17724	-776	-468	-12055	7219	3201	-17264	-1792	-5132	-13610	8169	-778	-12060	16504	680	-14307	-32768	22187	-9372	1600	-12980	-17074	-28349	5495	-14912	2120	-7476	-16457	-12426	7119	135	155	1
-10792	-4996	10708	-1626	1403	675	-17440	-1588	-512	-13394	6965	3130	-13908	-4556	-6484	-12229	5613	-453	-14944	17784	1844	-10726	-29108	26518	-9836	852	-13944	-19725	-30922	8357	-13000	-852	-7792	-14707	-10124	7216	130	151	1
-10628	-5384	10528	-1283	1522	1166	-14324	-8384	-1096	-9801	6833	3071	-13840	-4292	-5048	-10284	4485	-1075	-20212	16876	4156	-7053	-27989	29268	-9908	236	-14364	-21559	-32768	9904	-11420	-3592	-5668	-9548	-8264	6336	130	150	1
-10836	-4908	10548	-704	1127	1498	-15204	-4768	-2064	-2421	7569	3777	-14396	176	-4808	-7764	5915	-1500	-22244	16564	5712	-4435	-29022	28784	-11504	-1672	-12904	-18937	-32768	12596	-10628	-4448	-4968	-5571	-5450	5587	136	142	1
-10668	-4860	10716	-315	714	1857	-15732	-1048	-2612	-2041	7924	3222	-14520	-2564	-6136	-7026	6060	-118	-23308	15684	7556	-2608	-30290	27137	-12828	-3844	-13964	-12811	-32768	14912	-9500	-4812	-5860	598	-2014	4243	138	143	1
-11012	-4208	10832	-94	1089	2121	-15228	-1532	-3000	-4106	7749	2554	-14152	-4424	-6748	-4628	5267	2668	-25796	14356	10208	-813	-30612	26254	-14312	-3972	-13412	-4580	-32768	18050	-8352	-4032	-5360	2112	1221	3658	138	142	1
-10792	-3884	10928	-572	1729	2199	-14908	-3468	-3616	-2951	8242	2501	-13936	-3344	-6328	-1368	5824	3381	-28428	10932	13000	3965	-30589	26489	-15252	-3324	-12848	1165	-32768	20579	-7088	-2996	-2144	1570	1306	3871	128	149	1
-11036	-3488	10960	-997	2379	1735	-16020	-2872	-3768	-559	8546	2785	-15224	-772	-5060	-1767	6051	3742	-32768	7424	13104	9740	-30851	24815	-15548	-3156	-12512	2102	-32768	21009	-10072	408	-1060	1160	-2033	4341	118	165	1
-11584	-4924	10420	-2091	3055	2248	-16240	-1728	-2904	-2172	8563	2677	-15316	-112	-3628	-2384	6925	3594	-32768	3548	9764	13824	-32241	20973	-18480	-1304	-8992	5454	-31189	23315	-14324	2036	1712	-483	-3477	6735	129	158	1
-10216	-4196	11880	-36	4535	1953	-15932	-2088	-2112	-6231	9040	2449	-15844	-868	-1900	-3508	7104	2691	-32768	-1820	3960	13038	-30947	17089	-19372	-1140	-9544	4944	-25458	20842	-17096	3576	11264	-4741	-2943	9310	131	145	1
-11156	-4012	11416	-279	5832	2244	-16276	-2452	-968	-8713	9878	3687	-16232	80	-1340	-5664	6662	1141	-32768	-7300	-4392	8279	-23093	13885	-19412	-1248	-7332	1596	-18106	14558	-18932	9740	16784	-1242	-2937	12615	133	159	1
-11368	-4644	11644	-177	7470	2425	-15968	-3840	-1036	-6230	11506	3916	-17168	-788	-1700	-8126	6135	1285	-32768	-8520	-6404	7402	-21647	13271	-10224	-4420	-5172	170	-9302	8808	-12700	6620	16060	3604	8213	11153	133	165	1
-11864	-5616	11348	-146	9588	3616	-17076	-3008	-2020	-4891	13028	4118	-17832	-2044	-3468	-9757	4266	1704	-32768	-18028	-22772	4509	-4935	2372	-5440	1332	-3544	-1620	4177	3978	-16864	4076	19632	3597	3536	2142	127	157	1
-12016	-4684	11936	169	11806	5412	-17336	-1228	-3208	-6490	13882	3755	-17268	-2160	-4108	-8444	1914	2138	-26116	21856	-7840	-19295	18362	8307	-10380	-1352	-7600	-6583	14957	-3060	-15712	3576	12748	-3081	2198	-3646	122	156	1
-11900	-4592	12188	1063	14893	7363	-17804	348	-4308	-8690	14535	4289	-17152	-652	-4148	-7932	90	2295	-26160	-1212	32767	-19837	23109	1237	-23532	68	8896	2399	17294	-5094	-9392	8468	-2816	614	9467	320	129	141	1
-11220	-4020	12904	1751	19951	8728	-18928	-1928	-4920	-7602	15582	4846	-19552	-2484	-3312	-7010	-1788	3837	-784	-25068	12484	-9623	31413	-8984	-32768	1916	14728	-12572	5038	1183	-20384	-2416	-2908	-6918	14978	-1156	140	122	1
-12148	-6640	12968	2521	27153	11374	-23140	-1420	-2816	-5119	16250	5562	-21800	-3324	-1068	-5988	-5021	4362	-32768	-11612	32767	-3689	25166	-14913	-10268	-9112	4612	-27958	12244	-8037	-29180	800	15824	-32768	925	2270	127	87	1
-13740	-7256	13972	3239	32767	16842	-26164	20	1340	-8182	16543	4810	-24880	340	6000	-5540	-12725	4195	-17796	20140	9576	-2400	19946	-11096	-30180	-7148	-3692	-16567	18971	-8328	-24340	-7024	3476	-24000	6607	-1421	131	99	1
-15120	-9200	12204	3383	32767	21663	-28644	872	4576	-15949	15574	4952	-24644	3436	7872	-7637	-18613	3497	-15212	-7072	20500	-13601	3770	-11786	-23452	5132	-9408	-2417	13587	-1558	-16440	-11248	-4836	6296	10346	-6965	129	89	1
-25212	-12100	10504	5702	32767	29406	-25112	-2272	4020	-22837	16237	4573	-23368	7352	6088	-9149	-16586	4573	-10212	13416	9556	-7468	2130	-5509	-12352	4308	-10028	-17589	18290	-5110	-14052	-7672	-7928	12499	12194	-5472	129	168	1
-31720	-4664	13580	-3944	32767	27812	-20412	-8208	-3696	-20431	19881	4043	-21168	-2996	-452	-11811	-15657	1238	-10252	1724	15616	-5582	-372	-4485	-14588	-4160	-10072	-13206	13603	-3571	-10700	9888	-7812	5869	9157	7942	134	161	1
-31180	-13832	11632	1163	32767	32767	-20696	-9216	-3988	-19741	20022	4706	-20828	-5684	-7924	-7349	-15190	-3596	-9848	4128	13516	-3925	-1478	-3242	-13868	-3708	-9072	9791	9699	-2577	-14684	8536	-7832	-590	10688	4983	138	131	1
-11080	-12860	14392	-56	27150	32767	-20416	-4	-6372	-3584	15180	1310	-24736	912	-8908	-570	-16524	-6083	-9588	4244	13748	-3388	-1754	-3123	-21472	1020	-5696	14860	7452	-1675	-18356	712	-4868	-467	11429	-514	140	102	1
11184	-7088	10836	-6082	32767	32767	-15588	668	-8524	-2708	7260	703	-22632	4172	-8940	1314	-17788	-4632	-9880	2668	13444	-2896	-1171	-2705	-17684	4880	-1484	6807	6460	-2421	-19576	-704	-1360	95	11938	-2772	122	90	1
-32768	-14440	16268	-18894	19302	7483	-11896	1376	-25852	2679	2838	2357	-18864	2896	-7892	1449	-18513	-4846	-9416	2836	14168	-1807	-505	-1970	-14600	3696	-972	-9687	7916	-1933	-14000	1224	776	-2088	11049	-2225	116	90	1
-19804	-25460	14020	-9733	-8725	-13330	-8712	7816	-15132	-13037	549	-1716	-20032	2996	-6312	-470	-18992	-5994	-8996	3680	13812	-754	337	-1205	-16844	548	-2368	-15043	7796	-1650	-16652	164	-200	-1835	10596	-3215	120	109	1
-10028	-15244	10036	2589	-23548	-15159	-8592	-1176	-6620	-23248	-6008	-5705	-17800	-236	-7832	-4405	-16293	-6358	-9456	4184	13592	-146	926	-886	-17624	-884	-4964	-11275	6615	-1460	-15892	1444	-2372	-17	10688	-2757	121	114	1
-6464	-3224	7232	-2311	-28478	-13036	-9632	-5868	-9136	-12065	-10601	-7672	-18032	-1772	-8024	-1913	-15447	-6705	-9292	4208	13444	43	1120	-838	-17132	-3728	-5556	1459	4650	-904	-16028	484	-3560	3572	11890	-1383	118	122	1
-8776	756	5136	-16306	-26981	-16207	-6296	-6188	-8892	5416	-13526	-8734	-18688	-1224	-7808	1872	-16614	-7273	-9464	4084	13168	190	1049	-857	-16808	-984	-5000	12217	3848	-86	-15252	-72	-4148	8551	13197	-886	113	120	1
-14860	-7700	4360	-20005	-28554	-21953	-8456	-16	-12328	20967	-16671	-11302	-15880	320	-7332	4698	-17491	-7260	-9472	3988	13472	306	907	-784	-16672	3896	-4168	11338	3656	253	-15732	1792	-3840	11994	14302	-1918	116	122	1
-14320	-11792	3572	-8898	-30533	-24833	-10516	5320	-10792	18844	-20526	-12450	-14604	816	-6752	4801	-17805	-5516	-9472	3836	13216	604	1165	-632	-16520	4940	-3032	1378	3745	-478	-15112	4404	-3492	8918	14076	-3075	120	117	1
-11648	-1792	4232	-2283	-27341	-26636	-11684	6240	-12292	10256	-24265	-11799	-13320	1184	-6276	3336	-16800	-4532	-9476	4180	13216	585	1340	-580	-16584	2324	-3372	-3069	3548	-1123	-14524	4260	-3484	1858	13736	-2175	130	118	1
-14744	2008	4524	-8220	-22317	-32159	-9984	3048	-9200	4667	-27044	-9604	-11624	1400	-6456	2636	-14740	-3846	-9616	4180	12904	405	1162	-563	-15724	352	-3592	-623	2973	-897	-14396	3520	-2764	-959	14158	-1222	131	116	1
-17620	-5492	5588	-6713	-20277	-32617	-8092	1764	-10908	4432	-29490	-10865	-9476	3068	-6800	1857	-12300	-4012	-9540	4356	12964	229	880	-745	-16028	1212	-2200	3700	3633	-772	-15980	3008	-2104	-462	12438	-1719	135	111	1
-17712	-2828	7784	-1177	-20285	-30178	-8300	-544	-11104	6817	-31653	-12146	-8032	3368	-7508	-1766	-9282	-4239	-7488	3468	12988	289	570	-1352	-15908	2248	-1348	3891	4419	-720	-16884	3728	-2604	-1379	10926	-1504	138	113	1
-17968	-1160	10204	-2698	-21410	-29845	-10216	-480	-11740	12978	-32768	-11417	-7148	1616	-8288	-7412	-5618	-5645	-9448	3968	13164	217	650	-910	-15852	2528	-1384	1806	4796	-1285	-16812	4128	-2184	-3589	9913	-1211	137	109	1
-21340	-4804	12500	-3661	-23202	-28428	-12308	1032	-11912	15238	-32768	-9841	-6464	404	-8572	-7306	-1693	-6053	-9452	4200	13080	-2	831	-940	-16264	2440	-1896	-885	5784	-1716	-16152	2704	-2308	-3253	9712	-1737	131	109	1
-28016	-8860	14336	-1414	-26525	-27427	-15048	72	-14040	13078	-32768	-9579	-6256	-40	-5424	-2395	1535	-6284	-9472	4244	12916	2	970	-1102	-16228	1636	-2680	-668	6140	-1905	-16076	816	-2208	-1373	9523	-1610	124	114	1
-31428	-2248	13872	1221	-29127	-28816	-17200	1940	-9300	11328	-32768	-8772	-6856	-2060	-4008	1061	2762	-6372	-9476	4468	13156	294	1117	-1550	-16772	1620	-2564	1841	6658	-1871	-16672	188	-1788	636	9558	-603	123	119	1
-32768	3512	7584	-4131	-27586	-30467	-18932	-1000	-9664	13678	-32768	-4956	-9856	-4964	-3492	6407	2816	-6571	-9204	4036	13344	711	1464	-2367	-17632	2152	-1560	5111	7156	-1790	-17028	608	-672	2624	9003	704	128	121	1
-32768	2632	2400	-1882	-25375	-25980	-20256	1400	-9964	13675	-32191	-2873	-9792	-5308	-3260	8097	2796	-7002	-9060	3804	13912	542	2957	-3368	-16976	3380	-72	6665	7979	-2184	-17488	1700	612	5182	8071	1554	119	122	1
-32768	12076	-2096	5581	-18007	-21859	-22600	980	-6272	5466	-26468	-126	-25900	-7096	13224	23176	-6138	-13756	-9648	4220	14188	349	5401	-3322	-17648	1192	204	6939	9613	-3832	-19032	3148	656	6583	6789	1238	77	120	1
-32768	11776	-18196	4467	-14525	-14271	-12208	8784	-10140	5490	-15490	-332	-20104	2864	14332	18974	6332	-9038	-9564	3656	14752	465	8324	-3531	-18108	3240	-20	5441	11233	-4974	-19352	4176	-172	8011	4913	108	31	118	1
-32768	30792	-22244	-6989	-7525	-4858	-4280	-16	-6240	153	-3535	-2241	-17232	1380	20300	9647	4125	6264	-10172	3728	14576	1326	12157	-4086	-19692	996	-1916	3746	12496	-5873	-18864	3344	-2948	6811	4120	-217	59	120	1
5660	-16692	-5128	-940	5841	-7990	-6784	224	-5496	2318	9862	-2484	-14644	2880	15808	4551	6108	13601	-9712	3080	15476	1218	16587	-4073	-20156	-328	-3608	4839	12642	-6495	-18524	4084	-3676	5850	3012	-696	97	118	1
-11712	-5836	13312	19136	13376	17017	-19916	-12	-1348	-2923	14445	1644	-18592	3408	2308	-1348	11048	9246	-9164	3224	14980	1256	17450	-4075	-20716	964	-3740	5670	12884	-7482	-19552	4552	-3024	5989	1323	-1671	136	118	1
-11236	-2116	21892	13455	23085	5120	-32768	-9764	16432	2199	3749	-44	-24328	2256	-2624	-4920	15770	5488	-9844	4540	14184	533	27927	-6222	-22296	3132	-2204	5139	12754	-8090	-21932	5640	-1244	4794	-162	-2209	148	125	1
-14684	5620	12904	11201	22635	15817	-17500	-3732	1520	23449	10683	-1740	-18936	1164	-372	2466	7560	-257	-10816	6380	14500	-113	32767	-9208	-23756	2136	312	5883	13509	-8530	-22972	4092	3312	6555	-3796	-2311	145	130	1
-28388	4172	14460	1889	10741	11755	-15124	8812	-5048	19682	13266	2703	-27216	-4196	3476	17851	4864	-6091	-13684	8212	13528	-1713	32767	-13431	-26100	1776	2772	10825	13987	-8542	-25792	4380	7560	7746	-9855	-1425	135	120	1
-20596	-10536	7924	10642	-922	10898	-31464	-1120	-7776	3940	14819	-1678	-28796	9904	500	9919	9401	-4055	-12764	8364	14016	-2083	32767	-14424	-29160	2716	2988	16396	15043	-7786	-26756	620	10792	8631	-21580	-661	134	110	1
-13836	3556	16504	6746	-535	5834	-17868	2988	-8376	11205	14690	675	-13548	9988	-2796	-4655	18304	3143	-27708	14080	16164	7020	32767	-21200	-25776	4772	6076	20420	17636	-7157	-20068	-6708	6780	4955	-17255	-1967	148	109	1
-10604	-6696	11408	4172	197	3086	-16584	3684	-2988	5576	12502	656	-2536	-228	-8364	-16158	21667	4180	-32768	13264	25652	7481	32767	-25597	-18688	8524	-3932	16744	19283	-6617	-18796	-1128	1224	7487	-18149	1161	120	110	1
-9472	-5564	11180	2637	1475	2526	-14096	-1648	-856	-2973	9513	-452	-7464	-7352	-12168	-10257	13622	3615	-20984	6724	23260	11641	32007	-23842	-18544	3616	-6184	7195	19716	-7483	-19840	3488	-5324	11413	-19257	4128	125	108	1
-11140	-5808	9916	2588	1055	3141	-12044	-3908	-3016	-8050	7447	-387	-15964	-9204	-8824	882	6836	-1915	7436	13556	11656	15346	23449	-24941	-20028	-6412	-7420	2602	15455	-4634	-20420	2088	-8232	4121	-19540	5952	140	101	1
-11344	-5800	10648	3106	-7	3325	-16580	-9444	-1892	208	7434	-990	-17340	-4148	-3144	6459	9591	332	-29124	20552	30476	14830	608	-12599	-13488	-10392	-16312	2504	11108	-4098	-21120	-4872	-7520	-1016	-20292	4378	144	97	1
-11216	-4340	11568	2158	-565	2813	-17540	-4296	-896	13304	7369	1317	-15060	-976	-988	4982	14372	2814	-172	21652	14776	1361	-9013	-3999	-13584	-6392	-4320	17616	5081	235	-20952	-2060	-5592	-1832	-22223	3688	145	103	1
-10596	-3848	11688	1241	-523	1821	-16072	2712	-1212	11004	7306	224	-17780	-1708	-2232	531	15936	6456	2188	4528	13060	2902	-6559	507	-11692	-1788	-5796	20994	-1244	4902	-19224	252	-6348	2821	-20899	5134	140	133	1
-10764	-3908	11428	346	50	1156	-17472	2860	484	-1253	6808	124	-17752	-3448	-2896	1128	14459	7315	-3700	5756	14036	12412	-9190	7423	-7192	-1212	-9296	8019	-5052	8838	-19356	1124	-6324	4732	-19789	5033	125	143	1
-10524	-4432	11232	-42	502	1109	-16000	-2876	1820	-6600	6399	-18	-16268	-2912	-2432	2979	11971	6157	-8416	11440	15372	12264	-16339	10711	-6032	-764	-8324	63	-8476	9885	-19176	2052	-5776	3393	-17852	5587	120	151	1
-10656	-4908	10588	160	427	1304	-14320	-6396	2736	-3595	6963	436	-16376	-904	-728	1713	7996	2983	-11532	11208	14756	8033	-25530	11679	-9320	-3076	-6904	-2038	-11980	13684	-17428	192	-6084	194	-18299	6002	127	153	1
-10488	-4312	10968	734	-349	1447	-14940	-5264	1184	2853	8603	731	-15668	1408	292	1687	7672	1742	-10904	7700	13436	8650	-30812	15998	-10176	-4084	-8584	-4329	-15387	17350	-18112	-516	-6484	-2556	-18089	5739	128	146	1
-10428	-4292	11316	954	-575	1804	-16432	-768	-152	3834	9024	891	-15536	1900	-1404	361	9132	325	-9684	7856	11468	10035	-32319	22332	-11296	-5720	-6848	-5614	-18440	19572	-15896	-468	-7296	-2698	-16362	5387	125	150	1
-10300	-4268	11404	911	-173	1749	-16144	-120	-1552	-1132	8954	874	-15388	-1088	-4996	-2182	8884	658	-10176	6584	11812	7223	-30553	25804	-10764	-5324	-7344	-5744	-23135	20254	-13032	-744	-7748	-1907	-14308	4397	133	154	1
-11948	-4996	10832	1669	-535	2561	-15644	-3780	-1456	-2884	8657	542	-13916	-4712	-6684	-1987	8457	553	-13612	4424	14600	5968	-29918	27369	-10460	-3740	-7288	-8680	-27257	22185	-9864	-748	-7016	108	-10618	3819	126	149	1
-10732	-5772	10364	3291	-1324	3989	-14536	-6388	-2304	661	8144	475	-13560	-5748	-6260	1825	7885	1161	-16732	3580	17992	5934	-30944	28435	-11160	-4624	-9024	-12436	-30894	23048	-8324	-808	-7404	1846	-6740	3341	130	154	1
-10376	-2744	11228	3778	-1528	4153	-13768	-5172	-5128	8718	8423	489	-13788	-1544	-5696	3590	7662	1734	-19640	3168	20724	6261	-32768	27756	-13588	-5188	-9708	-12357	-32768	22546	-6932	-884	-8500	2391	-2320	1732	128	159	1
-11340	-2884	11640	3295	-1126	3608	-15400	2208	-4900	7145	8864	723	-14080	2188	-5612	413	7928	2794	-24432	6080	22964	5033	-32768	26630	-16280	-5640	-11128	-12794	-32768	22321	-7152	-1232	-8452	1834	890	2731	127	173	1
-9944	-3156	11408	3886	-36	3802	-16696	764	-4056	-376	8614	202	-14876	1304	-5880	532	8361	3224	-32364	7860	23472	2323	-32768	27609	-19892	-5452	-10300	-10875	-32768	21104	-6420	16	-6328	-1854	2072	3828	123	212	1
-10768	-3532	11664	3651	18	3847	-16296	-1608	-4536	-1597	8358	44	-16312	1288	-5104	356	7929	2103	-32768	4668	19268	163	-32768	29034	-21028	-3552	-9608	-10392	-32768	19252	-9668	4428	-4768	-6150	921	5964	118	201	1
-10244	-2580	12356	2155	2426	3462	-17312	-1228	-4392	-2414	8540	660	-15832	620	-4216	-985	8939	1408	-32768	-216	11028	-191	-32768	26219	-21316	-3364	-9248	-10553	-32768	18841	-14180	4328	1644	-11287	-1748	8533	119	177	1
-10372	-2720	12560	1541	3748	3666	-17228	-556	-2160	-4315	8917	481	-16564	396	-2728	-2305	8727	1073	-32768	-3064	616	-1812	-29556	21674	-21008	-8028	-7692	-14705	-27793	13377	-23428	3764	20036	-16564	-9347	8970	122	238	1
-10544	-1704	13124	980	6088	3249	-17152	1392	-44	-7475	10108	1311	-16596	492	-2432	-2648	8545	962	-32768	-15152	-14168	2414	-20461	13975	-14732	-6972	-8316	-7090	-19343	9474	-23180	4188	25212	-15527	4420	9290	125	253	1
-9552	-1072	13620	199	8412	2963	-16696	-528	-1976	-9615	12114	2185	-18148	920	-1276	-7449	6283	1532	-32768	-19264	-23576	10514	-9108	6668	-5860	-2828	-5728	1805	-6972	6118	-20540	2624	25732	-13980	7299	7505	128	253	1
-10732	752	14148	-2699	11792	589	-16832	2008	-1976	-9776	14340	3384	-17980	-604	-3880	-9829	3738	2432	-32768	-12600	-25408	4462	3257	1717	-6144	724	-5184	3664	8131	-1489	-20336	-6180	19076	-1877	-896	-8609	130	229	1
-11120	-3772	14100	-1220	14414	1096	-18572	-428	-3156	-12272	14395	4589	-17260	-960	-6056	-8418	2157	3022	26204	3512	-1072	-17660	25499	-7696	-14644	2028	-3108	9276	18866	-8163	-16684	-920	13552	3576	-2192	-5766	130	142	1
-11188	-5004	13208	78	17476	3846	-19140	-5396	-4304	-7096	14433	4002	-18500	-2848	-5044	-6576	582	3713	-6440	16076	25784	-6822	22257	-5701	-32768	9900	20256	9014	10865	-2561	-8376	3296	-9316	21466	12217	-193	130	84	1
-11796	-7012	13064	3192	21876	7721	-20672	-5536	-3880	-4976	14842	5177	-20532	-7220	-4992	-4536	-116	3769	-12232	-2496	8920	-5113	31656	-9892	-14772	-1940	-3504	-15588	10463	961	-16544	-4560	6544	4220	6166	3042	132	61	1
-12880	-7028	12488	4603	27444	13519	-22872	-3068	-1424	-2700	14891	4997	-22140	-3092	-224	-3693	-4310	3941	-25012	-2864	25664	-5326	22469	-12765	-17712	-5828	-3424	-14611	15451	-11239	-28252	13860	4612	-10673	6158	8696	131	12	1
-13236	-5028	13292	4764	32767	20066	-23160	1212	1092	-8177	15104	4536	-23972	-148	4784	-4474	-11018	4442	-32768	30188	22116	-9199	10995	-15099	-29840	-4632	-13028	-14583	16722	-5167	-21456	-5540	-2404	-7597	7085	-121	129	71	1
-14440	-8036	12024	3371	32767	26020	-26920	4444	2464	-16553	15070	4366	-26060	1932	12568	-7062	-21679	3615	-12664	-4184	21764	-12438	2859	-10881	-17676	300	-5896	-4999	14442	-2707	-18076	-2076	-5500	10026	12159	-1253	133	72	1
-29156	-11256	9620	5020	32767	28860	-25072	556	4584	-31485	14630	3543	-18984	11620	7260	-11436	-16460	5879	-11392	9144	13272	-7136	832	-5799	-15692	-544	-5564	-11208	16636	-4223	-11124	6140	-7724	2713	11697	573	129	61	1
-32768	-640	12064	-2039	32767	30846	-18800	-10176	-3076	-29921	17798	3167	-20624	-3304	-252	-14468	-15198	1950	-10632	2600	15300	-3316	-141	-3018	-12488	-2288	-6312	-5945	14451	-3978	-14224	6840	-7948	-9795	10664	-1318	129	66	1
-32768	-4268	11480	-2383	32767	30652	-19952	-9980	-6824	-15124	17660	4174	-19708	-5384	-7816	-8859	-14991	-3571	-9292	4720	13480	-2367	-418	-2806	-16452	1432	-6500	3069	9283	-1016	-15080	1128	-5976	-8960	10275	-1105	135	76	1
-9916	-11308	12236	-4503	24713	31644	-20312	-716	-7864	-1721	15662	2153	-23092	1268	-8324	-1433	-15706	-6367	-10688	5304	13216	-2143	-242	-2499	-17792	4944	-4620	-2537	8095	-1807	-17228	-3068	-3468	-2239	12855	799	133	81	1
-92	-7692	7344	-3836	29756	32767	-15836	1084	-6548	-446	8703	742	-23228	4540	-8508	3175	-16802	-6282	-9520	3848	13696	-1411	98	-1690	-16368	1924	-3228	-8907	7489	-1334	-17804	-1616	-1348	3225	12474	88	129	90	1
-31020	-14844	14400	-10345	12687	12267	-11512	1540	-19696	-2432	4218	69	-19116	4372	-7176	2320	-17077	-5799	-9228	3204	14060	-408	743	-1134	-17064	-4124	-2568	-4947	7296	-860	-16572	-416	-64	5737	10965	-1425	121	95	1
-19584	-20656	13016	-4424	-8687	-7513	-9672	5444	-14492	-13863	1796	-2558	-19856	2708	-6900	-1730	-17358	-6724	-9432	4088	13484	671	1602	-610	-17648	-1048	-3088	5359	6014	403	-16460	1752	-1072	7154	10815	-2218	119	101	1
-8316	-12880	10604	-194	-19527	-14701	-9480	-872	-8028	-17125	-4228	-5039	-17504	-1356	-7996	-4540	-15189	-7673	-9468	4724	13260	932	1821	-591	-16544	4492	-3588	7684	4988	303	-15940	2384	-1976	8979	12608	-394	117	111	1
-5344	-1960	7332	-8752	-21320	-17534	-9172	-4380	-10968	-6794	-9092	-6249	-18188	-3792	-8672	-132	-13995	-8489	-9252	5012	13116	809	1767	-971	-16712	5008	-3508	5677	4799	-13	-14728	2588	-2776	12452	13481	389	114	109	1
-10744	-1876	3796	-19883	-21997	-21579	-7240	-3836	-7480	5684	-12068	-7292	-17896	-1180	-7996	4009	-14915	-8712	-9672	4844	13052	798	1833	-1247	-16576	3068	-3548	3390	4340	-286	-15024	4412	-2728	12104	13627	67	113	99	1
-13460	-9028	3372	-16256	-23525	-22739	-8068	-1536	-10464	17174	-14580	-10458	-16040	-344	-6876	5780	-15923	-8170	-9648	4560	13188	1091	1911	-1380	-16564	1372	-3588	3776	4294	-163	-15664	4692	-3624	7840	12587	-858	111	100	1
-14352	-7460	2612	-4541	-23599	-23670	-9844	3048	-11084	19684	-18606	-13174	-15244	-1784	-6264	6153	-15534	-7761	-9812	4500	12976	1021	2167	-1321	-16596	2884	-3208	4912	3751	-50	-15720	5312	-4896	3026	11013	-1322	113	109	1
-13680	-896	2924	-582	-20984	-27909	-12780	4508	-13460	15203	-20214	-10127	-14772	-2864	-6752	7680	-15000	-7051	-10180	4336	12452	1148	1762	-1253	-15388	2996	-3476	3703	4040	-578	-15456	5300	-4548	860	8354	-672	119	113	1
-16932	1340	2956	-4343	-17157	-32768	-11420	2540	-11784	8843	-23262	-7440	-14480	-2152	-6736	10140	-14230	-6786	-10072	4576	12380	1278	1172	-1398	-15500	3028	-3568	1812	4196	-1022	-14892	4408	-3960	-77	7972	-737	126	114	1
-20400	-5236	2488	-1361	-16155	-32768	-8900	84	-12636	6955	-25713	-8524	-12748	336	-7444	11263	-13091	-6775	-10048	4628	12388	1256	898	-1748	-16308	2148	-4344	996	4044	-839	-15300	3436	-4012	-164	9150	-1229	129	113	1
-20472	-3924	3100	6049	-16662	-31345	-9332	-3252	-13092	12288	-26859	-9603	-11400	1932	-6828	8132	-11021	-7026	-10116	4508	12532	433	1204	-1698	-16676	920	-3608	2466	3777	-775	-15872	3360	-4688	-1523	10065	-1173	133	111	1
-19920	-1376	4824	5835	-17097	-31889	-10980	-2784	-14104	23973	-27420	-8989	-10484	1044	-6076	3858	-8854	-7422	-10108	3516	12952	66	1498	-1268	-16700	1564	-2768	1951	3771	-919	-16036	3420	-4236	-2864	9726	-1399	131	112	1
-23280	-3148	5080	3306	-17748	-31279	-12812	-736	-13016	27518	-28431	-6624	-9864	740	-5472	3244	-6816	-8118	-10092	3784	12676	138	1896	-719	-16156	1188	-2444	-1425	4305	-1508	-15492	1208	-2936	-3166	9114	-1514	131	115	1
-26424	-4856	4080	3183	-19580	-28665	-13388	420	-12900	25549	-29939	-5878	-10180	2140	-4968	4842	-5246	-8977	-10112	3840	12696	276	2338	-147	-15964	984	-2264	-3352	4852	-1728	-15228	-924	-1568	-3104	9600	-926	129	118	1
-26592	-3320	3252	1697	-20368	-26865	-13428	2988	-12628	20450	-30475	-6818	-9860	4812	-2980	3801	-3336	-8441	-9972	3716	12796	626	2992	-61	-16332	92	-1920	-1710	5445	-1416	-16584	-2368	-1700	-1526	9685	-490	129	120	1
-26432	-920	3264	-2077	-19105	-26599	-14668	4636	-12284	11616	-29941	-7976	-9824	5064	-1120	1073	-1012	-6574	-9956	4208	12920	1027	3665	-160	-16716	628	-1604	3122	6053	-1128	-17460	1916	-2240	1277	8200	-584	125	122	1
-27772	3548	3668	-7615	-17096	-25342	-15220	3276	-12460	-227	-29155	-9124	-10732	2508	1044	1131	421	-5256	-10260	4688	12516	1158	4443	-425	-16488	2872	-1728	5509	7088	-1336	-16824	5152	-1312	2895	7207	-149	118	124	1
-31380	10824	2500	-16214	-15760	-21752	-15044	3984	-12460	-9921	-26703	-10109	-12756	956	1328	1995	2932	-6268	-10324	5016	12292	974	5125	-780	-16068	5016	-1340	5151	8049	-2181	-15948	4380	-212	3874	6985	370	116	127	1
-32768	13132	784	-22050	-15913	-16640	-15332	3932	-12640	-11897	-26287	-10118	-15488	560	3912	-643	5000	-5861	-10444	5364	12336	906	6158	-1492	-16140	4376	-1108	3296	9341	-3113	-16432	2836	-216	4934	6100	539	117	129	1
-32768	12832	-1796	-17963	-16781	-8800	-15428	-2268	-10016	-21977	-16348	-9375	-17396	-580	10012	-4300	3112	-6552	-10592	5084	12772	583	7893	-2269	-16924	2512	-1848	4503	10490	-3601	-16564	2960	-236	5148	5955	581	115	127	1
-30768	15192	-7208	-9580	-15478	1403	-15124	-2776	-8924	-21105	-14727	-9259	-15444	-3916	9884	-9373	10098	-9563	-10376	5192	13388	363	10599	-3196	-18296	1692	-2108	6332	11458	-4042	-18320	3092	-1680	6808	4536	662	115	128	1
-29984	15720	-7816	-8614	-14823	2921	-9832	884	-5736	714	2234	-3152	-14660	-6816	7668	-10897	14844	-4634	-10528	4756	12980	656	14313	-4404	-18836	1344	-2616	6751	12232	-4318	-18276	712	-2068	7199	3024	689	124	130	1
-8664	-5888	-3416	32551	1954	21734	-13628	1020	4012	-1390	10174	162	-13436	-6136	5292	-7795	12707	1705	-10216	4084	13176	1044	18629	-5251	-18832	-116	-3000	6446	13227	-4741	-18872	524	-1360	8012	1327	475	127	132	1
-5108	-14088	32767	25238	6765	4839	-31548	-3364	23420	-5358	5158	5312	-15260	-7884	-1880	-1519	17190	5386	-11024	3636	13452	1780	24023	-5549	-20660	-372	-2384	7507	13484	-5409	-20604	3260	-556	8707	140	460	128	132	1
-6892	13536	16356	21013	14827	12372	-25124	-12064	5520	32767	2258	-764	-26932	-5864	276	12065	17835	2775	-10992	4772	13148	3035	30953	-6384	-23568	-392	-436	8903	14523	-5898	-22708	3436	2240	9251	-3113	-587	129	128	1
-32768	9440	24660	6371	5095	17131	-14044	9624	-124	32767	10680	2993	-32768	-2608	3236	32767	6208	5836	-12528	7708	13508	2342	32767	-8513	-26220	3544	2396	11977	14916	-5906	-24312	3780	4712	9875	-7248	-1073	117	124	1
-26596	-22804	12784	9260	6290	11561	-32768	14944	-3964	24366	14557	4884	-32768	4416	2200	31081	7212	7275	-19964	6972	18696	897	32767	-12070	-27872	3724	5784	11661	16540	-6221	-25416	2536	10652	10690	-18020	-350	119	114	1
-11040	9860	19396	9215	2265	7927	-16588	-2860	-7572	-3610	11479	-854	-13188	8172	8	5441	16142	9205	-23224	6052	16128	8943	32767	-11893	-28272	1564	4920	14085	19195	-6144	-23868	-1416	8732	7407	-20911	-415	130	115	1
-10516	-9784	9172	4685	1070	2990	-14424	-5664	-3680	880	10568	2242	-4020	4152	-5152	-16292	22724	10518	-28900	10684	19996	19379	32767	-10986	-25308	2004	-2068	15936	19022	-5161	-21340	-776	5780	5762	-19204	-2018	77	110	1
-11240	-3960	11412	5338	574	3615	-13564	-2400	-2952	-1304	7995	402	-6208	-2900	-12916	-6883	16971	7838	-28760	8608	25848	23660	32767	-13918	-20304	4580	-6608	10687	18198	-6503	-21820	5828	-5148	8592	-19366	601	82	100	1
-9972	-5508	10588	4391	300	3230	-13976	-596	-2376	-7671	5709	-570	-11956	-3480	-10348	1521	9986	-701	-8816	6504	16232	30578	32767	-11906	-20260	524	-6036	7031	15027	-6220	-22656	6428	-8600	5245	-22344	1402	106	119	1
-10532	-4132	11604	3247	-357	2564	-15804	-5016	-44	-5215	5594	295	-17624	3972	-1176	7453	7262	-7203	-32768	21548	21144	22022	21546	-21142	-17640	-5524	-13320	2599	8584	-2006	-19996	3100	-9268	-2057	-22346	2397	142	115	1
-10144	-2620	12076	2258	-548	1723	-16424	-4944	1768	8153	6038	607	-19388	6676	4412	3969	13589	-4973	-20104	26988	24664	-4048	-1680	-6571	-11604	-2936	-13204	10689	4546	-6515	-20444	1640	-5160	-7597	-21450	1866	154	119	1
-10168	-3092	12708	1554	-125	888	-15456	-1964	1676	14166	7581	616	-15760	-2108	-1744	-5218	18179	238	-4068	5624	17528	-8694	-14115	-4866	-13600	896	-6812	15224	-631	-1996	-21004	4292	-4668	-5398	-21359	3608	147	132	1
-10412	-3096	12484	1321	-55	866	-17028	-640	2876	4594	7624	838	-18548	-11984	-6988	-3055	11625	4367	-3216	2256	14008	3642	-18288	-2690	-9928	2392	-7280	11660	-6302	1676	-19136	4676	-6504	-3173	-19169	3979	153	142	1
-10620	-5360	11076	520	-274	783	-14592	-4152	1980	-7470	7160	-44	-16848	-10692	-2684	-1098	6677	3514	-7896	13632	12968	6655	-24150	1734	-8460	1592	-9812	2081	-9255	3295	-20292	3968	-6212	-2394	-18286	3364	138	155	1
-10032	-5500	11068	534	-359	1452	-14016	-7568	2108	-8947	7244	786	-14312	-4184	-1880	-2239	5512	2527	-10468	21180	12040	-3679	-31738	8173	-9672	-152	-11324	-5600	-13358	4941	-20108	2656	-6244	-4388	-18696	3513	134	160	1
-9944	-4500	11224	693	-425	1776	-14824	-6604	484	-4837	8171	1662	-15208	104	-1224	-6224	6521	2270	-8964	17140	10448	-12798	-32768	13715	-10632	-432	-8936	-7947	-18562	7226	-18416	2888	-6548	-6876	-18133	5203	124	158	1
-10460	-3700	11872	509	97	1822	-17076	-3208	84	-1235	8403	2162	-16596	1472	-4192	-5983	7049	746	-7432	10792	8812	-11846	-32768	19062	-10768	-1536	-10040	-11472	-23548	9263	-16592	2552	-7360	-8217	-17042	5259	119	160	1
-10180	-4008	11864	104	850	1509	-16704	-1220	-600	-1011	8613	2181	-15804	328	-4524	-4187	5225	117	-8120	7984	8356	-7108	-32768	22492	-9712	-2336	-8368	-12124	-27613	10412	-13904	956	-7700	-8294	-14359	5190	119	169	1
-10688	-3696	11200	-191	1110	1543	-15320	-1620	-1688	-4463	8609	2176	-14672	-2608	-4740	-5183	4559	43	-12164	7852	10604	-3533	-32768	23198	-9260	-2568	-10512	-15046	-31793	12024	-10448	-184	-8312	-7932	-10838	3848	125	169	1
-10520	-4104	10988	-141	806	1624	-15020	-2720	-2748	-6643	8408	2046	-13244	-2076	-5056	-6485	6335	-315	-17872	9256	13600	-2257	-32768	22722	-10052	-4164	-11628	-15849	-32768	13019	-7364	-1420	-7488	-6510	-6796	2121	125	166	1
-10420	-4900	10816	185	425	1817	-15040	-3424	-1860	-5856	8409	2131	-13492	-956	-5660	-6613	6161	425	-20812	9844	15360	-2243	-32768	20322	-12588	-7292	-11576	-8872	-32768	13920	-8156	-2228	-6480	-5200	-3601	773	125	156	1
-10048	-4156	11204	234	283	2181	-15300	-3060	-3244	-3733	8406	2038	-14264	-1968	-6452	-5380	6040	1250	-23484	10680	16260	-563	-32768	18389	-14200	-6688	-11692	1116	-32768	16444	-6976	-3384	-6556	-2763	-165	-59	124	142	1
-8912	-3772	11636	516	986	2559	-15916	-1584	-4472	-3541	8359	2024	-14380	-2164	-7084	-4604	7068	1935	-30072	13188	17104	2138	-32768	19444	-16272	-4600	-11368	6429	-32768	19148	-5876	-5016	-4864	-2243	2371	-393	129	137	1
-11488	-3756	11600	507	1171	2488	-16668	-1740	-4620	-4380	7775	2098	-13880	-1068	-7508	-4114	7571	2528	-32768	13788	15072	2981	-32768	20939	-16584	-4284	-11644	6319	-32768	19659	-6564	-3372	-2500	-858	1106	609	112	153	1
-10984	-3020	11216	-437	2260	2528	-15520	-1696	-3768	-4906	7590	2032	-14860	-540	-5480	-3557	6847	2511	-32768	6304	10344	5962	-32768	20340	-18760	2144	-7476	-2098	-32768	21783	-12248	-656	840	-332	-5492	2546	128	150	1
-10952	-5180	11604	582	2971	2509	-15340	-2180	-1476	-5329	8013	2451	-14964	-284	-2468	-4450	7331	1773	-32768	2224	3048	8747	-32727	18876	-23120	-1540	-7856	-8550	-30723	18864	-19160	2432	8724	-2083	-8948	6079	135	154	1
-10800	-3748	11552	723	3365	2880	-15828	-3112	376	-5279	9237	2533	-16216	-968	-1164	-5081	7369	1328	-32768	-3712	-6252	2145	-21840	16944	-20336	-4532	-12320	-10806	-21677	11978	-24052	8240	21104	-7070	-8592	11099	131	253	1
-11220	-4660	12884	1941	4632	3662	-16056	-3416	-160	-4977	10701	3408	-18364	-3372	-2080	-6276	6046	1291	-32768	-10052	-18892	-2171	-13762	9662	-10140	-7352	-8316	-443	-13307	7642	-13032	9764	22288	-3906	8198	9324	129	253	1
-11660	-4580	12824	2350	6846	4880	-17560	-2784	-1372	-3364	12122	4088	-17040	-2844	-3632	-7498	4299	1876	-32768	-21828	-25928	3217	-5254	-629	-4104	2784	-6572	3080	2480	3321	-18276	-572	21368	-1291	1970	-532	130	219	1
-10836	-4104	13128	2503	9248	6177	-18060	-2212	-3644	-3627	13247	3979	-17728	-1692	-4468	-6670	3173	2686	-32768	2804	-20268	-14110	17429	-5780	-9596	2688	-5752	-1404	15728	-4233	-17276	-936	13584	640	-540	-6192	129	141	1
-10696	-3656	14172	2933	11940	7638	-17844	-644	-4716	-5686	13831	4586	-17196	-1864	-4944	-7261	2142	2817	-7212	2320	32767	-10804	17357	-6721	-27120	-4076	11684	6739	17767	-7222	-17464	104	12976	1084	-112	-5582	120	106	1
-10408	-4616	14208	3939	16019	9138	-20104	-2180	-5076	-7466	14236	5272	-20108	-4568	-4944	-5853	736	3669	-308	-8876	6620	-3193	24411	-9850	-32768	-3724	6536	408	7504	1701	-13804	-7092	-6940	8270	11689	-1390	132	69	1
-11164	-6244	13996	5695	22004	12177	-23332	-3272	-3064	-4975	14899	5547	-22880	-3596	-2196	-3556	-2105	4146	-25584	172	28460	-1394	29069	-8388	-8008	-4324	2300	-6129	11887	-4994	-21084	-4156	10272	-15381	2248	1574	140	51	1
-13120	-5100	13992	6437	28437	18135	-24012	-1116	-156	-4794	15346	5428	-24528	-276	1984	-3823	-6747	4849	-22216	4740	15944	429	21101	-8196	-26864	-1224	-6116	-9420	15475	-7397	-25044	980	-820	-6381	7801	1837	132	70	1
-13788	-6376	15296	6204	32767	24198	-24032	-920	24	-5256	15499	5278	-26316	-112	9092	-5931	-16555	4153	-31392	15048	13996	-5308	9107	-8849	-24676	-2548	-11828	-8080	13907	-3015	-19152	-9240	-1968	3125	7870	-1874	132	92	1
-16296	-5468	11124	3311	32767	30100	-29132	4440	9476	-21034	14856	4241	-26608	336	10936	-6479	-18612	3894	-10540	-1728	18824	-4892	4477	-5506	-15824	-2448	-8124	-5288	14874	-4355	-13056	304	-12236	15256	13208	1986	131	70	1
-25936	-3092	11632	4402	32767	32767	-21428	-4780	3940	-30880	15868	4402	-20640	5164	5040	-10007	-17105	5297	-11048	9836	11716	-4003	2247	-4271	-16364	-1984	-6848	-3110	12106	-1219	-11988	8512	-7764	5656	11199	499	129	77	1
-32768	-16924	10976	-2051	32767	31323	-19052	-11512	-6612	-26807	18131	5516	-18168	-6404	-4020	-11137	-14663	-387	-10236	5892	13328	-4017	1209	-3744	-14320	-1596	-7376	7636	8615	-2077	-14640	9800	-7356	-2120	11724	1750	136	84	1
-26184	-11316	10004	1874	25550	32767	-21672	-4064	-6760	-15539	15941	2814	-21148	-2328	-7640	-4376	-15598	-4048	-11012	4924	14436	-4188	521	-3697	-18528	4224	-3960	8212	6290	-1498	-16060	928	-3188	-3209	11776	-341	136	97	1
-1892	-13856	12264	1322	21426	32767	-18468	-3660	-4436	-6607	12675	704	-22804	2452	-7236	1097	-16081	-4819	-8512	6292	13464	-2454	881	-2671	-17880	3744	-980	-1849	6713	-2151	-19008	-3564	-1796	389	12579	-1615	132	79	1
-32768	-2176	9616	-3532	27456	23370	-14040	228	-13104	3738	5419	789	-18444	3896	-8276	2610	-15814	-5742	-9436	4136	13796	-1208	942	-2249	-15612	660	-1624	-9980	7042	-1297	-17036	-1548	980	3417	12152	-1866	126	90	1
-25408	-20300	13936	-9879	1214	-4220	-10428	4844	-18280	-3370	4877	-1073	-18640	3624	-6388	1961	-17906	-7075	-10648	4284	13248	-25	1444	-1101	-17012	-1652	-2912	-9054	6873	-1137	-15624	1956	316	4417	11963	-2861	129	90	1
-14768	-20220	12020	1325	-16080	-16663	-9912	3388	-7400	-15716	-80	-2712	-17776	900	-7052	-2921	-16666	-8264	-9672	4700	13184	430	1559	-511	-17252	-1036	-3348	-1092	5606	-1014	-14988	3680	-1804	2769	11902	-3780	124	107	1
-3900	-5752	8944	1708	-20075	-18935	-10060	-4244	-10324	-11805	-6107	-4889	-17572	-3712	-8428	-3706	-14656	-9960	-9504	5496	12832	406	1313	-595	-16312	1808	-3672	6363	4554	-462	-14892	3096	-3152	1353	12244	-2294	116	131	1
-3316	-3808	8796	94	-20073	-19186	-7792	-4624	-10360	3226	-9718	-5728	-18272	-2900	-8736	1964	-14260	-10142	-9636	5112	12796	162	987	-884	-16252	2356	-3900	6819	4537	-460	-15752	-88	-2632	4095	14197	-915	105	122	1
-7436	2312	6352	-16184	-19704	-23238	-7224	-2372	-10748	16894	-13115	-9541	-17120	864	-7332	4726	-15404	-9357	-9764	4660	12924	229	863	-744	-16844	1888	-3916	2724	3614	-716	-14216	368	-1832	9288	16121	-1783	106	125	1
-15348	-9540	4152	-13130	-26375	-22489	-9420	1236	-9952	20278	-16482	-12600	-17000	1328	-7068	4980	-15770	-9418	-9684	4624	12876	438	1051	-472	-17272	24	-3068	2023	3203	-992	-15032	3096	-3548	9715	15622	-3317	111	116	1
-11928	-2584	3368	-5758	-25065	-20992	-11756	6400	-10416	15903	-19753	-13964	-15796	-248	-5072	4968	-16707	-7450	-9548	5004	12788	434	1130	-337	-16476	1544	-2396	4451	2884	-968	-15484	5540	-5604	4643	12983	-2621	113	119	1
-11732	2288	4564	-9858	-19460	-25004	-14148	5944	-11940	7325	-21911	-9819	-14260	372	-5612	6173	-15794	-6411	-9804	5152	12396	157	796	-447	-15244	4304	-1472	4154	3471	-1150	-16832	5988	-3856	-1193	10352	-1238	121	120	1
-17448	-1904	5576	-12287	-16030	-28936	-9472	5440	-11228	-160	-24955	-11419	-13572	2384	-5664	7801	-14673	-6127	-9676	5356	12180	-347	190	-766	-15496	4740	-948	1295	4312	-1955	-16648	5752	-1060	-3652	9075	-1549	129	116	1
-17708	-4892	6528	-6652	-16451	-27443	-8636	2632	-10644	-3080	-26443	-14171	-10980	4440	-5952	5617	-12890	-5358	-9616	5184	12656	-696	-127	-1175	-15936	2496	-1004	-1083	4880	-2424	-16632	3868	-744	-3043	9554	-1897	134	116	1
-16804	1204	8940	-7260	-16677	-26575	-10536	-656	-11180	3398	-27257	-15654	-9460	4196	-5404	878	-11352	-5175	-9516	4692	13032	-566	-77	-1226	-16332	440	-684	160	5419	-2560	-16264	3100	-1820	-2858	8890	-2866	127	119	1
-19036	-888	10220	-11804	-16907	-26429	-12200	-68	-9996	13212	-28489	-16068	-9352	2480	-4500	-1011	-9696	-4937	-9500	5052	12900	-394	301	-1278	-16864	1572	-1672	1290	6142	-2794	-16260	3300	-2456	-2272	9662	-3741	120	123	1
-21632	-3148	11424	-10720	-17795	-25284	-13864	1648	-10448	17705	-30066	-15781	-9468	2836	-5364	-1327	-6841	-5424	-9524	4808	12708	-370	534	-1488	-16812	3064	-2180	-995	6376	-2930	-15496	2420	-3468	-2822	10235	-2696	123	127	1
-22436	-2240	13056	-8657	-17824	-26624	-14168	2824	-11024	18207	-31927	-14481	-8700	3148	-4756	-2651	-3416	-6272	-9204	4260	13044	-156	623	-1750	-16260	1388	-1656	-3640	6868	-3130	-14828	-1816	-3152	-3211	9848	-1823	125	133	1
-25344	-2048	14444	-7014	-17954	-29375	-15872	3480	-10172	14809	-32768	-12408	-8096	3912	-2356	-6518	-407	-6921	-9284	4176	13416	595	1054	-1999	-16200	-728	-2276	-1886	7490	-3338	-15912	-3680	-1708	-651	9024	-1427	126	132	1
-27084	7532	15152	-7751	-17903	-32291	-17752	2572	-8812	9196	-32768	-10697	-8868	372	-116	-8074	1364	-7114	-9464	4856	13480	1660	2018	-2714	-17964	1540	-2664	1723	7922	-3282	-17760	148	-2360	2267	8650	-887	125	129	1
-32768	11436	10980	-11184	-17523	-31514	-18256	1592	-9584	4203	-30675	-7126	-11864	-3392	104	-5550	3814	-8216	-9388	4228	14076	659	4753	-2509	-19260	704	-1924	4033	8365	-3945	-19240	5432	-2740	3934	7933	-368	124	127	1
-32768	13840	5680	-7059	-18442	-22932	-19616	1964	-10004	-1474	-25999	-4772	-17080	-7036	6788	439	2498	-9943	-9532	4676	14040	373	7633	-3122	-19108	2448	-508	5514	8734	-4557	-18608	3392	-992	5604	6197	-559	114	125	1
-32768	19808	-512	-1078	-15311	-12406	-18324	1176	-11220	-3624	-19824	-2350	-20912	-7412	13924	1023	2415	-11332	-10704	5604	13212	376	10897	-4212	-18396	2768	-244	5165	10101	-5674	-19016	1912	940	5971	6030	-1181	95	124	1
-32768	23868	-13852	-4013	-13088	-916	-12044	5764	-5564	-7253	-9211	-1460	-17996	-6900	14204	2246	12230	-6785	-9700	5252	14408	299	15064	-6013	-19984	2300	-404	4332	11375	-6410	-20216	2308	-628	6494	4823	-789	91	124	1
-32756	29908	-17592	-10725	-5122	5161	-5368	256	-6036	-3245	4067	-1175	-17264	-3136	14040	1481	10728	4911	-9804	4104	14360	-450	20191	-7177	-20792	76	192	4929	12399	-7236	-20300	3156	-1060	6211	3116	-1221	106	127	1
-4228	-3912	-3108	22656	6895	22937	-12676	-372	-856	-3308	14918	1775	-14916	-20	7100	1625	11787	13010	-9292	4088	14296	430	26039	-7917	-20400	24	-684	5517	13168	-8099	-21048	2632	640	6457	-35	-1803	116	130	1
-2632	-29868	32767	16556	10084	6374	-32768	-4256	21108	-11682	5954	7766	-17720	324	-1952	-1438	19982	13337	-11480	4028	13940	783	32767	-8217	-22972	1220	496	5915	13445	-9300	-22104	4580	2020	6412	-1644	-2201	132	133	1
-7392	12188	8388	17014	15331	20713	-22272	-17176	208	18186	3234	-2981	-21016	-2448	-3692	2889	17591	5158	-12152	6820	12860	1257	32767	-10496	-25616	84	4036	7399	14141	-9984	-24392	3628	5676	6922	-6336	-3383	129	127	1
-30776	-1772	14288	11050	8061	15306	-8232	3600	-1452	32676	9054	2107	-25856	-11852	-896	24304	9575	1179	-16388	7564	13252	396	32767	-15103	-26044	3084	7076	14909	14040	-10056	-23456	4800	10248	8704	-14328	-3533	129	117	1
-29496	-5320	9592	19476	5201	16368	-32768	6752	-6256	20095	13322	2232	-32768	2088	-2172	23889	9240	-1771	-21944	4300	12008	3384	32767	-16321	-25712	6512	5944	14558	16402	-11165	-22700	4460	8252	6281	-20081	-1259	136	111	1
-18348	10172	21120	11912	496	7774	-20916	7328	-7500	11342	13483	1231	-20044	10920	-2556	-182	21557	5148	-28728	12048	14548	6319	32767	-21583	-25144	9604	1148	10403	19229	-11308	-20776	476	6144	2335	-16727	-1733	148	106	1
-11868	-1100	15140	4018	2023	1247	-16364	7004	-1808	1557	11598	1002	-8348	11496	-2680	-16819	18580	8863	-31140	8344	25708	7020	32767	-24028	-21852	10520	-7020	3072	18751	-11759	-21556	9596	-4352	3461	-18270	2320	113	105	1
-10124	-3748	11764	969	3144	-745	-16236	-2060	-856	-9226	10072	-264	-8352	4148	-6488	-7853	13653	8628	-15568	15460	20468	12878	32767	-21460	-23676	2076	-6204	-2202	16788	-11924	-23232	10880	-10532	-327	-18704	5108	115	103	1
-9832	-5604	10440	-373	2878	-184	-13024	-9928	-444	-8667	7082	-285	-12488	-2172	-7920	1253	11141	-2700	-32768	16924	10224	17250	23999	-22547	-19388	-4848	-11816	-6831	10127	-7001	-24524	3884	-9808	-11741	-22942	4072	114	113	1
-10424	-5980	10176	-797	1492	1004	-13120	-10940	1616	3511	7170	485	-15924	-4084	-1144	-350	11204	-8607	-26140	32240	25316	-4872	-5898	437	-11832	-3716	-15116	-4376	7637	-12150	-22108	-1076	-6908	-17083	-24243	2857	135	108	1
-10544	-4796	11184	-513	158	1627	-14360	-1772	1940	3372	8387	714	-16992	-7240	-836	-7490	12612	-4661	-2692	12084	15156	-16459	-17685	-1469	-13508	-2892	-5392	12044	-381	-5479	-19836	1164	-5496	-10933	-23165	4039	150	134	1
-10964	-3624	11680	-922	207	1263	-17360	-268	2036	-5974	8186	1274	-17784	-7544	-3928	-13404	11631	-274	1164	360	11732	-3176	-19188	876	-9784	1076	-8596	12089	-6465	-514	-19908	2660	-8100	-5434	-19649	4980	149	140	1
-10692	-5064	11044	-1418	551	591	-15308	-3736	1880	-11884	8563	844	-16880	-7300	-3216	-10229	8001	4810	-1908	10848	10224	5217	-21455	4486	-10048	4108	-11392	-224	-9544	3161	-20536	2400	-8276	-4616	-18944	4744	138	157	1
-10904	-5364	10580	-1178	676	1054	-14604	-8124	1548	-9062	8887	1403	-15136	-4620	-3384	-6350	5896	3807	-8272	21356	9768	-3714	-26375	7552	-6304	1060	-10940	-7476	-15553	6502	-19996	2700	-7280	-4680	-18381	4764	134	154	1
-10888	-5124	10472	-639	161	1282	-13960	-5868	520	-2955	9768	1881	-13892	-588	-2068	-4519	4168	1449	-10832	19932	9248	-13387	-31952	12489	-8196	1688	-10972	-12503	-19651	8847	-17328	3888	-7068	-7960	-17298	7069	131	157	1
-10760	-4428	10868	-96	-315	1688	-15012	-2900	-1060	-1481	9968	2192	-13624	-208	-1720	-4440	4144	1065	-13628	16056	7044	-13422	-32768	20366	-9096	236	-9268	-17420	-23591	10558	-15520	2944	-8276	-12710	-16728	6738	129	164	1
-10460	-4744	11188	110	-174	2002	-15716	-1976	-2296	-2530	10352	1984	-14200	-896	-5948	-5164	5463	-134	-13896	12492	5628	-9877	-32768	26355	-10380	-1384	-10748	-21121	-25589	11649	-13812	1332	-8196	-18390	-16069	6647	130	166	1
-10540	-4504	10916	234	7	1762	-15544	-2012	-3996	-3993	9837	1713	-13744	-2672	-7296	-5503	5231	743	-14640	8888	6464	-7187	-32768	28116	-11208	-2344	-11100	-23633	-28732	12667	-11576	-3248	-6316	-16207	-14507	5576	131	164	1
-10676	-3920	10856	126	762	1417	-15332	-2408	-4692	-4514	9044	1649	-12416	-2620	-7584	-5137	6624	1941	-18892	5956	9880	-3217	-32768	25963	-11960	-4612	-12644	-22711	-31885	13213	-9584	-6004	-5384	-11540	-11078	4011	126	156	1
-10904	-4060	10860	-116	786	1347	-15560	-2544	-5664	-4007	8347	1847	-12976	-800	-8212	-3743	7939	1812	-22424	5612	14176	695	-32768	21593	-13584	-6872	-13468	-15731	-32768	13384	-10508	-5336	-5780	-3624	-7767	3820	129	156	1
-10568	-4080	10732	-300	1185	1226	-15740	-2236	-5224	-3445	7866	2025	-13080	892	-7780	-3513	8216	1645	-24140	5916	16828	3834	-32768	18170	-14628	-8704	-13580	-1008	-32768	15698	-9848	-4156	-4996	7306	-4390	2397	129	160	1
-10736	-3880	11120	-412	1465	1279	-15708	-2156	-4712	-3388	7550	1870	-14360	-1836	-7132	-3633	8463	2648	-26796	5880	19356	7697	-32768	17240	-16096	-7100	-13708	13868	-32768	18267	-8448	-2548	-3844	12425	-255	2683	127	162	1
-10856	-3904	11104	-893	1951	1266	-15888	-2672	-4272	-3497	7395	2026	-14660	-2804	-6428	-2457	8879	3022	-30860	6996	20484	12000	-32768	16633	-15716	-2752	-13992	19266	-32768	21516	-6592	-1840	-3764	12111	372	3804	127	156	1
-10884	-4088	11384	-1553	2747	1725	-16620	-2932	-3568	-3212	7453	2077	-15984	-2128	-5048	-1751	9095	3079	-32768	6748	17528	15639	-32768	14377	-16904	1536	-9936	15888	-32768	24983	-9180	992	-3104	12111	-2521	4545	124	167	1
-10364	-5516	13012	-1975	3963	2120	-17572	-2464	-2112	-5095	7572	2093	-18124	-1400	-2960	-3198	9136	3554	-32768	3212	7920	18779	-32768	12530	-20156	4296	-6572	7934	-32768	24477	-14892	5116	1864	9139	-6270	7329	127	165	1
-10920	-4756	12376	-1306	6370	2624	-18532	40	-316	-8048	8107	2552	-18320	-992	-640	-4211	8632	2419	-32768	-496	-1684	16288	-32768	13055	-19936	-3684	-6944	-710	-25281	19944	-20248	9956	15500	1318	-7289	11689	129	155	1
-10956	-3856	12248	-762	8692	2826	-16672	-2108	2208	-9098	10515	3193	-18348	124	1420	-5053	8085	2368	-32768	-7904	-10252	9246	-18748	15275	-18252	-4096	-7612	-1607	-15834	13102	-16124	15664	20160	1234	1320	11815	127	214	1
-11664	-4980	11944	-422	11206	3359	-16928	-3700	2392	-4368	12506	4370	-19276	-1004	-704	-6568	6357	2465	-32768	-13924	-22948	3563	-7767	11674	-7224	-4720	-5600	2076	-5127	6010	-14680	8156	21352	-3941	7274	6576	130	210	1
-12172	-5836	12360	1269	13874	5602	-17948	-3588	-1500	-480	14245	4588	-17704	-3760	-2900	-6784	4247	2761	-32768	-19184	-24952	6092	5661	7736	-3592	3956	-3648	-3002	9404	-156	-17300	6404	20596	-5492	642	-4565	129	179	1
-11504	-5552	11900	2238	17360	7859	-18168	-756	-3252	-1939	15500	4727	-18048	-2948	-4020	-5222	2489	3013	-32768	-6028	-15636	-1574	18903	5056	-9632	-2692	-8676	-12814	23129	-9179	-15876	6084	15972	-13336	357	-4778	127	157	1
-11408	-5256	12088	2976	22755	10904	-18544	-596	-3720	-3819	16168	4640	-17876	240	-2904	-6406	495	4324	-32768	-3676	-10068	-5149	21052	5615	-32492	2332	18904	4970	17708	-7886	-3944	5992	-17876	2598	16988	-1843	122	115	1
-11368	-4028	12788	2865	28737	13450	-20216	-732	-1464	-7134	16651	4836	-21360	-2680	-784	-6132	-2651	5249	5896	-29840	1896	-11575	32767	-9371	-27348	13536	4692	-18653	1407	5865	-14580	-5384	-6780	-4937	17547	-2578	127	84	1
-13884	-7868	12324	2964	32767	17354	-25232	48	3672	-9684	16913	5464	-24172	-528	5456	-7438	-9134	4495	4320	-27092	4432	-11891	32767	-11776	-2540	-13048	-1836	-32768	13282	-9992	-25084	5632	12288	-32768	551	7494	131	34	1
-13956	-9600	9552	3451	32767	23594	-25980	1472	6148	-14834	17734	4302	-24352	4352	17036	-8539	-20916	4197	-21136	3152	18392	-3378	26638	-17827	-32768	-10252	-1908	-23784	16386	-10245	-32768	-8748	11376	-28501	6793	628	132	109	1
-26512	-13496	9144	5373	32767	30465	-25628	-2484	10624	-28584	18416	3722	-18512	7192	9416	-12971	-17530	4687	-32768	23916	9816	-18199	8466	-18935	-27400	-1752	-13956	7060	12149	1742	-26600	-27836	5176	7580	9214	-9812	130	132	1
-32768	-4492	11084	-1027	32767	32767	-23308	-9324	-416	-23936	22717	3011	-24548	-5436	2564	-16933	-16211	1473	-17880	-9160	23976	-9108	3295	-7754	-13620	-2424	-3692	-6757	19107	-4234	-10648	5500	-11072	26537	16065	2071	131	144	1
-32768	-20896	16308	-3273	32767	32767	-28292	-15984	-8368	-10638	22959	5656	-25332	-11368	-10168	-10395	-14879	-4213	-12044	1500	16624	-5879	205	-4952	-15208	-2524	-10248	-3189	16288	-5280	-8664	13508	-10056	11146	8277	6943	136	139	1
-21660	-18876	18176	1209	26386	32767	-23680	-1196	-8176	-1207	17235	1824	-29628	-1572	-11700	2578	-17023	-9202	-10708	8988	12228	-3453	-148	-2994	-12288	4700	-9004	7929	11216	-2943	-11776	12984	-7176	-2229	7893	3559	133	104	1
11464	-6412	10684	650	32767	32767	-17792	-3736	-9476	4500	8696	1530	-27076	2236	-11296	7403	-19821	-6598	-9696	6540	13044	-2629	235	-2740	-18528	6392	-7288	-620	9722	-3112	-16816	4260	-6548	-4122	10877	-2682	134	92	1
-32768	-16032	19164	-9142	11754	4635	-11392	-1384	-31340	9919	4009	2415	-20888	-460	-8864	8155	-21149	-7794	-9808	4664	13544	-2598	-18	-2821	-18532	1388	-4344	-1815	8604	-4755	-22032	-1772	-4480	-1022	11473	-1010	127	87	1
-18256	-22876	15488	-1596	-15504	-17987	-9420	8644	-11144	-8599	-84	-1052	-22292	1164	-8840	3548	-20529	-8226	-9660	3840	13824	-1690	471	-2297	-17248	-1524	-4028	-5256	7858	-3163	-13232	760	332	1723	11861	-619	118	83	1
-9504	-12612	9844	5940	-28293	-20493	-9956	-3280	-9724	-18392	-7641	-3104	-20132	-580	-10960	-269	-18559	-7346	-9784	3692	13700	-770	982	-1502	-16516	-2720	-3060	-1559	6570	-1510	-16504	-2060	-1552	3880	12521	-3882	116	90	1
-3316	-1684	7760	-81	-32003	-19293	-6768	-8360	-10412	-3764	-13144	-2866	-17220	-2000	-10720	1182	-16942	-9291	-9588	3880	13220	21	1299	-893	-16332	-2080	-3248	-1230	6592	-1395	-15468	-540	-2352	3916	12222	-3392	113	99	1
-7588	-1916	5840	-11390	-30493	-20613	-5408	-8408	-9868	-1158	-13652	-3074	-16728	-1096	-9228	6492	-16335	-9645	-9480	4712	13136	296	1339	-795	-16668	1496	-3700	739	4800	-1612	-16060	248	-2640	6327	13127	-2202	113	111	1
-14560	-9140	5920	-12560	-32768	-24160	-6648	216	-13140	26142	-21889	-8211	-14472	592	-8732	8594	-17792	-8949	-9644	4844	12760	147	968	-838	-15824	1304	-4156	3362	4376	-864	-13916	1924	-3028	9762	14214	-1229	115	108	1
-16008	-8828	4040	-5311	-32768	-26117	-7740	5012	-10784	20438	-26679	-9254	-14112	16	-8688	9768	-17455	-7011	-9764	4472	12784	81	612	-781	-15804	1784	-4028	5071	4454	-989	-14884	3860	-2428	10728	15281	-2185	121	117	1
-14248	-2212	2872	-3346	-32768	-28155	-11220	5456	-11884	11351	-29279	-6955	-12728	636	-8460	11285	-16328	-6062	-9624	4668	12868	53	428	-779	-16756	2148	-3408	4749	4173	-1181	-14404	5400	-2048	7036	16013	-3436	123	124	1
-17700	1092	3868	-7975	-27249	-32215	-11836	1568	-12516	7909	-32398	-5150	-11016	1716	-8540	12004	-15446	-4969	-9724	4648	12824	-86	371	-726	-16080	2768	-2928	3172	4514	-1342	-14736	6056	-2440	1090	15966	-3725	130	126	1
-22424	-4832	4536	-7075	-24300	-32768	-8704	3132	-12800	6402	-32768	-7415	-9824	3796	-7492	10841	-14903	-3728	-9596	4600	12816	-197	224	-775	-15624	3340	-1796	986	4536	-1789	-16124	5524	-1844	-1079	14056	-3082	134	120	1
-24080	-3860	5684	-1717	-23594	-32768	-10400	1224	-13440	5079	-32768	-8443	-8920	4336	-6300	8387	-13558	-3934	-8852	4572	12860	-315	26	-1120	-15824	2200	-1212	1	5400	-2073	-16804	3460	-2124	-2122	11581	-2745	135	117	1
-23280	-912	7028	-3385	-23811	-31162	-10808	804	-12784	5160	-32768	-8336	-8696	4796	-5840	3461	-10630	-4595	-9380	4768	12816	-780	-155	-1280	-15644	1596	-780	970	6183	-2120	-16948	3128	-1508	-3692	10319	-2810	136	119	1
-25244	-3600	8688	-5775	-24094	-27919	-12784	1476	-11520	10408	-32768	-9649	-8224	5472	-5260	-1813	-6206	-4766	-9456	4508	13112	-605	-89	-1422	-15720	1952	-2196	-146	7226	-2148	-16116	1752	-892	-3542	9814	-1990	136	113	1
-28392	-5080	11036	-5932	-25661	-25475	-14476	800	-12684	10059	-32768	-10776	-6752	4740	-3044	-6118	-2098	-3908	-9456	4372	13360	-379	256	-1577	-15892	1464	-2532	-387	7303	-2195	-15820	-112	-1304	-743	10084	-1641	132	115	1
-32016	-2812	11368	-5859	-27736	-26266	-16056	1900	-11212	7974	-32768	-10376	-6920	1960	-984	-7323	-1149	-4284	-9112	4804	13496	-154	826	-1906	-16948	1920	-2568	2131	8066	-2333	-16260	840	-1812	924	10285	-684	128	114	1
-32768	4208	7680	-8532	-26621	-28933	-17460	0	-8292	5386	-32768	-7545	-8412	-2628	-1004	-5520	-602	-5588	-9800	4304	13500	1385	1480	-3038	-17524	1452	-3048	3471	8658	-2383	-17012	964	-1740	3428	9837	133	125	115	1
-32768	3348	1844	-6383	-24476	-25937	-17740	512	-8856	4902	-30729	-5057	-11856	-4816	516	4519	-516	-8212	-9340	3620	14196	1070	3174	-4179	-17960	3340	-2296	6430	8998	-2119	-17052	1812	-1176	5631	8979	640	115	121	1
-32768	8160	-280	1078	-19004	-19785	-19528	2124	-17136	9132	-26046	-3601	-20176	-4952	13388	9396	-7219	-12654	-10952	4104	13332	545	6186	-3966	-18328	-988	-1824	8155	10151	-3954	-17328	3076	-1112	7738	7219	1274	93	126	1
-32768	20392	-8124	-4831	-12701	-15095	-17032	4836	-7436	-94	-18381	-1968	-22780	192	13720	4834	91	-10855	-9892	4192	14120	364	9462	-3906	-17212	3892	-1488	7387	10969	-4986	-17916	4500	-1252	8108	6414	-270	61	122	1
-32768	21896	-16196	-11142	-14060	-3667	-9096	4192	-9740	-9749	-5866	-2221	-16336	-2604	14968	-2748	6754	-2592	-10540	4996	13856	1123	13244	-4823	-19324	3120	-2580	3647	12563	-5952	-18664	5968	-2500	6526	5512	-754	70	123	1
-32768	20496	-18228	-7812	-9724	8356	-4992	-976	-6388	-11959	5628	-2185	-15340	-2768	15128	-6644	7055	5518	-9120	4788	14384	295	17917	-5776	-20644	528	-3064	4009	12644	-6409	-18584	4724	-3492	4976	4201	-640	89	124	1
-18300	-772	-2720	14650	-3270	14308	-11792	1528	-6768	-11684	17190	1147	-14892	-1644	9384	-8103	6760	9236	-8788	4068	13940	108	23017	-6884	-19960	-960	-4380	4614	13066	-6772	-18380	1892	-2276	6155	2938	-2172	105	125	1
516	-24332	32220	15606	4081	20941	-32756	-6420	23164	-21271	8419	3462	-21044	-1416	-1376	-11538	9480	11260	-11688	3624	13696	-508	28738	-7658	-20776	400	-3584	5415	13050	-7556	-19332	4228	-1440	5854	2569	-2666	121	123	1
-272	-1064	2296	13915	23785	19302	-26196	-11836	5812	15968	5194	-2316	-27980	-1568	1560	-4810	5342	4279	-13024	4784	13396	-327	32767	-8862	-22460	1340	-64	5553	13690	-8459	-21580	5276	2336	6016	-53	-2745	125	127	1
-31904	-4972	25320	11150	23649	17348	-10116	10580	3180	28126	13039	2393	-29940	-7528	6352	19975	520	-9208	-12960	5944	13208	-390	32767	-12746	-24612	3708	2848	8784	14080	-8656	-23648	4660	6788	6657	-6071	-2549	114	131	1
-16608	368	11340	11086	20238	17981	-32768	852	-8020	14300	16390	3575	-23664	-7452	4280	31126	4705	-7875	-19064	8780	13748	1330	32767	-17584	-28276	2632	4160	11360	15244	-8534	-24524	4808	7760	6569	-7782	-2367	96	118	1
-17072	4368	15548	16583	1115	14878	-18660	-9484	-8012	5670	15620	442	-19832	8840	12132	6965	11778	6238	-23120	7732	13372	9558	32767	-18173	-28584	1792	3836	11803	15652	-8413	-22936	-1732	7764	5169	-16928	-2548	139	112	1
-18124	300	16468	7842	101	6262	-13316	-1048	-7936	22269	17197	2016	-3132	4020	-10288	-19096	27693	12494	-32768	8736	26376	13856	32767	-22693	-24008	9572	-3696	19475	18478	-7977	-22780	4492	148	7819	-16413	337	133	105	1
-13164	-3836	13304	3044	722	1770	-16876	824	-4496	17020	15720	1863	-9576	956	-14576	-12711	13891	7563	-29460	15592	25296	12031	32767	-25726	-24180	8188	-7400	8337	17780	-8702	-23620	9004	-7836	6361	-17071	4355	112	106	1
-11144	-4792	10928	1203	878	1869	-16236	5512	-4888	-3065	11158	-75	-15224	532	-7188	2579	-825	-3380	-10684	14504	20000	15358	30211	-21532	-21448	-4612	-7348	2765	13971	-7474	-25032	3972	-8676	-2978	-19503	5403	139	106	1
-10904	-4272	11132	350	104	1863	-13304	1820	-3844	-22051	8555	-1831	-13676	-1988	-696	2984	3467	-4769	-32768	31996	32767	9509	10075	-5953	-15240	-10608	-23752	-8024	10862	-7007	-21904	-2328	-7420	-10093	-22423	3885	150	77	1
-11176	-4312	11124	85	-336	1434	-17696	-8144	-2684	-23330	8006	384	-15852	-5632	-28	-1446	11222	-73	-7884	21148	20736	-2443	-12936	5313	-14612	-5556	-5056	9451	6089	-5548	-22296	-2228	-4572	-10398	-22496	4034	149	116	1
-10712	-4188	11408	227	-631	1134	-15048	-12432	1236	-76	8864	2246	-15728	-440	1492	-5794	14728	5205	28	5312	12592	-2373	-16491	1025	-15780	-5292	-2716	12663	4568	-4260	-18708	-180	-4284	-1636	-21514	4576	138	145	1
-10308	-4532	11196	600	-267	1325	-13500	-5824	-972	16435	10656	851	-15380	-1880	-324	-6217	15235	5883	-1816	5304	10804	4653	-17549	1477	-6356	4448	-6448	11578	-5151	5222	-18632	1340	-5820	2320	-19544	4881	147	127	1
-10564	-4124	11228	94	499	1352	-17200	1336	-3132	14505	9907	1648	-16756	-3408	-4084	-846	14934	3167	-6628	12936	11204	4540	-21183	3193	-6644	1876	-7152	-4935	-7485	7626	-18344	1968	-5496	1895	-19581	4957	152	150	1
-10888	-4336	10872	-167	584	1106	-16616	4860	-3796	-3039	8024	1273	-16052	-1788	-4692	-416	14355	3293	-7060	15204	10952	-1054	-25275	6740	-9056	-1088	-8144	-13033	-11780	11162	-18192	2736	-6392	-4608	-20803	6362	136	158	1
-10900	-4200	10924	-506	857	1072	-15440	-344	-4520	-14694	6223	93	-12700	976	-3948	-6163	14542	3911	-7668	12740	11060	-2365	-28061	14124	-11876	-4444	-9164	-13806	-16638	14135	-17252	2620	-6312	-8042	-20067	6459	128	155	1
-10728	-4228	11000	-737	1075	1158	-15196	-5296	-3548	-13494	5751	346	-15304	2060	-4036	-11247	14673	3374	-9056	10644	10468	-556	-29082	22642	-10352	-5136	-8592	-9770	-21184	14298	-14972	1452	-6256	-9363	-18223	4328	141	154	1
-12548	-4320	10892	-370	695	1128	-15960	-6968	-2572	-3437	6423	1209	-15052	-2096	-4360	-7296	15019	2777	-11740	6700	11104	1569	-28932	26867	-9628	-2804	-8548	-10645	-24972	15295	-12636	-1184	-5728	-9804	-15892	2619	135	160	1
-11316	-4172	10968	-484	847	986	-15828	-3660	-3260	3651	6875	1827	-15956	-5500	-7184	1398	13214	2121	-15900	3392	13820	4270	-30049	26105	-9732	-2924	-11024	-13974	-28707	17644	-10280	-2728	-5776	-6634	-13436	1888	126	156	1
-10916	-4388	10776	-69	835	1240	-15428	-552	-4024	1270	6288	1495	-15544	-4988	-6476	1036	11771	2864	-19796	2176	15392	6969	-32768	22175	-11740	-4008	-10896	-12431	-31731	19199	-9376	-2180	-6432	-449	-9402	1984	132	152	1
-12144	-4508	10844	-243	846	1258	-15640	-640	-4588	-3992	5892	1234	-14644	-2208	-5172	-1614	12534	4729	-21704	4360	16024	8105	-32768	17630	-13236	-6472	-11688	-5894	-32768	18982	-9060	-1440	-6176	5385	-7117	2854	127	154	1
-11028	-4244	10604	-465	1235	1282	-15952	-2260	-3208	-6980	5613	1430	-14424	60	-3944	-1231	12531	4618	-23528	7368	17000	7917	-32768	17299	-14460	-5724	-11800	4312	-32768	20100	-9056	-848	-6968	10340	-4301	3971	124	158	1
-11076	-3796	10712	-557	1390	1357	-15320	-3592	-2280	-4082	6109	1772	-14952	792	-2884	272	12033	3789	-27460	9560	18468	7933	-32768	20592	-15740	-3756	-12820	8812	-32768	21824	-7856	-444	-6968	10660	-745	5147	127	174	1
-10724	-3952	11020	-730	1515	1507	-15412	-1880	-1040	-1844	7175	1975	-16036	572	-2364	-284	11221	2963	-31080	9944	19096	8512	-32768	22641	-16756	-1264	-12612	6741	-32768	23803	-6392	-148	-5320	8743	825	6044	126	185	1
-10768	-3732	11120	-695	1621	1537	-16024	-1312	-1624	-2004	8206	2232	-16792	-220	-2656	-1326	10365	2266	-32768	5660	16652	11235	-32768	21883	-17088	864	-9104	825	-32768	25247	-8304	2392	-3140	7819	-2408	6994	121	194	1
-10336	-3520	12364	-235	3962	1967	-17188	-1100	-328	-4599	8959	2296	-17820	-1448	-1708	-2993	9975	2246	-32768	-1752	10872	16585	-32768	19462	-20904	-128	-8120	-5352	-32727	23678	-13252	4596	1148	-121	-3855	8994	125	169	1
-10708	-4388	12044	-455	5685	2180	-18004	-1140	-624	-6607	10017	3196	-17680	-240	-1224	-3910	9060	1614	-32768	-5140	4408	15295	-31275	18762	-21560	-8008	-10348	-7031	-27229	18642	-22708	6888	16032	-7311	-5999	9280	128	176	1
-11108	-3836	12380	-281	8165	2205	-16724	-2676	-524	-4703	11565	3769	-17752	660	-516	-5036	7815	1547	-32768	-14372	-7780	7159	-20792	17195	-18124	-9116	-7796	3553	-19032	11253	-16120	13740	20340	-6001	251	11481	125	207	1
-11320	-4052	12272	212	10570	3004	-16904	-1640	-348	-4367	13333	4637	-18440	-1716	-1944	-7186	6279	2032	-32768	-25740	-23408	8565	-12374	6044	-4492	-2840	-4444	11280	-6534	6876	-16132	6324	23772	-4710	7434	5179	125	185	1
-11872	-5540	12372	589	13277	4646	-18124	-1216	-1408	-3950	14788	4812	-18032	-2404	-3856	-7685	3792	2863	-32768	-20156	-24972	11632	1240	-494	-3528	4268	-4328	1875	11294	-589	-16788	2016	23536	-2989	181	-5676	128	160	1
-11364	-6344	12884	2116	16811	8103	-19140	-1060	-2932	-4574	15577	4583	-18500	-712	-3768	-6447	1643	3167	-32768	28596	-472	-26606	22925	-13292	-11560	-52	-4548	1788	22900	-11742	-16092	3608	9520	-7105	2607	-7842	129	147	1
-10680	-5984	12816	3093	22999	11493	-19488	-196	-4276	-4457	16134	4714	-18816	176	-2540	-7822	-222	4362	11744	20956	30588	-21080	20398	-6012	-32768	19204	25296	12802	10161	-3954	-18704	1764	-1116	1725	8149	-5914	129	112	1
-10472	-4756	14368	3297	29933	14715	-22304	-920	-1916	-6236	16524	5352	-23320	-3452	-916	-6026	-2989	4646	-15000	-19748	12824	-15189	31460	-17176	-8792	-1380	-1924	-29038	10441	-722	-16184	-3288	6068	-7110	7448	3054	129	104	1
-11816	-7004	13620	3160	32767	20426	-27584	2140	3444	-8261	16382	5566	-26160	-140	7064	-6480	-12177	5238	-22528	-7476	27428	-9248	20592	-19222	-26488	-13404	-4892	-23115	19006	-16935	-29668	14604	9764	-25710	5965	9815	135	52	1
-15172	-10524	11740	3500	32767	24175	-29912	1208	6716	-18285	16518	5486	-28344	920	15720	-6137	-23044	4950	-23340	23304	12356	-8225	18437	-11621	-26708	-1020	-7056	-12627	19264	-9992	-23452	-21212	-6536	-6742	9724	-5050	136	102	1
-28372	-16028	11612	10445	32767	32767	-27244	-6468	7908	-30265	16948	6137	-21624	2808	8620	-10941	-17003	4853	-32768	2456	22080	-12300	10082	-13727	-13304	-436	-11104	-4898	16086	-4321	-12680	-13392	-7588	15336	10376	-2599	128	77	1
-32768	-4352	13880	-941	32767	32767	-20756	-20548	-3676	-18621	22263	7028	-22944	-13568	-1852	-13557	-14957	234	-14676	4104	16884	-8936	3234	-7870	-14004	1668	-10808	-10703	18750	-5492	-11780	17360	-8724	14286	9658	8586	137	165	1
-32768	-21864	13916	3976	31295	32767	-28080	-8944	-11292	686	19992	5779	-24512	-13616	-11544	1418	-15008	-6461	-11160	6468	14364	-7061	223	-5471	-19296	-3588	-11312	-2745	9968	-6266	-13652	10236	-9340	-4590	9337	3778	141	109	1
3196	-18592	14620	4571	26512	32767	-20876	-4792	-6808	6888	15154	4825	-27972	284	-9676	10864	-17455	-5864	-9256	3504	14864	-4708	-349	-3416	-16324	-2188	-7388	6361	11664	-2343	-16940	2340	-4428	-3946	9998	-1907	132	90	1
-32768	-4880	8416	3356	32767	22492	-17144	-1172	-15460	13625	4961	5683	-22152	1664	-10552	11770	-18059	-4743	-9164	3464	14488	-3132	32	-3294	-17372	-868	-5656	15386	7922	-2571	-17828	-1608	-2944	2137	10622	-3047	132	93	1
-29384	-24168	14968	82	2596	-15052	-11920	1968	-20492	4118	5518	4797	-21352	-152	-6744	11048	-20152	-6566	-8964	3768	14292	-1567	678	-2651	-17800	5144	-2360	7613	8022	-3767	-16608	-176	-1012	5743	11277	-1776	131	89	1
-14612	-20648	13888	14459	-18209	-23368	-10580	368	-8076	-9508	-1100	575	-21132	1508	-7868	4171	-19281	-6948	-9912	3496	13696	-497	1360	-1872	-16536	3888	-4680	-5022	7890	-2163	-15672	-4	-1644	8554	12671	-1811	120	102	1
-7424	-5796	8280	15755	-25828	-18409	-12084	-7732	-9884	-6296	-8011	-1693	-19816	-3124	-8880	2718	-18170	-7793	-9764	3780	13464	99	1593	-1130	-15924	1916	-5184	-11254	7425	-1914	-14748	1380	-2776	9677	13135	-3128	120	85	1
-8372	480	5756	1834	-27093	-17141	-7548	-9192	-10480	10205	-12021	-1026	-19896	-3060	-8536	6654	-17453	-9430	-9560	4364	13336	412	1646	-900	-17016	-932	-5672	-7008	5783	-2220	-15432	2824	-3728	9806	13598	-3181	114	109	1
-13972	-6432	3828	-7164	-29986	-18820	-6656	-5012	-14976	26773	-16602	-3473	-19112	-2856	-8604	12035	-17616	-9395	-9512	4840	13092	367	1368	-1086	-16144	-2288	-5244	7047	3885	-1573	-15724	3004	-3744	12387	13924	-2375	108	109	1
-14644	-11604	2360	-2149	-32768	-21663	-8296	2448	-13220	29740	-20521	-4475	-16832	-1216	-9496	14973	-17759	-7911	-9604	4300	13068	231	1145	-1226	-16456	2432	-4780	15509	3235	-333	-15204	5632	-3348	12585	14999	-2647	109	107	1
-12860	-6580	1812	5111	-32768	-23647	-8940	5532	-13252	20779	-24612	-4540	-15956	1684	-10384	15564	-18344	-4934	-9740	4336	13192	271	996	-1237	-16052	7860	-2860	9713	4128	-1102	-14632	7460	-2476	9053	14865	-4044	118	113	1
-13016	-452	2556	1915	-31614	-28568	-9424	3748	-13184	11154	-28273	-1009	-12272	3636	-9924	12944	-19188	-2246	-9704	4364	13124	173	898	-1232	-15512	6200	-2740	-1238	4197	-2376	-14868	7044	-1396	3035	14729	-4467	127	122	1
-15804	-3732	3252	-1328	-28608	-30983	-7136	2888	-12112	3296	-32685	-884	-9720	4272	-8580	7723	-16470	-2091	-9412	4544	13088	-168	991	-1297	-15788	2048	-2800	-4644	4605	-2880	-14820	4440	-1568	-2410	15352	-3547	133	129	1
-18548	-6868	4192	1827	-27706	-29593	-6520	156	-12484	-1361	-32768	-3020	-8308	4676	-8704	931	-11748	-3136	-9612	4240	12972	-208	876	-1470	-16176	-572	-2520	39	4783	-2424	-15964	1640	-1200	-1934	14001	-2817	138	119	1
-18276	-6332	6012	4552	-28229	-28161	-8040	-2880	-12480	1294	-32768	-5541	-7160	3088	-9232	-6175	-7189	-5200	-9588	4060	12820	84	667	-1731	-15832	524	-2052	5337	5742	-1888	-16272	1060	-1880	1135	11334	-2641	139	114	1
-20612	-7644	7580	3169	-28569	-27079	-9692	-3640	-12480	8932	-32768	-5910	-5956	1448	-9848	-7630	-4751	-6569	-9508	3916	13208	609	429	-2167	-15288	2356	-2496	4628	6176	-2032	-16156	2276	-2180	-28	11454	-1780	137	118	1
-27652	-11148	8116	2395	-30411	-26528	-11292	-2348	-13216	15895	-32768	-6271	-5424	1232	-9344	71	-3082	-7238	-9612	3920	13316	538	830	-2330	-15904	2852	-3532	457	7080	-2088	-15808	2096	-2836	-2005	11077	-716	134	115	1
-32768	-9544	7020	1912	-32751	-27800	-13460	-708	-13572	20508	-32768	-6516	-3952	2480	-6560	7332	-1866	-6596	-9356	3068	13992	202	2177	-1915	-17628	-100	-3464	426	7225	-2494	-16376	936	-2708	-177	11460	-251	131	120	1
-32768	-1816	4168	-2842	-32029	-29962	-17120	2900	-13832	20617	-32768	-5452	-4620	2048	-5020	10120	291	-4565	-10000	3036	13724	520	3846	-2003	-17948	-988	-2816	3894	7535	-2617	-16844	-656	-1512	3086	10571	-430	126	122	1
-32768	568	-1440	-8104	-29100	-29399	-20424	5540	-12736	10733	-32768	-3634	-12732	-400	-764	14870	-1621	-4783	-9736	3480	13776	896	5469	-1938	-16900	1776	-452	6837	8627	-2721	-16964	1008	1028	5202	9364	-383	125	124	1
-32768	1168	-2172	-8323	-28531	-28762	-19728	2584	-17592	-4171	-30177	-3516	-27176	-5384	15812	17344	-20402	-8416	-10356	4244	13412	1010	7712	-2110	-16604	4008	-1112	6445	10545	-4166	-16992	3944	568	7526	7902	390	85	126	1
-32768	17348	-12052	-13388	-15030	-24382	-16000	1272	-12948	-19873	-22303	-834	-28300	4000	14652	4530	-8457	-6741	-10296	4444	13560	1448	10793	-2540	-17992	4476	-1908	5113	11629	-5570	-18256	8344	-1760	8116	6780	-175	8	127	1
-32768	12796	-22620	-6322	-15826	-3062	-7076	-1464	-10492	-21970	-9354	-2380	-9804	-316	17624	-4554	8332	-3387	-9960	4976	14400	775	14443	-3867	-19444	3536	-2880	5468	12603	-6443	-18904	6820	-2068	8416	4934	-987	18	125	1
-32768	26960	-24204	-11545	-13901	10398	-2720	-5464	-5908	-7891	5204	-5521	-14776	1520	18884	-13803	7343	632	-9348	5440	13972	596	18943	-5520	-19580	1472	-3340	7080	13208	-6662	-18560	2032	-1728	8068	3024	-1325	72	129	1
-32768	-3256	-26156	14651	97	17991	-13272	-3516	-60	-4526	18282	575	-18540	400	10804	-12575	5470	7553	-10092	4888	13352	-177	23663	-7589	-19240	536	-3540	8522	13848	-7072	-18592	1736	-528	9857	1788	-1113	91	129	1
14496	-18720	32767	24469	12573	18044	-32768	-4284	28452	-5153	9962	3744	-21676	-4048	188	-12738	11251	4819	-11516	4392	13788	-1225	29094	-8876	-21836	1868	-2260	8576	14585	-7964	-21296	5796	604	9836	202	-1260	83	137	1
-12780	1272	5376	16481	28183	13315	-24736	-6596	-1768	27211	11891	1630	-24504	-10396	12956	-3085	10245	-7250	-11944	6116	14264	-1378	32767	-11408	-25076	2272	1336	8187	15707	-8608	-23988	5404	5544	9590	-4436	-1314	74	132	1
-32768	8796	28516	6663	18408	18369	-8736	15060	-2672	32767	17674	3065	-24524	-8084	10128	29682	12178	-1894	-14692	8412	15280	-303	32767	-17226	-29488	2560	4060	11850	16372	-8235	-29264	3840	12040	9606	-14688	-1279	81	122	1
-32284	9252	22168	4970	14962	19430	-32768	9280	-8384	17012	19321	2794	-23112	16180	-6388	29111	13258	5402	-24428	8136	16116	4675	32767	-21387	-32324	2612	4428	19547	17466	-6867	-25976	-1848	11236	8587	-19909	-2131	140	105	1
-17648	7384	18016	14186	1990	14079	-13224	-7880	-11292	4959	18302	-1738	-10964	8052	-8976	-9082	8916	9418	-32768	16596	21028	14934	32767	-24935	-26584	5852	-2040	23202	18938	-5781	-23012	404	3424	9659	-17314	-1159	180	95	1
-13476	-10152	9616	7197	-331	6344	-12784	-6436	-6568	11175	18055	144	-8632	-7188	-10748	-10727	7605	3007	-31916	5216	25608	17375	32767	-28262	-21764	9820	-6948	21754	18198	-6335	-23656	4544	-4980	10157	-19502	3045	149	96	1
-11528	-1396	13368	5178	-1102	5730	-15920	-3036	-8652	10824	15422	-1022	-12024	-10568	-4700	2185	8228	-4581	-20928	15084	24076	26283	32019	-24232	-22928	-736	-9824	10822	17029	-5762	-23608	6956	-10992	6972	-19924	5088	166	101	1
-10732	-3380	12128	3563	-858	5103	-14304	5496	-6204	-8106	10771	1884	-17336	-80	-6448	7126	12407	-1720	-32768	10092	19148	23111	14724	-25675	-19012	-8048	-14924	5458	11086	-367	-23540	-264	-7568	-4863	-22128	5220	153	100	1
-10904	-2964	12008	1736	19	3579	-19548	2348	-4324	-16351	9711	967	-17564	7276	-2420	1864	10266	1340	-17512	29196	21696	7843	-16947	-4804	-12200	-5912	-11188	14193	7992	-3769	-22500	-4968	-4936	-8099	-22919	4133	161	79	1
-11824	-2720	12008	437	668	2099	-17916	-4632	-3736	-11660	8954	677	-18372	6672	-1684	-7488	10753	3422	1772	14072	10612	-3633	-20677	-6971	-13916	-1576	-4484	27020	656	3959	-19656	-2184	-3700	985	-23378	5812	163	123	1
-10976	-2664	11896	-283	1054	1105	-14808	-4696	-3976	5716	10082	294	-15072	400	-2500	-10184	12394	4225	-704	3936	9964	5557	-18658	486	-7520	1884	-5872	14655	-2849	7849	-16248	264	-2588	4954	-20550	7442	156	150	1
-10304	-3844	11320	-488	1434	524	-16576	-2488	-4860	12522	9957	1056	-15228	-2308	-4832	-6973	13176	4396	-3224	11924	9168	13199	-18102	9954	-6280	-440	-5168	-2556	-4726	9401	-19612	1472	-5148	2229	-19889	7099	151	152	1
-11816	-4540	10664	-242	1133	762	-16664	-212	-4616	6377	7544	947	-14252	-4008	-5892	-2910	13477	5327	-5480	15916	9880	6993	-18424	15102	-9288	-3188	-5616	-10778	-8366	13297	-18000	164	-6264	-2201	-19908	7494	155	168	1
-10800	-4468	10604	61	768	1301	-14044	-348	-5088	-3802	6122	476	-15152	-3772	-6304	-763	14070	3524	-7332	9756	12628	2519	-20399	20926	-10604	-5332	-7212	-12208	-13547	17302	-16620	188	-6148	-4249	-19608	7534	149	156	1
-10920	-4336	10464	565	598	1716	-15028	-2660	-5240	-8712	4989	237	-15132	-1144	-5268	-1701	15277	4221	-7696	4852	13892	5850	-23124	26993	-10232	-5640	-7460	-11372	-17329	19364	-15400	148	-5876	-3156	-18365	5401	152	154	1
-12716	-3724	11048	703	272	1717	-16648	-3888	-5100	-5134	4592	620	-13888	232	-4556	-3490	16981	5374	-10436	4616	15188	7249	-25288	28818	-9204	-3868	-6616	-10763	-21848	20292	-12212	-644	-6648	-1884	-15322	4448	146	154	1
-10968	-3596	11344	503	447	1535	-16372	-2780	-4184	-206	4581	1276	-15672	-1136	-4328	-1736	17623	5633	-13080	2760	17304	4793	-28436	28262	-9348	-3796	-7936	-16114	-26502	21909	-10660	-816	-7564	-1847	-12653	3680	135	155	1
-11400	-3528	11024	477	603	1694	-15360	-1440	-3540	1105	4297	1305	-15748	-3760	-5592	2547	14821	5043	-15784	-852	19772	5016	-31972	26876	-10636	-5592	-8492	-18010	-30238	22014	-9140	-1040	-8080	300	-9204	3254	125	154	1
-11020	-3780	10740	546	493	1694	-14940	-1024	-2648	-1154	4430	932	-15608	-3520	-5188	2906	11811	4322	-18264	28	21144	6754	-32768	24325	-12156	-8836	-10148	-13984	-32768	20085	-7260	-2040	-8748	2772	-4987	3378	122	160	1
-11432	-3636	10944	1020	825	2134	-15492	-2200	-2592	-2026	4736	1100	-15920	148	-1860	4604	11902	3377	-22360	4224	23180	7119	-32768	23970	-14672	-8268	-11504	-7214	-32768	20663	-6284	-1432	-9644	3741	-1460	4608	121	182	1
-9908	-3288	11172	1009	924	2646	-16268	-816	-2300	-2855	5136	1150	-16628	2312	-1280	2756	13818	3426	-31408	8388	24892	4439	-32768	26671	-17272	-6672	-12008	-1817	-32768	20987	-6724	-1888	-9684	2773	823	4304	139	212	1
-11184	-2824	11844	325	1731	2931	-17216	-792	-2400	-4445	5617	1240	-17536	96	-1512	-2020	13927	5032	-32768	6052	21900	2262	-32768	28677	-19520	-2252	-11040	-2630	-32768	21167	-7008	1552	-5648	344	-838	3981	129	215	1
-10916	-3120	12128	363	3300	2900	-17968	-140	776	-5673	6765	1638	-19164	-972	-380	-3061	12713	3946	-32768	-384	15448	4342	-32768	26034	-21504	-3372	-10344	-10117	-32768	20418	-11188	4060	-3496	-5539	-2714	5307	120	183	1
-10744	-3348	12108	792	4723	3696	-17172	-2284	2476	-5246	8446	2513	-18380	1732	2536	-1942	10617	1191	-32768	-4460	8788	6475	-32768	21199	-24344	-3788	-9888	-15253	-32768	16567	-22664	-976	8348	-16268	-3511	5039	127	212	1
-10728	-3444	11936	1355	6443	4380	-15664	-2028	2464	-2911	10936	2886	-17616	2652	3216	-4589	9492	57	-32768	-12520	-2784	2052	-28245	17258	-21440	-7816	-11268	-12236	-24030	13681	-22428	6156	26296	-23571	-5129	10324	131	253	1
-11968	-3584	11780	1558	6803	4411	-16076	-944	1120	-3800	13229	3659	-18596	-3480	-404	-8359	7567	1413	-32768	-23736	-22088	531	-18649	7436	-7608	-9788	-8320	-3534	-14293	6556	-13816	136	28660	-17939	10286	5393	131	253	1
-11200	-4316	13064	3400	11174	7212	-17408	-1908	-464	-5715	15182	4108	-18804	-4436	-920	-8474	7154	1748	-32768	-28196	-27824	4624	-3638	-2944	-1528	-220	-4696	5591	4355	75	-18252	-7820	24232	-3304	2162	-7489	124	211	1
-12620	-4168	13112	3833	14398	9116	-18128	-1664	-2284	-5679	16651	4529	-18464	-2576	-3028	-4807	1299	3345	15348	-29728	-15256	-16015	22300	-16310	-11496	200	-10880	956	19013	-7923	-21052	-3020	15328	2560	-683	-8747	126	148	1
-10484	-4504	13896	4791	19772	11530	-19844	-956	-3252	-5179	17628	5148	-19524	-2684	-2632	-4368	-988	4478	-3496	22464	27500	-5746	24220	-12183	-32768	5476	19816	8376	10637	-5110	-11884	272	-5116	17464	9780	-4862	133	105	1
-12100	-4992	14880	6740	26806	15265	-23820	-2532	-1112	-6604	17879	5634	-24064	-5040	-1104	-3090	-3917	5459	-17260	-9252	11248	-6552	32767	-11645	-15688	-1568	-2504	-5203	12179	721	-18180	-14108	4432	14738	5135	-354	132	60	1
-12324	-6368	15836	6279	32767	22496	-29108	868	2332	-6453	17923	6059	-26836	-1608	6400	-1090	-12943	5546	-21084	-3280	20872	-5924	32767	-10985	-24552	-3216	-6960	-6823	18916	-12769	-28776	14772	3476	2367	7789	10904	139	21	1
-14088	-7256	14940	3814	32767	28968	-31416	1572	6932	-15536	17585	6066	-26372	968	8284	-5282	-17470	5047	-32768	28856	16432	-12517	11036	-14314	-24744	292	-15596	-9782	19132	-8204	-20124	-6768	-6632	2503	3656	3959	134	83	1
-30468	-6808	13384	10084	32767	32767	-25112	-2512	4028	-23002	17496	7934	-23520	2768	5476	-7641	-14881	4571	-15756	-13116	24684	-10658	2467	-9247	-13120	-1424	-12920	-6196	16196	-5207	-14036	2500	-14968	15899	10954	-92	128	41	1
-32768	-17656	14460	4414	32767	31383	-22884	-13808	-8552	-18491	20359	9759	-21956	-12836	-5632	-5121	-13298	-71	-11464	6416	14992	-5483	-615	-4300	-18428	24	-9124	-8925	14263	-5780	-11124	14520	-10632	699	10557	-1243	136	41	1
-29264	-17780	13440	13041	26589	32767	-25988	-6500	-8300	-7826	16454	6073	-24240	-7440	-9820	6457	-16695	-5340	-10848	7972	12748	-3046	-480	-2654	-14040	-2356	-9092	1943	10937	-3996	-14996	7288	-8304	-11403	10859	-2403	139	61	1
7200	-19544	14220	17481	23515	32767	-18896	-8880	-5856	7270	11574	5733	-26408	236	-10336	14786	-18347	-5907	-8928	4296	13756	-2063	152	-2345	-16800	932	-7428	7477	8571	-2223	-16984	-2496	-5576	-6943	11523	-2014	135	60	1
-29336	-6860	14308	10626	32767	24259	-14792	-472	-12068	22525	5049	7411	-19316	1936	-10396	14348	-18376	-6000	-8668	3820	13928	-1527	413	-2186	-19428	88	-3832	6892	6074	-2889	-17324	-5364	-2216	2217	12087	-1078	129	70	1
-22628	-16124	12672	25	18308	-1969	-12364	3100	-19352	11631	1971	6484	-19852	2892	-6096	11765	-20067	-7176	-9224	2912	14256	-633	915	-1683	-16968	1260	-2792	3635	5493	-1813	-16060	-952	-552	8692	12574	-2191	128	79	1
-23020	-17928	13812	5509	-6192	-16004	-9704	2808	-14388	-4080	-3236	2109	-19356	3392	-7464	6658	-19451	-7747	-9324	3720	13816	59	1081	-1083	-15780	3168	-1676	-1575	6046	-1963	-15424	1688	-912	9907	13598	-3062	121	80	1
-15960	-7712	10824	8123	-21258	-20018	-9280	528	-12820	-7248	-9213	-3628	-18472	-704	-8452	5446	-17192	-7813	-9176	4152	13432	429	1395	-600	-16632	3692	-2556	-5898	5773	-1765	-15252	2600	-928	9748	13510	-3073	105	92	1
-17280	-544	5676	-1460	-32768	-23900	-9064	-2416	-9480	-3097	-11347	-3303	-19436	484	-8476	6205	-16224	-7632	-9904	4700	13488	440	1343	-738	-16724	1388	-3216	-4934	5062	-2147	-15912	3260	-1140	8738	14391	-1798	105	100	1
-15436	-808	1616	-13493	-32768	-24596	-7000	-1840	-9564	4450	-15156	-5306	-19056	1464	-7756	6791	-17757	-7964	-9016	4676	13440	419	1407	-808	-15880	-936	-3904	4925	4140	-1778	-14224	3780	-1916	9290	15478	-1875	107	104	1
-10784	-3272	-1188	-16060	-32768	-24355	-8228	736	-10108	8700	-18755	-7860	-18792	1180	-7704	7027	-18012	-8050	-9392	4268	13376	29	721	-1120	-16096	2252	-2808	10887	4156	-1398	-13448	5300	-1556	6859	16094	-2241	122	110	1
-11492	-8124	-1180	-7973	-31518	-24915	-8772	2300	-11088	14594	-21762	-9322	-14676	1608	-8068	7566	-19388	-5590	-9112	4192	13396	85	698	-1224	-16484	5640	-1892	6571	4827	-1330	-15620	6120	-2012	4211	14636	-4599	119	128	1
-14032	-3832	956	-1676	-25991	-29741	-8540	4352	-13360	14880	-24593	-10058	-11752	2784	-7388	6079	-18493	-3280	-9460	4152	13324	160	732	-1394	-16020	4704	-2200	-1013	4929	-2411	-17280	7852	-4220	1440	12250	-4739	126	129	1
-16552	-2232	2472	-2793	-22744	-32768	-9648	4520	-10440	7885	-27143	-7597	-10536	2680	-7688	3306	-15056	-3710	-9228	4216	13444	160	882	-1299	-16148	1480	-3084	-3605	5156	-2694	-16392	5260	-4880	-3200	11346	-3547	137	125	1
-17920	-7568	4200	613	-22243	-32768	-8264	1316	-11476	5474	-29967	-8952	-9484	3536	-8356	-617	-11429	-4889	-9360	4264	13276	83	956	-1423	-16808	176	-3088	-327	5365	-2281	-16680	2132	-3040	-4700	10634	-3729	134	126	1
-18020	-5876	6576	5404	-23299	-32768	-7720	-4076	-12164	11168	-32768	-10394	-8384	3664	-9424	-5996	-8201	-4989	-9480	4020	13220	285	746	-1676	-15940	1120	-3336	2616	5432	-2138	-14840	1332	-2552	-3767	10960	-2401	131	125	1
-19364	-4112	9256	4439	-24443	-32768	-9212	-3184	-12732	24161	-32768	-11091	-6780	1968	-10628	-8459	-3965	-5827	-9412	3896	13360	596	656	-1932	-16420	2064	-2780	1974	5900	-2117	-15124	776	-2976	-2116	12009	-1985	127	127	1
-23060	-6768	12100	3116	-26547	-32768	-12556	-628	-14216	30412	-32768	-8891	-5996	1692	-10824	-4963	25	-6647	-9260	3716	13484	491	1499	-2253	-16828	1160	-2672	513	6060	-2080	-15908	-480	-2720	225	11510	-2797	121	119	1
-29828	-5708	13984	2030	-28644	-31302	-15980	2208	-13232	26143	-32768	-6000	-5192	1904	-7904	1165	3134	-6493	-8596	3208	14120	361	2582	-2318	-17164	672	-3008	1671	6453	-2106	-16920	-92	-2464	1147	11144	-1438	117	123	1
-32768	-760	11940	-2329	-30629	-29999	-19924	5332	-11724	14883	-32768	-3346	-5900	-84	-5224	6559	3544	-5726	-9312	4060	14064	623	4594	-2433	-19232	-616	-2396	4975	6779	-2398	-18732	-384	-1828	3227	10721	-101	123	123	1
-32768	4528	5492	-9072	-31446	-26788	-22472	6060	-13136	2381	-32768	-3198	-12808	-2520	2716	12692	-2403	-6443	-9692	3340	13792	921	6315	-2646	-17708	2376	-680	7227	7558	-2807	-17400	2316	440	5279	8793	309	126	122	1
-32768	6052	4768	-10138	-31207	-26085	-22212	3224	-11796	-16396	-32768	-4067	-29396	-8092	12388	11719	-19530	-9786	-9800	3660	14064	1429	8264	-2991	-16340	3972	1036	7024	9185	-4339	-16612	4524	1484	7056	8483	103	99	126	1
-32768	22712	-9180	-23984	-20927	-19169	-16996	-164	-12692	-32645	-25626	-2793	-30684	2324	15320	2876	-7080	-10424	-10104	4300	14100	1499	11192	-3336	-17496	4788	32	5209	11036	-5941	-19432	6140	224	7048	7587	-595	4	129	1
-32768	17856	-25168	-14905	-24744	6399	-5576	116	-10484	-32768	-12653	-2817	-14608	-224	21124	-13660	9234	-5361	-9660	5176	14256	1295	15472	-4496	-19968	2768	-268	5175	12342	-6971	-20328	5868	-660	8077	5416	-1353	22	126	1
-32768	32767	-26956	-20165	-17291	19585	-2136	-6652	-2572	-14854	5281	-6421	-11376	-816	24564	-19199	7026	7024	-9368	4632	14352	537	20455	-5784	-19592	1716	-676	7114	13314	-7499	-19836	2136	-600	7220	2105	-1339	76	129	1
29640	-16960	-2168	26917	-3187	32767	-15632	-1736	4680	-9549	17309	1380	-21328	-172	4252	-13163	10787	14004	-9512	4284	14080	346	21177	-5974	-20224	1296	-1244	7864	14297	-8535	-21060	1100	1124	9080	-155	-1224	108	132	1
8432	-21884	23492	17923	14190	8830	-32768	-7368	24512	-4278	7546	5612	-17712	-480	-412	-11306	15807	8084	-11020	5384	15220	-1187	31645	-8916	-24940	780	588	9440	15101	-8826	-24744	2932	1380	11492	-2862	-1065	100	142	1
-8560	10960	11232	17891	25502	22092	-16856	-11648	-2572	30287	12571	-1020	-15744	-1964	3164	4244	1613	-2013	-12368	6796	14096	-1255	32767	-12999	-28160	-1212	2520	11991	15497	-8598	-25400	3324	6184	12269	-7951	-2305	98	124	1
-27792	4488	13952	6455	10467	19683	-13952	8308	-7844	32767	17465	5243	-28440	-12292	10012	21850	6606	-6911	-18532	5884	15236	1217	32767	-17150	-28556	2108	4924	16011	15221	-8366	-25904	4892	13588	9695	-23513	-2420	76	114	1
-31544	-23388	344	15391	9313	13275	-32092	-160	-10292	14037	18455	3654	-24840	10680	-6752	10933	14752	1277	-23304	7376	16664	7024	32767	-17206	-28684	4300	5000	17957	16343	-9742	-22124	-2236	9872	5516	-13750	-1963	111	106	1
-17500	7436	18420	10762	1596	9656	-14344	1756	-10692	13268	17374	-455	-11364	2924	-10664	-14889	9736	8313	-32768	13372	26144	11739	32767	-21224	-23736	9620	-2028	16010	17493	-9412	-22280	4508	-844	5422	-16263	-1614	167	102	1
-11980	-5856	12296	6496	582	4425	-14212	2628	-3788	6228	14830	-111	-9580	-5344	-6944	-2716	10164	4773	-25176	7176	27848	12748	32767	-24291	-22420	11456	-3764	10505	16551	-10485	-22624	11200	-6900	5610	-18988	1556	167	99	1
-10592	-6612	11008	2627	1069	2535	-16032	3580	-6176	-10564	11178	551	-13964	-3168	-8484	8390	9471	2785	-5352	19672	13188	13400	32767	-24965	-22512	1584	-4624	1610	14018	-8748	-22048	7760	-10100	-4007	-19719	5274	165	101	1
-10944	-3728	11440	1142	381	2837	-15464	3852	-6264	-13375	10408	617	-14012	2932	-8500	3239	10882	2701	-32768	23392	32767	11733	8952	-18735	-14028	-9116	-25596	-8145	9457	-7268	-20564	1200	-8680	-13684	-22855	4361	166	87	1
-11104	-3988	11136	741	-163	2202	-17572	-11512	-3816	-4579	7272	202	-14260	4256	-5932	-1614	12584	2156	-10380	26996	20928	-1603	-19135	-2530	-13196	-3060	-7512	2326	5380	-8143	-21216	-4	-5120	-15452	-23701	3466	161	121	1
-10480	-3460	11744	406	-268	1778	-15492	-6240	-1896	15813	7770	1453	-16064	4396	-3988	-3756	13949	1234	-1424	9852	12196	-8431	-24113	-4529	-12956	-2600	-5216	16868	-3145	-879	-20232	-540	-6356	-7783	-22394	4895	159	138	1
-10872	-2992	11692	-67	-185	943	-16664	1732	-4000	19235	7787	1391	-16616	1368	-3336	-3131	14999	2330	-464	8324	11416	-7769	-23899	-4158	-8964	708	-8284	12757	-7591	2694	-18268	2016	-7100	-1705	-19671	5475	159	144	1
-11260	-4500	10988	-517	63	410	-18700	5400	-1928	1486	5866	938	-15988	-3392	-2808	-3165	14894	2400	-4292	13248	8940	5218	-22284	7400	-6420	272	-9268	886	-11087	5322	-18872	1884	-7876	-1397	-18267	6021	168	153	1
-11672	-4996	10792	-546	213	493	-17848	4604	-1912	-1860	5626	710	-14000	-6400	-1364	-3902	15908	2723	-8116	18536	9296	339	-25181	14497	-6952	-1128	-9656	-8041	-15484	8038	-18408	1728	-7604	-1840	-18114	6115	157	158	1
-10376	-4760	10980	-428	257	1160	-13596	-7116	-492	-15451	4148	51	-14316	-6620	-1480	-2419	14556	3539	-10152	14716	8888	-4984	-28734	20771	-8024	-2080	-8964	-9551	-19752	11138	-16252	2208	-7336	-8565	-16946	6987	143	151	1
-10660	-4576	10896	-138	371	1327	-15564	-8120	464	-3471	5428	996	-16488	-3320	-4152	-2620	12077	3757	-11008	8144	7396	-2164	-30724	25812	-9020	-2356	-8532	-11373	-22377	13386	-14356	1544	-7976	-10861	-15532	5510	130	160	1
-9916	-4104	11084	183	-183	1649	-16520	-2984	-180	3859	6625	1321	-18536	-2460	-3700	804	10365	3194	-13052	7120	8472	2444	-29956	27951	-9164	-3172	-9708	-15026	-25188	15613	-12320	-712	-7680	-12232	-14061	4126	129	158	1
-10512	-4716	11064	397	-118	1614	-15824	420	-192	865	7054	992	-16736	-2288	-2936	2744	9912	2605	-17708	7752	10976	2485	-30498	28336	-9848	-4352	-10088	-18386	-28349	17693	-10948	-2904	-7868	-9258	-11729	2596	139	152	1
-10496	-3960	11136	477	440	1813	-15688	-1356	-1048	-4641	7062	841	-15644	-828	-2332	203	10537	3162	-19744	4912	13340	1008	-31779	27421	-13156	-5908	-10472	-18199	-31880	16989	-10624	-2520	-7504	-5142	-8775	2022	120	152	1
-10692	-4008	10964	417	655	2151	-15992	-3052	-1064	-4835	7232	711	-15024	764	-2032	-2533	10694	3121	-20132	5396	14776	1204	-32379	25503	-14396	-8424	-10900	-12923	-32768	17440	-10472	-3480	-7484	679	-5357	1904	133	146	1
-10504	-3628	11268	255	1085	2017	-15468	-3112	-1776	-2407	7798	1102	-15088	1620	-3068	-3106	10434	2040	-20368	5840	15352	1049	-32164	25278	-15600	-7672	-11868	-5578	-32768	18407	-9412	-3512	-7100	3297	-2472	2746	135	154	1
-10708	-3408	11440	-377	1762	1951	-15940	-1036	-2020	-1939	8683	1276	-16072	980	-4520	-3844	9790	1003	-32732	9748	21052	-992	-32768	28342	-17200	-5820	-12412	-2563	-32768	19425	-7384	-3536	-6700	2473	-969	3213	134	160	1
-11004	-3756	11356	147	2720	2535	-16392	-1200	-2204	-4561	8949	1071	-16184	-1860	-4616	-4171	8786	1386	-32768	8836	18772	-449	-32768	28920	-18672	-1584	-12228	-4076	-32768	20267	-7248	-512	-4788	-2321	-1228	3725	133	162	1
-10604	-3168	12120	-164	3823	2761	-16180	-2508	-2136	-6198	9536	1243	-16508	-2196	-3624	-4305	8108	1611	-32768	2080	11764	2273	-32768	26082	-20184	-32	-8484	-10997	-32768	18998	-11368	1708	-1476	-6024	-3872	5733	130	160	1
-10848	-3956	11404	307	5464	2880	-17232	-916	-1876	-7439	10150	2043	-16704	-2852	-3072	-3823	7998	1979	-32768	212	2684	4278	-32768	21939	-22056	-3652	-9620	-16334	-31556	15504	-14856	292	9656	-8733	-4920	6209	124	195	1
-11084	-2884	11860	258	6849	2914	-16040	-2688	-1164	-6399	11346	2469	-16228	-688	-1652	-3618	6881	1911	-32768	-6192	-8036	189	-22981	19327	-19820	-8740	-12340	-14175	-21450	11951	-23600	4972	23368	-11930	-5412	8962	118	246	1
-11612	-3108	12220	106	8657	2897	-16272	-900	-1584	-5210	12776	3253	-16540	1156	-2188	-5329	6127	1833	-32768	-17160	-19612	5327	-13914	12688	-10060	-9744	-8300	3961	-13885	8382	-16436	4968	23804	-6369	6889	5623	105	253	1
-11348	-3544	13080	783	11246	3309	-17008	-1240	-3020	-5151	13846	4003	-16520	-900	-4820	-6891	4439	2476	-32768	-19860	-25608	12935	-5441	3346	-2716	3244	-6300	12452	2655	3463	-17428	-2332	21436	2153	1031	-4112	128	231	1
-11504	-4424	12200	1018	14081	4758	-17912	-1612	-4540	-5172	14501	4438	-16848	-1860	-6228	-6612	2816	2714	-32768	-7032	-20152	3868	4865	-4268	-7552	2804	-7428	5600	16221	-4947	-17508	1624	13632	4719	-607	-5111	132	165	1
-11424	-5088	11776	1434	17627	6916	-18168	-1360	-5188	-4612	14667	4681	-16620	-1156	-5832	-7021	1304	3663	-5744	32767	32767	-15294	14828	-9484	-20248	4704	5692	14761	22800	-7549	-13652	2792	6968	8733	3050	-2313	135	109	1
-11804	-4908	12452	2528	22337	10267	-18468	-2396	-4600	-7185	14493	4666	-18112	-2920	-4260	-7220	507	4582	11508	244	6836	-8863	18107	-10757	-32768	15916	22060	10188	6115	4152	-11036	-1356	-11284	17784	15490	-843	141	79	1
-11868	-5088	12532	3400	28169	13676	-18708	-2736	-3748	-7477	14420	4675	-22272	-4108	-1108	-5592	-2415	4146	-22488	-272	16804	-7673	31690	-13252	-3988	-3544	1024	-20173	11187	-1698	-22936	-284	8808	-12595	4455	4828	140	43	1
-12604	-6052	17268	1007	32767	19667	-25932	3712	2204	-7106	14118	5191	-25064	1584	6332	-6384	-10258	5011	-22320	-4680	23172	-4071	23739	-13600	-27124	-7080	-2356	-14787	15711	-10430	-27500	15344	12816	-21846	6036	9904	136	74	1
-15844	-8528	11668	2722	32767	22911	-27328	3464	7280	-20056	14333	5065	-25980	408	13960	-8958	-20533	4234	-22960	27128	19108	-3600	17234	-6542	-31672	-7236	-2640	-14270	15226	-8785	-27232	-22424	-440	-4842	8296	-7824	133	127	1
-26452	-15732	9308	8374	32767	29835	-25804	-5884	7776	-29752	16132	5142	-20956	2636	7800	-11129	-16616	4990	-13192	-1892	19896	-7119	4895	-7102	-15452	104	-4764	-2662	17523	-3387	-14148	-4720	-7364	18633	11900	-2192	133	79	1
-32768	-3964	13120	-259	32767	32495	-20524	-18028	-1332	-17418	20548	4267	-23624	-10108	-128	-10683	-14565	778	-9324	9624	11388	-3974	3796	-4027	-13800	2608	-7996	-10427	17315	-4864	-7196	16112	-9832	6547	8532	2350	134	150	1
-32768	-17296	11396	4158	29682	32767	-24264	-9512	-8848	738	21089	3830	-23580	-7836	-7720	-378	-15649	-4922	-12284	4648	14704	-5137	2424	-4736	-14488	476	-10408	-3107	10822	-4013	-12596	9096	-9872	-7790	8025	2634	140	110	1
-12220	-13984	14676	3791	21865	32767	-22144	-1220	-7748	5834	17743	2515	-25328	-224	-7792	8148	-17680	-5458	-11860	5284	15032	-5125	566	-3851	-15204	3236	-8908	221	10363	-2011	-12876	7720	-8868	-8401	8458	2264	137	89	1
5932	-7424	5276	7453	32680	32767	-16612	-2808	-4784	6757	9731	2346	-22976	3224	-9024	10450	-18440	-5086	-9028	5856	14088	-3050	798	-2930	-19596	-1824	-4548	3553	8214	-2592	-19488	-3460	-3272	1742	10340	1120	134	77	1
-32644	-9536	13452	-1700	19678	15267	-11324	-2096	-21984	10467	4500	2070	-18084	2424	-6660	8641	-18847	-5909	-9608	4320	14116	-1487	1091	-2611	-17780	-2804	-2192	6903	8102	-1652	-18836	-2700	1032	6445	8786	332	126	74	1
-24460	-18868	12492	1580	-3583	-8591	-8452	4732	-15812	531	3497	-43	-18760	1280	-6592	5592	-19002	-7549	-9336	3608	13932	-191	1844	-1626	-17368	224	-2340	5942	7270	-706	-15332	268	324	8982	9654	-1832	116	87	1
-15788	-14464	10184	9795	-20725	-21229	-8536	-2804	-9808	-5278	-1073	-3892	-17972	680	-8756	1969	-16943	-6969	-9720	3708	13180	694	2324	-1066	-16160	3248	-3704	-1832	7450	-799	-15632	236	-2172	9769	9637	-4020	117	94	1
-10420	-6668	6196	10216	-29623	-24963	-9392	-5132	-8228	5342	-4962	-2562	-19136	-1708	-9480	3330	-15998	-8201	-10116	5152	12588	899	2327	-642	-16292	1352	-5360	-3757	6271	-1205	-15644	2432	-4096	8874	10586	-2237	118	120	1
-1572	400	4268	318	-28752	-25952	-6452	-4016	-10904	12323	-9565	-1598	-19628	-2116	-9628	5203	-16402	-9970	-10044	4888	12520	801	1877	-510	-16204	-628	-6296	1836	4673	-872	-14612	2700	-4956	10147	11276	-1377	114	121	1
-7260	-4064	4340	-5791	-26028	-25366	-6608	-2620	-12080	19340	-16204	-2033	-18188	-1084	-9960	6826	-16239	-10084	-9940	5136	12588	631	1573	-588	-16364	-476	-6048	9671	3668	-372	-14924	3260	-5104	11687	12457	-2428	115	112	1
-13424	-9916	5456	-859	-29762	-25777	-6092	1412	-13556	21177	-20856	-4598	-15876	2132	-9292	6171	-15974	-8095	-9772	5228	12692	404	1277	-636	-16600	2548	-4904	11883	2868	-261	-15868	5152	-5236	10932	13729	-4286	122	113	1
-11440	-3856	5672	2492	-32271	-25533	-6952	1752	-11416	16200	-25634	-7147	-13808	252	-8876	4321	-15036	-7222	-9792	5048	12636	355	1142	-715	-17160	4740	-4488	7052	2611	-455	-15080	6724	-4520	4874	14560	-4596	126	117	1
-12220	-1012	6268	-3222	-30928	-26576	-11000	1196	-12368	11493	-30102	-3871	-11732	2376	-9696	3372	-13194	-5109	-9840	5076	12568	235	910	-873	-16416	3944	-3244	876	2562	-1040	-14648	5580	-2828	-1663	15664	-4710	133	122	1
-16268	-4584	7292	-7432	-31248	-25755	-8684	3100	-11908	6383	-32768	-3350	-10668	4888	-10160	3590	-11264	-4706	-9688	5004	12724	46	1052	-1027	-16052	1420	-2616	-1806	3066	-1606	-15156	2716	-1128	-4897	16453	-3842	137	120	1
-18192	-3196	9896	-8035	-32232	-23569	-7832	4412	-14148	2014	-32768	-7125	-7800	6520	-9596	2707	-10148	-5006	-9816	4640	12392	78	956	-1109	-15976	-328	-1340	1252	3367	-1282	-16052	512	-944	-2068	13542	-3365	140	115	1
-20396	-412	11676	-13620	-32511	-22430	-9644	3728	-11984	-3017	-32768	-9658	-6680	6768	-9024	-1902	-7024	-4982	-9776	4720	12472	346	764	-1176	-15240	1344	-272	3343	4267	-1373	-16792	2200	-1536	-2488	11459	-2928	139	116	1
-24280	-2720	14376	-17653	-32517	-21075	-12164	1868	-12328	-5276	-32768	-11850	-6364	5532	-8128	-5892	-3506	-4177	-9720	4796	12624	852	772	-1322	-15884	3712	-1232	400	5718	-1903	-17680	3564	-588	-3956	10066	-2549	136	115	1
-30672	-3036	17056	-17760	-32768	-21408	-15392	-268	-12400	-3621	-32768	-13651	-5132	3552	-3904	-7999	-306	-4321	-9656	4796	12636	1424	837	-1944	-17212	2660	-2168	-2449	6472	-2287	-16972	2364	-1036	-2931	10734	-1218	130	119	1
-32768	1372	16172	-16162	-32768	-22045	-20148	-1688	-9716	-316	-32768	-13030	-6228	-180	-1844	-6242	-193	-5733	-9656	4688	13076	1281	1545	-2088	-16972	1560	-1364	-472	6806	-2676	-16600	2180	-536	-341	11095	-1238	129	123	1
-32768	8856	10740	-16467	-30744	-21706	-22036	-1724	-9224	3756	-32768	-10074	-11328	-3448	-944	-1124	-263	-8718	-9704	4404	13240	235	3039	-2155	-16432	2976	376	2259	7914	-3382	-16564	1772	1168	1290	9626	-508	131	125	1
-32768	15348	4820	-14266	-26300	-20381	-22624	600	-9660	8140	-32370	-5928	-26200	-8428	17520	8047	-12775	-13671	-9848	5280	13028	-10	4554	-2590	-16752	3540	444	2263	9427	-4168	-17452	2000	1940	2071	8254	75	111	125	1
-32768	27984	-3540	-9875	-18535	-18584	-20676	3920	-3560	-3354	-23443	-1009	-28512	-7680	14788	375	-5462	-16920	-9968	4492	13900	-178	6783	-3039	-17880	3636	12	2006	10990	-5265	-19352	5196	548	2888	7405	-74	43	128	1
-32768	21780	-21868	-3924	-17595	-1821	-7700	13344	-11092	-9367	-11409	-1210	-16940	-5264	15104	-2900	7898	-7428	-10068	4936	14152	28	10610	-3816	-19056	2400	-544	1615	12466	-6252	-20404	4748	56	5049	5284	-967	46	128	1
-32768	32767	-22880	-17053	-6381	6783	-1648	84	-5036	-16903	1970	-2977	-13356	-1516	23776	-8911	1331	6964	-9792	5544	14724	-17	15462	-5294	-20276	1916	-380	4530	13506	-6513	-20852	1780	652	3665	2860	-636	77	126	1
12672	-32768	10636	6851	1617	2586	-9600	2068	-9508	-10933	17630	91	-16844	-232	13064	-8191	3052	14387	-9404	4316	14260	-180	21057	-6619	-20396	132	368	5760	14342	-7315	-20728	1396	2512	4997	-290	-423	68	126	1
-7556	-12920	32767	19701	2747	17875	-27108	-1964	15896	-12447	10233	6290	-17648	2008	-6024	-7185	15340	12713	-9692	4164	14256	818	27980	-7382	-21688	708	564	6628	16186	-8247	-21120	4144	3300	7479	-2086	-1135	90	125	1
116	5100	5576	16090	17072	16132	-32768	-20592	12948	11051	3684	-1998	-10652	-204	-3504	-9396	15819	7066	-11956	5324	15020	2142	32767	-8503	-25268	1052	2796	7235	17528	-8949	-23524	4084	5952	7611	-6153	-1921	96	123	1
-32768	-1316	22408	11918	19524	21148	-9280	3516	3960	30294	10868	1108	-21480	-8948	4752	7196	-694	-2655	-12584	8288	14336	3163	32767	-11909	-27740	1144	5048	10765	18386	-9302	-24116	2464	15284	8532	-18470	-1298	95	118	1
-32768	-12660	8332	17231	4804	22040	-25840	-4888	-7512	14545	19194	6626	-26304	-16048	3688	18211	9423	-8670	-27312	8116	23400	2860	32767	-16709	-30168	4948	4900	17229	18403	-8827	-21648	-2520	11104	6699	-18597	-1219	86	115	1
-14664	10516	21372	11454	448	10255	-27864	2036	-9544	18256	15907	3072	-20712	7964	-9708	11148	13998	5865	-27540	10204	18944	10014	32767	-17546	-28268	6716	572	16856	20104	-8768	-24860	2508	2432	9603	-17669	-1644	143	110	1
-11352	-4384	12760	5089	411	3789	-13496	9600	-6500	11858	15934	241	-13548	18576	-4636	-2238	7950	6949	-32768	16724	29732	11474	32767	-23371	-24856	9020	-8288	13912	20183	-9009	-23656	6812	-4652	10186	-20042	1589	167	100	1
-10372	-1640	13120	1845	880	1655	-14928	3900	-3624	-7391	13225	733	-10504	120	-5080	-5521	10069	6091	-18564	2716	26140	19213	32767	-20860	-21428	504	-9368	8089	17861	-10185	-24620	9292	-8796	4433	-21014	4497	128	98	1
-10700	-4916	10812	637	872	1889	-14368	-6124	-4932	-13539	10177	624	-12680	-9304	-9688	-4316	8732	4087	6356	12724	7196	32767	23642	-21258	-20960	-2468	-11588	-1022	12889	-7589	-25692	6892	-11656	-4535	-22395	5826	156	93	1
-11204	-5492	10308	410	-476	2296	-15016	-11812	-5448	-3680	8644	1300	-15016	-1032	-7224	826	9765	-109	-32768	32767	28948	11362	-9821	-9581	-12056	-6276	-19016	-1053	7493	-9609	-24256	260	-7456	-12940	-24689	4062	158	103	1
-10912	-3700	11444	806	-1363	2261	-15780	-5244	-5380	6698	7298	847	-15516	3628	-5208	-4003	12907	-918	-2408	20060	14908	-19436	-27176	-12310	-12672	-2820	-8000	18217	-636	-3524	-22700	3648	-5360	-7473	-25418	5346	162	134	1
-10612	-2580	12036	488	-1364	1276	-17520	2664	-4344	6347	6965	1822	-17384	152	-6088	-7956	12791	2400	4948	-20	8992	-10029	-26373	-10576	-8476	4084	-7580	17453	-8176	1643	-19336	7524	-9180	-4143	-20379	8015	162	159	1
-10752	-2868	11804	-359	-918	328	-17872	3744	-4488	-7776	5406	690	-16480	-2612	-5536	-8228	11752	5409	2052	6832	7772	7226	-24156	-1591	-4360	2024	-9884	1183	-10896	3534	-19716	5168	-8704	-5745	-17800	6742	175	163	1
-10616	-4072	11260	-566	-358	-115	-16312	-3656	-2616	-15265	3835	929	-14432	-3332	-4104	-6732	12618	6697	-3996	21172	7520	5088	-24648	5580	-6664	868	-9620	-9156	-15520	7419	-17908	2600	-9136	-9279	-16954	5927	154	173	1
-10596	-4244	11168	-572	-122	298	-14968	-9264	-2588	-9090	3235	1011	-12664	-2524	-4544	-3012	14550	4882	-8636	21796	7988	-5773	-28022	13089	-5544	-1200	-9552	-11809	-21081	10265	-14460	3144	-8416	-12648	-15140	6823	147	158	1
-10296	-4160	11064	-146	-374	685	-14596	-9420	-2536	-7575	3121	1155	-13944	-1376	-4012	-2075	17269	2279	-9336	16404	7212	-8049	-30138	22838	-8292	-484	-9568	-13914	-25259	12596	-13732	992	-7480	-13769	-13993	5916	133	159	1
-10352	-3456	11452	149	-413	460	-16924	-772	-2200	172	3519	2320	-14656	-944	-3164	-1916	17505	2519	-10684	12744	6860	-5861	-28857	30621	-7420	-1340	-8000	-17837	-28333	14464	-11644	-736	-8572	-14534	-10701	4594	122	159	1
-10016	-3648	11412	-408	87	185	-16776	1000	-120	-5805	3443	1538	-16564	-3464	-4280	-2111	11949	2954	-14372	9292	10044	-3097	-27733	32767	-8452	-2692	-10940	-24487	-30892	15687	-10184	-4168	-8284	-14775	-8341	4214	135	137	1
-10372	-3756	11156	-882	789	108	-14884	-3808	1220	-6921	4383	1783	-18928	-4564	-3188	1807	7104	3372	-21108	5184	14576	697	-29440	32767	-10456	-3392	-12340	-27428	-32768	15345	-6724	-3080	-6696	-12087	-5596	3251	134	145	1
-10268	-4344	11264	-723	857	403	-14928	-6200	1100	-1113	5580	1989	-18024	-3672	-20	2586	6884	3539	-27024	4400	17076	4542	-32768	27116	-14264	-5672	-12236	-22941	-32768	14963	-9176	-3956	-6744	-6479	-3697	2925	135	146	1
-10496	-4936	11100	-342	464	811	-15744	-3068	1016	1176	6773	2230	-17680	-3388	380	2389	7081	3544	-30716	7192	17136	5327	-32768	21437	-15772	-10660	-13028	-9189	-32768	16733	-9736	-3872	-5792	-2578	-929	3278	132	144	1
-10200	-4312	11300	-79	366	1326	-15604	-760	664	-1630	7983	2353	-16632	692	-364	-2641	10150	3149	-31564	8000	16024	4253	-32768	21212	-16896	-9620	-12512	7401	-32768	19144	-8932	-5912	-2848	1673	919	3342	130	143	1
-10236	-3964	11396	-25	995	1710	-15744	-1536	44	-5388	8610	2212	-16424	-536	-1388	-5284	9555	3344	-32768	3432	15872	7357	-32768	21674	-18624	-5712	-12616	15158	-32768	22309	-7796	-4576	-1108	3947	865	3388	127	155	1
-10104	-3884	11804	-317	2115	1979	-16200	-3632	-220	-5243	9630	2557	-16416	-384	-2108	-4819	8922	1901	-32768	-896	14576	14580	-32768	17927	-16436	-1192	-10300	15141	-32768	24575	-7972	-4224	-1600	4591	539	3569	128	151	1
-9244	-3632	11692	-827	2825	2535	-15904	-2740	-876	-4291	10537	3190	-16880	-572	-2528	-3954	7487	790	-32768	-7152	8112	20707	-32768	12242	-17576	3068	-8184	7617	-30778	24106	-17060	-1008	6284	6721	-5711	5545	137	153	1
-10284	-4240	12040	-1529	3890	2693	-15764	-1056	-1428	-6579	11490	3439	-15156	-2532	-2492	-6578	6362	1207	-32768	-7056	2424	17335	-30174	8103	-21012	-2236	-8492	2381	-23922	17377	-17988	5136	14336	12283	-4521	7189	135	158	1
-11344	-4364	11976	-1310	5127	3886	-15708	-3212	-1876	-8682	12500	3672	-15948	-2752	-2720	-7595	5813	1994	-32768	-11956	-8216	7326	-20317	6081	-17452	-6744	-6244	6577	-16623	11757	-14580	13276	17856	13298	3023	10549	124	137	1
-11804	-5168	12392	-71	8051	3707	-18140	892	-2728	-8293	13332	4686	-18336	-2236	-3856	-6858	3729	2449	-32768	-22384	-18224	8452	-10584	-737	-7464	-2736	-3768	14656	-4703	6283	-17044	11976	17756	10290	7019	7093	130	126	1
-10868	-3616	13700	-7	10829	4741	-18688	-1040	-1420	-6944	14435	5163	-17652	720	-3152	-5673	1940	3532	-32768	-18228	-18552	9556	292	-6407	-5656	3776	-3196	7224	7663	-1152	-17772	4404	18236	4413	-520	-3846	130	125	1
-11128	-4124	14296	368	14354	5884	-18792	204	-4940	-3727	15466	5243	-17884	2060	-3556	-5812	595	4036	15168	-4860	7988	-22276	14258	-22069	-16824	916	8	3660	16337	-7847	-16864	5256	8724	1376	2815	-6659	129	123	1
-11764	-4904	13636	2205	18409	8184	-19888	396	-4208	-4414	15881	6022	-18420	-1676	-3968	-6696	-152	4687	-6384	18048	15960	-8852	22029	-12252	-32768	9160	19088	9346	5080	-3080	-20356	1260	-224	3066	12165	-7274	132	134	1
-10660	-5520	14096	4301	24907	11349	-21808	-3636	-1792	-3678	16469	6466	-22360	-6204	-1784	-4021	-3310	5121	-19832	-10284	13136	-3748	30750	-12282	-11408	-756	2236	-12597	10782	-1844	-24316	-2476	15456	-9579	-1020	977	133	144	1
-11852	-7196	13848	4879	32747	16800	-24432	-968	964	-2572	17405	6713	-23904	-3668	6432	-2588	-12374	5728	-25612	10892	18936	-3781	21901	-17565	-26092	1624	-2096	-7393	14575	-12917	-20732	8176	11036	-20632	2049	1292	131	124	1
-12580	-7084	15564	3885	32767	23642	-29524	648	6720	-9591	17396	6732	-25296	-1772	9292	-1940	-17087	5877	-32768	30620	7996	-14919	6969	-13062	-28404	10444	-10048	-15725	18006	-7994	-23456	-7208	-5000	-2199	10239	-3483	130	131	1
-19444	-15092	10880	8040	32767	29961	-29140	-1432	8600	-20819	16765	8260	-24776	2504	7832	-2629	-15466	7183	-14772	-6808	19580	-10346	3759	-9747	-14572	-1760	-9056	-26346	17706	-5088	-9968	-996	-16744	11182	12413	1144	131	80	1
-32768	3256	15708	8323	32767	32767	-22200	-16480	2412	-21358	18190	8172	-23084	-8792	1912	-6791	-15296	3646	-13344	6528	13820	-9459	984	-7918	-12696	-5276	-10792	-22763	17048	-6223	-9104	2108	-7564	5112	8583	5941	138	148	1
-32768	-20644	14828	9810	32767	32767	-23808	-10856	-10236	-8097	18835	10272	-21512	-14072	-7816	1748	-15448	-3138	-16864	356	17924	-6386	-2150	-4045	-12928	-6712	-11172	-19512	15921	-5321	-10888	8708	-9180	-362	11952	4454	144	115	1
-22688	-15888	17100	11494	24196	32767	-21832	-4604	-6920	-237	17462	7209	-26252	-1784	-8840	10530	-16751	-4892	-10212	3908	14256	-3743	-856	-2549	-24416	-5260	-6416	15050	4743	-3487	-17820	-164	-5080	-2106	10942	-80	137	89	1
20656	-16864	12472	13469	28774	32767	-15384	-6812	-13016	12887	9800	5418	-24932	1312	-9416	13530	-17773	-3748	-9812	3288	14196	-1863	277	-2175	-19684	928	-4416	20644	7104	666	-18992	-2124	-1508	4607	10889	-888	134	88	1
-32768	-15004	19808	-603	5380	631	-12332	840	-28196	19566	7123	7139	-20196	1876	-8712	10572	-18478	-5083	-9524	3436	13976	-652	654	-1322	-15316	8064	-580	8223	7512	-1831	-15488	736	-488	5692	11093	-1299	126	108	1
-15264	-23464	14444	5466	-18094	-16388	-10844	6296	-9900	-2820	1682	4551	-21416	40	-6684	5790	-20313	-5157	-9372	3712	13508	34	924	-815	-14636	8336	-2360	-10149	7759	-1757	-14984	3696	-1320	5810	12052	-2386	126	126	1
-13020	-22260	13020	7810	-19844	-16317	-9896	-5128	-9880	-9980	-7305	1860	-18352	-3476	-8944	1994	-17624	-5921	-9696	4652	13036	134	1197	-514	-16212	4992	-4140	-20019	7697	-1983	-14940	4380	-1668	4260	12086	-1795	116	136	1
-2388	-3924	4924	7620	-24643	-13929	-7116	-10396	-9360	1729	-12322	1204	-17996	-5816	-10352	5097	-16430	-6900	-9288	5004	13120	-126	1192	-809	-17804	-2528	-4768	-12249	6279	-1089	-16000	3248	-2828	5225	12355	-990	112	128	1
-8044	-6628	3488	-174	-24756	-17874	-3448	-7988	-12184	23661	-16068	263	-17440	-4972	-10504	11272	-16274	-6387	-9476	4492	13044	-283	898	-1094	-15256	-4564	-4688	10112	4369	-72	-14464	584	-1944	9470	11905	111	100	116	1
-12252	-11312	2572	1246	-27250	-20283	-5724	-2236	-13452	31182	-19334	-1150	-15648	-3820	-10552	15271	-16414	-6535	-9732	4204	13164	-27	698	-1155	-15652	2064	-3816	23389	4397	771	-15544	2468	-1920	15415	12831	-270	107	113	1
-13420	-9316	1280	5317	-29580	-22718	-7284	548	-12892	26768	-23097	-917	-13972	-888	-9776	15903	-16785	-5657	-9792	3572	13292	382	870	-973	-17880	9592	-1992	14794	4944	143	-15752	7224	-1932	13199	12400	-1527	115	117	1
-13200	-5144	1216	4175	-28362	-25451	-9520	684	-13992	18042	-26816	2332	-12596	548	-9160	13602	-16010	-3926	-9784	4452	12960	631	1311	-771	-15748	9332	-1932	-1233	5621	-1560	-15320	7956	-1872	5548	11814	-2292	118	125	1
-17392	-6704	464	1180	-27453	-27901	-7492	-64	-13484	7958	-30485	3147	-11456	1384	-8752	10290	-13145	-2437	-9672	4804	12720	488	1236	-932	-15268	4448	-3368	-6680	5456	-2614	-14420	6124	-2272	1021	12772	-295	128	118	1
-20144	-9604	272	3746	-26493	-27823	-6924	-1732	-13132	1297	-32768	774	-10024	1368	-8872	6968	-10372	-3994	-9600	4668	12812	388	1023	-1283	-16004	-420	-3504	-424	5483	-2180	-15768	3900	-2896	2041	11343	-693	136	113	1
-21180	-9124	900	6281	-25951	-26666	-9288	-4344	-14236	2395	-32768	-2287	-8860	1568	-8056	4202	-7508	-6633	-9840	4580	12732	398	838	-1587	-16284	940	-3496	8860	5597	-1378	-16500	4236	-3732	3811	9297	-1260	139	115	1
-22764	-8504	1980	4369	-25182	-26013	-10364	-5116	-12740	8467	-32768	-3854	-8460	2132	-7572	3382	-5143	-7304	-9972	4252	12924	290	1079	-1904	-15712	4512	-2704	8956	6506	-1408	-16712	4152	-3644	2438	8237	-788	138	120	1
-26064	-10892	3424	749	-25166	-25547	-11808	-3248	-13088	15560	-32768	-5470	-8848	3128	-7312	7380	-4260	-6949	-9684	4116	13036	918	1022	-2231	-16096	4180	-3160	3198	6504	-2285	-15960	3764	-3012	1834	7281	-486	135	128	1
-26724	-11104	3564	235	-25209	-25556	-13828	-752	-13860	18270	-32768	-7270	-8080	4252	-4296	10690	-2107	-6123	-9376	5676	12876	1427	1382	-3375	-16116	3904	-4116	630	6987	-2080	-15280	1948	-2684	3913	7532	-217	130	123	1
-30528	-5172	3520	-4975	-25002	-29417	-15284	1164	-11888	16528	-32768	-7835	-7260	4128	-3004	8680	993	-4674	-10576	4864	12924	533	1986	-3680	-16232	3916	-4092	839	6945	-1983	-15068	1556	-2324	4993	8360	744	127	120	1
-32768	-100	2756	-7489	-20789	-30916	-17924	1924	-11952	10874	-32768	-6185	-10220	900	-752	8292	1296	-5164	-10236	3796	12908	131	3373	-3279	-17048	-516	-3220	9736	7261	-2039	-16532	1076	-2236	6365	8343	1646	123	121	1
-32768	1752	-420	-6656	-17841	-29496	-19336	2736	-11248	3068	-30535	-5351	-16292	-636	2708	9579	-602	-6988	-10380	3644	13252	258	4702	-3247	-16884	3572	-2188	9394	8234	-2424	-16412	2504	-1116	8067	6975	614	118	119	1
-32768	6272	-2912	-1484	-16197	-24644	-19368	-1856	-12732	-3242	-25106	-5107	-22264	-1684	12776	9943	-6610	-10296	-10460	4076	13076	518	6715	-3200	-16932	3580	-2048	5803	9307	-3632	-16140	5788	-1824	7604	6113	249	96	122	1
-32768	11384	-12576	1607	-13865	-14612	-16332	-872	-6820	-3600	-16571	-5538	-22308	-1064	12924	8767	-6346	-10225	-10536	4004	13444	599	9195	-3396	-17244	3856	-2940	4472	10024	-4511	-17216	6548	-1616	6626	5355	26	72	127	1
-32768	20128	-19080	-3121	-15195	-2859	-7800	-2708	-8776	4317	-3766	-6126	-17904	-3896	12568	7613	9139	-5704	-10440	4560	13636	662	12311	-4128	-18424	2404	-2688	5911	11135	-4901	-17604	4436	-1088	7370	4405	158	86	121	1
-32768	17780	-19532	-4690	-8255	895	-6796	-1532	-8664	11669	7614	-4721	-16964	-2880	11236	4398	7619	1562	-10464	3840	13568	309	16465	-4647	-18968	1652	-1600	7639	11955	-5125	-19208	2744	80	7109	3059	-371	107	127	1
-31664	11072	-14372	7844	3607	6043	-12472	3848	-10392	12569	17118	-1913	-17052	-1096	8944	-1797	6370	4085	-9708	3592	13236	874	21371	-5304	-18520	768	-1000	8252	12802	-5890	-18268	2252	2280	9664	981	-862	121	129	1
-17416	-16472	32767	29741	7581	9875	-22312	7804	14208	-4274	14916	1611	-16556	1188	-7576	-5857	12613	5248	-10900	2860	13560	1893	26877	-6524	-20364	1212	-456	9109	14979	-6482	-20672	2880	3592	10867	-215	-1273	130	128	1
12572	13840	19288	14806	25328	3587	-32768	-2624	14452	5017	2769	-2475	-15868	3080	-9088	-2409	19748	4278	-12588	4264	13528	3350	32767	-8128	-24024	240	2560	11545	16282	-6664	-23624	992	7200	12449	-5083	-969	141	128	1
