#Activity	walking 
#ActivityID	1 
#Date 10-07-17-59
acc_rf_x	acc_rf_y	acc_rf_z	gyro_rf_x	gyro_rf_y	gyro_rf_z	acc_rs_x	acc_rs_y	acc_rs_z	gyro_rs_x	gyro_rs_y	gyro_rs_z	acc_rt_x	acc_rt_y	acc_rt_z	gyro_rt_x	gyro_rt_y	gyro_rt_z	acc_lf_x	acc_lf_y	acc_lf_z	gyro_lf_x	gyro_lf_y	gyro_lf_z	acc_ls_x	acc_ls_y	acc_ls_z	gyro_ls_x	gyro_ls_y	gyro_ls_z	acc_lt_x	acc_lt_y	acc_lt_z	gyro_lt_x	gyro_lt_y	gyro_lt_z	EMG_r	EMG_l	act
-9812	-8724	9116	568	328	1812	-14016	4864	-1680	-4540	6373	2093	-16552	-1320	-4880	1296	13176	4711	-17216	1456	12840	19922	-31443	26554	-6680	2868	-10988	-6182	-32768	-14567	-7312	-816	-10408	-13491	-6133	-1514	136	120	1
-9864	-8820	9196	-80	836	1971	-17160	-572	-528	-4587	8670	579	-17456	-2320	-4444	1532	9210	4931	-21368	3328	14844	22651	-32284	25617	-7868	1820	-12964	-2574	-32768	-17523	-6600	-1900	-11200	-14007	-1416	-2326	141	123	1
-9940	-9308	8924	-647	718	2819	-18064	-2548	-1608	2167	7970	2099	-16212	-840	-1576	1303	7991	4729	-28388	4016	18296	23350	-32534	27659	-11200	3028	-14364	1334	-32768	-16737	-6452	-3968	-12424	-11339	2969	-3004	130	117	1
-9692	-10564	8244	-290	256	4693	-16696	-1664	-2484	6982	7575	3471	-15572	996	208	2081	8810	3672	-32768	2204	20096	23383	-31962	32767	-18548	1860	-13984	5082	-32768	-16267	-7392	-3340	-8968	-10966	5238	-3752	128	116	1
-10160	-9000	9528	418	734	6528	-16308	1652	-2384	4434	9784	2470	-17172	1404	668	2809	8164	2554	-32768	-8076	19904	22813	-30455	32767	-23628	6104	-16256	9047	-32768	-15321	-10632	5520	-1972	-8828	1822	-83	131	117	1
-10468	-6916	11020	1787	4409	6318	-16844	3964	-112	-846	12225	3490	-17716	-1216	2524	1543	6657	2172	-32768	-21704	11032	22904	-28611	32767	-27484	9200	-13404	7326	-32768	-15810	-20072	6868	19592	-477	-8113	7824	118	109	1
-10596	-7716	11452	989	7076	5872	-18496	-3452	-1668	2707	14400	5615	-17420	-1412	2796	1125	6640	1976	-32768	-31928	-8512	17712	-24299	29847	-20692	12200	-11084	-560	-27139	-10027	-27400	584	30796	3213	3842	15096	103	101	1
-10492	-9624	10872	1347	9927	7476	-20892	-292	-2020	3587	15386	7199	-22948	-2088	-1072	-10207	1503	3134	-32768	-32768	-32768	19127	-16259	6821	-5100	-604	-4436	6719	-6199	491	-21688	-2176	32767	-6202	6422	9436	112	106	1
-11104	-10656	11036	785	12132	9363	-18964	-1308	-444	-3315	18585	8966	-19516	-5156	-728	-13994	3505	2936	-32768	-32768	-29320	11767	7556	-5986	-5840	11920	-12068	1192	15815	12767	-16528	-9172	24176	5073	5926	-3601	85	93	1
-11232	-11520	10756	1775	14536	13616	-20540	-564	336	-5572	20858	8559	-20368	-5068	1244	-14190	2755	2093	-2500	29360	32767	-12836	2131	-11691	-19568	-17056	10156	-9145	18057	11688	-5972	-1892	-4136	10179	13075	-721	139	122	1
-11320	-13532	12656	2681	18061	19158	-23060	2196	500	-8437	22903	9206	-21240	-1464	11192	-9577	-6965	1551	11392	13280	-3544	-19279	21300	-14711	-26412	7860	2560	-26854	3384	5400	-8276	-3244	-6896	21393	16657	4275	133	116	1
-15832	-19308	11364	3032	22770	27139	-26020	2076	7068	-13418	25114	8798	-19868	2140	11144	-12016	-8292	94	-32740	-9940	27516	-11091	25811	-8268	-12296	-14076	-4952	-20037	-1952	8274	-32768	19788	13732	-16075	-16185	8595	116	109	1
-15944	-17808	12632	4399	28509	32767	-27024	-1884	692	-10996	28569	8429	-20560	2920	9280	-8647	-8571	-1050	-16680	-11328	24968	1739	19131	-11708	-20308	-9072	-8924	-4634	14905	6925	-32768	22340	14168	-28159	-19429	8767	104	103	1
-27024	-19736	15652	3158	30733	32767	-29380	-5160	-6792	-7033	28007	9846	-23368	-11392	-2108	-17471	-17524	-5894	-18776	14376	9684	2719	16107	-9743	-14268	5820	-3004	4461	15339	11420	-3076	-20484	-5092	-11244	24517	-1954	142	122	1
-22436	-25352	20260	8092	24813	32767	-30220	1160	-5928	-5404	25549	10801	-22368	-4328	-4940	1981	-23594	-10214	-11552	9244	12668	-12637	6312	-7320	-24104	18320	-2656	-1736	13352	12804	-9172	13036	-13292	32767	5677	-9986	125	113	1
-5904	-32768	17444	10354	25899	32767	-25744	-384	-3848	3981	17241	12036	-29840	-260	-8268	12433	-25490	-13722	-14732	6736	11864	-9752	1105	-6640	-15540	9368	-4796	-9631	9324	3130	-19160	32767	-7252	15315	6378	10721	74	87	1
-32580	-25928	31116	9506	3740	32541	-15616	8764	-25708	9247	12601	11093	-30724	8240	-5080	16084	-26676	-11111	-13004	1024	15720	-7346	-898	-5568	-17452	-2148	-6636	-7628	5089	4139	-19776	8596	-936	-24226	14527	15988	102	101	1
-2340	-18144	15724	-5732	-17363	7101	-19564	11868	-5848	-1170	4133	2574	-31172	7008	-4276	9589	-26945	-7215	-9984	3536	13436	-1830	-374	-2026	-16284	-5352	-5584	-1779	8555	4176	-18840	-12640	-1316	-10424	12936	721	115	106	1
1904	-18260	6328	-3471	-15394	123	-10024	8816	-7424	-11781	-6452	-144	-24324	5908	-4204	-146	-22596	-7889	-10600	3876	12864	-669	218	-1181	-15584	736	-2792	2226	8508	6560	-13172	-6904	2204	5139	11798	-6133	160	135	1
1604	-11772	6056	2191	-9552	-9343	-7156	7060	-7672	-11957	-9711	-5052	-19960	4716	-5204	-5891	-20166	-8473	-10520	4316	12524	-345	242	-1430	-17136	2496	-936	1143	7222	4404	-15220	6708	1188	11908	15081	-1243	119	117	1
-1672	-9424	7752	19	-6878	-22178	-5596	3900	-9524	-6682	-16241	-6493	-16552	2788	-6036	-8104	-17511	-9241	-10088	4816	12180	-910	-164	-2263	-14992	1304	8	2100	5817	4262	-14432	9616	464	4521	16109	2660	117	114	1
-5520	-9364	9132	-930	-9592	-29499	-5384	1348	-9228	1263	-23826	-7058	-13456	3036	-6784	-6758	-14997	-9795	-10104	4776	12080	-993	-319	-2487	-15724	124	-956	1369	5747	3236	-15824	5264	104	-2938	15106	3416	123	118	1
-9140	-6272	10164	-2521	-16455	-32768	-5228	3840	-9524	9629	-29555	-8917	-11696	4416	-6592	-5554	-13437	-9182	-9824	3432	12928	-2446	-813	-3395	-16412	136	-3044	-1008	5879	3425	-17140	-156	180	-3139	15841	1515	111	108	1
-9612	-3228	10316	-9010	-22474	-32768	-5588	5200	-7988	12756	-32768	-11065	-11608	2532	-6308	-2327	-11438	-5472	-10368	2984	13128	-1554	-251	-2311	-16588	-552	-2844	-1597	5629	2627	-14672	-3376	3092	6297	20112	1709	106	105	1
-9664	-2964	10272	-10374	-23361	-32768	-7128	5980	-9316	12560	-32768	-12271	-9884	1248	-6640	5946	-9364	-1095	-10608	3044	12868	-755	181	-1586	-16044	-48	-2384	797	5705	2563	-13376	-712	4016	12562	20700	770	110	108	1
-13928	-5720	12568	-21682	-29913	-29961	-7552	10332	-9268	4726	-32768	-13479	-7440	2944	-8500	13407	-7583	1753	-10240	3456	12652	-387	444	-1477	-15328	-180	-688	2769	6399	3763	-17084	5432	-936	6764	16656	791	108	107	1
-16408	-7200	14504	-23792	-32063	-29197	-7392	11128	-10640	-8895	-32768	-14176	-5292	4116	-10276	17570	-5499	3629	-10304	3604	12992	-481	407	-1958	-16636	404	-32	779	7146	3825	-17360	11064	-3212	2838	12537	-679	111	108	1
-18620	-8984	17564	-25091	-30891	-30679	-10812	8772	-12576	-15802	-32768	-17188	-3612	6732	-11284	16619	-2519	4830	-10400	3360	12952	-385	526	-2390	-16216	-308	-708	-641	7885	3782	-17048	5488	1940	-2687	9920	1392	122	112	1
-27180	-13208	20048	-23570	-28214	-32768	-16596	7772	-13016	-17425	-32768	-19093	-3724	8488	-9700	10821	-478	5746	-9964	4352	13440	-678	531	-3423	-19268	2032	-944	-299	8619	6763	-15548	536	4300	-1308	11079	1623	123	112	1
-32768	-10968	19456	-17488	-24370	-32768	-21320	7056	-16276	-14744	-32768	-19876	-8876	3484	-5236	4860	-1572	2734	-10420	4092	13392	-761	2061	-4413	-17440	-892	-380	2304	9740	6196	-18296	1172	3916	-634	9168	464	121	112	1
-32768	-1280	13548	-15175	-19098	-32768	-22076	1248	-17392	-10590	-32768	-15801	-18328	-2784	5096	2645	-6064	-3614	-8676	1656	16196	-1287	4918	-4719	-16240	-2924	-740	3229	12061	5723	-17840	356	4440	1206	7303	1329	110	105	1
-32768	11460	1316	-15850	-12381	-32768	-23120	280	-14516	1216	-30206	-11629	-25772	-3948	24728	1044	-2865	-3952	-9856	2148	15220	-1852	9693	-4817	-19560	-2420	-2556	2073	14464	5729	-17724	-4776	4004	5216	6367	2038	115	108	1
-32768	30572	-7908	-15564	414	-29655	-12996	5988	-16588	14316	-16919	-5368	-27000	-3140	32767	1397	-12	2782	-10360	2324	15636	-2882	15336	-4691	-19240	-1072	-2336	2183	16351	5649	-17408	2156	2616	12735	6662	-1898	90	93	1
-32768	32392	-10880	-13208	12537	-16890	-3224	3644	-11120	-5937	8898	4084	-17912	-2484	22228	-10015	4539	219	-10788	2484	14424	-2846	21616	-4571	-19396	200	-500	3196	18468	5329	-18540	12096	516	12176	7988	-3195	90	97	1
23984	11200	-5376	24983	16040	23919	-16416	-4400	-5632	-15143	28165	2005	-16376	-4736	8404	-7230	8496	-3478	-11720	4976	14472	-4330	27267	-7625	-21000	-616	3892	7160	20964	6193	-20448	8788	7432	9914	7218	-2588	156	129	1
8308	-8892	17328	12737	16846	28147	-32768	-800	19044	2727	11821	-2108	-21572	3124	3208	-14215	11956	-4908	-13620	8668	16836	-8122	31359	-13663	-24876	-3724	8656	9221	24059	7476	-23388	2784	14748	8757	4957	-2489	145	125	1
-26552	-996	23224	7634	26202	19244	-18172	7864	64	32767	10717	9968	-30212	588	16324	7253	-1035	-3819	-15448	10808	15116	-12242	32767	-23830	-25876	-5780	9784	8704	26999	9702	-24224	-924	22608	15309	-12899	-2959	124	111	1
-19140	268	22200	-2968	16011	17373	-8764	18388	-8320	18748	20836	11212	-12816	-3068	-9676	30693	5488	3147	-25656	4560	21656	-14451	32767	-30817	-26904	-2064	5012	7911	30286	11220	-17392	-7824	12488	4598	-13751	-4048	112	113	1
-32768	-32768	-11096	-6325	7690	8020	-17960	1652	-16524	-9897	19763	-1183	-10172	18132	-7892	1413	4119	4209	-26796	7824	15500	-10576	32767	-31864	-28704	1776	-284	3765	31768	11745	-21440	10660	-4764	25346	-17888	-2533	107	105	1
-18072	-3812	12280	8371	3242	10303	-21052	-18876	-14412	2221	13466	-1609	-17784	-6976	-12420	-8675	13723	2467	-32216	17684	26608	-12131	32767	-32768	-32152	6176	-4232	1361	28011	9389	-28144	10540	-1788	5620	-24112	4257	106	103	1
-10796	-7600	10920	9333	559	7466	-17172	1876	-5948	29853	6040	6633	-13072	-16396	-12836	-11002	19694	-3692	9168	872	22876	-23282	32767	-32768	-24472	380	-8388	-4653	17650	1778	-29844	4540	-8736	-10341	-26509	5558	95	99	1
-11188	-7960	10156	7790	-1416	5761	-14836	10676	-4712	5361	6931	2115	-17060	-4500	-3680	11501	11587	-2563	-32768	10556	32767	-9181	-1150	-30813	-17012	2620	-20004	-82	7374	-38	-29392	-1856	-4880	-16470	-28592	4571	122	110	1
-11404	-6772	10048	5180	-1499	3281	-16500	7544	-3944	-7917	10449	-698	-17464	7608	1604	11280	10164	1862	-8824	11592	23688	14302	-18845	-14637	-15028	-7512	-8800	3698	4789	-3606	-30076	-2684	-1760	-7679	-30720	3728	124	114	1
-9772	-8140	9884	1822	-537	1331	-17084	-1640	-4608	-4542	10036	1049	-15276	6940	-912	3646	11089	7951	-1700	18692	10668	10762	-17492	-3913	-11476	-2300	-10900	9329	-3087	-4240	-24796	-744	-2988	787	-29474	2416	150	127	1
-9500	-8952	9188	782	501	751	-18508	-5292	-2904	13815	6019	4550	-14916	1716	-916	-3710	14234	6124	-2764	15344	8852	-531	-15699	11161	-8460	-256	-12420	8070	-13181	-4699	-22712	720	-4540	3319	-28092	3835	154	130	1
-9588	-9572	8544	887	465	921	-16036	3652	-2740	14992	3967	3132	-13700	-3024	-892	-3813	15045	3589	-2560	7604	11632	-354	-14882	25740	-6532	4736	-12676	757	-17068	-6400	-18556	2244	-5776	3350	-24107	4534	140	123	1
-9408	-9688	8316	1350	193	1290	-14792	6924	-3128	-7825	7521	1638	-14900	-4424	-1812	954	15818	1957	-6312	3512	13124	3924	-16581	32759	-5724	4796	-10596	-7807	-21417	-10742	-16224	1768	-6800	2156	-21176	5988	129	116	1
-9576	-9316	8772	1635	165	1765	-15716	1396	-3112	-16236	9667	-628	-18000	1400	-1392	-720	17752	2203	-7876	-716	14112	8343	-20811	32181	-4932	2752	-10748	-12533	-29756	-13012	-13104	2156	-7560	-239	-18480	6367	108	105	1
-9928	-8344	9568	1094	658	1568	-18340	-3948	-2336	-4680	7757	1146	-16832	2408	24	-9058	19610	4248	-10808	-2560	15476	13689	-26738	27604	-4760	532	-10924	-10842	-32768	-12975	-11124	1176	-8876	-6338	-14642	3927	125	114	1
-9852	-8680	9264	321	1055	1291	-17292	-328	-2116	6081	5463	2981	-14876	-2092	1692	-12393	18748	6324	-13252	-3132	15728	19600	-32768	22404	-4104	-1164	-10964	-4757	-32768	-14123	-8484	-8	-9336	-12016	-9841	547	128	116	1
-9696	-9140	8852	221	1023	1625	-15808	3928	-3016	2571	6450	2805	-14220	-2528	-1572	-3177	17154	6147	-15232	-2448	16016	24403	-32768	18924	-4520	-912	-11596	3658	-32768	-16117	-6076	-1248	-10276	-13740	-7894	-2526	129	116	1
-9724	-9208	8960	-24	1082	2157	-15380	3192	-3260	-3375	8441	967	-16592	-320	-9012	5427	12360	4615	-18132	-636	17416	27290	-32768	19141	-6708	1052	-13336	11275	-32768	-17583	-4756	-1268	-11192	-15028	-4108	-3334	133	118	1
-9968	-8928	9388	-681	1081	2988	-17968	636	-2832	-1399	8790	726	-17004	-952	-6032	1848	7988	4626	-24772	2236	20156	27233	-32768	22797	-12192	3656	-14332	12347	-32768	-16739	-4772	-1204	-11660	-13354	167	-3479	125	113	1
-10320	-8540	9760	-1712	1674	3622	-17352	1384	-2952	1115	8092	2123	-15544	2184	-1112	3379	10012	4704	-32768	-612	22204	25099	-32768	29672	-13096	3252	-14332	11825	-32768	-16722	-5700	-280	-8224	-12111	2981	-4156	124	113	1
-9368	-8964	10592	-2013	2138	4286	-16776	508	-588	3979	9370	3132	-16904	3116	2552	5408	9278	3260	-32768	-10756	18744	24706	-32659	32767	-23804	10036	-15780	10033	-32768	-16139	-10360	8260	-228	-6138	668	-154	129	116	1
-10556	-8364	10320	528	5700	5725	-17084	1428	636	1476	11700	3588	-18380	620	4664	3375	7172	2403	-32768	-17932	6892	23372	-27723	32767	-27088	10548	-13372	1429	-32768	-17088	-20616	6404	23060	6101	-7532	7973	126	114	1
-10436	-9092	11364	256	7862	6068	-18976	-1372	-764	2027	14328	5390	-18632	896	5376	-3854	7578	1258	-32768	-25884	-15992	15149	-21666	25387	-16976	3812	-15612	-2420	-26288	-10770	-26784	-6296	32767	3723	11163	16553	111	105	1
-11612	-7824	10716	-117	10823	7114	-21308	-1128	52	-1807	16419	7538	-20792	-316	4724	-11413	6707	2074	-32768	-32768	-31232	15405	-6853	11460	-4540	2560	-4520	8009	-2280	2712	-18468	832	32767	-816	1926	2364	110	106	1
-11116	-11148	10928	920	13240	10784	-18992	-3512	2060	-4691	19209	9013	-20320	-6816	1496	-16386	4121	2170	-32768	-32768	-25424	4595	10140	-466	-8556	16280	-13408	-1134	17936	12133	-15328	-68	19308	974	4407	-5148	99	101	1
-10880	-12840	10588	1971	16456	15380	-21716	-1384	1656	-3155	21997	9596	-22600	-7568	2436	-19003	1487	1716	936	31712	32767	-16095	4998	-11334	-20384	-13420	14308	-13577	17952	11987	-8292	3552	1428	4914	7956	338	114	107	1
-10844	-15956	12092	3378	20240	23417	-24120	3552	2268	-9873	24936	9456	-20708	-3292	12972	-11411	-8695	954	5864	6124	-1380	-22569	23418	-22322	-27524	12348	-908	-31292	4138	6037	-6772	3020	-6596	18889	20190	6121	145	124	1
-16400	-22260	10596	3761	24167	32301	-27588	112	6564	-14437	28587	9909	-20712	1740	12880	-11443	-9254	-548	-32768	-13340	30768	-12714	24891	-9766	-11896	-13208	-7188	-15431	7692	4786	-32768	14428	16044	-26469	-19132	3530	142	122	1
-21656	-23972	15412	2191	30157	32767	-30864	-4000	40	-8100	29060	9587	-22356	2972	6964	-7414	-8677	-1654	-16816	-6228	24520	1598	18744	-11760	-17784	-9156	-9280	867	20893	7885	-31680	-20968	5660	-32768	10687	6192	115	108	1
-32768	-32768	17940	1533	28519	32767	-29952	-2164	-6724	-3244	28041	11464	-23408	-13424	-7500	-19017	-19644	-9047	-32768	32767	-6104	-5196	9606	-669	-17992	18336	-5920	3869	19060	13889	808	-16292	-7884	11201	25777	144	129	116	1
-25276	-26412	19944	6970	23950	32767	-30368	436	-3504	-3773	23300	10898	-26228	-3904	-5384	6354	-24402	-13592	-13804	-2760	13564	-8084	2506	-6090	-19084	12424	-7724	-5546	11057	5433	-10440	15972	-15876	32767	-253	-9746	113	107	1
12608	-21344	21760	16745	25155	32767	-24000	-672	-1992	8881	13127	11538	-31040	2896	-8608	14964	-26668	-14737	-11976	2052	14028	-5516	760	-4378	-14456	3648	-6260	-3294	7703	1917	-19948	32767	-2792	2914	14074	16330	95	97	1
-20832	-24864	26468	8915	-5939	17402	-16588	9312	-27468	5505	11872	10879	-30416	7360	-3356	15408	-27339	-10962	-10872	12	15900	-2464	-666	-2702	-17560	512	-5532	-820	6201	3600	-24084	4680	-5232	-22230	16479	12129	104	101	1
-820	-17624	10756	-4351	-13031	-1140	-16840	12724	-3160	152	2014	2949	-28592	5516	-4584	6909	-25493	-8464	-10080	3100	13860	-599	449	-1295	-16804	-2084	-4012	-1071	8608	5261	-15124	-14240	2080	-11307	13520	-3261	111	105	1
1656	-15224	5388	1936	-9687	-5333	-8224	5980	-9096	-10834	-7240	-204	-24672	5072	-4720	1285	-22144	-9331	-10176	3884	12680	112	1114	-776	-15752	-992	-1608	731	7581	5398	-11580	-4236	2896	4424	14575	-7479	140	122	1
-776	-9660	6196	5942	-6918	-12741	-6772	4512	-8012	-6476	-11356	-3935	-19016	3460	-5704	-1907	-19685	-9791	-10208	5068	12032	141	1191	-1117	-16160	1880	240	3277	6133	3652	-15588	5804	1272	8385	16746	-903	137	120	1
-3252	-8212	7604	3625	-8275	-21819	-5056	2108	-10124	-132	-18567	-5256	-15476	3108	-6600	-3013	-17355	-10884	-10304	5696	11380	-514	550	-2469	-15436	3260	452	4133	6104	3241	-16076	8712	1208	4301	18294	3555	104	102	1
-6000	-7848	8112	1008	-13542	-27266	-5088	1808	-9756	7023	-25223	-5542	-15080	1736	-7652	-3321	-15843	-12589	-9692	4660	12288	-1662	-475	-3477	-15080	1864	-980	1021	7351	4264	-14228	7064	-52	-980	19116	4444	119	110	1
-8372	-6328	8856	-2456	-19819	-31162	-4664	3888	-10012	10806	-30645	-7307	-12188	2904	-7448	-2521	-11206	-11104	-11200	3036	12720	-2183	-880	-3578	-15968	932	-2468	-2565	5928	3354	-16432	1920	2040	2049	21304	2152	118	109	1
-9192	-5712	8892	-6584	-25700	-32768	-4748	4328	-9260	11886	-32768	-9623	-11484	1552	-8392	1160	-9460	-7396	-11012	3028	12740	-1751	-680	-2909	-16460	-656	-2872	-784	5850	1912	-14576	-332	4424	8156	22160	2300	115	108	1
-10936	-5980	9232	-11183	-29212	-32768	-5772	5540	-9580	11489	-32768	-10780	-9488	2140	-8260	7772	-8721	-3029	-10816	3400	12552	-1094	27	-2361	-15876	-1448	-1332	2913	7142	2985	-15276	528	2664	12625	18597	286	115	108	1
-13640	-6660	10132	-16884	-31420	-31942	-6516	9488	-9664	6058	-32768	-11669	-6588	5848	-8736	13583	-7805	424	-10468	4380	12788	-793	371	-2814	-16148	16	416	4035	8047	4231	-18424	5540	-1828	7440	12011	-1829	99	99	1
-16836	-8160	12300	-22284	-32174	-31721	-7532	11676	-11140	-6514	-32768	-13319	-4564	6360	-10492	17947	-5576	5327	-10456	4588	13256	-759	778	-4394	-18308	1696	-304	2141	8398	4615	-18608	7460	-1232	200	9584	-223	113	107	1
-20320	-10776	15928	-26858	-31422	-32418	-10604	9844	-13912	-16277	-32768	-17809	-4016	8556	-10940	15187	-3283	7999	-10404	4752	13116	218	1966	-5989	-17816	752	-2588	2830	8486	5494	-15572	2212	1064	2211	10548	3301	115	108	1
-30468	-15280	19844	-28412	-29344	-32768	-17716	8352	-14380	-21096	-32768	-22718	-4488	10660	-8956	8796	-1920	9079	-10704	3068	13764	-1444	5608	-6142	-16616	-3240	-3964	3941	9937	5844	-17316	-1400	1032	5033	10181	2282	114	108	1
-32768	-8116	22624	-27257	-24221	-32768	-23424	5796	-17460	-20535	-32768	-23430	-9236	3700	-3724	4897	-791	4672	-10428	752	14304	-990	9338	-4814	-17412	-2664	-3392	2354	10999	5279	-18508	-232	3068	766	8097	-467	100	100	1
-32768	3752	17988	-26750	-19505	-32768	-24388	3620	-18744	-18105	-32768	-17911	-22232	-5668	8648	3229	-5159	-3149	-10580	2072	14360	-794	13629	-3562	-17524	-980	-756	798	13133	5267	-16752	920	5764	1918	8147	-347	104	102	1
-32768	16040	2852	-17764	-14573	-32768	-20212	-1656	-14120	-6822	-26219	-12074	-27160	-11732	30232	-7528	1235	-8959	-11020	3576	13856	-2117	18102	-3975	-19340	-808	2788	858	15455	5727	-18644	928	7008	7520	7971	-209	141	121	1
-32768	32767	-9420	-9995	-2899	-21921	-7212	2260	-12752	1201	-8410	-4574	-24468	-3072	32767	-4063	5750	-1373	-11936	4584	13216	-3543	22347	-6168	-18236	1056	5408	969	19006	5929	-17316	6324	7716	10396	6347	-921	64	79	1
-32768	32767	-10288	374	3803	-4199	-3356	-356	-13776	7905	16264	6050	-16928	-4140	18420	-9132	2688	-1663	-12960	5180	12768	-6011	26475	-10428	-18416	-2684	5384	3701	22710	7414	-18680	9956	9448	13512	3853	-2323	135	118	1
-31136	-32768	32767	23896	4420	22687	-28068	-104	21200	-17853	20808	5184	-16720	-3300	-2876	-4740	10843	-3539	-14080	6792	14200	-9297	30955	-14946	-24556	-3856	7396	7148	27025	8938	-20392	5196	11932	12125	2276	-1103	124	113	1
-2300	-7984	5604	19823	20942	32767	-28356	7136	-6988	4591	9950	-4827	-22528	9052	11440	-12773	7800	-437	-16788	11288	15580	-12593	32767	-24858	-27612	-6648	7676	8217	28795	11041	-28212	-2352	29032	11964	-22571	-2739	170	134	1
-21320	1544	21488	-706	21523	14847	-13028	19296	-7484	11373	16352	10033	-23248	5840	14372	-9231	5361	-327	-20856	5192	13872	-13389	32767	-30336	-27380	-5052	6956	8106	29152	11181	-20816	-7120	14008	6029	-14512	-4758	109	106	1
-21680	-23076	8964	-5030	11421	16644	-18304	8684	-15968	-12075	22920	7715	-12792	6072	-7292	15766	4569	2381	-26700	8812	20260	-11067	32767	-32768	-28880	872	-3684	2263	31522	10883	-23452	14428	-11176	27457	-18547	-1887	98	97	1
-12420	-1068	18732	6972	7685	10852	-21840	-15180	-16964	-7979	18767	-2065	-9112	1892	-18676	-9795	15668	-3047	-24424	18268	29228	-13003	32767	-32768	-30408	3064	-3572	2565	25517	8526	-29296	10576	-2616	1829	-22362	3798	87	91	1
-11032	-8956	9044	7526	1682	5808	-19632	-5824	-11168	32767	8235	9191	-15092	-11980	-17028	-19986	19593	-1277	-1680	-7472	15508	-21236	32767	-32768	-32768	6632	-7980	-7459	4363	7043	-30336	7820	-8920	-11112	-26584	5990	114	112	1
-11388	-9064	9104	5761	331	4043	-12928	15444	-6856	21065	3844	7652	-17484	-7604	-9032	4271	13128	-899	-32768	12888	32767	-8291	-3905	-23112	-12580	18608	-21728	-1249	14451	-5321	-27192	1328	-5488	-19680	-27585	4191	93	94	1
-10448	-8000	10104	3362	85	2032	-15780	11324	-4632	-9077	8972	31	-19984	8344	-1428	10584	11192	650	-7256	9288	21280	15365	-25138	-6180	-15840	-6372	-7668	1160	9464	-5525	-29272	976	-1852	-11373	-28401	3943	103	102	1
-9888	-8264	9844	942	550	632	-16404	3680	-3928	-20442	12397	-1778	-15564	7980	1148	4607	11683	9091	-2748	14248	8920	10903	-23842	-322	-10768	1736	-11660	2578	-3676	-10029	-26628	436	-4160	-7743	-27654	4059	128	116	1
-9296	-8160	9796	925	652	524	-19416	-9156	-3328	-4815	7093	2041	-13940	3220	-856	-7560	13958	7776	-3928	12296	7692	-1072	-23976	6648	-8080	2140	-12016	727	-14065	-8125	-21704	728	-4692	-5457	-27261	3606	161	133	1
-9332	-10540	7632	721	368	874	-17812	-5608	-2964	13000	2951	4329	-14232	-3140	-1468	-12896	17812	4085	-2344	5200	9268	-1192	-22696	16335	-5724	1516	-11156	513	-18833	-11049	-17284	1020	-5804	-3940	-23019	5499	144	124	1
-9292	-10208	7880	1869	-194	1845	-15988	3860	-2048	6221	3080	4570	-15188	-6084	-1360	-9128	17756	2369	-5768	2732	11008	6345	-21103	23245	-6292	2600	-10836	-2808	-23781	-12501	-14564	932	-6328	-3272	-20098	5632	115	109	1
-9364	-9728	8240	2817	-796	2770	-14156	5452	-2160	-11893	7011	1169	-16468	-2020	-1788	-2493	18398	3452	-9064	1056	12064	10910	-23538	24637	-4952	1808	-9972	-2862	-26678	-14942	-12996	464	-7408	-5249	-19123	5525	89	95	1
-9796	-8728	9100	2537	-955	2662	-14508	4588	-2228	-13747	7428	806	-17020	1268	-176	-4693	18065	5671	-11616	-492	13468	17209	-27569	23586	-5000	676	-10204	-1305	-32768	-12833	-10260	96	-7864	-7569	-15137	2339	122	111	1
-9708	-8592	8980	2020	-730	2337	-17728	-3252	-1468	2472	5375	3369	-15868	152	636	-10237	17440	6694	-13968	-464	13496	23007	-31411	22674	-5340	160	-10824	2850	-32768	-12509	-8300	-144	-8168	-9665	-10952	-1159	118	109	1
-9768	-8668	9200	1647	-522	2362	-16600	3788	-868	6320	4912	3989	-15616	-1148	-2176	-3341	14631	6820	-16408	660	13340	25989	-32768	21955	-5744	476	-10972	6342	-32768	-13126	-6936	-572	-9196	-10711	-9182	-3793	133	118	1
-10100	-8692	9288	1073	-496	2750	-14472	3384	64	-326	7829	2704	-17300	-1176	-4760	6564	9597	6367	-20192	3068	14744	25605	-32768	22544	-7860	3156	-13036	6491	-32768	-14236	-6372	-1028	-10368	-11481	-5202	-4813	134	119	1
-9620	-9596	8804	935	-1126	3731	-16936	-1772	-624	650	9990	1512	-15968	-2632	-1340	4175	7946	5423	-27092	5616	16924	21477	-32768	26792	-13088	3564	-14360	2337	-32768	-14088	-6760	-2000	-10700	-11667	-997	-5098	135	119	1
-9836	-9704	9128	1770	-1061	5193	-17540	-2568	-1576	5659	9991	3192	-16196	536	1244	3456	8922	3925	-32768	1044	19192	16856	-31507	32767	-17528	5704	-15328	162	-32768	-16282	-9144	384	-6876	-11900	-33	-5510	130	117	1
-10024	-9440	9888	1589	-233	6765	-17508	852	-1108	6998	11201	4716	-17752	2124	1892	5156	7943	2478	-32768	-9444	16784	13821	-31082	32767	-21596	7316	-17020	-605	-32768	-17494	-13744	8696	1764	-7454	-3871	-738	139	121	1
-9268	-7868	12680	1965	890	7574	-16492	2188	-712	1240	13623	4194	-17040	896	3084	2348	6285	2127	-32768	-25016	8384	12243	-28602	32767	-24024	9364	-15428	-3263	-32768	-18034	-18396	8528	15704	287	-7880	7614	121	111	1
-10504	-8200	12648	3141	6205	7381	-19256	2348	-1400	-2313	16353	7001	-18048	1584	1616	-4507	6064	1742	-32768	-25800	6492	12016	-28125	32767	-18136	12340	-16048	-10311	-25343	-14809	-19164	-4004	21672	2062	7264	11577	114	107	1
-10728	-9360	11864	2631	10131	8570	-21796	-1684	-272	195	16412	8519	-21876	-140	3820	-11353	6584	4006	-32768	-32768	-27516	5963	-23086	1743	-8868	964	-11140	3799	-9989	-3704	-17892	-136	28912	-8233	8412	7975	109	105	1
-10864	-11916	12368	3664	11954	11416	-20072	-1360	2556	-3383	19474	9770	-20408	-3428	2340	-14616	3052	2737	-32768	-32768	-25488	17361	-1881	-10627	-6024	12012	-14148	9970	9598	10332	-11976	-5400	21072	2358	10405	-5172	99	99	1
-11156	-11152	12348	4946	14835	17026	-19816	1092	1228	-5733	23055	9719	-19984	-6644	4836	-17133	495	1932	-32768	-3508	28924	-8103	9367	-21205	-13996	-11396	7272	-3349	17998	14227	-13788	-7940	11736	3480	743	-4850	91	96	1
-12288	-12796	13636	3159	19594	23155	-24616	3640	-736	-10559	25465	10097	-20176	-2788	9844	-12368	-7289	1065	-2468	22552	-4616	-3198	25829	-17559	-32768	8412	200	-4028	2498	9220	-24516	-8520	4560	22957	9932	-898	137	120	1
-16076	-23996	12060	4186	23698	32595	-30048	-1220	6240	-14855	27735	10413	-22732	-1612	9328	-12971	-8482	-94	-31088	-3348	24696	-5275	22737	-10199	-14416	-2784	-1372	-3533	8525	9001	-32768	4300	16252	5592	-6194	-2742	129	115	1
-15720	-22716	15020	5732	27899	32767	-30372	-7560	2480	-8973	27551	9738	-22032	-2516	8676	-3693	-10740	-1307	-15032	520	17760	496	19767	-8469	-16852	-3680	-8840	1379	21009	9645	-15300	936	-2356	-18379	9094	7175	114	107	1
-23548	-28124	19860	9608	24510	32767	-29020	-3308	-6592	-5427	26751	10714	-23252	-11960	-7216	-11295	-21111	-9167	-17420	4712	19432	-10144	8820	-7565	-19364	16660	-9380	1717	15040	13294	-9572	4400	-12468	18949	15803	7780	129	116	1
-26780	-32768	20684	12490	18597	32767	-30084	-444	-4564	-2937	21421	11362	-25580	-1544	-7652	9722	-24497	-11496	-13836	4092	13248	-5365	3163	-4159	-16988	6532	-7816	-4321	14333	6179	-11260	12856	-11000	30079	3950	-1608	107	104	1
196	-3600	21992	25141	19254	32767	-21948	-1912	-7296	7283	12383	8603	-31056	3228	-8736	13188	-26617	-12439	-12532	4640	12576	-3578	1236	-2959	-16856	5896	-7760	-3975	14414	4926	-18864	26832	-6012	-2031	14973	7273	112	105	1
-14272	-21144	22032	-2987	-9794	13563	-15884	9860	-22056	5827	11569	11909	-29736	5968	-4116	14969	-26646	-9743	-11652	1000	14772	-1529	415	-2056	-18156	1772	-6220	-1284	7312	3691	-20628	68	-2556	-22592	15987	8228	118	110	1
-1760	-23352	6768	-3904	-11971	-2335	-13628	11524	-4168	-6372	258	2808	-25556	7464	-4720	8602	-22870	-9151	-10072	3460	13376	6	1161	-980	-16804	-1520	-3728	-865	6800	4674	-15824	-10756	1020	-9149	14948	-2890	110	106	1
1628	-15040	4192	9920	-5951	-9592	-7944	4248	-9104	-10401	-6352	-2058	-22292	5484	-5020	-208	-19959	-10437	-10100	4820	12412	591	1628	-850	-15824	-192	-1828	1955	6753	4644	-13560	-776	1188	5480	13798	-5700	153	131	1
-1552	-8272	5880	5645	-1434	-20951	-7988	2964	-9828	-4953	-11216	-3052	-18716	1100	-6652	-4753	-16280	-12055	-10488	5568	11784	432	1544	-1314	-15936	2808	-852	5794	6065	4164	-16320	7148	448	8506	15084	-252	134	125	1
-5424	-10780	7492	2734	-5173	-27544	-6712	-2268	-10592	2159	-20086	-3655	-15808	-296	-7468	-3939	-13072	-13224	-10592	5380	11880	-882	765	-2389	-17524	4400	-2444	3764	4973	2549	-17892	7568	-1456	3013	17699	4509	97	98	1
-8744	-9544	8004	2895	-13797	-31106	-6052	-1408	-10848	14029	-27480	-5268	-14024	-104	-8088	-1044	-10517	-14413	-10896	3500	12900	-1068	853	-2224	-17400	3548	-2868	3300	4811	2758	-15524	1848	-3192	2206	19230	1649	117	113	1
-8848	-7664	7264	275	-20188	-32768	-6280	508	-9128	21633	-32768	-6594	-12124	532	-8376	2043	-8350	-13992	-10772	3060	13012	-185	1744	-1068	-16220	-776	-5320	4306	3872	1377	-15360	-1524	-936	5963	25941	850	114	111	1
-10820	-7932	6820	-4148	-23862	-32768	-6204	3508	-10952	23794	-32768	-7347	-11172	2228	-9076	7012	-9079	-9787	-10932	4172	12840	666	2478	-661	-17080	-136	-3264	8618	3075	1864	-15336	-1980	3208	15903	26585	744	111	108	1
-13596	-7828	7116	-8142	-25583	-32768	-6316	7072	-9864	21604	-32768	-6769	-8708	4112	-8216	14761	-9916	-4017	-9624	4816	12992	2625	4438	-799	-14996	-3820	2088	12288	4857	1761	-15936	2580	3080	19962	20461	-1657	109	108	1
-14712	-3020	8808	-10784	-26506	-32768	-7168	12564	-10740	9383	-32768	-8864	-7084	6540	-7684	19711	-10934	1482	-8660	-352	12736	2228	4533	-402	-11968	936	7388	11192	8097	2398	-21012	9464	5140	6702	10320	-1274	108	106	1
-18572	-7300	11596	-25258	-25893	-32768	-8728	10980	-12384	-8114	-32768	-12654	-5956	7880	-7864	21745	-9433	6597	-10244	4972	11628	2864	3444	-1652	-15304	1840	5668	5823	12098	4923	-20000	9644	5280	4003	8905	-1220	107	106	1
-22144	-9972	17224	-32047	-26757	-32768	-12984	9568	-14620	-20872	-32768	-20254	-5004	10172	-7608	16192	-7439	8038	-10612	6328	12020	1837	3324	-3821	-18300	2516	-60	4901	11888	5546	-16052	2044	6180	3742	9798	3868	109	107	1
-30504	-10820	21508	-32768	-29414	-32608	-16704	7476	-14984	-30919	-32768	-25003	-6244	10600	-5448	9646	-3933	7868	-10264	5784	12940	618	4957	-6255	-18720	24	-4480	2727	11652	4916	-15372	-3836	-448	11831	11387	583	118	110	1
-32768	-4452	23544	-32768	-29216	-32768	-19288	4556	-14880	-32768	-32768	-28961	-9972	3016	-888	671	-4091	2377	-11260	3224	13232	527	8573	-6089	-16472	-2232	-5408	828	12159	3172	-18248	-788	-4040	5518	9897	-716	117	109	1
-32768	4128	22420	-32768	-23925	-32768	-22540	2868	-16028	-25579	-32768	-21818	-17220	-4308	7108	-8737	416	-4476	-10736	2764	13372	-1116	12570	-4522	-18124	-1100	-2880	-2944	12202	3165	-17180	3712	4	-2124	9211	-980	193	148	1
-32768	13608	9288	-17355	-16264	-30713	-19784	140	-10716	-15387	-23522	-14882	-21072	-7684	26164	-19764	2772	-11212	-11916	3288	12704	-1663	17674	-3792	-17540	-1484	472	-3234	14513	3400	-17324	3072	6456	4117	7939	-774	101	104	1
-32768	32767	-7220	-4325	-4760	-16132	-7696	-40	-12348	7286	-7374	-6585	-28240	-6640	32588	-17168	7810	-9004	-12612	5600	12060	-2747	21500	-4861	-17376	852	4500	-709	17583	4079	-17644	3744	5140	8079	6563	-2885	181	141	1
-32768	32767	-5264	-155	7477	-5401	-3572	-688	-12252	19518	13168	8721	-17740	-10640	19856	-10083	2148	-4168	-13332	6776	12000	-4145	23650	-8898	-18612	96	4856	478	20803	5305	-18488	6444	6432	5497	6138	-1641	135	119	1
13076	-9388	32324	32767	15695	1506	-7616	10572	-24236	17768	28873	12262	-10932	-9700	3560	2062	7861	-2264	-12964	4660	12320	-5151	27926	-12100	-18176	-4668	5524	4338	24406	6301	-19040	6828	7192	6892	5657	-1660	97	97	1
25280	-31752	3240	12368	8395	19495	-32768	-4448	32588	-8830	2358	-2826	-6168	1100	-15600	-11403	25352	-7532	-15096	9596	14456	-6973	32767	-15765	-27144	-7580	5604	3820	28553	8256	-24692	-1344	17468	8997	-8928	23	148	128	1
-32768	9868	29960	17408	25290	32767	-16748	14132	-4804	26453	1744	-1101	-32768	10132	10492	24647	-8784	12351	-25448	8596	18552	-9204	32767	-22208	-27160	-3988	3380	2487	30677	8189	-18932	-7756	15628	-2769	-17879	-4523	130	116	1
-26400	-3672	22724	-2650	16067	20397	-23332	15880	-10952	14767	23720	19568	-30672	-2192	13628	32767	-12010	8399	-32768	15184	20164	-11596	32767	-26490	-31176	4876	-2168	-3205	32767	7260	-28304	14484	4124	22927	-14045	-5325	136	120	1
-6796	-11412	7076	7559	10968	8932	-21280	-7456	-17868	-26215	27542	-3126	-4692	11144	-14848	5542	18598	4609	-32768	12996	28216	-8482	32767	-29138	-31884	3244	-4272	-7575	31198	5094	-27136	17816	-5932	3178	-20805	1275	110	106	1
-14864	-16984	2420	8135	3770	7608	-15376	-16928	-10444	16019	12563	4806	-7120	4504	-21452	-28890	24109	-1317	-4668	25948	24744	-25454	32767	-32768	-28964	3196	-528	-10310	21167	-1704	-28420	7388	-7160	-19232	-25450	3327	135	126	1
-14436	-14188	4600	8309	3408	6619	-16792	9264	-11104	26416	4857	10405	-9764	-20224	-8216	-20248	12684	-9561	-32768	8284	32767	-31296	23320	-32768	-18684	10656	-11700	-7956	-18124	3692	-27616	5216	-5416	-24052	-29141	3598	148	136	1
-10656	-6880	10276	4909	-31	4237	-13840	16156	-7032	-12196	10479	377	-24672	-3984	-5204	4812	10547	-3633	-25908	3452	32767	2300	-20350	-22426	-17324	-3680	-13056	-13102	17797	-11528	-29220	276	-3164	-16953	-30512	4050	95	97	1
-10484	-8772	10708	1689	902	2029	-17204	-128	-3308	-18548	12691	1020	-22376	11620	-388	3940	9985	4412	-7636	11360	16668	21062	-30431	-12446	-10800	-780	-8580	-80	5609	-13511	-27576	876	-3404	-7663	-28854	4675	79	89	1
-9964	-9104	8720	1030	899	1752	-17912	-9020	-3556	3564	9030	-581	-12844	2344	128	-6414	13448	10416	-8116	15744	6952	16907	-32740	-6289	-9368	1928	-10836	7186	-4685	-15563	-25156	3140	-4060	-9183	-28114	3740	132	117	1
-9904	-9636	8244	1306	91	1827	-17592	-3408	-3652	17291	3398	6816	-12864	-7496	-2304	-13112	15130	6326	-7860	16568	4528	419	-32768	1603	-7720	3928	-11292	7887	-14316	-12829	-19780	1432	-6096	-8855	-26123	4928	136	127	1
-9552	-10636	7564	2559	-1330	3133	-15064	4444	-2628	4302	5169	4927	-14976	-9104	-2016	-5323	13210	3696	-5172	9404	5308	-715	-32768	12527	-4676	3808	-10844	9372	-21924	-15852	-15396	604	-7144	-5130	-22003	3359	127	122	1
-9820	-9528	8340	3463	-2219	4181	-14340	1112	-2308	-9803	7637	1870	-16512	-5104	-2064	5289	12007	3959	-6808	7040	6384	9034	-27912	22526	-6088	7056	-10516	4222	-24991	-17056	-13496	2192	-7976	-3672	-19073	2574	113	111	1
-9864	-7752	9720	3158	-1890	3800	-16888	-3444	-3072	-3473	7941	1697	-17592	1448	-752	4275	11174	4814	-11196	8112	7520	12974	-26416	27724	-4692	5540	-9872	204	-29683	-17776	-11716	2516	-9360	-7447	-15259	3814	108	107	1
-10108	-8156	9568	2524	-1129	3311	-17024	52	-4048	6672	5575	4057	-15396	2924	-216	-3235	13607	3793	-12036	8216	7780	12933	-26622	28116	-4512	4976	-10616	-2661	-32768	-14926	-9128	-152	-9996	-11231	-10994	2233	125	114	1
-9996	-8364	9644	2304	-814	3333	-15756	4072	-4724	6703	5572	4368	-13976	2488	444	-8944	19248	4364	-19244	4852	11712	14183	-32768	28736	-4744	2144	-11076	-3175	-32768	-15189	-6580	-2712	-10072	-13416	-6730	-1909	121	111	1
-9992	-7696	9836	1969	-310	3329	-15404	5760	-6064	218	6931	1684	-14144	2304	468	-9399	19988	4700	-20760	2544	13276	19145	-32768	28223	-6164	244	-12532	532	-32768	-16959	-4584	-4676	-10824	-11159	-6233	-5893	112	107	1
-9976	-7816	10256	1627	372	3406	-16576	4772	-5772	-5206	7365	-282	-14952	4276	-6776	-6941	18658	6532	-24984	2492	16344	23667	-32768	27817	-9340	144	-14404	6629	-32768	-15725	-4308	-4288	-11172	-8192	-1323	-8424	138	121	1
-10192	-7780	9780	-516	625	3531	-17168	1404	-3356	-5156	6598	-3	-15044	1128	-11908	-1191	7133	5382	-31956	180	20060	23942	-32768	29621	-15416	4244	-14180	10943	-32768	-14773	-6288	-1592	-9524	-9133	2513	-8523	130	117	1
-10452	-7824	9148	-1841	654	3858	-16340	-2756	-2256	-274	6957	1672	-15000	-6180	-1300	4617	10681	6673	-32768	-5976	22140	20724	-32768	32767	-22652	6368	-16536	9923	-32768	-15779	-9988	6752	-3992	-11987	805	-4072	133	118	1
-10360	-6808	10460	1326	3421	4214	-15992	156	720	1544	8565	3184	-18392	-8512	6472	3761	9704	4305	-32768	-16576	16728	16815	-32389	32767	-25660	9384	-14884	4356	-32768	-18066	-19096	13852	11496	-8403	-7569	6776	134	118	1
-10164	-8544	10808	2192	4498	4795	-18036	-4460	2180	1214	11928	4830	-18716	-992	5624	4686	4894	3295	-32768	-18872	-5320	7597	-32768	24271	-22136	10204	-12220	-6517	-30716	-15710	-24016	-2484	25008	-2875	1683	13684	125	113	1
-10428	-10092	11300	3581	6732	7767	-20288	-1660	668	1945	15609	6262	-20624	2508	5088	-1301	6738	3028	-32768	-32768	-29920	10134	-22230	6176	-11876	380	-9460	4372	-17848	-2236	-22296	-9048	32767	-8647	3929	8069	114	108	1
-10996	-8476	12580	4181	9290	11088	-19048	-228	-928	-3154	17406	7386	-18504	-420	5860	-11789	5872	2343	-32768	-32768	-28352	17317	5705	851	-7536	8592	-9956	6314	9531	10695	-15296	-7652	27440	5578	1256	-6277	89	96	1
-12876	-4404	13228	2199	12701	9167	-19852	-1484	-304	-5486	20232	9852	-23024	-5320	-4284	-18525	-950	1420	1720	9692	-8984	-17088	17162	-11930	-17260	10720	-8748	-3579	19766	15759	-15420	-5064	5976	8442	3424	-3497	119	110	1
-11224	-12140	13532	3138	15489	14754	-23904	1284	-184	-6015	21875	10544	-23868	-7060	2520	-17645	16	2736	1164	13776	6872	-4927	14820	-11729	-32400	-6844	4744	-3699	12220	8537	-5936	-356	-80	21796	4601	1744	109	107	1
-11128	-12912	13276	3184	16361	15852	-27124	2580	824	-13789	23964	10132	-23436	-7176	3840	-16281	-1765	3232	-19232	4516	20016	-13253	31043	-12427	-26568	-11412	-2172	-25746	-2887	11233	-4528	672	-1284	22832	6910	2044	145	125	1
-15008	-21288	10936	4851	23758	32767	-27732	-2604	5096	-14762	26331	10212	-21668	-1708	12356	-10619	-8495	974	-15972	-9408	25552	-3368	21760	-9917	-18476	-10384	-6552	-11682	11915	7072	-30248	16272	7684	-22767	-584	9034	141	123	1
-16324	-18744	16552	5271	29262	32767	-30720	-7304	412	-7351	27117	10777	-22748	-1648	7684	-3720	-11814	-1224	-32768	27096	1552	-3795	8852	-8689	-20776	10492	-6696	-1206	16047	11273	-21980	-14868	2360	-24274	9421	8173	145	125	1
-28828	-20752	17944	9303	25910	32767	-30976	452	-3280	-6174	25852	11150	-23116	-11096	-5648	-9306	-20401	-9579	-12008	-12512	17620	-10534	953	-9042	-16764	12952	-9640	-9405	11313	11617	-9100	6800	-15068	23169	19074	-370	136	120	1
-19360	-30924	20672	15813	24054	32767	-30204	1072	-3112	-1064	18784	12060	-29188	-480	-6708	6915	-26202	-12916	-12156	2308	14516	-6689	-126	-5533	-16464	940	-7096	-6944	8730	3170	-9388	18052	-10020	15421	7656	2202	91	95	1
-32768	-1244	17276	28388	20725	32767	-22980	3896	-8292	9371	10214	10761	-30668	7288	-6480	14524	-28663	-11935	-10344	656	15100	-2838	-1423	-2784	-16092	860	-7380	-1752	5156	5112	-20344	14616	-2800	-14250	13553	12946	87	94	1
-15052	-17892	22748	-2970	-7433	9073	-15144	11676	-23856	4949	11584	9940	-29944	8680	-2732	14586	-28979	-8283	-10588	2564	14108	-1195	-354	-1597	-18136	-560	-5068	-333	5223	5239	-22548	-7588	-876	-17857	15353	6453	82	89	1
-1620	-20436	7860	-4079	-10781	-4985	-13484	12524	-5344	-10465	1728	2537	-26076	6636	-4116	4568	-23839	-9677	-9728	3456	13368	-12	739	-461	-16720	-160	-2548	-1600	5939	5548	-13252	-8232	2404	1309	13847	-3364	63	78	1
1544	-13600	5144	9056	-5297	-9857	-8136	3960	-9016	-14219	-5458	-2147	-24208	5784	-5548	-3162	-22206	-10644	-9892	4596	12444	461	1428	-365	-15952	-480	-36	885	4896	4712	-13224	2808	2528	10890	14452	-2601	197	152	1
-1040	-6424	6780	7218	-1631	-19339	-7736	1500	-9532	-4079	-11655	-3178	-18484	1484	-6392	-6103	-17773	-12302	-9912	5056	12140	214	1354	-945	-15560	-40	1080	6090	4375	3721	-16120	9776	2200	5811	16346	2543	126	116	1
-4384	-8540	8156	3306	-5242	-25712	-5060	148	-10588	7221	-20564	-3213	-16316	336	-7528	-4856	-15673	-13010	-10108	5356	12056	63	1319	-1060	-16544	2260	-792	8077	5113	4608	-16584	5668	952	752	17654	4221	111	109	1
-7456	-7532	8356	1916	-13002	-28926	-5240	1940	-10492	13984	-27713	-4373	-13508	800	-7988	-2061	-13461	-13846	-10236	3372	13332	-181	1063	-1646	-16828	484	-2608	2170	5340	3663	-16416	216	1540	2168	19977	2032	140	132	1
-8504	-5792	8360	-1202	-20057	-31241	-4204	3012	-9584	16989	-31719	-6266	-12244	1056	-8500	-85	-11667	-12386	-10696	3368	13052	613	1668	-742	-16140	-1864	-1792	3279	4708	2983	-14800	-1144	4820	10215	22956	1001	120	116	1
-8684	-5468	8284	-1978	-21147	-31582	-4444	4692	-10160	15597	-32768	-7457	-10304	628	-8916	4843	-10576	-7948	-10516	4148	12560	1109	1968	-437	-15212	16	-700	6744	5778	3687	-13260	756	4180	11167	20679	647	107	105	1
-11008	-5364	8496	-12019	-28809	-32768	-4728	6116	-9508	10890	-32768	-8099	-8608	1080	-9072	13437	-9459	-2663	-10412	4148	12472	1027	2041	-371	-15128	-804	1680	7206	7641	4722	-17556	4864	-12	7275	15314	465	96	97	1
-14472	-6836	8988	-17122	-31171	-32149	-6048	9388	-9852	1773	-32768	-9153	-6464	4608	-9800	20180	-8902	1178	-10172	4468	12780	942	2462	-706	-16548	564	1752	4527	8520	4776	-18328	9080	140	3502	9854	153	105	104	1
-18028	-7816	9932	-22314	-32758	-31859	-5900	11364	-11044	-8907	-32768	-12343	-5040	8152	-10468	21252	-6741	6069	-10564	4844	12496	965	3063	-1607	-16068	308	156	4079	9411	4753	-15960	4688	2056	3938	8547	1474	110	108	1
-20296	-9568	13436	-28524	-31833	-31973	-9588	9844	-14236	-17636	-32768	-18972	-4324	10532	-10916	18232	-3440	10617	-10544	5272	12528	1969	3475	-3021	-17212	1628	-2148	5433	9929	5283	-14632	-2072	784	7046	10293	2858	114	111	1
-30032	-13904	17208	-31838	-28772	-32768	-16620	8528	-14608	-24363	-32768	-24866	-3328	13160	-8136	8610	-808	10175	-10800	4536	12992	2489	4709	-4532	-17408	-380	-3332	6623	10128	6217	-16828	-1660	-944	7046	8937	1310	110	106	1
-32768	-8148	20512	-30728	-22394	-32768	-21788	3644	-18188	-21698	-32768	-27571	-8216	5748	-2856	2834	-1102	6157	-10460	3844	13552	942	7747	-5128	-18136	-1736	-2920	4533	9986	5367	-19136	4460	-652	5942	7774	189	114	108	1
-32768	5264	19952	-31594	-15084	-32768	-25148	1900	-18572	-16502	-32768	-20469	-20288	-6152	7384	416	-1387	-937	-10540	2808	13832	-69	11115	-4057	-17284	-1220	-436	601	11740	4964	-16224	3924	6096	3830	7856	1149	129	115	1
-32768	13196	8656	-22391	-11876	-32768	-23060	-1492	-14680	-6677	-28945	-11402	-28424	-8396	26188	-16276	-320	-9846	-11812	3908	13152	-573	15287	-3844	-18476	-348	1368	-315	14140	5626	-17828	1384	7280	7402	6847	-561	145	127	1
-32768	32767	-9852	-3824	-3729	-23156	-8972	6856	-10720	-350	-10659	-7386	-25904	-6384	32767	-3697	10250	-9141	-11768	4996	12616	-1949	18984	-5262	-17528	1508	2972	544	17108	5543	-16068	5900	4648	7379	7041	-1650	86	92	1
-32768	32767	-13080	-5031	1308	-804	-3904	-1796	-9884	6025	13366	2165	-20728	-5484	24424	-9144	3100	-4241	-12352	6224	12324	-3819	21489	-8026	-18788	716	3240	666	20120	5933	-18452	7612	4896	8102	5401	-197	156	130	1
14728	-32768	16256	32767	4393	4186	-13068	-340	-10824	1889	29974	8216	-12384	-6092	5200	-466	9487	-2437	-12532	5420	12464	-4925	25184	-11586	-18708	-2220	3652	4949	22760	7182	-17832	4404	8668	11647	2975	-934	78	85	1
15936	-22080	-188	16002	11658	23024	-32768	2756	18244	2178	5409	-1507	-9812	4100	-4080	-15080	19917	-4202	-15280	9932	14444	-6591	30591	-15864	-25320	-5716	5060	6938	26116	9323	-21756	1196	11780	11537	815	-497	120	112	1
-25680	2800	26216	14442	27499	29435	-12064	15820	2092	20340	5865	877	-21652	7924	2200	6195	4996	7222	-16536	7004	13776	-9230	32767	-23681	-24584	-5252	2796	7104	27881	10683	-22832	-8128	20188	5591	-20753	-2643	123	113	1
-22124	588	25472	-5443	18219	17614	-16940	18100	-5960	6468	21026	12670	-24728	7164	3000	14487	1155	8695	-21744	1440	18252	-7319	32767	-26983	-29028	-1580	-1836	4421	30093	11484	-24024	-2656	10748	15026	-12121	-5448	94	97	1
-32768	-32768	-9604	-12292	7530	8127	-20064	-2216	-17828	-19454	20011	199	-15176	15472	-2712	7867	8506	3786	-24664	824	22684	-5718	32767	-30183	-29188	-1988	-3388	3176	30138	9801	-22384	14268	-6908	23711	-17437	-1268	110	110	1
-15092	-556	17408	6611	5563	10090	-15912	-20824	-14480	3107	16413	569	-12172	296	-17084	-18474	22332	271	-26964	11144	26688	-5476	32767	-32458	-29040	2320	-4392	3367	27329	8051	-27788	11988	-3012	3154	-22111	1883	88	91	1
-10152	-6512	11552	6416	2157	4910	-17752	784	-9672	32767	8156	8874	-11284	-13260	-15180	-18365	19233	-6105	9632	12120	18072	-14796	32767	-32768	-26600	2132	-5380	-2648	16122	1325	-29892	6684	-7144	-11290	-26977	4595	133	124	1
-10828	-9704	8932	5728	652	3879	-13432	13728	-6156	492	7135	3493	-17376	-7404	-7444	1794	11498	-4128	-32768	9920	32767	-14159	4552	-32768	-15936	16256	-23652	5498	1009	386	-26216	1408	-5048	-17165	-27157	4809	117	108	1
-10784	-7220	10332	2786	657	1970	-15964	7688	-4884	-18732	12282	367	-18980	-5076	-6660	4011	11244	-2926	-12688	4528	26320	13963	-25048	-19346	-15880	-7196	-9508	-1159	12332	-6162	-28836	884	-2356	-10015	-29073	4181	100	102	1
-9856	-9112	9136	752	1259	1074	-18548	-6612	-3072	-8730	10929	-1477	-16476	7284	-880	697	11489	9511	-5900	11480	10348	19904	-26052	-12202	-10364	-220	-10972	6501	-1945	-10750	-26412	528	-3636	-7402	-26454	5307	152	128	1
-10132	-9540	8136	342	1207	736	-18076	-4836	-5620	11814	4123	3034	-13384	-884	-2676	-8082	15097	6446	-5728	15108	6732	7996	-28232	-5846	-7820	2820	-12260	7587	-10843	-9030	-22368	688	-4680	-7017	-26627	3623	167	137	1
-9748	-10424	7548	1057	432	1109	-17036	1760	-3528	8766	2937	4605	-14516	-6060	-3740	-11183	15883	3958	-3100	9244	6032	1692	-27316	4150	-5524	1436	-11800	6627	-19066	-9794	-17396	748	-5984	-4509	-23035	5754	147	126	1
-9628	-10416	7528	1807	-447	1988	-13892	4032	-3500	-9276	6029	1517	-16388	-5588	-3348	-3506	15059	3019	-3960	5388	7832	9680	-22352	16196	-4760	3492	-11832	2701	-22486	-11493	-14808	972	-5928	-2290	-18993	4355	115	109	1
-9972	-8992	8664	1571	-444	2084	-16368	60	-2844	-14099	7581	-337	-17284	-324	-2920	-183	14893	4054	-9376	6300	9092	14569	-21931	24202	-5108	3732	-11604	1888	-23167	-11436	-13300	1844	-7268	-5154	-16776	5236	126	114	1
-9956	-8988	8768	872	-131	1589	-18080	-3284	-2712	-4426	5387	1277	-16236	2332	-1856	-4942	15582	4908	-11412	4968	10308	13753	-25325	27165	-4756	2644	-9900	-2411	-31895	-11233	-10836	1208	-8608	-7762	-13589	3572	124	113	1
-9892	-9648	7892	872	-260	1829	-17092	-2124	-3552	3474	3639	3657	-13856	-460	84	-7612	16351	4591	-13288	1140	12000	16284	-27927	27923	-4936	2264	-10508	-3884	-32768	-10734	-8380	-364	-8936	-9057	-10344	889	131	118	1
-9736	-9780	7888	948	-369	1918	-15392	2848	-3036	1831	4052	2991	-14420	-2108	-1504	-3948	16491	4807	-16304	1452	13008	20666	-29788	28431	-5972	2068	-11228	-4383	-32768	-12333	-7352	-704	-9704	-10334	-7847	-1661	125	114	1
-10216	-9168	8636	612	-163	2030	-14880	4884	-1816	-5974	6187	1565	-17256	-1512	-6524	559	11334	4496	-18992	3332	14216	21142	-30902	28770	-7428	2084	-13168	-2498	-32768	-15187	-6592	-1160	-10616	-11305	-3849	-2789	136	120	1
-10236	-8272	9144	-368	622	1620	-15208	4148	-1668	-6392	6525	1443	-16744	-2156	-2820	2765	7459	5163	-25348	3692	17136	20135	-31065	30014	-10572	2740	-13624	246	-32768	-15269	-6244	-1092	-11416	-10871	870	-3346	134	119	1
-10252	-9036	8668	-1619	796	1741	-17296	-1620	-1304	1878	7314	3321	-15768	300	1020	3877	7581	4792	-32768	3776	18920	19126	-30761	32767	-17356	1516	-14360	854	-32768	-15461	-7552	-1624	-9368	-12579	3767	-3344	132	118	1
-10064	-9640	8600	-2058	684	2925	-16220	-72	-1572	4371	8302	4212	-15760	564	1320	3804	7756	4687	-32768	-4380	19108	19940	-28528	32767	-21696	5296	-15096	5073	-32768	-15683	-9620	4384	-4568	-12764	2809	-1143	129	116	1
-9268	-9764	10084	160	2253	4237	-16852	520	-112	2056	11034	3857	-17448	1040	2440	1694	6189	2261	-32768	-17520	14652	21810	-26131	32767	-25196	7116	-13500	6213	-32768	-14776	-16968	8112	10080	-5745	-3686	4515	116	108	1
-10016	-9348	9936	669	4384	5678	-17928	-1544	-444	1973	12749	5454	-17316	-472	2052	-2020	6249	1443	-32768	-23204	1268	18667	-24807	29610	-25620	9184	-13772	5510	-31355	-12117	-25600	120	32767	5382	-5080	9329	119	110	1
-10220	-9728	10728	285	7075	6944	-19452	-148	-2584	3930	14040	7055	-18592	-508	1112	-8588	5567	2334	-32768	-32768	-22292	16977	-20828	10881	-9212	1184	-6200	9134	-16371	-495	-22604	-976	32767	-4970	8216	12352	127	116	1
-11092	-9444	10536	-191	9849	8066	-18428	272	-2376	-175	15290	8533	-17644	-3928	-2636	-14695	1874	2640	-32768	-32768	-30252	20966	-5261	-4544	-6476	11036	-4120	9237	6076	10280	-16768	-3376	30660	5786	2126	-2297	103	102	1
-11148	-9768	10708	41	10219	7955	-19252	-1364	-2132	-2980	17659	9867	-18652	-4776	-492	-13526	3428	3440	5160	3752	-14560	-28422	8957	-22803	-15844	7940	-8648	-13537	19937	14342	-14776	4668	15700	15274	6068	-3279	95	98	1
-10760	-14284	10660	-33	15209	13260	-22352	-484	808	-5782	19033	10297	-22688	-3432	3648	-12617	2181	2682	2588	3996	5320	-14838	7972	-11119	-28748	-7188	2560	-15796	10996	6306	-10296	1116	-88	11445	9952	2064	144	126	1
-11660	-14300	10720	1742	18850	21743	-23736	1552	1660	-9661	21770	10142	-21248	-3468	11248	-6747	-7693	1852	-9320	-1976	23080	-18884	26384	-13415	-20952	-15424	-3616	-30587	514	6364	-15540	9864	3468	-22	2884	9774	140	122	1
-16048	-19140	11600	3602	21701	29315	-26392	1080	7136	-11148	25152	10614	-21160	488	11160	-10489	-8503	-80	-18848	-14948	26260	-3476	20088	-9332	-18540	-13312	-9684	-12552	14350	7591	-29956	9632	316	-28014	-2132	5378	117	110	1
-16564	-16616	14628	2150	28037	32767	-29644	-1216	2204	-5852	27033	11298	-23416	2688	6968	-6395	-11086	-1117	-24980	22036	17164	-1710	15060	-10287	-14560	40	-5212	2269	15734	9217	-19096	-26388	-8196	-20704	10671	3161	130	117	1
-24328	-19820	14804	859	27907	32767	-27160	244	-4796	-1487	25708	12798	-19792	-10324	-4780	-13290	-18695	-4593	-16136	-10136	28420	-11808	2497	-11629	-22476	17264	-8736	-2014	11331	13414	-7660	11492	-9324	31559	13428	-2848	125	113	1
-26212	-26212	18616	5926	21851	32767	-29016	-1272	-3284	-863	22899	12171	-24280	-3776	-5544	5816	-22829	-10757	-10640	2196	15200	-6458	-189	-5130	-16160	3368	-6896	-5607	9933	3283	-16616	23932	-13668	31076	7676	2804	106	103	1
6456	-32768	16656	15975	23325	32767	-23476	-736	-5148	11118	14840	14629	-27988	344	-8720	12428	-25303	-12959	-11052	4536	12592	-3073	-1012	-2515	-15412	-96	-6076	-699	6050	5845	-17900	15660	-2284	-12155	14956	13355	77	87	1
-22628	-28612	27432	13139	-3832	19648	-19976	10632	-22212	11113	10048	12977	-29492	4996	-4388	15981	-26513	-10545	-10752	2036	14164	-1449	-266	-1281	-18312	756	-4928	-2294	5554	4569	-19476	-6564	-1044	-15570	13917	2765	102	100	1
-432	-17104	12768	2478	-14383	2763	-16536	8280	-4968	8152	1880	5434	-28280	2780	-4216	9835	-24470	-8646	-10160	3284	13268	170	874	-160	-16552	-456	-1592	-1876	5888	5420	-15212	-8740	3180	716	11934	-3750	117	109	1
316	-15664	7324	4313	-13000	-273	-11400	5068	-9232	-6629	-7518	2920	-23248	2388	-5492	3343	-21698	-9347	-10340	4224	12596	497	1192	-82	-15720	232	1108	1426	5987	3902	-14240	3180	3820	12886	12626	-1393	131	116	1
-1912	-12100	6104	7006	-12527	-6587	-8472	2808	-9124	-4606	-11965	38	-19900	196	-5844	1468	-17771	-9926	-9968	4948	12056	217	912	-783	-14652	1004	2616	7306	6100	3853	-14224	10772	3188	10867	13552	2929	170	139	1
-3344	-10908	6224	6549	-13378	-15587	-7260	284	-11200	-1095	-18954	-1478	-17320	-868	-7408	728	-15637	-10513	-9932	4956	12076	-607	464	-1874	-16160	940	856	9163	7257	5135	-15616	9028	3144	4044	12885	3516	115	107	1
-6132	-10676	5780	4315	-15792	-23325	-6420	140	-11268	4654	-26031	-868	-14536	-512	-8148	2466	-13747	-10190	-10192	3284	13172	-672	383	-1777	-17064	3084	-1696	1848	7158	3712	-16400	3092	2440	1182	13702	1028	123	119	1
-8372	-9864	5628	2619	-19563	-28848	-5528	1136	-10412	9652	-31058	-1832	-12956	1276	-8440	4940	-12698	-10306	-10520	3084	13228	256	1020	-1109	-16560	-1664	-1544	-1778	6022	2774	-15556	-1136	3584	5410	17205	-781	119	115	1
-10852	-8700	5552	-791	-23196	-32001	-5412	2184	-10644	11331	-32768	-4532	-11136	1552	-8244	9711	-11703	-7632	-10500	4084	12428	586	1108	-955	-15016	748	-1848	2678	6571	3020	-13388	472	5708	10623	21283	1135	111	109	1
-12568	-8496	5816	-5787	-26721	-32654	-5996	3036	-10480	10541	-32768	-6460	-9008	2336	-8416	15460	-10262	-3754	-11060	3076	12628	699	1068	-1008	-14492	1200	-2212	4433	8221	3107	-15920	2348	944	11171	18581	1227	109	105	1
-15100	-9396	6180	-11749	-29223	-31785	-7560	5468	-10308	7038	-32768	-8061	-7580	4784	-9384	19090	-8764	-244	-10584	3648	13016	558	962	-1424	-16992	-300	-2652	4125	7189	4026	-16944	7336	-7340	7467	11935	-882	110	105	1
-17692	-11220	7284	-16507	-30283	-31391	-7492	8664	-10684	-114	-32768	-11489	-6112	7992	-9388	19117	-6419	3414	-10620	3708	12876	889	1928	-1246	-16820	1120	-3284	2439	7033	3451	-16928	6912	-3860	1558	9225	-346	106	103	1
-20012	-11584	10868	-22230	-28433	-32358	-10380	9492	-13328	-9649	-32768	-16463	-5008	10660	-9148	14745	-3639	6950	-10600	3772	12864	910	2551	-1369	-16824	1096	-3680	2815	7163	4785	-14688	548	760	2124	10665	1210	115	107	1
-27944	-14464	15352	-28169	-26126	-32768	-15812	7952	-14812	-17555	-32768	-20989	-5092	11752	-7132	7442	-3839	9435	-10856	4200	12856	1727	3411	-2298	-16628	-60	-2264	6792	7610	5407	-16236	-1348	1440	3562	10131	727	116	109	1
-32768	-12796	16020	-28574	-23514	-32768	-20040	7312	-16108	-19264	-32768	-25032	-7072	7068	-4140	2277	-2929	6440	-10416	3972	13520	1980	5132	-3100	-17044	-340	404	7629	9219	5883	-18716	1928	4840	2865	9183	609	120	111	1
-32768	4764	18140	-31699	-14981	-32768	-20964	2892	-19184	-19720	-32768	-21752	-16092	-4804	4008	2571	-2159	-252	-10564	4012	13428	722	8361	-3845	-18280	-624	1732	4513	11227	5770	-18220	3304	8016	5829	6892	1470	116	112	1
-32768	12628	11640	-27650	-11616	-32768	-22204	1836	-14784	-19383	-28291	-13894	-24044	-4788	21956	-9616	-5413	-8678	-10624	4644	13796	-564	12170	-4678	-19336	-948	1636	1485	13664	6307	-18068	984	7488	8032	6692	272	131	116	1
-32768	20884	-6284	-3461	-8371	-26137	-11208	-3332	-12596	957	-13345	-7927	-23912	-9188	30604	-6851	7823	-11903	-11668	3824	13556	-1370	16564	-6009	-17524	300	1064	1682	16418	6081	-16732	5392	4192	11829	6479	-2744	140	120	1
-32768	28808	-3356	13401	5193	-60	-5292	-2516	-9492	7885	7309	-2087	-23968	-4652	21612	-8578	5530	-4659	-11876	5360	14156	-3010	20421	-7202	-18276	1548	1192	2195	18989	6467	-17300	7768	2352	10213	5951	-1669	111	108	1
6460	6248	18756	32767	7487	30864	-15756	420	-5924	8213	21357	4397	-17024	-7680	10052	-3437	2829	-3223	-11928	5364	13204	-4970	25212	-9589	-20120	404	1772	2896	20980	7004	-18752	6740	6568	10309	5318	-749	152	126	1
-2404	1736	13136	8357	14352	26334	-32768	13432	6548	25052	8036	5018	-21176	-240	4284	-538	10885	-5991	-13940	7484	13824	-7859	30706	-14371	-25436	-2720	4980	4517	23490	7586	-22916	6680	9660	10169	3327	-1064	97	98	1
-23728	-5644	23936	2754	20456	20548	-17308	17840	1520	14283	13995	7804	-23752	2008	12816	12920	-4522	-1513	-15144	8500	14200	-10864	32767	-22630	-26744	-6204	5936	6014	25655	9749	-24608	1532	17252	13612	-10524	-1863	137	119	1
-23172	-4800	20628	175	20135	18245	-11236	13756	-5952	-9809	25776	3553	-11960	11104	-15400	14439	11449	14260	-18404	3488	12988	-11782	32767	-28487	-27728	-4684	1068	5070	28291	12450	-19508	-10428	12204	96	-13509	-4288	85	93	1
-10496	-4488	14452	6720	8574	10153	-23696	-10148	-18616	-26994	24394	-1780	-7228	7600	-16800	-3375	8073	-468	-16588	5100	19004	-9999	32767	-31153	-29980	-2152	-1296	5414	29439	12665	-24508	3420	-676	18843	-17811	-3064	90	97	1
-17184	-11464	6056	4796	1911	3500	-19608	-10076	-15936	17328	13905	4217	-15940	-8728	-18960	-23576	18464	-7992	-32632	14812	28112	-6088	32767	-32613	-27272	2448	-4004	7630	26850	11286	-24284	6908	-3184	14932	-22941	-1163	119	115	1
-11448	-9608	8136	3758	395	1564	-14596	6704	-9564	28388	4937	7888	-18112	-11152	-12356	-11361	20962	-1814	4924	16900	23180	-12400	32767	-32768	-26816	240	-4852	5646	17186	4229	-30128	5824	-5904	1334	-25706	2403	154	129	1
-10144	-8540	9600	2441	396	816	-15524	13388	-5292	5420	5257	2509	-17744	-2320	-5624	10735	11152	2999	-32768	11104	32767	-15989	19662	-32768	-15740	10264	-22008	10932	-10323	5211	-26960	2640	-5568	-9474	-27620	3806	82	91	1
-9652	-8384	10004	598	754	-23	-16216	6376	-4476	-12914	9833	-1510	-15944	5500	308	13025	12316	6356	-23240	1824	32767	9539	-20875	-21353	-17444	-3956	-12772	1488	10175	-611	-28032	1616	-2060	-7572	-29620	2113	137	122	1
-9740	-8100	9664	437	840	-135	-16740	-5360	-3920	-8429	7998	207	-14840	6904	224	2021	12459	7630	-6728	10208	12968	24853	-26080	-8650	-11740	724	-8772	5969	4507	-8614	-26316	3756	-2388	-1520	-27025	4024	151	128	1
-9468	-9908	8348	686	123	96	-18764	-3656	-2948	1963	4507	914	-14576	1052	-1508	-9834	15647	5990	-7436	17160	6696	12042	-28217	-2327	-9556	5388	-11912	4838	-7965	-8722	-24116	2172	-4348	-2726	-27619	4131	163	135	1
-9456	-9948	8124	890	-147	541	-16568	1116	-2584	-2840	3981	2076	-14960	-5540	-2104	-9850	16367	2762	-3604	11708	5280	-1765	-28366	7299	-7244	3128	-11344	-1768	-17790	-7797	-19288	3364	-5684	-2178	-25025	5089	144	125	1
-9608	-9460	8636	1130	-284	1030	-14784	1784	-3020	-9059	6154	500	-15336	-5216	-2368	-5236	16388	2645	-2264	4604	7772	3621	-22371	19869	-5552	3456	-10844	-5588	-21353	-11358	-15672	2740	-6012	-2806	-20177	6377	113	108	1
-9660	-9204	8868	1052	-418	1091	-17464	-856	-2352	-7950	6214	637	-16516	-1232	-1268	-2605	17724	4734	-8584	5132	9464	9897	-20702	27204	-5436	3136	-9544	-7346	-26363	-12433	-12620	3736	-6888	-6538	-18751	7183	96	98	1
-9732	-8880	9004	934	-110	1069	-17476	-2196	-2524	-296	4291	1347	-16616	188	96	-6769	18919	5516	-9824	3280	10492	9180	-23831	28331	-4548	2980	-9044	-7457	-29621	-14034	-11464	2428	-7780	-10975	-16314	5987	120	111	1
-9528	-8860	8736	734	172	948	-16764	988	-2472	1415	3777	2716	-16192	-1944	1472	-9308	19565	4741	-10924	128	11860	12376	-25938	27089	-4968	2828	-9596	-6842	-32768	-13977	-9212	1564	-8768	-14903	-11513	2805	122	112	1
-9656	-8980	8984	586	379	1228	-15968	2464	-716	-3042	5355	2650	-16380	-1180	-608	-4731	16282	4407	-14860	636	13708	17813	-28444	26626	-4664	1908	-10528	-5029	-32768	-15544	-6964	-216	-9780	-16379	-10208	-622	136	121	1
-9484	-9072	9104	148	876	1375	-15356	336	776	-5366	7784	1641	-17712	-1944	-4092	4352	8789	5858	-18020	2660	14184	20104	-31426	27128	-5532	1656	-11232	-458	-32768	-17736	-6076	-1604	-10484	-17781	-5618	-1742	143	124	1
-9524	-9548	8788	-552	1238	1823	-17772	-2040	-184	-503	8487	2392	-17716	-5828	-2640	4660	7808	6253	-22132	3868	16280	20118	-32768	28585	-8168	4224	-13140	2736	-32768	-18149	-5052	-2208	-11604	-14788	-904	-2749	140	123	1
-9724	-9652	8860	-984	1002	3025	-17372	-916	-1860	4735	8239	3980	-15860	-1052	-1452	1255	9160	4652	-31980	5272	17812	17967	-32768	32026	-15204	640	-13040	57	-32768	-18233	-5528	-2972	-9844	-11704	2681	-2932	143	124	1
-9552	-11076	8264	-2772	-363	5235	-17144	-664	-1644	5316	8404	4259	-16544	5100	880	2581	8798	3312	-32768	-3612	19032	17801	-32768	32767	-19600	6404	-14564	5158	-32768	-19109	-5948	-2860	-9272	-11400	3291	-3060	124	113	1
-9748	-9116	10272	725	2134	6703	-16324	1448	200	2110	11478	3819	-17356	2744	3996	5720	7796	2404	-32768	-16304	14020	20136	-32768	32767	-25156	8460	-14060	4245	-32768	-17423	-14056	9520	7676	-1511	-362	3340	128	115	1
-10352	-7228	11304	1174	5131	6994	-16952	100	1204	2133	14253	6039	-17776	-936	5508	-2743	6592	1204	-32768	-22624	2600	16690	-31328	28254	-26748	12396	-13512	2649	-32178	-18829	-24616	3568	29592	3274	-4949	11525	109	104	1
-10276	-9512	11372	738	8091	7191	-19808	-628	-1328	4008	16055	7410	-18224	1820	4504	-9762	5555	2021	-32768	-32768	-21672	14971	-28451	7516	-11088	-3032	-10792	9512	-20126	-918	-23232	-5684	29536	-5462	12439	14423	111	106	1
-10780	-9740	11188	1322	10827	9502	-19772	-1488	708	190	17400	9116	-19568	-4448	1304	-12088	4615	4077	-32768	-32768	-32768	25320	-11583	-9014	-6512	8580	-6604	17842	2920	9082	-16292	-3788	32767	5455	4524	-2783	89	95	1
-10816	-10912	11788	1824	13539	12389	-18732	-1380	-232	-1476	21534	10657	-18892	-6560	432	-12504	2410	1371	15404	-23524	-1288	-21398	9305	-25468	-14180	5204	-3996	-6496	19369	16969	-13344	-7536	11460	9027	4025	-8152	132	118	1
-11272	-12392	11952	2292	17567	17276	-23304	2496	-708	-3841	23011	10394	-23408	-5676	6980	-11257	-5920	2226	10380	2104	4916	-4071	21973	-7970	-32768	-11960	2824	-8870	3007	9057	-17348	-2384	1548	16076	11507	1112	142	124	1
-11512	-19380	12344	4897	22442	25738	-28724	2384	7328	-11074	25260	10681	-19704	-120	9680	-7177	-7648	972	-32768	-12576	32767	-6972	26529	-12152	-12456	-18672	-1920	-12594	11295	4799	-25120	3476	17604	-6991	-9510	2643	112	107	1
-13736	-22032	15524	4448	26817	32767	-28976	-2340	4392	-12499	27424	10794	-24472	1980	15500	-6069	-11484	-1158	-16164	-1012	21828	4044	19965	-12090	-18652	-5844	-5372	2772	18018	10781	-18332	4344	-3688	-17704	9844	-195	102	101	1
-31272	-23408	18340	3358	31311	32767	-29272	-6584	-4472	-7201	29014	12402	-23632	-9828	-2164	-10397	-14997	-3879	-13376	16212	9864	-12561	8846	-7617	-24176	24828	-6364	1065	18191	12464	-14648	-8160	-10888	876	12129	5966	123	112	1
-24116	-28352	18480	9218	24152	32767	-32356	-2028	-5940	-3478	25831	13840	-24220	-6976	-8420	2542	-20374	-10756	-16920	9028	10540	-6892	1875	-5504	-15724	5172	-8024	-5983	14321	6562	-10608	13768	-15272	32767	8182	-254	117	108	1
-4536	-32444	18820	14171	23519	32767	-25896	-1592	-1392	9099	16275	15627	-28416	-1772	-9160	15644	-24523	-12925	-13012	5072	12388	-4640	63	-3883	-15648	1044	-7608	3235	7040	2235	-14300	26032	-5488	11685	8065	5778	122	112	1
-32768	-28796	26916	17562	3025	32767	-19072	9164	-26188	15853	9357	12452	-28796	-844	-9168	17338	-24885	-13104	-11004	2040	14496	-2945	-482	-2644	-18096	2284	-7508	1282	7052	4277	-22392	6072	-4212	-18372	16541	7390	116	108	1
-2448	-17832	16460	3193	-15573	4751	-18460	8980	-3756	6456	3574	7518	-29336	6200	-4120	16107	-26817	-8101	-10020	3236	13784	-403	560	-434	-18936	1876	-4524	-5806	6793	3400	-21540	40	-3424	-19747	16730	5020	117	109	1
1964	-17984	6900	2459	-14409	-735	-11344	8140	-6872	-3472	-4232	4946	-25280	5368	-5552	6226	-23500	-8813	-9996	4628	12456	-198	985	-342	-15352	-2908	-940	-2832	5127	3107	-12804	-4304	1888	2356	13908	-7451	136	120	1
1072	-12836	5356	7782	-10388	-7104	-7420	6088	-8396	-7369	-9656	-657	-21172	4116	-5792	477	-21259	-8547	-9956	5384	12004	-601	854	-1077	-14520	-372	1124	6033	5102	2497	-14728	4348	2244	8674	15161	-984	218	158	1
-920	-9536	5720	5435	-8655	-18038	-5988	4056	-9560	-3392	-15824	-2452	-16864	3468	-6792	-3989	-19094	-9165	-10032	5836	11360	-2199	-104	-2578	-16700	4032	876	9617	4880	2794	-16300	8308	2112	4813	18728	5341	108	106	1
-3608	-9788	6184	2720	-9803	-25376	-5536	1988	-8868	-293	-22838	-2969	-14040	3240	-7348	-5023	-16515	-9371	-10160	4160	12824	-2938	-1064	-3404	-17172	4448	-1484	1138	5702	1762	-14572	4700	2268	5400	21174	2575	104	104	1
-7324	-8096	7844	870	-14374	-30191	-4652	2148	-10484	7393	-28577	-5148	-12032	3232	-8092	-5114	-14407	-9526	-10356	3600	13032	-3010	-729	-3049	-16532	-204	-1164	-5015	4173	827	-14300	3268	4908	6099	21184	-588	115	112	1
-9496	-5928	8576	-3457	-20397	-32768	-4928	3716	-9432	10995	-32768	-7199	-11928	3300	-7108	-2555	-13139	-7965	-10572	3612	12592	-2508	-418	-2481	-14516	-3304	-192	-963	4869	703	-15308	1836	5592	3485	23055	-42	114	112	1
-10656	-5448	8716	-9866	-25443	-32712	-5748	5208	-9424	11436	-32768	-9267	-9848	3428	-6908	4019	-11399	-3463	-10512	3464	12868	-1708	-308	-2153	-14916	-2152	1540	2681	6784	2689	-17264	1068	3188	4147	19308	578	107	106	1
-13096	-6436	9628	-16088	-29212	-30116	-6532	8076	-10004	7759	-32768	-11258	-8480	4084	-8020	10549	-10145	969	-10100	4200	12840	-1274	-396	-2170	-15820	860	3088	-402	8558	4572	-18544	4876	3708	1582	12142	-1389	103	102	1
-15920	-7096	11420	-21511	-31380	-28617	-7296	11780	-10052	-3948	-32768	-13618	-6576	5640	-9616	13407	-8329	3896	-10064	4540	12784	-1500	124	-2540	-16392	784	1356	-3497	10184	3066	-17268	8828	2012	-6250	8893	-1169	106	105	1
-17976	-8480	14648	-27437	-30871	-28518	-9052	10900	-13076	-17537	-32768	-17692	-4576	8248	-10844	11200	-4318	6610	-10228	5252	12880	-1770	-28	-4398	-17320	1480	-1928	-2275	9938	3954	-15500	3944	-148	-2576	11150	1782	111	109	1
-26372	-12772	18556	-30938	-28466	-30536	-14828	8440	-14916	-23217	-32768	-22182	-4760	11140	-9072	6936	-1777	8463	-10264	4108	13820	-799	973	-5689	-17736	-1416	-3680	1120	9930	4958	-15660	-1792	-2288	2608	10751	1062	109	108	1
-32768	-11196	20448	-28158	-25455	-32768	-19992	7312	-16564	-20892	-32768	-24906	-9308	4764	-7012	2154	-3458	7725	-10368	3172	14228	-3	3144	-6548	-17748	444	-3000	2163	10083	5161	-17208	-1220	-624	-345	9165	66	113	106	1
-32768	2588	22148	-27032	-19412	-32768	-22720	4032	-18896	-20155	-32768	-21445	-15728	-7192	2056	3831	-4288	-68	-10620	1324	14352	-2142	7870	-5029	-17820	-3472	-2912	121	12104	4561	-18244	1772	4880	566	8336	749	139	122	1
-32768	11012	11272	-19775	-16510	-32768	-23440	1360	-14112	-14095	-31692	-12350	-21964	-8620	22032	-8790	-4470	-9408	-10316	2524	15160	-2440	12616	-4009	-19160	-1828	-180	-2103	14389	5711	-17216	-1248	5688	4949	7032	-725	125	117	1
-32768	28260	-8796	-3926	-9297	-28730	-12960	-2572	-11428	10832	-16832	-6154	-26080	-5508	29672	3486	7326	-3294	-11140	3732	14224	-3103	16832	-5321	-16268	-292	2340	30	17866	4474	-17516	4600	4288	8353	7507	-2201	95	98	1
-32768	32767	-10252	-4817	4434	-8661	-4952	3492	-12064	14035	5253	4584	-24044	-4388	26124	-6884	2271	227	-11736	3992	13632	-4444	20724	-7206	-18328	1316	2772	16	19875	6391	-16968	10196	5164	8063	6626	-746	144	123	1
8940	27836	-12176	24592	14129	25566	-12604	6104	-10588	5733	23244	8482	-15052	-1312	12204	-3776	3566	-568	-12520	4708	14372	-7259	24091	-11321	-19732	-312	3324	3871	22905	6890	-18196	7340	8212	9816	4369	-615	112	109	1
-6216	-15840	17816	6553	7164	29605	-32768	4036	20832	-6659	10448	-999	-19528	4192	852	-10047	10570	-3498	-13680	8928	14972	-10171	29078	-16403	-27512	-4076	6488	6599	25689	8554	-24584	5364	11140	8599	3836	-1179	176	145	1
-18612	-6472	16624	8578	21822	23932	-19288	9048	2688	5086	12758	2343	-19532	7728	4180	-7543	8868	2751	-15040	8840	17160	-13916	32767	-26872	-26384	-4916	7012	7195	27554	9971	-26136	-1132	25892	10083	-18869	-3256	113	110	1
-19192	852	22168	-1765	17133	16072	-14252	11236	-6264	-686	20473	6911	-20844	-5476	-5368	12625	4159	7603	-24072	10212	20720	-14490	32767	-31184	-28444	-32	2880	4258	30534	11275	-19352	-4664	9008	6923	-11841	-3730	113	113	1
-28380	-32768	-13176	2799	10898	5074	-22896	-4392	-17016	-11883	20760	1486	-11940	5404	-5120	4287	6330	-1165	-31780	23540	25412	-14545	32767	-32768	-27252	2488	48	3124	31045	10168	-22760	10172	-7116	21824	-17575	-1963	108	104	1
-15496	-7020	6724	7486	2204	9068	-16504	-14836	-15612	18847	13342	643	-13840	-3568	-18044	-14610	22827	-3334	-21712	20244	25048	-18285	32767	-32768	-28092	1376	-4072	2979	25691	9124	-27152	7672	-4316	5828	-23144	1436	90	96	1
-12824	-5548	11972	6047	157	4935	-17180	4516	-11844	32767	3877	9753	-13288	-9868	-13108	-4772	17014	-334	-4100	-9260	22308	-25840	32767	-32768	-29752	-416	-8328	-1414	15020	3157	-29416	3476	-7396	-6926	-26709	4754	119	112	1
-10144	-8456	10328	4154	-288	2829	-16076	9816	-11432	32767	2626	9269	-18644	-1028	-7756	11335	12443	1632	-32768	7052	32767	-7487	-5673	-26047	-15048	9848	-19096	3497	12364	-2494	-27784	-1264	-4072	-12189	-28374	3282	72	88	1
-9988	-7772	10456	1729	69	1293	-14904	9736	-4116	-18284	11824	-3378	-18788	7960	-2148	11826	12482	3551	-6304	11596	18936	16892	-19232	-7685	-15364	-6692	-8940	6162	6555	-4424	-28948	1452	-2076	-3774	-29483	3511	124	113	1
-9588	-9212	9728	-236	583	182	-17800	-4804	-3448	-17203	9973	-2877	-12116	5252	1088	1583	14889	8820	-2716	18328	9112	7980	-17034	1773	-12320	1040	-11016	6617	-2531	-6002	-25780	1316	-2948	-497	-28060	3111	164	135	1
-9460	-9524	8572	-281	710	47	-19652	-9752	-1108	7224	3401	3613	-14792	-3036	-844	-4700	17332	7255	-4056	13020	8552	-4052	-16598	14020	-8412	2712	-11836	2678	-13569	-6398	-22128	2368	-4528	165	-28059	4286	150	129	1
-9212	-10120	8116	133	726	445	-16916	-1156	-2348	16029	1443	3690	-15008	-6508	-444	-7442	18911	4644	-3004	5028	11212	-924	-15841	25552	-6456	4660	-11708	-4872	-16647	-8629	-17856	2376	-5724	-1009	-23986	6433	133	118	1
-9172	-10204	7904	1151	354	1375	-14440	7128	-1608	-2915	4647	2400	-15840	-5132	-436	834	17069	3717	-6364	2616	12160	4528	-17313	30395	-6012	4200	-10072	-10976	-21365	-12695	-15496	1948	-6392	-3976	-20701	6868	114	107	1
-9368	-9176	8656	1601	353	1927	-15420	2416	-448	-17827	8895	-1022	-18192	484	-804	446	16954	3668	-8060	88	13112	9424	-20736	29498	-5384	2264	-10228	-12625	-29000	-13283	-12924	2220	-7212	-6487	-19093	6400	126	114	1
-9664	-8280	9320	1248	629	1445	-18532	-3260	2440	-9790	8144	758	-18428	1508	2444	-6994	14950	4664	-9792	-272	13544	13467	-25767	26694	-4524	344	-10324	-8705	-32768	-14067	-9820	716	-8548	-10412	-15394	3258	123	113	1
-9272	-9480	8688	740	851	1347	-17248	-4048	3976	3052	7052	4620	-16320	-832	4308	-7662	11104	4522	-12124	-136	13844	16829	-29704	23225	-4372	-164	-10664	-3243	-32768	-15002	-8612	-636	-9064	-14017	-11086	-269	122	113	1
-8820	-11100	7756	1421	-154	3101	-15096	-964	524	6024	8734	3738	-15420	-2072	804	1181	8896	3806	-15788	328	15532	20021	-32580	20666	-5008	-148	-11712	3643	-32768	-16944	-7140	-1492	-10264	-15406	-9592	-3390	135	120	1
-10248	-10468	8232	2161	-1251	5321	-16484	-96	-2556	3873	10582	2483	-15824	-3452	-4204	1926	11023	2669	-19252	1168	17492	23111	-32768	20675	-7288	2124	-13292	10012	-32768	-17341	-6364	-1848	-11300	-15313	-4815	-4950	137	120	1
-9868	-9840	9236	2118	-1074	5827	-17848	872	-3588	2773	10591	2931	-15708	-624	-6304	-2563	8302	1293	-27040	3760	20400	23545	-32768	23952	-12556	3844	-14308	7870	-32768	-16567	-6848	-1824	-11384	-13278	-556	-5163	134	119	1
-10752	-8984	9156	1426	-366	7845	-17420	888	-3096	3029	10340	2844	-16464	2352	-3948	336	8513	2229	-32768	-964	21528	22503	-32768	31000	-18160	6136	-14864	8085	-32768	-18077	-8004	64	-7664	-12408	2276	-4389	135	120	1
-10136	-7448	11552	160	398	8435	-16572	2248	-1928	1533	12179	3470	-17372	1272	916	3229	8462	3525	-32768	-11772	16724	21629	-32768	32767	-22428	9044	-15880	5595	-32768	-17753	-10812	8908	544	-5381	-58	627	166	136	1
-10624	-6988	11792	2435	5793	7532	-16680	2200	-2072	1613	12090	3728	-18120	-1824	2904	-575	5966	2725	-32768	-20956	8364	18127	-30073	32767	-27308	11496	-15468	-1780	-32768	-19554	-17884	7144	21984	4052	-6843	9362	116	109	1
-11008	-7488	11740	2838	8572	7909	-18000	-2520	-1336	2901	15374	6357	-16800	1156	2864	-3601	5774	3609	-32768	-25028	-11860	9413	-27522	24726	-15824	5192	-13876	-7290	-24901	-14801	-24216	-3872	26672	-129	10395	16127	97	98	1
-11216	-10812	10772	2538	10308	9240	-20720	-1444	-628	878	16541	8441	-19144	-996	3988	-6843	7317	3793	-32768	-32768	-32768	11565	-16461	6941	-7600	-476	-8748	6472	-6536	-1874	-18040	-6304	32680	-4422	5588	6189	96	98	1
-11232	-12004	10604	4187	11519	13144	-18744	-1940	1008	-3770	19925	9312	-18948	-3108	1732	-12622	3579	704	-32768	-32768	-26772	15692	7418	-1473	-6332	15296	-13848	5389	14734	13973	-12636	-5044	23204	3583	5980	-5910	92	95	1
-11352	-10688	12068	5812	14297	18228	-19668	640	1148	-4579	22959	9031	-20784	-6472	4800	-15101	-139	667	-17516	10768	32767	-13563	12696	-10665	-25316	-15784	14608	-4638	15865	12033	-9236	-2472	-392	6120	7329	-4059	124	113	1
-12352	-13580	13032	4328	19169	23822	-25868	3568	3584	-12932	25396	9958	-19284	-3924	8196	-9923	-5499	757	-11836	32767	32767	-12382	9770	-7977	-30984	8396	-4116	-22623	5155	3982	-20432	2056	5084	24248	9913	5118	165	135	1
-14536	-22560	12880	5252	23862	32767	-29020	-944	6512	-13770	27831	10253	-23040	-800	12440	-10995	-9049	294	-25960	-13456	27372	-8596	21731	-10888	-12672	-5904	-3736	-12637	11237	6695	-32768	18652	16164	-8710	-12056	5360	130	117	1
-18728	-17368	18008	5379	30082	32767	-29996	-6304	-1008	-7172	27403	10771	-23028	-4080	6572	-2234	-10203	-726	-14684	3548	16500	-110	17701	-12386	-16604	-3848	-8240	-2018	18946	9238	-22584	-9224	-4544	-30525	12602	5922	104	103	1
-28136	-21152	16352	10679	25781	32767	-30948	444	-2900	-3376	25859	12253	-23340	-11228	-6308	-10869	-21112	-9732	-23972	25084	-820	-11262	8396	-6690	-19312	18944	-5528	-2192	17043	14530	-4048	-6036	-6032	7931	16880	1230	138	121	1
-18380	-30600	20312	16027	25242	32767	-30072	-656	-2900	-425	19081	12680	-26216	-736	-5492	11943	-24155	-11725	-16048	4612	12660	-9656	1632	-7084	-17768	8844	-6084	-10567	11248	4804	-10952	15540	-11504	30812	1351	-5240	115	108	1
-28880	-2940	17080	31264	22066	32767	-25104	4400	-6792	15457	9250	13046	-31772	4624	-8032	13850	-26251	-13752	-13060	1664	14068	-7230	-673	-5865	-14268	-472	-5320	-4484	7305	2552	-20072	22208	-620	-8276	13435	16717	95	98	1
-16016	-17152	24188	451	-7927	8749	-15720	11884	-25340	10502	11386	10174	-30488	8388	-3408	12620	-26384	-9492	-10496	3424	13240	-2894	-631	-3094	-16312	-2736	-5368	167	7914	4895	-22200	-2844	-1448	-18741	13394	10063	101	100	1
-1728	-20264	8452	-4630	-12096	-6037	-13376	12896	-4768	-8803	232	3554	-28796	6620	-4644	4535	-24215	-8680	-10380	2556	13616	-1276	226	-1774	-16988	888	-3992	829	9962	6974	-13112	-11756	2900	-2541	11386	-4866	105	102	1
436	-13888	5436	7827	-7874	-10396	-7492	5716	-8776	-13549	-6323	-1725	-22908	5328	-4608	149	-21758	-8718	-10552	3496	12896	-370	904	-1514	-16312	216	-1704	330	9048	6189	-12616	500	2204	11665	12190	-6488	219	166	1
384	-12372	5508	8666	-7124	-11574	-7404	3180	-9352	-7108	-11134	-3908	-18596	3004	-5980	-3314	-18702	-9510	-10388	4204	12572	-341	929	-1679	-15888	120	-1588	741	8719	5603	-15508	9568	208	9939	15737	1754	211	164	1
-4472	-7840	8084	2275	-8412	-25810	-5128	392	-9936	899	-19600	-4420	-15880	2464	-7276	-2846	-16507	-10483	-10540	4556	11984	-944	520	-2450	-15408	2220	-1780	5847	6981	3340	-15692	8404	-1112	4546	16509	4002	61	80	1
-6788	-6680	8400	57	-15802	-28409	-5032	620	-9488	10109	-26345	-5710	-12684	2460	-7144	-2539	-13488	-11361	-10408	2988	12896	-1460	-404	-2643	-17532	3820	-4464	3955	7338	3364	-15800	4312	-2364	3847	18292	2355	112	105	1
-7320	-5100	8256	-3922	-22173	-29336	-4792	2476	-8528	14943	-31018	-7475	-11444	1984	-8064	-1382	-11100	-10480	-10748	2376	13276	-838	185	-1791	-17136	1232	-5584	-437	5729	2302	-17404	-32	-1116	6675	23646	489	110	105	1
-8416	-5388	8116	-8508	-26278	-30077	-5016	4236	-9328	15275	-32768	-9234	-10444	1184	-8528	2171	-9466	-6843	-10588	3428	12904	-59	804	-1543	-16888	-1644	-5164	3714	3824	1846	-14288	-1056	2248	12867	26749	-218	111	108	1
-10556	-6516	8656	-12710	-28373	-30726	-5576	6120	-8812	12003	-32768	-9564	-8292	1520	-8848	8853	-8410	-2378	-10712	3136	12836	782	1685	-1319	-17024	-1104	-2540	6927	4208	2473	-15732	2020	1388	9486	23836	-1453	104	100	1
-14308	-8396	9988	-16060	-29945	-31997	-6368	8884	-10480	3842	-32768	-10005	-5956	4104	-9928	15260	-6704	1504	-10496	3588	13164	539	2432	-1739	-15988	-2812	2300	7546	5384	4310	-18124	7692	-1692	2385	15479	-2351	108	104	1
-16848	-8988	12016	-19994	-29839	-32768	-7952	10036	-11996	-5957	-32768	-12001	-4912	6988	-11108	17007	-4798	4872	-10496	3828	12792	1393	3440	-3011	-16832	712	2884	5001	8236	3845	-18516	7968	4356	-1066	10628	-496	123	113	1
-21320	-9796	16216	-26390	-28457	-32768	-12372	9420	-14916	-15763	-32768	-17080	-5484	10156	-11256	12654	-2810	8205	-8708	3776	14876	185	5641	-3941	-17544	-476	1396	3422	9482	6114	-17260	2108	7892	-128	11520	2899	121	111	1
-32768	-13780	19384	-30910	-28597	-32768	-17628	8864	-15732	-22019	-32768	-22130	-5664	10124	-8280	7330	-1423	9844	-10868	2860	13404	-262	7676	-5011	-16708	-1152	-1276	4033	11487	6062	-17552	-3896	4040	4642	9521	1399	113	107	1
-32768	-2592	20464	-32768	-25324	-32768	-21164	2976	-18676	-25958	-32768	-24453	-9760	2556	-4232	2762	-1846	3717	-11032	2128	13428	-451	10829	-4478	-17136	-2108	-2728	2381	12841	6010	-17088	-2412	3716	4895	7974	-1545	107	103	1
-32768	7336	15860	-32768	-19819	-32768	-23524	4240	-18224	-25884	-32768	-19320	-22508	-3216	11088	813	-5815	-3932	-10964	2260	14136	-1108	14354	-3932	-17508	-224	-1384	55	14773	4898	-15232	104	3092	5047	7881	-647	112	105	1
-32768	18912	2432	-22347	-12787	-32768	-19200	-2492	-15164	-10046	-22689	-13201	-27208	-12348	32767	-17598	1147	-7948	-11220	3460	13244	-2561	18820	-4461	-18252	-988	540	367	16739	5175	-17728	4312	4468	10594	7709	-1209	135	119	1
-32768	32767	-10228	-5667	-1204	-15156	-4408	3360	-5724	-10195	-751	-6130	-22020	-3636	32767	-11270	10409	-4753	-12308	4312	12492	-4668	23062	-6207	-18152	1256	3932	494	19849	5246	-16344	10908	3916	10526	7595	-2789	56	74	1
-32768	32767	-23052	31453	11907	27066	-8436	-5024	-4792	4677	20619	2038	-17004	-6652	17808	-9180	4361	-4530	-13240	4992	12624	-7068	26690	-10227	-18888	-176	5164	2197	23005	6215	-19084	11112	8396	7585	5626	-2895	163	135	1
-56	-15728	25536	11628	20183	27606	-32768	11644	16752	32767	8016	4668	-25004	-2472	3360	-947	14415	-5981	-14140	8624	13432	-10225	30573	-15867	-27924	-3008	8376	3610	26522	7409	-23888	5952	11168	7552	2683	-1388	93	96	1
-29772	2600	32767	2565	25957	20043	-18396	26368	4444	23323	14332	9603	-32768	3396	26672	18312	-15247	3431	-22192	9404	16904	-13174	32767	-26413	-26648	-5172	7196	5849	29238	9392	-28360	-2416	29500	5617	-24722	-3181	136	120	1
-28776	-23032	21540	-3488	10453	18273	-10560	12340	-16500	-7097	26386	7089	-9548	4396	-17716	22307	9006	9595	-32768	9028	29284	-13941	32767	-30180	-30968	3876	212	4421	32767	10360	-23456	-4532	11700	4389	-15854	-3854	86	92	1
-15988	-5268	17176	8016	7264	11483	-22472	-21360	-20860	-22119	26779	-3268	-2624	616	-23244	-5917	11062	-3686	-32768	11400	24968	-16206	32767	-32768	-30664	636	-7432	-1340	30004	8865	-26056	9052	-13284	21253	-18575	148	96	98	1
-12136	-8652	8984	9706	1279	7542	-18304	-13848	-17124	32767	5986	10102	-9976	-5864	-17736	-16317	14489	-8246	-14100	21788	29324	-19991	32767	-32768	-27532	-728	-3156	-2555	22192	4634	-27332	2292	-2432	-906	-24163	855	125	113	1
-11472	-8368	9792	6714	-599	4726	-13320	17776	-9888	25199	6101	9156	-19888	-15016	-9980	-10766	15688	-748	-32768	14224	32767	-24462	18567	-32768	-19204	4544	-6544	344	-15043	10898	-27876	2732	-6644	-7720	-28035	3519	116	107	1
-10684	-6044	11196	3642	-182	2924	-15744	18920	-6096	-18147	13707	-904	-21320	6216	-4124	15490	9032	640	-16276	7316	32767	12116	-15219	-21127	-17504	-7224	-9528	-906	14966	-6261	-29260	-636	-3372	-8991	-30328	3541	75	88	1
-9740	-7540	10600	548	859	1062	-16448	-916	-4700	-22761	12840	-2551	-13796	9620	748	9961	12017	7755	-4240	13636	14428	20239	-18336	-12803	-13420	-512	-10588	11662	5049	-3486	-27524	-148	-2068	-4042	-29975	2300	154	128	1
-9652	-9880	8160	448	832	969	-17100	-17776	-5884	7389	7581	-1278	-13428	768	-676	-3832	13227	9785	-5904	16688	9572	7360	-19123	-5548	-10620	1972	-11464	12143	-7186	-4967	-24400	588	-3996	-1803	-29360	1836	148	126	1
-9916	-9388	8288	1230	210	1220	-17440	-404	-2832	23882	1907	7053	-16448	-6492	-428	-8477	16361	5652	-4348	11412	9128	-1118	-20685	5217	-7576	3080	-12212	7913	-16073	-6891	-21024	1372	-5220	98	-27151	3932	160	134	1
-9684	-10736	7568	2034	-284	2245	-14412	9016	-2984	-4761	5667	3602	-17364	-6604	-1252	-2586	16127	-1313	-4612	6236	10252	5400	-19481	17321	-6220	4952	-12164	1227	-19469	-9189	-17972	2592	-6720	545	-24314	4098	141	122	1
-10008	-8220	9360	2187	-763	2565	-14088	976	-2456	-14883	9071	-82	-15400	-916	-2180	-1559	16678	221	-8744	6072	11248	9939	-21664	23842	-5836	5168	-10640	-4734	-26624	-10350	-15512	3032	-8252	-2221	-21075	5043	97	99	1
-10248	-7916	9844	932	-61	1951	-14592	-64	-2088	-13883	9214	-438	-15920	3256	-344	-5636	15875	6137	-8996	3056	11880	10974	-26555	24976	-4424	4084	-9504	-7760	-32250	-11820	-14992	2528	-8284	-2759	-20203	5693	123	112	1
-10108	-8424	9212	212	657	1454	-17476	64	-3124	1823	5608	3398	-16456	-1464	1796	-9012	17315	7094	-10320	-12	13332	15926	-29613	23541	-4648	3672	-10480	-8430	-32768	-11980	-8336	2220	-9544	-6723	-14096	2414	125	114	1
-9984	-9512	8772	145	514	1974	-16436	868	-3720	1226	5483	2675	-15660	-3524	1012	-10298	19862	4673	-15156	-952	15664	22233	-32768	22840	-4672	3704	-10696	-8295	-32768	-12257	-7136	1820	-10824	-9489	-10429	331	119	110	1
-10276	-8448	9184	-58	691	2474	-14456	3352	-3584	-350	9599	900	-15532	-36	-4496	-2567	18169	3476	-17228	1440	16344	24802	-32768	22621	-5428	2248	-11716	51	-32768	-17893	-5572	580	-12344	-11871	-6422	-1400	133	118	1
-10140	-8396	9512	-856	972	2887	-16708	2548	-2888	-4667	8420	801	-15840	640	-8776	337	11505	5779	-21784	2608	18244	25954	-32768	24620	-8612	4228	-13424	3897	-32768	-19501	-5064	-136	-13476	-13883	-1470	-1648	140	123	1
-10060	-8076	10060	-1264	1761	3284	-17036	-32	-4056	-2942	7747	1689	-16156	-3076	-6388	1178	8290	6141	-32048	2640	20636	24166	-32768	30869	-14616	3352	-13440	4976	-32768	-19654	-4992	8	-12396	-16461	2179	-1593	151	128	1
-10456	-7476	9996	-655	4009	3005	-17504	1972	-2460	806	7487	3442	-15480	-692	-1532	2873	9562	5600	-32768	-3964	21372	23551	-32768	32767	-21524	6284	-16552	7331	-32768	-19507	-6728	5036	-7324	-14418	2978	-1365	155	129	1
-10616	-7828	9780	-566	5304	3275	-16316	320	-1024	3716	8844	3907	-16868	1944	3064	5698	8263	5120	-32768	-14500	15908	27608	-25865	32767	-27536	8160	-15000	8013	-32768	-19119	-14276	8892	8168	-6630	-2889	3704	133	118	1
-10704	-8156	9616	63	6295	3887	-16700	-1900	-48	2918	11553	4748	-16840	248	6084	4203	7198	3865	-32768	-18600	948	26699	-17971	32767	-27168	8412	-10824	6219	-32768	-15649	-24520	1160	32767	-2414	-6746	10994	112	106	1
-11168	-9796	10120	-304	7784	4694	-19340	-1544	-1260	273	14072	6537	-19020	756	4228	-5650	7233	1834	-32768	-20444	-2716	26485	-16820	32767	-8536	7584	-8600	13350	-21170	309	-27248	-11144	31492	-6885	9244	12906	107	105	1
-11048	-9716	10628	227	10399	7462	-19928	8	-308	-3810	15693	7402	-20192	-2436	2392	-12854	6141	2976	-32768	-32768	-32768	18634	-1523	6629	-7036	12088	-1528	8892	3075	12387	-14708	-3888	32767	7742	-1623	-4533	111	106	1
-10884	-10336	11124	220	13314	9495	-19716	-2708	76	-6338	18544	9591	-20924	-3540	4444	-21983	5166	4101	-29992	-15704	-14328	-14352	12588	-9124	-12240	14140	-7160	-10665	20355	11975	-13296	1420	8588	251	1135	-1124	96	99	1
-10868	-13296	10112	-33	17428	14420	-22732	-856	1184	-6218	19991	10171	-22992	-5748	2320	-16668	1983	3211	-8872	20748	22044	-27805	9294	-10022	-24720	-11360	4740	-22601	9687	10142	-4880	5828	-1852	3683	10976	7493	136	120	1
-11484	-15164	10768	2564	21212	22856	-22768	-616	1348	-6810	20376	10056	-20152	-3248	12440	-9394	-7495	2229	-768	-9648	28008	-24258	30987	-13257	-30144	-10796	-6952	-32768	-10492	8219	-3396	6032	-1716	4699	12820	10003	117	109	1
-14856	-22016	10024	2737	23214	30803	-26220	-2260	5240	-11883	26807	10982	-18780	1680	12176	-11715	-7474	52	-23028	-27996	32767	-7117	19770	-14696	-20308	-23508	-11188	-19175	13601	6748	-32768	9768	15396	-32768	-20940	9897	115	107	1
-22140	-22272	14764	3519	25195	32767	-30140	-5192	-1988	-5074	27784	10751	-23868	-1668	4636	-9031	-8037	-2473	-32768	21108	9400	-9856	2835	-6218	-19320	11952	-6708	5303	19487	13848	-25388	-30544	8036	-32071	11433	-2306	111	107	1
-32768	-29936	14644	4455	26863	32767	-29556	1176	-5728	-86	26261	13176	-22508	-14972	-9108	-13157	-18155	-8633	-10264	-7592	13060	-11743	1103	-8255	-15908	13412	-9804	-5567	15396	10818	4448	2732	-15520	23444	26734	-114	124	113	1
-20980	-28100	19684	11375	21457	32767	-29548	1168	-3868	-148	22823	12403	-27620	-1652	-5648	10911	-26945	-12338	-11676	-6988	18872	-4123	-403	-3738	-17048	2020	-9588	-1508	10787	2686	-9140	17756	-14932	32767	-5785	-1868	114	107	1
14112	-21880	22028	26967	23449	32767	-24108	-300	-5516	12234	13605	12760	-30220	7764	-6472	17218	-28600	-12445	-9896	1000	15064	-2280	-323	-2319	-16300	824	-8388	2776	7003	8077	-23688	21924	-1992	-6623	15427	20319	111	106	1
-24192	-21448	27900	9943	-2820	16284	-16436	13620	-25876	6331	12418	13497	-29748	9672	-3648	14941	-28444	-9501	-9684	1604	14480	-56	757	-437	-19088	1428	-6828	1990	7448	5298	-24956	-5380	-4804	-14127	16918	5743	97	98	1
-2272	-15380	11628	-4206	-11688	-1612	-16412	12632	-4312	-699	4187	3972	-28620	7184	-3952	4248	-25593	-9387	-9292	3088	13452	1285	2177	674	-18388	1676	-3124	-5655	6934	4775	-13508	-8868	1928	-472	12719	-6902	113	105	1
168	-15200	5912	2920	-9602	-3187	-9220	5064	-9656	-13350	-5108	1383	-23432	4596	-5052	-1680	-22081	-10347	-10324	3768	12808	1442	2353	565	-14152	-1928	-300	1665	4203	4246	-12292	3196	1740	11251	15382	-5628	172	140	1
-1604	-9456	5800	8537	-7851	-8989	-7124	2880	-8940	-6370	-9547	-2524	-19920	1440	-6400	-3933	-19193	-11810	-10596	4992	12272	1261	1816	-142	-14728	960	1196	10137	4633	4121	-16164	9924	340	7601	16837	1075	160	131	1
-3084	-7544	7028	5427	-9732	-18154	-4820	680	-11568	1783	-17174	-3405	-17200	320	-7336	-4125	-17243	-12059	-10208	4164	12592	-38	998	-1001	-17968	6448	-1652	8431	5767	4745	-16072	8320	-416	1389	19346	5676	119	114	1
-5588	-8076	6764	1341	-14798	-24081	-5124	1568	-10264	8349	-24466	-2970	-14936	1020	-7912	-1985	-15319	-12057	-10324	3100	13288	39	1232	-715	-15704	380	-2420	1016	5113	4854	-16240	5808	576	-1743	19547	3182	119	114	1
-7172	-7184	6388	-1054	-20807	-27810	-4184	2536	-9792	11298	-29794	-5005	-12824	1980	-8292	-101	-13291	-11991	-10284	3316	13048	673	1831	-265	-15876	696	-2284	288	4872	3220	-14920	1388	4216	5056	19278	34	111	107	1
-7660	-6268	6448	-4334	-24904	-30061	-4188	2884	-9444	11620	-32768	-6915	-11012	548	-8812	3327	-11963	-8390	-10528	3868	12704	791	2015	-339	-15804	124	-620	5412	4371	2129	-14584	732	4144	9078	22123	1524	106	103	1
-9352	-6984	6860	-8349	-27374	-31179	-4752	3300	-9792	10646	-32768	-8600	-9700	1736	-8972	7465	-10177	-4734	-10072	4296	12568	810	2213	-747	-15508	108	1536	6486	6785	3589	-16780	1460	2972	9421	19009	2514	100	100	1
-12592	-8240	7920	-12287	-29008	-31590	-5668	5156	-10440	7904	-32768	-8781	-9524	528	-9616	9857	-10250	-3846	-10212	3640	12944	902	2653	-1039	-15644	-400	3140	5073	7389	3732	-17808	6248	2372	7643	9836	-1119	115	108	1
-16372	-9460	9404	-16864	-30853	-32333	-6436	7844	-11788	506	-32768	-10262	-7752	6692	-11008	16419	-8509	2898	-10456	4288	12684	1425	3023	-2242	-16320	1684	2624	2991	9326	4542	-17012	9012	2968	2356	7780	-719	111	106	1
-19212	-9612	11960	-23364	-31554	-32768	-8464	10080	-13756	-10666	-32768	-14192	-5128	9380	-11024	15087	-4551	6920	-10588	5020	12476	1327	3449	-3473	-16900	1064	-360	4161	10296	5012	-15560	3360	2616	4314	9565	3116	114	108	1
-27356	-12832	15984	-31345	-31300	-32768	-12944	9068	-16520	-20881	-32768	-20465	-3244	12552	-10664	9830	-2	8172	-9828	4380	13592	498	5137	-5234	-17724	-1016	-3792	4154	10353	5527	-16668	-2568	436	8629	9779	1987	116	108	1
-32768	-12224	17392	-32768	-30686	-32768	-17964	9336	-18108	-26795	-32768	-27492	-5328	9812	-7064	5533	731	8326	-10204	2208	14280	971	8221	-4914	-17712	-2420	-4484	3781	10835	5349	-18604	-1556	-1132	5480	8032	-444	107	104	1
-32768	3444	21300	-32768	-22184	-32768	-21696	2496	-20876	-27590	-32768	-26036	-12564	-3048	-248	6622	-1677	2991	-10640	1064	14004	301	11893	-3810	-17224	-1756	-2700	2180	11674	4766	-16708	1416	3068	2977	7738	-250	101	99	1
-32768	12632	16768	-32768	-17442	-32768	-24756	2552	-16572	-27599	-31296	-17703	-23980	-5700	21276	-11429	-4145	-5715	-10684	2432	13664	71	16369	-2153	-18152	-1900	-1180	1780	14315	5098	-15940	1248	6164	7906	7122	100	113	107	1
-32768	25176	1892	-13788	-10106	-30688	-15572	-1768	-19300	-6196	-17780	-10520	-26196	-7156	24716	-17947	-3824	-7266	-12704	3812	12024	98	22052	-1866	-16800	-1000	1216	5518	17282	5789	-17012	2788	3536	12572	6485	-2525	112	106	1
-32768	32767	-15844	-6532	-3919	-5572	2244	-3660	-7528	1494	8772	-1551	-24300	-4088	27308	-16234	10445	-7823	-13200	5492	12264	-1688	25195	-4004	-17720	-760	3432	7588	20516	6232	-17164	5180	3844	11487	5744	-2649	105	101	1
-32768	24596	-3884	6358	8283	14771	-5840	-1288	-14116	14718	28416	8571	-13280	-8364	12816	-7228	6095	-2144	-14260	4916	11908	-3221	27739	-8023	-18828	-2920	4224	8978	23240	7323	-18788	3756	8644	14350	3829	-2627	134	116	1
32767	-32768	32767	10412	6163	4512	-32768	16972	32767	-32768	21819	5671	-3740	-6752	-14024	-8791	13967	-5754	-14400	8964	14412	-4575	32184	-13443	-24180	-3204	7632	10956	26827	8698	-20908	-1804	18704	16743	-5785	-2035	149	129	1
1872	7376	13256	30656	28793	32767	-17188	-10960	-11488	2307	4386	-9108	-17076	10844	-9960	-10654	19900	9974	-19996	10576	17020	-6674	32767	-22388	-26880	-4116	4968	7337	29275	11019	-20992	-10044	15416	5302	-16688	-3628	131	121	1
-16492	14708	27924	1996	21424	16681	-12696	21916	-6900	19190	7283	15305	-32768	-12824	6332	32767	-23557	6584	-24896	2432	16792	-4450	32767	-26089	-28536	408	2832	5419	32175	10231	-22248	5868	12264	23457	-14413	-5155	173	139	1
-19860	-17832	10820	-5214	10684	17905	-28156	12772	-12128	-1947	22918	5563	-16184	16432	6832	14976	5263	3689	-29724	4948	20824	-11045	32767	-32768	-32768	7180	-3164	-1554	31753	10178	-28824	23208	-4500	17186	-20507	869	119	113	1
-32768	-32768	2660	-5298	6919	12368	-18432	-17996	-13900	-15853	18554	-3610	-6608	6296	-20896	-14990	28547	4174	-27412	25848	24080	-8217	32767	-32768	-30588	2548	-3436	-5006	25216	2291	-28956	13808	-3972	-10608	-25544	7081	65	73	1
-9332	-11064	7256	8374	2635	6632	-18648	-6792	-9228	28703	9791	10441	-8332	-13300	-19736	-22372	20641	-3629	-19144	-2620	18224	-14251	32767	-32768	-29656	5904	-6600	-12174	-3137	7715	-31772	3932	-6624	-24046	-30236	6083	127	122	1
-11364	-9280	7812	7253	220	5547	-13284	11608	-7860	12252	6713	6751	-14892	-14840	-7304	3904	9210	-8660	-32768	11284	32767	-7854	-8972	-32768	-13152	16892	-21540	-2530	11310	-6682	-28548	-2656	-2852	-21036	-30104	2875	55	74	1
-11224	-6272	10836	5179	-325	4384	-16304	9876	-5904	-12481	9787	-1167	-22616	7456	-4468	7953	11160	-647	-9804	7184	20916	16655	-31691	-21241	-12428	-3496	-8952	-1121	9253	-7061	-28700	-1528	-1672	-4473	-30641	2912	46	69	1
-9892	-7716	10740	1733	531	2164	-17400	616	-3988	-11887	11464	559	-16584	11092	-656	-1344	13302	9147	-4952	12876	7504	18291	-29559	-14162	-8640	-2536	-11036	8124	-7039	-13228	-26120	1600	-2996	-2229	-28528	3932	171	137	1
-10124	-9304	8224	757	927	1224	-17932	-5908	-5284	7136	6488	2312	-13924	156	-3812	-6871	17201	6488	-6864	17636	4500	2956	-30820	-3631	-6932	2468	-12712	9062	-14246	-9914	-20124	1916	-5000	-3453	-27282	5900	186	147	1
-9912	-9780	7884	1397	249	1401	-17436	-72	-4796	14389	1981	4181	-13680	-7200	-4188	-8367	18647	4517	-3044	9884	5088	-229	-27696	12666	-4460	2912	-11232	8255	-19581	-12124	-18536	1988	-4836	-3409	-26457	5977	135	126	1
-9568	-9864	7864	2593	-672	2103	-14740	6132	-3064	-1281	4879	2373	-15608	-5000	-3804	1278	16925	5640	-5804	7012	7136	7884	-22441	25824	-4728	7728	-10328	-1354	-23178	-13363	-13088	2032	-6316	-2488	-18371	5683	110	106	1
-9816	-8872	8784	2728	-801	2354	-15816	2132	-3344	-12997	6717	-1320	-17740	-100	-3224	6191	17078	4662	-10944	6860	9212	9304	-24413	30953	-3724	6496	-9076	-7957	-27562	-15074	-11876	2848	-8252	-5177	-15379	4792	110	107	1
-10464	-8116	9312	1970	-149	2020	-18632	-3832	-2912	-3017	4899	322	-14120	3740	-784	-2530	15420	4594	-10756	3520	10488	10283	-28344	32463	-3628	5968	-9152	-8413	-28619	-15111	-8864	3180	-9484	-8769	-10640	3903	130	116	1
-11624	-8044	9112	1247	770	854	-16152	3116	-244	327	2818	5641	-13612	1536	624	-5346	13253	5018	-17232	3324	11328	13566	-30848	32767	-5368	4960	-9844	-10980	-32768	-16462	-8012	2292	-10556	-11665	-6685	1843	132	118	1
-10104	-7980	8812	618	529	1480	-12792	-1072	764	4762	11337	2508	-18508	-3824	-2428	841	11333	3484	-18808	4328	13496	17092	-32768	32406	-5456	4908	-11056	-9633	-32768	-19437	-7740	992	-12876	-14492	-3345	38	139	122	1
-9996	-9332	8680	720	372	1559	-16664	-1044	36	40	10330	1774	-18952	-4436	-1240	1344	7080	402	-24340	6200	15696	17033	-32768	32488	-7496	5204	-13264	-5655	-32768	-23509	-7208	120	-13852	-16779	386	-658	139	122	1
-10200	-9296	9232	648	782	3662	-17680	-1580	-1176	-643	10208	2102	-17016	944	-380	-4046	6939	899	-32768	7184	17092	15929	-32768	32767	-11688	6020	-14328	-4267	-32768	-24393	-6768	-1076	-15928	-20691	4593	-987	130	117	1
-10564	-9488	8832	-302	336	5389	-16792	-828	-2508	2973	10948	3445	-15808	2944	420	-6395	6754	822	-32768	4720	17852	14234	-32768	32767	-18388	4736	-16344	1638	-32768	-23822	-6600	2252	-11324	-23866	8155	-1081	132	118	1
-9740	-7736	11728	745	2604	6721	-17080	3636	-2328	-220	12771	3158	-17156	3612	24	-5830	6325	574	-32768	-8044	15312	17969	-32768	32767	-25004	6540	-14524	7094	-32768	-21503	-12560	7276	-1252	-19904	3335	2928	143	123	1
-10764	-6936	11496	1172	5859	7010	-17616	3428	-1704	-6022	14761	4327	-16808	1464	1196	-9144	6109	587	-32768	-16460	2968	20530	-32719	32767	-32056	10092	-13668	7010	-32768	-16177	-21232	-1304	32767	-9951	-7551	6729	144	124	1
-11252	-8576	11256	1119	8755	7436	-18544	-1720	-2468	-3248	16137	5300	-17044	-816	1932	-14418	7078	1653	-32768	-32768	-20908	24431	-25122	16152	-10312	5140	-7272	6801	-25356	-6784	-30212	-16656	32767	-11001	9966	10267	114	107	1
-11156	-9576	10136	298	11093	9283	-19508	-604	-1716	-5118	17185	7240	-18088	-5440	184	-17349	6015	3088	-32768	-32768	-32768	20294	-7034	2830	-2328	4428	-100	6453	3521	6682	-18768	-9032	32767	-877	-2160	-627	96	98	1
-11040	-9912	10728	803	12422	10976	-17504	-1896	-928	-7479	19233	8547	-16884	-8800	-2504	-15654	3214	2528	-32768	-20380	-24492	-8459	12856	-5180	-6320	11188	-12380	-6407	25693	14577	-11388	-8832	18520	10747	-876	-5054	95	98	1
-11348	-11700	10400	1187	15443	14606	-20392	1032	-304	-5286	20900	8853	-20536	-3980	2164	-14065	1413	3596	8692	17072	25440	-14991	13873	3563	-32768	-13620	5568	-14671	15794	14825	-3472	-2400	1492	14817	-3028	-757	51	73	1
-11892	-12188	11748	1496	19989	20643	-22844	2836	656	-9496	22966	9294	-20260	-352	13132	-4903	-5910	2737	-9536	-4256	17432	-17945	32767	-5733	-22176	-17088	-1140	-32768	6854	4237	-7780	6304	-13140	16510	20346	8059	136	120	1
-14276	-20504	11008	1697	24920	28091	-28144	856	8056	-13515	26227	9450	-22908	520	12484	-13559	-7404	-761	-26732	-29072	32767	-7754	25226	-12353	-20444	-9464	-16300	-10529	8537	8334	-32768	23668	1456	-26643	-14690	13733	144	124	1
-22280	-23772	13784	165	29074	32767	-31916	-5456	1092	-10855	28444	8415	-25200	1948	7596	-10311	-11029	-1585	-32768	32767	32767	-8696	8779	-11148	-14504	1048	-12664	7678	18063	10603	-21816	-28536	-4944	-24310	11972	13026	176	141	1
-31256	-27624	16796	-2156	28807	32767	-29896	-908	-5016	-6915	29087	9160	-22764	-9004	-4176	-13486	-21740	-8026	-10760	-13096	25080	-8495	3272	-9484	-19096	15788	-10844	4010	13411	15103	-2364	9972	-18688	32767	13086	-7130	130	116	1
-23460	-26352	16992	737	24223	32767	-29316	2532	-3556	-4478	23835	9033	-27200	-1756	-5620	-382	-26324	-12301	-8192	3032	14404	-5205	1791	-3586	-17536	9628	-8608	-4746	12433	2401	-12704	26688	-12492	29802	4387	-3945	81	90	1
10056	-22192	19052	6132	23810	32767	-24320	4792	-9836	2065	15291	10062	-30428	7344	-5228	6655	-28177	-12968	-10868	4536	13280	-4739	-424	-3390	-17024	8184	-6868	-6301	4570	4362	-21288	27716	-9580	-12700	20234	14094	83	90	1
-18768	-29268	23668	3809	-5735	14950	-17764	8872	-23252	-4073	14273	7699	-31132	8484	-2740	6400	-27119	-10893	-10576	4008	13492	-3094	-302	-2511	-19216	2508	-5716	-8545	3866	1504	-20864	-84	-4588	-26524	16662	6532	74	84	1
-704	-16460	9884	-2300	-9533	921	-16252	11776	-5392	-5344	4644	47	-28876	5676	-4708	-2837	-25019	-11488	-9796	5076	12840	-1973	-193	-2060	-14920	-3740	-3964	-5751	4014	3032	-15860	-9372	48	-11256	16158	-1890	104	104	1
736	-12148	6936	1277	-6605	-3748	-9260	6172	-10012	-12350	-5009	-2639	-25464	5472	-4392	-4054	-21976	-11829	-9556	4120	13272	-1758	-220	-2313	-15928	-2728	-2712	31	2883	2231	-14284	-4292	952	-3075	16787	-2233	122	113	1
-1708	-9084	7724	2169	-5732	-11707	-5608	4020	-9080	-5316	-10484	-5334	-20088	3704	-5456	-4457	-19942	-13151	-9744	5012	12560	-1705	-301	-2551	-16956	2092	-1632	340	2062	2503	-16316	2908	676	-700	18845	1421	177	137	1
-3368	-8004	8620	983	-9716	-19991	-4696	2852	-10096	3316	-17916	-7874	-17224	3328	-5940	-3622	-17942	-13866	-9916	4236	12864	-1870	-800	-2683	-17060	1152	-2140	-4337	1044	2124	-15324	3888	788	-3664	21691	5055	124	113	1
-4868	-6072	8800	-2416	-15354	-25910	-4924	3316	-9784	4664	-19197	-7876	-15696	4440	-6920	-2190	-17338	-12761	-10244	3436	13264	-1031	-252	-1944	-15444	-1888	-2352	-819	1034	747	-15400	2036	3580	-3861	23144	4673	131	121	1
-5808	-4304	9032	-7608	-19710	-29623	-3988	6796	-8200	10543	-29721	-10619	-13660	4412	-7676	-1106	-15951	-11530	-10316	3396	13224	191	670	-879	-16052	-1176	-1548	4646	2714	2280	-18260	-1120	4392	5100	20661	2470	105	103	1
-7876	-4432	9740	-12461	-23442	-31661	-3860	7280	-8564	8954	-32768	-13559	-11080	3440	-7320	2496	-13345	-6310	-10380	3352	12864	897	890	-271	-15532	-1756	1520	5852	4196	3531	-15752	-184	4384	12956	18041	2313	108	105	1
-10320	-4548	10824	-16676	-27024	-31812	-4692	8216	-9208	5814	-32768	-15581	-8536	3884	-7680	7901	-11502	-2046	-9924	4240	12844	1246	1071	153	-14020	-1424	5204	5446	7103	4252	-17968	4224	5772	10502	7924	359	113	110	1
-13588	-5124	11720	-21905	-30037	-31016	-6132	10488	-9892	3	-32768	-16715	-6360	5272	-8576	12010	-10050	1208	-10064	5020	12372	1028	1256	-323	-13848	-1168	5468	5165	7474	4243	-18232	9716	7512	49	7190	-548	108	105	1
-15456	-6476	13556	-26744	-31623	-30968	-6236	10608	-10784	-10928	-32768	-18094	-5132	6668	-10504	13211	-6852	4418	-9648	5424	12668	822	1484	-1203	-15816	600	2004	2026	11431	5430	-16408	5648	4880	4785	8514	1602	109	106	1
-18136	-8592	16700	-30619	-30396	-31615	-8840	9416	-13284	-17996	-32768	-22056	-3376	8208	-11516	11517	-1641	6814	-8896	5744	12320	407	1501	-2803	-16940	1060	-1912	1461	11690	5518	-14532	-268	-44	8335	8363	2738	109	106	1
-26612	-13288	20604	-32007	-28119	-32768	-14508	7780	-14676	-21437	-32768	-25247	-2684	9716	-10972	3986	2973	6873	-10964	4348	13536	1916	2304	-5112	-17404	604	-4888	2889	11121	5128	-16432	-2748	-2528	7168	8527	1495	118	110	1
-32768	-10652	22836	-27884	-24384	-32768	-19908	7388	-17656	-19836	-32768	-26732	-6504	3124	-6276	-1959	4315	4219	-10140	4236	13860	1314	3070	-6735	-17188	508	-3696	4111	10114	5292	-17660	2400	-2476	3673	7813	578	100	99	1
-32768	944	22316	-27729	-18789	-32768	-26316	2876	-17560	-18701	-32768	-20563	-15544	-7548	3412	-6659	702	-2935	-9504	2812	14756	-945	6769	-5684	-16752	-3212	-2628	1199	11679	4235	-16460	7680	1200	5174	6612	1430	100	100	1
-32768	8324	9876	-19707	-15356	-32768	-24836	1192	-13572	-11599	-31308	-13160	-24752	-13568	27244	-16188	490	-11942	-11680	3584	13548	-2066	11134	-4118	-17764	-1276	-1416	-2648	13888	5015	-17164	1360	6424	4524	6908	-437	148	127	1
-32768	32767	-8200	-5694	-4487	-25954	-12368	4816	-7720	339	-14143	-8093	-30876	-12192	32767	1965	12994	-3952	-11100	4756	13500	-3011	15154	-4879	-16476	908	120	-1763	16331	5269	-14992	1368	5192	5277	5725	-2340	110	106	1
-32768	32767	-13156	-6344	3133	-5881	-1956	-2684	-6200	6886	11173	4333	-21876	-7416	27100	2832	1818	1888	-11500	4908	13360	-3541	18357	-6962	-17960	1552	-240	288	18305	6069	-16892	7132	1028	5526	6088	-898	142	125	1
-6332	-32768	26416	25803	875	9900	-15256	-1128	4620	-1881	28255	8612	-12604	-3812	4596	10854	6770	3360	-11720	6080	13560	-3940	22454	-9828	-20116	-88	400	5008	20449	7071	-19732	6000	4068	8514	4813	599	137	119	1
7304	-16808	4500	20248	5914	32216	-32768	-10356	16784	5423	8958	-3092	-18708	3724	696	-10782	9561	2410	-11856	6308	14608	-5738	29124	-13129	-24256	-6236	2200	7486	23060	8147	-22380	2044	9688	8408	2713	1004	144	132	1
-16076	1656	21664	19348	17903	32767	-12360	11364	1888	28579	7517	2652	-17220	9784	7044	3117	6269	2462	-13492	7164	15356	-8977	32767	-18830	-24728	-8448	3436	9750	25728	9257	-25344	-6908	23152	8248	-17729	-2639	121	111	1
-19552	100	24540	-103	18626	16910	-18760	24480	-5296	11429	17670	16244	-20328	-3704	-4496	25474	-3538	-3343	-21888	6624	21252	-13755	32767	-26069	-28756	-468	124	5952	28425	10471	-23928	-8748	14124	9503	-11352	-6370	144	123	1
-32768	-32768	10568	-2796	6589	15866	-18220	7652	-16860	-19002	20730	720	-16980	18736	-5096	1941	4771	4440	-32768	12192	28464	-9064	32767	-27709	-26964	4100	-44	3591	29726	8672	-23116	12504	-2632	29273	-16631	-4444	118	111	1
-13216	404	21216	8208	6039	10797	-18964	-16160	-14776	-9442	16637	-1230	-12744	4456	-17016	-15401	18980	-339	-32768	20412	22380	-9763	32767	-30815	-27636	3584	-4072	2503	27159	9578	-25064	12568	-256	10290	-20443	512	66	80	1
-11872	-9316	9460	6308	1561	5310	-18020	-4948	-10580	26178	9869	10955	-13240	-18632	-17072	-26786	19645	-5872	-4188	18156	22852	-19286	32767	-32768	-26972	1368	-3268	380	19484	2859	-28544	7932	-4940	-6982	-25411	4128	54	76	1
-12084	-8720	9056	6049	-540	3980	-14200	9432	-8248	13829	4345	5535	-16312	-12440	-9432	2132	14193	-801	-32768	11812	32767	-22049	28622	-32768	-17260	4308	-6220	753	-20207	8635	-27488	3512	-4568	-14016	-26428	4638	142	120	1
-10016	-7772	10356	3713	-345	2201	-16532	9336	-4032	-2765	7465	1104	-20456	5244	-4368	14481	9434	4151	-28524	5804	32767	1447	-17940	-25630	-13640	5200	-14852	-6094	14908	-5866	-28032	196	-2144	-12208	-28016	3585	70	85	1
-10148	-8396	10016	1275	206	691	-16076	3096	-3992	-11732	9913	356	-20960	924	-3944	14841	9098	4820	-3904	9256	13580	20271	-23723	-13932	-12136	-2408	-8184	4763	4448	-8207	-26136	2420	-2464	-6511	-26941	4586	134	118	1
-9692	-9072	8996	333	391	64	-18004	-5672	-2412	-293	7100	2360	-13692	3764	1340	-1750	11955	7408	-5968	16548	7488	12742	-22756	-6843	-9004	2136	-11644	7801	-6137	-9740	-24464	2040	-4036	-8226	-26872	5290	175	141	1
-9504	-9904	8324	650	133	180	-17492	-4068	-1584	10826	4302	3747	-13772	-1692	596	-9737	13530	5107	-6060	13960	6436	-834	-24594	4163	-6756	1664	-11920	5067	-15810	-8455	-20104	1184	-4984	-7782	-26086	4583	155	130	1
-9356	-10068	8172	1302	-281	706	-16012	2792	-740	3792	4988	3411	-15512	-6068	40	-7238	13015	2730	-3228	7072	8168	1336	-22686	17656	-4900	3576	-11452	2929	-19458	-11750	-16528	1008	-6040	-5166	-21443	4438	136	120	1
-9260	-9888	8220	1916	-684	1572	-14400	3456	-1360	-10479	8092	1729	-17308	-3740	-416	-2296	11842	1834	-6688	5152	9140	9626	-20039	27349	-5804	3980	-10744	-2493	-24030	-12414	-14528	1668	-6312	-4661	-18366	4886	81	90	1
-9320	-9048	8940	2129	-691	1817	-14504	3236	-1532	-12154	8474	1383	-17292	972	124	-2670	12222	2321	-10024	3832	10696	11923	-21790	30869	-5052	3300	-9976	-4332	-27875	-13921	-12792	2772	-7376	-7191	-16030	3654	119	110	1
-9292	-9404	8888	2034	-639	1915	-17888	-5920	-588	-1126	7085	3475	-14928	836	428	-10156	15252	3684	-12044	1200	11908	14490	-25388	30161	-5568	1116	-9940	-4319	-32768	-12816	-9924	600	-8136	-10282	-11982	1748	131	117	1
-9440	-9472	8732	2470	-687	2723	-16836	-2808	-3796	11929	4373	4111	-13808	-2568	1000	-13311	18250	5278	-14780	-556	13136	18486	-28380	26955	-5272	572	-10376	-1527	-32768	-12170	-7756	-1124	-8656	-12570	-9070	-1662	130	117	1
-9732	-8708	9296	2502	-486	2654	-15192	5380	-4864	7947	5506	4640	-15056	-2696	-3480	-4231	15371	5421	-19408	768	14192	21315	-32151	24229	-5872	512	-11112	1068	-32768	-14195	-6396	-2236	-9364	-13152	-6553	-3637	143	124	1
-9700	-8480	9496	1900	-512	2367	-15116	6060	-4752	6413	5644	4499	-15828	-1568	-9204	2399	11801	5503	-21076	2900	15488	20076	-32768	23885	-8704	1668	-12912	3472	-32768	-14971	-5964	-2716	-9248	-12180	-2586	-5268	146	125	1
-9952	-7696	9792	1360	51	2445	-16548	2784	-4336	-5125	8216	1041	-14688	784	-7732	1918	9313	6987	-26176	3892	17996	17489	-32768	27611	-13944	1736	-13736	1950	-32768	-15131	-6140	-2112	-8300	-9625	385	-5751	142	123	1
-9568	-8332	9580	546	528	2315	-17188	-1608	-3100	2506	6945	2099	-14192	1148	-1940	5827	8461	7198	-32768	140	20372	15612	-30360	32767	-18396	4736	-13396	997	-32768	-17133	-8632	1524	-3764	-8662	1252	-4073	135	119	1
-9808	-8980	9404	598	821	3115	-16812	-1484	-1468	8906	6534	3353	-16980	-448	2780	11239	9017	6454	-32768	-7736	16324	12265	-29482	32767	-22628	7988	-14360	-3067	-32768	-17953	-12836	9204	2656	-5039	-1092	2104	129	116	1
-9892	-9208	9404	1299	975	4101	-15864	-908	916	4099	9646	3831	-18264	-2892	5512	9674	7107	3526	-32768	-16092	6420	6165	-28304	32767	-24920	8244	-12748	-8628	-32768	-20025	-19000	6896	17016	-5663	-5022	9497	120	111	1
-9424	-11248	10152	1526	1241	6171	-17972	-4060	1304	586	13218	4508	-19148	-328	3968	930	6310	1184	-32768	-22852	-13580	1855	-26968	25374	-16548	2776	-12736	-10331	-24164	-14575	-22024	-6456	26028	-9958	7769	14601	120	110	1
-8968	-8260	14728	3645	3534	9080	-20172	-44	-1292	-638	15209	5487	-19512	544	2860	-6016	6396	1940	-32768	-32768	-27924	8633	-13952	8807	-9820	-568	-6040	3682	-7290	-3195	-19832	-7316	31796	-11138	4335	5537	104	102	1
-10136	-8120	13856	4518	8067	10348	-19872	2840	-3112	-3724	17015	8635	-18744	-904	-1484	-14121	4073	2680	-32768	-32188	-23404	14212	7133	-1377	-10768	10620	-8524	6760	9479	11502	-15856	-10008	24556	3792	2910	-7238	98	100	1
-11756	-8172	14184	2916	11669	9937	-21524	1876	-5072	-2355	17175	9468	-20656	-1080	-3904	-14330	3838	4286	-32768	-12636	-10004	-632	14258	-11306	-12312	10212	-12940	418	22272	12582	-13008	-4124	5832	11825	4941	-3857	164	134	1
-11280	-11180	12300	2966	15190	12372	-22200	3284	-1696	-6616	17818	10233	-20760	-1392	852	-13856	2740	4063	19284	32767	32767	-5841	230	-13290	-27092	-13940	15004	-4294	13647	13212	1460	4640	-9832	15933	5880	3125	132	119	1
-10668	-12112	12892	3471	18336	19060	-21344	1840	-1192	-12509	20638	9988	-20604	-3408	8708	-8282	-3365	3301	15196	16892	-7936	-13623	25510	-14806	-25456	5428	968	-23894	488	3225	-11788	8848	-17148	27644	26479	7559	118	109	1
-15108	-19084	10488	4368	22467	26562	-22228	1048	900	-13765	20784	10036	-19500	-748	7304	-10367	-4708	2062	-32664	-9400	26336	-8488	20800	-6020	-10948	-5732	-2408	-12014	1150	5883	-32768	14692	19340	-25016	-15939	9965	106	103	1
-16476	-19648	13140	6670	24795	32767	-24604	-5348	2868	-9453	23620	10795	-20928	-3628	12440	-9027	-7354	288	-15100	-7188	22332	229	18649	-11127	-16344	-7728	-7212	-2645	13104	10708	-20960	-16652	11796	-31255	13381	10245	109	106	1
-32120	-22536	14088	10200	24730	32767	-23400	-5772	-4656	-4732	26043	12001	-19016	-13344	-1872	-6641	-14189	-3249	-24372	32767	-5592	-8092	8641	-5279	-20436	15664	-332	3428	13468	13635	-9172	-9152	-5848	11531	24098	-2265	126	114	1
-20268	-25148	15996	11799	24184	32767	-29184	-3172	-4756	-3480	23369	14081	-20696	-8988	-4308	6666	-21947	-9837	-14392	3264	11608	-9221	608	-6867	-16740	14444	-5744	-9884	9511	5888	-11216	17284	-16276	32767	5913	-7092	106	103	1
-13868	-28336	16624	20559	20962	32767	-25564	-92	-3788	5549	15793	15005	-27788	796	-7152	16069	-25751	-12078	-13124	5772	12000	-2767	-922	-3317	-14260	-2228	-7160	-5420	6972	2727	-17268	26208	-1868	-6056	13430	16088	74	87	1
-32768	-15552	21284	26696	13284	32767	-18180	5208	-15468	15507	10712	14578	-29064	9348	-6736	18043	-25396	-10284	-11228	1516	13816	-2245	-1517	-2600	-13676	-2544	-6648	-3823	6191	3648	-21372	-3144	-4036	-18089	16725	12003	111	104	1
-10708	-16904	18472	2198	-9540	5771	-17484	12608	-14592	6690	8606	9739	-29740	9044	-3716	12637	-25367	-7654	-10388	2300	13748	-222	107	-749	-17808	-748	-3948	-209	7491	5756	-16012	-13184	1696	2156	12225	-3666	121	111	1
-1252	-17608	6628	-119	-11964	-2392	-11304	10000	-5868	-7382	-736	5165	-24332	6036	-4124	2481	-20014	-10893	-10612	3736	12716	934	1393	155	-16880	896	-208	-1770	6270	5450	-12428	3616	3236	10593	13012	-6073	134	119	1
40	-13060	4568	7509	-8933	-6499	-7940	5836	-9232	-10860	-6106	-1273	-21916	5692	-5020	-4141	-18722	-10980	-10560	4744	12176	856	1343	-204	-15020	220	1996	4227	5240	3978	-16160	12484	1968	3636	14233	-424	110	105	1
-1712	-7780	5948	4789	-6133	-15731	-7580	3340	-9156	-5615	-12204	-3394	-18516	2172	-5408	-8129	-15551	-12185	-10324	5036	11924	251	550	-1112	-14924	836	916	10557	6809	5469	-16340	7412	2328	-483	13141	3088	167	135	1
-4876	-9964	7364	457	-7715	-23250	-6544	1888	-9720	1861	-19833	-3947	-16204	1820	-5680	-5719	-13513	-11597	-10424	3252	12996	252	551	-1164	-17772	2712	-1928	4504	8079	4935	-16560	1224	1960	96	12390	1946	114	110	1
-8216	-9020	8796	-932	-13345	-28467	-6684	4024	-9724	9705	-25619	-6403	-16324	1824	-5540	-5127	-13382	-11721	-10488	3360	12924	939	1640	-484	-15464	-2664	-936	1135	7437	4025	-15796	-2916	4436	6302	12296	-303	141	122	1
-8752	-6548	9396	-4318	-18517	-32149	-6344	5720	-7984	12129	-29802	-8711	-13700	3412	-6412	2838	-13430	-8404	-10652	4172	12488	648	1971	-634	-15796	1104	-756	3867	7804	4090	-12968	-516	7008	13669	16645	1689	121	110	1
-9508	-5080	9524	-10369	-21685	-32768	-6796	7052	-8068	12300	-32768	-11205	-11868	2776	-6344	8125	-13164	-3515	-10804	5016	12056	-127	1304	-1728	-15640	4008	-1776	3992	9036	4595	-14728	2896	1824	14146	15694	1702	113	107	1
-11312	-5668	10876	-16171	-23636	-32768	-7324	7740	-8948	9734	-32768	-12880	-9624	3152	-6964	13175	-12901	62	-10728	4352	12440	-305	682	-2748	-17036	1880	-4036	2641	7829	4631	-16480	8708	-7212	10342	13011	82	122	112	1
-14368	-7356	12872	-19701	-26229	-32419	-7972	9676	-9272	2482	-32768	-14702	-7768	5328	-8500	15822	-11242	2845	-10844	4524	12796	-16	1077	-3618	-17492	1700	-5584	2415	6331	3462	-16604	9912	-9968	4033	10182	494	111	106	1
-16272	-8796	15392	-21472	-27507	-32768	-9432	9904	-10984	-4955	-32768	-16406	-6244	6776	-9696	16104	-8071	5525	-11420	3648	12712	999	1732	-4405	-16200	1248	-6156	2076	5126	4179	-14920	4132	-4632	-792	11855	1194	121	111	1
-19632	-9244	18856	-24650	-26913	-32768	-12824	8912	-13524	-11119	-32768	-18457	-4676	8992	-10112	12963	-3242	6443	-9664	2196	14016	413	3804	-3458	-15900	-1480	-4888	1840	5174	3673	-15468	480	-176	-2355	12806	224	109	106	1
-29556	-11076	22468	-26366	-26030	-32768	-17004	8544	-14408	-15300	-32768	-19915	-5664	7440	-8288	6989	-1383	5994	-10500	2384	13264	387	6128	-2361	-16520	-2184	-1584	1310	6321	3872	-18692	-112	3912	-6238	10670	-425	114	107	1
-32768	-3804	22296	-24685	-24093	-32768	-20224	6320	-18460	-16297	-32768	-19281	-9184	428	-4520	2392	-1618	805	-10512	3076	13224	408	9107	-1669	-16880	-2444	1892	-254	8953	5009	-19336	360	10852	-5414	9081	364	114	108	1
-32768	4072	13624	-22154	-20780	-32768	-21424	4348	-18016	-15825	-32768	-14654	-17192	-2348	8156	-621	-1154	-5796	-10828	3492	13224	204	12428	-1916	-16720	-1904	3444	551	12706	5499	-17408	-1824	11984	2795	6428	776	131	117	1
-32768	17720	-1120	-16189	-13640	-32768	-19388	-656	-14152	-8588	-25140	-11965	-23696	-9080	28500	-5195	1646	-5763	-12128	4704	12988	-307	16658	-3398	-18476	-600	2404	2668	16714	6665	-17960	-4264	8092	9430	4782	655	147	126	1
-32768	32767	-9712	-12332	-2460	-19931	-8360	1980	-15200	5362	-8602	-6030	-25796	1480	32767	-14551	4566	1342	-12116	4864	13500	-1876	20459	-5511	-18940	-724	2028	2916	17292	6925	-16780	4788	3768	17042	3622	-2130	93	97	1
-32768	30808	-7948	-4411	4757	-5690	-3196	-100	-13068	723	13831	3235	-15768	-6592	17424	-16043	7070	1	-12344	4620	13056	-3759	25122	-8101	-19748	-1076	488	5981	21361	7606	-17744	10052	1876	16833	3971	-2364	166	138	1
-29740	-30076	27432	23160	2077	23019	-20284	-940	9220	-24744	23134	1857	-17504	-6616	116	-12634	8117	-5751	-13048	4696	12956	-6399	31369	-11678	-22100	-1296	2208	7969	23616	8030	-19104	7660	8304	13983	3696	-2192	131	117	1
-1860	-7872	2500	17260	20939	30469	-32768	1372	-4108	9417	11962	-4096	-28148	-1292	17792	-8182	7465	-4550	-13484	10272	13436	-9362	32767	-18732	-26716	-2588	6036	6950	25304	9059	-24696	2620	18736	14049	-9928	-2667	155	130	1
-21288	356	19708	3142	23396	13723	-12368	14080	-3348	21451	13936	10797	-22056	-8068	-1684	25835	6258	8773	-24712	11688	17788	-12567	32767	-26566	-25204	-1268	3112	3613	27575	10220	-18184	-5312	12100	2893	-11714	-4650	109	104	1
-15096	-4540	12600	-4016	14892	17054	-15336	9500	-10392	5042	20894	10271	-12344	8776	-9576	24282	4527	7657	-32768	13268	27012	-8505	32767	-29503	-28152	2484	2324	3360	29423	11425	-25072	5784	2684	15259	-17391	-3290	60	78	1
-7764	-9640	11312	9086	8884	11321	-22928	-13508	-15652	-3663	19789	-277	-8076	9088	-17492	5158	8234	-3818	-32768	27184	23984	-7143	32767	-29711	-27972	5852	-3976	2957	27753	10681	-24172	9960	-864	9313	-21037	1776	94	96	1
-14828	-13644	4668	10632	2088	8333	-17424	-7320	-13620	32635	9679	6474	-15656	-9704	-15232	-22060	17880	-5727	-18188	14912	29820	-10410	32767	-32768	-26596	6464	-3736	2749	28085	10085	-29552	6420	-6588	-3644	-25134	5740	117	109	1
-11616	-6780	10428	5999	-941	4459	-14096	16944	-8348	17882	7535	6316	-18084	-10444	-9316	-367	14656	-4622	-32768	13920	32767	-3474	10490	-32768	-20048	7516	-17372	1823	-6123	7390	-31300	2060	-6200	-13510	-27916	6588	126	114	1
-10116	-8248	10012	4193	-1575	3345	-15552	9092	-5732	-14161	11355	-518	-20492	452	-4236	9576	10415	36	-12448	10364	28528	11010	-18611	-22645	-18848	-4952	-10332	-1412	9521	-5572	-31348	-1324	-1256	-11062	-28943	3927	103	104	1
-10216	-8696	10336	2473	-1386	2055	-16948	-808	-4956	-17591	11398	-2663	-14956	5232	-1124	4759	10917	8399	-3508	14688	11408	13612	-18968	-14103	-11572	-404	-11272	6723	-3415	-4250	-25540	-1832	-2760	-2901	-27885	3132	142	123	1
-9576	-9124	8988	1928	-1080	1643	-19632	-10124	-3284	8719	5909	4026	-14312	1128	-3080	-2484	13479	7338	-5304	14784	9616	2341	-19097	-2516	-8388	-804	-12736	8097	-11861	-5836	-22612	-232	-3768	661	-27582	3424	155	130	1
-9572	-8900	9132	2174	-1114	1941	-19152	-9068	-3192	13166	4843	4232	-15376	-1740	-2036	-4247	13969	3797	-4136	8788	11388	-171	-20132	12347	-6640	1728	-13264	7046	-16897	-8366	-19928	852	-5028	2626	-25138	4684	161	133	1
-9548	-8716	9312	2007	-842	1767	-16148	10584	-3324	8437	2314	3561	-15272	-1912	-1968	-3346	14068	3596	-5388	4764	11876	4772	-20052	24086	-6160	1448	-12280	4	-20801	-10419	-17016	-376	-5712	657	-21378	5551	115	109	1
-9680	-8448	9568	1783	-713	1847	-12984	6616	-2964	-11850	7815	-627	-16132	2300	-1716	1818	14034	3422	-7788	1924	12888	6468	-22756	28072	-5024	484	-11576	-4227	-27649	-12403	-15016	-3116	-6816	-3387	-20227	4766	130	117	1
-9704	-8092	9676	1078	-248	1394	-17508	-980	-3712	-13383	8435	-1252	-16040	4948	-1496	-5490	17782	4744	-9324	-3764	15204	12986	-26981	26583	-4232	-1228	-10956	-4208	-32768	-11780	-11220	-3072	-7368	-4770	-17212	561	126	115	1
-9620	-8408	9468	668	190	1275	-18616	-5040	-3636	3227	4638	1380	-15420	404	916	-12294	20767	5289	-11048	-5052	16200	20927	-32005	22935	-4576	-2412	-11164	-689	-32768	-10719	-9120	-1976	-7588	-7148	-13124	-2972	118	110	1
-9764	-8504	9336	861	261	1482	-16672	1376	-3320	9548	2962	2763	-14564	-3008	908	-10925	19731	5095	-12596	-4072	16992	25233	-32768	19190	-4700	-1548	-11996	4498	-32768	-11697	-7080	-1044	-9484	-7680	-10181	-4846	120	111	1
-9740	-8528	9224	1265	96	1916	-14640	5152	-1740	-834	5238	1466	-16348	-2476	-7528	4031	15649	3866	-16436	-2208	19296	25755	-32768	18774	-6700	260	-13536	7140	-32768	-15077	-6740	-280	-10780	-8136	-6507	-5914	132	118	1
-9684	-8432	9620	1242	172	2289	-16116	704	696	-6057	7936	-504	-18800	-4100	-5252	5114	9346	4514	-23296	-952	21420	23733	-32768	23275	-10228	1868	-14232	7064	-32768	-17958	-6876	1768	-11848	-12195	-2627	-4362	137	121	1
-9736	-8680	9440	1298	349	2862	-17712	-4232	432	1125	8494	1142	-18032	-6560	2244	6608	7859	6602	-32768	-3028	21184	19037	-32768	31405	-15196	6568	-16760	4201	-32768	-21366	-5952	5816	-11148	-20078	197	-1331	148	127	1
-9740	-8748	9688	1335	473	3035	-16552	-2488	556	7391	8606	3732	-17636	-4004	5424	6873	7890	5327	-32768	-11892	16176	14041	-32768	32767	-19980	9728	-18332	579	-32768	-23622	-9284	14236	-852	-12925	-2302	3178	144	125	1
-9792	-9392	9976	2389	1211	5220	-16376	-300	1804	4927	11643	4381	-16952	1824	4448	5563	4969	2369	-32768	-15920	5192	10735	-29823	32767	-23020	9856	-15600	-6287	-32768	-24268	-14284	4060	14896	-513	-6524	5664	128	115	1
-10952	-7728	10792	1305	1549	6611	-16104	-1336	-1408	1159	16080	4739	-15564	4828	4868	-6	5296	745	-32768	-12964	-15840	5587	-28618	25280	-21192	8224	-14452	-9582	-25991	-16740	-21876	-13640	22608	-4940	14390	6270	106	102	1
-11044	-8044	12060	4131	5860	8209	-19380	4088	-1892	-3555	17310	5890	-17640	5484	4288	-11638	5050	-476	-32768	-28776	-27416	11456	-16498	8502	-10780	-384	-9956	6274	-14809	-921	-20108	-9116	32767	-6753	7058	-5127	124	113	1
-10720	-8024	12904	4536	8376	10428	-18508	-572	-2572	-4987	19140	7199	-17336	-2640	240	-19402	3042	422	-32768	-32768	-23408	22045	7349	4999	-9188	9284	-8324	13648	7325	8472	-12280	-660	21920	-7807	4804	-7539	105	103	1
-11860	-8312	13608	4186	11154	10333	-21192	-708	-2596	-5021	20849	8689	-20912	-8468	-3616	-19883	1660	872	-26320	5312	408	-16115	10949	-5026	-9616	13872	-2460	5268	21213	12331	-14324	-3748	10264	2581	5534	-2697	150	127	1
-11672	-11716	12784	4555	13655	15416	-22808	4400	-3264	-7532	21221	8721	-21020	-5988	1440	-16705	-939	2942	8128	15028	1668	-3350	5547	-12172	-32768	-1848	9972	-4241	8684	9632	-2160	-364	-2032	17386	8111	4033	131	117	1
-11308	-11992	11964	3680	16897	21840	-23344	3096	1996	-14860	22934	8533	-17692	-1200	6300	-6245	-3682	3682	17820	15096	-4356	-5249	9379	-15246	-27008	-9820	-476	-32768	3742	977	-25060	2380	5824	24840	8425	7601	110	106	1
-14164	-17528	14524	2871	20657	30162	-24904	-700	1996	-16024	23916	7861	-21024	2452	15452	-7938	-7192	1653	-17632	-10020	26128	-11607	21570	-8936	-17488	-9248	-3800	-15860	7691	10108	-32768	18312	11960	-19581	-5571	11602	106	103	1
-15200	-18432	15848	7093	26991	32767	-27740	-2740	4212	-10132	23849	10381	-22156	-4360	4960	-5991	-7501	635	-14020	-1688	16184	-2541	16437	-12763	-15148	-6344	-8488	-8301	15598	10647	-12180	-9660	588	-32768	16796	14361	125	113	1
-22820	-22920	17816	11560	26779	32767	-26724	-4760	-5600	-5848	24588	11420	-21184	-10808	48	-5485	-17865	-6406	-13120	9260	5040	-15640	5418	-10421	-21332	17132	-3768	-4560	13431	14558	-5644	-3020	-8760	19286	12225	-4948	135	120	1
-26536	-32768	16916	13961	24584	32767	-29612	-1828	-6652	-5458	21709	12745	-24604	-4036	-4084	7536	-22442	-10644	-14496	1148	20756	-15698	3584	-12378	-16228	12140	-5468	-17432	10078	4298	-15688	22256	-7056	22795	2517	-1507	111	106	1
3664	-30528	15508	25625	25865	32767	-22896	244	-4168	8445	10209	11883	-29520	3744	-7116	15550	-24535	-11454	-11916	3524	13120	-4598	-3482	-5839	-15576	-2752	-5944	-10442	6561	4959	-19584	17860	-1244	-13247	14821	19895	81	89	1
-28912	-16196	26024	10346	5118	22340	-14260	9088	-26312	14234	11719	13354	-28648	10348	-3540	14126	-24867	-7946	-10260	2552	13672	-3682	-2688	-4005	-16024	-2732	-6048	-2889	6354	6136	-20880	-6256	-612	-18487	13191	7367	93	95	1
-5480	-18696	12424	-8254	-8452	-2164	-17716	18448	-6580	-4159	5419	4023	-26876	8200	-2408	7305	-23551	-7387	-9916	1912	14064	-1738	-529	-1814	-16484	-1616	-4776	676	9009	7660	-13204	-9740	2564	-2334	10358	-5218	103	101	1
-40	-16220	5760	2390	-6317	-6584	-9224	7716	-6000	-15661	-4411	-212	-23076	8104	-3416	-715	-21605	-8474	-10164	3108	12900	-789	598	-1489	-15612	604	-2644	831	8054	5647	-14224	1632	1356	6416	11746	-4709	152	129	1
-1244	-7968	6952	6184	-2395	-13449	-8588	6812	-6308	-15505	-4682	-1424	-18600	6456	-4228	-8169	-18408	-8698	-10292	3604	12828	-714	572	-1717	-16344	1888	-2028	2120	5855	4390	-16548	7708	-64	4915	13136	3062	181	147	1
-3892	-6556	9112	1151	-4862	-22075	-5424	2764	-10652	-1680	-13346	-5861	-15700	3848	-4880	-10490	-15355	-10223	-10248	3396	12844	-979	-29	-2003	-15744	1628	-3536	3146	6069	4873	-15872	4176	-340	2025	14031	5219	112	110	1
-4980	-6368	9480	-2649	-11525	-26755	-6092	3652	-8972	3855	-21304	-6952	-14168	1676	-5996	-10086	-13066	-9733	-10340	2048	13720	-480	170	-1389	-16468	192	-4444	702	5823	4410	-16840	456	908	2771	14380	2607	128	121	1
-6208	-4296	9704	-7225	-16736	-28661	-5656	4200	-8048	8721	-26389	-8706	-14420	552	-7096	-6781	-11806	-9406	-10280	2720	13332	85	1011	-1095	-16100	188	-3836	1610	5136	4044	-16904	-760	1288	7750	16845	1270	119	115	1
-8460	-4008	10116	-12543	-21593	-29884	-5500	5544	-9576	9801	-31415	-11193	-13584	-756	-7764	2188	-9904	-7292	-10244	3388	13148	132	1376	-1271	-16660	2084	-3320	2851	5005	4006	-13908	1620	468	14153	20466	1470	115	111	1
-10048	-4536	10416	-17265	-25507	-29881	-6360	6924	-8804	8385	-32768	-12389	-11088	140	-7544	10176	-9206	-3292	-10420	3472	12896	-82	1474	-2001	-16540	1680	-3180	3882	4747	4401	-16224	6676	-36	10212	21807	281	101	101	1
-12864	-5348	11244	-21304	-27598	-28771	-8008	9896	-8760	1873	-32768	-13108	-8656	3072	-9236	16912	-8664	450	-10632	3128	13416	-68	1935	-2510	-17136	308	-3464	4482	4468	4717	-16648	7956	-1136	3851	17224	-255	106	103	1
-16572	-6788	11648	-23981	-29467	-28885	-6372	10072	-9460	-8680	-32768	-15160	-6368	7592	-10480	18282	-7264	2561	-10728	2564	13212	1023	2662	-3062	-16744	364	-2984	3852	4436	5613	-17668	5752	-3036	1689	13045	-14	108	105	1
-17652	-9992	13472	-23169	-27970	-31092	-9476	7888	-11136	-10471	-32768	-19556	-4992	8344	-10216	15759	-4283	5979	-10496	1988	13644	-69	5208	-2909	-16952	-1400	-3616	3363	5502	5102	-17488	836	220	-910	12011	2060	108	106	1
-17904	-10388	13932	-22635	-27248	-31584	-16540	7928	-12608	-11319	-32768	-21802	-5092	9580	-8000	9530	-1684	7135	-10200	1496	13644	139	7134	-2258	-15960	-752	-2768	2706	6357	5060	-17008	-2100	3472	-1415	11056	1787	106	103	1
-32680	-12752	18108	-17445	-16953	-32768	-20680	5408	-14228	-8228	-32768	-21829	-7568	7148	-4620	1839	-1566	4734	-10848	2380	12912	353	9638	-1538	-16424	-996	-1840	3585	7833	5854	-16472	-836	5008	397	9600	665	111	106	1
-32768	-2956	17700	-17487	-12055	-32768	-22288	-408	-17392	-3211	-32768	-18814	-14324	-3768	0	1015	-2460	-671	-10692	2508	13248	166	12350	-1311	-16384	-808	468	4637	9889	6224	-17184	2612	5112	4770	8515	606	112	105	1
-32768	6164	8988	-18240	-10222	-32768	-23868	3172	-14880	-216	-32768	-10432	-22060	-6532	12920	-2011	-2814	-6915	-11004	2956	13356	-252	15231	-1861	-17652	-364	856	3301	12533	6930	-16860	2872	5520	6782	7416	1380	129	115	1
-32768	17492	-6472	-9870	-5200	-32768	-14652	2624	-12428	8890	-23776	-8021	-22232	-7748	32767	694	5860	-7376	-11424	3364	13024	-564	19126	-2835	-17472	-1020	908	4248	14943	7129	-17480	2036	6232	10832	6024	-460	101	99	1
-32768	32767	-14304	-11751	5731	-20545	-2976	2684	-8612	-8519	954	-3721	-21628	-3304	31056	-4957	5214	-2402	-12416	3492	12884	-2547	22379	-4828	-18268	1740	564	3840	17860	7151	-16020	5232	3392	11014	5088	-1326	112	105	1
-32768	24452	-11060	-3320	10333	-1434	-4892	-7160	-8676	-7610	21205	-236	-15856	-5388	15068	-7240	5435	-876	-12896	4524	12276	-4274	26613	-7965	-19644	-2176	1836	6036	19386	7959	-18704	6068	5208	12106	5775	-1246	159	136	1
10420	-27876	25256	20204	9424	12896	-24220	-4708	18772	-1898	23490	2027	-10092	-6488	-3096	-5182	12446	-5707	-14160	6680	13632	-6363	29728	-12423	-21240	-1888	5192	9937	22687	8877	-19384	2556	11348	11485	2661	-1897	127	114	1
