#Activity	walking 
#ActivityID	1 
#Date 08-18-11-45
acc_rf_x	acc_rf_y	acc_rf_z	gyro_rf_x	gyro_rf_y	gyro_rf_z	acc_rs_x	acc_rs_y	acc_rs_z	gyro_rs_x	gyro_rs_y	gyro_rs_z	acc_rt_x	acc_rt_y	acc_rt_z	gyro_rt_x	gyro_rt_y	gyro_rt_z	acc_lf_x	acc_lf_y	acc_lf_z	gyro_lf_x	gyro_lf_y	gyro_lf_z	acc_ls_x	acc_ls_y	acc_ls_z	gyro_ls_x	gyro_ls_y	gyro_ls_z	acc_lt_x	acc_lt_y	acc_lt_z	gyro_lt_x	gyro_lt_y	gyro_lt_z	EMG_r	EMG_l	act
-17220	-5412	16184	7248	32767	17459	-32768	9540	10504	-4806	28522	-2360	-25684	-3720	23084	-11802	-18346	79	-16296	-4848	19208	-1023	1976	-1550	-12824	7688	-10320	-1344	4383	-1010	-16232	-16312	-15440	-2334	2213	-52	126	0	1
-32768	-804	25648	6630	32767	17978	-32572	6960	1336	-1929	31114	-2037	-24968	2680	11692	-9721	-19663	4949	-15152	24696	11720	-1798	2312	-1649	-13736	6944	-9768	-631	2111	1041	-4080	-6328	-9344	429	1596	684	135	0	1
-32768	-8048	29656	-1151	32767	17284	-32768	-1700	1212	-6007	32767	-881	-25032	668	-4028	-4123	-22222	3681	-19808	-3464	22456	-1748	861	-1425	-7296	12712	-14272	-2522	1622	659	-5984	10688	-7960	1554	168	-425	122	67	1
-32768	-16368	26584	4395	32767	22797	-27960	-2608	2108	-1891	29126	-1631	-23196	776	-13088	-1934	-21847	1690	-16040	3344	19440	-1034	168	-777	-26176	-5320	-12592	-1965	2695	325	-30776	10672	-8888	-233	1456	1341	122	50	1
-28856	-21292	32767	4476	32767	23236	-19616	-3392	-16800	722	24603	-3185	-27296	324	-6856	-10069	-24308	-3509	-11176	5512	12808	-434	-113	-349	-19608	-2160	-7816	2333	1029	871	-21080	-7256	-4152	-106	1583	1119	123	23	1
-29304	-9568	32767	5418	14693	14942	-13168	-3136	-18860	12943	14666	-1595	-29324	1248	-8212	-10201	-25857	-7272	-9432	3904	12904	-260	-158	-178	-13736	6336	-6080	2351	379	701	-14832	-1696	-1200	1364	1712	115	96	27	1
-7336	-13328	32767	-4733	-22016	-356	-11172	4084	-3008	-2049	3115	-1118	-27348	-2532	-7372	-3778	-24763	-7232	-8976	3744	12704	-189	-80	-122	-16224	8152	-3744	441	877	484	-13072	8120	-1800	1136	1682	-121	135	55	1
-2616	-13148	29032	-3643	-23709	-1148	-12184	4316	808	-6096	-3778	-1680	-26256	-3860	-7208	-3657	-24467	-5416	-9088	4304	12632	-116	53	-89	-17040	8120	-3904	-1281	749	424	-17280	5424	-96	274	1592	130	129	104	1
2624	-5860	14552	-1254	-26767	-6155	-3900	1756	-2856	-3543	-11763	-1015	-20612	-1240	-6964	-3952	-23923	-6100	-8912	5360	12608	-140	50	-127	-16216	3032	-2584	-1149	911	205	-16080	2680	208	238	1727	208	136	111	1
-1408	-4432	15472	-2599	-30592	-9539	-3172	-44	-4156	-5453	-17541	1448	-16280	-4744	-7544	-3857	-21882	-6920	-9136	4904	12320	-159	37	-189	-17112	1448	-2952	629	500	378	-16672	5192	616	376	1734	138	142	95	1
-6340	-4144	16508	-2784	-32768	-13172	-3992	-784	-4864	-2277	-23355	3998	-14324	-5624	-8204	1674	-17794	-5912	-9368	4128	12688	-130	55	-194	-16296	5824	-2480	1424	270	603	-15904	3824	1064	446	1754	-18	139	104	1
-9480	-3500	15364	-1324	-32768	-16760	-4252	372	-6656	-92	-29771	6112	-13056	-2080	-9424	5893	-13298	-5218	-9296	3856	12760	-94	99	-181	-15224	7256	-1808	560	408	420	-14640	3992	1896	284	1692	-146	127	120	1
-9524	-2292	12568	582	-32768	-18880	-6232	1840	-5104	-503	-32768	7875	-10852	-2596	-11004	8770	-9055	-3781	-9320	3976	12568	-63	143	-180	-15552	6768	-2152	-291	689	274	-15200	5088	1912	204	1813	-144	120	116	1
-9168	-288	10604	436	-32768	-19403	-7012	1324	-4148	91	-32768	10147	-9036	-1816	-11744	10750	-4837	-2025	-9448	3672	12536	-31	150	-157	-15752	4136	-2608	-143	697	246	-14792	3864	2000	403	1995	64	121	126	1
-10668	1624	10460	-3603	-32768	-18553	-11424	1784	-5844	2335	-32768	10940	-7500	784	-12284	13831	-2096	-825	-9520	3760	12272	-1	168	-124	-15408	4152	-2512	429	625	319	-14632	3552	3112	630	2072	124	123	128	1
-13896	1464	11884	-7897	-32768	-16351	-14168	-924	-10676	5374	-32768	11835	-6280	2972	-12576	18337	-882	-200	-9608	3384	12520	-8	198	-122	-15032	4544	-2824	719	667	327	-14856	3304	2232	626	2071	-16	127	128	1
-26364	-2596	25652	-9983	-32768	-12649	-16020	3668	-13296	3140	-32768	14446	-4764	5372	-12444	20308	-426	1420	-9280	3344	12312	-28	180	-111	-14552	5440	-2368	794	725	296	-14392	4536	808	353	2102	-64	125	120	1
-32768	-4936	31916	-9314	-32768	-12678	-23344	2964	-16056	-6618	-32768	13725	-4260	4652	-10304	18969	-857	2537	-9616	4464	12672	-20	209	-122	-15208	5984	-2152	623	779	286	-15104	5152	232	-43	1907	24	119	109	1
-32768	-7668	29964	-6955	-32768	-12410	-29096	2412	-18712	-18095	-32768	13153	-5680	3748	-4664	13621	-3054	2293	-9288	4272	12712	23	290	-166	-16592	5416	-1960	526	934	277	-16776	3584	1232	-102	1698	62	120	110	1
-32768	-5888	23180	-8212	-32768	-14362	-25628	-2176	-16036	-23784	-32768	9794	-10288	1084	520	5131	-3552	1041	-9128	4144	12632	71	415	-228	-16768	4704	-328	609	1037	295	-17584	2504	4288	-118	1703	99	127	126	1
-32768	-6036	9688	-9966	-32768	-15724	-27560	-6808	-17676	-17359	-32768	6057	-16644	-3136	8760	1549	-2982	297	-9088	3200	13040	121	651	-257	-16688	4136	336	630	1288	300	-18744	3016	7632	2	1607	101	131	118	1
-32768	5224	-7932	-13528	-32768	-15030	-24944	828	-22896	-18379	-32768	-921	-27008	-1588	32160	13107	-4955	-1820	-9096	3248	13344	154	1006	-262	-17656	5224	824	462	1632	262	-18400	1904	8712	167	1174	174	140	156	1
-32768	22828	-29356	-23737	-20502	-20992	-11652	156	-24904	-22399	-15133	-3466	-25484	3016	32767	6091	-6181	-763	-9184	3032	13784	121	1505	-277	-18880	5872	-1088	46	2029	155	-18272	2856	5904	402	809	157	141	171	1
-32768	20568	-32768	-9686	-320	-13328	-4308	-11404	-20696	-10306	9804	-2678	-22812	2712	26768	-10929	-5881	2240	-9296	4224	14256	31	2066	-341	-20552	5896	-1896	-1	2320	89	-19560	7200	4216	876	574	5	137	119	1
-32768	18756	-32768	16439	32029	18182	-17380	-17064	-17300	13772	25487	1352	-17040	-3580	9044	-15581	-1985	591	-9424	4040	14336	14	2155	-358	-23672	5000	-944	297	2478	162	-21280	7960	6480	1019	138	14	118	140	1
-5548	-20932	32767	18278	32480	27913	-32768	8304	32767	32767	9974	-1101	-14368	-5184	-5396	-15272	3983	-4040	-8600	4168	14048	-46	4024	-903	-27848	4456	-1072	837	2625	224	-24936	6264	16680	391	-1065	75	124	151	1
-27000	-3760	3972	7811	32767	8274	-21088	20064	-22180	32767	17110	-558	-30284	-10364	25872	7233	-13853	-15001	-12112	9144	14616	-233	5619	-1410	-32768	1744	10192	2119	2906	140	-21312	4152	22928	-330	-2623	281	121	132	1
-32768	13972	32767	3590	18535	6098	-16140	2684	-12920	2688	24069	-4004	-12036	-9824	-13196	14392	4520	-8308	-25808	9288	22288	-594	7086	-2104	-32768	4040	5624	2111	3001	142	-27768	-12720	18672	-527	-2459	-555	150	143	1
288	-14540	6456	869	18823	8205	-17700	2912	-5476	6798	19717	-5557	-12756	16056	-20004	9125	23051	6983	-28648	8944	27208	-271	7774	-2445	-32768	7280	2280	2005	3436	90	-24328	-7152	11408	181	-2479	-877	151	124	1
-23432	-15064	17724	8922	19922	11124	-10560	-15592	-12004	24869	11350	-4111	-8720	1944	-11384	8205	7499	1842	-32768	12360	26208	55	7416	-2838	-27496	9048	-784	1814	3064	-90	-22560	3880	-12016	1869	-2060	-1030	139	156	1
-15232	2228	17960	7820	7004	8320	-17204	-1244	-12756	32767	6535	-7848	-13528	-18020	-3396	-8499	-770	-345	-32768	19168	29440	196	6157	-3161	-19888	9592	-6776	864	2981	-144	-26960	3144	-4616	2972	-2255	106	132	186	1
-18620	-3976	20568	4835	2756	3304	-21920	12232	-11948	7730	9028	-3221	-27176	396	-7248	7576	16137	-10420	1352	17504	32767	-1192	3178	-2518	-12208	14944	-15368	-298	2571	-308	-27072	2792	-5864	1834	-2356	557	115	187	1
-10320	-3664	14220	1645	474	901	-13284	8476	-7336	-20907	9751	-6402	-18880	6812	-3176	-1441	12883	-5193	-9760	22392	32767	-336	-1327	-29	-13456	3520	-6840	-2037	1758	-81	-30024	5640	-4184	667	-2630	562	111	129	1
-9552	-1048	14216	195	224	-210	-15732	880	-5644	-30832	10024	-6022	-12912	356	-2772	-12560	14224	-1719	7056	10712	17400	-359	-2133	706	-18912	-4280	3112	-1009	232	610	-27800	4648	-4528	32	-2521	536	123	61	1
-9712	-3644	13760	-721	720	-880	-18532	-6940	-3200	-15507	6875	-5536	-15160	-5304	-1308	-16640	14883	1062	4096	7112	15136	115	-2299	1199	-8296	-2960	-2184	461	-983	-10	-23312	4424	-4064	-43	-2580	349	126	83	1
-9300	-3332	13452	-1024	986	-1198	-18180	-5120	-2524	6984	3340	-3936	-15584	-8748	-1776	-12588	14374	2340	-792	8816	18272	219	-3040	1481	-5112	3256	-4048	733	-1802	-254	-18104	3816	-4760	56	-2427	349	118	146	1
-9340	-3336	13308	-1027	1282	-1154	-16532	1192	-3528	12244	1368	-2560	-14964	-7868	-1468	-4099	13708	1986	-2440	6448	16512	-25	-3925	1630	-6296	5008	-3184	28	-2582	-162	-16024	5040	-5720	-189	-2289	310	118	211	1
-9424	-3536	13328	-972	1423	-1039	-14976	6156	-3332	-1676	2530	-2447	-15748	-2732	-140	-834	14247	1407	-5200	3720	15032	137	-4555	1813	-7304	2696	-4328	-771	-3270	-322	-14560	3488	-7264	-728	-2091	349	122	248	1
-9412	-3640	13084	-784	1390	-812	-15504	2776	-1900	-16962	4439	-3200	-15896	-532	472	-2754	15530	1890	-9480	2960	15624	530	-5184	2035	-7184	392	-5240	-728	-3811	-544	-12176	3232	-8704	-952	-1835	277	115	248	1
-9440	-3752	13036	-140	1242	-332	-16596	-2020	-1016	-16357	5295	-3535	-14628	-1624	1132	-8430	16181	1995	-8192	2992	12088	733	-5771	2097	-7736	1056	-4040	-204	-4383	-471	-10024	2880	-9144	-971	-1572	225	123	248	1
-9428	-3856	12952	-37	1168	-260	-16376	-4016	-252	-5924	5448	-3258	-15644	-6716	940	-7904	17208	1524	-7912	2616	9768	743	-5561	1802	-12704	1696	-3728	-634	-4960	-461	-9112	1576	-9696	-1162	-1286	174	120	231	1
-9328	-3956	12776	847	1019	757	-16268	-1380	-804	618	3843	-2296	-15068	-6076	1240	-5060	16969	3194	-12960	3392	12608	907	-5026	1481	-12672	3552	-7792	-1143	-5548	-422	-8336	-376	-9352	-1378	-826	-23	117	180	1
-9472	-3964	12788	1366	662	1259	-15912	56	-1072	-1440	5281	-1815	-14780	-4316	1640	-3673	16816	1314	-13896	3832	12984	946	-4963	1453	-15800	1360	-8656	-1317	-5604	-554	-6536	-2024	-9760	-1586	-315	-105	127	145	1
-9840	-3836	13024	1328	533	1859	-15936	-728	-1268	-5463	6493	-2165	-15480	-3800	868	-4405	17528	288	-23952	10296	23552	1394	-4412	1399	-21744	3512	-13120	-1453	-5939	-482	-5240	-5504	-8872	-1693	-207	-166	121	155	1
-9940	-3760	12888	1222	389	2264	-15788	-352	-156	-6230	7600	-2034	-15492	-3824	852	-4304	16371	1038	-26376	11672	26672	1223	-4445	1682	-25928	3088	-13768	-802	-6279	-471	-7856	-5392	-3800	-1497	-516	-290	129	173	1
-10140	-3528	13208	882	1095	2139	-15760	568	44	-2289	9408	-1872	-17432	-4372	1936	6	12594	791	-32768	9344	27864	1261	-4232	2062	-28640	1440	-14704	380	-6308	-312	-10528	-2096	2752	-889	-713	-148	129	184	1
-9616	-2888	13436	405	2165	1882	-17200	1416	-80	1980	10803	-1498	-18584	-1380	2968	1663	11972	719	-32768	3448	26728	1435	-4340	2538	-25448	8992	-15400	2007	-6017	-125	-12688	2408	7624	-344	-311	353	125	182	1
-9708	-2824	13796	-480	4313	1880	-17864	1572	-1224	3526	11566	-1614	-17624	136	2124	-799	11064	453	-32768	7008	10840	889	-5128	2587	-19224	13024	-19904	1260	-5249	193	-17872	6528	15176	121	70	820	127	137	1
-9240	-2492	13900	-1931	7128	1404	-17200	3392	-3404	2126	14354	-1857	-18980	-620	3728	-3169	10000	202	-32768	-13944	-15432	880	-4240	2133	-19632	2000	-20624	-289	-3375	733	-20736	1104	32767	-1584	-75	661	123	71	1
-9360	-1092	15176	-3708	11273	1027	-17932	3408	56	1540	16195	-2137	-18256	-992	4192	-5382	7412	412	-32768	-30520	-32736	3495	-2166	2676	-8200	-1232	-21408	1321	-1144	709	-18656	-4608	32767	-1552	-814	-565	123	92	1
-9328	-1800	13500	-4234	16530	1214	-18188	1088	-1928	4801	18491	-2175	-17712	-2212	2780	-4926	5520	1022	-32768	-10912	-32768	284	721	1270	-2960	9888	-20224	1193	1548	-203	-15160	10976	13824	-484	-1637	-835	123	103	1
-9760	-2792	14396	-4066	22341	1739	-20988	628	-2216	7019	20766	-1633	-19596	-7556	1172	-6360	4948	1435	4464	-23976	-21000	-1715	3694	-3081	-17448	24336	-17944	-2182	2969	-45	-11664	3232	4264	2613	104	35	125	139	1
-9276	-5640	13524	-2498	28806	4295	-25292	2696	-76	4670	22840	-2134	-22508	-6692	5016	-5537	1732	561	9408	-19456	-19008	-1836	3834	-3479	-32768	3584	20912	-5525	2879	861	-15080	11768	13928	1480	-953	1008	124	53	1
-10648	-5052	13544	-926	32767	8955	-30644	5628	1580	-1874	24968	-2966	-27588	-5088	15880	77	-6926	117	-29600	14048	19368	-1410	4274	-2015	-27224	-5168	-22632	-1009	2175	-282	-27936	21152	12896	-451	1062	1682	124	1	1
-16588	-6956	14804	2556	32767	14042	-32768	9956	10332	-4168	28442	-766	-24072	768	17136	-9219	-18513	-432	-15880	-4760	19024	-1333	1630	-1166	-14032	9168	-8336	-277	4666	-961	-18144	-12856	-23080	-1798	2240	-134	130	0	1
-32356	-276	21904	-3207	32767	12310	-30616	11464	3888	860	30987	403	-25596	5820	11064	-8114	-17784	6391	-4728	12632	7744	-1054	2210	-1078	-13232	1808	-9056	-774	1942	935	-3144	-10160	-10408	-54	1142	724	128	10	1
-32768	-7200	26536	-4725	32767	16282	-32768	-3492	404	-4113	31359	268	-25308	4588	-152	-6208	-22689	5303	-22600	-5816	23288	-1224	1112	-1065	-8544	9400	-17608	-1941	1699	296	-11200	3784	-8136	824	243	-251	134	51	1
-32768	-17780	23820	2446	32767	24144	-29144	-2548	-656	-3074	29125	-1814	-21872	1176	-13248	-7343	-21982	3129	-13136	8808	16064	-792	767	-734	-27672	-5784	-12000	-2298	2575	306	-29280	4656	-8760	-459	1349	748	122	27	1
-25248	-19568	28456	5469	32767	29444	-21800	-4032	-1056	-1984	22583	-3556	-25972	-2100	-8432	-13645	-25903	-3089	-9496	2840	14264	-325	310	-344	-17800	-3552	-7712	1714	899	949	-20168	-5168	-3464	305	1351	634	128	18	1
-15544	-11888	32767	4753	30370	23440	-12940	-6568	-13256	9837	18596	-223	-26680	-4444	-7196	-10702	-25883	-8829	-9864	3216	13632	-77	205	-135	-14088	5904	-6856	3208	372	942	-13384	2872	-600	1537	1453	70	115	35	1
-32768	-20008	32767	-7195	-16472	4245	-9136	-1236	-14840	13369	5978	1349	-29152	-8472	-3888	-9457	-27434	-8715	-8848	5312	12904	30	223	-63	-16176	10400	-2184	1841	580	558	-14240	10888	48	1121	1494	-63	115	47	1
1812	-14244	22412	-1389	-32057	344	-14428	5128	2852	-4500	-1726	935	-27396	-5288	-7344	2934	-23314	-5683	-9296	5232	12792	77	287	-47	-16736	10512	-2864	-318	712	401	-17576	6984	264	346	1507	18	129	54	1
4000	-6712	12848	1667	-31804	564	-8340	2460	-616	-2505	-8710	545	-23188	-440	-6548	2349	-22786	-6339	-9680	5488	12240	89	293	-58	-15624	6488	-3664	-1132	819	26	-15664	4800	280	370	1611	95	135	110	1
844	-5092	13144	-372	-32019	-2725	-2656	168	-3068	-3472	-15087	2332	-18708	-3412	-7556	857	-21436	-6667	-9480	5408	12112	93	248	-71	-16280	2288	-3384	-89	601	116	-15720	4792	376	384	1642	91	146	149	1
-5160	-6768	15548	-2292	-32768	-7127	-3160	-232	-4864	-6167	-20369	5615	-15056	-6284	-8376	3983	-18825	-5357	-9360	4880	12416	79	207	-87	-16024	2992	-2968	1284	320	397	-15568	2920	1712	480	1645	-69	146	194	1
-9612	-7200	15328	-1704	-32768	-12392	-4308	-2100	-7148	-4138	-26710	7950	-12544	-2568	-9032	9943	-14023	-4785	-9248	4600	12296	77	212	-94	-15912	6088	-1768	1367	287	416	-15600	2968	2624	456	1582	-189	130	170	1
-9428	-6744	11624	1066	-32768	-16051	-5988	-16	-4684	-2931	-32768	9263	-11740	-1676	-10192	12537	-9116	-4424	-9136	4688	12136	36	230	-116	-16104	7088	-1272	399	472	299	-15744	3560	2368	340	1563	-176	120	142	1
-10056	-5496	9408	3585	-32768	-17878	-7776	876	-4416	-2800	-32768	9907	-9772	-684	-11604	13250	-5168	-3352	-9232	4840	11888	-62	229	-158	-15288	6408	-2232	-217	637	160	-15208	4912	1816	258	1642	-113	126	124	1
-11180	-3680	10120	1896	-32768	-18753	-7740	548	-4188	-2660	-32768	10189	-6556	332	-11752	13332	-2202	-2245	-9600	4976	11800	-87	205	-199	-15224	6184	-2136	-225	642	149	-14752	4168	1264	390	1776	37	125	124	1
-13124	-2716	9776	-3356	-32768	-18753	-14008	396	-8164	1909	-32768	11194	-4912	3012	-12532	13875	-141	-879	-9568	4544	12128	-109	196	-218	-15448	4760	-2664	598	599	232	-15424	3720	1112	676	1878	81	124	119	1
-17596	-5420	15020	-7127	-32768	-17035	-15876	-632	-9560	5824	-32768	12088	-5164	4164	-11560	16242	1500	-539	-9792	4600	12208	-98	205	-208	-15136	5608	-3160	871	601	229	-14816	4552	1440	806	2084	-94	127	103	1
-32768	-8648	30632	-8973	-32768	-16222	-21388	1280	-16224	4312	-32768	12282	-5436	6808	-9252	17463	804	2128	-9712	4520	12200	-76	219	-187	-15304	5256	-2592	924	693	207	-15272	5336	1864	575	2193	-151	120	94	1
-32768	-9976	31860	-7285	-32768	-16830	-29208	3096	-15172	-3275	-32768	11675	-6868	6168	-4820	15431	-674	3561	-9632	4808	12056	-46	280	-146	-15208	5432	-2304	878	822	193	-14696	4672	2072	227	2023	-155	120	123	1
-32768	-5944	28712	-6740	-32768	-17718	-30260	4088	-16560	-20639	-32768	11438	-10676	4020	2328	8492	-3600	3021	-9824	4488	12200	48	427	-123	-15392	5512	-1904	856	855	194	-16136	2320	4864	-135	1883	-37	126	112	1
-32768	-884	17820	-10834	-32768	-18491	-25904	-3140	-15008	-32374	-32768	6083	-16736	-3244	9160	-13	-5807	-1640	-9432	4728	12104	94	555	-150	-15832	5392	248	619	1177	155	-17304	1576	6104	-178	1745	86	135	142	1
-32768	1968	-1760	-12049	-32768	-10898	-24672	-6616	-16844	-27889	-32768	-1363	-25004	-2524	20364	-1901	-4525	-4644	-9888	4664	12592	181	746	-174	-16400	5624	-144	302	1465	124	-17944	3376	7280	118	1443	58	124	143	1
-32768	21532	-24236	-24951	-29530	-8048	-15948	40	-22844	-24619	-20477	-6785	-26280	-1936	24040	-480	-4320	-4536	-9384	4176	12888	323	1042	-169	-17752	5136	-952	167	1790	41	-17464	4560	5968	413	1142	54	130	158	1
-32768	21764	-32768	-26069	-10855	-13377	-3720	-6648	-18404	-13114	4326	-4154	-20036	-2776	32076	-8364	-8287	-341	-9904	4936	12960	482	1532	-149	-18832	5440	-1744	122	2005	-63	-18784	5952	4512	533	799	3	145	149	1
-32768	2988	-31212	13872	15718	11062	-12320	-12160	-18820	5756	22144	664	-19392	-2112	27260	-8444	-8141	417	-9736	5760	13024	438	2210	-279	-21952	4808	-1952	55	2279	-65	-21776	5576	6936	705	374	-90	134	141	1
-32768	2560	2268	22212	23851	16585	-18444	-9496	-22640	30050	24393	-2897	-9656	-4336	-3220	-13817	5343	-4047	-9336	5048	13248	520	3044	-481	-24624	1464	-752	585	2482	-1	-21968	1848	15136	436	-682	-116	111	154	1
-5888	-32768	32767	21057	8518	1663	-22288	17964	31908	15221	13420	-262	824	-5932	-6324	8333	4623	-8934	-9536	7472	13688	471	4417	-737	-29552	2232	5408	1665	2730	29	-21664	216	23256	-380	-2508	-69	122	151	1
27384	16936	-20276	3545	32767	-240	-32232	25984	-5248	29130	11201	-4555	-21740	-14376	-13604	2144	3449	-12205	-13512	9424	15088	243	6180	-1522	-32768	3248	9784	1702	3124	-6	-24872	-6128	20584	-36	-2216	-405	132	141	1
-32768	20672	32767	1474	32767	3799	-11664	-8624	-17200	17955	17251	2200	-32768	-1316	21700	32767	-4673	-4983	-26640	9056	21568	271	7505	-2187	-32768	3408	4568	1818	3419	-10	-25440	-6480	19488	574	-2390	-909	139	155	1
-14732	-10732	18688	-451	18674	9080	-20732	12896	-8260	24763	16752	-10009	-20372	17076	-9544	21645	18023	1863	-32768	13624	29064	540	8087	-2583	-32768	10064	1024	2279	3315	-334	-22808	5008	6824	1478	-1940	-897	141	133	1
-21904	-11296	15272	6402	24431	8682	-17932	-104	-8640	11671	12337	-8014	-10480	16616	-5120	3048	22828	1330	-32768	20768	25368	5	6990	-3401	-23152	13680	648	1245	3174	-691	-24440	10440	-14992	1976	-1420	-403	141	129	1
-14836	-1236	15724	4607	5771	4853	-11632	-5964	-11164	6451	10399	-11330	-508	-11184	-18124	-32768	-5354	4239	-31824	25504	32767	37	5110	-3380	-17304	16672	-11616	-339	3345	-695	-26872	10768	-3744	1504	-2483	229	136	126	1
-14280	-112	16124	4458	1335	3384	-12124	-3836	-9504	3621	10354	-10905	-20968	-11568	-7124	-13925	12996	-9250	-29640	29352	32767	-1104	1778	-1831	-12000	13672	-14664	-3005	2485	-693	-31064	4264	-5048	234	-2367	599	109	128	1
-10452	-7528	12868	1733	228	1032	-17096	5436	-6388	-28118	10177	-4139	-22556	-4004	-5372	-13657	12099	-7453	4264	18368	26552	-1074	-1782	-119	-17176	1840	744	-2655	1130	-95	-31136	6432	-5256	-713	-2443	495	112	79	1
-9828	-3292	13812	194	386	-280	-19076	-4676	-4160	-22161	8561	-5491	-18372	-4708	-2536	-13753	14003	624	5688	9720	17296	-956	-2173	148	-12432	-4312	920	-624	-389	-35	-21616	760	-9112	-665	-2718	506	109	99	1
-9648	-3816	13500	-529	1201	-515	-17452	-6600	-2608	-31	5404	-4203	-14020	-9688	-364	-10714	15651	1614	2816	10344	16480	-564	-2967	594	-4496	168	-3848	797	-1333	-548	-20768	1608	-5352	-356	-2394	157	120	134	1
-9360	-3920	13200	-805	1730	-705	-17608	-1120	-2504	11681	2187	-3126	-13808	-7780	-1360	-3972	12723	6191	-512	10296	15304	-509	-3775	905	-4232	3936	-2888	1114	-2298	-585	-16816	5272	-7128	-183	-2229	202	115	156	1
-9464	-4436	12936	-701	2172	-246	-16228	3300	-2228	4338	2983	-2093	-15664	-4200	-448	721	12150	4086	-4920	8936	14808	-472	-4617	1203	-4600	6328	-4888	382	-3114	-484	-15272	2832	-7920	-711	-2104	297	112	207	1
-9416	-5460	12520	422	2151	801	-16164	1904	-1856	-10910	4562	-2558	-16488	-3888	-580	1104	13862	749	-7912	6824	12720	-236	-5397	1510	-5936	3744	-4792	-328	-3706	-652	-12904	2304	-8696	-883	-1858	381	120	240	1
-10188	-3936	12860	1047	2012	1392	-16584	-1128	-2868	-13605	5271	-3593	-16140	-1912	4	-821	15218	-202	-8968	5408	10800	100	-5897	1713	-6856	2312	-4008	-342	-4252	-592	-10384	2320	-10040	-875	-1546	368	120	210	1
-10164	-3584	12948	740	2394	1040	-16508	-1892	-2556	-6760	4972	-2169	-14828	-1868	972	-4479	16304	943	-7856	5112	7928	429	-5940	1637	-9088	1920	-3760	-472	-4851	-542	-8328	1632	-9568	-533	-1184	255	119	208	1
-10024	-3940	12896	79	2748	630	-16648	328	-2576	-2033	4519	-1543	-15764	-2876	832	-5507	17874	980	-10408	5344	8392	735	-5341	1357	-13920	5960	-6856	-817	-5532	-326	-9312	-248	-9704	-666	-793	111	105	189	1
-10048	-3660	12848	-712	2913	354	-15460	1112	-2576	-3846	5152	-1732	-14964	-1336	916	-8948	18623	2724	-15056	7848	12456	935	-4659	1176	-13280	1864	-8600	-1677	-5598	-479	-8280	-1296	-10184	-905	-331	23	117	187	1
-10080	-4164	12524	-1167	3153	418	-16136	1048	-1576	-6961	6135	-1610	-15556	-2432	116	-8218	18008	2335	-24208	11000	22792	1363	-4467	1357	-20472	3520	-13368	-1711	-5830	-311	-6760	-4264	-9976	-1557	-62	-50	124	199	1
-10120	-4072	12504	-1271	3327	675	-15436	-164	-1088	-6340	6948	-2357	-15556	-4560	-1520	-5832	14918	1528	-26808	14544	25528	1163	-4690	1820	-25000	3728	-12768	-1321	-6171	-342	-6840	-4800	-9888	-1735	-75	-120	121	194	1
-10452	-3964	12332	-1514	3470	713	-15092	-1016	-1832	-3233	7799	-1939	-14576	-3292	488	-3052	12061	884	-29416	9968	27480	1030	-4390	2341	-28216	2960	-14648	-303	-6438	-408	-9344	-1576	-1632	-959	-593	-296	125	201	1
-10460	-3780	12428	-1544	3574	719	-16148	-188	-1344	-545	8512	-1423	-14672	-3088	444	-3062	11988	825	-32768	5176	28608	1448	-4105	2788	-29960	4552	-15672	1071	-6335	-285	-12392	4208	6008	-574	-826	283	129	201	1
-10292	-4428	12012	-1971	5034	1046	-17248	368	-784	827	9246	-1477	-18300	-3620	2376	-888	11608	755	-32768	6072	20704	1058	-4832	2798	-21728	13720	-18672	2345	-5750	-26	-15904	6128	11400	-346	-558	955	128	179	1
-10252	-3956	12580	-2709	7016	1249	-17204	1412	56	1816	11132	-1599	-18580	-5128	4176	818	10317	683	-32768	-3456	-9712	215	-4960	1952	-17072	6328	-20552	236	-4264	664	-20776	4640	28040	-1367	257	1033	129	120	1
-10208	-3928	12536	-3209	9969	1368	-17812	2268	140	3283	13322	-1756	-18420	-2496	4824	484	9113	1072	-32768	-32768	-30296	3269	-2809	2072	-13720	-2776	-21136	474	-2009	1072	-19408	-1896	32767	-2265	-985	-214	123	85	1
-10648	-2932	12592	-3655	13742	1077	-17900	2688	-1396	5719	15749	-1729	-17260	1580	2704	-507	7157	1083	-32768	-14776	-32768	2356	-365	1712	-2520	5992	-20080	1784	845	-14	-21088	-5088	28024	-65	-1397	-999	121	106	1
-10392	-3312	13096	-3852	18338	443	-17980	2404	-1556	6138	16031	-1648	-19352	-4044	884	-4611	5775	2493	-32768	-9608	-14896	-2898	2418	-1486	-12632	16312	-18352	-488	2969	-75	-11600	2752	5304	2521	-223	-448	119	139	1
-10440	-6152	11928	-4343	24078	1878	-23532	2452	492	5612	19636	-1289	-22932	-5720	3540	-7591	4352	1373	-32768	-5104	9768	-2176	2278	-1542	-10168	5744	-22512	-3015	3448	-335	-4488	10264	-1712	1662	859	785	121	152	1
-9588	-6432	11172	-4439	32419	5929	-24168	5216	3268	-471	22268	-2822	-22728	32	10844	-3497	-1023	-102	32767	32767	29032	-176	767	-665	-23544	-5016	32767	-1859	3215	-164	1056	13136	-17352	-254	2524	889	124	100	1
-8788	-5420	12712	-3623	32767	9728	-27928	7484	4840	-6400	25339	-2927	-24928	4576	27336	-11490	-21871	-553	-3544	1152	-11376	-419	5866	-2134	-32768	-384	-19904	-194	511	1690	-32768	-80	4912	-669	665	693	132	60	1
-19188	-6852	14192	-4549	32767	10889	-32768	12984	6908	-7095	28174	-929	-21272	6812	15464	-19115	-16862	1571	-32768	-800	32767	-472	2819	-538	-5744	8984	-15768	-328	3394	-1686	-19992	-2544	23688	-2486	3	785	133	30	1
-32768	-7960	17860	-9949	32767	9288	-28664	4468	104	-2634	31066	800	-23800	-4536	8748	-24274	-16810	3895	-5136	7864	12016	-289	1881	-875	-10480	10736	-13608	-705	3733	-1957	-14232	-8696	-17688	-767	2868	696	130	0	1
-32768	-13392	19484	-7328	32767	17282	-32768	-5196	-1476	43	30727	-1478	-25964	-2276	-7200	-8108	-17711	1867	-21848	13464	17688	-1108	1932	-1338	-7872	6928	-11048	-451	1341	921	-12072	-9200	-16936	-117	2618	784	127	83	1
-32768	-19224	19272	-4088	32767	23620	-26528	-5380	3056	674	27820	-2958	-24524	-6024	-10660	-3559	-24045	1330	-12352	5160	16120	-988	804	-1026	-10120	8672	-10872	-698	1854	668	-16136	16192	-7864	1039	888	60	117	82	1
-32768	-21448	32708	-3980	32767	24491	-20196	-4256	-13560	2128	23817	-2977	-24164	-5116	-8404	-3070	-26453	-3810	-10920	3768	13848	-850	361	-698	-26904	1904	-7000	165	1555	650	-27520	8184	-6648	-124	1444	1378	117	51	1
-22724	-7976	32767	-5407	8920	15294	-15512	-7476	-17200	12126	15542	2015	-28584	-6156	-7684	2000	-25788	-8012	-10936	5728	13408	-673	189	-533	-17008	3528	-6144	1707	655	706	-16168	-3376	-104	379	1463	522	119	0	1
-10156	-17984	32767	-1676	-29859	3190	-12844	284	-4088	3973	2821	2344	-31280	-2264	-4748	1169	-25266	-6553	-9880	3000	14048	-342	175	-318	-14848	2640	-4960	1347	519	392	-14816	-368	128	1143	1629	-234	117	29	1
3568	-9376	16348	5416	-32768	4440	-12580	2068	3036	-331	-4295	1930	-27436	920	-6976	5458	-24171	-5591	-9608	4800	12776	-153	242	-202	-17888	7192	-3560	787	754	448	-17160	6744	-760	1246	1274	-119	139	82	1
2340	-5216	14408	3551	-32768	4625	-5724	1840	-1292	1645	-11701	1776	-20800	-952	-6936	1635	-22571	-6279	-8776	6024	12160	-146	275	-217	-16464	9488	-3152	-454	553	440	-16144	7144	-1304	957	1379	87	139	110	1
-1756	-6456	14252	-820	-32768	1622	-2208	1080	-3708	-6313	-17187	3964	-16264	-4028	-7664	1165	-19415	-6112	-9800	6296	11912	-172	263	-287	-15672	6752	-3560	-512	548	171	-16792	8520	-1256	516	1607	127	133	129	1
-8180	-8600	14772	-3119	-32768	-3426	-3764	-1236	-5704	-10561	-22962	6251	-12988	-3612	-8680	6020	-15989	-5512	-10032	5320	12240	-169	201	-300	-16632	2912	-3512	593	330	277	-15320	6760	24	-214	1656	84	139	155	1
-11088	-10120	12764	-1199	-32768	-9019	-5676	-2088	-5876	-8864	-29011	7090	-12052	-1048	-9688	7742	-11455	-5278	-10312	3840	12152	-126	177	-245	-16224	3480	-3568	1434	132	394	-15024	1176	664	-266	1663	-79	124	138	1
-10996	-9632	9260	3084	-32768	-13071	-7916	-340	-5032	-6861	-32768	7798	-10976	-1052	-10756	7815	-6740	-4504	-10088	4320	12544	-110	180	-225	-14776	7056	-2752	888	270	303	-15064	1096	616	107	1741	-188	128	107	1
-9952	-6512	7260	3122	-32768	-16035	-8528	-432	-3556	-2858	-32768	9041	-8900	-460	-10472	7833	-2969	-3554	-10008	4320	12192	16	192	-122	-14816	6160	-3072	-23	524	159	-14992	2232	1256	373	1932	-136	123	95	1
-11600	-4556	7212	-2865	-32768	-18579	-13228	884	-5880	1503	-32768	8651	-7024	1200	-11432	12561	-1191	-2297	-9920	4512	11712	23	138	-45	-14824	4000	-2904	232	563	184	-13840	3688	1096	956	2087	-10	121	96	1
-16280	-7152	11008	-6891	-32768	-20072	-14416	-824	-10452	6500	-32768	9585	-6460	2444	-11732	18121	-449	-2071	-9792	4584	11944	7	93	-50	-15024	4192	-2784	937	483	246	-15024	5176	1312	1075	2106	28	129	108	1
-28652	-8940	23920	-8340	-32768	-21113	-18288	1872	-14540	7215	-32768	10261	-5604	6184	-10592	19907	-1256	504	-9816	4528	12184	-16	95	-61	-15400	5888	-2808	1186	494	288	-15176	5168	888	687	2121	-60	125	113	1
-32768	-11400	29796	-5810	-32768	-23307	-23632	3000	-15444	-486	-32768	9687	-5928	6864	-6172	17004	-2468	2358	-9688	4344	11960	15	101	-63	-15784	5896	-1384	1041	578	260	-15520	4352	2776	261	1967	-15	122	110	1
-32768	-8360	28652	-2435	-32768	-23893	-28612	3092	-15936	-12507	-32768	10787	-7816	4020	-1044	8823	-4569	2410	-9448	4776	12096	43	174	-76	-15568	5888	728	948	756	225	-16512	3176	6336	-86	1649	21	125	116	1
-32768	-4016	22496	-3268	-32768	-23437	-25592	-556	-14200	-25018	-32768	9556	-11148	-3064	2248	1763	-5440	-1239	-9056	5384	12096	43	264	-147	-15584	6160	2848	646	1063	185	-18048	2912	8968	-367	1510	130	122	114	1
-32768	-5268	7564	-2010	-32768	-15850	-25040	-7704	-16532	-19548	-32768	3552	-16484	-4728	5388	-147	-2714	-3330	-9080	5192	12016	56	427	-222	-15840	6536	2200	244	1437	141	-18400	4688	9840	-217	1364	91	133	135	1
-32768	9184	-11320	-10818	-32768	-9623	-22776	300	-22008	-14047	-32455	-3451	-24948	-1544	32767	12956	-6813	-3351	-9552	4832	12224	143	682	-255	-16952	5528	856	98	1825	71	-17560	4768	7936	308	1146	41	143	126	1
-32768	22660	-31012	-28691	-21219	-16152	-11272	3036	-23648	-19503	-12420	-4743	-25544	136	32767	6360	-7389	-2539	-9456	4256	12968	334	1123	-245	-18504	5496	-992	-137	2118	-39	-17888	3016	4600	406	839	126	130	128	1
-32768	11468	-32768	-8200	316	-8389	-4340	-8240	-20436	-9309	10475	-2869	-21160	2744	23000	-6321	-5694	2285	-9184	4112	13848	540	1798	-253	-20592	4880	-3088	-298	2356	-81	-20304	4160	3632	770	564	-7	125	108	1
-32768	8100	-18676	19313	19069	14761	-16744	-12732	-19168	10979	25056	887	-16152	-4212	7416	-13144	-1029	-612	-9448	4968	14032	572	2630	-379	-24152	1944	-1536	-7	2570	-1	-22032	2864	5584	1093	138	-77	114	120	1
-28588	-26400	32767	19995	18307	13337	-24100	-1888	14936	14457	18191	-1833	-9988	-5172	-4900	-12147	5909	-4202	-8216	6392	14136	513	3739	-620	-26416	1880	-1664	771	2636	136	-23248	2080	16880	634	-1162	-54	119	130	1
10424	4460	-1812	5299	32341	8483	-32768	23564	-1760	32767	11802	-5984	-16452	-4972	8328	6251	-7714	-8989	-10824	9408	14400	428	5402	-1031	-32768	5408	10312	2006	2948	99	-27128	5128	28608	-783	-3122	140	133	145	1
-32768	13580	32767	2583	32767	4434	-15112	7484	-19292	18894	19041	851	-32404	-15040	9024	12349	-5528	-14393	-18464	11336	17984	32	7230	-2025	-32768	4032	7312	1184	3176	26	-24032	-7200	18232	-264	-2081	-491	146	162	1
-10996	3204	17880	723	16224	10305	-19764	4596	-7292	6343	21666	-5485	-18304	12332	-9172	23302	11866	2694	-30576	11472	23376	227	8055	-2416	-32768	6384	4416	1743	3575	-113	-25416	-6368	18096	-35	-2553	-917	146	169	1
-14052	-18504	10756	2301	20596	5851	-14636	-2368	-8756	11856	15060	-6199	-10844	17292	-9568	5802	17934	1356	-32768	16224	28048	462	7754	-2936	-28736	10544	-1648	1790	3169	-215	-16176	7560	-3744	1501	-1710	-1111	159	134	1
-17484	1996	19288	3157	10652	5185	-13152	-7764	-11376	18110	10468	-8174	-7156	-13064	-18208	-19307	2684	5973	-32768	16880	26280	543	6814	-3237	-19952	8464	-584	359	3097	-186	-25296	9720	-5400	2690	-2156	-235	129	131	1
-13204	-12444	12692	4709	4384	4880	-19520	2816	-10000	9011	8706	-6612	-16972	-7648	-5516	-1076	10661	-5334	-26832	31984	32767	113	4202	-2522	-13016	14232	-12584	-258	2736	-530	-27016	5464	-3968	1490	-2462	502	139	144	1
-11896	1800	17728	2889	1742	2718	-15096	7424	-7616	-13393	9717	-5645	-20848	-2360	-6368	-5314	11393	-6808	-21048	32767	32767	-218	-846	-150	-12944	3800	-8816	-2310	1919	-378	-30160	5704	-4504	366	-2526	505	116	90	1
-10224	-5972	13372	1330	1553	1124	-17572	1648	-5940	-27845	10516	-4493	-17792	-2848	-2560	-8733	13348	-3073	6616	12200	22720	-819	-2455	308	-17488	-2112	4600	-583	277	601	-28984	4512	-4824	-317	-2484	382	102	46	1
-9340	-3036	14272	-31	1713	122	-18028	-5908	-3528	-11632	7654	-4568	-15528	-4624	-92	-11469	14639	229	4304	6424	18072	-292	-2951	541	-8856	-2600	-344	190	-1082	-27	-23736	2680	-4408	-165	-2407	202	118	63	1
-9884	-4788	13292	-268	1997	-228	-17720	-3232	-4064	6110	4430	-3263	-15236	-7300	-1124	-9440	15175	2934	1376	9416	17536	-29	-3702	832	-5496	1752	-3088	744	-1899	-445	-17864	2768	-5544	42	-2408	209	107	187	1
-9232	-4808	12948	-305	2199	-285	-16708	1036	-3648	10517	2511	-2647	-14092	-5716	-1876	-3535	13777	3747	-1768	9240	16208	-359	-4477	939	-6696	4064	-2368	551	-2789	-328	-16192	5648	-6056	-14	-2261	206	122	195	1
-9528	-4932	12844	26	2144	-10	-15436	3856	-3356	-1757	3477	-2208	-15304	-4200	-1512	-1943	14599	2627	-5648	6760	15024	-420	-5094	1102	-6792	4360	-3816	-161	-3525	-429	-13512	3360	-7720	-583	-2088	252	112	249	1
-9120	-5336	12368	947	1957	780	-15940	388	-2400	-13397	4615	-2672	-16484	-2332	-580	-1651	16851	1170	-8376	4824	13120	25	-5640	1394	-7736	1632	-4064	-339	-4049	-563	-11056	2376	-8816	-752	-1817	272	121	249	1
-9504	-4836	12676	1750	1891	1586	-17012	-1332	-1756	-11506	4370	-3406	-15316	-1600	300	-4795	18492	1220	-8024	4952	10288	365	-5861	1498	-8672	1680	-3896	-36	-4619	-494	-9040	2640	-9432	-661	-1409	183	140	246	1
-9880	-4020	12948	1610	1941	1558	-17124	-1692	-2152	-3146	3564	-2556	-15620	-3956	1356	-4848	19196	1407	-10248	5928	11408	567	-5585	1365	-12016	2944	-4936	-487	-5227	-446	-8440	1880	-10152	-662	-981	107	130	225	1
-10044	-4092	12616	1422	1990	1524	-16188	676	-2388	-983	3866	-2374	-15460	-3644	976	-4434	19885	3072	-13872	6880	12760	855	-5253	1256	-14672	5416	-7920	-943	-5712	-336	-7848	680	-9888	-965	-496	-3	117	214	1
-10088	-3948	12808	1034	2047	1298	-15608	1724	-2636	-6017	5369	-2401	-15024	-3252	440	-6171	19849	3021	-18760	9056	16928	1211	-4633	1187	-17488	2096	-9488	-1470	-5958	-368	-7272	-1200	-9968	-1377	-39	-42	125	217	1
-9604	-3996	12764	337	2441	1105	-16272	-356	-1736	-8696	6797	-2370	-15260	-3988	-720	-5852	18471	1797	-25856	13888	24344	1318	-4546	1305	-22800	5848	-12360	-1393	-6161	-236	-6368	-5632	-9104	-1853	-23	-112	127	225	1
-9932	-4040	12592	-499	3307	1148	-16480	-276	-556	-6637	7760	-2132	-16096	-3344	92	-4162	15250	1431	-28496	13552	27360	1131	-4427	1641	-28616	4840	-13176	-1186	-6409	-200	-7936	-6160	-3808	-1636	-389	-191	123	207	1
-9796	-4072	12748	-1568	4536	1004	-16212	324	-220	-3994	8932	-1624	-17504	-2056	1524	-2267	12836	901	-32768	8984	29448	1454	-4108	2286	-32056	360	-17728	217	-6273	-316	-13200	-2056	5736	-1140	-1136	-122	127	194	1
-9656	-4236	12588	-2473	6288	932	-16860	432	528	-2927	10554	-1295	-18932	-1360	4352	-1272	11735	705	-32768	736	24672	2108	-4736	3110	-22672	8832	-20800	3267	-5980	209	-15744	3824	15328	-554	-1006	637	131	176	1
-9708	-4316	12700	-3529	8671	1132	-17476	824	1836	-317	12918	-1111	-18848	-3896	5604	-2148	10655	330	-32768	-2104	-2912	1703	-5397	2725	-16312	11424	-21424	2265	-4877	876	-19664	5144	19576	493	247	768	127	104	1
-9980	-4404	12668	-4779	11316	1131	-17768	1112	488	1853	15147	-1172	-18688	-3540	5024	-4958	9283	583	-32768	-29536	-27192	2396	-3577	1590	-15056	3136	-21792	996	-2616	1304	-19944	-584	32767	-623	-895	272	124	102	1
-10476	-3632	12572	-5708	15170	1059	-19000	3388	-1176	3754	17415	-1092	-17928	-448	2764	-6371	7424	504	-32768	-23024	-32768	3401	-1497	1892	-2616	4664	-19736	1551	269	353	-20872	2184	31464	471	-1315	-480	120	152	1
-10368	-3184	12724	-6360	20802	867	-19736	3868	-1576	4725	19576	-647	-19628	-2696	1896	-6100	6174	1319	-32768	-15416	-32768	-2700	2618	-1151	-10144	16240	-17288	-61	3194	-386	-14120	4456	7360	1862	-167	-223	115	134	1
-10816	-5200	13140	-7228	27548	1423	-23256	3080	428	4901	21701	-725	-22576	-4816	5068	-6822	3462	1833	-29880	2056	30072	-4019	4618	-3999	-19776	24536	18712	-2198	3199	333	-11536	12576	960	1406	421	766	117	116	1
-9680	-6600	12244	-8373	32767	4013	-23920	3324	932	4559	22129	-813	-25436	-3900	17096	-4343	-7631	329	-26992	-19016	16416	-313	3540	-1753	-32768	-10088	-21584	-5172	2109	632	-18808	17744	20424	-1439	477	1968	124	55	1
-14132	-8204	13812	-7413	32767	8815	-32768	9232	10924	-3374	28178	582	-23652	-628	21968	-14616	-19053	-201	-32768	-5400	32767	-1043	2983	-1388	-11944	-5136	-17544	-2576	4727	-1960	-30120	1904	-13056	-2358	2171	-114	134	0	1
-26860	-10016	18436	-9209	32767	10801	-32640	6704	6500	-1389	31199	3562	-24516	-1424	9608	-11088	-17594	3598	-2032	17864	5744	-1229	2227	-1286	-17256	2176	-6400	-1623	3552	248	-12944	-17528	-18872	-2338	1252	942	133	0	1
-31720	-14676	19108	-7984	32767	17898	-32768	-2504	-468	2913	31616	968	-27784	3452	2776	-5615	-23451	4765	-26936	-9456	26632	-1678	1640	-1493	-17280	2488	-6680	-1449	2955	684	-6448	1376	-10480	1866	639	-401	136	49	1
-32768	-22408	18788	-3721	32767	27212	-30584	-6292	216	1450	30445	-1257	-22820	-1544	-13096	-1619	-22026	2312	-10680	14552	11768	-1232	407	-876	-18408	-592	-13032	-1996	2767	567	-21328	9128	-9832	647	865	291	132	45	1
-32768	-26768	32352	4012	32767	32767	-21688	-6044	-8528	8513	26502	-4261	-24324	-3048	-8180	-8280	-26089	-2398	-9656	1848	13592	-465	14	-361	-26608	-5640	-8960	542	1485	756	-25824	720	-7392	155	1299	1185	115	15	1
-2468	-13928	32767	927	28189	22224	-17492	-6200	-12692	12810	19548	973	-27376	-6224	-6900	-7810	-25812	-8315	-9968	2880	13264	-244	-24	-208	-13296	2824	-9168	3820	504	1027	-15768	-1560	-3000	1436	1514	459	120	0	1
-32768	-25652	32767	-6498	-17987	7458	-12612	-596	-12660	15640	7527	2720	-29620	-8236	-7988	3328	-24575	-10319	-8448	4208	13208	-127	1	-92	-16112	9512	-3144	2653	465	510	-13488	5816	-912	1616	1610	-140	114	18	1
2176	-14660	23544	-90	-32496	4777	-13800	3464	3240	-2153	-1797	1917	-26028	-3236	-10352	3932	-22264	-7620	-8736	4224	12920	-129	72	-95	-16960	11256	-3384	162	668	495	-16224	9024	-1000	851	1604	-259	125	7	1
2104	-7876	16112	2364	-32768	5855	-8272	2656	76	349	-8674	1193	-22612	-448	-6612	4260	-22834	-6174	-9272	4968	12368	-69	133	-99	-15632	8232	-4296	-1408	821	182	-16752	5528	-488	438	1665	69	136	91	1
-1000	-7204	15328	810	-32768	2960	-3144	952	-3820	-5789	-14708	2996	-18116	-2248	-7024	1369	-21022	-6487	-8872	5040	12464	-50	133	-117	-16184	2456	-3288	-952	757	66	-15848	3280	232	569	1762	96	131	106	1
-3608	-7324	13628	-1092	-32768	-1241	-4416	524	-3184	-11653	-20787	5761	-14420	-5508	-8228	2999	-17877	-5860	-9096	4616	12384	-89	109	-158	-16776	1480	-3200	1145	415	286	-16104	4864	1008	734	1792	-15	148	92	1
-7344	-8120	12312	-1304	-32768	-6256	-5892	-1576	-5124	-9021	-27126	7774	-13032	-2972	-8924	9228	-13810	-5422	-9112	4296	12544	-98	80	-170	-16056	5792	-2184	1943	212	525	-15240	5368	1472	400	1836	-228	138	141	1
-10828	-8896	12212	2308	-32768	-9644	-7012	-688	-5708	-6514	-32596	8732	-11636	-1028	-10176	11165	-9255	-5246	-9216	3880	12728	-61	113	-147	-14912	7656	-1632	929	354	308	-15024	4032	2160	99	1778	-254	123	104	1
-11748	-7072	11388	4834	-32768	-12290	-7892	-132	-5504	-3868	-32768	9383	-9040	-1452	-11436	11928	-5378	-4181	-9168	4424	12656	-63	119	-136	-14864	7968	-1552	-378	727	146	-14680	3704	2232	81	1892	-213	124	118	1
-12660	-4584	11316	1782	-32768	-15114	-9432	860	-5256	-1129	-32768	10536	-6708	1152	-11400	11223	-2251	-2931	-9328	4008	12440	-80	75	-152	-15296	5232	-2224	-490	817	70	-14608	2864	2456	588	2012	-9	126	127	1
-14748	-4368	11552	-5309	-32768	-17672	-14896	1552	-8084	1653	-32768	9775	-5420	3288	-12080	13961	-1024	-2122	-9144	4304	12416	-88	53	-176	-15168	4320	-2752	222	667	171	-14584	3944	3392	1060	2119	-5	126	129	1
-18896	-6652	14408	-9858	-32768	-19276	-17672	-484	-11016	5153	-32768	9690	-6068	4780	-11348	17145	495	-816	-9408	4408	12544	-86	80	-211	-15672	5064	-2352	703	680	246	-15880	5432	2352	792	2293	-101	125	132	1
-32768	-8452	27436	-12081	-32768	-21082	-19580	4836	-16380	4898	-32768	10308	-6224	9380	-9444	16762	1006	2768	-8872	4056	12744	-53	142	-250	-15864	4832	-2112	823	719	251	-16168	5536	1080	310	2270	-115	123	136	1
-32768	-12620	30952	-8581	-32768	-22854	-28668	3708	-16364	-5357	-32768	9623	-7208	9456	-3328	13063	-2431	5714	-8960	3832	12464	11	278	-272	-16464	5168	-984	714	851	240	-16936	4104	1592	6	1893	-75	120	123	1
-32768	-4908	25544	-3501	-32768	-24887	-29356	1516	-16028	-21771	-32768	10350	-9708	632	2584	9971	-7823	4550	-9128	3992	12696	88	494	-253	-16296	5632	-56	433	1130	174	-17784	3024	5408	-437	1674	89	127	121	1
-32768	-560	14628	-5587	-32768	-23468	-22692	-4116	-16872	-26000	-32768	5000	-15288	-7344	4232	-619	-6253	-1973	-9232	3600	13184	134	715	-305	-16488	5424	-120	402	1175	167	-17912	1768	8344	-315	1564	137	127	124	1
-32768	5120	-2852	-6317	-32768	-13710	-26052	-6412	-18968	-18568	-32768	-980	-23680	-3716	22836	4455	-5645	-4646	-9128	3912	13336	163	1059	-326	-17200	5448	384	379	1659	188	-18032	2224	8320	196	1196	-2	136	124	1
-32768	19404	-25236	-19014	-27944	-12935	-16256	44	-25368	-17360	-18852	-3788	-28464	-2936	32767	7023	-8457	-3817	-9120	3672	13984	109	1555	-416	-19112	6080	280	114	2057	118	-18896	4576	6936	386	819	78	137	128	1
-32768	20672	-32768	-16878	-8533	-11446	-4080	-5664	-20396	-7373	2969	-3433	-21228	2528	30644	-4280	-4825	287	-9488	3256	14104	-28	2113	-470	-20208	5080	-1496	-53	2387	61	-19480	5848	6816	520	445	78	138	139	1
-32768	6440	-27576	8998	13797	8289	-11340	-10748	-21888	4180	21605	267	-16848	-2068	10812	-9640	-2245	2157	-8928	3992	13808	-101	2886	-624	-23464	3688	-344	169	2680	123	-21048	4696	9664	783	-89	-17	127	133	1
-25588	-11772	10868	16862	24873	16719	-24240	-12268	-1640	12827	22345	-2246	-11656	-4112	-2628	-16582	3801	-2302	-8072	3416	13856	26	4211	-943	-27776	2448	-1640	747	2852	250	-23520	3368	23208	270	-1771	-63	120	151	1
-916	-16252	14668	6147	32111	13337	-32768	22512	-1848	32767	13403	-5605	-11932	-8036	5964	6149	-5252	-8977	-12024	9960	16104	20	6194	-1238	-32768	-1992	10600	2915	3209	306	-21640	-5192	19120	393	-2263	-215	128	132	1
-32768	11924	32767	2065	32767	3086	-32768	25316	-12316	32767	14686	-6421	-31700	-16896	7788	7861	-4838	-11853	-25640	7920	26176	-67	7862	-1898	-32768	3152	7032	3381	3127	264	-28656	-13784	23584	55	-2781	-890	136	151	1
-6696	3712	15100	468	19569	9458	-18428	2612	-7184	2266	24030	-3247	-18716	11020	-12584	27763	10567	3870	-30784	10824	31072	420	8432	-2304	-32768	12304	1808	3269	3363	-127	-21552	-880	96	1707	-1870	-1216	136	149	1
-21600	-21432	13336	3497	23656	7608	-13984	-4884	-13200	14803	15193	-5358	-10400	21928	-12452	6297	13701	-517	-32768	17264	26112	-220	7483	-3277	-24736	12064	2280	1332	3020	-489	-26192	6840	-11560	3276	-1714	-673	143	120	1
-13828	3404	17472	4931	6222	5162	-15160	-8896	-14140	25672	8705	-9796	-8196	-12124	-16836	-25184	901	5370	-32768	25432	32767	-301	5606	-3484	-15040	15744	-15696	350	2908	-516	-25512	11016	-7720	2372	-2297	-53	137	111	1
-14556	-8872	14456	4897	3726	4465	-21604	7748	-10332	4184	8386	-6435	-19724	-12296	-8812	-7338	13069	-5515	-19968	26520	32767	-1071	1849	-1856	-12048	12424	-22080	-2812	2326	-593	-31632	6448	-5216	934	-2461	622	132	141	1
-11128	-3196	15148	2005	1435	1952	-13088	5096	-7128	-23144	10528	-4333	-21980	-12024	-9216	-6798	13382	-6365	7496	19064	25984	-427	-2217	407	-17560	1664	2320	-2136	1154	60	-30872	6416	-5072	-461	-2418	659	98	124	1
-10744	-2328	14832	140	1089	-12	-18828	-2036	-6200	-25271	9544	-4250	-15588	-2896	-2456	-8064	14203	-1357	6336	9152	16336	-618	-2370	650	-14792	-3448	1792	-645	-590	283	-27192	2432	-5256	-547	-2453	473	114	89	1
-9496	-5160	13164	-732	1438	-596	-18736	-5828	-3812	-6735	6293	-3777	-16280	-5212	-1404	-9321	16259	1251	2336	8624	15752	-245	-2812	1035	-5744	-224	-2896	532	-1369	-434	-19784	2048	-4624	-240	-2501	315	121	110	1
-9476	-4196	13260	-1307	1640	-1149	-17212	-1916	-3784	10720	2143	-2643	-15024	-5924	-2060	-6503	15337	3637	-2432	9480	16984	-141	-3700	1366	-5104	4360	-3696	653	-2313	-473	-17136	7008	-6128	-246	-2310	237	110	160	1
-9592	-4720	12812	-1346	1631	-1230	-16184	3432	-3932	6894	1678	-1758	-14664	-3208	-1872	-3411	14756	3643	-5576	7544	15424	-242	-4560	1619	-5864	5952	-4288	-39	-3046	-421	-14288	2208	-7248	-901	-2162	355	120	197	1
-9396	-4980	12716	-703	1275	-734	-14912	3380	-2824	-9025	3406	-1708	-15588	-1788	-1296	-2905	16665	1743	-7736	5264	12952	-94	-5270	1823	-6728	2800	-3944	-505	-3620	-586	-11800	2320	-7624	-1184	-1956	403	113	216	1
-9248	-5016	12328	460	893	137	-15628	40	-2072	-16652	4289	-3072	-15512	-1084	-352	-5190	18398	1288	-7392	3656	10056	207	-5596	1862	-7888	1456	-3336	-320	-4130	-556	-10448	2128	-9072	-1112	-1741	334	133	236	1
-8944	-4544	12696	1096	854	747	-16568	-2100	-1136	-11357	3758	-3028	-14004	-2664	752	-9445	19304	1734	-7360	3752	8616	488	-5409	1635	-9344	2400	-3912	-489	-4789	-514	-8688	1672	-9072	-821	-1410	242	122	214	1
-9080	-5004	12548	1713	894	1294	-17164	-2396	-1400	-2488	2667	-2156	-14912	-5596	1584	-10944	18803	2843	-11048	5240	10480	698	-5062	1299	-12408	4576	-6632	-918	-5289	-443	-7832	-48	-9584	-989	-1002	149	117	196	1
-9368	-4348	12764	2445	556	1849	-16200	-644	-1544	-673	2823	-1449	-15404	-5464	2336	-8424	19984	3613	-13568	6768	11696	854	-4560	977	-12856	2336	-8224	-1567	-5574	-330	-7088	-2032	-9448	-1330	-603	-65	112	178	1
-9228	-4656	12608	2976	427	2432	-15524	1984	636	-7918	4982	-1898	-16284	-4728	1592	-4610	20142	1900	-21432	8560	19984	1468	-4178	1025	-18824	2264	-11824	-1533	-5795	-181	-6424	-4504	-9888	-1694	-289	-191	132	187	1
-9336	-5076	12704	2462	731	2801	-15604	656	2476	-11470	7535	-2541	-18288	-4144	808	-3268	14176	1250	-25816	12200	26224	1655	-4348	1411	-23680	4208	-13432	-774	-6183	-111	-7432	-7072	-6264	-1339	-502	-328	130	203	1
-9456	-4136	12540	1104	1599	2777	-15680	-1124	1436	-5739	9448	-1924	-17420	-2036	3932	1432	9992	538	-29856	8200	28952	1761	-4348	2000	-27488	2928	-15192	416	-6408	-80	-10064	-3168	-960	-458	-716	-278	123	207	1
-9776	-3616	13676	-553	3155	2507	-17432	-164	-588	-45	10897	-942	-17104	-2220	4224	1737	10074	556	-32768	1560	25936	2286	-4047	2587	-28960	2160	-17072	1991	-6445	84	-12152	4984	4864	194	-747	285	125	216	1
-9532	-4116	13248	-2162	4890	2086	-18416	3096	-572	-452	12417	-520	-18452	-2396	2468	-3802	12891	609	-32768	688	15168	1005	-3761	1794	-24056	14496	-18992	2763	-6144	375	-17264	5456	6704	964	70	1074	125	190	1
-9092	-4220	13252	-3344	7036	1910	-17616	892	1476	607	13587	-627	-18992	-2980	2732	-3637	10173	1360	-32768	-432	4792	750	-4880	1404	-16080	9664	-23040	588	-4581	894	-18792	6448	28128	279	141	1220	126	160	1
-9784	-4324	13220	-4351	9906	1800	-17432	2040	28	3817	15617	-644	-18180	-2528	4716	-3816	9543	1078	-32768	-24728	-24232	3542	-4321	2565	-14424	-2640	-20104	541	-2058	1032	-19176	4168	32767	-1332	-555	413	122	129	1
-10160	-3564	12836	-4657	10503	1759	-17732	4004	-2300	5593	17953	-569	-17040	232	2036	-3694	7187	1074	-32768	-14552	-32768	2072	-667	3251	-4032	2688	-14512	701	667	316	-20968	-2720	30448	-1132	-918	-643	123	162	1
-9984	-2836	13344	-6509	19806	318	-19064	3500	-2448	6310	19937	-215	-17936	-2600	244	-4404	5558	2324	-32768	-32768	-32768	-3566	4790	-2458	-14368	19960	-20680	-1855	3222	-81	-16512	4768	11792	840	-124	-367	123	171	1
-9148	-5680	13168	-6385	25960	1117	-22500	128	-148	6249	21883	125	-20604	-7820	2700	-6055	3110	2731	-23232	13992	32767	-2173	5485	-4322	-32616	-3568	20312	-7010	2945	462	-22552	10288	7096	1170	-428	794	123	73	1
-9060	-7700	12988	-5729	32767	4412	-28080	2744	2772	3538	23931	-30	-26228	-8552	10560	-1589	-2543	849	-32768	8752	27648	-1367	4245	-1941	-32536	-5016	-20944	-2340	2701	-638	-14632	6432	32767	-3360	765	1717	126	22	1
-11652	-9332	13016	-4403	32767	9868	-32768	10556	10648	-1235	27214	1152	-28348	-7036	24852	-4378	-22874	-1688	-12296	2016	15544	-1043	1903	-1104	-7808	6248	-5400	4	4825	-705	-17072	-8968	-32768	-156	3234	-799	125	17	1
-23292	-7472	16344	-6811	32767	11860	-32768	12880	4912	538	29985	2721	-26376	-3264	22296	-5125	-23049	-859	-15680	12416	13472	-1721	1921	-1523	-10592	13248	-14200	-387	2169	972	-5688	-5936	-10880	846	80	862	131	20	1
-31964	-10868	24864	-9306	32767	13487	-32768	1516	1164	2612	32767	1630	-27116	6088	7716	-1432	-25853	7069	-26528	-488	26632	-1234	310	-881	-8488	9448	-19912	-2938	1560	481	-8592	13784	-12000	1829	544	197	125	42	1
-32768	-21172	22536	-2245	32767	26134	-32768	-8244	-1708	1794	31468	1120	-21836	848	-12032	-7115	-22265	2299	-12024	3528	15352	-538	-37	-511	-31616	-7520	-9600	-1851	3104	212	-31560	7368	-10392	-744	1213	876	124	45	1
-32768	-24444	28648	2594	32767	32767	-24328	-8796	-2592	5657	28917	-5198	-27832	-3584	-4764	-18459	-24693	-2152	-10360	4360	12848	-165	-8	-244	-16200	-3504	-8368	2242	850	897	-21680	-7744	-2648	-259	1375	576	120	46	1
-16640	-19004	32767	8945	32767	27457	-17432	-6660	-11876	12097	21587	-1026	-28140	-5620	-8236	-11191	-24768	-8647	-9520	3024	12976	-37	-3	-81	-13464	7576	-6712	3217	401	812	-13248	2344	-1416	1374	1515	-59	109	39	1
-32768	-20680	32767	1491	-7751	7920	-11316	-140	-18392	28085	8761	1857	-30424	-7956	-3368	-6237	-27794	-8902	-9096	4632	12488	-50	39	-69	-17288	12064	-3016	905	769	495	-13480	10824	-496	907	1506	7	128	78	1
3976	-11716	24648	368	-28457	802	-12704	6428	2952	1824	-877	1624	-28808	-4828	-6420	6136	-24168	-6942	-9072	4968	12800	-53	66	-63	-15552	10736	-3488	-1137	869	372	-17320	8352	-528	224	1527	72	131	63	1
5680	-5656	14688	-231	-27391	2481	-10292	4004	1180	-4103	-5598	704	-24900	940	-5276	4700	-24345	-5966	-9328	5368	12400	-48	56	-76	-16056	4632	-3888	-1304	946	65	-16280	4488	232	46	1715	180	131	86	1
1784	-6544	14932	721	-28258	2378	-3884	492	-3432	-8182	-12769	1934	-20064	-1696	-6456	1395	-22441	-5673	-9136	4816	12560	-39	34	-106	-16848	552	-3704	439	692	155	-16456	2352	984	500	1769	128	139	96	1
-4768	-6748	17304	1156	-32768	-555	-3228	-968	-5656	-10734	-17767	4465	-16224	-5324	-7728	1451	-20075	-5026	-9152	4328	12520	-21	40	-110	-16616	4024	-3256	1805	272	459	-15752	3040	1552	881	1802	8	156	167	1
-7320	-6244	14888	1417	-32768	-5054	-4640	-2112	-5420	-7896	-24538	6970	-13052	-2872	-8324	7422	-16497	-4438	-8744	4056	12536	19	80	-94	-15544	7400	-2184	1342	164	342	-14976	4552	1648	761	1860	-74	128	159	1
-8168	-5784	11836	1798	-32768	-8965	-5472	-352	-4808	-5929	-30225	8699	-11808	-3260	-9152	10737	-11768	-5015	-9128	4176	12480	18	163	-87	-15344	7616	-2208	163	448	258	-15704	4968	1640	447	1913	-91	125	127	1
-9172	-5748	9852	2485	-32768	-11927	-5716	532	-4852	-5327	-32768	9278	-9532	-2364	-11100	13404	-8339	-4422	-9376	4464	12096	-35	183	-83	-15304	5552	-2232	-130	629	126	-14480	4816	1792	334	1984	-105	125	123	1
-10472	-5016	10204	1781	-32768	-13873	-6840	-928	-4552	-3929	-32768	10897	-6856	96	-11264	13550	-4813	-3198	-9168	4440	12304	-78	128	-96	-15056	4800	-2152	347	483	176	-14192	4664	2768	486	2074	33	120	112	1
-12388	-4292	10248	-1249	-32768	-15259	-11520	-116	-6032	-231	-32768	10779	-5872	1828	-11736	12445	-2505	-2037	-9200	4368	12504	-72	127	-103	-15232	6544	-1568	521	534	216	-13928	4576	3856	723	1919	62	123	101	1
-13348	-4752	9836	-5047	-32768	-15185	-14800	-596	-9360	3792	-32768	11012	-5236	3136	-11788	16100	-638	-1402	-9008	4328	12408	-52	168	-139	-15792	5104	-2240	375	666	163	-15928	4040	3912	434	1990	-106	128	111	1
-26376	-6920	22328	-9023	-32768	-15294	-16324	1636	-14912	5975	-32768	11235	-5436	6448	-10872	16280	1283	1558	-9480	3888	12552	46	259	-120	-16208	3592	-2432	688	740	186	-15832	3896	3144	190	2194	-133	125	112	1
-32768	-9644	31536	-8443	-32768	-16073	-23592	1476	-15708	-1681	-32768	10805	-5816	7252	-7632	14469	1357	3603	-9176	3904	12704	118	361	-105	-16440	4568	-1512	993	796	242	-15880	3376	2608	112	2026	-105	124	120	1
-32768	-8240	30248	-6472	-32768	-17892	-30480	1564	-19208	-11998	-32768	11437	-8064	5036	-900	11021	-1533	3199	-9200	4000	12776	187	491	-99	-15880	6176	-32	904	979	188	-16536	4424	3488	161	1800	-77	119	103	1
-32768	-1648	21692	-8585	-32768	-19608	-25352	-140	-14692	-29887	-32768	8812	-11628	-1508	3552	4592	-3523	-673	-9224	4440	12480	203	582	-156	-15712	6616	616	502	1257	121	-17672	4336	6512	75	1848	108	127	114	1
-32768	-2156	6828	-9169	-32768	-15193	-27724	-7696	-18328	-28041	-32768	1886	-19160	-6228	10348	-5897	-2124	-5042	-9176	3976	12792	283	821	-171	-16864	4992	168	287	1586	74	-18480	3768	7960	39	1395	147	133	113	1
-32768	10796	-12896	-15084	-32768	-8853	-23540	-4316	-21772	-21412	-29548	-4030	-28932	-540	32767	1514	-4947	-5394	-9504	4016	13320	362	1209	-198	-18680	4560	232	303	1899	42	-18672	1776	8496	403	1082	16	134	96	1
-32768	24828	-32768	-28654	-19778	-10680	-7152	272	-22528	-17376	-7891	-6731	-25148	-1660	32767	-4329	-6622	-3465	-9272	3480	14328	361	1755	-241	-19352	4544	-592	185	2164	-1	-18456	3392	5904	674	596	-81	141	96	1
-32768	12480	-32768	-9363	4053	-2633	-4820	-7832	-20388	-5956	13954	-3663	-18668	-2220	22036	-12250	-5486	418	-9440	4712	13864	298	2488	-318	-21600	5192	-1656	-48	2492	-15	-20560	5168	6912	686	143	-103	131	102	1
-32768	4744	-12016	19423	20980	15130	-17004	-11852	-20768	15745	26976	-348	-13700	-5848	4108	-9573	1817	-276	-7888	6056	13024	300	3454	-604	-25880	2264	-288	212	2778	94	-21720	3016	13608	717	-569	-119	116	109	1
-32768	-31896	32767	26322	21636	5693	-20488	6700	32316	8927	18378	-612	-5808	-9220	-3268	-1801	7297	-7113	-8320	8800	13840	360	4872	-990	-26144	1968	-272	270	2797	119	-21200	960	24704	-158	-2784	23	117	157	1
32767	13144	-21164	3061	32767	2430	-32768	25472	-6688	32767	10110	-6779	-9856	-11816	-15256	6328	12080	-11225	-15168	10016	16872	94	6696	-1709	-32768	3160	9496	2149	3147	228	-24256	-8696	18672	153	-2213	-545	123	135	1
-32768	25492	32767	271	32767	1213	-9280	-2332	-18856	22556	17900	2084	-32768	-5312	21204	32767	-8125	-6183	-28264	9992	24352	35	7957	-2259	-32768	6272	4160	2081	3414	139	-27192	-4752	16584	502	-2596	-780	144	148	1
-9520	2772	18452	-1900	18303	12180	-25060	9488	-11104	23413	18302	-8790	-21732	17068	-10104	24824	13842	2483	-32768	14264	28056	418	8338	-2657	-32768	10328	-320	2202	3354	-213	-26368	4488	-776	638	-3225	-2619	140	143	1
-18496	-25636	11372	4765	23369	7549	-16388	-1196	-9016	9826	14309	-6782	-9484	22272	-10040	5686	19437	-1439	-32768	17552	25504	169	7232	-3296	-22128	11072	2632	1360	3160	-355	-25456	9352	-11592	2376	-1862	-448	134	126	1
-18300	6496	19932	6284	7315	7238	-12012	-11648	-12484	10705	10977	-11269	-1120	-13420	-13060	-31640	-5077	5285	-32768	19192	26488	209	7032	-3330	-14008	17176	-20640	410	2940	-473	-26752	11296	-6168	1464	-2635	126	140	131	1
-14572	-10784	13904	6843	4527	5944	-19952	2780	-9284	-2183	9794	-5532	-20964	-18784	-9456	-11975	13033	-8630	-32768	29408	32767	-698	233	-1237	-9848	11424	-18040	-3129	2008	-574	-31624	8776	-5296	154	-2447	575	137	82	1
-10136	-1404	14892	3282	670	2164	-16084	6612	-6444	-22196	10301	-3860	-23092	-5376	-4624	-4087	11322	-7448	8896	17672	18704	-486	-2475	154	-18944	-208	3856	-1935	693	104	-31136	8160	-5448	-891	-2413	584	105	77	1
-10544	-972	15272	1774	633	830	-18736	-1884	-6424	-23523	9703	-4522	-17532	-376	-2504	-7038	13366	62	3488	10632	16168	-791	-2707	362	-10640	-3224	-1208	-181	-784	-191	-26312	3536	-5496	-837	-2438	406	120	81	1
-9512	-4528	13580	217	1111	-97	-17344	-4952	-3660	-2529	6059	-4200	-15568	-3084	-804	-9251	16158	987	2280	10120	15408	-724	-3377	821	-4016	1624	-3800	848	-1648	-667	-20080	2384	-5536	-371	-2415	285	125	146	1
-9396	-3660	13448	-485	1558	-623	-17824	-1244	-3140	11008	2164	-3105	-14088	-5408	-1676	-7163	13539	5471	-2336	9376	15216	-602	-4143	1231	-6272	5160	-3280	651	-2505	-680	-16248	4856	-6232	-349	-2301	305	109	175	1
-9284	-4000	13360	-561	1562	-590	-15784	3140	-3080	5553	2606	-2723	-13904	-5184	-1644	-6686	13051	5730	-6064	7592	13968	-507	-4951	1554	-4840	5952	-4840	-137	-3230	-725	-13688	2352	-7616	-829	-2114	434	119	199	1
-9384	-4856	12812	280	1546	208	-15056	2060	-2036	-9916	4200	-2353	-16276	-4464	-252	-1516	14856	715	-7032	5520	11352	-311	-5466	1706	-5888	2608	-3624	-642	-3788	-816	-11264	3112	-8664	-1093	-1914	458	116	206	1
-9508	-4928	12688	1497	981	1060	-16528	-1180	-2120	-15006	5077	-3256	-15384	-3824	-168	-2600	16349	39	-7512	4464	8752	-15	-5681	1677	-7320	1664	-3560	-508	-4332	-737	-9288	1360	-9584	-932	-1535	337	127	195	1
-9700	-3592	13204	1692	764	1271	-16596	-2036	-2012	-7605	4163	-2754	-14424	-3512	956	-4106	17550	359	-9104	4648	9496	340	-5556	1468	-9464	2536	-4472	-737	-4921	-724	-8512	1232	-9568	-691	-1147	222	113	175	1
-9876	-3680	12988	1391	771	1111	-16272	-1016	-2376	-306	3627	-2157	-15612	-2668	1412	-3318	17529	1775	-11864	5672	10480	686	-5226	1224	-12800	5144	-7424	-1016	-5466	-513	-8264	-632	-9408	-969	-746	10	121	165	1
-10016	-3728	12772	723	899	818	-15464	1708	-2532	-2242	4563	-1997	-15568	-1448	1212	-5334	18536	2430	-14800	6880	12736	1043	-4650	1059	-14248	1344	-8552	-1495	-5645	-522	-7344	-2360	-10112	-1400	-295	-134	120	188	1
-9892	-3848	13044	163	1112	638	-15736	1316	-2080	-8323	6186	-2295	-14892	-2068	396	-7029	18591	1774	-22632	11088	20208	1482	-4328	1242	-19976	3888	-11648	-1527	-5955	-387	-5824	-5840	-10248	-1776	-31	-147	116	188	1
-9496	-4080	13136	-41	1503	710	-16444	468	-524	-10070	7354	-2479	-16112	-3856	452	-6806	16927	1118	-26752	12912	25488	1176	-4237	1519	-24816	4600	-13672	-1253	-6249	-409	-7184	-6720	-5336	-1788	-500	-383	129	198	1
-9632	-3608	12944	-573	2262	793	-16156	-1044	-52	-6097	8274	-2069	-16224	-4552	2356	-4457	14686	712	-32768	8528	28456	1351	-4225	1997	-27472	2104	-16144	172	-6342	-332	-9104	-2768	1000	-1183	-816	-372	126	190	1
-9560	-3600	13140	-1611	3494	810	-16748	248	192	-2417	9369	-1520	-18028	-1876	3752	-3361	13103	768	-32768	2672	26592	2021	-4253	2615	-27304	6608	-17304	1832	-6176	-71	-12736	3840	7360	-693	-850	310	129	208	1
-9644	-3580	13052	-2695	5176	682	-17548	1708	1284	-582	11061	-1293	-19228	-3112	4668	-2083	11690	828	-32768	6360	15608	1522	-4985	2714	-20640	13720	-19224	2037	-5587	217	-16984	6816	11440	597	-17	865	126	170	1
-9272	-3816	13268	-3740	7484	870	-17352	596	856	2153	13396	-1032	-18712	-3688	5304	-1252	9135	425	-32768	-5672	-9440	397	-4654	1880	-19184	7176	-19848	365	-3977	761	-21048	2904	30328	-529	243	908	123	143	1
-9620	-3840	13240	-4634	10495	905	-17772	1944	-232	3487	15565	-1298	-17620	-2844	4988	-3077	8294	889	-32768	-32768	-31720	2813	-2866	2083	-11448	-928	-21064	805	-1745	878	-19352	-48	32767	-1283	-724	-11	124	132	1
-9692	-3296	13160	-5244	14854	712	-18516	3264	-1508	4129	17846	-1165	-17016	-768	2272	-4816	6927	926	-32768	-16080	-32768	1665	-69	1552	-1816	7160	-19064	1278	1168	-11	-17200	-3864	26456	-78	-1344	-842	122	127	1
-10072	-2996	13028	-5656	20297	449	-19952	2368	-1956	4744	20036	-869	-19864	-3664	1716	-6459	5165	1400	-32768	-15392	-32768	-2545	4294	-2517	-16720	18880	-19136	-1802	3147	-34	-12296	2640	8128	2118	-177	-158	122	132	1
-9292	-5140	13580	-6451	27314	1595	-24288	2768	804	4188	22288	-1151	-22436	-5148	5752	-7075	2021	1418	-6880	30808	32767	-2196	4215	-3804	-32768	-584	24896	-5613	2889	713	-20440	12408	4768	1361	45	986	122	98	1
-8516	-6652	13300	-6744	32767	4568	-30016	6020	2036	-174	24633	-1548	-28504	-4452	17128	-1891	-7408	1022	-25960	2096	19544	-1127	4368	-1671	-25392	-3536	-22360	-2638	2077	-410	-16952	19048	32200	-3098	707	2011	125	37	1
-9780	-8884	14660	-6196	32767	9869	-32768	14284	11856	-7061	28443	359	-24864	204	22664	-9998	-24315	-367	-20112	-16	20464	-991	2055	-1411	-13192	5584	-8768	-1376	5013	-1191	-22576	-4832	-22648	-1278	2938	-722	123	1	1
-29612	-5564	20024	-8875	32767	11546	-30104	10312	8532	-8927	31725	1851	-22904	7064	9576	-7439	-20150	6557	-14296	26560	11104	-1844	2488	-1639	-14528	9848	-7384	-325	2373	871	-3072	-10320	-16352	-286	149	605	130	56	1
-32768	-12140	22028	-10115	32767	16670	-32748	-7524	-3672	-1272	31953	964	-22960	5632	-3636	-3474	-21444	5221	-20656	-9960	25208	-2003	978	-1541	-6592	10992	-17944	-2235	1695	664	-9120	10352	-11448	1702	457	68	129	78	1
-32768	-19404	19712	-4354	32767	26373	-28608	-5820	-1732	3485	30424	-2297	-22584	-1188	-12612	-11293	-20622	3497	-10376	4720	14032	-801	-38	-593	-24600	-6160	-12536	-2287	2966	194	-30592	7120	-8208	-292	854	1071	118	29	1
-29704	-20572	30320	-7043	32767	28969	-20132	-2340	-10504	4907	26834	-4387	-27388	-1912	-8324	-20102	-24501	-2427	-9992	3560	13136	-325	-124	-271	-21808	-6024	-9576	1671	1192	809	-22584	-7496	-3976	-49	1186	870	119	20	1
-8384	-14860	32767	-7701	20867	20191	-16188	-4968	-14948	10512	17904	-272	-29352	-7076	-6452	-11109	-26150	-8990	-9512	2888	13264	-160	-90	-122	-12680	4840	-7920	3726	451	894	-12968	-8	-2000	1466	1387	124	103	45	1
-27320	-27552	32767	-3140	-20716	4211	-11932	696	-10796	7361	5371	-165	-28396	-9560	-7164	-225	-24415	-9184	-8904	4168	13008	-71	-12	-51	-15880	10696	-4240	1722	676	517	-14944	8640	-1488	1211	1375	-165	122	62	1
3964	-12740	20124	4369	-30222	2359	-13812	1976	3312	-6572	-2637	-369	-28640	-3768	-6572	4593	-23687	-6947	-8872	4056	13024	-49	46	-41	-16824	10328	-4672	-655	874	426	-17816	8280	-928	545	1454	1	138	82	1
4124	-5168	14180	2788	-30083	3167	-7884	-64	544	-1	-9884	-449	-22664	-568	-5384	3101	-21900	-6234	-8864	4024	13032	-37	77	-42	-16600	4832	-4904	-1259	884	218	-17328	4976	-1016	201	1658	130	129	88	1
-404	-6772	14640	482	-32370	1434	-3456	-1044	-3528	-444	-16042	1186	-18236	-4064	-6580	1483	-20203	-6448	-8896	4424	12728	-62	52	-71	-16624	696	-4744	-54	678	161	-16520	3880	-144	341	1791	57	142	121	1
-4244	-7640	14364	433	-32768	-1563	-4544	-460	-4836	-2558	-22126	4273	-15436	-4280	-6988	5769	-16832	-4810	-8808	4160	12632	-45	35	-72	-16320	2848	-3968	1612	309	403	-15992	3176	1296	586	1829	7	138	164	1
-5992	-7008	12672	831	-32768	-5477	-5480	16	-4676	-2655	-28212	6049	-13000	-1940	-8192	9670	-13609	-5242	-8672	4352	13120	-13	64	-74	-16328	6560	-2944	1582	130	451	-15976	3600	1496	622	1885	-84	131	154	1
-9100	-6504	12168	825	-32768	-9952	-5608	1488	-5468	-4120	-32526	7344	-11272	-1636	-9688	10881	-9502	-4454	-8904	3536	12744	16	97	-54	-15328	6792	-2712	526	260	323	-15160	2608	1864	362	1965	-98	123	157	1
-11888	-6100	12568	906	-32768	-13829	-6176	900	-6124	-5339	-32768	8340	-8432	-2012	-10908	11702	-6526	-3424	-8880	3792	12840	18	125	-51	-15264	4696	-2584	-305	514	258	-14856	1680	2096	300	1952	-183	130	155	1
-11932	-4800	11636	553	-32768	-16296	-8120	1236	-4588	-5532	-32768	9544	-6084	584	-10672	11397	-5675	-2500	-8920	3952	12504	10	124	-65	-15432	4792	-2136	-58	446	243	-14760	2792	2080	761	2017	-98	124	146	1
-12688	-3524	10712	-2767	-32768	-17075	-13328	1400	-5704	-3209	-32768	8744	-6260	2432	-10708	10045	-6934	-1875	-9056	4216	12632	-19	96	-83	-15128	5896	-2208	330	422	291	-14464	5968	1808	969	2106	-28	122	131	1
-17296	-4516	14052	-6826	-32768	-16961	-14820	-716	-9384	2720	-32768	9214	-5148	3756	-10744	10476	-1816	-2106	-8912	4064	12680	-26	89	-109	-14816	6152	-2336	405	525	250	-15480	6672	3432	748	2147	-34	123	127	1
-28196	-5372	24664	-12201	-32768	-17846	-19216	2708	-13916	3969	-32768	9722	-4928	6776	-10596	10938	4299	610	-8952	4096	12864	-2	129	-139	-16024	5368	-2336	437	585	250	-15696	6640	3784	273	2130	-132	123	132	1
-32768	-11088	29148	-11785	-32768	-19571	-27896	3684	-15584	-1386	-32768	9337	-6500	7428	-4212	13673	4813	2755	-8792	3896	12864	42	240	-159	-16928	4696	-912	705	675	262	-16136	5632	4440	36	2161	-162	127	128	1
-32768	-10804	26368	-3659	-32768	-20713	-30536	2528	-17464	-12423	-32768	9492	-10068	2904	3756	12613	-1790	2935	-8936	4264	13312	39	378	-193	-16008	5120	1280	719	884	226	-16296	3912	7208	-239	1807	-114	133	109	1
-32768	-3256	18284	-5049	-32768	-23099	-24280	-1716	-16500	-21414	-32768	7014	-13160	-6920	7684	1447	-2756	-808	-9216	3912	13152	90	529	-198	-14792	5928	1096	429	1230	161	-16928	2704	9432	-320	1684	51	132	124	1
-32768	-860	2332	-5317	-32768	-16857	-25840	-5860	-17984	-21220	-32768	687	-21540	-5824	15088	3848	740	-3920	-9112	3792	12960	236	765	-156	-16592	5448	104	224	1628	121	-18240	2400	7840	39	1462	151	128	132	1
-32768	14616	-18400	-15261	-31112	-14583	-19896	-188	-21864	-20182	-23536	-4678	-29068	-1096	32767	17712	-9203	-2994	-8704	3896	13664	343	1169	-176	-19104	4928	-736	268	1950	75	-18968	3360	6720	600	1029	65	140	120	1
-32768	24072	-32768	-21818	-12675	-16016	-5408	-5344	-18464	-11224	-447	-4606	-24628	3032	32767	1248	-5717	-1748	-8760	2936	14720	422	1803	-265	-20208	5208	-2144	187	2116	28	-19232	4904	4440	851	603	-1	143	126	1
-32768	7388	-32768	4374	12472	4403	-9112	-11124	-19240	2096	18536	-789	-18056	3212	13364	-11878	-2438	-504	-8480	4480	14920	340	2578	-403	-23136	4088	-1936	218	2429	44	-21872	4456	6040	907	192	-24	124	122	1
-32768	3448	-1684	17981	22314	16679	-19240	-10068	-21808	22650	25044	-2538	-13000	-408	-68	-19852	3612	-2626	-7840	4776	13200	269	3555	-666	-26232	1208	-1224	586	2618	145	-22752	2360	16384	576	-922	-101	122	125	1
-31000	-31460	32767	20744	14881	4285	-16892	10724	16836	13846	20754	-2864	3536	-6192	-3364	-2516	5237	-11341	-8000	8488	14560	294	5130	-1012	-32768	-584	7112	1867	2921	265	-20816	-2760	26744	-529	-2971	-33	118	136	1
32767	12764	-19404	-4858	32494	-5087	-32768	30816	14060	31601	8128	-2467	-12436	-17060	-21920	-1240	10707	-10591	-15360	10160	16176	37	6997	-1891	-32768	2544	9936	2595	3126	326	-24328	-11816	18800	180	-2234	-748	152	169	1
-32768	27172	32767	-1695	32767	3339	-20356	-9252	-22364	24812	15228	1410	-32768	-7324	25700	32767	-9382	-3851	-30272	9312	23528	90	8267	-2249	-32768	6256	2360	2634	3228	176	-17560	-1464	152	86	-2968	-2227	144	174	1
-21172	-10800	23536	157	16164	10997	-24308	8896	-9372	23408	15405	-8394	-25360	18992	-4156	30308	12973	3056	-32768	14808	30184	493	8144	-2656	-31144	14856	-528	2527	3337	-454	-25232	11288	-6808	2430	-1518	-904	115	141	1
-16340	-11308	14336	8344	18899	7815	-18580	-2352	-8204	12136	12888	-8586	-8084	20332	-5792	5958	26678	-920	-32768	18224	28024	40	6613	-3377	-20072	13192	-2632	750	3350	-466	-24824	13584	-9760	2537	-2077	-333	121	134	1
-12104	-3348	15272	4494	4709	5577	-7996	-2584	-9904	6451	9920	-10903	3252	-9036	-20952	-32768	-7547	5840	-21424	30632	32767	-964	4376	-3287	-13480	16584	-15040	-719	3215	-768	-27632	7672	-2480	857	-2521	403	141	108	1
-13868	644	17148	4600	1861	3534	-18420	568	-10500	-14205	9573	-6375	-19708	-17008	-6492	-15115	11555	-6961	-28160	29792	32767	-667	-151	-1079	-13784	7288	-12456	-3650	2126	-403	-31072	6448	-4672	-407	-2373	640	118	100	1
-10200	-8568	12520	1927	937	1306	-20020	2616	-6884	-25997	10268	-2448	-24896	-5616	-5896	-10213	13025	-9198	8152	17560	18616	-870	-2018	-130	-17576	-2000	3136	-1683	474	176	-31536	5744	-5032	-1055	-2466	553	101	83	1
-10084	-3496	14340	-289	967	-404	-19272	-3716	-4080	-15184	7589	-5311	-19788	-1728	-2172	-10548	13364	1986	2904	10712	17312	-718	-2506	368	-8408	-2520	-2720	13	-831	-204	-22328	2576	-3552	-572	-2601	490	121	89	1
-9612	-4084	13764	-1019	1836	-776	-16824	-4048	-3536	3615	4232	-3923	-13548	-7196	-1856	-10564	16134	2161	1656	10896	15736	-360	-3367	993	-3320	1976	-3704	1039	-1778	-594	-19216	5768	-6552	-52	-2399	186	115	176	1
-9392	-4120	13380	-1507	2455	-1116	-17196	1312	-2972	8992	1486	-2409	-14436	-5620	-1504	-5783	12639	6867	-2160	10072	14072	-362	-4190	1410	-4976	6128	-3464	715	-2659	-564	-15688	2896	-7664	-434	-2245	261	114	181	1
-9144	-5808	12596	-1167	2575	-595	-15684	3920	-2216	-6204	3918	-1859	-15792	-4168	-636	-2561	13832	3916	-6280	7984	13512	-328	-4966	1672	-4496	6176	-4776	-268	-3370	-614	-12920	2424	-7984	-773	-2084	497	114	201	1
-9300	-5636	12552	-378	2091	191	-15792	-324	-1476	-17441	5207	-3079	-16096	-3724	-928	-1242	15240	363	-8000	6032	11256	-103	-5578	1845	-5480	3624	-4032	-803	-3839	-695	-10928	4072	-9168	-930	-1786	599	119	188	1
-9668	-4592	12768	-167	2070	521	-16728	-2500	-1900	-11473	4739	-2918	-14996	-3240	964	-2916	15251	485	-6848	4608	7760	232	-5798	1815	-7360	2712	-3144	-838	-4421	-643	-10016	2664	-9968	-704	-1414	470	122	185	1
-9684	-4300	12744	-331	1825	345	-16284	-516	-1940	-2599	3753	-1439	-14564	-2848	1412	-3894	16050	1087	-7672	4384	7136	601	-5348	1515	-12680	3184	-5072	-1200	-5058	-625	-9744	1560	-9736	-805	-1034	330	108	174	1
-9744	-4716	12672	-589	1891	241	-15828	1168	-1936	-3089	3742	-1787	-15452	-2668	1108	-6697	16717	2124	-12824	6032	10456	908	-4715	1267	-11680	3192	-8336	-1624	-5531	-595	-9272	-288	-9520	-1177	-601	156	125	177	1
-9520	-4724	12700	-750	1829	404	-16008	504	-1628	-5775	4807	-1666	-15988	-2588	1432	-8819	17254	2833	-20072	7336	18928	1349	-4209	1176	-17000	2088	-11672	-1543	-5614	-531	-7216	-2744	-10152	-1777	-187	40	128	158	1
-9504	-4956	12400	-611	1800	897	-16180	440	-1560	-6268	4976	-1644	-15244	-3888	644	-7238	17528	1798	-24128	12000	22904	1469	-4407	1370	-22040	4640	-13472	-1289	-6057	-373	-6000	-7312	-8488	-2081	-306	-141	123	159	1
-9464	-4704	12248	-182	1860	1454	-14936	-1356	-164	-6068	7239	-2029	-15140	-4700	412	-4995	13595	1309	-28936	10272	27744	1259	-4245	1687	-25592	3936	-15056	-779	-6385	-378	-8272	-6296	-2928	-1411	-641	-238	125	163	1
-9832	-4860	12180	1	2146	1685	-15080	-940	164	-3942	8550	-1417	-16140	-2504	3104	-3304	11327	732	-32768	6544	29744	1517	-4348	2197	-26928	2176	-14912	662	-6258	-251	-11048	-1280	3264	-812	-797	-47	126	170	1
-9136	-5316	12188	17	2914	2129	-16692	-544	1152	-2259	10006	-1090	-17484	-2940	3528	-3516	11750	445	-32768	704	24720	1920	-4528	2764	-25232	8872	-15712	2052	-6010	-25	-12424	2952	7104	-256	-417	604	127	179	1
-9120	-5436	12472	-401	4652	2952	-17356	-172	1116	-92	11604	-1175	-18540	-5016	3392	-2382	10408	841	-32768	7048	8936	1168	-5143	2673	-19064	10840	-18464	1409	-5160	285	-15144	6696	13288	207	273	867	126	138	1
-10516	-4788	13024	-1663	6629	3016	-17088	1056	172	2202	13551	-1289	-17916	-5076	3564	-253	9618	747	-32768	-15784	-14416	1024	-4009	2064	-19656	3488	-18936	-103	-3509	1051	-18784	888	32767	-1611	-162	591	125	135	1
-10564	-4560	12780	-3062	9392	2793	-17972	2624	-976	4247	15430	-1151	-17180	-1668	2208	-425	8599	664	-32768	-32600	-32112	3380	-1929	2544	-8720	896	-17928	914	-1177	670	-21032	-240	32767	-1889	-813	-389	124	117	1
-10476	-3532	12836	-4031	13152	1984	-18048	2720	-1056	4772	15730	-1140	-17236	548	1324	-1206	6502	905	-32768	-17560	-31272	-502	1012	116	-3432	9200	-17896	707	1413	-137	-19320	-1424	20552	380	-918	-566	123	112	1
-10704	-3928	13156	-5033	18264	1085	-19684	1672	-2600	9377	18728	-580	-19704	-2816	1080	-4484	4855	2123	-32768	-14192	904	-2519	2292	-2086	-12872	10328	-20624	-1864	3034	-81	-14088	-136	7568	1740	-568	-64	125	149	1
-10112	-5816	13024	-5991	24649	2475	-23772	4528	-672	5384	20778	-1373	-22248	-3584	3796	-7075	2501	1391	-32768	16696	32767	-1388	1530	-1171	-18064	3176	10248	-858	3593	-268	-6456	6096	-464	1461	635	760	122	125	1
-10320	-6796	12640	-6633	32767	5301	-25140	6596	636	-1370	23375	-2615	-23356	-1120	14540	-2810	-4017	544	17096	9976	5008	-483	3607	-2721	-32768	-6416	15328	-3699	1111	1070	-23824	6808	10936	-473	626	904	122	105	1
-12700	-8664	12888	-6841	32767	9294	-32768	8092	8328	-7176	26406	-1130	-23936	-240	16284	-16003	-17167	-23	-32768	1056	32767	-578	4562	-800	-9976	5984	-21112	-92	2583	-915	-32768	8504	10704	-1045	959	685	133	50	1
-20856	-6844	15828	-7149	32767	12056	-30320	10416	9020	-4654	27720	787	-21204	2152	8204	-14508	-12753	2695	-8144	2592	15672	-991	1340	-1411	-20032	10448	-7336	-2491	4153	-672	-12464	-8328	-9600	-2218	1885	607	132	44	1
-32768	-12048	22624	-11308	32767	12072	-29336	1280	-5060	1505	30579	1705	-26148	-784	6640	-11995	-20399	4842	-10336	17112	11832	-1282	2363	-1217	-14824	2792	-6552	-1600	1940	902	-6392	-4064	-10872	934	1408	499	125	78	1
-32768	-18252	21956	-9534	32767	18698	-31952	-4372	-724	60	30612	-1661	-23084	-204	-7816	-3639	-18973	3212	-17096	-3928	18720	-1223	692	-1070	-7488	7216	-15384	-1363	1704	646	-9560	8488	-5856	1281	220	-293	129	105	1
-32768	-22504	23840	-4717	32767	26462	-23280	-5552	-564	4919	28529	-2640	-24836	-4532	-9176	-6056	-24011	785	-14648	4760	18504	-867	374	-646	-25944	952	-10240	-876	2232	395	-27832	8448	-6752	-19	1222	1064	122	88	1
-31080	-21092	32767	-1556	32767	23876	-22180	-5108	-7356	6542	28279	-2951	-26104	-4784	-6476	-5318	-25123	-6592	-9744	6456	13424	-428	25	-299	-18040	-1368	-7240	1864	1020	908	-27784	6648	-6376	-24	1250	1144	118	70	1
-32768	-19024	32767	-2294	-1668	12778	-14692	-3660	-15700	13754	13397	2190	-28400	-8320	-6680	3604	-23850	-8605	-9080	2160	13768	-201	10	-156	-14704	4512	-6064	2471	503	626	-13920	-1040	-792	1338	1525	57	116	89	1
4600	-15732	26336	2011	-28173	5470	-12776	1152	2076	274	-185	1247	-28960	-2532	-7600	5678	-22035	-5862	-8600	4224	13296	-106	97	-111	-16392	8512	-4136	1355	658	487	-15632	7728	-1608	1338	1460	-175	125	106	1
5040	-7292	15632	4481	-27789	7315	-11016	2836	3844	-693	-6276	917	-24268	444	-6244	2028	-22777	-5891	-8912	4528	13240	-60	181	-91	-16952	9352	-4048	-371	713	409	-17520	7848	-1168	727	1513	24	128	109	1
-756	-6960	17184	1336	-30123	4752	-3560	748	-4060	-1483	-11966	1380	-18824	-1060	-6624	-793	-21038	-7080	-8880	4504	12392	-35	185	-91	-15848	5976	-4104	-891	721	192	-16048	5320	-504	390	1653	116	139	106	1
-5052	-8316	16836	-1250	-32768	-97	-2944	308	-4684	-9372	-17686	4231	-14892	-5288	-7052	1330	-19022	-6456	-8944	5064	12624	-88	153	-151	-16504	2536	-4152	162	455	202	-16632	5656	-600	335	1773	52	144	117	1
-7128	-8660	13348	-440	-32768	-5062	-6112	-1140	-4596	-9548	-24046	6141	-13316	-3304	-7368	6294	-14419	-5531	-9432	4144	12792	-78	126	-152	-16264	4136	-4424	1413	255	396	-16008	3928	576	73	1800	-30	135	141	1
-7884	-8540	10532	2457	-32768	-8641	-6948	-704	-4624	-6674	-29513	7141	-12660	-1256	-8796	8719	-10577	-5294	-8968	3832	12840	-25	156	-100	-15856	5040	-2712	1396	229	406	-15024	1528	1488	185	1804	-163	121	161	1
-10232	-7528	10316	4881	-32768	-11525	-7336	32	-5076	-4670	-32768	7684	-10524	-1136	-10020	8807	-6485	-4504	-9112	3952	12760	35	202	-62	-15480	6792	-2344	700	389	299	-15560	2048	1056	361	1872	-139	124	151	1
-11424	-5704	10616	3244	-32768	-14346	-8396	44	-4848	-1909	-32768	9018	-7988	-232	-9972	10483	-3245	-3216	-9432	3960	12472	51	189	-39	-14936	5624	-2664	150	561	237	-14728	3104	1256	560	2007	-79	125	131	1
-13108	-5092	10452	-2129	-32768	-16438	-13492	360	-6592	397	-32768	8192	-6772	1220	-10820	14471	-1933	-2134	-9280	4432	12384	57	157	-31	-14912	5224	-2208	345	553	226	-14032	4544	1944	1019	2049	37	129	117	1
-17264	-6688	12104	-5908	-32768	-17661	-14344	-904	-10364	7047	-32768	8387	-6432	3076	-11164	18662	-854	-1455	-9112	4496	12544	57	159	-58	-15768	6000	-2048	702	480	260	-15784	6456	3088	931	1997	21	127	116	1
-23672	-7580	19804	-8016	-32768	-18826	-17536	2912	-11980	7977	-32768	9493	-5964	6760	-9564	18021	-925	1246	-9088	3872	12392	44	167	-98	-15544	5176	-1560	835	560	268	-15560	6528	3664	456	2089	-46	123	133	1
-32768	-9732	28632	-8778	-32768	-21760	-24012	4376	-14728	1040	-32768	10457	-6724	6028	-5952	14672	-2040	2843	-9064	4200	12608	47	226	-108	-15520	5792	-728	838	687	235	-14896	4320	4592	165	1973	-67	119	139	1
-32768	-10336	29168	-3256	-32768	-20930	-29440	3396	-16648	-14479	-32768	10927	-8600	3768	-408	8222	-4241	2566	-8640	4736	12872	51	308	-149	-16000	6560	560	630	889	194	-16360	3576	6184	-98	1657	-43	125	130	1
-32768	-2752	22584	-2562	-32768	-19056	-25944	-2096	-13952	-26873	-32768	7740	-12016	-2308	3564	1527	-4782	-903	-8864	4304	12616	82	442	-190	-16080	5552	656	319	1218	99	-18232	3664	7056	-157	1637	78	127	113	1
-32768	1608	6952	-3990	-32768	-13936	-24808	-7036	-16204	-21051	-32768	2595	-17888	-5028	7052	-2938	-1465	-3484	-8928	3968	13032	148	629	-213	-16840	4592	624	331	1505	91	-18056	3664	6920	-33	1473	133	133	121	1
-32768	7904	-1480	-13118	-32768	-8449	-22304	-2008	-21164	-15560	-31964	-3494	-25320	-2100	28020	7060	-4924	-4192	-9224	4168	13208	244	947	-233	-17480	5632	-8	213	1767	64	-17976	3160	7744	327	1128	27	139	132	1
-32768	17408	-31216	-27236	-25592	-15206	-12844	3628	-21752	-20317	-13064	-4610	-23808	-668	32767	5144	-8186	-3138	-8680	4128	13904	407	1450	-262	-18568	5720	-1320	-123	2140	-29	-17992	2248	5776	534	747	75	129	132	1
-32768	12580	-32768	-9924	-2339	-10813	-4648	-6784	-18248	-8451	8201	-3266	-21016	296	23524	-6701	-5284	435	-9176	3880	14232	415	2171	-314	-20880	4216	-2384	-212	2411	-13	-20112	4296	5200	775	376	17	129	105	1
-32768	3864	-28640	21058	27403	13547	-15648	-13340	-17252	13695	21309	65	-16256	-4692	8380	-9655	-1899	356	-8592	5520	14344	304	2963	-516	-24344	2840	-1744	220	2607	92	-21592	5056	9736	903	-265	-54	115	127	1
-15880	-4176	32767	19638	32241	17985	-25400	-2600	32364	20712	15457	-1206	-13620	-9532	-2232	-9751	2634	-4297	-8224	4528	14336	298	3109	-552	-29136	4648	3224	1402	2771	143	-25424	7128	22592	61	-2032	-72	134	124	1
-21880	9552	-2316	6947	32767	6268	-32768	27720	-20244	32767	15897	-1736	-25632	-9312	15416	15005	-9463	-13296	-12360	10768	15896	-89	5964	-1548	-32768	6232	10024	1932	3065	54	-23256	640	20528	182	-2084	-41	122	117	1
-32768	15432	32767	1501	24885	4026	-2900	6200	-13872	12239	21939	-795	-15680	-4656	-6904	21037	2823	-6867	-24000	10136	23392	-238	7478	-2359	-32768	2840	5792	1584	3341	107	-27400	-11696	23032	-883	-2587	-711	168	128	1
-11536	-13144	14484	867	19425	11019	-18668	-1336	-8444	10026	20199	-4365	-15268	17472	-13864	17641	15824	6714	-30760	12200	26136	62	8097	-2600	-32768	6656	328	2355	3456	-40	-22464	-4640	5360	653	-1990	-992	121	133	1
-22532	-12260	14584	8859	18380	11120	-16080	-12252	-13596	26551	11598	-7414	-9532	5608	-11572	1161	7649	1140	-32768	15424	26792	109	7451	-3081	-24424	9880	1520	1997	3097	-301	-23776	-2192	-12648	2657	-2147	-1050	127	130	1
-15492	-1712	19736	5968	4422	6228	-17880	4360	-13768	28371	7626	-8260	-14508	-12464	-6328	-11536	146	-1145	-32768	24264	32767	328	5743	-3190	-16368	11312	-14560	984	3106	-369	-23824	2112	-6592	2968	-1922	-751	136	142	1
-12296	-2424	15940	4837	1118	3979	-17176	8868	-8508	-4639	10161	-4473	-22908	-3900	-7944	-969	13942	-9630	-6464	24320	32767	-1190	1993	-2018	-11200	15144	-20856	-1799	2256	-585	-31440	5008	-5024	1649	-2512	581	109	135	1
-11500	-5596	13204	2665	-553	1976	-14324	4416	-7528	-26601	11227	-5785	-17564	940	-3052	-7130	12165	-4457	7120	17032	26992	-330	-2054	408	-17584	848	512	-2314	1210	46	-31336	8608	-4672	104	-2512	491	115	87	1
-10212	-2692	13784	1010	-297	520	-18096	-2220	-5664	-25992	10066	-6199	-14588	-4288	-3064	-13329	12809	-1240	5912	8624	17232	-462	-2039	566	-16240	-4224	1832	-657	-468	295	-29304	5712	-4248	-505	-2537	494	118	50	1
-9480	-3776	13400	247	190	-101	-19148	-9440	-3376	-2957	5820	-4484	-15652	-8104	-2456	-13100	14489	1822	2352	8608	17216	-213	-2705	928	-5320	128	-3728	629	-1290	-268	-20536	3056	-4104	-251	-2431	231	109	54	1
-9460	-3768	13308	103	331	-253	-17196	-3592	-4344	15776	1773	-2898	-15460	-8400	-2836	-6703	14073	2648	-288	8272	16824	-183	-3516	1178	-6048	3344	-2800	597	-2138	-337	-17120	5160	-5544	-200	-2378	139	115	162	1
-9512	-3912	13104	245	351	-241	-15652	4600	-4496	11189	954	-2029	-15164	-5516	-2236	-137	13612	1914	-3976	6736	15872	-271	-4320	1352	-6024	4824	-4240	-102	-2926	-363	-15112	3288	-6632	-463	-2191	139	122	196	1
-9328	-3876	13072	850	178	-2	-14860	5716	-3756	-6927	2895	-2177	-16132	-1664	-804	1203	15358	979	-6152	4640	14176	-199	-5038	1500	-6040	2424	-4280	-493	-3572	-563	-12664	2616	-8160	-874	-2065	177	117	199	1
-9416	-4016	13020	1308	-2	211	-16084	980	-2612	-15894	4428	-3379	-16076	-204	100	-1594	16617	711	-6808	2304	11536	188	-5487	1581	-7216	160	-3808	-314	-4104	-552	-10616	2312	-9016	-998	-1816	154	119	191	1
-9352	-3644	13204	1181	59	279	-16788	-1992	-1572	-11543	4843	-3070	-14388	-1656	1176	-5912	18081	1716	-7072	2800	10112	536	-5599	1469	-7976	1256	-3992	-122	-4731	-544	-8144	1288	-10032	-736	-1434	67	125	204	1
-9412	-3752	13368	425	408	128	-16784	-2412	-952	-515	3751	-2387	-15052	-4016	2108	-4621	19422	2201	-9896	3904	11560	707	-5383	1177	-11536	2640	-5512	-515	-5260	-489	-8072	224	-10464	-618	-991	48	129	203	1
-9476	-3372	13268	-762	701	-132	-16256	1628	-1504	2543	3562	-1596	-15404	-1988	3500	-3813	19641	3076	-10280	4072	11768	740	-5348	1142	-13216	4008	-7960	-923	-5770	-255	-7008	-1456	-10000	-843	-512	-172	116	184	1
-9168	-3832	13076	-1335	703	-98	-16096	2272	-1504	1800	3756	-1485	-15724	532	4936	-8829	18604	2096	-19328	6640	18480	1500	-4673	827	-17416	1392	-11216	-1207	-5996	-266	-6944	-1720	-9816	-916	-418	-223	129	182	1
-9116	-4040	13136	-1306	864	-96	-15620	804	384	-8964	7210	-3399	-16864	-3232	1664	-7162	16303	1074	-25088	10528	25072	1933	-4666	1086	-22736	3720	-13048	-953	-6333	-92	-6576	-6216	-9656	-1493	-1	-377	122	168	1
-9416	-3504	13400	-1270	1989	390	-16540	-1496	-360	-6383	9300	-3260	-17568	-7880	-744	-1649	12840	1008	-29016	10512	28104	1915	-4458	1582	-28544	2904	-14104	-420	-6555	-123	-7640	-4456	-3144	-1136	-488	-333	123	162	1
-9680	-3032	13440	-1450	3185	346	-17388	-224	-1908	-284	9987	-2304	-17512	-6712	1780	-1138	13028	1393	-32768	6160	29696	1883	-4233	2459	-30008	2608	-18488	1112	-6443	-163	-11240	3160	4768	-438	-997	289	128	161	1
-9344	-3068	13444	-2378	4858	107	-17668	1752	-1092	-419	10497	-1785	-17464	-2896	2004	1240	12834	1428	-32768	3888	23384	2045	-4739	3465	-23320	12528	-20224	2786	-5898	31	-14104	7288	10296	566	-452	1037	126	145	1
-9448	-4248	13204	-3166	7070	187	-17296	1296	996	-315	12778	-1914	-17448	-2676	2236	1214	12512	1326	-32768	3944	-7128	18	-5068	2726	-17088	11880	-21112	910	-4441	513	-21592	5504	27384	90	426	1187	126	114	1
-8924	-4248	13700	-3897	10059	376	-17168	740	1556	2383	15563	-2094	-18372	-1584	6712	-3809	6770	225	-32768	-32768	-31808	2026	-3068	2277	-15448	-744	-21320	-334	-2276	1173	-22040	3160	32767	-1851	-497	249	121	114	1
-9232	-4104	13260	-4444	14478	940	-18356	2152	-892	5045	18120	-2129	-16576	-772	4668	-5806	5314	335	-32768	-18728	-32768	3027	-404	2791	-840	5584	-18928	435	866	105	-21416	-2784	32767	-1261	-1030	-786	122	119	1
-9392	-3296	14104	-4791	19992	1322	-19540	1356	-2640	5846	20342	-1815	-18152	-5752	980	-5770	4394	1084	-32768	-30576	-32768	-2838	3807	-1056	-12008	17312	-14672	-554	3459	-320	-16360	336	12160	1676	-280	-426	126	101	1
-9020	-6412	13628	-4454	26749	3583	-24344	2584	-764	3816	22219	-2085	-22392	-7020	4092	-7355	2417	873	-27888	24480	32767	-2890	3984	-2974	-21728	18664	26616	-2097	3220	273	-12560	8048	-2344	1591	501	706	121	131	1
-8476	-6960	12996	-3150	32767	7947	-28224	5532	596	-364	24568	-2893	-25808	-3004	16676	-2426	-8869	180	-8560	-12928	3608	-390	3511	-1472	-32768	-12528	-12136	-3769	1741	924	-11536	15696	18856	-734	907	1710	124	100	1
-14088	-8484	13772	-965	32767	13476	-32768	10840	7132	-4741	27673	-1756	-23420	3536	20308	-9212	-20119	512	-32768	-7528	32767	-940	3543	-865	-13456	1392	-13352	-1278	4625	-1590	-29176	8416	-9112	-1425	2235	422	128	53	1
-24712	-3028	18008	-3215	32767	14047	-31164	11516	7128	-5386	29982	316	-22900	3096	8652	-10092	-15101	4941	-5768	7008	11352	-877	2030	-1368	-18016	4072	-6504	-1886	3353	49	-13528	-14488	-16960	-2568	1220	477	128	40	1
-32768	-8208	25616	-6007	32767	16194	-31380	-2312	-3964	-4537	31152	401	-24876	5424	3864	-14025	-19534	4797	-23496	9416	19080	-1364	2450	-1307	-9888	6936	-12168	-1625	1823	523	-6056	-2176	-9024	589	1222	387	128	52	1
-32768	-17588	20640	-3991	32767	23276	-29656	-3660	-940	-3397	30534	-2598	-22600	1584	-13076	-10158	-18773	3119	-12064	2032	15320	-1142	783	-1077	-15256	4840	-12888	-2838	2238	539	-17872	7280	-5432	194	525	130	116	76	1
-30688	-22092	26392	-3488	32767	28178	-21588	-4272	-3556	-1944	26047	-3627	-25220	-2808	-9396	-11857	-26501	-2405	-12200	192	16696	-914	400	-748	-25584	-4336	-8264	-527	1796	720	-25224	1680	-5416	6	1274	997	134	36	1
-24616	-19220	32767	558	32767	25150	-14552	-6764	-13180	5794	20591	-2074	-26592	-4196	-5708	-12125	-25055	-7524	-10992	5472	12952	-395	83	-361	-15176	168	-8376	3120	847	1076	-15104	-56	-2248	881	1328	527	117	45	1
-32768	-25048	32767	-3903	-9733	6437	-10488	-216	-14908	14032	8701	-351	-26656	-4912	-4824	-10815	-24820	-7958	-9736	4136	12976	-195	17	-189	-14800	8992	-5096	2906	503	564	-13832	5424	-592	1205	1468	73	101	55	1
8344	-14544	21432	-3811	-30691	-1950	-13896	4224	4320	-5461	-1893	-529	-28884	-3236	-5852	1975	-20873	-6490	-9232	3960	13168	-184	20	-146	-16488	10960	-3176	546	742	439	-16032	7352	-1256	823	1497	-109	137	79	1
5304	-7016	14056	-2629	-28322	-681	-10164	1812	1724	-1719	-8815	-1182	-23804	-480	-5640	798	-21895	-6167	-9464	4304	12760	-185	23	-137	-16064	8200	-4320	-1345	926	169	-16968	5176	-1024	539	1596	148	131	107	1
-1332	-8556	16320	-710	-31000	-2311	-3832	8	-3500	-3569	-15593	-568	-17956	-2640	-5820	-342	-20264	-6333	-9288	4880	12424	-156	24	-140	-16120	3000	-4000	-1228	835	77	-16152	3640	-208	482	1686	148	135	122	1
-5532	-7584	16600	524	-32768	-5981	-5276	712	-4552	-7376	-21120	2136	-15364	-4848	-6292	2793	-17681	-6052	-9088	4256	12440	-135	24	-162	-16728	-296	-4000	496	512	277	-16424	3504	1024	417	1693	23	141	174	1
-7752	-6312	14136	338	-32768	-10569	-6568	-104	-4840	-5304	-26800	4800	-13156	-3608	-7384	7201	-13928	-5996	-9488	4120	12528	-127	82	-162	-16744	3984	-3248	1801	282	531	-15856	3328	1768	315	1679	-169	137	188	1
-9440	-5908	12396	1544	-32768	-14030	-6464	920	-5356	-4051	-31816	5907	-11376	-1244	-9028	10244	-9955	-5329	-9256	3832	12768	-74	149	-125	-15576	7024	-2128	1321	370	414	-15224	3152	1864	226	1699	-168	118	165	1
-10500	-5016	11760	3009	-32768	-16300	-7680	1252	-4784	-3549	-32768	6740	-9456	-560	-10136	11085	-6679	-3715	-9240	4152	12656	-64	162	-118	-14656	7464	-1920	53	694	244	-14304	3848	1888	157	1718	-160	120	160	1
-11176	-2972	11508	1275	-32768	-17315	-9576	1520	-4884	-1267	-32768	7956	-7720	272	-10336	11052	-3389	-2851	-9472	4496	12104	-48	144	-114	-15024	5672	-2296	-255	812	162	-15072	4080	2128	148	1761	-43	127	145	1
-13792	-1788	12156	-3437	-32768	-17143	-14132	820	-8728	1848	-32768	7424	-6128	2188	-10692	11789	-2222	-1589	-9416	4176	12464	-56	132	-118	-15208	3344	-2640	284	745	241	-12800	3872	224	474	1843	92	125	131	1
-19008	-2816	17168	-7014	-32768	-15161	-15344	976	-10440	4352	-32768	8863	-6116	4232	-10124	13340	-444	-984	-9248	4024	12704	-77	145	-126	-15064	5944	-2584	669	728	261	-15536	5032	2816	675	1867	-82	127	127	1
-29168	-3068	26148	-11392	-32768	-14896	-19256	5704	-14252	1197	-32768	9344	-5344	6968	-8320	13493	493	1252	-9216	4264	12552	-89	152	-131	-16256	6104	-2696	465	794	215	-15880	5384	2240	605	2075	-150	124	132	1
-32768	-7440	30744	-11114	-32768	-15885	-26228	3716	-16000	-10473	-32768	9575	-6160	5712	-4100	12480	-1344	2386	-9040	3896	12616	-38	277	-186	-16504	4352	-2776	382	905	178	-15952	4528	1272	325	2117	-105	119	130	1
-32768	-6292	27428	-6702	-32768	-15223	-28736	2688	-15712	-24794	-32768	8714	-8712	1392	696	5381	-3777	771	-9360	3464	12896	56	418	-188	-16600	4200	-2248	527	966	174	-16424	2808	3520	-19	1878	-61	128	118	1
-32768	-2240	16104	-7864	-32768	-14729	-25108	-4396	-14840	-25718	-32768	4100	-14376	-4256	3124	-5505	-2272	-2317	-9008	4032	12552	158	640	-198	-17104	4600	88	559	1165	194	-17912	2552	7152	-249	1706	24	133	124	1
-32768	-56	1692	-10374	-32768	-9695	-26956	-4524	-18460	-17200	-32768	-1527	-23804	-4596	21348	-231	-4075	-3595	-9272	3656	12960	249	908	-255	-16688	5128	1120	416	1476	186	-17200	2440	10472	-23	1395	51	125	126	1
-32768	15796	-18636	-21364	-27731	-14315	-17536	2532	-25204	-16469	-22176	-4636	-28656	-6004	32767	10391	-8493	-4519	-9496	3920	13632	206	1368	-321	-17936	6464	752	64	1893	106	-18440	3920	9472	289	995	95	132	105	1
-32768	21524	-32768	-15821	-9542	-18773	-4032	-3056	-20008	-9587	719	-3557	-21508	-1196	32767	4724	-4299	-6	-9192	3720	14752	129	1959	-427	-18408	6360	512	5	1951	93	-19896	6280	7696	451	724	77	127	99	1
-32768	12232	-30956	10678	13792	249	-9536	-10616	-20436	5863	20168	409	-17720	-1948	14592	-1143	-3021	2746	-8864	5024	14072	37	2724	-629	-23560	4288	-720	16	2563	87	-22016	6136	10520	570	248	33	111	131	1
-5960	20884	6764	20387	28304	15480	-11720	-11360	-20860	9411	22528	778	-12196	-2364	1584	-12299	2722	-13	-9088	4128	13888	63	3839	-989	-28016	3440	-336	780	2726	204	-23472	-552	25552	291	-1949	55	126	131	1
8248	-21628	29576	13085	18814	13064	-32768	15804	30540	32767	11870	-292	36	-4716	-3320	7705	5935	-8009	-9536	9192	13952	-32	5465	-1460	-32768	-2464	7616	2136	2979	360	-21936	-13544	21536	735	-1455	-496	123	114	1
-16692	5964	12236	3245	32767	8002	-17240	18920	-19756	22892	17020	-2553	-29712	-9352	400	3768	-3042	-11758	-20824	8552	21280	-303	7348	-2094	-32768	1568	8112	2776	3070	400	-31360	-5096	16040	1153	-2366	-620	140	126	1
-32768	11188	32767	4945	15283	8405	-20656	-5364	-17080	9386	22577	64	-29688	3084	-5308	27080	1842	-5626	-32768	8208	30096	121	8369	-2276	-32768	9152	1928	2970	3228	54	-25816	2656	12064	1520	-2740	-919	154	129	1
80	-11540	8044	88	21782	5160	-15864	10216	-6632	13911	16916	-6073	-14960	18964	-19168	840	19502	-1230	-32768	13712	29368	202	7971	-2919	-27512	13000	296	2326	3151	-427	-25520	6296	-6744	1695	-1894	-405	130	134	1
-19680	1868	20752	-1715	20611	4071	-10696	-4488	-11140	16783	9684	-6127	-7596	-1576	-15232	-17819	6248	4370	-32768	21800	30912	197	6511	-3393	-19944	13784	-3888	486	3047	-441	-25480	12784	-7496	1766	-2592	-126	154	141	1
-21264	-15900	11692	4214	5809	5321	-20172	-8240	-12824	7387	9478	-7738	-14080	-13124	-3848	-8945	5090	2542	1488	24512	32767	-782	3322	-2766	-9504	18472	-13264	-941	2665	-649	-26832	7800	-2520	677	-2635	437	131	154	1
-13972	2892	20448	5354	4030	5022	-19044	4704	-6704	-6290	9050	-6618	-22932	-10720	-8492	-5412	10779	-5463	-17480	26416	32767	-394	-1488	2	-12224	4592	-8312	-2954	2063	-427	-29824	9896	-5592	-510	-2315	779	130	150	1
-11048	-7776	13284	2803	1806	1881	-14940	1716	-6400	-20060	8711	-4739	-17664	-3420	-2984	-3725	10734	-3421	7304	15040	15120	-945	-2255	715	-18136	-1560	3296	-1738	294	137	-29352	5840	-5552	-943	-2342	727	115	133	1
-10116	-3996	13940	842	1281	396	-17460	-2072	-4864	-15525	7546	-3162	-14704	-1340	-1628	-8431	13926	223	2560	9576	15424	-976	-2525	1127	-6936	-1032	-2824	-428	-808	-592	-23224	4392	-5200	-707	-2365	447	112	95	1
-9872	-3496	13776	-70	1826	-118	-18000	-2468	-4284	-13883	7098	-3176	-17932	-4444	-1204	-9367	14112	1197	496	9824	15760	-829	-3355	1441	-4480	3208	-3552	295	-1728	-827	-18872	5744	-6296	-685	-2344	376	113	163	1
-9892	-4512	13120	-775	2164	-653	-17728	-376	-3392	3526	2908	-3244	-15224	-4136	-1460	-8461	13566	3202	-2856	8304	14592	-820	-4188	1600	-5112	5952	-3320	-17	-2638	-827	-15120	3400	-7104	-1184	-2188	419	121	178	1
-9996	-4804	12656	-824	2205	-606	-15488	1132	-3712	-310	3127	-2360	-14520	-4968	-1892	-6230	14463	3744	-5840	6432	12880	-657	-4944	1690	-4736	4784	-4096	-562	-3322	-938	-12832	2384	-7688	-1460	-1973	446	119	170	1
-9800	-4844	12496	-483	1750	-353	-15036	1284	-2812	-9813	3569	-2175	-15544	-3880	-1432	-4783	15835	1671	-7608	5080	11304	-308	-5444	1728	-6520	2504	-3824	-737	-3885	-963	-11208	2728	-9024	-1543	-1691	445	121	175	1
-9668	-4948	12248	265	1369	257	-16236	-940	-1904	-13952	4243	-2639	-14452	-4072	-324	-6628	17267	1372	-9104	5912	10240	-20	-5770	1608	-7576	3112	-4112	-519	-4476	-902	-9296	1208	-9512	-1240	-1304	336	125	179	1
-9764	-4368	12564	660	1215	615	-16544	-2152	-1520	-9064	3753	-2528	-14864	-4456	1068	-7110	17851	1819	-10192	5720	9464	309	-5717	1395	-11264	3488	-5080	-789	-5021	-839	-8112	440	-9544	-1103	-906	270	120	165	1
-9908	-4484	12568	745	1253	753	-16464	-1608	-1872	-3761	3659	-1653	-15728	-4396	960	-6537	17899	2512	-13288	6400	10608	814	-5217	1221	-13432	4464	-8168	-1106	-5573	-622	-7880	-1032	-9040	-1351	-491	75	120	142	1
-10180	-4244	12492	557	1307	676	-16320	-1280	-2228	-3461	3725	-1474	-15464	-2752	1340	-6689	17984	2554	-18632	9344	16368	1203	-4575	1115	-16912	2808	-10248	-1138	-5754	-564	-7152	-3576	-10016	-1647	-62	-35	116	145	1
-9848	-4608	12512	453	1565	853	-16080	1408	-1612	-6384	4895	-1420	-15828	-3360	1612	-8025	17495	1891	-26168	14056	23968	1494	-4696	1473	-21016	5552	-12560	-1195	-6039	-348	-7144	-8360	-7872	-1411	-36	-150	127	146	1
-9708	-4332	12536	89	2135	922	-15684	-556	1144	-8746	7944	-1799	-15988	-4584	2064	-5921	15095	1352	-28992	14296	26336	1313	-4713	1959	-26360	4928	-13264	-1071	-6200	-299	-8696	-7400	-2096	-1102	-459	-315	129	141	1
-10012	-4180	12636	-940	2913	1115	-15912	-1532	236	-3709	9246	-1339	-17112	-2260	2640	-3141	11643	1359	-32768	9312	25216	1486	-4467	2579	-29304	2216	-14528	484	-6170	-78	-13592	-824	5680	-743	-1052	-31	123	154	1
-9436	-4416	12920	-2317	4122	1493	-17200	468	96	-1067	10339	-958	-18024	-2248	3228	-2553	12140	837	-32768	2336	19368	2026	-4170	3049	-24816	9984	-15736	2024	-5873	217	-15584	3360	9696	-400	-586	629	125	167	1
-9296	-4436	12428	-3030	5875	1545	-17400	716	-36	-979	10508	-965	-18140	-4256	3344	-2926	11424	462	-32768	1968	4864	1457	-4272	2539	-18880	11552	-21384	794	-4924	643	-17096	6080	20040	-51	110	819	125	124	1
-10168	-4348	12968	-4282	8571	1325	-17684	1732	960	2747	13622	-502	-19256	-4316	4872	-2334	9292	847	-32768	-22528	-14216	1662	-3265	1804	-16832	4112	-20728	552	-3020	984	-20632	-216	32767	-839	-463	422	125	128	1
-10436	-4020	12728	-5231	12333	1103	-18408	2628	12	5615	15785	-901	-18180	-2560	5300	-2385	8303	2006	-32768	-30928	-32768	2426	-1813	1070	-5472	2744	-18288	1766	-467	669	-18424	-3240	32767	-61	-980	-274	125	112	1
-10164	-3464	12940	-5943	17312	832	-19448	2784	-1016	7792	18001	-620	-18780	-2088	3108	-2302	6533	2657	-16328	-6296	-25328	-779	1218	-1165	-7368	11152	-16296	668	2141	53	-13504	5224	13312	2040	-393	-299	125	87	1
-10376	-4540	13092	-6378	23430	999	-22108	3396	-232	7294	20383	-520	-22508	-3672	3136	-3519	4907	2868	-1736	-17624	-5064	-2078	3408	-2892	-15080	14752	-12280	-1995	3189	-92	-10728	6728	2344	1882	344	745	124	113	1
-10348	-6992	12856	-7259	31026	2996	-25292	6500	3008	3095	23002	-1313	-23980	-1884	9028	-5448	1126	1300	-4304	23608	31552	-348	3218	-2169	-32768	-7768	7512	-4872	2792	307	-14944	8200	6944	-186	912	1207	122	116	1
-12544	-7300	13604	-7235	32767	7177	-30732	6284	5368	-575	25935	-1365	-28188	-920	20232	-250	-10385	1129	-32768	-1840	32767	-585	4891	-1182	-16288	704	-16776	-1377	2066	-442	-32768	11504	7472	-832	1660	481	126	69	1
-17460	-8684	15300	-5285	32767	11531	-32768	9732	12416	-1559	28536	1627	-20920	1312	16412	-14849	-20854	-81	-16176	-136	18224	-735	1983	-1469	-17160	7240	-11784	-1334	4118	-750	-16496	-9296	-11712	-1859	1431	587	132	59	1
-32768	-10556	20944	-8074	32767	12555	-29820	3464	2108	1589	31878	1991	-23720	1136	8532	-10708	-19577	5330	-16192	22216	11944	-1539	1940	-1462	-15144	10328	-9376	-762	2076	789	-8216	-4848	-7832	631	1186	360	130	68	1
-32768	-16604	22308	-8684	32767	19929	-32768	-7128	300	1367	31697	-591	-24724	-1168	-8520	-5903	-21170	3403	-16128	-3504	20592	-1431	800	-1203	-9040	5224	-12272	-1585	1986	854	-11040	8264	-8192	1380	389	-130	134	85	1
-32768	-22512	22856	-1171	32767	29275	-25548	-6200	2360	6490	29948	-3599	-23572	-2764	-14612	-5797	-21500	1096	-13496	4040	17256	-1199	430	-873	-23616	-1272	-9768	8	2097	467	-23528	9104	-6968	406	1169	975	120	67	1
-31116	-20976	32767	525	32767	27554	-19980	-3000	-11788	5894	23215	-3381	-26328	-3912	-8428	-5799	-25515	-5875	-10248	5032	13792	-510	28	-341	-17864	424	-8136	2473	1012	814	-19784	-152	-4320	326	1348	677	116	6	1
-32768	-10296	32767	-645	7974	15954	-14516	-2844	-12764	13494	13263	2505	-18740	-13760	-26936	18138	-18743	-10148	-9568	2632	13728	-273	-17	-182	-16008	7648	-6440	2101	632	489	-15112	1128	-1656	858	1565	118	112	40	1
-4	-15992	32767	394	-26703	4234	-10172	1536	188	-1227	206	2001	-26524	-5536	-8512	7184	-22032	-7546	-8776	4200	13168	-136	37	-106	-15800	8632	-4136	140	929	344	-15080	5384	-2584	748	1564	-104	134	69	1
4064	-8320	19348	5785	-29167	5961	-11272	2616	3472	-3952	-5208	1965	-25052	-704	-7396	3801	-22382	-5079	-9336	4200	12824	-53	116	-59	-16944	6696	-4856	-1182	877	230	-17320	5360	-2064	398	1654	2	134	105	1
560	-6184	17360	3738	-32084	4300	-4804	324	-1988	-3336	-12693	2514	-19132	-1080	-7648	1094	-21219	-5429	-9272	4856	12600	-2	146	-57	-16640	2896	-4416	-849	772	184	-16560	3648	-736	232	1757	92	139	105	1
-4992	-6532	17428	124	-32768	925	-2876	-544	-4672	-7962	-18709	4763	-14752	-3800	-7904	658	-19671	-5761	-8976	4544	12432	-6	127	-86	-16656	1224	-4320	954	419	337	-16344	4144	48	268	1790	61	146	118	1
-8668	-7404	15044	-2203	-32768	-3093	-5644	-1332	-3980	-8676	-24680	6685	-13088	-3880	-8168	5655	-15253	-4132	-9112	4648	12568	14	139	-95	-16200	5720	-2600	1978	210	508	-15720	3784	1120	315	1796	-132	126	119	1
-9392	-7584	14636	-2418	-32768	-3915	-6440	-1288	-4976	-7205	-30094	7530	-11984	-1636	-9332	8406	-10644	-4781	-9112	4280	12592	53	192	-87	-15608	7536	-2416	1294	251	372	-15016	4064	720	319	1799	-201	120	133	1
-13016	-9496	10664	401	-32768	-11026	-7780	-472	-5668	-4544	-32768	8345	-9848	-616	-10496	9548	-6812	-4233	-9224	4168	12480	53	183	-88	-14880	6928	-2144	233	547	233	-15272	3752	1272	152	1864	-211	125	128	1
-12388	-8228	9108	2276	-32768	-14043	-9636	312	-4608	-2626	-32768	9463	-8384	160	-10316	9815	-3463	-2715	-9152	4584	12432	33	156	-104	-15296	5912	-2024	71	635	190	-14800	3728	1960	500	1942	-22	118	107	1
-12528	-5708	8324	-1509	-32768	-17265	-14176	2320	-5920	133	-32768	9228	-7148	1240	-10384	12674	-2152	-2072	-9256	4536	12456	-18	118	-137	-15544	5496	-2488	464	559	243	-14880	4272	2536	833	2061	97	126	93	1
-15860	-6440	10516	-6221	-32768	-19892	-16796	500	-10148	2992	-32768	9814	-6308	2800	-10160	16655	-1123	-1580	-9176	4712	12400	-65	100	-160	-14624	6328	-2208	678	623	216	-14920	5816	2920	961	2103	-16	127	82	1
-26764	-8644	21932	-7930	-31938	-20937	-19532	2168	-12952	4070	-32768	10189	-6912	5960	-8428	16935	-937	412	-9312	4600	12480	-70	125	-199	-15520	6704	-2240	535	674	157	-15368	6760	2248	725	2188	-120	123	76	1
-32768	-11584	27972	-3594	-32768	-20453	-25372	1756	-13664	821	-32768	9821	-6784	6500	-4844	13997	-2604	2568	-9088	4032	12392	-42	221	-210	-16280	4672	-1448	604	792	166	-16000	4848	2760	338	2068	-93	117	89	1
-32768	-9080	30288	1263	-32768	-18762	-30620	1140	-16708	-6276	-32768	11249	-8484	3312	596	9203	-5521	2982	-8752	4496	12696	-6	305	-231	-15824	4992	-8	667	924	148	-16400	2784	4608	-11	1659	-93	124	102	1
-32768	-1868	25184	-503	-32768	-18123	-25900	1412	-14728	-21617	-32768	10254	-12804	-3076	4808	3495	-6916	95	-8528	4200	12928	70	453	-269	-15536	6616	1008	408	1164	128	-17408	1840	7592	-301	1598	-1	130	119	1
-32768	-1304	8048	-3927	-32768	-13160	-23380	-5372	-17228	-23782	-32768	3351	-19524	-3628	9668	1603	-4026	-3700	-9200	4064	12992	148	723	-298	-17592	4648	360	16	1546	87	-18992	3288	7288	-213	1537	164	127	162	1
-32768	10392	-14032	-13712	-32768	-9038	-21512	-552	-20504	-19930	-29050	-3430	-25804	-428	31968	9279	-5348	-3785	-9376	3776	13272	282	1132	-297	-18320	4200	-416	98	1865	57	-18944	3896	7544	318	1237	88	135	152	1
-32768	21884	-32768	-27618	-22024	-15860	-10688	-180	-22432	-16080	-8777	-4905	-22244	-888	32767	817	-7870	-796	-9456	3616	13832	313	1703	-313	-18976	5808	-1560	-17	2092	30	-18192	2752	5208	445	818	68	130	141	1
-32768	9788	-32768	-4973	45	-9058	-4980	-8444	-20504	-894	10778	-1495	-19592	-1900	20716	-5361	-6891	2432	-9192	4592	14000	207	2365	-390	-21200	5168	-1920	-186	2434	-1	-20712	4440	5296	643	444	8	125	134	1
-32768	7308	-16704	21376	18210	9392	-15096	-10936	-20584	17965	23536	1160	-14680	-6812	5828	-8075	366	428	-7792	5640	13224	189	3210	-646	-25088	2576	-1552	111	2633	104	-22520	4016	13168	686	-470	45	116	131	1
-24052	-2688	30784	10421	22677	5556	-15836	-4640	-6108	21794	23106	-1187	-8296	-5776	-2344	-84	6256	-5748	-7704	7368	13456	228	4552	-1014	-30232	312	5472	1537	2830	270	-21144	-24	24856	147	-2621	50	127	132	1
28540	-12716	10560	-47	21429	10319	-32768	23652	20404	32767	8781	-2945	-2284	-8832	-19408	1083	14518	-10068	-12016	11512	15456	-85	6247	-1788	-32768	608	10048	2550	3089	404	-24912	-12752	21464	396	-2246	-565	134	133	1
-32768	-400	32767	-1445	32767	6837	-18032	4576	-18996	14479	17337	-355	-32768	-4712	12516	19117	-6240	-7177	-27504	6752	21000	-349	7919	-2413	-32768	4856	4816	2689	3137	364	-28048	-3368	19784	1024	-2719	-807	117	145	1
-16816	4404	20684	1571	19531	10764	-19768	-5144	-9580	13621	20405	-3186	-20956	8204	460	18078	7698	-1911	-32768	12984	30336	598	8406	-2511	-32768	12128	728	2843	3359	-224	-23672	6640	3072	1907	-2064	-969	141	135	1
-10308	-17540	8228	1693	20959	6736	-17144	3652	-10496	17310	14221	-5660	-10496	16380	-6788	10994	22364	-3036	-32768	14832	25672	296	7414	-3295	-24320	11936	792	1518	2997	-421	-25824	9408	-9064	2357	-1570	-333	139	143	1
-22432	1708	21524	5478	10849	7422	-13204	-7196	-13852	15398	10255	-9269	-5968	-5940	-13912	-21948	-2359	7112	-32272	26904	32767	558	5403	-3285	-16352	14712	-11296	622	2994	-533	-26896	9928	-8088	1432	-2567	156	142	147	1
-12388	-12280	12724	5557	5365	6019	-18892	1480	-8760	6289	8430	-7786	-17420	-13468	-7908	-8681	12096	-4586	-18648	30456	32767	-896	1560	-1765	-9552	15728	-22192	-2599	2358	-733	-29912	4280	-4240	65	-2549	589	136	145	1
-11612	760	16768	4682	2361	3875	-15600	4024	-6944	-12597	9113	-5049	-23332	-5352	-5392	-5174	11803	-5663	9920	17952	21304	-672	-2087	381	-16888	912	3472	-2662	1108	6	-30440	5184	-4952	-718	-2413	604	117	129	1
-10836	-4880	14184	2621	1650	1937	-18000	2644	-6400	-23984	9425	-3970	-17356	-2936	-3256	-7927	14357	-2424	7176	8696	13488	-613	-1550	729	-14848	-4952	736	-1511	-515	71	-26840	1056	-7928	-425	-2776	527	115	87	1
-9304	-2940	14296	552	1654	393	-17636	-2652	-4444	-13565	7032	-3982	-14340	-3444	-1084	-9192	15378	806	568	11856	18024	-443	-2260	1036	-3752	-184	-4912	741	-1332	-637	-19648	2280	-6184	-203	-2448	358	119	126	1
-9688	-3776	13448	-462	2083	-356	-17616	-2376	-3828	2043	3926	-3370	-15620	-5752	-2008	-6500	14636	3312	-3776	10320	19600	-498	-3586	1361	-4208	5784	-4880	927	-2307	-440	-19936	2952	-5760	-71	-2479	346	114	183	1
-9668	-4224	13192	-727	2085	-563	-16620	808	-3208	7479	1884	-3157	-15276	-2808	-1112	-3451	13422	4158	-6464	6784	15896	-403	-4716	1706	-6160	5592	-4376	-86	-3107	-273	-14536	1336	-7096	-661	-2193	392	115	187	1
-9556	-4964	12700	-634	2055	-403	-15840	2752	-2624	-1866	2864	-2477	-15128	-3056	-856	-2266	14706	2108	-7816	4656	12912	-179	-5405	1812	-5880	1984	-3680	-627	-3658	-448	-12800	2200	-8176	-935	-1951	423	117	189	1
-9504	-4816	12636	269	1644	368	-15548	1460	-2428	-11852	4039	-2839	-15640	-2244	-292	-3437	15940	393	-8984	2880	11032	116	-5815	1762	-7528	288	-4024	-346	-4201	-486	-10104	1840	-9256	-948	-1653	347	125	177	1
-9836	-4480	12600	1039	1234	807	-15968	-456	-2284	-13098	4515	-3270	-14508	-3076	264	-5534	17271	686	-10072	2928	10504	495	-5945	1617	-8328	1168	-3752	-250	-4851	-386	-7896	-392	-8872	-600	-1260	107	126	181	1
-9624	-3856	12756	1287	911	877	-16196	-1688	-1316	-5652	3969	-2461	-15392	-3704	1284	-5251	17464	946	-10816	2272	9864	986	-5729	1376	-12520	1816	-5104	-636	-5283	-336	-7320	-432	-8840	-471	-926	-5	122	181	1
-9484	-4256	12608	1342	776	1141	-15760	-1060	-1040	-172	3690	-2205	-15104	-3344	2608	-6221	17376	2377	-13984	2848	10928	1445	-5030	1058	-14896	2192	-8216	-922	-5883	-134	-7128	-1040	-8464	-824	-535	-86	114	169	1
-9336	-4620	12672	1308	1040	1511	-16328	484	-764	-2249	5048	-2107	-15284	-3056	3280	-7434	17700	2447	-22264	3800	21216	1962	-4219	925	-19712	1568	-13040	-966	-5987	-69	-7312	-3784	-9000	-1426	-468	-170	123	175	1
-9608	-4500	12476	1171	1487	2040	-16012	1132	-80	-7553	6979	-2702	-16832	-4524	1920	-5014	18097	1321	-31824	6392	27704	2383	-4719	1245	-23984	2928	-14304	-573	-6006	-138	-7744	-5016	-3072	-1243	-1086	-137	129	166	1
-9568	-3944	12804	864	2062	2201	-15636	308	892	-8169	8843	-2697	-16636	-5632	1064	-2287	15226	988	-32768	5120	27280	2137	-4912	1373	-26904	1752	-17344	1016	-6227	-146	-9120	-280	3416	-833	-1441	-111	125	193	1
-9928	-3524	13464	-382	2719	2158	-16632	-1304	1140	-2296	10740	-1946	-17488	-3188	3700	-268	11101	560	-32768	4016	24800	2071	-5261	1548	-23536	5960	-15232	2691	-6067	401	-12192	2344	4328	348	-742	181	126	191	1
-9760	-3764	13792	-1860	4395	1962	-17860	1248	-876	3642	11809	-1468	-18324	-836	3400	-297	11453	32	-32768	7392	11688	1814	-5204	1762	-22064	12208	-13240	1942	-5431	569	-15184	5792	5824	1079	282	584	126	165	1
-9744	-3320	13252	-3037	6234	1678	-18324	3976	-1508	1772	12685	-1596	-18052	820	1208	-3481	10977	267	-32768	5904	-1368	1030	-4321	1960	-20880	8488	-17256	-289	-4356	881	-13792	3616	18240	-166	513	318	127	131	1
-9960	-3356	13212	-3948	9370	1337	-17536	2312	-484	1632	14877	-1692	-18288	-1380	3236	-5565	8616	596	-32768	-12136	-15456	1606	-2453	3180	-18048	-672	-18328	-1138	-2541	764	-17736	4568	32767	-1575	-256	194	124	96	1
-10052	-3180	13228	-4935	14299	1268	-18808	2040	-548	4539	17001	-1575	-18376	-3568	4204	-5282	7322	971	-32768	-21936	-30008	555	-83	3753	-3872	1696	-17176	-239	-67	-73	-22824	4648	32767	-1642	-635	-70	123	113	1
-9796	-3748	12944	-4903	20002	1913	-20020	2124	-1748	7078	19011	-1676	-18780	-4232	2684	-4624	6460	1565	-32768	-26712	-20128	-2041	2081	742	-7984	12616	-18224	-1041	2091	-98	-13904	3392	14296	-145	-209	-239	124	138	1
-9824	-4668	13144	-4306	25916	2730	-21272	2924	-484	6605	21627	-1743	-20620	-6012	3208	-4616	3632	1796	-32768	-11968	-4160	-1443	3383	-1507	-15032	8120	-20144	-3250	3079	-151	-9360	832	4848	517	414	232	123	124	1
-9664	-6780	12172	-3386	32767	6106	-25428	4324	2380	3578	23884	-2431	-22832	-2876	10768	-1710	-1021	1227	11640	26224	32767	-980	3758	-3478	-32768	-6136	31976	-5158	2757	631	-14216	1904	7472	-1119	120	900	122	106	1
-9532	-7128	13896	-2282	32767	11270	-32768	6624	6848	-3224	26269	-2258	-27504	-1728	22324	-8285	-20994	446	-32768	7632	29824	-930	4608	-1796	-24600	3552	-23840	387	1918	210	-30032	10968	10560	-477	1746	1065	128	29	1
-21908	-5060	15152	-2377	32767	14753	-32768	9308	7952	-2847	28482	172	-22684	404	13060	-12549	-15334	1382	-15016	2616	18144	-1308	1921	-1402	-12040	12864	-9032	-330	4254	-911	-15584	-9656	-16656	-886	1495	74	134	48	1
-32768	-8496	21160	-2029	32767	16985	-32544	1088	-1684	2657	31812	608	-27864	-2168	11396	-13484	-21543	3819	-12736	13128	12488	-1613	1998	-1475	-14104	8832	-11352	-1625	2217	758	-3512	-1904	-12832	1019	1453	1098	134	71	1
-32768	-14820	22060	-1994	32767	24016	-32768	-5196	1300	-523	30366	-2110	-24276	3800	-11280	-1080	-19110	3185	-19184	-3320	21976	-1430	849	-1183	-8688	5856	-17888	-2721	1794	469	-13248	7248	-6712	779	291	94	128	121	1
-32768	-21956	27712	1162	32767	29154	-24504	-2708	2728	1678	26103	-3839	-25468	-3420	-8720	-7195	-26560	857	-13200	4360	16432	-895	374	-687	-28000	-5384	-9752	-1624	2543	157	-29024	5184	-9080	-369	1406	872	119	79	1
-32768	-20700	32767	2651	32767	24575	-17424	-5924	-14824	2237	22330	-3091	-25168	-5496	-7544	-9347	-27139	-6695	-9976	4816	13208	-395	14	-298	-17320	-2016	-8576	2003	840	924	-19712	-3776	-3112	175	1445	534	120	85	1
-32768	-18512	32767	-7885	-11058	8286	-13336	-4312	-12940	8948	12173	2109	-30524	-6000	-7704	1663	-26230	-10717	-9320	2480	13616	-222	-37	-160	-13808	4832	-6104	2835	427	822	-12464	544	-552	1139	1467	82	83	71	1
8216	-18620	23724	-1646	-32397	4522	-14564	2312	5248	-2140	-1710	1067	-30264	-4860	-9232	5446	-22965	-8771	-8368	4736	12920	-131	23	-104	-16592	10056	-2576	1311	683	540	-15376	7840	-1832	1044	1436	-163	142	94	1
5540	-8620	16436	3383	-30176	5281	-8392	2500	1332	4048	-10092	1121	-23852	-1088	-8004	2482	-23616	-7518	-8824	4432	12872	-100	81	-96	-16624	9640	-4520	-593	708	387	-17232	7456	-560	451	1549	63	129	118	1
-376	-8416	18396	1168	-32768	-55	-1548	1616	-3840	309	-15820	3441	-17840	-3336	-8592	-115	-21195	-7898	-8872	4968	12728	-101	108	-100	-16336	4744	-3760	-1041	689	111	-15976	4104	216	270	1730	149	141	105	1
-5268	-9136	17784	-906	-32768	-6966	-3136	1128	-4328	-8736	-21501	6633	-13508	-5464	-9236	1924	-19134	-7542	-8808	4640	12776	-86	116	-116	-16832	800	-3304	401	428	251	-16216	3016	608	503	1783	23	141	139	1
-8792	-8820	14404	-682	-32768	-13714	-5712	-1220	-4696	-6556	-28432	8726	-12480	-4508	-9784	8181	-14711	-6212	-8936	4216	13056	7	162	-87	-16264	3624	-2536	1738	162	479	-15328	2976	1792	528	1796	-105	123	137	1
-11488	-9156	12172	2894	-32768	-18446	-6320	-800	-5392	-2751	-32768	10305	-10852	-1512	-11120	12448	-8807	-5487	-9016	3968	12680	77	215	-49	-15392	6200	-1784	1525	196	449	-14848	3112	2600	494	1771	-189	124	134	1
-11996	-7260	9528	6523	-32768	-20789	-7892	-904	-3928	-1206	-32768	11417	-8580	180	-11428	14163	-3933	-3921	-8896	4528	12344	92	239	-44	-15080	8160	-1048	522	481	288	-15176	4536	2416	358	1853	-170	124	125	1
-11156	-3488	7408	3090	-32768	-21479	-12464	1724	-3832	2100	-32768	11847	-6784	1728	-11148	15135	-1525	-2246	-8888	4232	12408	28	214	-77	-15128	5744	-1232	-18	658	218	-14464	3744	2464	421	1909	-15	121	144	1
-15528	-3428	9824	-3558	-32768	-21082	-16660	-2080	-11676	7892	-32768	11718	-6056	3196	-11316	19943	-460	-1586	-9000	4640	12480	-31	162	-125	-15032	5016	-1608	368	663	224	-13512	4736	832	759	1879	119	124	135	1
-26896	-6880	21972	-6880	-32768	-19508	-17020	2120	-13140	9892	-32768	13027	-6028	6880	-9800	21707	-614	1007	-9200	4448	12328	-57	141	-160	-15416	5496	-2216	770	659	268	-15376	5968	2576	610	2038	-25	125	125	1
-32768	-8608	28864	-4897	-32768	-18691	-22444	2948	-15288	1425	-32768	12142	-5504	8220	-6508	19559	-2106	2850	-8888	4024	12768	-43	182	-182	-15808	5504	-1520	870	759	278	-15304	5096	3184	314	2206	-52	121	126	1
-32768	-5688	29084	-3024	-32768	-16769	-28840	3108	-16996	-14669	-32768	12509	-7352	6412	-476	11863	-5235	3923	-8992	4264	12640	-20	270	-192	-16520	5248	-432	894	895	268	-16024	3328	4624	106	1978	-68	119	130	1
-32768	-292	23952	-6625	-32768	-15077	-24472	820	-14484	-29786	-32768	8777	-11272	1104	4252	2914	-6466	807	-9128	4432	12656	-28	292	-193	-16200	6480	1800	749	1091	230	-17208	3912	8168	-187	1729	-37	127	114	1
-32768	-556	11980	-10041	-32768	-10941	-27196	-6276	-16396	-27689	-32768	3726	-16784	-3080	7352	-7454	-3630	-2311	-9192	4216	12864	36	567	-247	-15536	6096	1960	386	1472	115	-17032	3944	9848	-182	1656	92	134	127	1
-32768	5304	-4820	-13591	-32768	-4734	-24216	-1968	-18952	-21316	-32768	-1838	-25356	-2972	25596	-803	-5559	-3737	-8912	3520	13520	184	839	-247	-17288	5368	1272	180	1892	64	-18800	3056	8480	327	1546	181	137	141	1
-32768	16344	-26280	-23429	-26691	-8443	-12424	132	-22296	-19479	-15854	-4602	-25932	-3156	32767	-2540	-8747	-2932	-9272	4472	13832	348	1286	-261	-19384	4776	-624	56	2171	9	-19088	3720	5584	586	972	85	138	137	1
-32768	13136	-32768	-12161	-6294	-9331	-10032	188	-21608	-18009	-12128	-4590	-18732	-3940	24748	-6137	-6345	325	-8496	2864	14480	521	1957	-292	-20264	5056	-2528	-76	2425	-46	-19504	4000	5248	804	548	25	134	135	1
-32768	6412	-22280	14687	15039	6760	-13852	-10292	-20116	9662	20418	260	-15864	-5824	8984	-4879	-1791	389	-9008	5216	14504	387	2804	-449	-24048	2920	-1888	138	2668	60	-21776	3464	8880	874	-112	23	110	131	1
-32768	5104	2780	14922	19994	8186	-14784	-4948	-22892	27467	23932	-1963	-10280	-5828	-2352	-6133	6333	-3701	-7944	4416	14000	450	3982	-693	-27888	2176	1912	1325	2843	173	-22464	3240	28480	252	-2476	148	113	147	1
7392	-16732	27800	11031	15481	4150	-23888	17024	24252	17504	12786	236	8744	-4748	-16408	13774	17489	-9385	-9400	10608	14616	378	5674	-1320	-32768	-16	8544	2543	3096	354	-20472	-13896	22112	1019	-2028	-498	128	144	1
11424	10744	-14004	-647	32767	11158	-28840	17440	-12980	25699	14475	-4808	-32768	-2360	2532	9089	-3049	-3609	-21952	7776	21296	103	7559	-2085	-32768	2424	6544	2785	3293	454	-28288	-7768	18232	608	-2621	-782	137	160	1
-32768	-264	32767	7976	22891	14643	-17992	-10644	-26476	15055	19102	582	-32768	2416	15788	31708	-7532	-4445	-32768	10936	27488	847	8543	-2111	-32768	10384	600	3118	3196	-91	-22736	6384	6072	1926	-2363	-1066	120	134	1
-312	-17848	6560	5440	16518	6044	-20992	14124	-3000	14995	17659	-10671	-18028	14848	-19556	1514	24980	-3279	-32768	16848	28400	267	7520	-3168	-24888	16952	832	1606	3063	-652	-26312	12784	-10584	2500	-1512	-549	128	110	1
-22028	9104	24892	3614	15084	7282	-12080	-4944	-11956	12933	11622	-7959	-3108	-2496	-20612	-20551	7692	3827	-32768	21496	30744	435	5763	-3353	-23104	16120	392	1228	3068	-658	-27480	14136	-7920	1834	-2341	18	143	115	1
-11188	-12476	10832	2203	8584	5351	-12940	120	-9228	-3205	11128	-6887	-5412	-11992	-1516	-11059	1651	1145	-12320	25232	32767	-561	2567	-2491	-13256	16368	-13096	-2084	2807	-837	-29872	5336	-4424	-126	-2423	582	151	133	1
-14180	-324	17932	3235	5574	3006	-20152	-144	-7856	-9236	10156	-4676	-26424	-13156	-8972	-9479	12054	-6655	848	21184	31312	-898	-1498	-455	-14912	3968	-1424	-2599	1527	-129	-30040	4312	-4304	-960	-2332	593	110	118	1
-11748	-5652	14548	1534	3844	1675	-18684	1568	-5720	-12466	8843	-4423	-20400	-652	-1484	-5374	12037	-3091	6048	10512	16344	-1242	-1800	-136	-14920	-4544	2144	-1262	53	189	-27920	1896	-5176	-912	-2407	505	104	111	1
-8996	-696	14476	-384	3303	-70	-15980	24	-3288	-8280	7392	-3950	-14376	-1948	-56	-8922	13341	1405	2832	9360	16344	-486	-2529	542	-6232	-2024	-4096	204	-935	-350	-21168	456	-4480	-351	-2441	228	135	73	1
-11460	-6004	13916	-816	3523	50	-17436	-56	-3716	-1069	5513	-3523	-15104	-4988	-64	-8426	13362	3192	944	10448	15704	-190	-3337	1034	-5008	1672	-2968	1123	-1948	-519	-18016	4736	-4720	-7	-2301	158	111	121	1
-10204	-4492	13184	-966	3652	-251	-17716	-464	-2392	382	4707	-3159	-15692	-4664	-560	-5935	12160	4340	-2184	8536	14048	-371	-4088	1295	-5224	5360	-2920	784	-2758	-348	-15864	1992	-6376	-408	-2222	271	119	169	1
-10176	-5200	12796	-892	3637	-209	-15868	-1052	-2284	-4159	5100	-2751	-15664	-6208	-1400	-4819	14181	2214	-5320	5568	12800	-283	-4832	1507	-4432	4152	-3920	39	-3396	-447	-12176	2672	-7160	-570	-2031	423	121	178	1
-10500	-4648	12044	914	2887	1220	-15676	-1096	-2388	-4769	5138	-2740	-15652	-4364	-384	-1679	15165	931	-7584	3688	12032	165	-5346	1660	-6144	2440	-3584	-418	-3871	-475	-10480	3112	-8208	-689	-1700	441	122	157	1
-10608	-3836	12616	897	2513	1223	-16256	716	-3240	-7560	4890	-2318	-14272	-3148	-348	-1285	16177	1307	-7296	3960	9200	534	-5714	1645	-7216	2408	-3920	-420	-4417	-420	-9384	2112	-9160	-618	-1332	265	122	174	1
-10608	-3228	12472	460	2451	845	-16528	380	-3364	-5257	4897	-2175	-15496	-2084	-552	-1063	17531	2107	-8064	4016	8632	759	-5429	1380	-12272	2520	-4496	-785	-4971	-312	-8856	488	-8784	-678	-924	139	118	171	1
-10852	-3304	12232	-132	2351	379	-15752	-148	-3280	-3228	4791	-2343	-15628	-736	112	-2957	18210	2385	-12144	4120	9896	1167	-4890	1183	-11688	2416	-7872	-1315	-5461	-178	-8168	-912	-8704	-975	-496	-24	118	182	1
-10640	-3888	12180	-552	2430	230	-15720	16	-2588	-4079	5530	-1737	-14600	-1860	880	-6671	18761	2187	-12376	4656	10024	1231	-4792	1165	-16648	1008	-9608	-1368	-5550	-157	-7016	-3608	-10384	-1566	-143	-109	131	177	1
-10484	-3940	12120	-708	2685	420	-16240	272	-1916	-6317	6514	-2066	-15432	-4176	592	-7573	18726	1509	-23560	11552	23128	1696	-4121	1426	-20992	4128	-12912	-1379	-5881	-121	-7016	-6936	-7272	-1467	-312	-168	123	186	1
-10540	-4228	11888	-838	3026	653	-15336	-236	-1004	-7742	7827	-2024	-15048	-5764	556	-5702	17362	1284	-24552	10520	23952	1347	-3928	1880	-25960	3552	-12720	-821	-6062	-243	-10144	-3376	-1200	-887	-1095	-183	129	207	1
-10612	-4016	11968	-1220	3265	655	-14872	-1192	-592	-5403	9332	-1542	-14548	-4068	2252	-4555	14981	1307	-32768	9624	26752	1312	-3631	2419	-26264	4144	-15216	197	-6100	-204	-12832	3376	4480	-269	-1303	134	125	209	1
-10420	-4248	12056	-1959	4232	656	-16132	-248	84	-805	10543	-1029	-16780	-2456	3228	-2939	13711	1685	-32768	7056	26312	1089	-4359	3037	-21872	13224	-16992	1093	-5576	-82	-13968	5728	11992	377	-642	552	128	214	1
-10752	-4056	12024	-3138	5798	901	-17120	1208	-212	766	12077	-1095	-18084	-2620	2280	-2178	12100	849	-32768	952	5584	388	-4782	3086	-20704	8384	-15808	293	-4321	13	-13552	9952	16744	163	479	702	127	194	1
-10812	-3996	12416	-4490	7353	660	-16840	744	-1412	2594	14132	-723	-17748	-2740	2332	-1926	11671	592	-32768	-10680	-12320	560	-3617	2569	-18136	4240	-18208	-346	-3001	263	-13352	-3088	28672	-1556	476	364	123	149	1
-10696	-3988	12076	-5132	10162	508	-18224	3040	-2004	3493	15800	-830	-17892	-564	2524	-3860	9477	890	-32768	-24400	-27528	2388	-2173	2136	-6624	-1160	-18184	1019	-1100	540	-20216	-4728	32767	-1547	-372	-58	125	120	1
-10760	-3892	11984	-5346	10765	542	-18360	3956	-1196	2597	17850	-1227	-17848	208	3244	-5908	7508	1698	-32768	-12616	-28160	1484	72	759	-5304	9600	-15832	1369	1184	374	-14656	4200	19752	338	-517	-782	123	144	1
-9756	-4592	12420	-4863	20538	1088	-20056	2572	-400	3967	20332	-1210	-21072	-2008	5016	-7833	5417	1825	-28976	-31744	-32768	-3144	3926	-3752	-15008	22960	-16336	-1862	2665	262	-13432	3864	16960	806	-386	-806	124	166	1
-9976	-6316	12936	-5090	29125	2999	-26700	5020	1772	3549	22971	-1670	-25396	-5176	9540	-8935	-1106	927	-31048	21408	32767	-547	4898	-3586	-32768	192	-13816	-6369	3054	856	-23656	15808	23904	-297	129	1695	122	70	1
-12068	-6828	13520	-6107	32767	6759	-32768	7444	6608	-1350	25627	-1010	-29336	-5300	18684	-13874	-16235	781	-32768	7496	31608	-1434	3366	-1942	-27120	-3520	-15952	-2761	3891	-1122	-30408	9792	-7520	-1302	2025	745	128	12	1
-20500	-8428	15620	-5420	32767	12031	-32768	11864	11120	-1539	28146	1851	-26304	-4656	14308	-12109	-18591	2432	-6536	7888	7416	-1550	2114	-1393	-11360	4880	-8576	-1833	4540	-190	-13336	-14872	-23312	-1565	1178	508	132	14	1
-32768	-9684	23532	-3350	32767	16396	-32768	176	-12	3789	31007	2579	-26856	-1404	9712	-2310	-24554	5393	-21728	-1544	21296	-1636	2481	-1432	-8128	3800	-14808	-744	1762	770	-3416	-2976	-12008	1431	729	489	127	44	1
-32768	-19772	23772	-6046	32767	21657	-32768	-5544	1552	1971	31478	615	-23252	-836	-6280	4211	-23428	3362	-14136	6392	14616	-1087	656	-925	-16336	3440	-16576	-1025	1513	767	-25160	9152	-12952	933	751	185	133	70	1
-32768	-25712	26064	-1549	32767	29656	-24984	-9220	-916	7373	30300	-1970	-23604	-2888	-13516	-79	-22953	-320	-10520	1240	15472	-552	197	-491	-30888	-1680	-9960	299	2122	732	-26168	3496	-9624	101	1398	863	110	70	1
-27572	-25584	32767	2610	32767	27719	-20992	-5796	-14596	11982	23142	-2191	-28176	-1952	-6692	-5749	-26296	-7072	-10456	1984	13816	-272	44	-230	-13056	1744	-8768	2677	516	880	-18184	-3080	-2768	772	1597	405	120	31	1
-32768	-26492	32767	230	-351	12353	-14568	-2388	-18924	21498	13632	3224	-28132	-5936	-7408	2405	-25274	-10257	-8992	3680	13064	-97	73	-83	-14968	5840	-4656	2272	509	694	-16360	-2432	-2016	915	1639	311	119	51	1
704	-16056	27364	3724	-29312	3368	-13032	-668	-17676	21968	10644	2784	-30104	-5336	-6928	5207	-24524	-7831	-8896	5000	12752	-55	130	-58	-17176	11560	-3200	647	673	557	-16480	10720	-1472	852	1512	-194	135	80	1
6308	-7012	15372	4938	-29655	4095	-9960	4696	3092	-2032	-5728	1921	-24280	664	-6204	4887	-23724	-5392	-9336	4784	12568	-35	188	-84	-16360	9696	-3632	-825	652	332	-16960	7352	-608	271	1640	70	130	92	1
2248	-6560	16080	1232	-31544	1830	-2904	2324	-2512	-7688	-11775	2277	-19596	232	-6860	-318	-21456	-6328	-9712	4664	12144	-73	183	-122	-15800	3616	-3568	-811	695	61	-16144	4192	-200	239	1799	122	141	89	1
-2436	-7884	15684	-1264	-32768	-2189	-2756	-548	-4196	-15249	-17546	4081	-14664	-3444	-8396	-159	-19142	-5264	-9120	4416	12256	-104	150	-158	-16600	1912	-3584	928	355	259	-15984	2232	536	481	1799	45	143	106	1
-5288	-7712	12668	-1149	-32768	-6457	-4668	-3072	-3688	-11158	-24636	5624	-12632	-2628	-8952	3591	-16446	-4067	-9416	3944	12744	-77	163	-155	-16448	3968	-3104	1870	79	485	-15512	2912	1128	608	1780	-139	125	137	1
-7596	-7864	10768	778	-32768	-9969	-4932	-1588	-4592	-5682	-31096	7164	-11348	-2232	-10000	6816	-11369	-4416	-9440	3424	12768	16	220	-88	-16144	4392	-3168	1878	83	491	-15328	3728	1096	479	1785	-189	127	132	1
-10296	-7332	10792	2768	-32768	-13118	-6124	-328	-5344	-3644	-32768	7793	-9132	-1456	-11292	9131	-6334	-4102	-9480	4008	12328	104	267	-58	-15480	7920	-1744	23	468	241	-15432	4224	1256	212	1874	-187	122	135	1
-10752	-5556	9840	1634	-32768	-15608	-8028	80	-4568	-2394	-32768	8993	-6872	-128	-11200	9194	-2642	-3075	-9512	3840	12248	93	255	-60	-14720	4816	-2784	-93	544	150	-14024	3680	1360	476	2015	10	123	136	1
-12468	-4168	8956	-3634	-32768	-17251	-13140	884	-6976	996	-32768	8427	-6164	2352	-11668	10769	-1168	-2383	-9744	4144	12344	68	230	-68	-15336	4280	-3016	580	528	208	-14160	4264	1992	814	2123	47	127	141	1
-17572	-6708	12904	-7028	-32768	-17997	-14108	-1520	-10608	6784	-32768	9701	-5884	3340	-12160	15515	518	-1628	-9560	3792	12352	44	204	-74	-14952	4120	-2672	1177	528	300	-13624	2192	2544	774	2169	-84	122	134	1
-30132	-9084	25132	-8211	-32768	-19117	-18380	2748	-15128	6445	-32768	10795	-5844	5656	-10524	18225	207	1538	-9456	3872	12096	44	204	-74	-15440	6544	-736	1194	603	283	-15512	5416	3304	450	2147	-165	121	128	1
-32768	-11024	30408	-5298	-32768	-21172	-26156	3340	-15500	-3019	-32768	10852	-6328	4732	-6484	15856	-1915	3244	-9536	4288	12088	33	264	-137	-15920	6768	808	735	798	234	-15640	4872	5072	-81	1882	-71	118	126	1
-32768	-7080	29960	-1881	-32768	-21155	-29144	3508	-16164	-17844	-32768	10976	-8540	2564	-808	10781	-4796	2464	-9680	4632	12120	73	358	-179	-15144	6024	1432	375	1143	145	-16496	4512	7080	-272	1641	52	122	113	1
-32768	-1356	21428	-4067	-32768	-19463	-26204	-2624	-13628	-27051	-32768	7577	-13044	-2528	3384	4867	-5554	-1563	-9368	4168	12808	157	536	-222	-16680	5080	816	337	1431	140	-18320	3272	8384	-105	1723	96	125	135	1
-32768	-5180	1904	-4541	-32768	-11559	-27328	-6708	-16652	-19229	-32768	1737	-20704	-2028	12872	569	-3800	-3621	-9536	3824	13048	235	825	-245	-18024	4800	224	391	1709	127	-19416	3032	6864	362	1565	37	135	133	1
-32768	15812	-6368	-19342	-32768	-8132	-20840	1344	-24124	-18551	-29658	-3678	-27460	-1064	32767	5294	-5051	-4273	-10008	4032	13296	338	1279	-265	-18488	4752	-368	312	1982	59	-19336	2784	6736	432	1460	27	134	128	1
-32768	21924	-32768	-28964	-19011	-13976	-9376	1188	-21680	-19606	-6396	-4791	-23696	-492	32767	-1829	-7107	-1296	-8696	3304	13736	368	1896	-295	-20000	4648	-2056	-75	2294	-9	-18848	2248	5400	635	625	33	146	116	1
-32768	7392	-32768	1095	5266	-1554	-5556	-8828	-19448	-7947	15040	-1660	-20028	-904	17356	-10206	-6509	2301	-9520	3960	14008	362	2660	-322	-20392	4576	-2048	-119	2344	-9	-21400	5072	6632	951	162	-70	121	120	1
