#Activity	walking 
#ActivityID	1 
#Date 08-20-12-55
acc_rf_x	acc_rf_y	acc_rf_z	gyro_rf_x	gyro_rf_y	gyro_rf_z	acc_rs_x	acc_rs_y	acc_rs_z	gyro_rs_x	gyro_rs_y	gyro_rs_z	acc_rt_x	acc_rt_y	acc_rt_z	gyro_rt_x	gyro_rt_y	gyro_rt_z	acc_lf_x	acc_lf_y	acc_lf_z	gyro_lf_x	gyro_lf_y	gyro_lf_z	acc_ls_x	acc_ls_y	acc_ls_z	gyro_ls_x	gyro_ls_y	gyro_ls_z	acc_lt_x	acc_lt_y	acc_lt_z	gyro_lt_x	gyro_lt_y	gyro_lt_z	EMG_r	EMG_l	act
-9872	-5984	15592	-1205	22991	12532	-20224	1376	1536	-1835	18679	-4743	-18328	3048	9456	-5016	6425	956	-32768	-16884	-17368	-10810	15731	-3169	-704	11296	-30332	-2503	3370	5952	-22880	-16352	18264	-20118	8420	-4208	75	108	1
-9708	-10284	11876	1034	27991	13689	-23436	3088	2896	-4520	21116	-5426	-20248	4652	13332	-10467	2382	3292	2748	20716	32767	-18526	27255	15039	-32768	-26964	32767	-23470	16683	-410	-13776	-7872	-2572	-7004	1952	-5410	81	123	1
-10540	-13080	15048	510	32767	19567	-30916	6268	10512	-15401	25168	-4988	-27244	5732	21648	-10047	-10282	7703	-29348	-32768	23700	-13667	22930	-32768	-22388	18400	-32768	-32768	22875	17876	-25880	-5592	392	-10442	-400	304	106	132	1
-11724	-23076	14096	4819	32767	30648	-32768	1032	18528	-18228	26492	-1321	-29500	3656	9200	-14701	-10462	8308	-12996	32767	7328	-15514	11676	-5478	-19780	5184	-5336	-2656	22079	11186	-17384	3676	-424	-8059	4512	12706	145	126	1
-12296	-22168	12544	4085	32767	32767	-30288	5576	8764	-11616	25689	-6595	-27620	-3744	9636	-17601	-14202	7450	-11416	-1828	24108	-12935	10427	-15074	-14320	5148	-10456	254	16005	12792	-10780	-12652	-21384	17110	2233	10823	149	118	1
-32768	-24208	20560	-8652	32767	32767	-32768	-13360	-620	-14528	27999	1745	-26032	-13584	-3908	-25991	-15275	6153	-12120	11892	11524	-8856	1619	-6249	-15396	3172	-8372	21784	12751	10034	-576	6000	-10356	32767	8981	7959	134	130	1
-25108	-30600	27000	-15613	14472	32767	-28416	-9264	7688	1497	21634	-3243	-26756	-9004	-12064	-9119	-15683	-31	-7936	4432	17324	-3580	1404	-8050	-21544	8708	-5556	13860	9538	8613	-26332	32767	-13540	14775	9680	4853	138	139	1
-10944	-21196	16472	-4918	7682	32767	-18612	-2952	-1596	6430	9506	-1468	-29008	2588	-7448	-2377	-17629	-31	-10004	6592	14072	-2070	1806	-3112	-16672	11388	-5828	2900	9722	3832	-22028	13152	-6328	-11170	12248	4788	137	163	1
-32768	-32768	32767	-5829	-14253	26731	-14788	-5728	-13564	-6360	6857	-438	-25792	2180	-8292	270	-20516	-1231	-9332	6640	13140	-1328	1974	-1764	-15972	4444	-3892	-109	8304	2291	-14760	20	-4984	-8389	11540	810	143	162	1
-4776	-32768	10996	-4113	-32768	-8859	-11020	44	3872	-10913	3738	1326	-27256	3340	-6844	1194	-20818	451	-8552	6148	13452	-413	2098	-1836	-17420	3408	-3148	6774	6798	1665	-13688	-28	-4792	-7735	12162	1346	141	142	1
3840	-16720	-3040	11480	-32020	-13393	-10376	-480	3984	-5594	-5321	1200	-24316	496	-7436	-924	-23635	-1998	-7900	8176	12932	168	2161	-2870	-16684	3752	-312	11776	5591	2102	-18028	2544	-1096	489	13117	3541	129	135	1
7332	-3724	-4340	2421	-23171	-11148	-8932	2508	864	-882	-14482	1883	-19824	-1900	-6012	1609	-20408	-3070	-8684	6876	12884	196	2174	-3534	-16444	6048	-2296	11827	5071	1843	-17204	1972	-400	4875	14419	4341	143	137	1
1488	-6536	3956	-16753	-15462	-14546	-8632	1228	-3180	1676	-20856	3422	-16368	-1196	-8740	5509	-18221	-1323	-8044	6472	13040	-340	2889	-3097	-16036	5096	-2236	4108	4785	588	-15040	1280	-1488	9610	15306	5403	120	116	1
-6596	-22740	8904	-20255	-17140	-26471	-8100	-436	-1748	-547	-24500	4477	-13368	-264	-8152	8853	-17387	-629	-8392	6668	12840	-364	2818	-2822	-15740	4120	-2124	4204	4221	484	-15632	3336	-1108	10981	17539	4470	142	67	1
-6656	-17736	10276	-8778	-19610	-32768	-10280	-1372	-932	4512	-29245	3720	-12676	-628	-8296	8664	-17244	-838	-8788	6360	12636	-342	2542	-3045	-15876	3284	-2596	3608	3796	829	-14636	4420	-640	9074	17902	4824	146	107	1
-6420	-6848	12832	-10861	-20675	-32768	-11060	168	-2520	11494	-32768	5687	-10508	-3124	-9116	8926	-15959	-1538	-8984	5436	12740	11	2172	-2756	-15424	2396	-2232	5240	3849	1044	-14768	-532	1864	10897	17196	4768	147	120	1
-9180	-10060	15380	-17423	-22915	-32768	-13016	564	-1820	13329	-32768	8795	-7096	-2472	-10828	11010	-13197	-751	-8728	5760	12648	191	1979	-3013	-15288	3008	-1284	6095	4193	1424	-13548	-2876	752	7641	15830	3063	136	132	1
-11892	-11532	17116	-14628	-26384	-32768	-13752	1572	-2968	12604	-32768	9292	-5724	-2036	-12256	17571	-10724	302	-8324	5880	12560	198	1625	-3131	-15140	3556	-724	5780	5168	1516	-15408	320	-640	632	14281	2912	133	121	1
-12600	-9176	18604	-14050	-26606	-32768	-16240	2980	-4436	11608	-32768	12638	-3448	-928	-13436	19766	-8015	987	-9004	5612	12628	155	1993	-3112	-15056	3328	-1560	2991	6163	1729	-16548	3272	-964	7	9393	2486	126	127	1
-15872	-14076	22464	-15166	-25832	-32768	-19288	1636	-5844	8766	-32768	15541	-4252	-824	-14388	13588	-3491	236	-8684	5364	12980	242	2733	-3457	-15452	2712	-2984	2774	6729	1736	-15972	5140	-2696	1240	6637	2138	132	127	1
-21932	-22180	27460	-12007	-25679	-32768	-28068	-868	-5492	9105	-32768	18050	-4616	1500	-13620	4717	1294	3316	-8900	5884	13532	452	3988	-3598	-17744	3292	-4296	1962	6742	1711	-16924	6368	-3860	-577	8477	1254	135	129	1
-31424	-16072	30536	-7013	-23184	-32768	-32768	1108	-7832	6149	-32768	21538	-4588	-1256	-5972	6091	1694	2138	-9400	5932	13556	810	5615	-3638	-18056	3176	-3188	4021	6892	1462	-17668	2308	-3464	361	9867	1310	131	125	1
-32768	-11164	30432	-11712	-23342	-32768	-32768	-13112	-10424	-4079	-32768	23578	-11120	-4596	4812	12049	-7576	-1174	-9340	5996	13300	732	5913	-3728	-16584	3960	52	4066	8261	1906	-18384	1008	1364	60	9590	2197	124	123	1
-32768	-2996	14408	-2172	-22729	-32768	-32768	-15944	-18928	12500	-32768	15496	-30656	-3244	20296	7517	-22456	-7877	-10936	8976	13444	190	9523	-4308	-15876	2004	764	-318	10935	2351	-19552	-1068	6764	1265	7555	3087	122	120	1
-32768	28316	-7556	-3269	-10688	-19813	-18996	-9152	-28540	820	-25058	8341	-28324	2044	29524	17368	-4831	-9407	-10608	7072	13908	-709	11590	-5982	-20464	1992	-256	485	12820	2515	-20960	-2024	6460	4170	7747	2355	131	119	1
-32768	32767	-6180	-15541	-1893	-5948	-6752	-14168	-32768	-8057	-4110	-971	-7420	21936	32767	17594	14295	3653	-10080	5976	14440	-1926	15543	-6788	-19008	2832	-436	658	15338	2188	-19520	3304	4588	6562	8900	739	132	121	1
-32768	28824	-5864	-1245	4208	4891	-11352	-19684	-28880	1329	14949	-9706	-22964	25068	21836	22181	15301	7892	-10376	7348	14192	-2934	19475	-8554	-20708	3764	692	-1343	17619	2040	-20908	5980	2644	6327	7076	-76	114	121	1
-30472	1756	3032	24486	22659	15000	-19372	-14296	-18176	22944	24619	-13519	-17212	3144	-40	-15281	5209	5315	-11596	7692	13532	-2541	23983	-11886	-22108	2356	584	923	19444	3025	-21988	2912	4984	6985	5636	-772	135	122	1
32767	-32768	32767	32767	27146	7435	-27408	24908	32767	32767	17861	-16529	-140	5976	-4276	16464	4207	-1526	-12164	8968	14788	-1359	29038	-16712	-23888	2076	2208	5290	20846	3585	-21520	48	7336	10255	3358	-1221	125	120	1
-9332	-12468	23072	-8804	21698	24876	-21412	2448	-1072	16686	-1717	7429	-16408	-4716	-18452	-7236	16532	-12675	-13412	12572	13744	-797	32767	-22681	-29852	-508	2040	5368	20948	3808	-25224	-2532	12020	9836	-1068	-2438	119	124	1
-32768	-10500	32616	26842	32767	16191	-13868	-11240	-5768	2515	17363	-23755	-32768	940	23996	32767	-12613	3559	-15840	9776	16632	4840	32767	-30304	-30352	-5476	11380	27787	22449	3325	-24484	-4528	10772	14145	-10602	-6578	123	126	1
-11268	-4260	16164	9601	5608	9735	-30116	-904	-3024	7348	14907	-10350	-26500	21184	-2856	-1243	18629	-15141	-32488	15268	17344	-1759	32767	-32768	-25928	13560	-1044	10739	23158	6091	-21400	-9796	9864	-3547	-14820	-9727	137	129	1
-11524	-7060	12488	5521	2433	4965	-9904	-3588	-3824	-1884	14086	-13529	2100	-4652	-11304	-32768	19283	-12507	-23296	4656	14712	15307	32767	-32768	-24912	4660	404	12033	26025	3156	-20572	4932	-992	16539	-16391	-3166	131	135	1
-10824	-9724	13652	5475	1366	4851	-17852	-4828	-4040	-5436	11186	-8231	-5884	-24912	-21132	-15481	730	1997	-32344	28496	20452	14396	23858	-32768	-24340	16572	-500	3127	20796	4538	-26072	10040	-12764	31090	-14984	-2954	120	142	1
-8124	-7368	12668	3808	219	1226	-18252	-356	-1484	-6432	10077	-5290	-25268	-19900	-5936	24204	12987	-6664	-20284	25836	16620	-498	15754	-32768	-18500	7724	-9260	-13960	18324	6135	-26152	9596	-15164	26357	-15037	-1762	114	148	1
-7044	-6680	13544	1876	427	598	-19204	-2000	-660	-8785	8762	-4359	-21748	4924	-5080	13578	15970	-5013	-31340	32767	26368	-1909	-4316	-10302	-18064	6336	-11656	4055	12425	3031	-25940	740	-12768	-2107	-26649	4969	78	148	1
-6464	-7632	12552	1289	639	302	-17464	-2640	-64	-1158	6506	-4239	-12700	6068	-2808	2952	8981	-6930	-8636	25428	13140	-9830	-14644	6387	-12104	3896	-3108	9795	5069	3414	-26944	-1220	-7804	-3503	-31001	1882	123	145	1
-6380	-7780	12572	356	783	202	-17176	-1212	860	4780	4740	-4177	-12856	-1780	-1216	-3523	12381	-1792	772	9396	6940	-5852	-18279	12610	-8092	2956	-1744	5188	-1566	2993	-22380	-2856	-6396	829	-28002	2226	112	105	1
-6740	-7120	12836	5	801	215	-17488	1272	828	-627	4740	-3515	-16944	-1512	-3872	-670	13959	-1466	608	5056	6464	6468	-18832	15014	-5924	4264	-2196	168	-7460	2027	-18960	-264	-7588	-2386	-24008	4170	168	95	1
-6508	-7748	12228	-170	1082	620	-16920	1344	2244	-8142	5001	-3029	-18452	-116	-1916	-4104	14952	-5100	-1204	9600	6572	12724	-21048	15347	-6568	2156	-1628	-4226	-13912	1792	-15736	-644	-6764	-5775	-20353	3256	138	119	1
-6796	-7860	12296	-196	848	762	-16792	-1608	1868	-12472	4980	-2334	-15524	-932	-744	-11217	15114	-5338	-2612	10332	8376	11184	-22981	16008	-7084	628	-2908	-5820	-20068	1989	-14340	-2116	-7060	-5053	-18792	1076	123	113	1
-6600	-7116	12540	464	561	1838	-17704	-3416	392	-4659	4074	-2483	-15160	-2452	-372	-10480	15040	-3586	-1716	7476	9680	11926	-23052	20258	-8212	-2052	-3796	-4601	-25001	796	-12504	-1760	-6836	-3767	-18299	-276	100	121	1
-5856	-7228	12648	-100	802	1735	-16736	1148	1992	-522	3884	-2024	-15764	-752	-388	-7152	13522	-4076	-2696	6772	12420	14240	-21573	26241	-9268	-1964	-4672	-4521	-29028	-890	-12236	-1924	-7052	-3231	-18247	-534	126	130	1
-6880	-7476	12296	-338	269	2815	-15460	-180	1948	-6404	4805	-2038	-15092	1596	1340	-8387	11036	-3494	-6980	7896	15680	13166	-21953	30658	-10756	-876	-4984	-5335	-32768	-2573	-11016	1024	-8140	-7510	-15776	-1086	140	120	1
-6816	-7700	12244	65	-73	3489	-15256	-1388	2172	-8286	5954	-2429	-14752	20	2892	-8654	11906	-3787	-9512	6040	18532	11628	-24186	32141	-11924	-108	-5756	-7805	-32768	-4413	-9832	2540	-8708	-10537	-13137	-1438	137	111	1
-6872	-7116	12396	522	-316	3896	-16564	-1992	1964	-4581	6780	-2591	-16232	-1364	3764	808	11948	-5027	-13292	5924	21500	12573	-27685	32767	-14132	812	-7392	-10340	-32768	-7181	-8904	3128	-10124	-13953	-10051	-1695	135	124	1
-6892	-7096	12344	101	99	4202	-16600	-568	944	-1771	7504	-2924	-17896	-2852	-728	-956	5893	-6468	-16304	7828	24012	13048	-31033	32767	-16740	484	-8776	-11246	-32768	-10071	-7272	2440	-11416	-15426	-6310	-512	124	122	1
-6732	-7400	12516	33	864	4369	-17048	-452	376	-2809	8628	-3079	-16672	-5076	-636	-2832	4983	-4497	-19048	10340	26312	12484	-32768	32767	-20952	492	-10252	-8541	-32768	-13679	-6028	824	-12420	-10222	-1738	541	121	131	1
-7032	-7248	12676	-2173	573	4824	-17868	-1484	-716	-1821	8892	-2856	-17156	-5480	-1168	269	7973	-2666	-24412	13012	27672	9828	-32272	32767	-25716	320	-12436	-7549	-32768	-16682	-5972	276	-11568	-1338	3615	-257	115	137	1
-7548	-7304	12904	-2922	2007	5155	-18576	-920	-388	-1122	9417	-2886	-16632	-2088	-2484	1099	8114	-2828	-32768	6240	32692	7580	-29946	32767	-29936	2680	-16476	-30	-32768	-17920	-6528	2724	-6032	848	4845	1246	110	134	1
-6172	-8224	13688	1817	8515	6997	-19516	944	-188	-2023	10177	-2464	-19300	676	-992	-688	7935	-2694	-32768	2884	30344	8208	-32768	32718	-32768	15144	-17224	5666	-32768	-17379	-13204	4580	6476	-14	-1535	4593	112	124	1
-7348	-7016	13960	-156	11240	7046	-18316	1292	16	-1446	12118	-3093	-19080	204	4404	-2234	8223	-1649	-32768	-7912	11728	5412	-32768	18304	-29768	12908	-22464	-3750	-32768	-9770	-23900	3692	20792	3406	-11209	8613	118	123	1
-7680	-6916	14084	-272	14966	7920	-19536	740	1008	1097	14338	-2914	-19120	3808	6516	-1482	7114	-1510	-32768	-32768	-17076	16572	-28060	4412	-10016	5968	-30016	3926	-21313	-3545	-30204	3200	32767	-15607	2296	3272	118	111	1
-8144	-7772	14092	330	18496	9527	-19704	1480	1416	858	16690	-3813	-18472	4220	6856	-2793	7132	-1121	-32768	-32768	-26416	16518	-4219	1109	3748	12568	-30940	7984	3411	4260	-20720	-32536	32767	-26840	14081	5084	159	114	1
-8476	-7304	14332	2690	21456	11254	-20068	1096	1724	2406	19281	-4229	-18700	-1764	7660	-3739	7416	1642	-32768	-19756	-12784	-19692	20072	-9114	-10268	15476	-30220	-18557	22727	8398	-20048	-23948	11680	-7543	9133	-4356	176	123	1
-9876	-9560	13380	4454	26621	14840	-23380	1624	4036	1700	21691	-4338	-21120	-2660	9208	-6534	3958	3496	11376	32767	32767	-11907	18478	15236	-32768	-30656	32767	-14562	15680	-1158	-9664	-3352	-9860	20533	2898	-7643	171	120	1
-10424	-10732	14352	3729	32606	21811	-30076	6400	7032	-8482	24462	-5225	-25924	2120	18776	-11203	-6229	4861	-17404	-24204	12384	-16588	29074	-32768	-26140	18900	-28916	-32768	18872	17779	-31332	-2460	-1812	-10059	-2254	-3570	171	122	1
-9864	-11312	15736	4194	32767	22740	-32768	5764	21296	-20212	27582	-492	-31148	8260	25416	12225	-17259	10997	-32768	26016	32767	-18877	8086	-3603	-20108	2792	-6440	-4068	21112	8615	-16992	25020	9852	-20386	-2667	11349	123	138	1
-19488	-32768	18452	9479	32767	32767	-31912	300	8872	-8097	24728	-5012	-29464	6044	11820	-8109	-12320	8065	-2860	9552	12128	-11005	10714	-12475	-14860	8252	-5324	3462	16456	12046	-19836	-10600	-17464	5479	20851	15199	116	146	1
-32768	-18932	21412	-9917	32767	32767	-29484	-5736	1964	-19694	28157	2370	-23060	-7204	1244	-27214	-15515	6267	-13960	6524	14012	-9371	807	-7644	-12600	4684	-9240	11030	13172	8700	10000	-8312	-15280	27195	4381	13230	106	115	1
-29292	-30732	23144	-8857	14238	32767	-30116	-17312	4580	-1671	22723	-3286	-25704	-9964	-13728	-18475	-16213	3134	-8168	8648	14104	-5780	1245	-7415	-20292	8964	-4016	11826	9484	7072	-19432	32712	-4452	15214	7010	-66	116	143	1
-15264	-23908	18188	-3305	5083	32767	-19708	520	1084	11256	11745	-4732	-27712	-460	-8952	-7828	-18725	-1551	-10288	5220	15832	-2928	1176	-4560	-17468	6736	-4784	3927	8762	4291	-25724	16808	-10320	-12147	15134	6658	110	150	1
-32768	-31388	13912	4266	-4900	27462	-15852	-3956	-12484	-7229	8726	-1030	-26848	3440	-9252	-1595	-21749	-1547	-9500	8372	12620	-1634	1854	-2558	-16600	4924	-3012	-19	7974	2634	-15536	-3584	-2036	-9076	12137	1652	109	142	1
-3344	-32768	9768	-6603	-31863	-11317	-15620	-5644	-11524	-10719	8805	-326	-27232	3104	-6984	-78	-23351	-375	-8236	7128	12948	-1051	1651	-2026	-16896	3848	-1588	3774	7226	1581	-12040	1952	-1984	-1214	14673	2666	104	137	1
2016	-17644	-2124	6963	-26212	-19279	-9624	-256	3704	-6420	-3499	374	-25264	-2116	-6388	-2862	-23822	-3354	-8048	7900	12772	-745	1854	-2658	-16348	3732	-260	9476	6051	1959	-18300	4368	-3656	1257	13893	4032	115	132	1
5352	-7244	-2292	-128	-19669	-19591	-8568	-976	1060	1174	-12547	1147	-19472	-5108	-7140	1182	-20635	-5036	-8852	7020	12792	-414	2009	-3646	-16784	4216	-2112	11183	5286	2465	-17556	-1228	-2276	4089	14332	5712	126	118	1
-640	-10388	3272	-15105	-16222	-23143	-8176	-3376	-828	7044	-19353	2314	-16264	-3892	-9364	5229	-18559	-4144	-8316	5760	13384	181	2577	-3309	-16928	3812	-2288	8388	4896	1810	-14540	-2572	716	13074	14172	5453	133	100	1
-5560	-19532	6280	-14186	-17634	-30276	-7204	-2432	-504	8644	-24633	3799	-14652	-3468	-9012	9517	-16921	-4153	-8900	6904	12688	81	3254	-2887	-16216	5272	-1576	7573	4647	1410	-15068	2224	1832	17113	14703	4254	128	83	1
-5080	-13524	7804	-8402	-19343	-32768	-10048	-1648	-276	12603	-29496	3769	-13040	-4712	-9528	10518	-16881	-3200	-8836	7176	12140	-389	2863	-3284	-15132	5312	-1116	6412	4391	1299	-14644	4560	-40	17301	16037	5057	140	109	1
-5576	-8816	11128	-12812	-19705	-32768	-11520	-204	-1784	16059	-32768	7204	-11172	-6536	-10864	13819	-15333	-3906	-8916	7352	12272	-278	2423	-3895	-16360	4136	-1044	7220	4416	1326	-13864	2580	-968	12064	15667	6072	140	114	1
-9964	-13944	14608	-15798	-20575	-32768	-12420	340	-2468	15790	-32768	10308	-9216	-6296	-12528	20926	-13854	-3080	-9000	5900	12724	-45	1990	-4185	-15648	2800	-1640	6189	4977	1276	-15136	1304	-1716	2843	15566	4996	132	124	1
-12352	-14000	16024	-12184	-22273	-32768	-14300	656	-3072	15258	-32768	12473	-6012	-4020	-13624	29598	-11444	-1431	-9844	5392	13008	327	2190	-3139	-15000	2244	-1412	5700	6020	1432	-16352	2716	-828	-206	11751	3726	120	133	1
-14304	-12436	18868	-12414	-21995	-32768	-17588	1708	-4164	13463	-32768	16438	-3608	-928	-14568	28487	-7828	73	-8616	5512	12836	494	3183	-3227	-15424	3124	-1856	3482	6721	1482	-15840	3760	-2976	1012	6773	2707	125	125	1
-19048	-18312	22360	-13089	-22629	-32768	-22480	-548	-4952	10307	-32768	18196	-4220	2896	-15160	18538	-3549	2352	-9492	6264	13184	606	4514	-3711	-16856	2732	-3148	3139	7030	1640	-17172	3348	-3500	-648	6808	1428	133	128	1
-26772	-23920	26372	-10455	-23308	-32768	-31840	-1860	-5616	8709	-32768	19126	-4000	5772	-12728	8216	3077	4159	-9832	6368	13008	891	6032	-4209	-17524	2736	-2720	5059	7254	1859	-17528	2848	-1504	1130	9655	1583	139	126	1
-32768	-13856	28736	-11076	-21223	-32768	-32768	-1480	-9160	304	-32768	19870	-5324	3540	-2216	8147	-187	3933	-9720	6268	12948	988	7686	-4554	-17520	2808	-512	5737	8354	2201	-19004	1344	504	1327	8828	2342	135	125	1
-32768	-12600	20380	-4918	-17769	-32768	-32768	-16952	-11192	-4577	-32768	19062	-13592	-220	4744	6675	-6961	296	-9660	6608	13068	560	9133	-4667	-15716	3504	1088	3251	10728	2652	-18568	-464	5888	2126	6881	3673	124	121	1
-32768	9876	11168	-744	-17659	-25375	-32060	-8700	-22632	11162	-32768	10805	-31868	1840	22844	5977	-17012	-7143	-10152	7668	13352	-711	11687	-5181	-18792	3876	-640	-458	13148	2638	-20024	-4352	7420	3584	5970	3728	128	114	1
-32768	32767	-6280	-12917	-10469	-18135	-17020	-12544	-27508	-7546	-17656	4235	-22948	9056	32767	11878	-4710	-2854	-10296	7588	14076	-1970	14813	-6743	-19716	3292	-792	1152	15656	4018	-18160	-1004	4984	7993	7731	1687	140	114	1
-32768	32767	-7656	-5912	-2025	817	-11328	-19228	-31028	-4264	-676	-4046	-16100	29760	30196	17556	13644	-4806	-9800	6400	14216	-2155	19391	-7765	-19184	2396	-180	-1245	18103	3133	-18972	6516	3772	8758	7607	282	125	119	1
-32768	18396	-5096	23417	15355	16567	-12924	-15160	-29572	10426	15235	-12084	-21108	13920	16556	1733	6901	3987	-11224	6988	13288	-2743	24301	-10258	-21872	3376	696	-1093	20249	3674	-21084	5800	4420	6862	5660	-578	125	121	1
9000	-12504	15016	29037	24262	8791	-20776	8544	22536	32767	24224	-14032	-15964	-2540	-6440	-19763	1447	5946	-11260	9772	13808	-1048	29544	-14596	-23648	2124	2024	1912	21582	4780	-21260	3464	8092	7978	4267	-1872	134	122	1
-6968	-3156	32767	1830	25438	28016	-32768	15160	-300	26539	2219	4481	-21416	-17696	-14136	-10008	9837	-7538	-11456	12800	14156	-886	32767	-20344	-30764	816	2856	2717	21945	4478	-28148	516	11948	8046	-483	-2940	144	124	1
-32768	-5260	21980	16121	31692	19041	-5628	-4664	-16804	-538	20877	-22878	-17268	-2904	8128	32767	-1847	-3811	-14108	11592	14684	5753	32767	-30321	-32768	-9716	13620	25798	22640	4216	-27988	-3872	11080	13803	-12432	-7915	143	128	1
-16124	-19536	19600	10120	9777	7707	-26896	-11068	-2712	7072	14358	-9235	-24616	13176	-5940	1324	15713	-3973	-24164	16152	9716	387	32767	-32768	-27580	11900	80	15632	22689	6470	-22684	-15368	17092	-10763	-17497	-13031	120	128	1
-18144	-6124	14276	6158	2108	3800	-11588	-5204	-6692	4102	13950	-12729	-3472	-6584	-12400	-30245	11089	-12096	-30980	1496	20004	16014	32767	-32768	-23928	8060	-64	14465	25820	5595	-19848	484	508	12728	-18945	-3244	120	137	1
-10100	-10192	14828	6558	402	1987	-21456	-1236	-3968	-1468	9646	-4049	-12864	-19480	-18708	-11438	7319	-2014	-32768	27744	21316	17704	26565	-32768	-24484	16404	-1444	3300	21191	4563	-27628	10772	-10844	32767	-15789	-3664	113	145	1
-7492	-7640	13408	3498	508	871	-17924	872	-580	-7075	9897	-6230	-24232	-20392	-5664	17858	13344	-9353	-17700	19672	15332	6117	17308	-32768	-18908	8424	-8456	-12066	18023	5549	-28288	6516	-16824	19200	-18305	3494	114	140	1
-6000	-7052	13880	2202	625	161	-18288	-700	12	-7437	8169	-4215	-18768	5652	-4364	16313	12663	-6436	-32768	32767	28872	2411	-4368	-17584	-17328	5940	-14424	4544	12159	2450	-26316	2356	-13652	559	-25291	5558	100	137	1
-6640	-7100	12836	1122	875	-205	-17580	-2580	-356	-1679	6324	-4744	-13512	7304	-1408	5937	10389	-5485	-9972	25572	13356	-7404	-17771	1356	-11540	2572	-4044	15819	5157	3232	-26036	112	-8576	-6939	-30264	713	118	134	1
-5768	-7204	12996	431	1173	-266	-17276	-1396	1072	5001	4607	-4114	-13448	1252	-916	-2152	12579	-1237	-128	9960	5376	-6791	-20328	7722	-8108	2344	-2072	11278	-886	1836	-22208	-1044	-6492	-2776	-28136	1196	128	109	1
-6508	-7640	12604	110	1243	219	-17076	2452	1944	-714	4580	-3780	-16468	-712	-1960	-3014	12930	-2080	1412	5168	3984	2120	-17947	10241	-5836	4724	-2416	2819	-6495	820	-18068	416	-7060	-2550	-23191	3328	167	98	1
-6500	-7756	12668	-169	1140	804	-16608	876	2736	-10017	5030	-2756	-17672	244	-512	-7169	14001	-5315	-1672	9056	5536	7754	-17908	12827	-5652	3936	-3152	-7358	-12319	616	-15692	284	-7008	-3520	-19530	3557	128	117	1
-6164	-8784	11604	120	703	1655	-16784	-1876	3748	-15714	5551	-1599	-15392	276	776	-16034	15111	-6278	-4068	12008	7852	7039	-20406	16464	-5616	916	-3892	-10460	-17954	58	-14384	192	-8076	-6014	-17846	1604	142	119	1
-6188	-7904	12152	462	226	2206	-17160	-2856	2160	-12436	5288	-2976	-14568	-2488	760	-18219	14904	-4355	-4300	8712	9744	6420	-22999	22641	-6936	-1272	-4480	-9084	-22814	-809	-12108	-20	-7156	-7848	-17780	-285	107	129	1
-6408	-6932	12496	253	596	2263	-16764	-1312	2472	-960	4562	-2214	-16896	-3316	2320	-13202	12796	-3235	-4792	5500	11740	9898	-24037	29491	-8052	-2196	-4192	-5840	-26839	-2444	-10636	444	-6764	-8940	-17015	-1142	102	124	1
-6660	-7572	12200	398	696	2875	-15040	396	3788	-3493	5868	-2046	-15360	-524	2592	-8703	9819	-3371	-7376	6008	13964	10876	-24986	32767	-8648	-56	-4460	-6428	-30549	-4258	-9768	1756	-7760	-12192	-15532	-2031	122	118	1
-6656	-7572	12068	1265	-9	3866	-15228	-2288	3292	-7108	7458	-2783	-14668	-1636	4704	-6190	11960	-3982	-10480	5460	16952	8812	-28223	32767	-10488	1416	-4956	-10210	-32768	-6530	-9372	2440	-8088	-14738	-13175	-3305	118	121	1
-6416	-7412	12340	961	-794	4476	-16396	-1032	2364	-2940	8058	-2931	-15900	-1936	5716	822	11429	-5098	-11708	4656	18028	8153	-32063	32767	-12400	912	-5744	-13402	-32768	-9547	-8364	3324	-9596	-17652	-9067	-2897	124	120	1
-7264	-6596	12868	473	-636	4337	-16296	-112	436	-1261	8997	-3357	-17248	-1984	-1672	-2274	4890	-5631	-13796	5768	19988	8539	-32768	32767	-15144	-436	-7744	-14597	-32768	-12742	-8312	1924	-11128	-18173	-4864	-1441	121	124	1
-6716	-7068	12896	-243	-225	4208	-16972	-948	-380	-1336	9750	-3537	-15840	-3644	-712	-1209	4614	-4347	-19252	9336	24268	8794	-32768	32767	-18524	288	-10256	-11931	-32768	-16383	-6568	348	-12648	-13496	-969	-336	122	128	1
-7188	-7276	13052	-824	452	4745	-18016	-1144	-1068	-1551	9869	-3655	-16152	-4652	-1636	539	8534	-2487	-25476	13824	26760	6459	-32768	32767	-23536	960	-11972	-10298	-32768	-19123	-6172	-1380	-12408	-2803	4194	-765	114	131	1
-7372	-7228	12852	-2075	1403	5236	-18304	-1588	-1060	-1775	10023	-3611	-15756	-2696	-4036	420	8296	-2782	-31704	9840	27740	4043	-32768	32767	-29436	2428	-13516	-2049	-32768	-20744	-6336	-384	-6920	2512	4344	-508	118	132	1
-6224	-8012	13228	-3187	3962	3978	-18648	-456	-244	-2263	10503	-2926	-17744	-236	-1544	-990	7992	-2520	-32768	4776	26408	4622	-32691	32767	-32768	15612	-15492	3304	-32768	-19547	-7364	724	-5316	2164	3792	-447	124	131	1
-7412	-6968	14076	932	9527	7060	-18420	1196	208	-1222	11995	-3765	-18264	-24	4736	-2707	8280	-1883	-32768	-8980	14048	4632	-32768	18966	-30852	14172	-20948	-8057	-32768	-12073	-22120	3368	18328	1510	-9513	6736	126	125	1
-7536	-6964	14184	390	12647	7749	-18776	392	832	302	14289	-4214	-17892	3604	7344	-2688	7316	-1899	-32768	-23016	-9692	9647	-27914	8224	-15580	7548	-30080	-1932	-25140	-6387	-32040	3128	32767	-17212	2943	4427	122	117	1
-8444	-7660	13992	193	16112	9733	-19912	676	788	339	16592	-5116	-17796	4004	6840	-3716	7122	-1023	-32768	-32768	-25520	14899	-12766	-1549	276	12892	-30128	14813	-3708	2199	-21656	-32768	32767	-30469	6440	2249	118	120	1
-7860	-8980	15424	2452	19637	11500	-20480	432	1148	1002	19193	-5269	-18356	-2612	8176	-5785	8499	1566	-32768	-24736	-21860	-5155	8715	-10594	-4856	17396	-28920	-10384	16315	7708	-20692	-27268	15972	686	9623	-2790	118	111	1
-9028	-9552	14424	4989	23781	14638	-22800	1112	3324	474	21875	-5945	-19984	-3212	10600	-6995	5094	3422	-5540	13808	24140	-11903	21962	-2821	-22312	-12952	19764	-17563	23543	6713	-16600	-6028	-2336	26163	494	-11139	116	122	1
-8808	-12780	14220	8212	30073	21564	-32768	1832	6288	-7065	24602	-5822	-24652	2968	19460	-11589	-3464	4952	18100	7072	10804	-3164	32767	-32768	-32768	18700	-4596	-25694	15286	19078	-12100	-3204	-9720	6592	5529	500	130	119	1
-9696	-18548	18412	8041	32767	30701	-32768	5972	18504	-16888	28774	-3794	-30424	9632	29424	17945	-17478	9981	-32768	27616	32767	-21276	28358	-797	-9176	7572	-5608	-12364	21925	5505	-26816	23620	4656	-15220	-9005	10112	136	127	1
-18816	-31164	13320	8608	32767	32767	-32768	2572	12536	-13498	26245	-5093	-31380	9808	10896	-10640	-12418	9553	-8268	6664	10424	-11837	5846	-12722	-22416	6076	-8220	-7292	16677	16078	-23524	-3504	-15808	-3814	18561	16578	140	155	1
-32768	-12708	22884	-15720	32767	32767	-28356	-336	5020	-26749	29304	-367	-24632	-5744	284	-29873	-14321	8786	-19416	2932	15740	-7518	-126	-9316	-10412	3116	-12008	13718	13481	9374	5836	-5976	-11900	17805	7948	15362	127	123	1
-32768	-32768	30276	-5850	20948	32767	-32256	-21356	4160	-10233	23499	-557	-31436	-9860	-14132	-24568	-15081	3483	-9168	9908	13544	-3109	-428	-6030	-18732	9248	-4120	23486	9441	7107	-16696	22840	-9796	14631	7691	2325	123	142	1
-18988	-30008	28084	-4056	6980	32767	-20356	-2528	-780	13607	11122	-5799	-28916	120	-10344	-12168	-18277	-2376	-10068	4820	14376	-1965	779	-3090	-18588	9672	-5056	6895	9140	5515	-24524	16696	-9420	-10049	13479	5201	127	173	1
-24376	-32768	2980	467	-9006	25840	-16048	-1928	-11184	-6672	8732	-2400	-28940	2344	-9416	-1917	-22039	-2560	-9368	6012	13600	-914	1465	-1510	-16132	4260	-4360	-1103	8410	2913	-15224	-1488	-3564	-9832	12688	2698	140	136	1
1736	-32768	7748	-6787	-32768	-10107	-10872	-1040	4096	-10983	4193	990	-27408	5272	-6424	1027	-22406	-624	-8068	7088	12948	-624	1873	-1174	-16828	4108	-2796	2153	7108	1566	-12336	400	-4248	-1314	14908	1648	144	141	1
6652	-15416	-4572	3221	-25359	-14576	-9800	856	4624	-5465	-6322	-985	-25012	1068	-6624	-3490	-24792	-3422	-8296	7948	12676	-306	2013	-1676	-16488	4264	-1452	5052	5492	1406	-18564	5084	-5108	2619	16021	4284	125	144	1
7364	-5676	-3936	-8813	-15612	-15441	-7388	1528	612	-3709	-14924	507	-17768	-2576	-6996	-72	-20363	-4284	-8616	7508	12468	-369	1695	-2489	-16888	3660	-2232	10953	4407	1597	-17908	2636	-4092	4652	18319	7705	125	113	1
-700	-14632	3776	-22375	-11441	-21105	-7904	-2224	-768	1779	-20944	1718	-14852	-1840	-8228	2752	-18356	-1834	-8228	5848	13564	-529	2254	-2367	-17428	5692	-3436	6639	3457	1259	-14860	-44	-2456	12044	19998	9289	128	99	1
-4828	-20536	7276	-15872	-12703	-29064	-8288	-2212	140	5180	-25866	1370	-14004	-2420	-7912	5649	-17300	-2329	-8700	5660	13012	-84	2700	-2043	-16732	1108	-2440	3366	3013	594	-13996	-964	-164	14494	18645	7681	143	46	1
-5652	-12224	11116	-11300	-15183	-32768	-10248	-1228	-1020	10699	-30868	1582	-12196	-3024	-8244	6632	-16024	-2822	-8780	6196	12380	745	3088	-2210	-15456	2548	-376	11390	2944	1339	-14584	-2420	-908	8562	13227	3521	136	105	1
-6372	-9464	13344	-17287	-17953	-32768	-11388	248	-1644	13821	-32768	4285	-9964	-3412	-9736	9678	-14513	-3640	-9136	6984	12072	1087	2254	-3091	-14140	5164	396	10144	3469	2240	-15076	-496	964	6521	11769	3451	138	118	1
-7928	-12184	15200	-18887	-19960	-32768	-12584	2044	-2028	13551	-32768	7005	-8196	-3436	-11512	13751	-12761	-2511	-8904	6512	12060	553	1814	-3452	-14368	3728	312	7070	4734	1716	-15668	2388	2812	3463	11297	4835	119	122	1
-10992	-12448	17484	-16555	-21812	-32768	-14444	1532	-3696	11015	-32768	9546	-6548	-3684	-13832	20871	-10998	-1065	-8512	6816	12476	367	1205	-3459	-15252	3396	-28	6666	6043	1994	-16460	2844	2704	3303	10833	5300	121	126	1
-13044	-13096	20908	-17587	-22546	-32768	-17964	1464	-4932	9412	-32768	12775	-4284	-3004	-15196	23036	-8204	-1235	-8992	6528	12724	515	1429	-3537	-16516	3476	-1304	5110	7045	2104	-17092	5632	-856	4085	5800	2739	131	124	1
-16748	-17668	24992	-17781	-23092	-32768	-22716	-12	-5404	6822	-32768	15176	-5004	-1104	-15840	18593	-4439	1079	-8624	5740	13152	1037	2771	-3629	-17480	3032	-2760	4256	7559	1822	-16384	4456	-2672	2462	8151	1668	152	129	1
-22680	-23584	29320	-14719	-23303	-32768	-32768	-660	-5936	5292	-32768	18437	-5112	1048	-13260	9627	2257	2402	-9176	6352	13448	1453	4592	-3737	-17088	2956	-2372	4153	8198	1714	-16596	3968	-2184	1570	9869	2048	141	130	1
-32768	-13676	32767	-14035	-19134	-32768	-32768	1704	-10036	-5388	-32768	23089	-5892	264	-5156	5946	2440	89	-9704	6688	13376	26	7582	-3707	-18324	2384	-488	2922	9567	1541	-19868	1520	780	-81	8555	1943	126	129	1
-32768	-12568	32767	-15754	-22921	-32768	-32768	-20988	-13196	-7685	-32768	19691	-6252	552	-3776	5712	1786	-236	-9444	7236	13768	-336	9764	-4267	-17552	2856	1532	1562	11776	1992	-20696	252	8144	1399	7733	1703	125	127	1
-32768	9116	12832	-6915	-24266	-31655	-32132	-4344	-22696	5535	-32768	6560	-32768	192	21908	427	-23261	-11318	-10112	8444	13832	-1088	12574	-5465	-20008	2560	1192	-439	14234	2648	-21028	-4280	7680	3169	7052	2592	132	122	1
-32768	32767	-6912	-14091	-9611	-16968	-15984	-9468	-31196	-4610	-20828	-1354	-20128	-3088	32767	15617	-4140	-5397	-9940	7504	14428	-2131	16176	-7568	-20064	1668	-260	-268	16491	3599	-18848	-4504	3716	5714	6585	1909	137	109	1
-32768	32767	-4392	-14493	1195	-5330	-5948	-19392	-32768	-1934	2029	-5378	-10208	30004	32767	29511	24401	1768	-8948	4480	16316	-2871	20925	-8203	-19852	4464	-1820	-1901	18548	2761	-18320	4760	3108	7746	6819	460	133	118	1
-32768	27628	-264	11196	13949	3951	-13204	-14748	-30240	18141	21306	-10264	-27064	19024	19132	16899	11631	7418	-11460	8300	13588	-3299	26592	-9733	-21384	1544	488	-3838	20953	3284	-20724	6252	3720	6022	5603	-984	135	123	1
-32768	-8760	17028	32616	28154	7280	-15548	-14384	-28024	22115	23311	-10910	-12144	-972	-4968	-10825	373	4111	-12096	8864	12728	-902	31702	-14256	-23084	1240	1984	553	21938	5239	-20664	1760	6280	6923	3773	-2203	117	125	1
32767	-32768	32767	32767	32767	-3845	-32768	32767	32767	32767	8617	-17195	7528	-15936	-27056	-16330	12257	-11169	-12120	10416	14044	1389	32767	-20587	-27740	-196	2780	5812	22019	5627	-23272	-2328	11756	11531	-2100	-4077	130	127	1
-32768	32767	14928	7853	24966	24999	-11448	-16028	-32768	21370	1568	-3749	-32768	-18628	288	32767	-622	-6128	-15508	13124	13120	5845	32767	-30261	-29140	-828	3008	6538	21905	5465	-27212	-6176	12456	13633	-11609	-7904	129	127	1
-32288	-32768	15308	12178	15931	4010	-32768	-2152	-2756	3935	19788	-20417	-32768	17504	2812	25643	2102	18	-28636	19912	11876	1511	32767	-32768	-26720	12744	1468	19181	22865	6418	-21168	-14540	13740	-4357	-16669	-12554	126	138	1
-8688	-1392	25124	8269	6698	2228	-16432	-5448	-3732	12662	14362	-10679	-1632	12760	-6964	-12672	21087	-21061	-32768	3352	17088	13282	32767	-32768	-26012	9456	832	12900	26594	6397	-24428	6296	852	18387	-17238	-3776	132	133	1
-11804	-14632	8920	5089	1800	2050	-10812	-3764	-3496	-9219	13068	-10143	1660	-8800	-24140	-32768	1399	-8718	-32768	28824	19676	22483	26648	-32768	-26352	16480	-692	2794	21620	4616	-29608	12172	-10876	32767	-15489	-2467	120	147	1
-7072	-4252	16364	4726	163	2323	-19840	-4716	-1456	-2812	9448	-7492	-18580	-31820	-7720	9835	-874	5038	-20372	26768	17160	3007	19096	-32768	-20084	9456	-8272	-8806	17434	5735	-29892	8560	-18548	21984	-19835	4726	99	130	1
-6428	-10612	12072	2672	901	613	-19164	92	912	-8242	8907	-3775	-26328	-10896	-1332	19352	18012	-7459	-32768	32767	26916	3357	-6627	-22089	-18068	8264	-15812	6433	11253	3718	-28872	2160	-14156	-1860	-29491	5713	87	143	1
-6672	-7444	13184	1593	1104	516	-18208	-3368	-108	-2444	7592	-5764	-17776	11400	-5740	9057	10751	-5918	-11540	28196	12704	-5309	-18567	2391	-11764	3576	-5156	16051	4872	2564	-26988	808	-7240	-8308	-31458	2985	110	133	1
-6104	-7564	13020	425	1234	350	-18040	-2900	316	-1588	7344	-5683	-10268	868	760	-2289	8640	-4687	-2252	12232	6064	-5076	-22847	11276	-7636	3496	-2060	14834	-1793	2318	-22948	-956	-6056	-1514	-29193	2269	127	114	1
-5940	-7588	12816	277	1341	416	-16916	1252	1692	-2997	5918	-3250	-14764	-148	-1600	-4365	12057	-1343	1272	5904	3092	3389	-21050	13689	-5744	5596	-972	6487	-7707	1151	-18500	548	-7412	-4523	-24139	4229	161	83	1
-6056	-8348	12324	-386	1255	993	-17188	1256	2028	-3872	5906	-3291	-16388	180	-1992	-3962	12709	-1617	-148	8040	4192	8950	-19013	14412	-5800	4860	-1828	-6893	-13187	1080	-14320	2540	-6088	-8164	-20535	4177	155	123	1
-6544	-8608	12212	-319	928	1468	-16372	-1916	1772	-10701	5892	-3720	-15884	-164	116	-16968	13634	-7877	-3960	11796	7332	8347	-20303	17268	-5824	1352	-2992	-12043	-18418	784	-12684	-304	-7456	-7615	-18678	1484	126	119	1
-6296	-7572	12804	256	1345	1471	-17212	-2600	740	-4993	5160	-3679	-13332	-1780	-384	-18524	14992	-5643	-2476	9668	8560	6283	-21729	23329	-6800	-756	-3780	-11638	-23276	-450	-10884	-656	-7060	-9599	-18585	245	76	119	1
-6052	-7140	12660	100	1406	1852	-16204	572	2220	-4189	5288	-3279	-14936	-4	-600	-12366	12881	-3520	-6056	6728	11212	8335	-21439	30459	-7372	-1948	-4252	-10957	-27416	-2254	-10276	-356	-6908	-11353	-17915	559	110	131	1
-6444	-7992	12380	45	1047	2989	-14952	-1788	2236	-10166	6388	-2690	-15620	-1564	1068	-11658	9097	-2773	-7668	6792	13884	9722	-22579	32767	-7920	-80	-4540	-9872	-31018	-4349	-9112	1864	-8436	-13920	-15669	-564	118	123	1
-6160	-8276	12188	479	648	3037	-32204	30084	17704	-8473	208	8836	-14584	-5308	4460	-7506	11351	-3412	-10544	7532	16784	2971	-27433	32767	-9164	1620	-4748	-12118	-32768	-6302	-8388	4572	-8684	-17058	-12416	-1326	120	107	1
-7980	-8048	11576	272	177	3732	-21496	-8592	3436	-2770	11009	-9976	-17264	-6096	2924	2432	10570	-6034	-13440	-700	17360	6595	-31543	32767	-11060	1968	-6336	-17051	-32768	-9545	-6432	3108	-10276	-20314	-7775	-345	122	114	1
-4052	-6012	12072	2765	2225	4981	-17200	-2524	-1316	-1404	6870	-6535	-16420	-3472	-2732	-908	5245	-6692	-15340	5656	20348	9534	-32768	32767	-13544	1100	-8028	-17620	-32768	-13375	-5580	1844	-12100	-20549	-3167	96	120	126	1
-6756	-6740	12748	-810	990	4865	-16740	-2052	-500	-4254	8604	-3308	-15980	-2112	284	-2113	6044	-4568	-20724	11324	23832	9923	-32768	32767	-18824	2056	-10708	-13718	-32768	-17389	-6740	724	-14344	-13256	1353	581	120	127	1
-7544	-7440	12180	-1920	1870	5583	-17660	-2388	-428	-3401	8759	-4267	-15596	-1176	-1108	-1041	7239	-2115	-26184	15588	25956	6113	-32768	32767	-25252	2264	-12464	-12789	-32768	-20440	-8416	-1436	-13580	1541	7669	444	116	133	1
-7296	-7768	12692	-2247	2928	5754	-17744	-1904	296	-2695	9750	-3849	-16508	-2104	92	-2530	8469	-3128	-32768	8888	28364	4255	-32768	32767	-30852	4184	-14728	-2963	-32768	-22090	-8564	2012	-5816	8229	7171	1250	115	136	1
-6376	-7364	14076	143	7522	7343	-19212	60	300	-2789	10780	-4337	-19872	-2596	3260	-3869	8915	-3061	-32768	8304	25648	4806	-32768	32767	-32768	20380	-16444	-375	-32768	-18756	-15944	4580	5212	-1023	-1613	6802	117	132	1
-6772	-8100	14092	27	10528	8003	-18664	800	556	-3324	12937	-4622	-18472	-1232	6388	-4096	8394	-2278	-32768	-8052	2412	2914	-32768	22704	-27832	11696	-22064	-12234	-32768	-9986	-25624	4284	20084	-4848	-9730	10061	125	131	1
-7560	-7100	14300	44	14763	8903	-19876	776	716	-1310	15462	-4993	-18100	5480	6992	-3298	7289	-1779	-32768	-32352	-17208	16567	-18194	9218	-12380	7648	-27348	3919	-19954	-4392	-30524	-2196	32767	-28923	2720	3580	119	120	1
-8068	-7664	14628	704	18934	10441	-19400	804	704	135	17923	-6047	-17596	3428	8264	-4367	7805	-245	-32768	-27572	-22108	13382	-1208	4616	3176	16412	-30488	4543	1720	5082	-24828	-32768	32767	-32768	15498	4058	116	128	1
-8016	-8936	14436	3598	23569	11775	-20864	704	2072	545	20725	-6214	-18588	-2524	9656	-6659	7496	2630	-32768	-9840	-15436	-11143	18609	-4155	-8536	15428	-25468	-15185	19818	9142	-18500	-21908	8208	4290	10376	-6152	120	115	1
-9564	-11024	13960	3522	28937	16233	-25836	1840	4108	-2205	22927	-7263	-21372	-292	13460	-10052	1667	4372	-7604	14924	32767	-11460	20249	3752	-19736	-13344	17944	-18812	23848	6271	-4436	2352	-4196	14847	525	-7941	119	109	1
-9772	-12556	15096	808	32767	24166	-32768	8456	12700	-16880	27070	-8933	-27012	10332	17476	-8855	-11713	8554	32767	-7928	14912	-3905	32767	-32768	-32768	8208	9752	-32768	9851	15371	24	6544	-25724	32767	16196	7800	135	110	1
-9604	-19940	10076	4877	32767	32767	-32768	-692	14784	-21798	27874	-5259	-25812	16280	10224	-17590	-13859	10454	-32768	26464	32767	-20136	27330	-4951	-9696	3008	-8976	-6800	20685	5874	-32768	16356	18680	-24090	-10169	4044	137	127	1
-11412	-17712	14720	2209	32767	32767	-32432	3460	4908	-20629	27210	-7712	-28252	-5572	10308	-26658	-13268	9734	-11520	-2092	17592	-17919	3725	-15249	-26076	11944	-7972	-7718	16751	18151	-17140	-9700	-12748	-4435	18280	18407	147	149	1
-32768	-29980	32767	-15430	32767	32767	-32768	-17916	3140	-20214	28235	409	-32768	-16336	-6312	-30038	-12197	5053	-19856	10712	11356	-5946	3854	-7465	-9732	744	-9192	19685	13978	8723	13964	588	-20560	23120	3297	17963	124	134	1
-29616	-29380	25704	-18681	13209	32767	-28688	-8856	5088	-1534	19641	-4727	-29504	-12240	-15372	-17613	-17039	-1450	-4736	5340	15652	-3000	-1036	-7373	-9920	1416	-7128	23086	13569	9046	-19568	26560	-4776	4826	4888	-5515	133	172	1
-23644	-32768	31312	-7061	-5195	32767	-15960	-7080	-11224	5094	9916	-481	-31820	2140	-12568	1083	-20256	-2707	-10028	5468	13396	-2398	1190	-2908	-19288	6808	-5284	5155	10126	4127	-25180	13996	-10952	-10909	11162	6310	134	144	1
-26308	-32768	30380	-5525	-32057	3631	-16120	-4632	-5664	-11744	8017	1360	-29032	2016	-7264	7830	-23377	-1677	-9728	7264	12772	-1199	2121	-1855	-15808	4936	-3244	2886	9228	3760	-14936	-2820	-2412	-9341	10254	4294	150	144	1
-17500	-32768	22536	-3983	-32768	-2715	-9928	-556	3544	-5227	-121	-52	-26312	4620	-5880	795	-24548	-1526	-8400	7788	12584	-414	2031	-2006	-16708	4416	-2144	3449	7685	1957	-12164	924	-3296	1307	13954	3310	118	150	1
8076	-4936	-5316	7145	-24409	-10594	-9740	2800	2312	-2485	-9349	1913	-20040	-2152	-6660	1335	-22597	-6119	-8564	8116	12320	-458	2114	-2552	-16348	4004	-1000	5060	6112	1707	-19472	4364	-3748	6455	14930	5103	123	128	1
5988	-2260	-1244	-12982	-13689	-11585	-6768	-112	-996	-1124	-16885	3585	-16376	-4008	-7940	3881	-19097	-4306	-8968	7224	12220	-512	2112	-3267	-17436	3112	-2500	8818	5232	2477	-17428	896	-4160	7082	15747	8527	135	101	1
-3508	-19536	3816	-18508	-12604	-18695	-6196	-1636	-3080	5033	-22436	3861	-14460	-1572	-8720	8271	-17444	-3457	-8644	5116	13356	-22	2652	-2889	-16472	4080	-3056	5383	4833	1864	-14488	-576	-2004	14308	16127	9028	126	50	1
-5524	-20392	7248	-8268	-14530	-29641	-6952	-3248	-1684	7556	-25910	2913	-13396	-2692	-8736	10034	-17884	-3232	-9148	6448	12404	149	3012	-2314	-15464	2008	-1896	4655	4604	1809	-12968	-612	-708	14249	13024	4702	146	98	1
-4288	-10552	8268	-8047	-15517	-32768	-9264	-688	-1612	12654	-31000	4597	-11948	-3864	-9432	11904	-17273	-4361	-9380	6576	11848	622	2495	-2560	-14476	4008	-2448	7905	4309	2387	-13540	12	-3408	11086	10555	1578	137	98	1
-5684	-10272	10904	-12887	-16009	-32768	-9888	-880	-2004	16445	-32768	7617	-10076	-3584	-10904	13948	-16628	-3608	-9312	6156	12116	798	1674	-3076	-14952	4372	-2456	8769	4139	2361	-14264	3512	-8	9973	12630	2486	131	126	1
-9884	-12052	14964	-12972	-18762	-32768	-10696	12	-3028	18098	-32768	9793	-7396	-5400	-12924	20760	-14264	-1800	-9376	6952	11788	589	1258	-2947	-16012	5420	-1392	8850	4377	1742	-15868	4896	-1368	4182	12660	4312	120	118	1
-13832	-12220	17844	-12511	-23220	-32768	-12868	1036	-4052	15751	-32768	12492	-4176	-3012	-14068	28338	-9592	-882	-9432	7260	12256	341	1139	-3414	-16576	4292	-1916	5794	4577	1989	-16792	5512	-2360	931	9090	5327	129	126	1
-14820	-12288	19664	-13646	-25723	-32768	-16208	1220	-4784	13160	-32768	16169	-2220	-792	-14908	27816	-4438	-2842	-9140	5708	12632	833	1551	-3249	-16048	2264	-2772	6458	4968	1701	-16532	6240	-1324	1642	7135	2983	140	127	1
-19656	-19200	23464	-14217	-26923	-32768	-22020	-1572	-6348	11447	-32768	18483	-3992	1420	-16368	16926	878	3455	-9112	5492	12484	1249	2413	-3119	-15872	2620	-2488	5902	5419	1944	-15792	2640	-1316	234	7826	1875	148	122	1
-26768	-25384	28140	-9263	-25774	-32768	-32768	-1000	-8364	13618	-32768	20919	-5008	3432	-15228	3196	8108	3212	-9004	6104	12736	641	4481	-3706	-16724	2964	-832	5867	6367	1957	-16328	-2128	628	2295	8827	1457	137	130	1
-32768	-14888	32767	-9426	-23102	-32768	-32768	-2288	-8864	1105	-32768	26372	-6508	1072	-3508	3424	4888	762	-9952	7912	12528	855	6284	-4572	-18452	2964	756	4963	7947	2538	-21476	-840	3936	4256	8452	1544	124	130	1
-32768	-11380	23704	-2412	-23592	-32768	-32768	-22084	-10124	-922	-32768	22912	-16764	-2652	10496	3878	-10976	-5126	-9692	7200	13056	291	8032	-5354	-16716	4048	1768	4162	10513	2902	-19888	1624	8948	5730	7976	2872	115	119	1
-32768	24316	7204	-4878	-26067	-30170	-31776	-8604	-28004	13877	-32768	12545	-32768	-4252	22844	9076	-16656	-10830	-10512	8012	13944	155	11215	-5468	-22952	1832	2436	3594	12959	2502	-20344	-2340	6152	6060	6863	3977	124	109	1
-32768	32767	-5368	-14008	-8947	-11627	-14960	-12024	-29208	-12837	-14386	3146	-20616	15780	32767	22534	-46	2892	-11512	8464	15412	-1627	10326	-6008	-19116	1716	-868	-464	15714	3562	-18220	1184	5484	7903	7803	1688	132	116	1
-32768	32767	-10620	-7251	-569	3493	-11004	-21540	-31776	-3151	6242	-4868	-15236	32767	30660	30622	20194	903	-9672	5416	14964	-1925	19449	-7725	-20084	1724	-972	-1890	18463	3011	-18920	7592	3668	6300	7645	-79	133	128	1
-32768	19060	-2404	28002	17112	20587	-14204	-17540	-26720	13421	22487	-13839	-24364	15148	17436	-5243	4871	6339	-11424	9128	13692	-1941	25430	-9784	-23020	2080	668	-2374	20414	3542	-19292	7944	3176	5670	7376	-258	130	129	1
32767	-32768	32767	28726	32474	11217	-32768	32767	32767	32767	15703	-12532	-15864	-396	-9016	-20926	875	2665	-10948	10248	14364	31	31033	-14683	-23956	2032	3076	2417	21782	4500	-22252	2660	8268	6465	4599	-2396	138	131	1
-32768	14460	25124	6876	20155	22722	-15812	-8712	-14752	16177	3544	-846	-14708	-7656	-15028	-15483	13139	-12501	-11608	12536	13192	836	32767	-21120	-31044	-1420	3188	2858	21874	4918	-26876	-2488	12404	8825	-1608	-2946	143	124	1
-32768	-32768	32767	23193	28605	5185	-18004	-7172	-700	6431	18706	-24398	-17360	-14224	5128	23952	-4803	-3602	-13560	7784	15432	8351	32767	-30214	-32768	-12504	12108	27778	22099	4449	-26652	-7544	10432	13141	-13282	-9478	123	133	1
-15556	-5432	16776	7969	6004	9448	-23596	-10920	-8012	6575	14428	-5095	-20440	7540	-11468	-5915	16290	-10574	-30272	22396	14172	3785	32767	-32768	-25032	14300	-2676	20280	21825	5705	-19748	-17108	9344	-3188	-15247	-12449	150	131	1
-17072	-11040	13996	7575	2470	2241	-14232	-6820	-6328	-3974	13456	-12228	-2424	-4940	-10984	-28165	10847	-12489	-30652	-12	13792	17809	32767	-32768	-23108	8856	-2156	7351	25632	5635	-21252	6532	-1524	21105	-17572	-2982	135	135	1
-7824	-7516	16928	5744	450	2226	-21360	-1492	-2408	-1636	9466	-6211	-15640	-25540	-16076	-3217	6392	1560	-30484	26600	18312	24680	23837	-32768	-25432	13092	-1652	-902	20344	3858	-28676	12008	-11920	32767	-14416	-1032	101	136	1
-6908	-8768	12704	3202	785	429	-17924	-524	680	-5704	9063	-5783	-23248	-11008	-4368	22145	13883	-9116	-23184	22708	18464	12485	17902	-32768	-17396	6960	-8704	-4604	16840	4522	-28088	3708	-15508	14766	-19953	3108	98	147	1
-6728	-6508	13584	1919	674	305	-17024	-1052	-40	-4927	7766	-5013	-17456	9528	-2304	11879	13250	-5858	-28944	32767	22456	6166	-10793	-15997	-16532	7676	-13244	8914	10997	2937	-25792	1388	-12628	-1002	-27158	2824	95	139	1
-6336	-7188	13108	1347	972	-4	-17164	-1268	924	-2193	6615	-4292	-12596	4416	-344	-398	9447	-4744	-10708	27124	12940	-8162	-22192	95	-11160	4272	-4208	16208	3975	3724	-25656	508	-8212	-5446	-29742	263	108	123	1
-5540	-8152	12424	916	1073	185	-17132	-504	2536	77	5559	-4032	-14472	-1788	-804	-4019	11579	-1474	-2976	10200	6876	-6637	-26330	8260	-7072	3216	-2920	10345	-1560	2611	-22152	-1500	-6424	-1956	-25877	2617	110	111	1
-6220	-8160	12736	116	947	425	-17260	-216	2620	-2625	5367	-3800	-18196	-1668	-1120	-2382	12621	-3699	996	5300	3604	5589	-26037	12394	-6216	3860	-2136	4090	-7258	1086	-17972	468	-6828	-2466	-21341	3553	161	106	1
-6620	-7684	12552	114	1039	899	-16740	624	2184	-9044	5885	-3201	-16668	704	380	-7787	13444	-5624	88	8960	3612	11543	-23454	14008	-6296	2368	-1408	-3479	-13096	836	-15428	228	-6504	-4854	-18851	2396	155	102	1
-5884	-8108	12068	630	973	1191	-16560	-2028	2780	-11133	6005	-2916	-14816	-264	856	-14897	14885	-5448	-1108	11884	5668	9194	-22477	15855	-6296	876	-1920	-7324	-18626	863	-13708	-1148	-7080	-5894	-17874	-301	124	132	1
-5744	-6564	12952	714	1137	1672	-16964	-2156	1800	-3320	5078	-3324	-15188	-1516	2000	-14040	13787	-3881	-3020	9420	8364	7158	-21457	20647	-7864	-224	-3312	-8400	-23154	94	-11040	-480	-6528	-6765	-18240	-1734	86	125	1
-6220	-6916	13144	-218	1156	1800	-16152	1144	2824	-2008	5573	-3302	-16204	-768	2016	-9744	11635	-3654	-4988	7788	11032	9463	-21511	27358	-8380	-644	-3868	-6566	-26702	-1611	-10336	972	-6176	-8652	-17432	-1552	129	124	1
-6760	-7580	12172	-291	847	2840	-14840	-748	3056	-5989	6775	-3293	-14932	-1772	2076	-6682	9206	-3580	-7464	8032	13004	10440	-22859	31638	-9224	1036	-3952	-6302	-30470	-2922	-9804	1636	-6968	-11193	-16178	-1953	128	119	1
-6480	-7188	12640	47	402	3551	-16012	-2236	1824	-4230	7663	-3724	-15268	-3548	3148	-3931	10685	-4189	-9360	6784	14524	10083	-25239	32767	-10012	2328	-4328	-9740	-32768	-4992	-8720	3296	-7556	-14587	-13316	-2194	124	108	1
-6304	-7760	12464	64	222	3613	-16584	-1760	1580	-1809	8256	-3870	-16052	-2316	3132	996	11515	-5137	-12300	7160	16532	11002	-27666	32767	-11872	1712	-5872	-12468	-32768	-7105	-7968	2856	-8868	-17752	-9275	-940	121	113	1
-6912	-7944	12648	-766	-12	4185	-16824	-80	-1172	-1434	9168	-3521	-16368	-1912	2400	1462	10907	-5178	-14500	8364	19072	11773	-29580	32767	-14644	1520	-7280	-12834	-32768	-9933	-7108	1316	-9832	-16940	-5071	218	123	125	1
-6020	-6824	12732	-393	441	5463	-17076	-1400	-1152	-4107	8776	-4264	-15516	-1992	-2936	-4206	5093	-4708	-18740	11020	22904	12325	-31462	32767	-18428	1904	-9256	-10172	-32768	-12947	-6004	72	-10440	-9701	-1554	695	122	127	1
-6804	-6996	12988	-1132	912	5817	-18148	-2292	-1776	-4153	8616	-3368	-16188	-2644	-3332	-3752	6773	-3716	-23652	16100	26268	10747	-32549	32767	-24388	3956	-10332	-9144	-32768	-16173	-7020	-500	-10068	2451	3408	297	119	130	1
-7416	-6956	13192	-2248	2356	5215	-18164	-1464	-1428	-4081	8834	-3526	-15668	-2152	-3596	-3040	7176	-3698	-30868	11440	27864	6002	-30342	32767	-30048	656	-13284	-3257	-32768	-17702	-8508	1300	-6092	7776	6292	1030	112	132	1
-5924	-7920	13456	-1802	5832	5626	-19512	-1596	-628	-3113	9086	-3162	-18600	-2668	-1196	-4705	7971	-2766	-32768	4884	28220	8941	-29760	32767	-32768	12932	-15520	5662	-32768	-17694	-13832	6072	3848	1491	2474	4839	117	132	1
-7360	-7960	14012	-717	9714	7257	-19112	-28	496	-3620	10465	-3129	-19508	-3088	4304	-5325	8561	-2317	-32768	-2424	13796	4425	-32768	23409	-31600	13620	-18364	-6376	-32768	-11776	-25152	2216	20348	3109	-13127	7975	136	121	1
-7780	-7516	13700	-908	13221	8469	-18816	356	1212	-2964	12850	-4001	-18120	1124	6672	-4078	8274	-1696	-32768	-16188	-9744	4001	-25622	8219	-15072	8404	-27936	-3070	-23494	-4724	-25704	9348	32388	-13623	2434	6342	121	114	1
-8120	-7360	13220	-766	16916	9955	-19484	648	1112	-1587	15204	-4625	-18192	3700	7868	-3569	7657	-1204	-32768	-28740	-22644	13367	-10228	1733	456	7824	-28176	8299	-1506	2901	-17064	-21272	32767	-25877	10163	5210	104	114	1
-8124	-7192	14676	2278	20089	11200	-19552	592	900	73	17808	-5423	-18596	-120	7700	-4377	7596	826	-32768	-17288	-19036	-6171	11777	-7073	-6832	14812	-28020	-11980	16939	7535	-23436	-28348	12136	-17114	13821	-4179	79	117	1
-9640	-8056	13812	4432	24642	13849	-22324	968	2680	472	20297	-5622	-19604	-1796	8484	-6691	5652	3008	-19300	1820	14868	-20324	21778	1040	-18760	-2656	1360	-22088	26047	9386	-15448	-8324	2392	2471	-1261	-9364	84	112	1
-10256	-10056	12972	4353	30159	19447	-27152	3012	4500	-5666	22396	-7120	-22232	1912	16392	-10888	-1036	4070	28468	-536	22336	-6662	32512	-19949	-32768	528	13276	-31396	14169	12269	-13400	-6724	-7232	-15154	-2672	-5360	109	115	1
-9428	-16508	15636	5411	32767	26479	-32768	3908	17552	-17759	26984	-4663	-30704	5452	25808	1719	-16820	9845	-32768	9940	24228	-10305	26394	-10248	-4156	-3968	-17768	-26167	23566	4718	-22396	9756	12468	-21592	-4824	8883	147	120	1
-19668	-15148	15440	3032	32767	32767	-32768	-1048	14916	-14870	24899	-5081	-28836	8784	9304	-11332	-11012	8388	-32768	16796	22376	-11746	28193	-3501	-20644	10000	-7720	-2857	15638	18096	-26112	-12940	-21420	5021	15189	13397	150	134	1
-32768	60	23344	-15122	32767	32767	-28012	4752	4576	-25210	27439	-5734	-24344	-860	6044	-22059	-15400	9328	-28800	-1016	20652	-10634	-360	-12850	-13520	5228	-15752	13279	12945	9732	2568	-3032	-14308	26862	8966	15481	140	139	1
-32768	-32768	24804	-12490	28296	32767	-32268	-15996	4072	-18157	24811	-667	-27428	-9656	-10988	-28280	-14411	4630	-6064	12672	11948	-4690	-347	-5867	-18568	8532	-3264	24035	9963	7818	-17800	27580	-11684	22727	8963	4010	132	126	1
-20588	-24512	19984	-16464	10408	32767	-22676	-6132	4576	1406	14038	-5005	-26624	-5180	-11828	-19738	-16090	-1864	-8080	6444	14064	-5873	682	-6089	-18220	9492	-3684	8349	8591	6627	-23712	21292	-7600	-10096	12886	4308	140	153	1
-16864	-32768	11828	-7587	-10863	32767	-14792	-6392	-10932	-3372	7767	-3210	-28072	1248	-9212	-5423	-20141	-2259	-10184	3700	14192	-2779	434	-2315	-15696	8032	-5808	-5280	8499	2178	-15788	556	-5228	-14019	13356	5307	145	155	1
-5692	-32768	16912	-7321	-32768	-6564	-13188	-3336	2080	-10681	5892	397	-26636	2368	-7180	3531	-21515	-1439	-8068	6924	13272	-1360	1559	-1532	-18388	400	-2796	721	7305	1356	-13424	-4144	-4220	-6509	15615	2177	158	145	1
5832	-19764	-3340	5538	-29153	-16631	-10892	1168	4888	-3188	-3751	-954	-26992	-2168	-5328	876	-23959	-4212	-8656	7648	12816	-280	2067	-1956	-15980	3344	-1496	10134	5500	1982	-16712	2204	-3208	2353	14472	2109	132	152	1
6828	-7900	-1980	-6104	-20296	-19505	-9340	2760	2204	-1901	-12841	1309	-19452	-3612	-5652	2675	-21084	-5493	-8688	7668	12544	-452	1777	-3316	-16676	4720	-1632	14200	4519	2311	-17608	3400	-2936	3497	16508	5052	139	116	1
440	-14476	4296	-20081	-14853	-24335	-9204	1224	1772	-1569	-14028	1630	-16744	-1928	-6972	5160	-19120	-3119	-8644	5784	13244	-18	2112	-2999	-16824	5168	-2464	7797	4025	1695	-15292	-188	-536	7295	16826	7003	133	118	1
-4412	-20772	7580	-14458	-15558	-30815	-9236	-2472	904	8148	-25276	2385	-15196	-1980	-7392	8693	-18972	-2548	-8932	6780	12516	-91	2707	-2396	-16488	3308	-1412	3848	4192	848	-15000	776	2156	12444	16105	6933	142	79	1
-3852	-11520	10172	-9849	-16841	-32768	-11492	-528	-564	14513	-30612	2821	-13832	-3348	-8100	9244	-17844	-3663	-9236	6460	12392	-12	2477	-2945	-15604	2908	-880	6975	4118	1629	-15256	364	1768	12937	14729	4114	153	87	1
-6380	-9860	14372	-16106	-18386	-32768	-11852	1544	-1816	16115	-32768	6551	-12284	-3556	-10444	12840	-16202	-3722	-8912	7188	12188	360	1847	-3764	-15160	3216	-188	10143	4628	2344	-14708	-1480	660	10145	13446	3229	139	107	1
-8384	-12668	17080	-17579	-21128	-32768	-13372	4700	-1996	11486	-32768	8781	-8004	-1080	-11540	17054	-14427	-942	-9016	6424	12756	417	1387	-4047	-15448	3772	-852	7993	5453	2264	-15216	-196	1220	7793	13425	4004	129	115	1
-9576	-10128	18816	-16052	-22192	-32768	-16004	3308	-3288	8552	-32768	11219	-6444	-1756	-12640	22161	-12808	590	-8764	5864	12696	346	1914	-3472	-16044	2736	-1452	4439	6636	1815	-16956	1876	-848	1127	13174	5162	122	124	1
-12288	-11756	22388	-16941	-22162	-32768	-18116	2404	-4844	7606	-32768	14384	-4524	-1816	-13500	24804	-10412	1709	-9168	5648	12740	734	2487	-3462	-16204	2160	-2048	3771	7424	2077	-16256	4488	-4204	1764	7151	4688	130	123	1
-15488	-15796	25336	-15945	-22732	-32768	-22924	988	-5208	6766	-32768	16184	-5232	-672	-13636	18773	-7274	2200	-8644	5968	13136	1205	3605	-3822	-16736	3232	-2808	3357	7786	2068	-16740	4244	-3112	640	5855	2888	149	131	1
-23860	-23944	30212	-13305	-23920	-32768	-30948	-1684	-7384	8350	-32768	18912	-4304	584	-11824	9527	-1127	2225	-9248	5440	13312	-336	6504	-4577	-18116	2268	-3460	2395	8145	2111	-17516	5296	-2068	477	8361	1989	143	127	1
-32768	-16892	32767	-11921	-22834	-32768	-32768	-616	-10652	4563	-32768	21642	-5288	1652	-4748	5925	-229	1393	-9620	6328	13704	230	8769	-4675	-18280	1772	-1832	3771	8989	2111	-19072	2800	-940	775	9532	1281	135	128	1
-32768	-14532	24488	-5632	-21058	-32768	-32768	-18264	-13116	1521	-32768	21451	-10572	-1268	3776	5208	-6344	-2010	-10092	6572	13256	-411	10898	-4662	-17072	3360	716	1531	11160	2460	-19248	2288	4596	-553	8358	1742	122	129	1
-32768	9528	10444	-1281	-25641	-32768	-32768	-15584	-23236	19352	-32768	12670	-31476	-652	19220	4816	-19175	-11337	-9172	6576	14236	-1336	13037	-5861	-19584	7428	1676	-1746	13387	2032	-20608	-2652	8608	1430	7005	2631	125	119	1
-32768	27928	-3876	-12911	-11462	-21736	-18104	-9992	-32736	-959	-20596	4679	-25592	3644	32767	16897	-2587	-1184	-11080	8052	13552	-2485	16101	-8126	-19436	2092	220	-65	15923	3532	-17908	-5240	6080	5243	6293	1842	133	115	1
-32768	30964	-10660	-6887	8591	-490	-10908	-17036	-30528	-6904	-495	-2933	-11000	27480	32460	29004	16497	3831	-10464	6252	14776	-3709	20048	-9190	-19516	1980	-32	-1104	18392	2926	-18512	3924	5360	7132	8198	669	130	121	1
-32768	21336	-9640	20294	14793	11706	-11108	-17640	-31996	11827	17695	-12669	-23100	19212	19136	9136	4855	4550	-11628	8264	14144	-3298	25548	-11793	-21952	1396	1364	-1097	20689	3271	-21720	5888	6020	8172	6767	-830	124	124	1
13380	-12068	21588	25522	28298	12222	-22068	15172	30504	32767	23333	-14990	-17952	1704	-1508	-17640	-1182	3115	-11796	9280	14516	-1780	31637	-16405	-24356	668	2848	1985	22381	4314	-21400	2672	7740	8552	2876	-2540	116	126	1
-18004	-2776	32767	6942	25806	27221	-32768	3912	-2708	23323	5929	4477	-15620	-7216	-14204	-12860	13515	-13560	-11804	11564	14096	-75	32767	-23020	-32768	-1796	3492	3955	22265	3890	-22120	2292	8028	8400	2000	-2949	138	127	1
-32768	-16368	26696	16406	29987	16219	-7292	-10172	-14860	5264	23157	-28745	-18236	-428	-204	19213	2870	-3120	-17628	13004	15772	4006	32767	-32038	-32768	-2072	13176	26698	23324	3454	-26612	-2404	8736	15669	-11870	-9126	133	127	1
-6444	-4984	3492	9017	13456	11254	-24380	-2328	-2352	4184	13303	-4626	-14904	7468	-12000	-3818	14849	-8475	-32768	16492	18000	323	32767	-32768	-26896	13212	-3692	8901	22946	6029	-20340	-12168	6156	-2343	-13392	-8883	130	127	1
-12556	-6700	14204	12442	11440	9936	-12388	-8944	-7432	-2657	14779	-16400	-3580	-5904	-13760	-32768	6755	-10466	-28260	11068	17844	16743	32767	-32768	-25168	6760	1376	10717	25745	2958	-23324	4840	-2612	18186	-18463	-3850	130	132	1
-9036	-6632	17588	7417	360	3355	-21964	-5204	-4104	-3334	11211	-6180	-19356	-30396	-9868	-11241	7248	270	-28836	23188	18108	13674	24833	-32768	-25020	17652	-4424	-4731	20788	4225	-28164	12536	-13228	31357	-13523	273	129	145	1
-7352	-10444	11880	4055	561	1146	-17864	-3048	924	-5909	10773	-5668	-22068	-32768	-8656	-5786	9684	-529	-32008	26124	14376	439	15679	-32768	-19516	3240	-9808	-6742	16222	2935	-30196	5596	-16008	13232	-20036	4565	110	157	1
-7296	-5600	14864	2589	-251	978	-17712	-3984	-1716	-1086	8429	-5096	-18468	5116	-3112	16117	11843	-7936	-16412	32767	14748	-4750	-7007	-13100	-15976	5972	-10004	7347	10021	2507	-27612	-340	-14084	-2810	-28145	3914	79	144	1
-6928	-6636	13616	1121	882	356	-18184	536	-1568	236	7115	-4810	-13428	5936	-2596	7160	11454	-4367	-9104	22556	11900	-9013	-16895	4234	-11544	4196	-5464	10244	3725	1499	-25204	-1380	-8076	-4690	-30819	728	90	129	1
-6324	-7188	12772	47	1106	468	-17780	56	112	-700	5618	-3423	-15120	1036	-3432	1385	12948	-1178	-4864	10264	8188	-5697	-21291	11197	-6760	3796	-2716	8929	-2012	1497	-21700	-488	-6740	-3142	-27642	2273	131	124	1
-6552	-7044	12948	-254	1245	1099	-17748	120	744	-3610	4837	-3944	-17824	-360	-3440	619	13342	-1900	-792	6376	4920	2333	-23444	12589	-5744	5520	-1916	2811	-8448	1176	-18012	-1068	-6720	-4112	-23002	3660	155	94	1
-6524	-7708	12228	-598	1339	1746	-16840	300	2236	-8659	4822	-2756	-17356	788	-432	-2659	14675	-5040	-1260	6824	4808	8401	-23802	12163	-5620	2236	-2300	-5258	-14586	1427	-17036	-1148	-6932	-4687	-22176	3165	157	97	1
-6196	-8428	12144	-816	943	2564	-16828	-1648	2664	-11188	4782	-2113	-15164	-648	748	-9225	14837	-5108	-2072	9352	6464	10861	-24396	14672	-5852	-24	-3100	-7424	-20012	1170	-12916	-1652	-7420	-5064	-17787	470	135	133	1
-7280	-7900	12144	-1029	701	2478	-16836	-3668	988	-5544	4399	-2667	-15340	-936	484	-9969	15021	-5080	-2076	8464	7936	12040	-22766	20341	-6380	-644	-3340	-7012	-20820	960	-10480	-1632	-6512	-4501	-17647	-1489	144	124	1
-6120	-6928	12512	-555	505	2406	-16888	236	996	-104	3982	-2299	-15084	-1580	844	-11621	15920	-4706	-7216	8332	11920	13313	-22250	28445	-7812	-740	-5004	-5723	-28467	-1156	-9600	144	-6768	-6533	-16659	-1311	129	124	1
-7084	-6992	12636	-994	608	2934	-15948	536	1312	-5398	4849	-2202	-16064	1080	780	-10135	13351	-3521	-10244	8040	15416	13075	-24581	32767	-8864	488	-4832	-6081	-31540	-2857	-9224	1440	-7124	-9225	-14941	-1312	127	109	1
-6780	-7244	12376	-918	180	3544	-15540	-932	2060	-8027	5760	-2482	-14788	172	1396	-8813	12176	-2892	-9952	5596	16656	11108	-27214	32767	-11120	444	-4084	-7391	-32768	-4913	-8892	2612	-7608	-11617	-12646	-1916	125	116	1
-6928	-7248	12288	-239	-56	4183	-15900	-1972	1964	-6250	6613	-2783	-15080	-2256	5384	-2563	14136	-4166	-12044	4068	18760	9843	-29589	32767	-13188	1764	-5392	-13412	-32768	-7088	-8172	3776	-9220	-15367	-9202	-2001	128	113	1
-6760	-6924	12872	237	-259	4601	-16012	-960	856	-3831	7512	-3170	-17368	-2692	476	-625	7786	-6284	-16000	5396	22636	10325	-32768	32767	-15600	736	-8364	-16791	-32768	-10767	-7500	3660	-11112	-17050	-5739	-1555	127	119	1
-6908	-7144	12552	657	152	4741	-16096	-596	592	-4117	8607	-2979	-16204	-2304	-896	-4350	4148	-5814	-20672	8960	26444	10972	-32768	32767	-19300	-680	-10124	-11525	-32768	-15234	-6904	1036	-11848	-13073	-2583	-1407	125	129	1
-7152	-7380	12540	-414	565	5175	-18024	-1924	-524	-3452	8960	-3105	-17100	-5112	908	-3665	7852	-3317	-25116	11544	28108	8017	-32768	32767	-24196	-520	-11404	-8422	-32768	-17827	-6892	-860	-10836	-4152	1034	-1709	120	132	1
-7580	-6776	12944	-1914	1284	5343	-18120	-1772	-304	-4045	9640	-2854	-16008	-3236	-1724	-1687	8779	-2560	-29412	4552	28548	7914	-32768	32767	-29648	1340	-14136	2231	-32768	-20007	-6980	1908	-6072	-2144	1470	-145	116	140	1
-5440	-8528	12192	2568	6505	7004	-18392	-824	-48	-3186	10416	-2891	-17360	-1488	-1240	-2244	8270	-2939	-32768	5140	26644	11378	-32768	32767	-32768	15852	-15932	5212	-32768	-19089	-13108	4004	3640	-5	-939	2820	116	135	1
-7636	-7840	13844	1490	9094	7357	-18680	332	436	-1425	11971	-2909	-19288	-2252	4164	-3056	9223	-1623	-32768	-2620	9744	6831	-32768	18319	-30236	12912	-20244	-3037	-32768	-10392	-24888	852	17476	7747	-7493	7224	119	137	1
-8160	-6804	13980	521	12619	8169	-19140	596	1108	-995	14344	-3381	-19044	2364	6952	-4447	7860	-1104	-32768	-25684	-11908	16400	-27853	6903	-14856	10364	-30968	-1486	-23937	-4283	-28800	1064	32767	-8800	3827	2318	128	120	1
-7972	-8180	14144	525	16022	9705	-19928	-212	1260	506	16727	-4205	-18208	5292	7272	-2838	6651	-1665	-32768	-30368	-20984	14730	-7433	2627	592	8964	-30308	10817	-745	2787	-21628	-32768	32767	-32768	9017	4538	126	114	1
-8360	-7532	14980	3486	20021	11932	-21108	1544	1116	1994	19371	-4565	-19760	-1764	8540	-4914	8405	997	-32768	-10256	-19252	-11736	16193	-5756	-5068	16980	-26324	-9105	18567	8420	-22212	-23556	16632	-1210	5891	-4948	122	120	1
-9560	-9600	14748	4851	25374	15471	-23676	2784	3208	687	21878	-5263	-20692	-2540	8800	-7583	5731	4232	-20860	9568	22956	-15875	24413	815	-18460	-7292	6576	-20464	27196	7287	-6296	-5308	5944	3730	-1660	-11407	124	127	1
-10048	-8872	14664	5609	30712	22177	-28492	5396	4296	-4818	23744	-6481	-22624	5816	16328	-11217	-2363	5989	32767	22752	9268	-4720	32767	-20991	-32768	1864	28260	-32768	10798	12375	564	10484	-23768	32767	15520	7147	130	115	1
-8760	-13084	16644	6280	32767	31286	-32768	9132	18552	-19370	28390	-2750	-27884	10232	27052	11420	-17215	11359	-32768	9448	31812	-15620	32767	-12248	-4644	-4252	-16108	-17157	22083	5693	-32768	20632	9696	-22759	-7430	9024	137	132	1
-15996	-14844	20556	308	32767	32767	-32768	8696	19160	-20287	28077	-1933	-28684	7956	9712	-11852	-11854	9400	-10844	4904	16044	-19895	5411	-12964	-27612	11888	-10180	-12499	17909	18651	-20248	-6672	-18484	-13563	20536	19431	132	153	1
-32768	-1588	32100	-14108	32767	32767	-29048	-4568	5952	-18788	29191	-1258	-29140	-12180	7624	-29186	-14092	8407	-21096	8408	13956	-7243	2663	-9396	-9272	3320	-11884	13381	14105	7519	7976	-2248	-24824	20524	4922	17085	124	144	1
-32768	-32768	27020	-10293	21197	32767	-32176	-17976	5140	-8101	23378	92	-30960	-17104	-17312	-21036	-13269	956	-8328	3348	17608	-3542	-1328	-6544	-18764	10032	-5968	17670	9393	7501	-19352	21372	-9128	7762	9437	645	127	135	1
-23088	-26172	26128	1211	6535	32767	-20356	-7604	-3584	11350	13076	-3114	-28892	-4972	-14076	-2781	-18449	-5183	-10760	4140	14092	-2122	1081	-2483	-20496	4832	-6952	8060	8448	4946	-23208	23684	-11264	2333	11341	389	125	154	1
-32768	-30060	20280	10160	-6882	27558	-18268	-4464	-12556	-400	10086	478	-29276	908	-9104	5652	-23660	-4123	-9492	7536	12712	-325	1975	-1152	-16168	6256	-4420	2194	7218	3337	-15868	-912	-5416	-6101	13802	4008	124	150	1
-1696	-32768	7324	-779	-31102	-8342	-12704	-1132	456	-5110	6899	3203	-26744	6112	-8280	3280	-20730	-1073	-7920	7580	12868	99	2355	-1164	-17312	4040	-2072	3969	5666	1949	-13132	2900	-4872	354	15306	610	128	140	1
3660	-15352	-3916	7929	-25595	-14707	-9564	1104	2120	-5271	-2438	3161	-24548	2140	-7364	-12	-24145	-1052	-7868	8500	12772	229	2432	-2152	-16044	3196	488	7516	4084	1631	-19020	6440	-3156	46	15055	3362	114	155	1
4620	-5444	-2764	-1299	-18805	-14743	-7304	608	-88	-3975	-10832	3981	-20156	-3456	-8292	5327	-23101	-5300	-9004	7268	12604	597	2399	-3416	-17160	3644	-1372	14130	3385	2462	-17392	-84	-1032	1537	16264	6190	134	117	1
-1308	-9744	1720	-16391	-16055	-17631	-6932	-2752	-1820	1168	-17972	3783	-15640	224	-9464	8794	-19625	-3304	-8000	5804	13384	1146	2428	-2963	-16020	5080	-1868	8595	3010	2008	-16040	-3404	152	11288	16084	8337	127	101	1
-5756	-19492	5356	-17052	-17508	-25387	-6656	-1772	-1224	4207	-23121	3086	-14884	2128	-9200	10910	-19005	-1184	-8832	6892	12412	833	2456	-2327	-15644	3372	-464	7071	3110	1213	-12844	-360	2420	18539	13673	6178	136	92	1
-4872	-16072	6960	-12290	-19577	-32768	-6864	-1768	-1204	4385	-23868	2853	-12780	920	-8604	9929	-18417	-2348	-9168	7712	11812	645	2022	-3011	-14820	4904	312	9811	3264	1588	-14748	1904	164	14656	11749	3959	137	90	1
-4116	-9160	8268	-13934	-18999	-32768	-10456	364	-684	12162	-32768	3282	-12748	448	-8568	9555	-18214	-2399	-8960	7060	11852	453	767	-3779	-14468	4484	-244	9082	3671	2033	-14856	1860	-88	11764	11852	5113	144	116	1
-7216	-10452	12444	-17764	-19386	-32768	-11048	-464	-1992	14820	-32768	5154	-9200	-1828	-10708	12275	-16261	-1092	-8704	6316	12584	197	384	-3910	-15328	2776	-1084	8023	4375	1869	-15072	708	220	5506	13034	5747	143	112	1
-7752	-11100	13044	-17890	-19718	-32768	-12068	1468	-3172	14702	-32768	7499	-6136	-2708	-12528	16187	-13227	671	-8388	6132	12532	442	482	-3409	-15396	2392	-852	8264	5397	1930	-17196	3780	-1752	4017	9226	5358	122	109	1
-10764	-11036	17300	-18686	-22688	-32768	-15224	2480	-4080	11528	-32768	10457	-4084	-1448	-14104	21939	-9382	-23	-8672	6648	12652	574	950	-3339	-16232	3064	-868	6810	6084	2139	-16952	3036	-2524	4253	4409	4299	117	122	1
-13828	-14356	21436	-20448	-21905	-32768	-18984	1592	-5336	9112	-32768	14084	-4180	-568	-15616	20815	-5700	-949	-8596	6692	12820	798	1718	-3197	-16676	3388	-2100	4499	6689	2074	-16412	3548	-324	2174	5353	2811	135	119	1
-17764	-20780	26004	-19510	-21371	-32768	-25316	176	-6152	7983	-32768	16421	-4632	-56	-15872	10038	769	4091	-9148	6452	12760	1319	2647	-3306	-16976	2404	-2104	4753	7175	2078	-16740	3276	-1056	3630	8360	2128	142	120	1
-25216	-24728	30612	-15457	-18889	-32768	-32768	1728	-5748	7488	-32768	20021	-4600	-1060	-12056	2855	5240	3733	-9300	7004	13176	1546	5246	-3967	-17868	3348	-1416	4944	7902	1956	-17292	3168	-1640	2518	8935	2091	132	130	1
-32768	-16516	32767	-16453	-17756	-32768	-32768	-6168	-9992	-5701	-32768	25989	-7540	-1140	420	2937	2680	294	-9332	6796	13280	823	7551	-4595	-17304	2632	460	4684	9596	2275	-19532	3428	2824	2475	8003	2104	127	133	1
-32768	-11008	32767	-6475	-25631	-32768	-32768	-21032	-16112	3731	-32768	21906	-30164	-6056	32767	-2457	-30309	-5081	-9544	7648	13960	-87	9522	-4685	-17212	3940	640	-121	11921	2212	-19376	1940	6916	1822	7166	2266	124	129	1
-32768	17056	5316	-2732	-22308	-29340	-23104	-9528	-24168	3005	-29919	14229	-32768	-3028	17604	2187	-13023	-23242	-10360	7992	13516	-1064	12852	-5778	-20716	2104	88	-759	14047	2891	-20288	-3744	4100	3637	7031	2399	137	118	1
-32768	32767	-14632	-12007	-8587	-6253	-13692	-9008	-29548	-5627	-11914	-4949	-5380	7312	32767	15667	6096	-2940	-9892	5732	14428	-1580	16239	-7133	-18356	1832	-884	-373	16055	3690	-17628	-608	3600	6562	7528	803	135	113	1
-32768	31480	-5672	-14759	5348	4810	-7736	-18716	-32228	-4300	9899	-4803	-18452	32767	22860	32767	23955	9996	-10204	6364	14720	-2654	20627	-7453	-19528	2276	-988	-3474	18163	2979	-17668	5948	2036	4935	6441	101	145	124	1
-32768	4076	-6352	32767	27460	17534	-17256	-18680	-22488	16922	23152	-11458	-27652	12240	15436	9429	4039	11709	-11172	7360	13164	-2537	25627	-9774	-21972	1916	-352	-2573	19837	3389	-21896	6036	4496	4329	7136	-1058	142	127	1
9432	-22808	9848	31401	26823	12046	-22060	664	16568	30469	25402	-16023	-12172	-4420	-7012	-13814	-2990	867	-11484	8860	13016	-425	30680	-13804	-22400	1308	1728	1473	21112	4741	-20952	3240	7160	6860	4901	-1668	119	120	1
32767	1208	4588	10777	29314	22417	-32768	32767	31736	26908	-448	2093	4900	-16348	-32768	-32768	22919	-20351	-10452	9408	13596	1454	32767	-19256	-27368	1036	3404	2427	21852	4320	-23724	-1864	9704	6947	-768	-2171	128	127	1
-32768	14160	12504	16000	32767	22775	-9612	-17524	-27452	11502	10994	-14616	-32768	-17304	15796	32767	-9502	-6520	-11528	6308	13080	8501	32767	-28507	-32768	-12528	9988	22253	21342	4607	-26064	-6508	13940	10411	-10700	-6812	141	125	1
2868	-16636	14812	11080	13339	7265	-32768	6432	24	7356	15091	-18401	-32768	21652	-5540	17662	15879	-2216	-28188	21748	11032	3429	32767	-32768	-25904	12332	4308	25112	21890	4925	-22520	-19208	19612	-13031	-16317	-15179	140	140	1
-14316	-4572	20964	5163	4876	1324	-14128	-2748	-4608	5423	13941	-12426	-2352	9320	-4740	-23744	14462	-17707	-32768	-3272	18644	13751	32767	-32768	-22632	13372	-1720	8597	25869	6524	-20768	612	440	21177	-16427	-4314	133	131	1
-11688	-13888	11184	4623	835	2381	-16728	-4084	-2536	-8144	11486	-8538	-4124	-12780	-21828	-32768	5233	-4605	-32768	28216	20248	21987	28616	-32768	-26260	13364	-1072	2533	22049	3094	-28024	15912	-9956	32767	-15026	-2421	114	159	1
-7592	-4964	15016	2720	463	1396	-18056	736	-1352	-4883	9045	-7493	-19372	-27812	-6544	13103	6564	227	-18164	15408	13996	10800	20718	-32768	-20188	8208	-4864	-7147	17704	5447	-28152	7060	-17808	19786	-17088	2255	118	134	1
-6556	-9068	12880	1304	1112	382	-19220	-1416	664	-7643	8159	-4966	-23392	-4220	-2780	16647	18429	-5681	-32768	30720	26660	9529	2107	-29552	-17304	6204	-13468	2926	12517	2538	-27204	936	-13836	31	-26639	4275	100	134	1
-6612	-7516	12816	760	1091	208	-17804	-3656	568	-3543	6625	-4980	-15420	7580	-5032	6474	10525	-6085	-13564	30036	15756	-3252	-12392	-6393	-12104	5484	-8448	11528	6365	2355	-27040	792	-9276	-6698	-30576	2239	99	131	1
-6184	-7504	12596	305	1269	583	-17100	-1284	1484	2648	4526	-4060	-12316	-456	-400	-3147	11348	-2264	-5948	17688	8300	-7066	-19181	8370	-8860	1868	-4332	13576	374	1256	-22984	-444	-5800	-875	-27250	3070	118	127	1
-6312	-7640	12448	-7	1189	903	-17068	2232	1852	-4394	4777	-2915	-15492	-1832	-2384	-3282	13309	-1050	-1804	7956	5176	-1555	-21128	15464	-5220	4448	-2448	8616	-5244	402	-19504	348	-7820	-3330	-23796	4300	148	94	1
-6080	-8232	12320	-502	1115	1473	-17380	-296	3560	-10799	4930	-2587	-19168	184	-1036	-5741	14991	-5210	-1480	8292	4084	4737	-21471	16746	-5252	5760	-1688	-2327	-11326	-42	-15120	600	-6940	-5559	-20446	3235	162	121	1
-6844	-8536	11740	11	908	2413	-16976	-2084	2396	-13418	4788	-2185	-16252	-1332	560	-14706	15045	-6180	-3940	9372	6236	6031	-23535	17196	-5112	3380	-2728	-10484	-17474	823	-14100	876	-7676	-7469	-18082	2166	123	117	1
-6772	-7244	12844	-157	1105	2434	-17284	-2228	1860	-6507	4216	-2609	-14732	-1936	772	-14402	14831	-4340	-5160	8376	8752	6342	-25917	20571	-6392	844	-4028	-13599	-21904	25	-12008	-576	-7244	-8609	-17645	101	140	123	1
-7064	-7156	12648	-1153	782	2543	-15252	1964	3380	-6099	4982	-1883	-16232	2176	2900	-10011	11873	-3398	-5972	7692	11320	8905	-27607	27099	-8328	-1952	-4548	-10743	-26222	-2251	-10692	-328	-7092	-10678	-17324	-849	116	128	1
-6960	-7912	11748	-531	212	3440	-14440	-1652	3936	-9980	6755	-2355	-14852	2760	4772	-11103	7969	-5045	-6616	7012	12332	9777	-28770	32767	-9128	-2224	-4272	-6153	-30308	-4345	-10180	-172	-7856	-12612	-16075	-1451	127	123	1
-6608	-8216	11736	-16	-267	4055	-15088	-2000	3604	-5433	7958	-3080	-14988	-1204	6160	-5879	9715	-3941	-8784	5120	14564	9230	-29222	32767	-10052	-120	-4908	-8102	-32768	-5624	-9344	908	-8484	-13848	-13813	-2641	126	115	1
-6840	-7476	12236	-218	-1050	4528	-15960	-808	1608	-1617	8667	-3553	-16740	-4596	4216	-1789	9878	-4882	-10996	5544	17016	9179	-31001	32767	-12120	456	-5500	-11232	-32768	-8291	-8280	1740	-9632	-15051	-9640	-2363	131	119	1
-7112	-7604	11944	74	-911	4396	-16936	-924	440	-1753	9435	-3878	-16972	-3540	-3780	-4444	4863	-6056	-13664	5964	19696	9002	-32369	32767	-14816	396	-7376	-13587	-32768	-11008	-7300	332	-10816	-14003	-5449	-1933	131	130	1
-7180	-7140	12596	-769	-219	4647	-17552	-812	-840	-941	9573	-3691	-15740	-3584	-3188	-1113	5075	-4198	-19160	8720	24724	10172	-32768	32767	-18164	828	-10432	-12875	-32768	-14501	-6444	432	-12352	-9336	-1443	-1036	127	132	1
-7380	-6968	12868	-1507	676	4617	-18160	-1088	-1544	-564	9598	-3497	-15876	-4492	-3504	415	7426	-2469	-23624	12208	27752	10116	-32768	32767	-24128	-136	-11292	-9401	-32768	-17545	-6664	-560	-12196	-161	3778	-1246	121	130	1
-7172	-7040	13140	-3547	1390	4533	-18548	-1024	-1068	-732	9653	-3404	-15936	-1768	-3400	-335	7763	-2979	-31304	8512	31004	9096	-32768	32767	-24944	-404	-11712	-8764	-32768	-17814	-6584	272	-8212	2882	5965	-427	117	134	1
-7472	-7756	13236	-1169	5651	5501	-19364	-928	-400	-992	10115	-3173	-18476	-260	-1132	-1458	7668	-2186	-32768	1760	30508	7963	-32768	32767	-32768	13824	-15836	6448	-32768	-18854	-11344	4312	2836	121	2941	2291	116	139	1
-7552	-7756	13460	126	9657	7281	-18756	1092	404	-1390	11304	-3643	-18960	-1752	3448	-2988	8575	-1235	-32768	-7784	17468	4112	-32768	17659	-32768	11392	-20292	-3876	-32768	-14645	-23112	1780	23328	5672	-17160	5344	126	132	1
-7824	-7204	13932	110	13011	8195	-18900	704	508	-475	13561	-4081	-18040	1628	6792	-2526	7784	-1407	-32768	-24392	-6564	8888	-32605	4462	-15516	8000	-28684	4488	-25259	-8076	-30284	5108	29432	-6147	3477	3987	128	122	1
-12036	-13440	22744	2693	14227	8978	-18876	3724	788	-1680	15330	-4339	-17800	5168	7184	-3060	6877	-1447	-32768	-32768	-23620	17792	-17431	-5084	-2036	10136	-28080	17541	-4334	1755	-16288	-22824	32767	-19040	9080	4342	120	126	1
-8532	-5472	14608	3731	20029	11493	-20984	-816	48	1370	18189	-5397	-18656	640	7140	-3990	7680	1516	-32768	-19880	-17040	-1168	2050	-10727	-3948	15860	-27916	-4664	15780	5701	-22040	-28784	13624	-10217	12245	-4367	120	118	1
-10704	-9516	13452	5294	24435	14346	-22364	828	3508	1199	20847	-5648	-19860	-2068	9192	-6909	5620	3795	-31820	8048	6744	-18302	18207	-6310	-16276	5432	-14288	-8628	27277	9541	-15068	-6580	2696	11430	471	-10185	121	116	1
-10820	-10328	12444	6235	29356	20382	-26736	3940	4560	-4242	22491	-7268	-22264	2096	15972	-10203	-712	4802	32767	32767	32767	-6520	19537	2790	-32768	-16000	32767	-17075	10599	2722	3632	-1052	-14848	1973	5230	-5335	128	108	1
-10260	-11208	15772	4723	32767	28919	-32768	8196	17784	-20411	27022	-6289	-26272	12012	25464	7602	-15670	10065	-32768	-3176	17552	-13779	32767	-32329	-16980	11988	-27500	-32768	17396	13475	-32768	18640	8124	-18875	-5049	11947	139	127	1
-15092	-28576	15172	4304	32767	32767	-32768	-3012	15764	-17800	25566	-3933	-29916	10348	10812	-18404	-13161	11868	-15884	13036	17224	-13526	6835	-12818	-28332	7408	-8076	-5828	16777	11780	-32768	3420	-2652	-15682	15072	13340	135	140	1
-32768	-10728	25460	-13200	32767	32767	-29032	-2880	3868	-23021	28741	-4428	-25076	-11864	7128	-27260	-14974	7435	-16932	1040	20052	-11338	6317	-11954	-13608	1868	-10724	4681	13571	9994	-2200	-12496	-5596	21203	17205	15217	133	145	1
-32768	-32684	27408	-13319	25453	32767	-31216	-15016	7136	-13802	25052	-2555	-31024	-14260	-12716	-30703	-12423	3032	-8648	10592	12164	-5134	1380	-5735	-15304	7192	-4008	21095	10878	7583	-2476	17168	-15364	29294	6754	7945	126	138	1
-23544	-29576	22544	-16735	5649	32767	-22328	-7848	4036	3022	13017	-4448	-25504	-5856	-12408	-15424	-17786	-2013	-10040	4008	15320	-3640	37	-6306	-18088	8780	-5136	8986	8457	6206	-25572	27052	-7104	-7733	10972	247	125	161	1
-16188	-32768	-1204	-7479	-14077	32767	-14316	-8240	-13384	-3645	7358	-3172	-30064	2380	-10540	-707	-21483	-4449	-10236	4992	13808	-1593	954	-2363	-17856	6092	-5484	4623	8560	2378	-19808	2532	-8592	-11120	13334	7349	114	149	1
-4572	-32768	12300	-6963	-32768	-10691	-13412	-3080	2304	-6115	4251	579	-26228	2320	-6456	4843	-22677	-2504	-8924	6940	13252	-804	1572	-1144	-17292	5348	-3516	1944	7199	2053	-12988	-3664	-5340	-3781	15312	2397	129	136	1
7516	-19656	-7092	8865	-27685	-22693	-9640	2600	4940	-4757	-4854	1105	-27608	-1468	-5960	626	-24267	-5177	-8652	6764	12956	-464	1883	-1317	-16560	3636	-2600	4183	5248	1484	-14120	4464	-5568	5214	16936	2630	122	142	1
7256	-5504	-2684	-3538	-16036	-23267	-8400	1880	2708	-4185	-13518	4210	-18204	-4408	-7088	2782	-20088	-7898	-8392	7528	12644	-284	2096	-2184	-16912	2992	-1600	9061	3826	1177	-18248	4464	-4948	4753	18860	6325	142	101	1
-548	-12720	3932	-20127	-11714	-25481	-8348	336	1892	-3976	-14744	4562	-15876	-3420	-7144	6051	-17868	-5504	-8800	5880	13224	221	2248	-2763	-17020	2984	-2484	10049	3160	1966	-17160	-2528	-1448	7546	19002	7525	136	121	1
-8148	-22500	9512	-15355	-15319	-31998	-8536	-4956	312	10432	-26549	4171	-13976	-2780	-8412	11297	-17391	-3904	-8644	5532	13124	882	2760	-2418	-16304	2120	-980	7764	2986	1357	-14440	-3988	2744	14335	16063	7383	129	103	1
-7324	-13720	10448	-7953	-19764	-32768	-11444	-1524	-36	16096	-31236	3399	-11912	-2172	-8484	12835	-16402	-4521	-8544	5788	12952	795	2972	-2360	-14196	3744	1080	11914	3803	1710	-14636	-2012	1592	11942	11366	4103	127	75	1
-5532	-7132	10328	-13743	-20022	-32768	-12192	2216	-1324	16942	-32768	6401	-10512	-2152	-10296	15708	-14554	-5027	-9096	7580	11612	473	1954	-3483	-13824	6300	1412	9235	4555	2034	-14204	1760	532	8500	10352	4314	134	110	1
-8540	-12696	13848	-17668	-19238	-32768	-12828	1988	-2924	14416	-32768	9292	-7128	-1756	-12428	19968	-12534	-3346	-9292	6648	12100	218	749	-4072	-14696	3888	-192	6488	5782	1745	-16392	3868	2516	6050	11179	5218	123	104	1
-12552	-15332	17428	-15195	-19891	-32768	-15736	588	-4080	12866	-32768	11458	-5660	-1708	-13868	26609	-10453	129	-8156	6044	12528	-152	540	-3771	-15756	3104	-1396	6396	6790	1904	-18436	7888	-992	5420	8687	5407	123	126	1
-15188	-14500	21504	-14871	-20469	-32768	-18708	944	-4688	13520	-32768	14316	-3324	-1492	-15452	28748	-8748	-882	-8836	5948	12948	139	1107	-3300	-16480	2592	-1932	5088	7527	1879	-16652	6048	-4000	955	5526	3833	133	133	1
-18840	-18820	25316	-15133	-21524	-32768	-24616	404	-5344	9714	-32768	16687	-4620	680	-15504	21695	-5057	2314	-9108	5956	13036	534	2030	-3221	-16708	2756	-2516	3674	8033	1729	-15144	484	-1916	1161	7148	2356	151	125	1
-25820	-22732	28900	-12304	-21774	-32768	-32768	-828	-6656	7748	-32768	19333	-5404	2184	-12624	11993	518	2294	-8700	5372	13264	1523	3367	-3522	-16860	2420	-1936	4777	8748	1931	-15968	112	-72	2975	8885	1986	142	124	1
-28292	-23168	30140	-12033	-21750	-32768	-32768	-2152	-10760	-1302	-32768	23092	-6020	3604	-3492	8751	590	1004	-8984	6368	13252	116	6585	-4422	-17988	2656	-8	4321	10307	2017	-19928	1176	1696	2808	8459	2113	130	130	1
-32768	-9480	30328	-16755	-27876	-32768	-32768	-20792	-13536	-1850	-32768	19598	-16600	416	9128	-373	-9053	-3420	-9244	6572	14060	235	8782	-5164	-17448	2984	680	2135	12553	2625	-20044	1716	6592	3627	7654	2289	121	120	1
-32768	14776	8712	-12807	-29682	-32280	-28060	-8760	-23128	8465	-32768	5921	-30788	1144	19520	-51	-19389	-10280	-9924	7672	14040	-556	11987	-5920	-19820	2236	-104	728	14884	2926	-20780	-2732	5316	4228	6849	2828	124	118	1
-32768	32767	-1700	-12810	-11040	-13221	-16956	-9012	-30208	-7170	-18564	-1100	-21992	6780	32767	15648	-3042	19	-9764	7140	15084	-1546	15735	-7495	-20036	1780	-1228	-451	17036	3756	-17424	-2680	2648	6681	6411	1436	124	106	1
-32768	30732	64	-9976	-549	-1027	-6340	-18816	-32768	-6262	1517	-3850	-12040	29104	31012	24682	18854	-1485	-9652	4308	15364	-883	21098	-7584	-21348	1124	-88	557	19160	2050	-18264	4804	3648	7651	8195	697	132	121	1
-32768	27184	-4132	24331	18777	13079	-14420	-13856	-29628	12111	18638	-12782	-24160	17704	16160	5839	8677	5502	-10392	7752	13864	-3042	26088	-9740	-21824	1696	380	-1773	21083	3830	-21468	5988	3392	6777	7079	-1124	125	127	1
10704	-18776	30504	32767	27824	8436	-20752	14924	25752	32767	24610	-14410	-15068	612	-6520	-19375	468	5849	-11192	9012	14588	-1068	32074	-14197	-24272	1612	1860	1092	22726	4637	-21688	3112	7828	6809	4047	-2443	113	127	1
-8940	-2324	32767	7767	32767	31181	-32768	11412	-184	28209	112	4239	-32692	4064	4180	11937	2396	-2736	-10836	12992	15176	289	32767	-20292	-32768	540	2588	2480	22984	3990	-29612	1148	15156	5697	-3637	-3682	136	122	1
-32768	-8648	32767	21080	32767	16500	-8388	-9120	-13724	1123	24116	-25386	-13636	296	13560	32767	-1855	-7816	-15168	12876	16624	7870	32767	-30681	-32768	-6516	15888	27264	24097	3296	-30560	-1492	11380	13079	-12728	-9187	133	128	1
-9864	-14872	10000	11170	10179	7592	-26088	-9912	-3228	9079	16191	-10292	-26992	14644	-11888	-3780	18079	-3291	-29872	17856	13660	553	32767	-32768	-28940	8340	-2984	10394	23334	6261	-23900	-10620	11048	-3945	-16453	-11137	142	130	1
-20012	-4176	17656	8160	1064	6036	-22828	-13244	-5584	11957	15213	-8631	3656	-736	-14904	-32768	8382	-13669	-32768	20952	18208	19369	32767	-32768	-26480	13116	-1164	18279	25920	-168	-22312	4872	-2096	19489	-19996	-4428	120	133	1
-7796	-8456	15816	6921	491	1968	-24428	-3228	-3084	-7747	11070	-8324	-12816	-23940	-19724	-21807	3081	1160	-32048	24620	21660	11307	19608	-32768	-24028	21148	-2612	-10758	21072	6655	-26624	12056	-16528	27955	-14110	-1827	105	156	1
-6200	-9084	11776	3517	775	1600	-17288	-948	412	-9047	10388	-4484	-25736	-26732	-5252	16221	17661	-9214	-25512	32767	14020	-3639	11972	-32768	-19328	3544	-10660	-14179	17273	3672	-28680	2684	-13204	9623	-22564	3674	113	135	1
-6660	-6320	14744	2255	535	888	-17556	-4844	-988	-4525	8037	-4576	-20084	10076	-4036	16436	12334	-5748	-14032	32767	18088	-5809	-17917	-8592	-16092	3160	-6816	9746	9409	2832	-28176	-1320	-11996	-3219	-28099	2479	74	137	1
-6124	-8032	12488	811	1078	108	-17440	-1380	928	4355	6210	-4881	-10860	5388	332	4356	11105	-4649	-2044	17248	9052	-7356	-21367	2069	-10328	1764	-1276	14828	1988	3150	-25420	-2848	-7924	-3330	-31343	-2161	121	129	1
-5892	-7960	12396	203	1114	581	-17340	1904	2320	2204	5477	-3866	-13704	400	-936	-971	12583	-639	4372	6300	4064	1233	-18592	4703	-7848	696	-384	11732	-4758	2405	-20580	-24	-6568	-1531	-26296	1775	142	121	1
-6500	-7648	12728	-2	875	878	-16340	-412	2432	-5649	5802	-3284	-18180	-2052	-2100	-2741	12822	-2258	2516	7652	4068	10967	-14695	6706	-5980	3608	-2488	3291	-10770	1449	-18300	996	-6860	-3229	-22445	2353	183	85	1
-6372	-8400	12200	184	626	1888	-16088	-372	3128	-12306	6144	-2710	-17416	568	760	-9147	12449	-5642	-4036	14224	7996	11540	-15797	11618	-5128	3680	-4080	-5501	-16338	1288	-14004	-908	-8216	-2563	-19107	1339	163	98	1
-6176	-7736	12344	531	144	2375	-16660	-1924	2180	-11444	6043	-2754	-14560	-796	536	-15077	14454	-6201	-5540	14316	10220	7038	-20414	19917	-6436	1444	-4448	-6508	-21602	636	-13636	60	-8468	-3001	-18368	257	94	132	1
-6132	-6676	13044	-209	633	2003	-18208	-2764	460	-737	4719	-3400	-14420	-1776	1616	-13369	15238	-3624	-5316	8844	11072	6436	-22637	28392	-7840	-896	-3944	-6283	-25752	-610	-11976	2356	-7464	-4753	-18148	114	122	116	1
-6280	-6872	12932	-947	843	2135	-16728	1376	2784	-1239	5028	-2677	-16808	-1816	2204	-11444	14244	-2154	-7040	6692	13256	8734	-23645	32767	-8628	640	-4116	-8347	-29718	-2414	-10160	1880	-7944	-8155	-17005	-719	123	127	1
-6948	-8164	11852	-963	125	3483	-14820	-1548	2440	-8271	6340	-2550	-15292	-432	1876	-9096	12992	-3315	-10808	5980	15968	8219	-26949	32767	-9700	1564	-4900	-11501	-32768	-4392	-9416	1964	-8696	-11620	-15132	-1428	119	121	1
-6768	-7816	12052	-99	-242	4187	-15828	-2052	2200	-6559	7099	-3014	-13988	-1336	3176	-6069	13664	-4430	-13088	4520	17600	8192	-31861	32767	-11332	1148	-5520	-13486	-32768	-7257	-8244	2572	-9572	-14052	-12330	-2596	130	123	1
-6608	-6652	12596	230	245	4151	-13024	-2984	2224	-2232	6557	-5016	-16472	-3744	3332	1110	10566	-4359	-13556	6028	18944	9835	-32768	32767	-13060	720	-7108	-16576	-32768	-10643	-7388	3464	-11172	-17098	-8339	-2265	130	125	1
-7696	-7204	12864	-603	-615	4231	-16528	-1820	-8	-1975	8616	-3967	-16564	-4096	-3076	-2567	4619	-5409	-18052	8292	22512	10231	-32768	32767	-16828	580	-9464	-14762	-32768	-14795	-5932	3084	-13524	-17040	-4799	-1430	123	133	1
-6596	-7508	12668	-1241	-211	4733	-17284	-1832	-888	-3139	8652	-2890	-16008	-5116	-452	-1177	7249	-3462	-22640	12456	26196	8525	-32768	32767	-21944	552	-11300	-12430	-32768	-18396	-5000	580	-13876	-10514	510	-999	129	135	1
-7272	-7428	13168	-2346	640	4918	-18260	-1640	-916	-2393	8715	-3450	-16044	-4720	-2344	-608	9647	-2516	-30080	11196	29656	7427	-32768	32767	-27984	-408	-14648	-5061	-32768	-21340	-5400	1192	-10952	-4281	5103	-709	120	131	1
-6504	-9456	13348	-115	4779	5292	-18744	-1012	-532	-2173	9063	-2785	-17968	-560	-2368	33	8362	-3409	-32768	7016	30976	10541	-32768	32767	-32768	10676	-15020	7744	-32768	-21856	-7136	4808	-2932	-4248	3157	1691	113	134	1
-8364	-8692	12872	192	7897	6510	-17624	3076	1016	-2581	10270	-2877	-18420	1144	3828	-2165	8523	-2872	-32768	5460	17960	3892	-32768	28604	-32768	14304	-14904	8380	-32768	-21261	-18632	1936	13644	3301	-11317	7048	120	132	1
-7272	-6432	14512	-278	11917	7523	-18816	-100	756	-663	13099	-3862	-19056	3076	8004	-2396	8815	-1285	-32768	-17740	-9996	5256	-32768	10249	-21688	10384	-30736	-11122	-30844	-7180	-32324	3448	31872	-2600	-10987	6162	125	116	1
-8248	-8072	14444	1	15968	9341	-20800	936	1864	-566	15249	-4259	-18916	3348	7408	-3749	8649	-600	-32768	-32768	-23460	21381	-13229	3403	-1148	6096	-32296	10923	-8787	-970	-24592	-16372	32767	-31143	3920	3553	120	117	1
-7616	-8148	14640	2133	19311	10943	-19408	860	1588	124	17843	-5457	-18588	-1660	7612	-5436	9025	1079	-32768	-23040	-23000	1149	6083	-2607	-2576	21052	-29704	-316	12264	8235	-20408	-27604	32767	-31279	8991	5170	122	112	1
-8852	-8144	14072	5214	23383	12830	-21508	88	3036	2311	20552	-4595	-19896	-4536	7952	-4806	6932	2862	-32768	-4000	-436	-21075	21850	-5882	-14252	12284	-17680	-19888	27048	11691	-13304	-16268	6692	15054	2106	-9973	118	120	1
-9668	-9100	14592	5697	24022	13357	-25996	2368	5856	-1768	22495	-6056	-22528	236	13052	-8207	3302	3394	32767	15060	32767	-8671	23442	2353	-32768	-32768	32767	-32768	11528	1116	-6424	-576	-3608	10194	2884	-5074	126	108	1
-9652	-13040	13768	5721	32767	25953	-32768	6944	10544	-13533	25738	-6412	-28952	4664	21696	-9788	-10178	6468	-32768	-13516	32767	-9522	32767	-32768	-13980	8016	-28948	-32768	22341	13660	-32768	23964	-2496	-24571	4246	13255	142	117	1
-23732	-18372	8320	6707	32767	32767	-32768	1860	20800	-21749	26497	-2295	-25972	11556	13432	-4460	-9694	10618	-8	24656	11432	-6749	6324	-12898	-27232	3472	-3948	-3769	17842	15464	-32768	4532	-5656	-17570	5115	10369	134	144	1
-31624	-11108	21920	-4740	32767	32767	-29588	4944	7852	-16238	27167	-7457	-28520	-140	9012	-16616	-17394	8350	-18216	4052	18008	-11517	8296	-13358	-11396	13308	-9472	2228	13952	12057	-784	-13044	-12860	22160	15962	16158	137	146	1
-32768	-32768	27588	-13728	32767	32767	-31652	-14712	6116	-23736	27372	3820	-23672	-12436	-7836	-31331	-12474	5325	-8196	11988	10828	-5884	-974	-5393	-16212	2784	-3812	19595	10924	8027	-1600	11056	-20872	32415	3910	7493	121	124	1
-24896	-28348	23448	-9554	8728	32767	-26380	-14884	7276	4036	17890	-6230	-27100	-6032	-14284	-21367	-16879	-529	-5520	5304	15612	-5589	-541	-7304	-19600	5524	-3760	15820	8310	6748	-27144	32767	-2840	2437	12917	5891	127	136	1
-23280	-32768	26056	4682	-6596	32767	-15640	-3444	-10792	7510	9972	-4685	-29380	2808	-8844	-4232	-20296	-2084	-10332	8740	13500	-3615	2218	-3966	-17324	8812	-4372	1597	8393	4145	-21844	6560	-8476	-14057	11901	5868	128	176	1
-17052	-32768	25868	-10026	-32768	-2297	-14364	-4232	-1676	-11537	8091	757	-27120	3624	-8672	2539	-23503	-2382	-9320	6904	12884	-2318	1730	-2612	-16000	3540	-3336	-3174	7789	1603	-12136	-4664	-2884	-8093	14097	3222	111	132	1
5304	-25040	-4336	3633	-28152	-18109	-10404	1180	5816	-5240	-1636	-1830	-26480	2876	-5760	-1258	-22808	-1763	-8140	6924	12988	-1039	1718	-2043	-17460	1656	-2452	3617	6469	1773	-14212	124	-4300	914	15974	2745	113	145	1
7152	-9016	-3296	-1096	-20487	-19025	-8652	2864	2784	-3478	-10890	453	-21408	-2756	-6520	-538	-21205	-5954	-8072	7708	12720	-283	1882	-2879	-15888	1344	-888	11359	4987	2149	-16800	2212	-3896	1546	15937	4891	142	145	1
2560	-7996	2860	-18057	-13287	-20932	-9232	-1812	416	-80	-18239	1246	-16956	-1468	-7856	2622	-19713	-3448	-8628	6628	12744	185	1941	-3603	-16888	3160	-2448	14870	4607	2912	-16752	-2216	-1044	6653	15664	6133	139	110	1
-3104	-19304	7044	-18840	-13897	-26523	-8440	-1408	-44	5223	-24234	1770	-14744	-860	-8124	6691	-18374	-2439	-8376	6248	12832	610	2261	-2625	-16380	4996	-1928	6752	4479	1726	-14400	-1684	2456	15322	16029	6483	127	105	1
-4136	-13776	10440	-12590	-16533	-31896	-10236	144	-520	8865	-29162	1533	-12820	-1124	-8124	7940	-17941	-2828	-9060	7212	12160	249	2477	-2515	-15800	3456	-268	5696	4710	1422	-14764	1700	2028	15306	15120	4935	141	36	1
-3360	-7156	12612	-15792	-17034	-32768	-11312	3584	-1788	10494	-32768	3953	-11172	-1364	-9396	8916	-16477	-2985	-8996	7708	12008	232	1898	-3280	-15084	3956	68	8563	4938	1998	-15660	1628	944	10905	15038	4924	142	114	1
-5628	-10528	15984	-18909	-17442	-32768	-12916	3688	-2644	9946	-32768	6283	-8880	-1520	-9984	10835	-14728	-2344	-8984	7316	12248	-209	1119	-3703	-15288	3964	-524	8372	5573	2354	-14268	108	596	7518	14463	5423	122	117	1
-9288	-12272	19700	-17099	-19939	-32768	-13600	2460	-3800	9368	-32768	8619	-6868	-2728	-11348	14526	-12231	-556	-8636	6164	12520	-224	1035	-3769	-15244	2908	-824	5805	6636	2084	-15528	1588	672	2620	14336	5301	118	127	1
-11312	-11860	21532	-16059	-21821	-32768	-16520	2996	-4772	10154	-32768	11850	-4216	-2688	-13208	20133	-9290	111	-8480	6232	12676	-264	1582	-3612	-15840	2664	-1660	3415	7463	2365	-16968	4832	-3356	935	7898	4919	133	134	1
-15300	-14704	25068	-16542	-23761	-32768	-19444	1088	-5424	8531	-32768	14432	-1312	-6684	-15220	19249	-6271	-3460	-8792	6080	12792	86	2620	-3472	-16636	2628	-2696	2611	8122	2231	-15756	3324	-3416	-687	5915	3596	140	127	1
-20052	-20240	28112	-15252	-25744	-32768	-26848	-320	-6060	8870	-32768	17347	-4524	-808	-14472	12950	-2210	2603	-9192	5960	13016	531	3520	-3561	-16632	2612	-3276	2475	8403	2233	-15776	4252	-2424	72	8780	2041	151	126	1
-26532	-17052	29748	-12536	-23233	-32768	-32768	2188	-8296	8348	-32768	21874	-4424	-1348	-9988	11594	1002	1923	-8712	6700	13704	522	6008	-3806	-17640	3312	-2060	2576	9049	2030	-17408	3068	-1608	-417	10012	1804	135	137	1
-32768	-14624	32767	-16822	-22303	-32768	-32768	-10576	-12668	-1965	-32768	24674	-6432	-544	60	11417	-2559	1069	-9428	7072	13352	-62	8373	-4385	-17392	2616	264	2456	10613	2761	-20160	1332	2576	462	8623	2091	125	126	1
-32768	-9348	22464	-6437	-25860	-32768	-32768	-14348	-13548	-1735	-32768	24114	-27184	-452	21840	1907	-21097	-5716	-9484	7352	13984	-818	10358	-4954	-17508	3932	628	-912	12976	2908	-19932	1256	3808	430	8421	2263	119	123	1
-32768	26808	-2684	-4317	-16757	-24068	-23144	-10568	-29440	3224	-28404	10071	-32768	-2544	28876	9410	-6976	-14421	-10376	8132	14012	-1580	13501	-6502	-20736	1816	-584	-806	15189	3533	-19688	-4716	5076	4015	6759	2865	130	105	1
-32768	32767	-1868	-19477	-4648	-6015	-9460	-13940	-32768	-8418	-7868	-1869	-9176	17272	32767	17191	10266	4619	-10180	6184	14876	-2406	17501	-7765	-18984	1900	-1424	-383	17452	3605	-17004	300	3764	7361	7999	1635	133	110	1
-32768	27208	-4636	-44	3929	5110	-10860	-20348	-30988	1037	12664	-7486	-20048	29964	20664	28143	21280	5589	-10092	7352	14476	-3134	22142	-9058	-20976	2452	-540	-1766	19547	3103	-20084	5780	3128	7951	7891	267	120	121	1
-32768	5876	-1244	21428	26019	11152	-17260	-14380	-22924	22810	24552	-13640	-23108	7592	7924	-5595	842	8380	-11256	7936	12984	-2488	27932	-12707	-22892	1812	964	312	21494	4290	-22076	4504	6092	7777	6353	-1157	127	123	1
32767	-32768	32767	32767	28669	1521	-31092	32436	32767	32767	18965	-18011	-19668	5136	4036	-10330	182	7827	-11452	9176	14032	-502	32767	-17827	-24532	952	2592	4154	22799	5491	-21040	1772	9580	9155	2473	-2110	111	124	1
-16128	5924	27016	-2955	24334	23777	-22872	-1048	-8960	31147	-1689	3560	-16156	-9376	-22032	-6676	15406	-15737	-11384	11328	13316	2959	32767	-25618	-32768	-5900	4908	11338	22472	4554	-28392	-3376	15400	8466	-7698	-4497	134	124	1
-32768	-19324	32767	25375	30151	13283	-15228	-10192	-11428	8035	18091	-23713	-28752	1092	16208	31854	-2201	5691	-21004	16996	15572	3002	32767	-32768	-29712	5444	11548	23788	24050	5012	-24120	-8512	13600	6270	-12732	-12136	134	129	1
-19400	-14648	12460	11815	6730	9754	-27920	-5192	-5480	6877	13843	-7423	-22024	20024	-13768	1730	16720	-14544	-32768	1984	20592	3507	32767	-32768	-25484	9184	-3408	11409	26276	6617	-20092	-4024	4840	8989	-15769	-3874	125	136	1
-14276	-5348	15548	7814	2544	3879	-10300	-5376	-4540	-6059	13436	-14551	3192	-9480	-18388	-32768	11031	-13232	-32768	27940	21300	17589	32767	-32768	-24992	9200	-980	13423	27097	6138	-26296	14724	-6140	28291	-19179	-3594	123	141	1
-9116	-11092	12208	7572	177	2690	-19996	-5100	-3056	-3621	9062	-4952	-16236	-32768	-12120	-1911	1165	3468	-27904	20928	18896	7582	16816	-32768	-23020	14368	-3220	-22159	21498	6671	-27368	10092	-18284	20514	-15503	1673	107	153	1
-6944	-8256	13204	4780	452	1585	-19640	640	-64	-5204	8956	-4115	-25296	-13360	-7916	21066	20701	-4951	-32768	25876	25544	-9157	14159	-30696	-18456	3248	-16016	-13934	17349	3500	-28608	-2100	-14000	5991	-26098	4467	93	146	1
-7152	-6044	14120	2629	431	1089	-17796	-1080	-1844	-5126	7277	-4972	-18832	14000	-5064	16720	10095	-8030	-4476	32767	14772	-8450	-12962	5406	-16412	-300	-3140	9818	7419	2471	-32768	-824	-10708	-3993	-32768	2865	98	141	1
-5956	-7556	12976	970	1030	698	-17356	-816	468	-519	5424	-4817	-11664	6492	-148	-612	9870	-3342	3284	14320	8772	-8110	-14390	15367	-8936	2388	-792	11880	-1535	2579	-27908	-2460	-8664	-2667	-32768	-263	120	126	1
-6308	-8820	12044	212	1198	826	-17100	-980	2428	-1596	4933	-2956	-13432	-2680	-800	-8625	12248	198	2180	5420	7052	2569	-15951	16220	-5364	3680	-944	7081	-8771	1961	-20836	-3456	-7796	-2434	-27611	3791	133	100	1
-5840	-8784	12116	335	992	1439	-17704	-524	3292	-5687	4852	-2615	-18740	-6260	-2996	-3956	15008	-3100	-412	7964	7904	12485	-19476	16351	-5388	5880	-2028	-1276	-15630	996	-16384	-1728	-8200	-5415	-22619	3679	177	112	1
-6820	-8972	11940	-146	19	2413	-16956	364	2556	-14513	5350	-2063	-17376	-2208	180	-6639	15835	-6537	-4352	11264	9688	11416	-24050	16264	-5656	2100	-2840	-8193	-22175	797	-13076	-1652	-8408	-3516	-19078	2360	140	121	1
-6888	-7740	12260	1145	704	2495	-17212	-3444	392	-12853	4980	-1614	-14724	-344	-1208	-12989	17025	-5518	-4372	7768	11508	8760	-28059	18717	-7472	-1544	-4232	-7602	-27693	-196	-11748	-156	-8444	-3134	-18205	358	111	118	1
-6636	-6584	13028	-229	877	2147	-17088	180	848	-3433	3931	-1825	-14636	300	104	-12504	16096	-2543	-5268	3908	13196	13050	-29037	24456	-8156	-4588	-5176	-3569	-31425	-2035	-9552	-428	-8092	-4944	-16762	-166	125	113	1
-6508	-7432	12120	-202	835	2161	-15284	1424	3160	-8009	4879	-1033	-15128	1708	1240	-10130	13606	-2824	-8296	5904	15752	15391	-29028	30002	-9572	-2972	-5308	-902	-32768	-3798	-8504	-524	-8736	-8069	-14061	-836	119	127	1
-7184	-8276	11520	79	-291	3252	-14592	-2520	3488	-10094	5967	-1696	-14180	984	3964	-7856	12943	-3519	-12284	6784	18668	12048	-31094	32767	-11628	-72	-5872	-3674	-32768	-5113	-7172	1200	-9492	-10554	-11184	-1865	126	118	1
-6128	-7408	12212	1178	-600	3977	-15908	-1604	3316	-4146	6904	-2414	-16244	-3272	6312	-432	11053	-4722	-13160	5076	20456	10544	-32768	32767	-14124	596	-7156	-9781	-32768	-7535	-6456	2324	-10764	-12528	-8514	-2089	133	126	1
-6244	-8056	12376	1633	-562	4337	-15652	604	2604	-2568	8328	-2689	-19692	-3388	684	-2691	6359	-7204	-17784	6888	23400	12019	-32768	32767	-16428	516	-8848	-12639	-32768	-11369	-5432	2960	-12312	-14167	-5400	-1625	127	123	1
-6764	-6904	12940	1111	-198	4873	-16928	-72	1328	-2522	9582	-3179	-17080	-2876	1604	-1756	5901	-5580	-23404	11776	27132	11537	-32768	32767	-21988	1796	-10988	-12355	-32768	-14881	-5100	1104	-13708	-11013	-1478	-943	122	131	1
-6736	-7068	12940	-1011	-39	5008	-17836	-812	176	-664	10455	-3389	-16396	-3344	1228	736	8889	-2139	-28664	10344	29340	9663	-32768	32767	-26884	-2188	-14540	-8833	-32768	-17642	-5268	404	-12196	-4603	3341	-1309	119	138	1
-6676	-7400	13420	-2715	821	5526	-18112	-788	884	10	11343	-3703	-16680	-2240	-284	1599	9261	-1706	-29416	9532	29496	9773	-32768	32767	-30868	2320	-16796	6484	-32768	-19636	-8120	3104	-3636	-3186	1510	-687	111	143	1
-6824	-10208	13076	1199	5921	7368	-18624	-332	1180	140	12471	-3805	-18504	-956	1588	839	8506	-2687	-32768	2064	25316	10270	-32768	32767	-32768	18936	-18424	6955	-32768	-16974	-16880	3584	12972	5574	-11396	3430	111	132	1
-7580	-6552	14256	1691	10315	8283	-19028	1472	292	154	14540	-4082	-18880	-552	5172	-1232	8652	-1215	-32768	-17228	-2612	1713	-32768	12807	-25500	13328	-26608	-5129	-32691	-8552	-29568	6900	24008	7116	-12268	6189	126	128	1
-7308	-7420	14612	751	14683	9245	-21068	1512	428	1343	16846	-4183	-19476	4684	4580	-1479	6638	-1435	-32768	-32768	-17284	9666	-24329	-818	-5944	6372	-32172	2939	-15319	-3032	-22856	1564	32767	-20249	8470	3034	126	106	1
-7116	-8304	16000	1095	18704	10607	-20260	2596	156	1376	19003	-5185	-17920	4632	5152	-2911	7214	-446	-32768	-26744	-23984	7572	1114	-5206	548	12968	-32068	1412	6779	4812	-24660	-32768	25452	-32768	15862	4376	126	104	1
-8656	-7452	14628	4466	23110	12286	-20884	1568	1244	2544	21465	-5089	-18044	-1240	6160	-4849	7010	2793	-32768	-32768	-17204	-14822	22243	-13207	-13360	13028	-19528	-16521	24419	9379	-16904	-21060	10288	-676	2832	-9534	124	111	1
-8456	-7060	14520	4579	23547	12662	-24772	2236	3592	359	23543	-5719	-20988	-1676	11644	-8503	3213	4335	32767	32767	32767	-13868	30840	-18253	-32768	424	19176	-24061	11808	12640	-31440	-14204	-2656	6942	-2571	-12187	125	121	1
-9300	-11568	15764	5698	32767	26098	-32768	4012	9572	-8186	26889	-3505	-32592	-3404	23436	-8348	-11203	5916	-32768	15532	23484	-17058	26254	-6650	984	-13064	-15740	-21993	27652	3754	-7144	9844	16472	-9005	1310	7257	143	122	1
-18624	-25968	15852	11538	32767	32767	-32768	2076	24196	-21117	27906	-785	-30000	4588	14944	9405	-10319	10666	1416	-6808	16556	-16761	8759	-12908	-21664	5624	-5496	-16219	20237	18020	-8288	17096	9388	-6402	7580	10863	137	134	1
-20924	-3552	15352	2793	32767	32767	-31940	5572	8512	-15025	27809	-6942	-30700	8680	10460	-5901	-19397	9511	-31592	10344	13084	-13174	1998	-12718	-6396	11496	-17020	9353	14021	9938	-2824	-14664	-18076	6400	195	18508	129	131	1
-32768	-32768	29824	-6790	32767	32767	-29952	-12776	5632	-25155	27000	4538	-20908	-9256	-7120	-26960	-14955	4353	-4388	3532	15628	-4960	798	-6324	-21368	6004	-5564	24353	10367	7452	-8504	22616	-7512	22889	13427	1297	123	123	1
-21740	-25260	22896	-5670	10131	32767	-26144	-15752	5676	4986	18687	-5736	-26396	-5604	-13392	-23786	-16393	504	-7828	5020	14804	-3864	343	-5075	-20704	11316	-3952	9934	8671	5896	-28984	23108	-14160	-10882	12007	4980	127	166	1
-22412	-32768	23748	5843	-4751	32767	-15540	-1984	-9864	10032	9944	-4366	-28952	2080	-8696	-6481	-19662	-2259	-8532	7380	13368	-2280	1769	-2166	-15308	7824	-3908	-7756	8274	2237	-18520	152	-2536	-14095	13431	6020	116	175	1
-17012	-32768	25852	-9033	-28442	1222	-15196	-4000	-3344	-13359	7958	396	-26156	4660	-10012	-470	-22279	-2450	-8196	5396	13420	-818	1802	-1200	-17088	-200	-2060	-389	7302	1648	-10664	-3880	-2796	-7960	15000	3442	114	136	1
4328	-26780	-4788	1748	-26122	-16029	-10296	1108	4900	-7305	-506	-1271	-24312	1484	-5364	-426	-23123	-783	-8472	6972	13036	132	1900	-1813	-16468	4524	-916	8024	5844	2141	-16624	1536	-3524	-1116	14132	1809	118	135	1
5704	-9800	-2276	117	-18799	-17457	-8904	1176	2468	-4001	-8835	156	-21372	-3592	-5180	423	-23363	-5342	-8360	8224	12488	-4	2018	-2964	-16272	3772	-572	12759	4993	2588	-18344	2612	-2356	1909	13120	5130	133	133	1
3080	-7412	796	-14976	-11844	-20200	-9020	-2852	32	978	-16047	683	-17960	-3360	-7968	2593	-19953	-4287	-8776	5920	13088	307	1699	-2837	-16772	5384	-2364	10987	4756	2282	-15884	-768	-728	8372	14579	7025	130	114	1
-2432	-18164	4896	-17285	-10308	-25311	-8548	-2008	-204	7372	-21964	1535	-16700	-3316	-8296	5461	-18691	-3841	-8556	6592	12876	95	2343	-2281	-15932	4400	-1516	4928	4467	1155	-13760	104	416	15361	16440	7876	138	97	1
-4484	-17488	8284	-9481	-11406	-31744	-9524	-2192	-688	11895	-26833	1476	-14472	-3544	-8664	8565	-18102	-4711	-8724	6384	13084	-111	2679	-2569	-16000	4580	-1736	6712	3926	1296	-14756	2480	1300	18263	16932	5522	142	56	1
-5196	-10548	11024	-9132	-12604	-32768	-10888	388	-1744	15560	-31451	3760	-12808	-4864	-9436	11177	-17006	-5401	-9124	7148	12156	42	2198	-3157	-15512	4068	-908	8746	3634	1489	-14680	2136	668	16526	16372	5882	136	118	1
-7704	-11136	14352	-14265	-14723	-32768	-11424	548	-2388	16243	-32768	6951	-10068	-3844	-10816	15302	-16158	-4889	-9108	6716	12500	143	1659	-3630	-15316	4112	-456	8711	4048	1523	-14092	280	-900	10425	15177	5278	134	118	1
-11168	-13804	16644	-13553	-18234	-32768	-12332	1312	-2868	15986	-32768	9127	-7384	-3408	-12112	20840	-14173	-2117	-9200	5988	12700	30	1597	-3674	-15464	3524	-960	6037	4905	1502	-16048	2664	-1716	1389	13595	4460	134	121	1
-12604	-12296	17656	-12350	-20889	-32768	-14296	1248	-4168	14223	-32768	13106	-3728	-2548	-13636	26648	-10979	-152	-8728	5860	12704	523	1562	-3345	-15464	2400	-592	6743	6003	1767	-18052	6720	-1580	2321	7010	3390	128	134	1
-15768	-13624	20788	-13664	-22089	-32768	-17864	216	-4792	12379	-32768	16501	-2472	-3640	-15328	25401	-5317	-2363	-9132	6492	12652	201	1938	-3597	-16680	4528	-1564	5232	6652	1885	-17656	4272	-612	776	5392	2555	140	125	1
-20836	-20036	24804	-13182	-24157	-32768	-23956	-828	-5756	10403	-32768	18037	-3328	1224	-14724	16028	291	3347	-8560	4772	13204	716	3456	-4461	-16936	2116	-2188	4959	7149	1975	-16096	3356	-1104	2021	8363	2248	147	124	1
-28332	-24256	28752	-11016	-24470	-32768	-32768	-1560	-7608	9353	-32768	21720	-4980	1544	-11140	9092	5075	3504	-9168	5100	13388	898	5818	-4815	-17376	2868	-1424	6166	8046	1834	-17920	1700	-748	2933	9325	1923	142	128	1
-32768	-15084	32604	-14175	-22987	-32768	-32768	-684	-6840	9078	-32768	22702	-5152	828	-10064	8405	5223	3390	-9252	6124	13600	835	8023	-4608	-17884	2164	944	4183	9951	2102	-20360	132	3640	1741	8034	2409	129	134	1
-32768	-11008	24124	-11936	-25923	-32768	-32768	-21664	-15644	1964	-32768	19058	-21196	540	12760	4672	-11796	-4936	-9500	6756	14108	248	10237	-4857	-17500	2780	1076	1559	12624	2617	-20128	-2788	8804	3346	7056	2774	133	117	1
-32768	19768	1936	-7313	-21921	-26870	-27436	-10204	-22748	5902	-32228	9996	-32768	1372	25492	6031	-15014	-13206	-10144	7604	14096	-263	13417	-6067	-20144	2048	412	1515	15009	3234	-18684	-6072	5980	6227	6263	3163	113	104	1
-32768	32767	-3744	-17607	-6260	-8711	-13316	-11140	-30044	-10044	-14330	-106	-15392	18788	32767	11171	3618	-240	-10192	5408	14456	-1022	17042	-7634	-19180	2008	-752	349	17296	3573	-17160	1152	4120	8934	8212	1568	127	113	1
-32768	30540	-3384	-5297	-683	2042	-7704	-23136	-32228	-3770	7637	-5492	-14476	30944	29164	23556	18383	-517	-10376	7256	14640	-2000	21683	-8304	-20068	2012	-280	-1160	19500	3090	-19752	9048	4060	9339	8582	99	132	121	1
-32768	17796	-7180	26959	22575	14959	-14936	-14632	-27772	19386	21309	-12903	-24400	8972	13720	-2075	2272	9134	-12028	8476	13148	-618	27345	-11259	-22120	2228	964	301	21422	4086	-21568	4620	3860	6828	5500	-1194	122	126	1
32328	-32768	32767	32767	32158	3823	-27308	26384	32767	32767	21267	-15410	-13908	-3116	-4540	-10113	-1344	4806	-11592	9188	14084	1382	32767	-16869	-24384	724	2596	4826	22428	5333	-20928	1088	8024	8996	2599	-2475	127	130	1
32767	-32768	32767	32767	32767	3630	-26796	3492	-13560	31238	1829	811	-15416	-14460	-22856	-12087	17163	-19283	-11416	8256	13196	4388	32767	-23543	-32768	-3296	2456	7636	22108	4457	-28428	-2324	15184	9137	-6369	-4136	139	126	1
-32768	-15920	32767	18550	32767	13413	-13916	-13068	-5440	7469	19376	-24725	-24708	-5880	5112	32767	-4374	2723	-19516	17912	17852	9232	32767	-31065	-32264	-2816	11580	28448	23682	3666	-26400	-8252	9396	13492	-12902	-11394	135	131	1
-16580	-21156	12724	10809	8228	8974	-26348	-12280	-6508	8042	14232	-4241	-21888	18436	-12048	499	17824	-12321	-32768	7572	16612	6470	32767	-32768	-24428	11744	-4000	16794	25143	6072	-20992	-9628	3376	8218	-15052	-6075	129	134	1
-13088	-1664	19840	9836	4553	2747	-12456	-1216	-4928	-3088	14027	-15457	4112	-6744	-14292	-32768	12164	-11479	-31392	22360	16688	18611	32767	-32768	-28136	13928	-84	10531	25162	1527	-24856	10368	-4704	28702	-18564	-3515	121	140	1
-9272	-12820	12764	7282	782	2753	-20572	-2744	-3220	-4228	9553	-5617	-18652	-27728	-15940	-1847	3168	2481	-26788	22264	18480	11981	17162	-32768	-22528	16648	-3352	-11387	20560	7003	-27152	10420	-17272	26489	-14868	-80	107	148	1
-6708	-5808	15268	4575	589	1649	-18952	-412	84	-6840	9356	-4452	-23276	-13200	-3884	16405	17591	-8904	-32768	26776	10800	-529	15411	-32768	-17872	3856	-12796	-13316	16139	4190	-27652	156	-13824	10988	-24735	3817	107	137	1
-7372	-7880	12968	2602	873	807	-19324	-396	536	-7099	9274	-4429	-18072	9236	-3772	11640	10457	-6060	-15132	32767	19824	-2437	-17329	-4840	-15536	4748	-9464	9684	8544	3065	-28088	1132	-11876	-3274	-30743	3042	82	133	1
-6288	-7540	12780	1638	986	648	-17028	-3024	164	-637	6421	-4579	-12520	3040	-176	-5	9743	-3902	-5212	22176	11040	-7714	-23083	7289	-9684	2752	-1596	14679	779	3741	-26068	-692	-6868	-1931	-32273	-503	109	114	1
-5900	-8232	12680	881	1134	471	-17576	-516	2428	3840	5057	-3610	-13300	-1272	-1144	-5124	12610	-720	2240	7192	4588	-2585	-23879	10129	-6176	2796	-192	11527	-5440	3534	-20288	-2500	-7240	-1076	-26585	2640	124	110	1
-6560	-7612	12652	511	1014	910	-16948	1736	1956	-2026	5064	-3504	-17984	-3328	-2624	-725	13773	-3276	2904	5412	3560	6950	-21622	10619	-5380	4572	-1628	365	-11635	2328	-16252	-732	-6716	-3195	-22050	2957	151	104	1
-6464	-7616	12484	384	829	1501	-16568	672	2100	-10684	5693	-2895	-17512	572	-612	-5106	14142	-6205	-300	9860	5920	10737	-20432	12575	-6168	1092	-2764	-8961	-17581	1460	-13756	64	-6884	-3152	-19313	1489	174	124	1
-6672	-8488	11964	956	599	1959	-16504	-1296	2264	-13876	5740	-2434	-14368	1564	-200	-14107	15556	-6581	-2188	11380	8872	9418	-19957	18010	-7964	-932	-3996	-8318	-23066	35	-12832	-488	-7324	-3009	-18129	69	83	122	1
-6052	-6900	12620	1184	795	1988	-17072	-3016	524	-6284	4840	-2803	-14908	-452	-656	-15943	15508	-4196	-5240	8904	11972	8955	-19956	26534	-8144	-1668	-4856	-6314	-26878	-918	-11596	424	-6928	-4605	-17659	-753	125	129	1
-5892	-7072	12948	294	1124	1868	-17116	1084	2212	461	4401	-2321	-15612	-1380	-1688	-9666	12520	-2970	-8272	6984	15236	9925	-22661	32767	-8720	-668	-4952	-6005	-30435	-2832	-9984	1432	-7528	-8239	-16277	-857	121	126	1
-6688	-6968	12424	105	976	3013	-15148	300	2156	-6580	5388	-2688	-15840	-1292	492	-7708	10877	-2687	-11500	5604	17608	9450	-26485	32767	-10172	468	-5048	-8161	-32768	-4516	-9092	2124	-8160	-12522	-14372	-1776	129	111	1
-7176	-7624	12016	569	356	3715	-15456	-2412	2080	-9300	6383	-2824	-14732	-1556	3792	-3264	13509	-4766	-13064	3228	19608	8833	-31478	32767	-11592	1828	-5576	-11779	-32768	-7392	-7744	2940	-9308	-15547	-11297	-2409	133	117	1
-6904	-7696	12064	870	-245	4164	-16324	-1508	2756	-6461	7137	-2680	-16440	-148	2388	520	8531	-6903	-14312	3780	21444	9753	-32768	32767	-14332	744	-7204	-15439	-32768	-11211	-7296	2740	-10708	-17280	-7501	-2138	127	123	1
-6896	-7580	12828	741	-672	4442	-16196	-1660	1672	-4236	8076	-3039	-16732	-3448	340	-5565	4135	-6285	-18788	7636	24400	10120	-32768	32701	-17520	-320	-9784	-13110	-32768	-15562	-7500	2596	-12844	-17300	-3943	-1686	123	129	1
-6492	-7192	13044	-90	-527	4571	-17292	-884	996	-2008	8927	-3138	-18016	-7916	2564	-2275	6695	-3927	-23756	12052	27712	8265	-32768	32767	-22440	-520	-12836	-12027	-32768	-19226	-6584	1172	-12468	-10501	1042	-1210	117	137	1
-7424	-7552	12868	-627	247	5230	-18108	-2172	672	-1264	9741	-3368	-17132	-4440	88	987	8155	-2639	-29740	7400	29712	7368	-32768	32767	-27712	-652	-14348	-59	-32768	-22094	-6808	1780	-9644	-4393	4800	-1024	112	139	1
-7676	-7872	13360	-2245	858	6271	-17796	-1680	1184	-1442	10769	-3787	-16968	-1880	168	-73	8117	-2604	-32768	2920	28624	8731	-32768	32767	-32768	12584	-15428	9698	-32768	-21898	-9212	5536	1136	708	3511	2542	104	138	1
-7212	-6640	13284	-3519	2823	6290	-17812	-200	1532	-1733	12318	-3713	-18176	-736	3760	-2273	8974	-2181	-32768	2980	15220	2318	-32768	22018	-32768	19616	-17620	-3720	-32768	-15353	-21132	1364	15196	8946	-8509	8829	118	127	1
-7680	-6684	14840	737	9533	8976	-19872	976	668	-1028	14457	-4231	-19604	2876	5504	-3848	7145	-1954	-32768	-17280	-10964	3626	-31934	6380	-18856	12336	-29336	-10252	-27391	-7267	-30728	8060	28040	-3377	7517	12870	124	124	1
-7556	-6864	14504	406	14361	10286	-20436	2324	-208	-356	16513	-5050	-18252	5784	5684	-4339	5897	-2373	-32768	-32768	-22680	17368	-8159	3640	-3192	5448	-30280	5726	-6586	-801	-19440	-29056	32767	-32768	5893	71	130	103	1
-6720	-6928	15976	748	19211	11018	-19736	2280	-244	570	19150	-5355	-18124	936	6504	-4567	7578	414	-32768	-11868	-26776	-8124	14631	784	-2252	21348	-27020	-5374	12350	7061	-19228	-32768	15644	-20331	12482	2077	129	109	1
-8360	-8016	15780	4342	23352	12558	-21788	1024	1888	2728	21877	-5292	-19388	-3772	8388	-4932	6035	3105	-32768	-8864	-192	-19776	27232	1002	-13704	11356	-14228	-23548	25912	11471	-16228	-10152	7032	14473	5823	-7134	125	135	1
-10092	-10764	14584	7563	28288	18166	-27584	2108	4648	-647	24004	-6591	-22512	-1228	15560	-7508	768	4133	32767	13924	32767	-7651	27857	-939	-32768	-30864	32448	-32768	10658	3154	-16004	-1604	-1788	-6823	-3611	-5859	132	118	1
-8480	-12408	18356	7930	32767	28332	-32768	5208	13872	-13771	28405	-5667	-28260	2712	23400	-5118	-12771	8483	-32768	-12744	32388	-6195	32767	-30360	-12344	1100	-25296	-30771	22339	12167	-24700	12536	7236	-19819	-6672	8511	136	121	1
-18832	-17076	21944	11131	32767	32767	-32768	-948	18456	-15218	27783	-3854	-30404	12024	9964	-7407	-10254	9769	1080	14240	14280	-13577	9618	-10743	-25624	12588	-6968	-5497	18520	18509	-32768	-13660	-18556	-15403	16706	12158	140	151	1
-30912	-8940	27836	-2763	32767	32767	-32768	8348	8860	-18033	29229	-9128	-28168	2136	9204	-14236	-17806	7979	-22712	2536	17152	-7009	6688	-12580	-10116	6796	-13240	8037	14230	11113	4160	-4876	-19472	28154	2594	16920	128	134	1
-32768	-31540	26512	-7433	32767	32767	-31072	-15372	6524	-21861	26268	2409	-25452	-8352	-9888	-32208	-14351	5927	-5332	4040	15276	-3334	-1161	-5983	-16388	7452	-6212	27764	10838	9328	-8376	20324	-14464	32767	12721	5287	128	117	1
-25488	-30992	24216	-12070	8057	32767	-25196	-13880	2940	6552	15601	-6666	-25940	-4104	-14036	-26746	-19821	-1086	-8148	9164	13296	-1744	452	-4431	-20844	9420	-4136	15249	8924	7505	-25608	28216	-9708	-5351	12409	4251	121	131	1
-17612	-32768	19456	-1075	-13293	25695	-15536	-3520	-11156	82	10498	-4778	-30716	3320	-9696	-9111	-20428	-4118	-9256	7452	12976	-979	1485	-2167	-15764	9768	-3976	-4110	9371	3070	-19612	6844	-3540	-13654	11528	3476	127	183	1
-3952	-32768	11928	-3022	-32768	-9366	-13932	-3068	3252	-11348	4739	-52	-30896	2024	-9700	11	-23664	-3789	-8264	7616	12868	-1167	1902	-1860	-16756	3232	-2408	-3256	8337	1333	-12100	-1172	-3448	-9459	12629	591	129	148	1
10208	-17476	-5672	1504	-24034	-15497	-10788	3332	5364	-4543	-6527	-2206	-27220	772	-6280	-3363	-24814	-3177	-8120	8008	12972	-972	2343	-2563	-17388	3212	-1492	4941	7023	1677	-17528	3040	-3056	-4034	13265	2211	118	152	1
6096	-9224	-580	-14570	-16348	-18947	-7944	1356	1644	-5675	-14994	68	-18948	-2356	-7788	2975	-21631	-6059	-8636	7436	12740	-793	2095	-3652	-16468	3308	-2404	11209	6004	1899	-18320	2692	-3504	-2724	14269	5197	151	143	1
-688	-19972	5280	-22535	-13829	-25248	-10172	-2328	688	647	-22471	958	-16264	1840	-7996	5388	-20611	-2670	-8932	5776	13068	-501	2208	-2994	-16704	4264	-4396	7421	5299	2079	-15480	-1028	-4340	3703	16210	6802	130	106	1
-2200	-18560	9208	-15164	-13787	-31627	-10492	136	220	8541	-28901	-468	-15416	616	-8056	5965	-20753	-2335	-8272	5632	13304	50	2891	-1980	-16484	1812	-3664	1103	4793	765	-13788	-2764	-2292	11240	18457	6974	134	82	1
-1840	-9672	13116	-16772	-13565	-32768	-12516	4224	-1336	12088	-32768	727	-14008	-236	-9216	6649	-19090	-2867	-8668	6536	12732	291	3470	-1923	-16208	2164	-2844	5048	4124	1192	-15372	-904	68	12751	18272	4479	132	80	1
-4036	-10380	17800	-21881	-14306	-32768	-13044	5520	-2504	11647	-32768	3342	-10532	1752	-9992	7926	-17498	-2382	-9240	6716	12052	548	2983	-2447	-15192	3576	-2096	7929	3636	1841	-13964	-1756	-1600	10843	15231	4702	134	120	1
-7848	-11896	23212	-20683	-17471	-32768	-13708	5216	-3708	10326	-32768	6294	-8228	172	-10644	8082	-15288	-662	-9052	6540	12156	590	2020	-3103	-14608	4220	-1636	8550	3726	1955	-13004	-988	-1952	10632	14147	4338	118	115	1
-9532	-10468	26124	-18997	-21111	-32768	-16760	4944	-4936	9524	-32768	10408	-5196	-3616	-12072	10889	-11862	551	-9516	6068	12516	583	1596	-3370	-15488	4012	-2552	6130	3904	1547	-14780	3936	-4368	1297	12869	4984	118	125	1
-12348	-12204	28868	-17594	-23045	-32768	-19452	3908	-6252	9202	-32768	13854	-2608	-6184	-13476	19104	-8874	-131	-9196	5928	12424	610	1618	-3194	-15636	2976	-2476	5794	4694	1351	-16636	7096	-3248	89	8612	4350	138	119	1
-17088	-17220	31088	-14490	-24989	-32768	-24116	1692	-7444	12399	-32768	18651	-2836	-4776	-15556	20731	-5073	-1250	-9264	5812	12812	168	2484	-3282	-16440	3220	-2896	4283	4886	1545	-17024	7268	-2192	49	5780	2265	162	123	1
-26312	-19100	32767	-9092	-24638	-32768	-29676	256	-10432	15698	-32768	23823	-3896	-3292	-14060	21921	-283	814	-9192	6176	12800	235	4024	-3816	-17304	3016	-1820	4892	5461	1325	-18120	4368	-1600	359	7607	1188	159	130	1
-32768	-12284	32767	-7511	-23149	-32768	-32768	-5740	-11504	8005	-32768	28718	-2108	-2764	-3072	20869	-2479	2420	-9648	6632	12832	88	5096	-3923	-16072	3320	1456	5196	7438	1620	-20020	1548	5712	416	8649	1676	142	135	1
-32768	-13608	21204	992	-25735	-32768	-32768	-22928	-11788	10298	-32768	25677	-13008	-1928	15456	8433	-14941	-389	-10148	8896	13476	46	6610	-4604	-14264	2840	2700	715	10801	2179	-20060	-1828	10504	2403	6562	3461	131	121	1
-32768	21892	-4092	6032	-19303	-28344	-23200	-7576	-25296	7789	-26624	8773	-31748	7000	26476	7640	-14886	-14440	-10660	9024	13988	-1173	8418	-6621	-22516	1092	792	865	12966	2610	-22052	-8864	5552	5466	5456	3840	147	117	1
-32768	32767	-12924	-11335	-3198	-9071	-13336	-18632	-28928	-4749	-11760	-1518	-18280	17808	29760	26497	3125	8038	-10916	5168	15524	-1617	12985	-8168	-20020	564	-1144	2993	15304	3101	-18380	-628	4264	12191	7638	1297	129	109	1
-32768	25840	-4068	-7500	4450	2589	-10712	-25308	-29468	-8216	9174	-5453	-16536	28904	26036	32767	21957	9752	-9884	6076	15796	-2830	18260	-8659	-21808	1200	-828	168	17593	2051	-21092	6300	1572	11276	7129	374	121	117	1
-32768	17216	-1872	10909	11656	12818	-11528	-25992	-29360	-5773	12061	-7262	-26120	16288	14760	889	2200	9726	-10680	7688	15216	-3996	24028	-10731	-23092	1196	44	167	19555	2402	-22456	6220	3716	7853	6126	-1243	114	120	1
-13116	-17292	15472	25326	21581	17301	-22084	-1320	5904	24015	26108	-17714	-11300	19328	16280	32767	-7091	3894	-11612	9460	14644	-2423	29535	-14760	-22752	1240	1948	2691	20992	3232	-21076	3904	6880	7453	5266	-2429	122	125	1
32767	5740	12868	2426	22605	4918	-32768	32767	32767	30454	5187	-566	9636	-19000	-32768	-32768	27769	-27218	-11996	9548	13880	-1355	32767	-20550	-26044	964	4412	3889	22037	3139	-23220	824	8596	8343	2821	-3063	117	129	1
-32768	13052	8804	16511	32767	20999	-13508	-23456	-29208	13462	6807	-8122	-32768	-7284	11980	32767	-8224	-8904	-12684	9356	12152	1249	32767	-28497	-30044	-6492	3196	10015	20756	4361	-23736	-3160	14724	11626	-6642	-5276	127	125	1
-8708	-13076	32767	16470	17231	4918	-14604	-23596	-30256	8850	10364	-14444	-30808	20076	-2824	13349	17036	-4826	-26480	16800	14960	822	32767	-32768	-25592	6236	8392	25096	22758	3756	-20260	-10240	8768	7485	-14163	-11252	87	132	1
-19532	-11156	17296	2687	5206	5999	-15692	-9384	-5340	-1733	13369	-9970	-9088	7804	-2264	-21446	18122	-8089	-32768	3656	19752	4485	32767	-32768	-23212	13440	-1548	9959	25045	6221	-18452	-5496	-944	12995	-13571	-6575	145	137	1
-12504	-12200	12312	5109	1156	3425	-15764	-9628	-2580	-7740	11509	-10940	-8860	-13220	-20936	-32768	686	-7188	-31112	23104	19804	16998	29559	-32768	-26004	12160	-44	4378	23636	2852	-26108	13744	-7148	28863	-15061	-1670	122	149	1
-8156	-7656	14012	4774	1403	996	-18980	-248	-2340	-1625	9089	-6776	-16272	-30280	-2712	3236	10842	-4446	-24092	13476	13604	6393	21429	-32768	-22752	9092	-2992	-6935	19179	4439	-27984	10104	-15188	23213	-12813	1717	122	138	1
-5928	-9436	12292	2198	1283	621	-18984	-1212	1484	-6681	8112	-5260	-24076	-6356	-7272	21295	16744	-6729	-32768	16920	18472	-766	17722	-32768	-16648	5204	-12664	-3410	14683	3264	-25796	3384	-14640	7004	-24401	3954	103	142	1
-6952	-7124	12808	1131	1688	14	-17864	-2664	-1936	-2199	6457	-6039	-17044	8336	-4352	12377	8620	-8587	-14968	30252	15120	-4117	-3395	-7390	-14616	7172	-10664	6633	9743	1653	-25744	2984	-12028	-5147	-29691	4368	108	141	1
-6372	-6776	12972	-87	2263	-122	-17260	-300	-508	-480	4916	-4788	-14160	5148	-1304	1742	9453	-3872	-10212	22528	11660	-7200	-12905	13169	-10660	5220	-5404	9563	3237	721	-23460	1172	-4956	-3438	-28923	4580	67	122	1
-6716	-7948	12544	-1271	2666	92	-17540	472	384	-3533	4348	-4385	-14392	-616	-1164	-3662	11153	-713	-9124	21076	10424	-7736	-14312	15135	-6320	5904	-2112	7715	-2155	-155	-22128	1100	-7760	-6237	-26474	6505	120	90	1
-6440	-7944	12372	-1698	2936	458	-17624	-988	1828	-6250	4240	-4064	-17932	-3256	-1752	-3022	12153	-2786	-1264	6232	4748	-1249	-20750	19313	-5140	7940	-1340	-2908	-8856	-587	-18064	672	-7468	-9154	-22833	6677	166	106	1
-6944	-8508	11672	-1459	2624	1348	-16684	-2136	1956	-9903	4096	-2859	-17612	-1756	-528	-5862	12981	-6287	-532	4656	4396	5957	-22247	15209	-6132	3024	-1780	-12147	-15958	-284	-15472	60	-7812	-10333	-18432	5185	103	130	1
-6936	-8340	11776	-1231	2261	2008	-16768	-1600	1380	-9289	3802	-3043	-15524	-384	-1508	-10432	13874	-6076	-4088	7512	7340	11364	-23812	15588	-5260	-196	-4104	-13585	-21238	-522	-13220	-2752	-8184	-9434	-16393	1539	88	127	1
-6668	-7536	12108	-1081	2016	2101	-16976	-1988	792	-5367	3409	-3124	-15828	-228	-1848	-12274	14501	-4891	-7084	11036	10716	12603	-27660	21635	-7360	-628	-4924	-7081	-26393	-2391	-10984	-2364	-7292	-9417	-16233	144	127	124	1
-7004	-7856	11948	-1801	1654	2267	-16816	-460	1024	-5488	3346	-2487	-15860	-408	-1628	-12221	14582	-4853	-7832	8992	12040	12393	-29369	29412	-9372	-1700	-4516	-2575	-30436	-3043	-9828	-356	-7272	-11949	-15792	-82	126	131	1
-7608	-8216	11636	-2088	1147	2908	-16232	-1536	1168	-8129	3887	-2477	-14660	-268	220	-14233	12440	-4665	-9024	7932	13272	13329	-29312	32767	-9912	420	-4312	-3182	-32768	-4374	-9312	1440	-8264	-13885	-14166	-197	130	126	1
-7252	-8504	11372	-2261	514	3560	-16200	-2164	1676	-8358	4368	-2395	-14856	-1712	-372	-12601	11942	-4032	-10660	8444	14520	11352	-29055	32767	-11852	1872	-4248	-8592	-32768	-5646	-8176	2600	-9468	-17100	-11047	314	134	121	1
-6936	-7992	11808	-2096	224	4275	-16568	-1832	1240	-6587	4770	-2809	-15580	-4168	3108	-1770	14093	-5439	-14332	8256	17412	9156	-29287	32767	-14136	2696	-6364	-15917	-32768	-8107	-6552	2096	-10640	-19720	-6691	902	134	117	1
-7420	-7796	11804	-1547	333	4818	-16392	-1000	1272	-5932	5673	-2677	-18084	-3196	-324	-889	7994	-7276	-19204	9560	22240	9738	-31021	32767	-17252	1968	-8820	-18226	-32768	-11757	-5792	1560	-11776	-17197	-2698	1698	131	121	1
-7080	-8148	11608	-1968	145	5361	-16092	-1204	884	-5893	6447	-3325	-16272	-1600	-688	-4615	3896	-6671	-24408	14884	26988	9526	-32768	32767	-24092	2272	-10368	-15211	-32768	-15378	-5876	-1680	-12048	-8554	2230	1431	117	129	1
-7956	-7640	12020	-3255	122	5239	-17584	-1448	440	-5289	7311	-3281	-17676	-3732	3016	-2312	7004	-4418	-29124	13164	27964	4805	-32768	32767	-29756	-2984	-13244	-11085	-32768	-17658	-7064	-1204	-7984	-223	4951	343	118	130	1
-7420	-8076	12308	-5080	1559	4680	-18528	-292	1512	-4257	8536	-3466	-17988	-2032	2188	-706	8543	-3140	-32768	1312	29208	9307	-27685	32767	-31884	7088	-15688	6452	-32768	-19492	-10936	2100	500	-2724	2867	1340	118	130	1
-6600	-8684	12320	-707	7387	7557	-18848	916	1364	-3799	10203	-3765	-19324	-668	3920	-1144	8722	-3339	-32768	4008	17876	3892	-32768	29601	-32768	21528	-17208	-4148	-32768	-13395	-21712	-664	17264	4299	-13901	5490	116	130	1
-8500	-7560	14780	-863	11382	7771	-18376	1036	1120	-1776	12675	-4267	-19048	1912	6876	-1738	8289	-2498	-32768	-23520	-10240	2988	-32631	9467	-18872	10116	-29760	-8055	-27117	-4911	-31040	8624	30096	2167	-4491	6641	116	122	1
-8148	-7740	12548	-1708	16527	9001	-20260	1932	1644	-396	15508	-4760	-19028	6032	6724	-1866	6364	-2558	-32768	-32768	-22976	24010	-12994	-118	-1480	6304	-31876	8397	-6256	478	-17824	-18088	32767	-18973	6894	4105	124	128	1
-7416	-6692	14116	-1217	21388	10512	-19784	1892	1240	1119	18417	-5283	-19124	-332	8724	-3176	8356	-668	-32768	-6548	-21400	113	11565	-5595	-5004	17200	-29028	-117	12901	8300	-22764	-28656	16356	-24332	17167	4621	73	127	1
-8832	-9992	13208	510	26872	12283	-22708	1992	4144	1385	21120	-5053	-21476	-4268	9432	-5000	6815	2791	-32768	-13208	-180	-22806	19417	-3084	-12948	9380	-15452	-17323	27314	11684	-14648	-8792	5464	7824	-1564	-6474	88	119	1
-10748	-11712	11916	75	32767	16959	-27136	5744	4996	-4906	23623	-6134	-23264	3360	16364	-9911	-1544	3281	32767	30688	32767	-14507	26101	-405	-32768	-22208	32767	-32537	10511	3285	-4828	-652	-3184	-11542	-4729	-5025	128	111	1
-8236	-14844	16352	-573	32767	24071	-32768	10312	19368	-23749	28563	-4025	-29840	10204	27880	-2912	-17790	9892	-32768	-10508	32767	-10988	32640	-27762	-9480	-2572	-29060	-32768	21926	9569	-32768	18672	5696	-27165	-5738	10611	144	106	1
-14768	-24520	12144	115	32767	32767	-32768	-1716	16956	-15324	26868	-2159	-27224	8704	3640	-15925	-8119	9264	-92	6376	15136	-18141	10993	-10506	-26336	4200	-6668	-1908	17437	18877	-32768	-7020	-8812	-11726	16147	13947	144	146	1
-32768	-16208	19176	-19081	32767	32767	-27924	-4340	-1044	-13950	29471	-3752	-26368	-4356	7844	-25461	-18481	6326	-19712	2176	16100	-8117	5371	-12870	-11544	6648	-12948	9404	13460	9981	4484	-12264	-13336	24923	10811	15581	143	133	1
-29952	-32768	24212	-20559	23691	32767	-32768	-13440	7688	-6115	27155	-2776	-32768	-16712	-13576	-25965	-13115	1864	-5780	6244	16956	-4961	-558	-8039	-16648	9796	-5988	25090	9634	8701	-6224	19208	-14044	32767	8771	3647	137	144	1
-22984	-32768	19288	-24542	5043	32767	-22484	-7624	7512	6368	15641	-5813	-26808	-2544	-10752	-12197	-20171	-302	-10240	9044	12960	-2201	1557	-2536	-20888	7760	-4996	7393	9163	4928	-27852	29824	-11860	-9707	14935	4878	138	168	1
