#Activity	walking 
#ActivityID	1 
#Date 08-22-13-46
acc_rf_x	acc_rf_y	acc_rf_z	gyro_rf_x	gyro_rf_y	gyro_rf_z	acc_rs_x	acc_rs_y	acc_rs_z	gyro_rs_x	gyro_rs_y	gyro_rs_z	acc_rt_x	acc_rt_y	acc_rt_z	gyro_rt_x	gyro_rt_y	gyro_rt_z	acc_lf_x	acc_lf_y	acc_lf_z	gyro_lf_x	gyro_lf_y	gyro_lf_z	acc_ls_x	acc_ls_y	acc_ls_z	gyro_ls_x	gyro_ls_y	gyro_ls_z	acc_lt_x	acc_lt_y	acc_lt_z	gyro_lt_x	gyro_lt_y	gyro_lt_z	EMG_r	EMG_l	act
-12148	-4648	16940	1201	29483	13715	-24076	3300	-2264	1849	21608	1305	-21640	-2192	7448	-592	0	62	-32768	9816	25428	-8004	32767	-13183	-32768	15944	-11544	-152	3015	-1317	-23208	14160	15864	571	-89	380	128	127	1
-10688	-7500	18004	1007	32767	21311	-27108	4116	-800	3001	22720	461	-23888	-2720	12864	-592	-352	297	-20596	1056	22016	-3400	16610	-18960	-16680	-1456	-12224	-2373	3694	-1577	-21472	-5000	-5504	924	1621	-475	130	131	1
-11308	-11912	17628	1372	32767	26257	-32768	8348	4560	-10603	23840	-1746	-25464	2360	23560	-1446	-2690	941	-11172	15288	2376	-11111	6698	-12625	-7816	6376	-16104	333	2366	-83	-7512	-9344	-20720	1902	1112	-15	133	110	1
-32768	-4720	10952	-6662	32767	27947	-31000	364	-1664	-20024	29984	-3301	-20200	5008	6272	-3647	-4903	1272	-17776	5984	10128	-8861	-339	-9151	-14160	4000	-14912	258	1844	-194	-15792	7360	-3536	1441	686	148	131	107	1
-30512	-1652	12364	-19125	32767	23990	-25696	-5372	-5100	-18762	31796	-534	-16912	6328	-888	-3246	-3847	1206	-10744	2320	15252	-4106	862	-3737	-20888	-1656	-10192	-427	1833	-329	-23264	3704	-4224	-137	1514	453	121	115	1
-32768	-15340	10264	-27632	32767	16166	-23576	-4252	-6212	-5238	28806	6186	-27392	-12504	-14040	-2312	-2069	-491	-9356	7984	11312	-1552	1783	-1211	-16240	832	-7464	1400	1105	-96	-17872	-4008	-392	51	1391	147	119	136	1
-16772	-29348	17888	-20661	31107	27361	-16112	-9788	-11012	884	24820	5437	-28040	-1608	-14400	-128	-2744	-1109	-8860	8136	11116	-1051	1566	-1602	-16128	3096	-5856	2795	515	242	-15072	520	96	782	1342	71	122	108	1
-32768	-25648	18544	1874	4223	20537	-13592	-3276	-23028	10039	13530	98	-28256	4368	-5840	1817	-2990	-1279	-8764	7616	11548	74	2176	-1009	-14800	10976	-5488	1710	567	216	-17512	2192	256	768	1277	-100	146	124	1
-11772	-21116	15724	14884	-19507	5646	-10780	3552	-8692	8559	1901	100	-27320	1512	-4536	1388	-2908	-1235	-9660	8000	10856	597	2570	-1170	-14776	9256	-6664	-656	1067	-110	-18024	4616	-1032	529	1342	-377	148	127	1
4664	-9128	11480	17791	-20386	-1888	-5796	1928	-4312	4634	-5213	639	-24208	744	-3784	270	-2748	-1503	-9916	8468	10388	540	2991	-803	-16480	4040	-7792	-1064	846	-144	-17552	5904	-2152	-187	1508	-364	114	128	1
4064	-3264	8932	11609	-17082	-10049	-3996	1372	-5820	7699	-10736	411	-19912	-64	-4488	-321	-2262	-1379	-10160	8408	10420	619	2582	-420	-15760	2624	-7680	-9	501	-13	-18264	1648	-1160	-534	1579	-571	128	125	1
-1584	-3564	9308	3580	-17166	-18027	-4100	1868	-7392	10597	-15712	1176	-17568	1888	-5664	-164	-1977	-968	-10016	8164	10340	836	2122	-85	-15848	3264	-6008	1022	122	214	-16240	-968	1120	-477	1695	-237	145	126	1
-6552	-7312	10444	1103	-22027	-22457	-3516	1700	-8732	7308	-21981	1949	-17176	3272	-5312	200	-1865	-760	-9848	8076	10512	1087	1975	18	-15424	6480	-4872	1078	22	295	-16824	-120	2248	-85	1740	-121	119	131	1
-8864	-6832	10540	4336	-27789	-24423	-5360	2984	-7908	3822	-27513	1689	-14880	1976	-5448	580	-1865	-625	-9856	8412	10280	1325	1982	-159	-14656	7848	-3736	309	215	151	-16024	2152	2424	218	1762	-223	131	130	1
-10692	-3260	10788	5903	-32652	-26357	-6184	2428	-7340	1349	-31304	1484	-12480	1408	-6200	595	-1621	-493	-9844	8240	10132	1273	1845	-298	-14608	7016	-4216	-148	386	17	-15048	4512	1984	303	1786	-327	124	130	1
-11076	-1824	11496	4908	-32768	-27493	-7772	804	-6924	1729	-32768	2363	-11888	88	-7152	906	-1434	-442	-10092	8844	9428	923	1483	-536	-14184	6136	-4544	139	325	-9	-14240	5424	1584	229	1862	-215	136	135	1
-13052	-2324	12552	3177	-32768	-26093	-9792	-820	-7548	7774	-32768	3458	-10704	464	-8536	1202	-1319	-631	-10068	8512	9460	226	962	-755	-13856	6992	-4256	583	229	4	-14520	4592	1616	223	1961	-102	127	130	1
-16160	-4176	13932	1944	-32768	-23656	-11888	-60	-9280	11950	-32768	4166	-9328	-288	-9080	2084	-1130	-543	-9992	8192	9800	-140	750	-874	-14344	6736	-4280	515	269	-47	-14840	2640	1256	180	2075	-67	134	132	1
-19508	-5044	15604	759	-32768	-22355	-11256	1704	-10128	11825	-32768	7109	-7760	456	-9400	2731	-687	-462	-9980	8108	10072	-321	857	-882	-15328	5848	-4256	337	366	-101	-15200	1304	3232	-65	2219	-10	136	131	1
-22380	-6372	17112	-572	-32768	-23020	-13724	2620	-9896	5814	-32768	9277	-5640	2592	-9680	2762	-43	-455	-9848	8620	9884	-211	1069	-1137	-15728	5704	-4160	394	417	-75	-14568	-1496	5976	-1104	2499	-133	124	126	1
-24432	-7544	19284	-1695	-32768	-24527	-18740	1728	-9824	2370	-32768	10973	-4632	4512	-7976	2340	435	-253	-10008	8328	10120	-139	1298	-1550	-15576	5104	-3392	556	432	-58	-14112	-1208	5888	-1258	2660	-178	124	127	1
-30692	-9416	22804	-3065	-32768	-26194	-22920	-496	-10588	2022	-32768	12929	-5408	3800	-5944	1698	525	-195	-9484	7888	10536	104	1601	-1447	-14416	5512	-2968	559	524	-82	-16816	2896	-2520	94	2480	-186	128	134	1
-32768	-16568	26424	-4032	-32768	-27637	-31652	16	-12308	-2535	-32768	13136	-7264	2328	-1168	1135	290	-70	-9936	8328	10348	247	2287	-1659	-14472	5704	-2968	531	559	-85	-19168	2592	-1120	-785	1673	-247	120	136	1
-27916	-8948	9280	-517	-30147	-14462	-30892	1068	-12932	-7477	-32768	8503	-16688	-1592	12976	855	-480	37	-10968	8816	10476	519	3002	-2236	-16168	8056	-3320	576	823	-198	-17792	4760	4480	-1009	1501	-257	132	133	1
-32768	4312	-92	-7387	-30775	-21485	-20572	1936	-19152	-19441	-32768	3319	-30080	3368	24744	1854	-1887	-902	-10016	9264	10380	-5	3879	-3613	-14760	7776	-1616	789	956	-389	-14880	1720	7136	136	1595	-126	141	133	1
-32768	15060	-13312	-24607	-32768	-22526	-13992	1784	-16480	-32768	-28735	-4220	-11688	7048	32767	247	290	-128	-10544	8532	11076	-614	5220	-4891	-14432	8792	-1744	715	1273	-550	-16240	936	5120	557	1465	14	152	133	1
-32768	32767	-30348	-32768	-18552	-18148	-3764	-9372	-4312	-32768	-7844	-3873	-14624	7976	32767	-1954	-1088	1062	-10644	9356	12628	-1308	7336	-6012	-17480	9480	-3552	358	1601	-826	-19656	5992	1640	408	1161	161	131	131	1
-32768	-7924	-31524	5411	4600	17661	-2648	-8780	-8216	-1646	11783	712	-24320	-2152	17456	-3204	-1183	116	-10964	10112	12972	-1065	9656	-9001	-19008	7424	-4616	726	1689	-919	-19960	6080	1560	723	798	-24	87	132	1
-4908	23016	-16260	28518	18777	32767	-18372	-11544	-6500	14097	24259	-6395	-14640	-7472	12216	-2503	-1316	-396	-11244	11064	13496	-526	12870	-12799	-20752	6720	-4104	1134	1710	-983	-20616	1944	512	744	347	-63	121	132	1
-15756	-21188	32767	18461	21782	32767	-32768	9888	9172	32767	22878	3799	-18736	-4472	6872	-1540	-136	-595	-10984	11016	13824	-441	13515	-13169	-24032	6656	-4848	1150	1824	-1105	-23032	3560	2552	494	211	-2	132	133	1
-19552	1292	15940	17526	32767	14188	-29068	9552	-18084	32767	24090	3537	-32768	-10352	13088	2561	-1509	-1637	-10500	14848	17848	706	23666	-20160	-26200	7056	-2912	1052	1947	-1235	-23728	4440	3872	432	202	-27	144	134	1
-32768	10556	28320	8759	19798	10443	-21704	9920	-12924	11162	25280	-4268	-19816	7496	32767	3003	582	-1048	-10204	16812	17092	-1231	31592	-27021	-31256	9808	-144	1198	1984	-1341	-28488	4296	16240	-104	-1064	-45	126	135	1
-7252	-12812	11448	707	10509	5314	-10980	7248	-9324	-10069	18816	-11914	18728	20360	-32768	-7387	4778	1917	-18000	21124	16088	-1572	32767	-32768	-32768	14104	6976	2163	1995	-1317	-24600	48	20696	1500	-2854	-319	140	131	1
-17220	-13160	7040	7011	5345	10587	-6328	-18820	-7540	-8156	19285	-7065	-6480	-17808	-14024	-1631	-1927	1431	-28200	17844	17512	2803	32767	-32768	-26824	20592	-784	2202	2467	-1549	-17528	-560	4328	2087	-3109	-776	149	133	1
-13564	-2200	13492	6475	-2510	6034	-16332	-8616	-8260	8757	12438	-7886	-29224	-8680	-1704	768	-234	-40	-26316	21160	14468	2826	32767	-32768	-21736	16896	-520	2332	2282	-1923	-21624	5408	-1416	950	-2245	301	121	135	1
-11780	-2340	13492	4072	-1418	2985	-20680	9312	-10084	-2168	12659	-2927	-17264	4864	-232	-889	2128	-888	-26072	24084	12304	2291	27849	-32768	-18320	9032	-6488	1458	2607	-1692	-25264	8192	-14152	151	-2704	804	105	129	1
-10668	-3912	12340	2394	-366	1015	-15312	6512	-7360	-24425	14108	-5240	-20144	568	-6264	-2357	683	161	2104	23684	12912	6470	24391	-32768	-18048	6400	-12080	24	2199	-1373	-26912	-4552	-4800	-1086	-3313	520	129	122	1
-11840	-3416	12040	2008	-601	1198	-16948	-3860	-8288	-27039	11590	-5999	-11512	-8232	-432	-1541	1457	795	-26604	27736	11700	6935	-8972	-8884	-12456	768	-16240	-612	1239	-1041	-25968	-5024	-3360	-837	-3195	237	119	143	1
-10924	-2600	12852	1072	371	277	-16132	-8812	-5808	-862	7576	-2746	-17832	-6376	-1464	179	1759	460	568	27716	8184	-4547	-23533	2129	-12776	432	-848	1202	-301	-5	-25584	-4992	-3464	-672	-3151	225	104	148	1
-11188	-3564	12200	714	436	-172	-17560	-524	-6604	9745	4691	-2006	-17712	-2016	-2144	813	2202	202	7048	15432	6892	-8091	-21382	1658	-12256	272	224	1379	-481	101	-23840	-1312	-2296	874	-2680	756	132	135	1
-10836	-3408	12524	373	769	-490	-16980	2204	-6508	3036	3547	-715	-17520	-408	-640	913	1865	479	2820	8472	7204	-2308	-17758	6420	-7320	232	-4344	509	-1483	835	-20656	568	-3528	1394	-2420	765	135	138	1
-11184	-4156	11880	-81	872	-650	-15112	2380	-5800	-8367	4121	-1172	-16464	-688	-376	449	1761	514	-1292	9496	7352	6294	-16958	15989	-7664	-768	-6864	-252	-2039	1141	-19336	1936	-5008	1193	-2291	758	129	138	1
-11000	-3788	12128	-368	743	-442	-16584	-676	-3976	-13374	3717	-1333	-16752	-2224	944	356	1733	368	-4408	12404	7128	8875	-18469	24716	-7376	-272	-6384	-542	-2625	1512	-16792	904	-6432	673	-2112	633	136	133	1
-10868	-4256	12248	-560	904	-152	-16400	-2188	-2472	-8806	3422	-918	-15136	-3016	1528	441	1891	321	-6584	12820	7640	5985	-20593	30812	-7192	272	-5768	-935	-3071	1784	-14048	952	-6456	370	-1886	594	128	127	1
-10960	-4124	12124	-393	939	84	-15608	-2760	-1880	-686	3068	-642	-12968	-3168	1096	544	2077	441	-8304	11080	8908	3002	-22367	32767	-8120	160	-5792	-1392	-3414	2002	-11904	944	-6672	200	-1573	582	124	133	1
-10976	-4328	11924	-27	817	204	-15756	-764	-2428	2761	3054	-125	-17000	544	160	-190	1925	229	-9864	9224	10332	3268	-24085	32767	-8768	1088	-5336	-1897	-3743	2191	-9272	-24	-6736	-72	-1282	535	130	129	1
-11088	-4160	11804	164	664	519	-15480	1140	-3460	-528	3334	145	-13832	552	3184	-290	2145	-134	-12116	8896	11596	6138	-25335	32767	-10560	864	-5744	-2655	-3951	2274	-7464	-1880	-7544	-610	-993	362	132	128	1
-11036	-3848	11948	50	518	757	-15452	2160	-3632	-8383	4261	-762	-14784	1696	5232	-576	1974	79	-14752	10440	12992	9284	-26389	32767	-12640	-320	-6432	-3049	-4239	2360	-6944	-2808	-8032	-1127	-676	163	131	130	1
-11072	-3652	11968	-45	548	857	-16228	-520	-3548	-7887	4340	-872	-11536	1520	5400	106	2500	117	-16748	11500	14460	12180	-26944	32767	-15456	-216	-6248	-2822	-4578	2447	-4760	-3280	-9088	-1533	-302	0	131	128	1
-10956	-3636	12020	-102	555	884	-16072	-228	-3980	-4644	4193	-555	-17664	-1232	5192	-9	3626	181	-19428	11916	16836	15283	-25048	32767	-17816	1408	-7032	-2640	-4854	2480	-4576	-4952	-8704	-1756	64	-156	127	132	1
-11068	-3668	12036	-316	646	902	-17044	924	-4320	-5600	4413	-491	-18936	-6856	-3480	-595	3307	210	-23516	18184	18952	15735	-22517	32767	-23480	4112	-9344	-2542	-5125	2447	-4640	-3024	-5784	-1919	86	-288	121	130	1
-11176	-3932	12024	-697	939	1056	-17088	1556	-3724	-9324	5009	-751	-18200	-1848	-7736	706	2248	1	-32768	22940	22036	11759	-21871	32767	-28512	7032	-14696	-2928	-5250	2407	-8192	1856	2064	-2812	-368	-170	144	130	1
-10656	-4432	11828	-828	1315	1352	-15060	-436	-240	-10534	5800	-373	-14952	-2744	2600	1219	1810	38	-32768	16908	16468	6941	-19868	32767	-26800	4896	-12168	-2860	-5088	2077	-12496	4728	6056	-2812	-822	129	140	129	1
-10952	-3740	11620	-159	1550	1802	-14052	-2596	3344	-5401	8080	479	-15136	-3088	13664	-132	1608	206	-32768	9556	7280	546	-15440	32767	-23960	4336	-17208	-2672	-4324	1762	-17712	5136	17744	-2107	-1752	706	127	136	1
-10772	-4932	12652	557	2499	1833	-15708	-2948	4740	1723	11075	1049	-19056	872	10352	-271	1558	43	-32768	-12288	-2684	-1667	-10347	32767	-15440	1192	-16224	-1385	-3158	1185	-17312	1240	32767	-1663	-1576	-306	132	134	1
-11052	-4968	13648	945	4556	3021	-17956	-624	2824	2862	14719	1390	-19832	-4240	6848	-275	1218	-42	-32768	-32768	-13840	11416	-7853	18300	-3928	6920	-10272	658	-1004	768	-18408	-8824	32767	-1579	-437	-209	127	135	1
-11292	-4380	14568	1289	7345	4058	-17664	-1912	160	3321	17919	2091	-17992	-5216	4576	-738	789	7	-32768	-16220	-11448	3269	-4632	-11069	-6984	7560	-17056	192	1325	-315	-21552	-4488	22104	874	-1176	415	131	147	1
-12000	-6892	15116	2108	10339	6090	-19240	-3460	-2552	5910	19942	2705	-18928	-4720	1720	-811	548	52	-32768	-1952	-1956	-31022	5886	-29482	-13064	3832	-12496	-1	2772	-1092	-14912	736	7176	2125	-1052	454	126	154	1
-12640	-7804	16072	2732	14575	10434	-21396	1156	-4624	2168	21747	2181	-20816	-2728	184	-875	161	-2	-24856	17524	24960	-14994	5657	-32768	-26288	11632	26448	1488	2778	-439	-11272	-976	3264	2511	-588	566	127	140	1
-12328	-5440	18008	1942	20606	12491	-24264	3468	-4764	-260	23256	1975	-22464	-2536	2704	-699	-41	28	-5716	-7380	21876	-22394	12486	-32768	-29120	4224	-7296	1223	3006	-759	-26256	4792	32767	545	-2697	1245	127	136	1
-12012	-5196	19348	3454	28197	14485	-26236	4808	-3424	2843	24174	2938	-22504	-2968	3360	-665	-51	36	-32768	9772	27980	-10022	23854	-19019	-28936	-1552	-11896	-1799	4174	-1663	-10592	14152	-14456	1066	1720	-476	120	123	1
-12032	-6352	20472	3392	32767	19729	-29804	6752	1496	1502	25387	2125	-24192	-2072	14696	-375	-737	298	-136	12748	7464	-5673	17294	-18606	-9688	936	-10688	-638	3553	-1156	-20544	-28720	-11992	3208	2009	-1552	127	142	1
-10792	-11956	22988	3613	32767	31519	-32768	5216	10316	-6319	27874	310	-25856	4240	16512	-2481	-3549	853	-32768	-704	6828	-11050	2849	-15943	-6568	7456	-22000	2031	2271	225	-2472	9624	-9728	2106	-1207	1216	130	100	1
-15564	-11892	19360	4936	32767	32767	-30348	-148	2352	-7970	29578	-1439	-17608	7840	5208	-2423	-3011	801	-19560	3820	15228	-6255	1805	-7778	-23000	1968	-14432	697	1903	-254	-31560	11224	-12952	1443	1635	-62	125	115	1
-32768	-80	9668	-8061	32767	29352	-23672	1216	-8628	-18272	30937	2425	-20656	-3224	-2408	-1915	-2138	121	-11032	4056	12700	-1829	3812	-2162	-17544	-1288	-11456	716	1779	-366	-20864	40	-2304	-26	1493	-110	123	123	1
-32768	-11472	8116	-25402	32767	14910	-22540	-3804	-8532	-6984	28492	4719	-29616	-8496	-12680	-1969	-1999	-425	-9172	9972	9764	-549	3050	-1197	-13992	3928	-6984	1891	1036	-148	-15512	2328	-1208	270	1438	-155	108	105	1
-12536	-30540	17024	-18639	32767	26873	-15776	-10676	-15604	265	25454	6761	-29088	1976	-13368	39	-2604	-1008	-9120	7380	11260	-744	2495	-1657	-15296	6712	-5832	1714	915	-29	-15528	968	-368	68	1425	-21	139	118	1
-32768	-29092	17972	5951	2939	16578	-14164	-4396	-26916	8182	13274	-752	-29760	3528	-5952	1477	-3049	-1012	-10208	7508	11020	172	1963	-1427	-15752	6864	-7760	243	1092	-107	-17952	-1448	344	83	1459	-164	144	118	1
-12176	-17852	14532	19887	-19940	3815	-10836	2736	-7904	10629	1449	-893	-28024	392	-4288	976	-2955	-1130	-10104	7456	11428	811	1163	-1126	-16528	4464	-8728	-351	1090	-137	-18992	1624	-1832	402	1363	-450	136	118	1
3872	-5952	10952	18444	-19136	-4440	-5640	-60	-4592	8424	-5640	-544	-25016	-136	-3952	33	-2764	-1376	-10284	7640	10884	1117	2622	-223	-16024	4816	-9344	17	684	-43	-19016	7136	-3208	234	1383	-671	127	122	1
2256	-2564	9116	9489	-16803	-13379	-4832	1376	-6760	13747	-11240	-136	-20832	560	-4752	-304	-2281	-1343	-10424	8192	10492	1359	2669	-145	-15896	4056	-8992	368	414	-34	-19080	5040	-2888	-405	1655	-583	132	124	1
-2764	-4384	9552	1776	-18284	-20544	-4172	2836	-8568	12864	-16809	602	-18992	4376	-5216	-171	-2126	-1043	-10140	7592	10624	1385	2263	-241	-15712	3856	-7888	700	125	82	-17496	-64	-896	-679	1857	-252	124	132	1
-6508	-7536	10728	1272	-22830	-23053	-4164	4212	-8948	5644	-23277	426	-18600	4752	-5160	-142	-2116	-869	-10128	7732	10528	1346	2001	-194	-15480	5168	-6064	633	-3	121	-16744	-816	1224	-443	1861	-237	125	132	1
-8952	-4348	11660	3621	-27724	-25341	-5320	4108	-8412	1687	-28282	591	-15592	1544	-5696	133	-1940	-606	-10016	7892	10620	1637	1980	-261	-15240	6472	-4496	319	56	105	-15704	1056	2336	-185	1820	-357	113	131	1
-9376	-3748	11784	3791	-28639	-25819	-5876	3652	-8276	-1848	-32289	505	-13000	1600	-6704	97	-1755	-518	-10156	8212	10024	1653	1737	-463	-14368	7128	-4040	8	186	38	-15272	2840	3096	-51	1840	-401	129	128	1
-10764	-396	12284	2611	-32768	-29713	-7276	1504	-6876	-1450	-32768	1685	-11136	592	-7848	338	-1373	-576	-10088	8220	9596	1258	1318	-680	-13864	6456	-3800	127	200	-6	-14048	4656	2416	28	1870	-262	121	128	1
-12452	-964	13364	1900	-32768	-27251	-8820	-1276	-7224	6807	-32768	2892	-10456	344	-9720	974	-1273	-516	-10272	8156	9476	400	830	-910	-12768	7016	-3552	376	190	-41	-14144	4672	1992	-12	1928	-181	147	126	1
-13384	-1132	13696	1638	-32768	-26749	-10480	-1312	-9768	13917	-32768	4256	-8008	392	-10672	1601	-985	-609	-10312	7836	9248	-776	329	-1052	-12648	6808	-4056	309	285	-130	-13752	4112	984	-9	2011	-158	132	125	1
-20484	-3632	14968	-990	-32768	-24443	-10092	1192	-9528	13970	-32768	7425	-5520	-632	-11368	2436	-540	-577	-10192	7376	9680	-2046	106	-1350	-12952	6584	-4464	-55	420	-196	-13192	2664	592	-265	2142	-61	128	130	1
-20628	-4248	16128	-2764	-32768	-23644	-13384	3288	-10028	9209	-32768	10849	-4040	1488	-11928	3196	289	-515	-10772	7172	9552	-2957	-165	-1221	-14224	5800	-4568	-342	555	-250	-14872	2000	2480	-621	2398	42	124	128	1
-23708	-7048	20364	-3558	-32768	-22635	-18852	2908	-10980	1093	-32768	13414	-3712	4840	-8136	3090	613	-289	-10172	7252	10100	-3161	-935	-1550	-16480	2640	-4392	-128	561	-201	-15184	-1760	6728	-1489	2533	-61	126	129	1
-32768	-12904	25196	-2634	-32768	-24924	-24848	-232	-17324	745	-32768	13697	-4240	3008	-2864	2430	353	-78	-10176	6524	11240	-1399	114	-1636	-18256	1680	-4056	591	465	-95	-15712	-3648	3064	-538	2843	-116	127	124	1
-32768	-14828	23924	812	-32768	-27334	-31580	3108	-11800	-8745	-32768	12870	-6920	600	512	1548	133	133	-10124	7288	11140	-237	1157	-1772	-15904	6704	-3104	913	469	-44	-19512	-424	-232	337	2240	-183	112	129	1
-32768	-9012	12176	1013	-32768	-28024	-25624	-216	-10820	-11936	-32768	8118	-18808	-536	12248	1092	-654	154	-9944	8128	11096	428	2163	-2648	-15632	7440	-1328	736	718	-184	-17992	3872	3896	-544	1940	-148	125	131	1
-32768	3468	-5908	-5628	-32768	-23696	-21664	3400	-13480	-15513	-32768	2039	-32768	5464	32767	2558	-2432	-799	-10128	8884	10568	429	3361	-3275	-13984	8656	-1160	776	1007	-296	-15424	5728	7944	76	1765	7	150	137	1
-32768	32767	-21912	-26980	-27283	-13459	-10220	-5440	-11332	-30828	-23377	-4067	-5040	2560	32767	-973	141	456	-10344	8568	11356	-117	4729	-4424	-14616	9592	-2688	595	1291	-606	-16512	6176	3488	637	1657	0	164	135	1
-32768	26816	-32768	-25689	-9382	-3565	1468	-9060	-7268	-16758	2576	1325	-17864	5784	32767	-1590	-1270	931	-10836	9732	12108	-1331	6457	-6341	-16216	10648	-3896	521	1516	-821	-19416	10144	432	118	1162	-53	117	129	1
-32768	4600	-22876	10339	4651	27547	-8460	-2140	-13308	-4139	19938	-2658	-20288	456	12112	-2872	-1518	166	-11704	11164	12116	-2775	7816	-10380	-17208	8552	-4792	753	1644	-944	-19024	4136	752	404	507	-111	121	134	1
-27884	8192	4912	15269	18570	30288	-19040	-3768	-9256	5135	28174	-1688	-10856	-3640	7736	-2556	-1230	179	-11584	10720	13392	-2714	9198	-13282	-21112	4560	-5960	1254	1651	-941	-19848	-1944	1616	915	306	-14	125	132	1
-7828	-32768	30740	12126	16810	21624	-32168	7140	15508	32260	21097	-1575	-14096	3360	-504	-2223	277	246	-12324	10832	19396	-1312	14249	-16207	-24032	4632	-6232	1493	1710	-972	-23104	64	3376	920	492	88	123	132	1
-828	17444	7656	8466	28828	15439	-16956	512	-5792	32767	17388	-2628	-27472	-744	6184	-198	-304	-581	-11024	9496	17464	-1137	19085	-20384	-25520	6336	-3568	1391	1821	-1163	-26040	4840	7840	934	361	31	146	137	1
-32768	-1388	31304	9101	32599	12703	-32768	6168	-14336	32767	21224	-896	-17200	-14944	20600	3791	-488	-1422	-12500	13452	18964	-1998	26910	-26141	-30104	9784	224	1252	2047	-1365	-27728	7152	15456	425	-501	191	128	139	1
-22100	-4872	18004	1430	18196	9247	-17456	11664	-12276	9852	19114	-8860	-12960	23576	-12608	-1353	2423	1719	-12132	20796	18108	-1228	32767	-32768	-32768	14312	9328	2158	2123	-1341	-27064	3856	18752	1580	-2174	-287	140	133	1
-11000	-11596	9496	9202	11065	10603	-11492	-11548	-10936	-9177	20474	-10787	-14560	3376	-14032	-2055	46	163	-26876	17456	19752	388	32767	-32768	-29776	18576	-416	2373	2548	-1588	-21864	1232	15496	2118	-3736	-967	109	127	1
-20108	-688	11356	7378	1915	9049	-11992	-10356	-15664	5757	12914	-6978	-15056	-10336	-7864	-1535	663	-585	-27276	16468	19904	1831	32767	-32768	-23984	17808	-1304	3161	2283	-2028	-20048	4208	-2248	960	-2445	-51	112	135	1
-11816	-692	14916	3788	228	2868	-21540	6376	-12088	1779	11255	-4939	-23880	-1216	-8536	-407	1359	134	-32768	25328	12236	2347	25736	-32768	-17544	11896	-9008	2344	2594	-1849	-26848	8112	-11640	97	-2729	632	138	124	1
-11524	-4488	12160	1592	615	178	-14712	2076	-8272	-15299	10968	-5070	-19512	320	-3408	-641	1330	41	9308	29696	14116	-3028	21806	-32768	-18376	9784	-12928	-9	2439	-1534	-29936	-2080	-8536	-883	-3300	671	141	131	1
-10680	-4088	12792	884	1531	235	-16364	-3244	-6984	-14824	9057	-6374	-15984	616	96	-666	1646	459	-28592	23292	9364	-333	-2303	-18503	-13880	-632	-20040	-1319	1672	-1336	-26880	-5536	-4704	-881	-3234	385	125	135	1
-11076	-3336	12532	-675	1980	-581	-17708	-3216	-6112	-4680	6552	-4118	-17880	-2000	-528	-542	1666	451	-3204	25920	7420	-6531	-16807	489	-12616	-1912	-4400	301	149	-355	-27040	-5120	-4512	-779	-3163	399	125	155	1
-11096	-4216	12188	-1213	1775	-1049	-16976	-728	-5492	-2051	4610	-4014	-17592	-2904	-1288	-248	1786	476	6832	16136	4596	-10896	-14146	3678	-7744	-1272	-3064	1303	-898	226	-24528	-408	-3376	599	-2617	1028	129	136	1
-11172	-5284	11828	-1012	1687	-1095	-16560	-652	-5484	-11295	3875	-2873	-17304	-3976	-1536	-178	1711	513	3232	7412	5064	-5675	-9841	8920	-5496	792	-5048	354	-1324	579	-20384	1240	-4432	1064	-2251	1066	133	132	1
-11264	-5484	11752	-987	1648	-1089	-15920	-2244	-4908	-14732	3709	-2480	-16520	-4712	-1160	-34	1597	485	-1744	7836	5672	4020	-9166	18592	-5864	368	-7360	-813	-1714	826	-18848	1904	-5768	701	-2132	1120	128	134	1
-11296	-5060	11524	-951	1072	-652	-16292	-1788	-3676	-13630	3193	-1848	-15600	-3304	-48	392	1734	347	-5056	12612	5060	6370	-11891	26091	-5928	296	-7656	-1346	-2237	1155	-17224	2008	-6144	116	-1958	902	132	134	1
-11256	-4728	11660	-1058	1122	-417	-15984	-1992	-2796	-9129	2979	-1488	-15192	-2520	456	573	1899	319	-7756	13316	5956	2987	-15753	30570	-6544	560	-7360	-1646	-2734	1472	-15504	512	-6248	-148	-1882	802	122	131	1
-11236	-4740	11552	-939	1195	-417	-15784	-2340	-2344	-4196	2540	-346	-14712	-3864	208	398	2222	482	-10016	11116	7232	603	-19567	32767	-7312	376	-7064	-1853	-3213	1699	-13488	360	-7088	-373	-1733	767	122	133	1
-11088	-5676	11264	-500	999	-91	-15516	-2156	-3420	-2018	2781	197	-18920	-2768	-1400	-525	1984	-92	-10916	9936	8296	1009	-22633	32767	-8272	1536	-6376	-2111	-3603	1907	-11176	-120	-7592	-732	-1538	740	130	134	1
-11268	-5188	10928	-176	433	501	-15340	236	-4160	-4978	2677	-80	-12976	-368	3032	-293	2208	-172	-12264	10564	9732	2463	-24181	32767	-10160	2192	-6760	-2745	-3871	1989	-8864	-576	-8296	-1083	-1263	667	133	127	1
-11280	-4644	11184	95	52	685	-15500	-156	-3596	-7941	3092	-544	-11592	248	8040	345	2235	61	-14836	11648	11504	4189	-25372	32767	-10376	2152	-6848	-2863	-3917	2000	-8360	-1824	-9112	-1487	-905	533	127	128	1
-11144	-4948	11228	371	-136	874	-15792	-748	-2696	-6596	3173	-399	-11392	368	7440	435	2261	104	-17584	11348	12384	6782	-27058	32767	-13872	0	-6792	-3203	-4579	2101	-6104	-2376	-9712	-1932	-481	384	129	128	1
-11200	-4800	11336	685	-290	1421	-15404	-380	-1960	-4386	3530	-644	-19384	-5160	-2032	-497	2929	243	-18292	10748	14620	10790	-25479	32767	-16928	760	-6776	-2731	-4834	2250	-4800	-5112	-9576	-2107	19	139	125	130	1
-10928	-4744	11680	696	-59	1625	-15968	128	-2060	-2689	4282	-600	-18248	-5288	-2680	-461	2838	227	-21520	15772	17740	13093	-22312	32767	-20608	3160	-8864	-2379	-5200	2352	-4184	-5664	-7104	-1823	307	30	139	131	1
-11032	-4508	12100	-18	601	1737	-16392	1832	-2840	-4811	5518	-1068	-18216	-1720	856	1396	1616	-19	-32768	21988	21440	13214	-23432	32767	-26392	5904	-16720	-3037	-5292	2443	-5296	-2784	-1536	-1787	-1	-64	145	135	1
-11228	-4184	12012	-704	1444	1525	-16964	600	-2712	-6125	6312	-840	-15896	-1032	5704	670	1840	67	-32768	18912	19788	10499	-25815	32767	-27816	3728	-14360	-3298	-5271	2420	-8640	1792	3688	-1959	-461	32	138	135	1
-11104	-5180	11716	-903	2246	1911	-16856	-1344	152	-5665	7359	-255	-15800	-800	5992	472	1871	103	-32768	11272	14584	8252	-22971	32767	-26480	4936	-13264	-2321	-5152	2344	-17472	3408	11704	-2103	-1360	520	130	133	1
-11128	-5368	11452	-371	2853	2754	-14600	-1464	3768	-5470	10170	179	-17832	720	6352	-218	1534	-136	-32768	-1764	6948	5698	-17905	32767	-24152	-4512	-13480	-879	-4374	2323	-26384	-1472	28160	-2834	-1466	593	132	135	1
-11268	-4956	12572	350	4283	3250	-16292	-2132	2720	1098	13440	428	-18504	-1480	9616	-452	1066	-367	-32768	-32328	-5020	12110	-14192	26652	-8352	536	-14656	226	-2668	1475	-13168	1256	32767	-1181	-582	207	127	129	1
-11448	-4672	13820	713	6695	4155	-18040	388	-544	2269	16084	673	-17176	-4928	4896	-1072	1051	-33	-32768	-32768	-10524	25700	-7545	6627	-1328	8320	-7456	2476	-479	310	-20712	-5520	32767	1116	-725	-416	128	148	1
-12036	-5260	14616	1152	9981	4991	-18848	-2688	-2088	4070	18168	1741	-18808	-9264	-312	-721	951	213	-32768	-32768	-10564	22609	-5804	1460	-10032	7416	-15864	923	1848	-762	-20560	2256	13000	2822	-2102	-403	125	129	1
-12428	-7152	14836	952	13787	7508	-20292	-1476	-3548	4129	19841	1715	-19448	-3936	-264	-524	393	101	-32768	-8664	2752	-19994	-2303	-27052	-15376	2328	-17448	-410	3631	-1633	-10296	5672	3104	2103	-1122	-113	125	157	1
-11768	-6340	15500	-362	18257	10096	-21048	2400	-4096	537	21461	1149	-19464	40	2984	-665	149	-5	10852	32767	11296	-20545	9405	-23445	-32768	4592	20584	1429	2694	-815	-9128	1400	-3896	1849	328	620	127	139	1
-11728	-3312	16880	-864	24288	11937	-22380	3312	-3624	536	22686	1490	-20840	-1888	5544	-614	233	46	1680	3252	4468	-24909	10239	-29394	-21392	4872	4856	2098	2075	-448	-18408	-4416	17144	-1658	-454	714	126	131	1
-10960	-4548	18604	-421	32767	14096	-25780	5700	-2460	3702	23734	2207	-23440	-2952	8184	-511	82	165	-32768	4140	30548	-12878	32767	-18089	-32768	11336	-13720	-1859	3653	-1800	-20376	20760	11624	-2656	232	510	124	117	1
-9704	-7804	19288	1662	32767	20464	-30852	7504	668	2229	24414	1724	-26568	-3168	14248	-362	-452	418	-11960	-368	19872	-4577	15518	-19605	-16464	-3696	-10576	-2905	3992	-1742	-25296	12016	10880	-2482	370	192	130	118	1
-18732	-12728	18456	-1456	32767	25713	-32768	6964	9116	-11862	27302	453	-27376	672	21320	-2204	-3481	1113	-22540	14304	976	-12874	6905	-16300	-5200	7024	-18144	710	2352	-203	-4224	-12240	-17264	2451	647	769	128	111	1
-32768	-7736	16704	-8056	32767	29358	-30584	-3016	72	-14640	32202	-556	-17720	2648	2192	-2808	-3171	991	-18276	3480	13500	-10254	-1170	-11456	-16848	1776	-15152	970	1726	-11	-4744	-1576	-16152	2807	157	722	127	130	1
-32768	-6344	14012	-16047	32767	20895	-27720	-6468	-4944	-12262	31729	5181	-24792	-6752	-4560	-1152	-2354	-65	-11504	848	16468	-4694	126	-4374	-21616	-392	-11728	545	1717	-300	-25584	6016	-5152	490	1321	328	121	125	1
-32768	-19484	16216	-25647	32767	14618	-23124	-3896	-3968	14015	26258	8999	-28312	-9880	-18880	-606	-2485	-787	-9628	9056	10860	-3021	141	-2011	-15128	3152	-8080	2207	925	-39	-17224	904	-2432	414	1441	18	119	114	1
-18968	-24932	16364	-16410	32767	27516	-15292	-5448	-21388	13014	21966	7990	-28656	3888	-7288	1039	-3174	-1002	-8944	7848	11296	-2460	187	-1938	-14632	5592	-6368	2188	611	-70	-15816	2648	-856	563	1563	-78	121	114	1
-23232	-32452	18292	-873	-7137	3112	-15632	1668	-17832	8943	9484	2474	-30312	3832	-3536	2116	-3386	-867	-9368	7744	11120	-1958	818	-1975	-14320	11592	-6376	1008	786	-48	-17080	3464	-704	404	1532	-85	157	125	1
-2180	-21256	15188	20385	-24594	3131	-9588	1144	-5048	3115	-1489	2225	-27976	3616	-4096	1186	-3037	-1137	-9364	8296	10864	-1542	1508	-1642	-14048	12808	-6840	584	858	-101	-17864	3872	-112	10	1585	-346	140	142	1
4364	-5260	11484	21521	-23757	3193	-3292	-164	-4192	3142	-8655	345	-23592	1152	-3968	-101	-2824	-1071	-9476	7988	11500	-853	2274	-1171	-16880	2056	-7264	-1050	808	-279	-18152	3432	-816	-480	1701	-487	128	124	1
580	-572	9948	11167	-23004	-3642	-4116	304	-7328	8059	-14699	1037	-19920	80	-5688	-858	-2401	-967	-9540	7412	10988	-121	2634	-661	-16272	2640	-7056	251	456	-68	-17048	936	176	-518	1771	-557	125	124	1
-4180	-3280	9720	604	-26242	-11616	-3944	2068	-8600	5287	-19574	1936	-18240	456	-6640	-301	-1979	-494	-9904	8032	10780	478	2588	-475	-16168	2688	-6776	407	401	-41	-16672	552	1048	-431	1849	-272	134	129	1
-6200	-8316	9180	-1287	-30763	-16502	-4648	1228	-8104	187	-25293	3916	-16392	392	-7056	191	-2144	-681	-9852	7324	10904	690	2479	-596	-14976	6624	-4936	818	148	68	-16016	888	2256	-310	1915	-178	131	129	1
-9068	-8828	9124	2506	-32768	-18670	-5508	1268	-7772	-1409	-30450	3351	-14488	1448	-7056	491	-1982	-490	-9860	7288	10892	729	2505	-581	-14936	6704	-3528	175	343	-29	-16016	1136	2816	-203	1881	-300	126	132	1
-11144	-6752	9376	5738	-32768	-22020	-6188	1532	-7484	-2964	-32768	3106	-11744	1000	-8056	669	-1786	-401	-9768	7728	10732	959	2694	-711	-14888	6280	-3624	-48	476	-97	-15288	2400	2416	73	1907	-388	91	135	1
-12804	-5508	10288	6228	-32768	-24937	-7504	320	-7444	-1034	-32768	3666	-10280	1408	-8544	704	-1518	-406	-9660	8672	9840	699	2273	-1209	-14376	6048	-4568	218	449	-84	-14288	3792	1928	192	1943	-277	132	116	1
-15296	-5200	11800	4840	-32768	-26341	-9856	-944	-8236	3741	-32768	3738	-8696	664	-10168	1096	-1411	-462	-10116	8116	9868	206	2189	-1545	-14040	5816	-4576	513	403	-73	-15344	2432	1256	214	2084	-184	128	120	1
-18448	-5836	13296	2740	-32768	-26659	-10772	-1752	-9336	9501	-32768	5165	-6920	32	-10736	1975	-1041	-225	-10144	7428	10412	-106	1959	-1583	-14240	5872	-4608	516	412	-66	-14632	2712	64	299	2279	-202	128	130	1
-21912	-6372	14960	12	-32768	-26520	-10684	-1544	-9408	10034	-32768	5563	-5248	1256	-12120	2644	-298	-228	-10172	7728	10236	-337	1818	-1711	-15344	4848	-4904	330	533	-133	-15928	2848	1920	-20	2640	-141	124	139	1
-23144	-5600	16884	-3800	-32768	-26578	-16324	1100	-9816	8691	-32768	10016	-4088	3744	-10576	2563	372	-181	-10236	7724	10428	-209	2132	-2062	-16248	4584	-4672	606	480	-92	-13616	-1584	6328	-1069	2897	-106	127	133	1
-30544	-8868	22348	-6402	-32768	-26744	-21912	72	-10564	6015	-32768	14292	-4480	3088	-5720	2034	465	34	-10548	7164	10660	112	2604	-2373	-16248	4880	-3752	780	499	-65	-13088	-1512	2240	-884	3039	-142	128	128	1
-32768	-17780	25976	-4443	-32768	-28346	-31912	724	-11328	-2257	-32768	15424	-5928	-3336	-1424	1492	77	132	-10132	6556	11080	417	3015	-2251	-13776	6536	-2656	784	662	-112	-17840	2192	-1728	6	2262	-135	128	133	1
-32768	-17096	15096	1284	-32768	-30555	-29368	1592	-12744	-8342	-32768	13097	-14728	-5856	6128	892	-497	5	-10440	8560	10304	-5	3667	-2849	-14952	7560	-2248	614	909	-219	-19568	5144	1056	-542	1547	-201	115	135	1
-32768	-7192	-996	3578	-32768	-26199	-21116	-1120	-15988	-9292	-32768	6264	-29352	272	24552	2256	-1882	-852	-10604	9392	10692	-504	4574	-4891	-15744	8328	-1808	904	1028	-370	-16072	5408	9624	-94	1620	-66	146	129	1
-32768	15848	-16988	-5909	-32392	-23385	-16964	3340	-17976	-19243	-32193	303	-18352	10760	32767	2154	-344	-341	-10852	8568	11580	-1346	5990	-6705	-15352	7912	-1288	1083	1262	-540	-16248	720	5872	1019	1671	22	127	133	1
-32768	29816	-32768	-17025	-16746	-12531	-12872	3072	-14784	-23738	-27179	-1976	-10488	12920	32767	-622	-813	1161	-11020	7896	13380	-1984	8276	-8055	-16472	9536	-2600	835	1631	-812	-18928	6432	2752	653	1130	139	116	133	1
-32768	12928	-28928	-1940	-1384	12599	-4484	-7796	-12916	-791	12142	-853	-21792	-8	14952	-2369	-1344	581	-11816	10408	13112	-1995	10953	-10640	-18856	8528	-3864	698	1939	-1038	-19192	6744	3192	706	681	19	136	135	1
-32768	-3040	-11944	16880	14688	30189	-14376	-3860	-14748	7216	23418	-4257	-12344	-3184	10056	-2053	-895	-218	-11760	12032	13208	-1124	13951	-15366	-20560	6768	-4344	1197	1988	-1038	-19768	1808	3424	944	326	1	134	134	1
-22728	-5964	22000	7678	18132	27479	-25200	736	18920	26236	25346	-3421	-12192	1848	3552	-1738	131	14	-11428	11156	15308	-1085	17819	-20152	-23768	6528	-5760	1508	2020	-1067	-23424	2824	4816	899	145	68	136	133	1
-3928	708	16844	3560	32767	15208	-32768	15076	-6428	32767	16987	69	-26448	4816	32767	100	-1054	-212	-12384	12496	16648	-1451	23826	-26081	-27960	8312	-3432	1458	2122	-1168	-26096	7432	12104	641	-250	79	140	136	1
-32768	-3356	29288	7766	32767	7871	-31692	3560	-15856	26971	24695	-2917	-23792	-17024	-9536	-998	118	-684	-11896	16164	18208	95	31240	-32768	-32768	12096	5496	1994	2120	-1183	-27720	8400	13496	558	-435	69	151	137	1
-8292	-10856	13864	2632	18643	10781	-7404	6288	-7488	1990	25479	-8164	-12288	20088	-28808	-1133	2582	535	-24824	20888	18228	1464	32767	-32768	-32768	17104	6496	3094	2207	-1241	-24680	-4504	17512	2367	-3228	-625	152	130	1
-29008	-3624	6468	11357	9843	17164	-9064	-19876	-15044	-8541	20658	-12913	-3816	-3168	-8408	-2525	-1007	-264	-26796	22648	17656	9235	32767	-32768	-29000	19024	-2448	3155	2363	-1609	-22872	512	6528	1409	-3006	-516	114	127	1
-15656	-4480	14424	8448	-856	9355	-19428	-2812	-12444	17515	10491	-9796	-27160	-12776	-10216	-503	986	-1	-32396	24836	13516	7737	32303	-32768	-21664	13208	-2328	3430	2074	-1684	-26336	6928	-9328	1228	-2544	319	124	136	1
-12436	-1584	13044	3231	-403	2390	-19584	6276	-10836	-1593	11430	-4823	-20040	2048	-4720	157	1361	-194	-16880	32572	12816	7285	20854	-32768	-17448	7128	-10760	1578	2379	-1232	-30352	2360	-11432	363	-3113	674	141	128	1
-10732	-5696	12228	3507	-1841	3206	-12628	-728	-6880	-16089	12034	-6664	-18536	-128	-1976	-299	1560	7	-32768	17740	13100	809	7002	-32768	-14232	2584	-23136	-491	1923	-1001	-28952	-7912	-4648	-586	-3400	573	123	126	1
-10740	-2948	13164	1813	1062	2105	-17628	-816	-7560	-15045	10221	-5455	-18336	-1088	-1408	-577	1354	188	-13076	30588	9400	1562	-20680	-1380	-14408	-2528	-9944	140	490	-117	-28496	-6656	-3992	-6	-3176	623	116	137	1
-11180	-2776	12724	74	1918	381	-19220	-3484	-7456	-6018	7752	-4409	-18512	-1984	-1120	-289	1771	269	8100	20604	4848	-7003	-20441	5412	-9664	-3032	-1128	1845	-948	673	-26560	-2080	-3872	950	-2910	1082	135	184	1
-11524	-3188	12232	-304	1403	-53	-17004	-1848	-8436	-2010	4659	-3499	-19024	-2424	-2968	77	1907	394	6984	9132	4620	-6698	-12120	9316	-6056	-704	-3136	1112	-1430	1055	-21600	1392	-4912	1549	-2495	1248	132	134	1
-11476	-3400	12404	-398	1331	-662	-16960	272	-6944	-6917	3187	-2079	-17816	-2880	-2424	390	1843	432	1848	4220	7004	3752	-6225	18953	-5384	-744	-4032	-712	-1558	1219	-18712	1816	-6584	1286	-2199	1169	130	142	1
-11492	-3956	12108	-646	1519	-871	-15464	196	-5828	-10100	3069	-1758	-16984	-1440	-840	613	1793	391	-3796	9652	7988	10483	-6284	29523	-6240	-2696	-6688	-1662	-1929	1407	-15768	-360	-6992	800	-1954	901	131	136	1
-11304	-4084	11900	-758	1122	-574	-16076	180	-4484	-12315	2572	-1570	-15448	-592	744	640	1826	389	-7744	13832	8728	5515	-11384	32767	-6144	-1896	-6064	-1658	-2595	1761	-14088	-1256	-6624	504	-1867	875	126	125	1
-11328	-3984	11788	-931	1049	-315	-15560	-332	-3236	-11146	2708	-2164	-14496	-1296	1320	642	1975	397	-9520	10472	10260	-1732	-17128	32767	-7104	-768	-5360	-1920	-3099	1968	-12472	-608	-7360	367	-1586	794	129	137	1
-11308	-3824	11624	-855	957	-251	-15480	-1380	-1820	-5922	2430	-2022	-15912	-48	1032	332	1927	381	-10532	6800	11792	-2574	-21485	32767	-8304	448	-4824	-2502	-3458	2078	-9120	24	-8304	53	-1321	814	128	130	1
-11184	-3956	11436	-421	797	-164	-14840	-1052	-1720	-820	2806	-993	-13488	-464	1216	-56	2298	-112	-12208	6580	13004	561	-24575	32767	-10296	1280	-5392	-3306	-3728	2041	-8968	32	-8768	-548	-1003	708	128	131	1
-11248	-4508	11284	127	392	-18	-14668	-44	-3068	-10	3197	-640	-14624	-912	4192	-170	2118	-84	-14856	8892	14196	3239	-27056	32767	-11920	496	-7072	-4061	-4005	1933	-6944	-1088	-10536	-1470	-774	588	134	132	1
-11184	-4288	11488	104	161	653	-15620	1752	-3568	-5704	3846	-1233	-13848	992	7288	31	2196	-88	-17880	9428	14884	5277	-29985	32767	-14224	-1184	-7616	-4112	-4547	1870	-5952	-2240	-11536	-2572	-455	415	131	128	1
-11308	-3728	11716	314	35	880	-15716	-28	-3824	-7866	4442	-1703	-12928	888	6744	463	2795	12	-19392	9352	16892	8970	-30057	32767	-17440	-536	-7744	-3551	-4906	1794	-4944	-4752	-11632	-3213	11	101	130	130	1
-11200	-3816	11792	377	145	943	-16428	-244	-3552	-5318	4561	-1396	-18888	-4504	-304	-502	3264	186	-21572	13688	19872	12328	-27059	32767	-22224	528	-9040	-2479	-5537	1829	-4552	-5992	-8400	-3047	216	-73	129	132	1
-10996	-3744	12216	-40	589	1039	-16780	908	-3268	-4778	4798	-1140	-19432	-4360	-4584	-286	2503	128	-32768	25292	23164	12133	-26968	32767	-28944	6104	-17848	-2445	-5841	2122	-5928	-3264	-2008	-2948	-159	-195	157	130	1
-10968	-4040	12200	-386	1108	1408	-16268	596	-3220	-7749	5886	-1303	-17744	-1872	-1824	939	1703	-6	-32768	16512	22604	13396	-28001	32767	-27984	5808	-14640	-2289	-5916	2123	-10392	-240	3560	-2772	-684	-216	140	128	1
-11240	-4364	11648	-598	1577	1870	-16216	-316	-972	-8778	6981	-876	-14456	-1848	7328	547	1868	-99	-32768	18176	8744	8947	-26099	32767	-26512	6712	-10784	-1935	-5957	2080	-17896	-1696	12912	-2433	-1640	317	139	132	1
-11076	-4424	11668	-415	1981	2264	-14412	-592	2948	-8038	9143	-237	-14904	776	10912	-802	1676	27	-32768	-2836	2456	6364	-17514	32767	-21048	6592	-14592	-1644	-4318	1961	-19472	-4648	32767	-1596	-1856	-512	129	135	1
-10960	-4808	12668	279	3129	2912	-14284	-1024	3476	-7349	9555	-235	-18880	-320	7552	-483	1408	-136	-32768	-32768	-8344	13860	-9271	28755	-6960	3504	-8792	110	-2315	1223	-12584	-680	32767	-1856	-695	-288	127	155	1
-11212	-3772	14184	705	5651	3159	-18380	-1184	1548	4182	15639	870	-19328	-9544	6800	-459	1102	-50	-32768	-29404	-12488	9391	-2045	4061	-328	12520	-10864	819	338	59	-25696	-1608	30056	466	-890	84	128	144	1
-11468	-5776	15224	1043	8890	4556	-19588	-3172	-1036	5929	18070	1564	-19480	-9320	2992	-498	803	213	-32768	-8732	-4404	-21963	-3354	-24820	-10760	6672	-16680	-1152	2495	-1185	-18064	3360	12656	1627	-1982	311	124	146	1
-12544	-8332	15764	1942	12809	9122	-20884	-1768	-2720	3699	20358	1400	-20384	-3704	1648	-599	353	165	-32768	-10692	3924	-22643	1171	-21816	-15784	752	-18768	-1622	3869	-1738	-11176	1472	2720	1890	-971	404	127	137	1
-13608	-5068	16888	1208	17812	13427	-22508	3572	-4332	-369	22370	556	-21120	768	3576	-761	13	-44	-13436	32767	10132	-11591	7667	-25479	-30312	4312	23120	954	2836	-525	-16616	-7576	-560	2260	-119	772	130	133	1
-12360	-2800	18600	1212	24948	14393	-24664	5236	-4940	732	23436	1357	-22232	528	5928	-811	-44	44	-4768	-8572	15184	-13334	18823	-27565	-28960	-5528	1488	2729	2277	-464	-17952	-16560	32312	-1570	-1527	387	127	139	1
-11484	-3104	18860	1324	32767	15931	-25720	6044	-3924	3696	24349	1548	-23168	-768	10864	-638	-173	254	-32768	5088	28348	-6368	31799	-16051	-25912	9768	-12808	764	3142	-1143	-12336	4232	-592	1605	998	-328	128	109	1
-9820	-6308	21308	1139	32767	23003	-30848	5972	2440	-1199	25338	907	-23744	-1880	18384	-705	-991	557	-8580	3644	14860	738	16167	-19052	-16080	-3912	-9896	-268	3200	-1141	-25672	-6432	-13248	3207	1828	-1291	126	152	1
-11508	-19088	20388	2948	32767	28225	-32768	9068	13324	-13750	27834	493	-27136	456	16784	-3457	-3976	1044	-25212	8060	-1632	-9375	1545	-13227	-14424	-3920	-10464	-109	3042	-1104	-3600	1968	-14880	1538	68	532	130	105	1
-32768	-372	12908	-4217	32767	32767	-27484	-5212	-2488	-13494	30694	-919	-21576	2224	10864	-1921	-2571	696	-16680	6288	12148	-8573	-1218	-8712	-16440	4968	-13232	-232	2087	-198	-23952	13600	-8664	1657	1459	376	126	127	1
-32768	-4172	10200	-19191	32767	22395	-25948	-3948	-6908	-29404	31236	3447	-26200	-9720	-6728	-1322	-2214	137	-11236	4704	12904	-3982	1025	-2563	-19640	-352	-11312	-1159	2194	-555	-21848	4488	-1904	-852	1414	187	110	130	1
-32768	-3608	11204	-21016	32767	20590	-21604	-5828	-3832	8432	24561	7079	-29208	-7072	-21304	-1270	-2285	-530	-9960	8892	10980	-2420	1012	-1277	-15416	472	-6976	639	1489	-181	-16808	-4320	616	-374	1485	-51	129	138	1
-23380	-26944	15020	-15587	32767	32125	-13140	-8040	-22968	8993	19886	6837	-29032	4584	-6808	837	-2976	-1027	-9100	7360	11432	-1490	1298	-1070	-16296	2064	-7624	1776	958	31	-15536	-2936	-16	520	1420	38	126	124	1
-27696	-32052	16660	1885	-8979	6044	-14744	1612	-22312	9525	7313	-422	-30248	1920	-3680	2205	-3348	-1030	-9436	7592	10924	-632	1607	-1176	-16248	5080	-8200	2169	616	245	-17264	824	-1960	863	1363	-10	154	128	1
-5432	-21492	14004	21127	-28177	798	-9600	1388	-4332	7803	-3450	1456	-27632	2656	-4056	1108	-2847	-1430	-9280	9460	11124	409	2246	-639	-14936	9832	-7576	601	728	106	-19056	5288	-1800	705	1389	-361	143	138	1
3084	-5844	10384	21718	-27644	-3627	-2608	-1968	-4796	8317	-10264	-372	-22616	888	-4272	-341	-2630	-1436	-9676	7472	11116	603	2902	-87	-16416	6536	-8280	-861	802	-76	-18896	6712	-1440	-40	1622	-565	142	137	1
836	-1212	8308	11741	-26645	-12408	-4356	112	-7172	12754	-16765	699	-18480	-1016	-5840	-1099	-2158	-1299	-9760	8264	10624	1514	3046	368	-16880	2792	-7088	-419	593	-48	-17984	2856	-424	-618	1810	-640	122	127	1
-3784	-4308	8288	2309	-27528	-19492	-3160	1760	-7412	10903	-21552	2329	-18208	-1064	-6160	-1089	-2116	-1247	-9868	8536	10552	1845	2974	36	-16824	2888	-7200	-268	539	-25	-17096	-216	1784	-488	1885	-384	134	124	1
-7756	-8908	8492	1221	-30928	-22469	-4312	-204	-8268	7536	-27076	2942	-15688	-720	-7160	365	-1767	-904	-10004	8248	10424	2033	2614	-218	-15360	5720	-5016	1005	97	224	-15328	512	2864	-176	1931	-132	122	130	1
-11260	-8420	8756	5883	-32768	-23788	-6128	920	-7832	4621	-31996	3230	-13816	1088	-7360	754	-1726	-747	-9968	8264	10248	2124	2498	-444	-14656	7368	-3856	654	183	171	-15456	2720	3168	8	1920	-188	136	127	1
-12228	-4864	9344	7569	-32768	-26449	-7452	1860	-7740	2181	-32768	3538	-11800	776	-7872	1283	-1439	-646	-10000	8188	10020	1933	2323	-737	-14032	7768	-3376	59	419	45	-14296	3512	3048	43	1924	-375	130	125	1
-13516	-3160	10780	5994	-32768	-28733	-8968	332	-7360	3597	-32768	4479	-10704	1344	-8936	1793	-1317	-582	-10028	8600	9592	1445	2198	-982	-14464	6584	-3552	-42	524	-58	-14168	4768	2608	-87	1943	-281	132	123	1
-15956	-4596	12236	4176	-32768	-28447	-11660	-812	-8244	7813	-32768	4733	-9656	1544	-10056	2302	-1243	-667	-10204	8568	9376	821	1806	-1312	-13696	6136	-4352	310	479	-45	-14784	2960	2720	-133	1983	-167	123	127	1
-19472	-5316	14244	2545	-32768	-26292	-12068	-1084	-9592	12117	-32768	6787	-6784	1016	-9400	2503	-980	-650	-10192	8132	9504	116	1450	-1440	-13960	6152	-3896	471	481	-57	-14232	2656	1184	-75	2016	-116	130	128	1
-20044	-5368	14528	2139	-32768	-25897	-12880	108	-9872	11227	-32768	8657	-5128	1488	-10048	2739	-160	-618	-10228	7836	9764	-357	1462	-1240	-13976	6280	-4064	359	572	-112	-14384	3648	2696	-110	2248	17	127	128	1
-25364	-5688	18680	-3707	-32768	-25416	-18336	1888	-10020	6197	-32768	10808	-3952	4512	-8736	2493	419	-388	-10048	8672	9596	-812	1619	-1537	-14800	5952	-3592	281	690	-140	-14200	912	6120	-586	2509	71	125	130	1
-32768	-10020	21724	-4411	-32768	-26466	-22852	-884	-11564	4751	-32768	13250	-5128	4000	-4696	1888	459	-229	-10108	8468	9744	-1152	1802	-2202	-15224	4912	-5168	324	751	-134	-13872	-1048	2664	-657	2618	-117	126	125	1
-32768	-17188	24764	-2410	-32768	-27990	-30904	732	-12892	-1672	-32768	13498	-6312	384	0	1429	22	-73	-10656	7220	10080	-1153	1998	-2306	-15352	4536	-4936	355	740	-135	-16912	2608	-2824	339	2271	-148	126	133	1
-32768	-10664	15344	-624	-32768	-29875	-27708	2816	-13164	-11983	-32768	10203	-14304	-1320	8184	1168	-525	6	-10340	8696	10420	-603	2618	-2733	-16712	5688	-4912	677	802	-111	-18072	2808	-3720	377	2165	-175	129	133	1
-32768	-4956	1048	-3995	-32768	-27204	-21680	2592	-14888	-20078	-32768	3248	-27584	4656	22600	1964	-1565	-807	-10668	8052	10672	-328	3592	-3792	-15624	7016	-3488	988	878	-158	-15288	2184	5776	-164	1877	-25	148	135	1
-32768	23992	-15992	-18331	-32768	-18413	-17024	-880	-14864	-31801	-30368	-4732	-17824	8880	32767	554	-263	-158	-10752	8852	10816	-921	5051	-4887	-14472	8712	-2432	835	1159	-337	-15080	4032	5264	587	1880	-19	152	128	1
-32768	32767	-32768	-30844	-17814	-9257	276	-10968	-4576	-23084	-6660	-2493	-14384	2912	32767	-1053	-1054	880	-10936	9120	12428	-1673	7322	-6124	-16384	10568	-3168	436	1541	-632	-19064	9264	3440	199	1568	103	116	132	1
-32768	7808	-29104	2205	-1220	21232	-5284	-5316	-12572	353	13270	-1431	-22128	896	15928	-2716	-1395	175	-11144	11172	12608	-1539	9662	-8797	-18160	10080	-3320	458	1775	-829	-20352	7240	3000	158	889	8	127	134	1
-32768	11672	-9904	15052	8115	29157	-14816	716	-16808	5544	25048	-2685	-13128	-1768	11352	-2242	-1356	-175	-9624	16328	15468	-27	12039	-12055	-20216	6928	-4464	1032	1857	-801	-20944	176	3304	532	353	38	131	133	1
-13424	-4212	15760	15189	16041	18017	-20080	1700	-3676	9922	30542	-1134	-8768	1424	1600	-1948	-22	148	-11380	10428	14316	441	16210	-17548	-22520	4464	-5752	1486	1904	-824	-21224	-2416	5592	1050	354	95	120	132	1
-6448	-28276	26072	14348	12166	15871	-32768	4284	13284	32767	12791	-2732	-15912	4280	-4648	-1932	897	235	-11228	10068	16504	948	21747	-21088	-26816	4760	-4032	1550	1943	-921	-24880	744	5888	1136	416	52	132	136	1
-3268	24332	12988	8561	32767	13785	-17788	-2544	-13328	32767	20328	80	-19032	-14736	7688	1449	233	-452	-10528	12824	17404	1749	28834	-26545	-29376	6880	-1768	1726	1943	-970	-26472	4920	13880	1123	-164	-2	134	135	1
-32768	-3368	24612	6334	25701	16888	-31144	11712	-12684	32767	20389	-1240	-26824	-4352	12256	1722	395	-583	-11904	17124	17808	1939	32767	-32399	-32768	11704	7664	2662	1835	-998	-26952	4784	20656	1702	-1605	-239	146	133	1
-19048	-18580	15096	6220	25040	7253	-13852	7308	-5792	-1035	22182	-8783	-13448	29720	-18232	-576	2269	602	-30060	17988	16252	7827	32767	-32768	-30568	18792	3088	3504	2141	-1158	-22808	-2344	15808	2657	-3409	-957	150	128	1
-15876	5560	12008	6888	12141	11036	-12432	-8424	-15628	-6346	20214	-10878	-8112	2568	-11864	-3304	-412	-139	-29108	27252	14668	8227	32767	-32768	-24120	22480	-1000	2954	2392	-1379	-21728	4272	2816	1604	-2811	-465	121	131	1
-18248	-4236	12956	5600	3250	7021	-10756	-6396	-13696	-6303	20669	-11686	-9112	-392	-12200	-3266	-308	-90	-32012	21648	13356	5855	32530	-32768	-20152	11808	-6432	1947	2673	-1584	-26264	10896	-12712	620	-2750	425	115	130	1
-12600	-1420	12912	2236	902	1335	-17972	3780	-11400	-9950	12612	-6028	-19840	-3960	-7984	-949	1017	150	-4588	27932	15768	12598	26229	-32768	-19624	5360	-14712	999	2257	-1212	-30168	2496	-6032	-209	-3382	615	125	131	1
-11616	-4196	12004	1089	1434	320	-15876	-4304	-8696	-16540	11710	-6861	-20168	-2712	-5056	-914	1394	265	-32768	22572	11996	16563	-6365	-21512	-12936	1288	-20832	162	1343	-1084	-26952	-4080	-5136	-455	-3110	368	135	128	1
-11352	-4088	12224	40	2298	17	-17060	-5144	-7544	-7146	8532	-4394	-16688	-3440	-1464	-365	1694	555	-4464	30736	8308	4796	-28504	-4541	-12368	2176	-5520	1218	4	-200	-28096	-3056	-3984	52	-2972	607	135	135	1
-11776	-3836	12080	-1091	1936	-499	-17408	-600	-6396	-2147	6394	-3847	-18712	-2272	-1896	17	1794	624	6968	20620	4400	-5475	-27511	-2604	-8368	328	-1824	1653	-1008	351	-25008	688	-3984	777	-2745	928	130	151	1
-11700	-3872	11776	-1303	1937	-910	-17052	-984	-7036	-4637	4900	-3159	-17512	-2528	-1592	260	1789	398	5120	11852	3660	-8340	-20624	1160	-5312	488	-5096	508	-1399	668	-21272	1928	-4976	1157	-2362	1070	131	139	1
-11844	-4896	11408	-1109	1618	-686	-16476	-400	-5588	-13877	4081	-2838	-17064	-2912	-2184	316	1779	448	268	7240	4932	-1129	-16078	13146	-6200	-1032	-6984	-628	-1852	875	-18888	2856	-6328	871	-2063	1150	128	127	1
-11824	-4492	11292	-1108	1324	-631	-16040	-2368	-4676	-13944	3799	-2039	-16344	-3312	-664	487	1716	366	-3772	9376	5516	6674	-14542	26493	-6288	-640	-7424	-1150	-2365	1164	-16856	1928	-7040	219	-1880	1104	129	138	1
-11628	-4580	11380	-1183	1419	-460	-16048	-2520	-3696	-10531	3355	-1512	-15584	-2936	-160	774	1919	286	-7424	14064	5268	5322	-15983	32767	-5640	1112	-7232	-1544	-2887	1476	-15560	1320	-6848	-235	-1770	965	118	129	1
-11656	-4376	11240	-1033	1343	-28	-15984	-2348	-3196	-4934	2869	-1001	-15216	-2648	-768	862	2233	470	-10380	13236	6464	-24	-19075	32767	-6464	2448	-6536	-2216	-3165	1717	-13192	-136	-7568	-408	-1704	904	127	131	1
-11628	-4676	10924	-688	1320	218	-15144	-1824	-3228	-1316	2744	-108	-17192	200	-1496	-138	2108	-145	-12324	11280	7408	-1863	-22730	32767	-8176	2544	-6360	-2817	-3477	1878	-11104	-1640	-7456	-640	-1533	805	132	130	1
-11808	-4500	10844	-356	1006	490	-15080	-392	-5948	-1710	2813	-407	-13736	-1056	1360	-380	2828	-127	-13320	10200	8864	654	-25252	32767	-10096	2176	-6816	-3461	-3746	1983	-7328	-2592	-7568	-1033	-1418	593	129	132	1
-11800	-4204	10620	-294	464	596	-15100	-76	-6972	-1860	2682	-589	-13968	-640	2600	-304	2833	-137	-15420	10576	10448	5390	-26413	32767	-11576	1080	-7352	-3789	-4111	2090	-7360	-4448	-8560	-1332	-1114	401	130	125	1
-11700	-3712	11052	-274	441	686	-15516	-596	-4100	-10699	2437	-1511	-13352	2224	5696	101	3545	218	-17160	12472	12132	10320	-26633	32767	-14640	-360	-7912	-3275	-4625	2278	-5640	-4408	-8880	-1585	-716	134	122	127	1
-11524	-4716	10840	-135	-44	828	-15048	-1196	-1796	-8927	2929	-1228	-18192	-3440	-6200	-1036	2836	243	-20396	13220	15032	15211	-25479	32767	-17200	1352	-7944	-2571	-5048	2510	-4416	-4760	-9480	-1715	-125	-95	114	129	1
-11560	-4228	11488	-255	254	1280	-15944	-396	-1668	-6024	3731	-1433	-20704	-4880	-7176	728	1742	-69	-25052	16704	19664	19431	-23773	32767	-21816	3888	-10296	-1885	-5508	2785	-4312	-3952	-7376	-1565	271	-113	145	134	1
-11640	-4196	11664	-765	873	1346	-16724	1108	-2244	-7615	5251	-1569	-16968	-5304	8912	1170	1580	-286	-32664	23920	23444	20544	-24487	32767	-27496	10752	-13264	-2099	-5756	2969	-6272	-88	-2552	-1835	-179	42	140	132	1
-11616	-4096	11548	-979	1618	1388	-16280	-140	-256	-8947	6655	-1024	-14712	-2032	8960	-522	1989	269	-32768	18808	22812	18617	-24006	32767	-29536	6088	-14784	-2429	-5683	2739	-12040	7128	3536	-1670	-889	557	131	134	1
-11620	-4976	11504	-610	2563	1739	-16084	-2632	3044	-5267	8828	-323	-19144	-952	3496	-293	1959	252	-32768	8140	14532	17440	-19814	32767	-25032	5864	-16024	-1431	-5041	2195	-19896	8320	16816	-1674	-1950	1403	132	136	1
-11676	-5404	12244	77	3960	2637	-16384	-3164	3456	560	12287	723	-20024	-3072	8168	92	1319	-230	-32768	336	-520	5252	-15886	32767	-20040	672	-16328	-795	-3825	1990	-27704	472	32480	-3188	-1338	1147	127	146	1
-11976	-5448	13240	630	6204	3844	-18664	-424	888	1934	15150	821	-18232	-832	7264	-711	1013	-262	-32768	-32768	-11200	16327	-10395	26960	-3600	1144	-11120	544	-1962	1343	-9544	-3736	32767	-203	-180	289	128	134	1
-12288	-4492	14264	986	9380	5400	-18228	-272	-1600	1346	17714	1171	-17568	-3672	1256	-1044	1051	44	-32768	-28336	-13608	19911	1885	5001	-3872	7864	-12360	927	923	26	-18872	-3208	29616	1763	-1031	-346	129	137	1
-12468	-4244	14980	883	13677	5858	-20124	-956	-2988	4316	19300	2365	-18976	-7248	-1680	-668	753	103	-32768	-1956	-6040	-22376	2944	-23993	-12376	6384	-16864	-556	3011	-1083	-19032	9432	8368	1788	-1580	92	124	124	1
-12008	-6140	15064	-399	18574	6606	-20768	408	-3736	4561	20736	2384	-20128	-3104	1000	-482	322	96	-21296	-4148	14604	-31089	17225	-26911	-16832	7264	-5992	-1158	4319	-1697	-8160	11472	-1840	219	-272	527	129	143	1
-11764	-5688	15316	-1060	24116	10182	-21368	2120	-3100	1440	22239	1871	-19864	-2064	4560	-656	156	70	8836	32767	18892	-24663	3874	-20171	-32768	3424	22576	781	2181	-358	-15936	-2520	192	-522	749	704	126	135	1
-11984	-5892	17192	-898	32336	13921	-25480	3056	-1168	2851	23201	2497	-23656	-2352	6776	-609	43	62	4244	-32768	31620	-17004	32767	-29960	-29576	-160	-10392	602	2850	-1150	-22416	8016	30760	-3153	-774	317	101	122	1
-10736	-8848	17200	223	32767	20992	-29484	6140	760	1121	24197	1396	-28168	-456	13784	-806	-474	159	-32768	2712	32767	-8576	19828	-24278	-27408	9472	-15312	-1829	3993	-1837	-23056	-14312	4680	-1138	541	-945	135	123	1
-14768	-12892	17724	-4462	32767	27408	-32768	10108	9396	-13144	26269	-614	-26328	4632	28464	-1651	-2512	852	-21700	32767	-10308	-15438	12974	-16002	-4496	8328	-16376	-425	3248	-1130	-14048	-22736	-18128	2971	2389	269	130	143	1
-32768	-4396	14380	-12191	32767	29420	-32348	2576	2308	-14124	32355	-1548	-26232	2048	23152	-3859	-4932	1195	-17000	-5440	14504	-11760	1013	-15643	-9632	1376	-16912	415	2293	-93	-3624	17472	-6792	3425	-699	183	128	124	1
-32768	-7068	15744	-24568	32767	17082	-30204	-7120	-3560	-17356	31880	3299	-23520	-1040	-8064	-2893	-2066	47	-11712	2376	16572	-9013	-250	-7611	-21072	1376	-12176	-181	2064	-333	-28368	10960	-12176	80	1617	557	124	110	1
-32768	-20648	11664	-26558	32767	18955	-24604	-6196	-5208	4489	27943	6390	-30232	-14744	-15712	-1307	-2691	-544	-10048	8208	11428	-4077	1378	-2456	-18088	-1504	-8552	1180	1415	-409	-21760	-4016	-3584	-643	1645	298	119	128	1
-16712	-26152	15816	-14870	32767	32767	-16372	-7768	-20648	10887	24184	5715	-28376	-232	-12208	959	-3244	-1093	-9848	7032	11688	-2812	1312	-2025	-14672	4832	-6808	2506	730	77	-16272	-3344	-512	393	1691	190	115	117	1
-31364	-29968	19316	-751	-6691	11935	-16956	228	-19888	10985	12070	567	-31392	5128	-3968	1977	-3400	-970	-9616	7072	11784	-969	2291	-1584	-16080	7416	-7280	1220	838	20	-16080	-1328	840	554	1558	-109	147	126	1
-6808	-23780	15732	14136	-26362	3747	-12516	2580	-7548	6269	1079	1753	-29424	1992	-4760	1306	-3184	-1079	-9312	8500	10976	396	3239	-1295	-15856	7240	-7168	-437	1111	-150	-18208	1160	-704	711	1523	-391	162	125	1
3524	-8420	12556	16800	-27158	1800	-4588	56	-4272	3301	-7705	-256	-26184	1568	-4336	-7	-3006	-1232	-9792	7972	11032	1073	3820	-920	-17080	3936	-7632	-567	840	-91	-18648	5872	-1408	320	1630	-300	129	131	1
3144	-3348	9544	10041	-24187	-4711	-4536	500	-6980	4543	-14025	428	-21584	-648	-5824	-524	-2509	-1178	-10188	8916	10124	1510	3510	-566	-15608	4504	-7136	502	500	42	-18080	4376	-1384	-90	1712	-610	126	128	1
-2212	-3600	9236	1460	-24640	-12185	-3272	548	-7812	5884	-19323	1455	-17472	-672	-7456	-583	-2421	-1102	-10220	8888	10020	1513	2814	-704	-15424	5704	-6704	1146	210	140	-16488	2088	-232	-255	1757	-367	149	126	1
-6092	-7684	8704	-1843	-29078	-17878	-3988	168	-8772	2995	-25515	2935	-16288	904	-8128	-68	-1985	-757	-9964	8408	10400	1668	2295	-932	-14992	6704	-5920	1036	151	178	-16680	928	1224	-285	1824	-128	125	127	1
-9176	-8656	9132	1143	-32768	-21350	-3676	-24	-8604	-380	-31251	3826	-15112	768	-8248	372	-1914	-744	-9952	8264	10328	1966	2159	-1032	-15096	6824	-5696	964	165	158	-16440	304	1504	-80	1865	-214	123	126	1
-11656	-7364	8540	4398	-32768	-24670	-5080	-212	-7756	-1303	-32768	2836	-10944	208	-9240	594	-1717	-779	-10044	8068	10064	2155	2088	-982	-14720	6320	-4160	155	384	26	-15904	1960	1304	256	1908	-356	129	132	1
-13316	-6432	9276	5409	-32768	-27726	-7208	-700	-7396	632	-32768	3970	-9568	1024	-9688	744	-1277	-545	-10240	8556	9460	1930	2068	-1105	-14088	6544	-4872	294	392	-3	-14560	4264	112	472	2062	-314	139	131	1
-15872	-6260	10712	4758	-32768	-29963	-10084	-2124	-8108	5725	-32768	4952	-8952	152	-11096	1184	-1234	-701	-10280	8572	8788	1128	1636	-1334	-13056	6848	-4664	557	337	-17	-14376	5088	-1176	531	2429	-209	119	135	1
-20456	-8116	12328	4055	-32768	-31784	-11012	-3088	-9520	11622	-32768	6208	-7872	-824	-11976	2343	-1052	-657	-10380	7804	9028	-64	1267	-1152	-13360	5368	-5952	448	403	-56	-13240	3408	2784	69	2698	9	128	130	1
-22844	-9124	13044	3810	-32768	-32115	-13064	-1352	-9036	13389	-32768	8286	-5536	-424	-13248	3486	-346	-736	-10216	7868	9596	-539	1288	-1067	-14680	5728	-3848	473	393	-46	-13432	584	7384	-545	2953	51	125	128	1
-23560	-9268	14592	3383	-32768	-30637	-17860	348	-9064	11746	-32768	10633	-4088	3064	-12176	3640	143	-609	-10288	8348	9512	-720	1517	-1397	-14640	6776	-4504	470	461	-77	-13952	-240	4192	-644	2872	-219	128	124	1
-31796	-10440	19704	2062	-32768	-29384	-22452	-1756	-11244	14215	-32768	14106	-4056	5104	-6480	2937	335	-288	-10148	8688	9516	-1111	1905	-1932	-14272	5904	-2656	592	561	-93	-16728	3648	-3640	376	2143	-215	128	131	1
-32768	-19652	22776	2416	-32768	-30301	-30340	-596	-17424	8145	-32768	15972	-5528	1752	1008	2263	-341	13	-10436	7684	9852	-1218	2265	-2051	-13744	6288	-4152	592	709	-119	-17664	5592	-1144	-688	1553	-230	125	135	1
-32768	-11764	16476	3601	-32768	-25617	-31512	3772	-13524	-8928	-32768	12797	-12624	-2240	8632	1052	-985	212	-10544	8748	9996	-1176	2809	-2554	-15880	8480	-4416	444	875	-213	-17456	6024	4056	-974	1695	-146	117	136	1
-32768	-5020	5028	-4625	-32768	-24591	-20180	-1468	-15280	-19153	-32768	5813	-24704	6304	17520	1672	-1418	-369	-10644	9168	10104	-1422	3301	-3883	-15992	7832	-4616	429	885	-274	-15576	1208	6256	406	1729	-157	142	134	1
-32768	10772	-8696	-17464	-32768	-23129	-20548	3972	-20608	-32768	-32768	-3929	-22768	10984	31712	866	-494	-321	-10604	9316	10944	-2116	4854	-5434	-14976	9392	-1192	1019	1161	-448	-16496	352	5992	655	1545	179	146	132	1
-32768	32636	-30124	-32768	-29071	-19970	-8876	-5596	-7472	-32768	-16383	-5949	-12464	5864	32767	-1043	-1160	777	-10708	8424	13308	-2168	7679	-7072	-18200	9056	-2776	604	1603	-737	-20128	5968	4080	548	1318	306	126	132	1
-32768	16284	-32768	-11672	-9491	4423	184	-9936	-8220	-9728	6952	-220	-22888	-1360	23176	-2306	-1283	247	-11112	9676	13980	-1446	11174	-9586	-19912	7784	-3680	677	1824	-902	-20336	6824	3200	891	952	-22	74	132	1
-32768	9928	-18408	15148	3528	27110	-11432	-4692	-13844	9826	20351	-4622	-12560	-3064	15168	-2033	-1429	-470	-11308	9752	14124	-1190	11768	-9991	-20568	7824	-3720	956	1940	-1007	-20232	2616	1912	659	381	-40	133	135	1
924	3552	19452	18216	9987	15635	-16544	-1788	-12656	21737	31729	-184	-10368	-2144	5648	-1369	-706	-223	-11356	11432	14092	487	18813	-18131	-22256	4960	-5384	1130	2089	-1004	-20392	160	3720	739	205	-46	131	134	1
-3616	-29168	31480	14619	11623	11429	-32400	7640	17764	32767	17162	-903	-16992	4488	-1160	-1476	596	-108	-11560	10700	15668	1024	24284	-21301	-25880	4928	-4128	1356	2079	-1007	-26264	1016	5608	860	205	-87	142	135	1
3180	17796	10836	10956	29672	17203	-19832	2400	-752	32767	17527	-2979	-19272	328	20552	1298	-228	-237	-11604	13788	15396	885	29670	-26065	-28376	6816	-1672	1645	2026	-1034	-26184	3392	13768	747	-422	-125	127	132	1
-32768	1608	30188	8610	32040	12524	-31920	9824	-16332	31393	22836	-1766	-19560	-27120	6168	221	740	-1165	-12956	16844	16008	1533	32767	-32768	-32768	11424	6472	2630	1891	-1038	-23568	3248	22416	1821	-1797	-271	140	132	1
-11340	-9056	13844	1568	20220	13939	-12980	9104	-8080	4493	23426	-8908	-12408	23080	-20832	-296	2076	1105	-30100	17272	16312	9142	32767	-32768	-30464	19160	2992	3576	2196	-1187	-22304	-4200	14200	2817	-3120	-916	183	127	1
-32768	-24152	6908	14347	19631	16293	-12392	-14808	-11316	-9210	19973	-9809	-11200	4200	-4104	-1958	-413	-491	-30288	24964	13968	8654	32767	-32768	-24688	23304	-2656	2858	2367	-1428	-23624	5296	2936	1717	-2797	-339	127	130	1
-14704	-1344	14628	11194	3398	14053	-16212	-7564	-13092	12124	12782	-10763	-22688	-12128	-8792	-1575	1257	-232	-32720	25432	12468	1801	32767	-32768	-20112	11712	-6712	1944	2509	-1614	-26656	13360	-13720	839	-2709	427	119	131	1
-13984	3076	14056	4904	-279	3611	-19248	4612	-12936	2295	11638	-5180	-19328	-3096	-5968	-330	1103	-117	-8020	20104	18704	13807	27783	-32768	-19952	9976	-5416	1906	2477	-1584	-31704	2736	-7232	-426	-3306	719	124	129	1
-11428	-4292	12532	2791	5	1287	-14668	1216	-7916	-13453	11718	-6159	-19920	1408	-4136	-167	1401	156	-32768	21608	11112	22587	-2631	-20920	-14376	-400	-23952	-210	1350	-1278	-29264	-4224	-5880	-760	-3242	454	145	132	1
-10900	-3408	12792	1644	1681	749	-16336	252	-8172	-20097	10460	-6136	-16120	1376	-1032	-596	1602	358	-8188	32767	8736	8267	-30507	-610	-12184	944	-7640	1127	-74	-282	-29504	-6520	-4400	-237	-3104	662	123	153	1
-11180	-2892	12716	-158	2176	-192	-17680	-4512	-6956	-9818	7823	-4230	-18800	-1744	-1224	-455	1572	333	5876	21452	3888	-7207	-31522	1748	-8016	184	-3104	1628	-1166	370	-26440	-1656	-3968	758	-2840	1064	125	140	1
-11688	-3656	12084	-1048	1468	-709	-17872	-4436	-7072	-8010	7383	-4383	-17928	-2760	-2384	-118	1698	366	4104	10572	3948	-10992	-25655	4421	-4848	-264	-5184	554	-1603	765	-21376	920	-4880	1433	-2383	1202	135	141	1
-11216	-4268	11976	-1019	1483	-1175	-17160	-288	-6624	-7776	3224	-2728	-17448	-2880	-2296	259	1761	480	-164	6040	4524	-2891	-21188	14800	-5576	-1296	-6744	-652	-2025	1026	-20240	1368	-5312	1450	-2311	1219	131	135	1
-11512	-4408	11880	-1028	1425	-1357	-15832	-256	-5488	-12887	2939	-2273	-16992	-1568	-616	432	1743	536	-3896	8312	5296	6076	-19575	26495	-6104	-824	-7752	-1185	-2531	1297	-16672	3048	-7504	276	-1876	1082	135	132	1
-11384	-4308	11720	-1300	1128	-1390	-15792	-692	-4024	-16197	2981	-2090	-15672	-1920	464	350	1879	410	-7884	13052	5628	5604	-20789	32767	-5576	848	-6888	-1599	-3041	1629	-14696	1056	-7256	-143	-1741	880	138	136	1
-11296	-4760	11488	-1437	1109	-999	-16268	-1904	-2372	-14357	3124	-2070	-14104	-3304	864	367	1990	412	-9684	12516	6700	600	-23673	32767	-6776	1800	-6248	-2227	-3342	1855	-12384	-536	-8064	-294	-1549	802	109	131	1
-11372	-4424	11308	-1255	1122	-711	-15668	-3236	-1496	-7319	2970	-1558	-15440	-2288	-672	-158	2004	309	-11000	9540	8780	-56	-25252	32767	-8880	2240	-6424	-2844	-3697	2001	-10936	-240	-9104	-723	-1354	784	129	134	1
-11256	-4968	11096	-860	1036	-367	-15232	-2444	-2088	-2269	3122	-407	-13312	-3504	1808	-628	2424	-74	-14100	9676	10956	3478	-25954	32767	-10440	2320	-7960	-3654	-3989	1960	-8832	-808	-9824	-1294	-1059	663	125	127	1
-11428	-4780	10680	-531	584	288	-15248	-64	-4080	-4198	3422	-860	-13512	-1936	5416	-386	2380	-96	-16720	11848	12372	5972	-27418	32767	-12112	1848	-8088	-4123	-4340	1934	-6808	-1480	-11608	-2072	-696	581	133	127	1
-11212	-4844	11364	-300	137	602	-15672	536	-3224	-9726	3859	-1255	-11816	1176	9608	371	2708	67	-18240	11748	13272	8105	-27269	32767	-15768	72	-6680	-3764	-4711	1955	-5176	-3800	-12400	-2803	-191	352	124	131	1
-11488	-4220	11380	21	-4	802	-15816	-1132	-2528	-7838	4259	-1095	-16208	-2312	2656	-212	3259	240	-20308	12240	16452	11574	-24401	32767	-19080	-328	-9256	-3451	-4966	1915	-4248	-7216	-9592	-2919	71	133	124	135	1
-11220	-5272	11168	739	-277	1697	-15728	-1160	-1312	-5678	4611	-1006	-18120	-4880	-3960	-813	2588	257	-27664	21204	21348	13145	-22891	32767	-26056	2400	-14936	-2835	-5544	2289	-4352	-7296	-4688	-2625	-185	-128	128	131	1
-11080	-4568	11360	867	-120	2213	-14568	216	-2232	-1041	5513	-993	-18720	-2408	-2096	936	1726	13	-32768	18016	24484	15024	-25600	32767	-28888	4968	-15248	-2616	-5815	2539	-5656	-3888	688	-2360	-730	-437	138	132	1
-11324	-3764	12144	-108	821	1877	-17524	2124	-3724	-5470	6817	-1472	-16920	-1552	5184	1048	1740	-197	-32768	15444	19792	17987	-24077	32767	-26664	4776	-13984	-2088	-5784	2453	-11216	480	6616	-1765	-1226	-107	146	134	1
-11368	-4204	12020	-816	1847	1731	-17532	544	-1048	-8570	8040	-780	-14496	32	6800	-456	1883	54	-32768	7804	12696	15414	-20804	32767	-23944	1384	-14760	-1185	-5256	2360	-20712	2424	20408	-2035	-2226	641	135	136	1
-11276	-5296	11808	-655	2882	2188	-15288	-2388	2840	-5742	10007	-233	-17328	-544	5192	-472	1733	17	-32768	-9680	2764	11050	-16660	32767	-20984	-688	-22144	-546	-3693	2318	-24008	-4304	32767	-2750	-733	157	126	132	1
-11152	-5216	12724	171	4399	3039	-16072	-2424	2732	1175	13398	273	-18672	-4856	7960	-272	1214	-231	-32768	-32768	-10932	22073	-13566	20133	-2168	400	-8024	2203	-1962	1022	-15760	-9352	32767	351	-739	9	132	135	1
-11636	-4448	14012	828	7008	3635	-18248	-2176	-488	4230	16003	803	-17840	-8872	4840	-665	1075	84	-32768	-15456	-13152	10173	-7466	-10620	-5064	10424	-14800	1546	816	-165	-24600	616	22984	3292	-1761	-197	133	135	1
-12328	-6784	14996	1358	10182	5353	-20212	-3320	-1956	4316	18127	1914	-20464	-7112	144	-610	832	282	-32768	-7612	-208	-20846	-8486	-32768	-14440	3096	-18064	-218	2840	-1220	-16016	5960	8200	3014	-1691	-67	126	137	1
-12752	-7572	15480	770	14536	9495	-21976	-164	-2940	1063	19986	1246	-21184	-832	1360	-668	290	18	-26752	4716	16168	-24163	3280	-27019	-18208	-552	-15352	-300	3973	-1665	-7432	3464	-104	1887	-399	373	129	137	1
-12380	-4628	16200	-135	19591	12789	-21824	3396	-3844	-1715	21642	759	-20608	800	5592	-951	126	-84	10052	32767	16040	-16138	-4050	-23279	-32768	1760	27376	3107	1513	-186	-16408	-4744	1904	1744	195	716	129	128	1
-11740	-2868	18096	-39	27110	13197	-24128	3992	-3116	947	22925	1699	-22280	-1496	6680	-922	199	37	11444	-26168	17308	-14924	26798	-24906	-24192	6488	-6128	2882	2062	-865	-20000	9304	16168	-1054	-169	-133	121	128	1
-10392	-5472	19584	27	32767	16518	-27408	5396	-792	3260	23882	1875	-25032	-4000	10936	-702	-57	264	-32768	7524	30960	-9208	26355	-18729	-26768	12624	-15840	-1749	3746	-1852	-27240	7976	10056	-2594	137	-210	124	128	1
-9840	-10332	18800	437	32767	24120	-32092	9200	4232	-4185	24988	655	-25328	-2440	18928	-918	-967	615	-6364	20468	6756	-3670	15526	-17062	-12160	-2096	-7696	-1812	3440	-1515	-13168	-19376	-14176	2572	2602	-1054	127	143	1
-23740	-12256	18188	-4045	32767	28943	-32768	6156	11316	-19969	29304	-1018	-26696	1248	16720	-3664	-4339	1233	-20396	1544	8428	-12015	2950	-15530	-5256	6072	-20328	726	2108	38	-4160	3544	-9488	2513	-72	769	126	107	1
-32768	-684	15348	-14592	32767	26341	-27764	-7648	-3176	-17101	32191	390	-20520	1224	6336	-2260	-2449	583	-17932	7344	13168	-8820	-927	-8754	-20096	224	-13840	-235	1965	-292	-25136	8632	-9536	1664	1449	52	127	111	1
-32768	-8856	12940	-23250	32767	20330	-27016	-6788	-4396	-24365	30665	5001	-26992	-9864	-11664	-1100	-2483	-73	-11692	4144	13852	-3484	1756	-2536	-20360	-976	-10456	583	1685	-332	-22496	1696	-2096	441	1447	8	123	117	1
-32392	-22480	16000	-26548	32767	19249	-19464	-5560	-1032	17107	23286	7494	-28456	-4944	-18688	-665	-2629	-799	-9252	9624	10112	-2147	1378	-1829	-15160	2096	-7480	2619	811	16	-16192	-320	376	580	1436	-74	129	118	1
-27616	-23244	15384	-24747	32767	21447	-12780	-10544	-24424	9361	19476	6125	-28504	3984	-4408	1229	-3229	-1014	-8836	7824	11592	-1305	1849	-1440	-14744	7440	-5856	2692	541	163	-15248	1456	72	786	1507	-6	127	137	1
-20080	-30460	18684	2676	-19297	3351	-16872	5572	-15532	9050	5218	-751	-30024	1328	-4240	1924	-3294	-949	-9856	8444	10432	-221	2339	-1123	-14576	12064	-7240	360	932	-140	-17232	2632	-456	737	1415	-248	150	124	1
-1156	-17204	14116	18301	-30644	2240	-7980	1676	-4980	6940	-5264	2269	-27696	2152	-4424	803	-2904	-1280	-9680	8172	10976	278	2933	-918	-16320	6200	-9216	-1334	1162	-342	-19544	7008	-1776	328	1477	-505	139	116	1
3368	-4772	10164	16746	-28997	-1764	-2096	-1072	-4664	5809	-11595	-439	-22536	-144	-4752	-351	-2694	-1209	-9772	8856	10416	806	3073	-237	-16512	2848	-7800	-532	728	-216	-18032	5608	-1392	-323	1688	-596	119	133	1
-356	-2172	9048	7205	-27590	-9914	-5096	256	-7492	9701	-17831	423	-19336	-1128	-6712	-770	-2279	-1006	-9864	9032	10328	1338	2813	-117	-16448	2608	-7712	-308	652	-214	-17432	2392	-224	-533	1749	-536	140	133	1
-5344	-6008	8320	236	-29817	-17103	-3308	440	-8200	8614	-23111	2664	-18104	-688	-7680	-117	-1840	-700	-10024	8944	10092	1447	2730	-208	-15552	6216	-6240	1240	39	94	-16656	744	1048	-526	1854	-217	147	130	1
-8436	-9400	8604	935	-32768	-21443	-4676	140	-8640	5100	-28476	3893	-15456	16	-7952	268	-2009	-818	-9868	8616	10208	2004	2197	-470	-15144	6704	-5192	640	156	17	-16304	256	2704	-380	1891	-153	132	136	1
-10332	-8560	8400	5050	-32768	-24070	-6512	1008	-7740	1586	-32768	4126	-13392	936	-7976	692	-1750	-691	-9800	8648	10272	2478	2204	-566	-15328	6120	-4216	18	345	-37	-16320	256	3056	-191	1918	-366	124	130	1
-11472	-5972	8960	6983	-32768	-26905	-6840	480	-7380	704	-32768	4414	-11184	912	-9168	933	-1556	-667	-9892	8616	9744	2725	2136	-640	-15104	5208	-4336	57	381	-54	-14520	2160	2416	23	1943	-418	118	129	1
-14144	-5440	10548	6004	-32768	-29307	-8804	-1256	-7744	3928	-32768	5687	-10968	800	-9168	986	-1512	-644	-9972	8992	9308	2255	1957	-828	-13992	6592	-3720	536	290	3	-14416	4048	1424	64	2028	-317	122	129	1
-18468	-6932	12232	4614	-32768	-30273	-12096	-2144	-9184	9189	-32768	5724	-8160	1072	-10872	1734	-1237	-775	-10004	9220	8996	1546	1688	-1129	-13456	7568	-4112	533	354	-33	-14864	3896	624	-29	2149	-294	132	128	1
-22172	-8000	13412	3313	-32768	-30603	-11768	-2176	-9848	13383	-32768	8421	-6760	-136	-11032	2519	-845	-659	-10048	8576	9112	736	1357	-1208	-13664	5952	-5000	258	478	-123	-14432	3184	312	-163	2415	-232	127	130	1
-23196	-8208	14224	818	-32768	-30161	-14780	-224	-9492	11193	-32768	10034	-4608	1600	-11336	3074	-18	-658	-10204	7984	9160	7	1274	-1001	-13968	4976	-5560	246	519	-141	-13992	1848	2776	-348	2707	-188	130	129	1
-26364	-10684	17772	-19	-32768	-28000	-20396	48	-10584	7369	-32768	11747	-4376	5472	-8432	2884	442	-400	-10028	8872	8916	-609	1306	-1049	-13816	6960	-4824	341	514	-108	-12736	464	5864	-800	2815	-198	126	133	1
-32768	-13884	21344	57	-32768	-27600	-24692	-2136	-12828	4442	-32768	13046	-4344	4488	-2816	2207	252	-200	-10056	8940	8960	-1178	1302	-1611	-14016	6384	-4184	149	647	-166	-14472	1232	-144	-591	2613	-203	126	134	1
-32768	-18372	20808	1884	-32768	-26165	-30744	1476	-12912	-2453	-32768	12845	-6976	-1400	3640	1411	-405	38	-10028	8292	9660	-1420	1566	-1991	-13920	5784	-3512	280	760	-187	-18736	4088	-3672	-589	1851	-116	127	134	1
-32768	-4268	11728	-4676	-32768	-30243	-24980	996	-14380	-18732	-32768	9144	-17832	-2536	14184	775	-1213	-96	-9996	9500	9744	-1286	2264	-2405	-15864	7744	-3056	383	857	-270	-17616	4568	5104	-982	1631	-21	133	128	1
-32768	-2424	-5768	-12180	-32768	-26541	-23164	1028	-13932	-21832	-32768	7943	-26976	8728	24224	941	-1071	-1072	-10284	9408	10368	-1293	3265	-3531	-15520	8648	-2064	637	1029	-371	-15152	608	8448	128	1817	-2	156	129	1
-32768	32180	-19972	-29910	-32768	-17077	-13572	-6684	-12532	-32768	-25869	-9053	-7560	-1616	32767	-1836	-632	257	-10396	10192	11136	-1914	4699	-5246	-15528	9240	-2752	631	1332	-550	-17976	1704	4048	756	1717	108	149	129	1
-32768	27244	-32768	-32768	-17526	-4163	-1744	-11568	-5964	-21470	-1962	-1645	-20656	-4544	32767	-1515	-1222	774	-10684	10140	12764	-2823	7101	-7548	-18120	9656	-4224	523	1621	-792	-19856	7288	1368	492	1273	77	111	132	1
-32768	5040	-27576	3273	-1641	26255	-7032	-2680	-11816	-4134	16415	-4143	-19296	-2088	15064	-2331	-1182	-234	-11200	10900	12972	-2221	10060	-11010	-19416	7256	-4536	779	1766	-908	-20920	3968	824	822	713	22	108	134	1
-32768	8500	-9836	12957	8832	30640	-16552	-2684	-16180	10615	28001	-2841	-11136	-2360	11696	-1367	-1523	-329	-11020	11368	13424	-1052	13516	-15183	-21104	5368	-4936	1187	1795	-910	-20280	-1016	1520	872	314	-12	119	133	1
-17404	-32768	32767	21753	21965	22091	-16456	-2328	-16812	13390	30594	-2149	-9016	176	-2752	-1770	305	74	-10908	10144	15340	130	17884	-17888	-23392	4488	-6368	1405	1851	-916	-24032	896	2640	967	374	-36	121	132	1
-4348	-12708	14612	20799	7467	11437	-31100	-3324	9876	32767	10408	-3348	-22416	-544	-2480	-571	831	-288	-10208	10376	16532	835	24630	-20792	-27352	4640	-3104	1435	1876	-1047	-24816	3400	7576	857	251	-48	151	136	1
-18308	16356	18264	10550	32767	3581	-14576	2424	-14692	32767	20709	6084	-21832	-24592	22576	4726	580	-2067	-9212	12764	16784	-151	31040	-26077	-30280	8960	2640	1846	1825	-1148	-26264	4968	17432	788	-639	-101	84	133	1
-32724	11180	22076	4426	19555	18413	-29828	16592	-18588	32767	20837	-3475	-13552	2896	11384	766	1529	598	-15740	19732	15960	-1858	32767	-32768	-32768	15616	9184	2820	1849	-1231	-25408	3456	23752	2093	-2335	-344	162	134	1
-22088	-30872	14656	7372	24240	7304	-14948	-1384	1940	-6028	20960	-9829	-17040	32767	-22208	417	2028	1515	-28136	18196	17180	2930	32767	-32768	-28824	22696	1800	2804	2428	-1465	-20960	312	10568	2539	-3115	-933	139	127	1
-17708	2360	9036	10482	8615	13638	-9688	-15800	-15648	-4877	18700	-12523	-11288	-3776	-11768	-3708	-601	-761	-28756	25572	14428	100	32767	-32768	-24272	20872	-2808	2045	2492	-1826	-23048	9104	-1208	942	-2743	24	103	131	1
-18048	-4724	13076	7451	1488	8478	-16224	-4936	-12724	4662	12361	-6046	-17000	-9128	-5936	-1538	1110	-178	-30160	24528	11128	-6082	32767	-32768	-23288	18728	-3944	1912	2507	-1878	-25576	8256	-14648	35	-2808	640	105	135	1
-12312	-268	13868	3344	-56	2192	-19352	3772	-10060	-7295	11602	-5971	-22008	-3016	-6976	-1058	1094	-60	4708	22612	18204	4951	29629	-32768	-18672	7264	-13488	302	2331	-1386	-30112	-296	-5488	-832	-3368	672	130	127	1
-10848	-5944	11960	2244	1135	1255	-14808	1048	-7604	-23406	12460	-6919	-18720	-3408	-3168	-963	1392	610	-32768	22580	14592	16540	-4294	-16989	-13032	-344	-22472	-806	1364	-1346	-28136	-3880	-5472	-675	-3165	289	136	130	1
-11108	-3144	12780	1206	1831	776	-17240	-7136	-5964	-14127	9095	-5799	-16544	-3320	-80	-425	1730	498	-5960	31240	9964	6156	-27859	-216	-13080	-728	-5624	984	-244	-299	-28864	-5000	-3808	-138	-3057	545	133	199	1
-11524	-3464	12112	-201	1479	20	-18376	-3932	-6568	40	6827	-3190	-18056	-1648	-872	-193	1815	447	5576	19228	6072	-3220	-29135	2253	-7688	-664	-2128	1817	-1337	344	-25600	-1760	-3280	679	-2829	900	129	138	1
-11036	-3972	12156	-383	1293	-534	-17120	492	-6444	-1276	4661	-3237	-17136	-2768	-1192	141	1822	394	2940	11340	4932	-4856	-25330	5905	-5272	152	-5096	935	-1798	789	-21744	880	-4336	1285	-2447	938	137	136	1
-11608	-4444	11920	-317	1150	-514	-16348	388	-5592	-12082	4311	-2248	-17528	-2440	-1416	236	1795	477	-1888	9208	5208	631	-23736	14955	-5376	96	-6512	-221	-2273	1124	-17944	1880	-6552	1013	-2219	994	124	136	1
-11520	-4648	11772	-445	826	-510	-15648	-1604	-4748	-15548	4342	-2306	-16560	-3040	-720	233	1740	395	-5196	10224	5840	5875	-24160	24732	-6832	480	-7776	-933	-2719	1433	-17192	2712	-6888	406	-2030	872	129	134	1
-11364	-4848	11448	-675	733	-397	-16312	-2680	-3292	-13571	4066	-1612	-15536	-3520	488	468	1857	273	-8036	12336	6700	6178	-25591	32009	-6896	968	-7032	-1387	-3203	1725	-15448	1320	-7232	90	-1873	772	129	130	1
-11240	-4536	11704	-705	1073	-28	-16180	-3076	-2504	-6311	3502	-1273	-13864	-3704	424	628	2021	376	-9832	11820	7632	3677	-27216	32767	-7968	1520	-5952	-1841	-3535	1956	-13024	336	-7896	-57	-1598	738	112	129	1
-11316	-4332	11672	-598	1357	196	-15628	-1888	-2588	-482	3467	-191	-15576	-2128	-280	76	1963	242	-10656	9976	9484	3887	-27870	32767	-9512	2440	-5720	-2366	-3884	2127	-10040	40	-8448	-339	-1379	690	128	130	1
-11280	-4400	11648	-535	1339	242	-15252	-224	-4416	-1880	3817	-320	-13456	-1784	2504	-389	2347	-99	-13016	10288	11248	6425	-27673	32767	-10936	2912	-7136	-3199	-4169	2161	-8424	-632	-9088	-844	-1077	588	130	127	1
-11424	-4228	11252	-214	901	819	-15112	948	-4156	-6874	4127	-1017	-12920	-192	2664	-320	2403	-107	-16200	12004	13224	8923	-27630	32767	-12872	1840	-8080	-3800	-4460	2163	-6760	-896	-10760	-1600	-700	514	129	128	1
-11456	-3932	11344	-85	816	839	-15396	-524	-3988	-6675	4299	-1183	-13080	944	8632	82	2741	104	-19364	12260	14744	11847	-27597	32767	-15888	1120	-7632	-3642	-4812	2172	-4704	-3088	-11920	-2307	-159	334	128	132	1
-11496	-4144	11220	68	786	853	-15536	-472	-3408	-5544	4547	-907	-15584	-472	3896	219	3224	188	-20972	13968	17308	14697	-25082	32767	-19096	1704	-8624	-3359	-5096	2144	-3864	-5312	-10096	-2454	161	237	126	130	1
-11376	-4576	11332	80	860	1135	-15484	-216	-2960	-5111	5131	-1391	-18216	-3760	-4992	-496	2614	84	-28160	24804	20064	13504	-22618	32767	-25952	5344	-14464	-3114	-5481	2347	-4080	-5256	-6112	-2448	-44	31	127	131	1
-11464	-4068	11740	-61	1275	1352	-15968	672	-3428	-5176	5946	-1502	-18928	-2352	-5200	740	1783	-16	-32768	23020	20616	11647	-24005	32767	-27816	7448	-14616	-2993	-5651	2496	-6448	-3328	552	-2548	-635	-201	150	134	1
-11388	-4020	11796	-474	1922	1415	-16476	76	-3044	-6356	6850	-1430	-16152	-4256	4544	1037	1710	-105	-32768	12264	16544	12023	-21655	32767	-25864	4240	-16664	-3058	-5385	2498	-11408	1360	8288	-2396	-1607	7	143	129	1
-11376	-4144	11776	-635	2634	1515	-16392	-648	-688	-7150	8124	-672	-14288	-1128	8304	-498	1699	30	-32768	160	10300	17484	-13529	32767	-24904	-808	-16408	-1618	-4983	2097	-20352	3760	23096	-2224	-2372	383	146	134	1
-11556	-5096	11984	-102	3591	2127	-15324	-2848	1808	-4382	10469	-331	-16824	56	5416	-463	1626	-71	-32768	-13940	-2412	20702	-8561	32767	-14888	408	-25024	-101	-3432	2218	-20800	-3528	32767	-1858	-614	133	123	134	1
-11532	-5656	13148	479	5596	3336	-17644	-1832	840	504	13277	100	-19648	-5376	5728	-436	1284	-161	-32768	-32768	-13676	30917	-9834	22169	-1320	2936	-10728	3124	-1807	1018	-17192	-9464	32767	1303	-712	52	127	147	1
-12032	-4464	14812	938	8784	4252	-19616	-1448	-1544	1153	15939	892	-19376	-7848	3232	-805	1031	82	-32768	-8208	-15372	12516	-5784	-10210	-6120	10936	-15232	2746	935	4	-25520	2608	21288	3675	-1673	-149	131	146	1
-12692	-5884	15320	886	12829	6110	-21580	-1728	-2868	1833	17868	1453	-21056	-5160	216	-711	789	189	-32768	-3472	-3016	-18546	-8186	-32768	-12872	7656	-17720	498	3130	-933	-13520	10376	7232	2910	-1596	245	131	136	1
-11540	-5184	15416	-698	17588	7549	-21728	1272	-3448	113	19262	1688	-20784	-912	1992	-811	392	104	-32768	-3456	4564	-13706	-3559	-32272	-17816	-3872	-20968	-1385	4687	-1638	-7400	11768	-1688	1690	58	1122	131	146	1
-11792	-3776	15748	-1244	23077	9965	-21080	3088	-3408	-958	20893	1480	-19976	-720	5752	-914	280	92	32767	32767	18312	-28878	-1045	-19827	-32768	2456	32767	2746	1326	-804	-11872	416	-1696	31	813	1390	131	134	1
-11596	-4276	17320	-1118	30480	11819	-24388	2312	-1908	192	22343	2228	-22608	-3248	7240	-886	318	111	31228	-30020	10100	-23514	30028	-19983	-16168	6112	-9256	1830	2304	-846	-31488	10624	16056	-3131	87	686	121	140	1
-10596	-8432	17924	-224	32767	18004	-28648	5524	740	1268	23182	2118	-26632	-3568	13112	-758	-92	334	-32768	8748	32767	-13452	32117	-16590	-32648	12032	-17400	-3968	4180	-2066	-22808	4112	20312	-3828	47	-899	134	117	1
-15616	-11704	17084	-922	32767	23898	-32768	7896	7096	-9385	25225	526	-24656	560	25960	-1067	-1457	700	-11736	13732	13488	-1609	13534	-20987	-14064	-7224	-8960	-3528	3955	-1798	-17472	-32768	-12896	980	2669	-1272	123	114	1
-32768	-8308	15480	-8753	32767	29901	-32768	3432	7820	-18488	31557	-63	-26600	-952	20528	-3592	-4665	1147	-25444	10340	4236	-17164	7200	-19204	-5392	5600	-19336	693	1915	481	-4736	-104	-9632	3377	-336	1482	126	121	1
-32768	-7592	17324	-21114	32767	19551	-28728	-8820	-2472	-16159	32388	3046	-22104	-888	-352	-2008	-2378	121	-21284	-4032	11896	-15638	3495	-16937	-20376	184	-16416	160	1773	18	-23264	13736	-9120	2508	1197	-236	129	135	1
-32768	-20520	10220	-27321	32767	18335	-26284	-5616	-2112	-1687	28653	7535	-29216	-10104	-17416	-954	-2607	-478	-12144	724	15776	-5132	936	-4388	-20104	-992	-12304	1679	1319	-46	-25184	6000	-4240	906	1432	113	121	106	1
-6604	-31408	21504	-18556	32767	29165	-16008	-8264	-17692	14299	26246	7587	-30256	-1416	-13664	165	-3082	-965	-9156	10120	10144	-3463	629	-2605	-16136	4064	-7144	3959	389	182	-15144	1952	-192	483	1572	-89	135	115	1
-32768	-32768	22604	-3034	2147	13068	-16572	432	-24484	11085	12444	3396	-31368	4848	-3520	1746	-3441	-872	-8904	7508	11712	-2010	1565	-1593	-14864	5680	-5808	2705	499	-2	-15216	-336	96	367	1633	239	134	126	1
-8632	-26980	17756	15154	-24493	2429	-13884	2568	-7364	5086	984	465	-29144	3520	-4888	1409	-3164	-1033	-9276	6864	11628	-543	2030	-1272	-13744	13296	-6176	421	874	-93	-18472	416	-232	564	1590	63	158	127	1
4080	-9340	14400	19374	-27514	2896	-4820	1008	-3064	1892	-8850	399	-25664	2712	-4040	106	-3083	-1103	-9512	9892	10684	-127	2717	-1082	-16784	6256	-7768	-1956	1308	-291	-17680	2920	-1184	397	1636	-470	127	132	1
3328	-1536	10468	10566	-25532	-3556	-3488	800	-5680	3358	-14308	-733	-24848	2056	-3984	-39	-3078	-1077	-9860	8496	10524	950	3462	-612	-16984	880	-7632	-1531	915	-122	-17544	4496	-1704	-272	1738	-618	110	129	1
-3432	-2884	9584	-696	-26171	-11478	-3592	1012	-7368	4682	-19581	-281	-17056	-536	-6640	-451	-2057	-468	-9772	8256	10724	1645	3438	-75	-16704	640	-7336	667	284	123	-17464	1744	-176	-577	1880	-592	139	133	1
-7792	-8380	8840	-4258	-31437	-17245	-3872	-1136	-8348	1878	-24980	1660	-15296	-1360	-7864	23	-2034	-576	-9904	8884	10164	2045	3057	196	-15232	6224	-5224	1737	-86	368	-15968	336	1256	-458	1973	-144	126	128	1
-9724	-10488	8644	501	-32768	-18909	-6224	-936	-7452	-334	-30583	2576	-14816	-424	-7288	282	-1922	-475	-9852	8668	10308	2173	2799	-30	-14496	8904	-4160	1076	65	233	-16176	1360	1912	-174	1978	-198	131	129	1
-10768	-7504	8320	5029	-32768	-20779	-7396	-392	-7316	262	-32768	2808	-12792	-416	-8760	395	-1682	-611	-9760	8536	10128	2064	2715	-204	-14320	8112	-3176	-74	414	33	-15432	2728	2112	-12	2038	-250	141	125	1
-13160	-5700	9480	5440	-32768	-24078	-7944	-1096	-7468	3688	-32768	3854	-11080	-736	-9736	622	-1471	-661	-9772	8684	9980	2141	2727	-366	-14792	6528	-3680	-326	614	-76	-14912	2944	1688	44	2085	-241	124	122	1
-16540	-6820	11004	4391	-32768	-27425	-10516	-1820	-8636	6819	-32768	5249	-8896	-920	-10800	1119	-1267	-829	-10012	9536	8844	1608	2231	-873	-14096	6184	-4808	483	428	-25	-14504	4776	1872	376	2411	-98	130	121	1
-19260	-8368	12248	4189	-32768	-29072	-11640	-2560	-9724	10423	-32768	6942	-7736	-912	-11048	2152	-990	-623	-10052	8720	9136	784	1606	-1197	-13744	6664	-4248	832	347	18	-14032	3048	2768	133	2624	65	130	129	1
-22752	-9156	14172	3602	-32768	-29360	-12460	-1192	-10132	9081	-32768	9229	-5864	704	-12376	3023	-403	-732	-9996	8372	9592	364	1591	-1295	-14392	7040	-3664	612	491	-30	-14216	856	7800	-920	2678	-58	128	137	1
-24988	-9652	15572	2276	-32768	-30049	-16596	-340	-9684	4469	-32768	10415	-4064	3720	-11504	2965	96	-539	-10084	8416	9628	235	1892	-1426	-14864	6152	-3464	429	638	-108	-14720	1224	3672	-551	2784	-224	132	121	1
-29736	-10692	19168	299	-32768	-30956	-21636	-1332	-10280	7804	-32768	11711	-3456	4576	-8960	2345	390	-257	-9984	9092	9472	24	2312	-1839	-13904	6448	-2672	537	736	-118	-16496	3144	-1984	699	2222	-252	129	127	1
-32768	-16904	23992	-2131	-32768	-32706	-28336	-3176	-19400	13330	-32768	13248	-4440	2656	-3608	2093	214	-30	-10120	8740	9588	-317	2849	-2456	-14488	6512	-3424	575	895	-189	-18568	4328	-760	-506	1564	-177	126	131	1
-32768	-13276	19340	-992	-32768	-31723	-32116	4128	-15868	-3826	-32768	11206	-11080	-2808	9240	1239	-371	239	-10036	8904	9756	-433	3332	-2829	-15448	7480	-4128	643	1020	-280	-16792	5560	4392	-995	1659	-66	109	133	1
-32768	672	2968	-11822	-32768	-32101	-23244	4404	-14988	-28046	-32768	4651	-27384	-3008	18472	1067	-1826	-597	-10440	9264	10180	-922	4300	-3977	-14936	7456	-2960	874	1097	-368	-15320	1392	6592	457	1789	-67	159	136	1
-32768	12352	-14304	-24249	-32768	-23718	-18744	2336	-19160	-32768	-32768	-5495	-27408	12752	32767	1267	-548	-691	-10312	10148	11148	-1470	5933	-5768	-16120	8312	-1896	990	1353	-488	-16440	1032	5056	817	1613	147	130	132	1
-32768	32767	-32768	-32768	-23208	-16575	-16	-11244	-4920	-32768	-10153	-6526	-8472	5144	32767	-1464	-1297	861	-11012	8464	13480	-1249	9123	-7492	-18096	8560	-3616	701	1696	-771	-19952	6528	3176	394	1328	217	118	131	1
-32768	9124	-32768	-8841	-3748	11463	-1244	-9972	-9164	-3779	11707	-307	-24000	3304	20184	-3041	-1473	449	-11100	10004	13804	-158	12754	-9573	-20064	7488	-3736	628	1932	-956	-19848	6384	3096	782	931	-70	128	131	1
-32768	5300	-14376	16740	8787	32767	-15352	-3612	-14160	13239	24542	-4976	-11720	-4544	11976	-2287	-1457	-410	-11440	12104	13156	832	16423	-13681	-20728	6344	-3800	1043	2021	-1001	-20264	656	1960	695	354	-136	133	130	1
-11152	-15204	12236	26718	23119	29584	-23056	204	-4772	28342	30496	-1121	-8496	-4944	2200	-1864	-162	-175	-10848	11316	14120	1871	20585	-17591	-22656	5256	-5248	1375	2120	-975	-21592	32	5680	748	155	-79	120	131	1
5184	-21424	25992	20093	15732	7317	-32768	5696	15820	32767	14899	-255	-21944	1128	-4904	-956	1054	-835	-11228	8352	15168	342	25994	-17595	-27864	6544	-3032	1576	2105	-1068	-25376	3688	10800	916	96	-67	148	132	1
-27748	29188	17564	14282	32767	3534	-24056	3596	-27752	32767	22119	4073	-27536	-19040	29112	4782	-82	-2267	-8684	15836	17296	9	32767	-27061	-32768	9872	2368	1990	2009	-1151	-29488	6256	19896	964	-797	-52	143	134	1
-32768	18148	26960	4831	17059	22262	-24448	10712	-18532	29264	22453	-3239	-12472	7992	-1304	-395	2094	982	-21132	22548	19068	366	32767	-32768	-32768	17024	8576	3375	1947	-1287	-28560	5664	21488	1130	-1057	-77	122	131	1
-18388	-32768	5144	10896	19723	12328	-11872	-888	-4308	-7742	20468	-15442	-18624	27584	-20464	96	2204	1128	-31404	27216	19260	8045	32767	-32768	-29392	26704	-1832	2633	2632	-1488	-22664	1560	4408	2563	-3026	-794	144	130	1
-20048	7684	12608	8446	4694	13909	-10680	-14244	-16872	-447	16920	-13390	-9336	-9336	-8952	-3250	-766	-516	-32768	25880	15272	2777	32767	-32768	-24216	15616	-5016	1589	2817	-1899	-26496	11544	-6160	580	-2818	211	93	136	1
-13400	1656	15824	5251	371	5853	-20420	1500	-12504	2314	12275	-4764	-23576	-7744	-9936	-983	1529	-294	-19548	28376	19576	4230	32767	-32768	-22048	4728	-7064	1113	2544	-1618	-29360	4632	-12600	-28	-3292	609	116	132	1
-11788	-4076	12204	2389	128	1144	-16148	5620	-8100	-19861	12285	-5990	-19704	1120	-7024	-893	1216	-112	-27628	4352	11396	18921	27589	-32768	-16696	2136	-17448	440	1811	-1232	-29600	-4360	-5416	-857	-3418	434	150	129	1
-11128	-4884	12140	2311	-121	962	-15832	-4448	-8692	-25846	12581	-7577	-17352	-4176	-2376	-1106	1792	516	-24300	32767	10304	19625	-19756	-4283	-10024	1504	-13784	682	554	-726	-28632	-9336	-4040	-215	-3229	307	135	130	1
-10952	-3840	12720	875	1452	752	-17436	-7124	-6236	-7695	8338	-4747	-15736	-4224	-352	-249	1833	519	3820	26596	6200	-485	-32768	2154	-10688	416	-1736	2061	-1026	282	-27648	-3832	-3272	780	-3117	696	139	158	1
-11192	-4308	12112	374	1541	64	-17688	-1168	-5832	1945	5530	-3551	-18136	-2216	-1048	229	2026	520	6756	15196	4372	-7452	-30874	1234	-4672	-880	-2712	1913	-1661	807	-23592	-160	-4624	1449	-2774	898	132	142	1
-11648	-3324	12348	37	1268	-349	-17328	780	-5888	-3492	4056	-2226	-17256	-1736	-584	556	1970	410	2472	7000	4700	-3418	-26418	6766	-3160	48	-4960	407	-1993	1201	-17736	1624	-6064	1540	-2341	889	129	139	1
-11760	-5060	11716	-562	1329	-376	-14828	1848	-4728	-12373	4785	-2234	-16224	-1368	-544	427	1861	450	-1608	7020	5296	5604	-24749	17171	-5200	-1352	-5928	-645	-2368	1449	-15688	1984	-7488	989	-2064	901	134	132	1
-11176	-4812	11568	-599	1162	-113	-15572	-1208	-3672	-16154	5085	-2479	-15664	-2408	504	391	1744	323	-4960	9980	5796	10042	-24732	26703	-5888	-1080	-6800	-854	-2944	1810	-14472	832	-7480	458	-1864	701	119	131	1
-11140	-4688	11700	-426	927	154	-15880	-1704	-3496	-15864	5010	-2385	-15360	-3360	864	623	1866	178	-7884	12260	6584	7395	-25934	32763	-5576	176	-6152	-1181	-3346	2107	-12752	-784	-7848	141	-1742	628	126	135	1
-11124	-4392	11696	-35	877	469	-15620	-2808	-2476	-1656	3802	-1038	-12832	-3152	-560	786	2137	308	-9312	10480	8056	4373	-27237	32767	-7680	1376	-5208	-1772	-3638	2329	-10688	-496	-8312	49	-1414	588	132	128	1
-11132	-4200	11564	261	904	643	-15248	-172	-3704	2763	3732	-423	-23664	3600	2080	30	2178	75	-11324	9116	10360	5364	-27385	32767	-9944	2632	-5648	-2433	-3900	2420	-7296	-128	-8816	-156	-1164	528	122	125	1
-11312	-4424	11288	399	755	760	-15508	592	-5052	-502	3633	-335	-12912	264	3512	-341	2409	-223	-14680	10580	12400	8041	-27493	32767	-11352	2800	-7160	-3386	-4095	2395	-7928	-376	-10360	-774	-808	561	132	120	1
-11296	-4364	11600	458	651	1151	-15992	684	-5132	-6016	3850	-1289	-13216	736	6856	-318	2745	44	-16548	11564	13480	9817	-28033	32767	-14760	1248	-6704	-3732	-4485	2389	-6896	-768	-11480	-1790	-501	488	127	128	1
-11184	-3812	11916	186	737	1236	-16712	496	-5296	-7262	3591	-1397	-13208	952	7144	-220	2819	94	-18312	11432	16196	13018	-25560	32767	-17648	1024	-7208	-3708	-4638	2323	-5656	-4560	-10736	-2497	-140	286	130	134	1
-11172	-3884	12016	-348	1139	1022	-17000	1040	-4324	-6431	3391	-1339	-18216	-2888	-4552	-122	3753	175	-22776	16364	19944	14438	-21751	32767	-22568	1088	-8712	-3118	-5168	2300	-4536	-5600	-7992	-2438	-124	129	116	133	1
-11116	-3672	11888	-865	1751	882	-16024	1540	-2288	-7046	4015	-1560	-19064	-1712	-7208	1037	2399	98	-32768	24252	23952	13294	-23315	32767	-28848	4688	-17464	-2855	-5546	2520	-4688	-3200	-2192	-2420	-601	-122	131	133	1
-11220	-4028	11840	-1183	2339	830	-14780	-468	-484	-7682	5733	-1769	-18184	-3104	4984	1041	1754	15	-32768	17824	22544	11816	-24181	32767	-27576	5840	-14784	-2851	-5635	2475	-7776	2256	3112	-2414	-1199	-141	148	131	1
-11352	-5148	11544	-884	2929	1393	-15068	-868	-100	-7684	6030	-1680	-17264	-3856	12656	3	1776	-43	-32768	9608	14244	9554	-20007	32767	-25992	2552	-12600	-2129	-5253	2114	-18176	4792	14448	-2005	-1582	388	141	136	1
-11236	-5676	11996	-530	3696	2508	-15952	-3048	3776	-4223	10823	-482	-17752	-1832	9472	-557	1739	21	-32768	556	1452	1970	-13732	32767	-26152	4912	-18120	-1612	-4117	2250	-24600	1512	31824	-2899	-1555	718	126	141	1
-11476	-5904	12660	114	5163	4109	-17004	-1724	3524	-2268	14359	-177	-19064	-528	6200	-608	1243	-258	-32768	-32768	-11436	12798	-9357	32166	-7648	344	-15240	223	-2519	1236	-12032	-3976	32767	-1571	-374	-188	131	140	1
-11812	-4040	14636	1000	8021	5247	-17952	112	-32	275	17505	162	-18184	-2576	5032	-999	928	-273	-32768	-32768	-16020	26440	-2078	8645	-816	8512	-10552	2158	111	333	-23312	-9072	32767	1283	-1011	-488	126	139	1
-12476	-4352	15712	1213	12148	5579	-20700	-1092	-2760	2705	19543	1629	-20536	-7072	424	-1205	819	32	-32768	-120	-9836	-11508	-1313	-24903	-10264	8376	-17096	657	2277	-877	-18256	6896	7680	3148	-1685	-101	124	128	1
-12256	-6672	15824	374	16996	7597	-22052	-288	-3148	1649	21046	1872	-20912	-4176	-360	-951	387	21	-32768	-7404	1764	-21559	152	-28896	-14048	752	-22184	-880	3993	-1540	-16896	7032	5520	3091	-1395	-121	131	159	1
-12264	-6280	15712	-241	22146	10977	-21416	1576	-3072	-665	22651	1359	-19936	-2800	4288	-845	92	-6	13416	32767	9276	-15607	2699	-21127	-32768	3336	30056	861	2534	-790	-10600	1552	1352	774	712	1039	136	137	1
-12196	-5196	17072	166	28546	13227	-23696	1324	-1624	871	23969	1811	-21224	-4664	7976	-784	104	1	20432	-18612	17720	-16621	32513	-25822	-29480	80	-2960	1727	2428	-762	-25616	8304	11544	-1701	52	477	126	159	1
-11552	-7372	18292	870	32767	19197	-28052	3384	120	4156	24839	1741	-25536	-3176	11744	-548	-137	75	13188	-23920	24892	-14136	32767	-23778	-25752	17968	-13840	-2590	4063	-2066	-26152	6784	10888	-3738	159	-552	120	130	1
-11256	-10296	18900	-394	32767	29115	-32768	9936	4952	-4136	25773	-206	-26512	-920	18672	-1011	-989	407	-32768	32767	-2144	-8249	11981	-16222	-10616	1608	-19384	-2799	4055	-1539	-15792	-29128	-8352	1274	2611	-305	124	129	1
-29708	-10768	16684	-6054	32767	32385	-32768	7200	8472	-21849	30225	-2053	-28384	2912	13960	-3781	-4427	1170	-16956	-10096	19416	-12498	1286	-17293	-12000	-536	-16616	-167	2450	444	-6208	6624	-12168	3784	-500	453	132	137	1
-32768	-1752	16068	-23237	32767	20882	-32768	5096	4844	-20976	31567	-1587	-20936	1824	624	-2205	-2496	308	-13560	8236	12368	-9120	-1333	-7699	-18280	-832	-11824	578	1901	-292	-22184	11288	-11600	1448	1353	308	123	107	1
-32768	-18384	8108	-32683	32767	15829	-25956	-6068	-4312	-8459	30133	5609	-29944	-6960	-15040	-1674	-2506	-315	-10496	7612	11632	-3570	1029	-2057	-17944	-320	-9296	1886	1363	-112	-24896	10032	-8936	1026	1408	457	118	130	1
-9548	-32768	18016	-17383	32767	31237	-16144	-9500	-19520	6454	26993	5203	-29152	800	-14408	-151	-2961	-990	-8848	9716	10172	-2812	46	-2543	-16640	3792	-7640	4391	386	239	-16152	536	-2584	907	1538	207	92	123	1
-32768	-30120	21672	204	1886	20627	-15712	-1680	-26192	9327	14323	-820	-29704	5664	-4200	1166	-3393	-994	-8988	8484	11252	-2106	1195	-2054	-13512	12240	-5912	2285	615	42	-16328	3616	-344	484	1559	103	148	116	1
-10352	-22176	16316	11302	-21444	6016	-13004	4248	-9272	7131	3020	-1914	-27664	1880	-4728	667	-3077	-1127	-9728	7924	10776	-1724	1515	-2207	-14336	10136	-7672	-1289	1396	-410	-17824	2376	-264	248	1534	-472	163	130	1
3056	-9604	12312	12677	-23562	-45	-5596	1104	-3020	1471	-6498	-1975	-25856	1672	-4624	-281	-2994	-1288	-10028	7840	10956	-419	2388	-1416	-18712	2232	-8120	-2128	1287	-452	-18504	4456	-1368	-268	1702	-328	129	115	1
3132	-5016	8744	7274	-20345	-7628	-3744	976	-6248	4871	-11722	-2868	-20776	72	-5400	-778	-2588	-1247	-9820	8200	10984	532	3069	-717	-17016	-728	-7408	-424	764	-150	-18728	1472	-1400	-750	1816	-539	122	133	1
-1888	-4100	8992	961	-20168	-15318	-3396	2016	-7824	7342	-17199	-2467	-18968	1152	-6128	-615	-2310	-1009	-9744	8192	10644	602	2916	-623	-15832	2392	-6888	1018	326	73	-16560	-96	120	-623	1876	-444	138	131	1
-5924	-6212	10092	-1042	-23773	-21919	-3600	2764	-8480	5815	-22875	-1278	-16280	2832	-6648	-321	-2106	-658	-9824	8092	10312	1011	2416	-909	-15920	2896	-6968	1149	268	120	-16088	376	1888	-582	1917	-95	131	124	1
-8304	-6728	10604	2408	-28787	-25595	-5440	3560	-8444	926	-28705	-570	-15848	2864	-6800	-193	-2037	-691	-9788	8104	10328	1186	2386	-988	-14712	7864	-3936	496	306	58	-16248	536	2560	-516	1945	-158	130	132	1
-10088	-3496	11372	5639	-32768	-27799	-5448	3468	-8176	420	-29536	-501	-12128	624	-8320	-138	-1829	-817	-9904	8004	10276	1237	2268	-1111	-14632	6472	-4016	-497	650	-89	-15624	248	2272	-221	1992	-316	120	126	1
-12644	-1416	11988	5379	-32768	-29350	-6836	544	-7464	2958	-32768	810	-10896	408	-8472	178	-1478	-589	-9496	8452	9876	929	2015	-1137	-14840	4408	-4280	-245	631	-95	-14776	2208	1296	71	2032	-312	104	126	1
-14832	-1732	13372	3594	-32768	-28996	-9256	280	-7972	7528	-32768	2218	-10832	776	-9344	580	-1332	-597	-10024	8820	9356	345	1834	-1517	-13800	5808	-4032	452	485	-15	-14416	3288	416	149	2165	-168	109	124	1
-16768	-2864	14464	2221	-32768	-26209	-11268	44	-9208	11921	-32768	3238	-7640	272	-10616	1266	-1211	-738	-10176	8472	9352	-639	1541	-1691	-13376	6368	-5864	437	519	-46	-14472	3392	440	74	2362	-84	131	126	1
-20732	-3132	16120	272	-32768	-24277	-10352	2056	-10240	13733	-32768	6584	-5688	512	-12728	2804	-759	-481	-10124	7968	9588	-1965	1432	-1712	-14392	5520	-4712	225	580	-71	-14280	2496	1688	-118	2722	-45	128	128	1
-23040	-3352	17612	-2546	-32768	-24715	-14176	3632	-10072	7241	-32768	9315	-3968	2848	-12496	3381	-19	-369	-9948	8064	9820	-2440	1509	-1990	-14976	5416	-5384	100	651	-118	-14872	248	5712	-782	2913	-65	131	127	1
-24900	-5628	21556	-4826	-32768	-24532	-20436	2584	-10240	2366	-32768	11895	-3904	4368	-8600	3027	352	-91	-10316	8152	9924	-2395	1529	-2006	-16264	3000	-4688	443	599	-61	-14824	-1104	888	-571	2787	-98	128	127	1
-32768	-10616	25680	-5602	-32768	-26207	-25232	-1480	-15284	2187	-32768	13522	-4792	1776	-3152	2283	361	42	-10216	7200	10956	-1373	2079	-2721	-15480	4144	-3256	881	567	-54	-17776	-72	-2424	-318	2197	-3	133	131	1
-32768	-12064	25640	-3122	-32768	-29524	-32768	3308	-12524	-3917	-32768	14433	-8432	-4376	2408	1453	-39	153	-10204	7508	11148	-831	3042	-2898	-15008	7432	-3088	744	788	-118	-18352	3576	1088	-541	1683	-72	128	131	1
-32768	-7072	9760	1269	-32768	-26868	-26136	-108	-14292	-11220	-32768	10546	-22208	-3024	14016	1264	-1160	-79	-10440	9356	10492	-964	3886	-4027	-15512	8152	-2080	642	997	-267	-17336	5616	7472	-201	1647	-62	128	136	1
-32768	6732	-8452	-4009	-32768	-25684	-19256	5084	-16900	-18340	-32768	3016	-32768	7288	32767	3159	-2053	-1219	-11612	8780	10848	-1702	4593	-4425	-15688	8312	-1440	940	1174	-367	-17224	1544	6960	652	1662	54	154	135	1
-32768	32716	-26820	-23092	-24272	-19112	-9836	-5532	-10712	-32768	-20795	-3883	-4712	8120	32767	-1214	-202	1221	-10800	7584	13604	-1889	7385	-7874	-16376	8080	-1376	968	1232	-388	-18384	3344	3216	708	1325	238	123	135	1
-32768	24256	-32768	-19227	-8233	-1760	-1824	-14348	-8600	-6877	3433	1158	-21984	5200	32568	-1326	-1328	1300	-11012	8880	14872	-1438	11000	-9642	-19664	8080	-4088	584	1866	-913	-20488	8192	3280	709	928	59	63	136	1
-31628	6016	-18024	13961	5602	24560	-8572	-2348	-12552	2632	19661	-1854	-20208	-2872	8728	-2592	-1254	-35	-11416	11500	13516	-582	14529	-13402	-20184	7656	-3728	869	1980	-998	-21304	4240	1904	830	478	-40	155	129	1
-2972	17724	-8944	17187	20349	32767	-24540	-11368	1040	14562	26420	-3247	-12096	-2992	8192	-1705	-742	-153	-11292	11756	14316	37	18181	-18535	-22656	6616	-5248	1230	2028	-1024	-21624	2184	4184	748	244	2	128	131	1
-22100	-27908	23484	11680	23530	30577	-32160	12184	1784	32767	20882	-2271	-23208	5688	6128	-1688	258	-65	-11588	11804	15660	153	23868	-23959	-26624	6936	-3392	1467	2043	-1097	-25296	5112	8672	720	82	-32	150	134	1
-30568	6612	16828	14354	32767	9109	-31804	11216	-13288	32767	23725	-658	-19840	-9984	32767	1575	-516	-1132	-9660	15432	18128	156	30968	-30720	-31704	10528	568	1768	2007	-1159	-28824	7560	18528	474	-792	-7	121	134	1
-32768	13016	21376	7965	19281	13659	-20864	6828	-15628	10095	26754	-7825	-14696	288	-21232	-2981	2341	-139	-13200	20644	18576	1019	32767	-32768	-32768	14832	8000	2748	2006	-1216	-27400	2696	24336	2081	-2680	-209	136	131	1
-16684	-14540	13108	3252	21099	9835	-6376	2264	-9736	-10278	23156	-6309	-12568	14632	-18960	-1064	1102	807	-30508	20524	19272	8801	32767	-32768	-28808	21672	-400	3106	2510	-1485	-20960	-3624	11544	2024	-3440	-1011	151	131	1
-22000	-2840	8600	10731	1260	13131	-11416	-17820	-18996	-3029	17088	-13332	-10424	-11904	-10592	-1781	-501	-14	-32768	23848	14700	6730	32767	-32768	-22768	19352	-3472	3001	2379	-1783	-24816	7320	-5112	808	-2719	86	146	135	1
-15616	-1280	13904	4387	-907	4237	-21892	2724	-9976	10301	11500	-6399	-26744	-4616	-10520	-486	1447	-71	-29744	32612	11896	3721	27504	-32768	-19512	8176	-7544	1742	2579	-1674	-28592	7168	-15112	548	-2930	666	138	128	1
-12664	-4188	11156	2222	-1137	934	-16720	1884	-8992	-6496	10696	-5855	-18888	1336	-4608	-344	1307	-54	-19164	17964	12536	1198	21203	-32768	-19208	7288	-8680	1449	2582	-1588	-30328	-3304	-4720	-710	-3385	586	144	128	1
-11176	-4492	11952	1838	-808	791	-13720	736	-7348	-15791	11393	-5793	-16104	1096	-648	-632	1481	384	-22532	29692	13096	8510	-16861	-6978	-13040	-1272	-15592	-489	1043	-792	-29248	-7368	-4680	-372	-3173	401	134	129	1
-11452	-2212	12608	578	707	180	-17512	840	-7668	-20739	9757	-4764	-16704	-2136	-1528	-794	1699	290	5108	25908	6912	-2280	-26279	2563	-11432	-1448	-1072	1344	-725	260	-28264	-4344	-4024	358	-3015	790	121	138	1
-11464	-3788	12000	-729	1283	-810	-18088	-5684	-6256	-11578	7397	-3991	-17952	-3680	-1448	-354	1848	369	6692	13968	5156	-5686	-20145	4895	-10640	-1872	-968	1519	-925	368	-23960	-568	-4576	1187	-2680	1053	119	147	1
-11292	-3980	11804	-696	1115	-845	-16956	-2576	-6672	-7049	4850	-2919	-17656	-4480	-2184	-48	1905	528	1296	8092	5132	-80	-16234	12997	-4496	-320	-5544	288	-1827	1160	-19448	1016	-5824	1500	-2308	1093	133	135	1
-11304	-4172	11848	-987	1361	-1127	-16948	-472	-5312	-6001	3632	-1402	-17280	-2992	-1072	435	1919	535	-3376	8880	6104	7474	-16385	24117	-5392	-320	-6768	-705	-2247	1448	-16040	1344	-6992	1068	-2002	988	127	133	1
-11676	-4088	11748	-1176	1510	-978	-15776	404	-4884	-6436	3228	-966	-16240	-280	752	627	1862	469	-5996	12472	6356	7457	-18675	31839	-5744	72	-6848	-1252	-2758	1768	-15024	1296	-7088	569	-1838	908	114	132	1
-11472	-4236	11600	-1434	1334	-767	-15648	608	-3332	-11613	3251	-1122	-15216	-624	1496	379	1906	415	-8216	11672	7400	3355	-21442	32767	-6400	448	-5776	-1669	-3110	2028	-12952	40	-7488	424	-1616	786	123	136	1
-11412	-4236	11376	-1414	1118	-420	-15940	-1664	-1884	-10601	3863	-1696	-14480	-3488	1192	275	2046	398	-9296	8792	9076	1901	-23391	32767	-8304	1240	-5400	-2094	-3473	2184	-10752	32	-8240	166	-1323	795	133	134	1
-11544	-4480	11304	-1010	1129	-104	-15596	-2824	-1688	-3220	3648	-859	-17224	-2720	344	88	2170	507	-11456	8868	11144	3896	-24046	32767	-10264	2000	-5944	-2897	-3722	2229	-8856	-136	-8592	-438	-1105	775	133	128	1
-11432	-4352	11164	-405	813	141	-15076	-1400	-3368	2227	3483	-76	-13760	-1256	3144	-167	2351	-238	-14788	10912	12648	5623	-25314	32767	-11888	1656	-7312	-3820	-3971	2198	-7584	-1168	-9568	-1073	-837	731	130	128	1
-11504	-4552	10984	-220	464	584	-15720	1732	-3992	-3381	3909	-439	-13184	336	4744	-339	2260	-44	-17432	11896	14132	6889	-26699	32767	-14616	-392	-7752	-3977	-4401	2195	-6144	-2440	-10496	-1994	-573	568	130	131	1
-11640	-4264	11056	-80	283	917	-15576	332	-4680	-9141	4536	-1006	-12536	760	6336	255	2773	289	-18836	11232	16028	9775	-26072	32767	-17416	-136	-7256	-3613	-4769	2190	-4792	-4528	-10352	-2690	-209	225	128	130	1
-11560	-4368	11048	298	97	1411	-16052	-900	-4088	-7684	4501	-1173	-16552	-3072	928	-220	3703	162	-21240	13536	19336	13246	-22369	32767	-20976	1328	-7776	-2872	-5233	2207	-4480	-6032	-8984	-2567	28	-92	127	131	1
-11388	-3716	11624	-306	382	1314	-16820	1264	-3532	-4541	4248	-468	-18888	-3472	-5144	-157	3097	197	-31932	21500	22556	13165	-22538	32767	-26176	5112	-13912	-2853	-5412	2319	-4848	-4144	-2528	-2363	-200	-218	80	132	1
-11352	-3744	11716	-1018	1069	1226	-16600	2620	-1668	-7764	5504	-712	-18936	-952	-3872	1133	1894	112	-32768	17140	25124	12896	-24106	32767	-30912	5136	-13104	-3021	-5695	2337	-8312	1712	3536	-2534	-890	-125	144	132	1
-11448	-3768	11648	-860	1672	1307	-14960	-524	972	-7939	7347	-863	-15824	-2944	10528	1121	1883	-92	-32768	13044	15252	15318	-21837	32767	-25992	2848	-14856	-1839	-5604	2047	-16624	3424	13032	-2169	-1854	509	141	131	1
-11460	-4284	11908	-547	2649	1168	-15748	-2016	2572	-1998	9451	276	-16624	-96	12768	-405	1826	53	-32768	4052	3096	9609	-18595	32767	-25912	2224	-15720	-240	-4685	2792	-24512	-3392	28200	-3010	-1947	741	135	139	1
-11604	-5564	12256	-351	4132	1726	-16660	-1740	3396	269	12870	797	-19104	-576	4576	-380	1613	77	-32768	-32768	-6080	20164	-14765	30090	-9512	2320	-15888	987	-3280	1848	-12864	-1544	32767	-1174	-476	-35	125	123	1
-11716	-5236	13348	22	6303	3365	-17460	-1520	840	1712	15959	1078	-18224	-6976	4608	-293	1143	-94	-32768	-32768	-12540	32767	-5196	13683	-1208	8888	-8704	2831	-722	528	-20920	-9744	32767	2309	-868	-699	128	142	1
-11904	-5380	15208	754	9594	4835	-20108	-2024	-2524	4765	17992	2060	-18792	-7232	1160	-488	923	81	-32768	6296	-15528	-9150	-4018	-21341	-9696	10288	-14208	1767	1604	-608	-21408	2912	13448	3711	-2245	10	128	133	1
-12472	-6680	15384	771	13769	7149	-21620	-420	-4044	3257	19423	2580	-20872	-3408	-792	-746	673	257	-32236	-1568	6252	-28102	-4269	-32768	-13376	8168	-17344	-572	3746	-1290	-10248	11624	3560	2702	-1348	337	132	143	1
-11780	-6240	15884	12	19035	9533	-21932	2232	-4196	476	20854	2271	-20512	200	-40	-633	300	39	-7012	32767	12636	-28859	-983	-32695	-31928	8768	20832	394	3194	-916	-13656	9368	-1552	1731	156	1024	130	137	1
-11668	-3544	16940	-366	25246	10962	-22988	2756	-3604	1857	21901	3167	-21688	-2920	5024	-513	339	36	8304	-11844	14140	-24606	14500	-27270	-27400	-552	1200	-91	3101	-1254	-23160	7080	22352	-2170	-878	2013	131	122	1
-10952	-5460	18184	495	32767	15092	-26116	4344	-316	3184	22768	3825	-24664	-5552	9464	-547	227	204	-32768	2516	32767	-12606	32767	-16435	-30696	-288	-17800	-2343	4177	-2031	-13536	11960	0	-3040	1277	-4	118	129	1
-11696	-9500	17512	743	32767	22631	-30032	6692	3784	2813	24411	3214	-27072	-3128	15096	-254	-525	373	-9064	4104	13832	-4561	13914	-19821	-12592	-1392	-11976	-1659	3829	-1609	-22488	-26400	-19152	1496	1917	-2487	121	143	1
-21160	-16788	16296	-651	32767	31131	-32768	5864	10636	-11349	27374	361	-25920	4608	24816	-1838	-3721	1083	-30524	12040	708	-13251	3145	-18479	-2256	9320	-20512	1342	2154	162	-3576	-5504	-15872	1903	70	1185	126	132	1
-32768	-2384	19376	-9901	32767	32117	-32648	-1668	700	-11673	32493	-589	-20144	584	9056	-3057	-4633	925	-17208	5836	15520	-10387	-1005	-11272	-22344	600	-14328	-267	2016	-129	-22600	11376	-3264	1869	1736	-46	115	130	1
-32768	-15132	12160	-21998	32767	20557	-28936	-2956	-4700	-16389	31455	8203	-23944	-5632	-8304	-2276	-1797	-344	-12068	-240	16324	-3945	1269	-3476	-20792	-4232	-12616	409	1801	-324	-24336	-752	-2976	515	1328	265	118	109	1
-32768	-20376	15672	-23384	32767	23956	-22524	-9260	-1672	14302	27248	7820	-31168	-12912	-18560	-236	-2784	-919	-9220	10908	10016	-2469	1063	-1600	-19088	-3256	-12232	858	1640	-258	-15720	2968	-2832	1034	1546	-80	127	124	1
-32768	-23544	10856	-3184	30161	28412	-16032	-8820	-25244	13878	19611	6094	-28104	7088	-7968	1580	-3399	-1103	-8732	7880	11352	-1640	1430	-1399	-14952	6264	-5456	2610	494	52	-15584	4080	-384	445	1736	-19	135	119	1
-21680	-29412	16312	12514	-12040	4288	-16968	4096	-13116	16215	6225	-207	-30848	4256	-3864	1934	-3458	-920	-9412	7036	11480	-669	1855	-1193	-14232	12736	-6688	445	854	-105	-17296	744	-256	200	1748	-111	169	125	1
-1168	-15788	15500	22637	-24012	-340	-9108	4064	-4396	8762	-3877	2268	-27632	3480	-3872	689	-3062	-1186	-9280	8200	10944	-325	2807	-955	-14288	11776	-6384	3	936	-167	-18288	2360	-96	107	1741	-409	129	124	1
4556	-3980	11572	18097	-22610	-3837	-2944	916	-4732	3793	-9392	-391	-22624	992	-4384	-431	-2798	-1101	-9476	8016	11004	809	3440	-295	-17152	1328	-5968	-830	800	-112	-17416	3152	-440	-185	1809	-586	120	130	1
-128	-592	10528	6463	-21781	-10578	-4292	304	-6556	5989	-15179	800	-17552	-1888	-5400	-898	-2454	-1089	-9696	8484	10536	1595	3375	-224	-16208	3008	-6104	662	371	79	-17120	1896	936	-352	1862	-560	138	140	1
-6044	-5424	9768	-2318	-26417	-16460	-4092	-1140	-8088	4948	-20917	664	-17184	224	-7424	-351	-2069	-715	-9908	8716	10364	1799	3116	-588	-15680	6312	-5184	1401	93	260	-15792	864	2016	-296	1919	-203	136	128	1
-8100	-9232	9468	-1274	-32768	-18105	-4528	-1560	-8116	2603	-26829	2949	-15520	-960	-7640	224	-2138	-698	-9896	8384	10320	1891	2860	-849	-14496	8368	-4288	1002	185	150	-15968	2184	2432	11	1875	-190	134	129	1
-9748	-7800	8668	2974	-32768	-18456	-5780	80	-7108	-624	-31639	2001	-13872	88	-7592	531	-1848	-652	-9992	8480	9988	1803	2661	-1186	-14280	8384	-3256	183	453	-8	-15464	3368	2728	80	1848	-291	124	126	1
-11064	-4860	8784	3485	-32768	-20981	-6060	752	-7128	-1138	-32768	2639	-11880	752	-8792	535	-1583	-633	-10044	8480	10004	1757	2457	-1414	-14672	6472	-3488	-11	593	-102	-15040	3928	2416	130	1895	-291	120	121	1
-12304	-4844	10080	1943	-32768	-23893	-8088	40	-7112	-554	-32768	3987	-9472	432	-9704	688	-1371	-671	-9936	8812	9484	1303	2182	-1676	-13968	6184	-4056	429	536	-78	-15128	4120	2264	142	1917	-274	117	125	1
-15312	-6056	11696	529	-32768	-25703	-10676	-548	-8504	3260	-32768	3674	-9264	424	-9480	710	-1321	-693	-10120	8392	9608	378	1991	-1941	-13472	6560	-4728	573	534	-85	-14416	3712	1616	174	2052	-109	129	126	1
-19292	-7076	13588	-757	-32768	-27124	-10196	-820	-9628	6295	-32768	6185	-6552	-200	-12136	2254	-756	-541	-10148	8364	9464	323	1981	-1932	-14032	5760	-4368	411	619	-137	-14864	3280	2176	194	2306	-64	125	131	1
-23060	-7524	14720	-2435	-32768	-28654	-12956	-8	-9092	3909	-32768	6881	-4936	1784	-12736	2938	-45	-531	-10116	8016	9768	-669	2098	-1749	-14648	5856	-4496	401	693	-160	-14648	1960	6056	-63	2654	-60	126	125	1
-24092	-8508	17040	-4258	-32768	-30016	-18716	-356	-9344	5722	-32768	8146	-3488	4376	-10808	2785	279	-360	-9980	8708	9928	-963	2487	-2208	-15160	5784	-4368	485	745	-167	-14088	104	4952	-574	2786	-115	128	127	1
-32768	-12752	21760	-4532	-32768	-30800	-23652	-3072	-11080	10083	-32768	10781	-3816	3448	-7112	2349	462	-169	-10204	7860	10036	-1180	2886	-2618	-14744	5264	-3920	612	812	-184	-16280	1328	-2176	242	2303	-53	128	130	1
-32768	-22792	22728	-498	-32768	-32637	-32496	-540	-13400	5971	-32768	11924	-5656	-520	-1664	1940	74	97	-10348	8160	10468	-1035	3406	-2783	-14424	5688	-4616	594	944	-206	-18080	2728	-2096	-183	1631	-158	131	130	1
-32768	-8712	13748	3678	-32768	-32768	-28592	3244	-13032	-969	-32768	9502	-15928	-4648	12144	1300	-847	158	-10776	8408	10320	-991	4188	-3798	-16056	6384	-5128	632	1053	-260	-15072	3720	4040	-484	1835	-62	133	129	1
-32768	-1452	-456	-2028	-32768	-32768	-21108	2496	-16120	-16733	-32768	6017	-32768	56	22920	2086	-2330	-1046	-10856	8976	10696	-1349	5174	-4946	-15328	7800	-3712	986	1093	-328	-15544	2456	4672	455	1983	-70	138	135	1
-32768	22312	-17544	-11412	-31208	-23544	-17424	-1720	-16976	-30249	-30041	-3721	-7744	5600	32767	1557	29	-469	-11020	9248	11304	-1999	6882	-7120	-16208	7624	-2808	1021	1343	-464	-16728	2344	4104	642	1715	65	152	130	1
-32768	30576	-21044	-15813	-28805	-21621	1180	-8436	-5708	-28428	-3646	-2112	-15632	7840	32767	-590	-1021	1178	-11480	7684	13548	-1768	10035	-8321	-18320	9160	-4176	699	1674	-776	-19712	8144	3704	257	1323	72	96	133	1
-32768	5532	-28844	-4472	394	19768	-4200	-8788	-12244	-1007	14902	-2006	-23392	560	14184	-2689	-1531	394	-11472	10672	13492	-798	13313	-11545	-19912	8496	-3664	687	1912	-935	-20640	6288	3208	561	852	-82	123	132	1
-32768	5536	-10076	15217	7765	29867	-15500	-2660	-17292	9800	26062	-3383	-9872	-2576	11952	-2319	-1173	-158	-11388	12012	12732	281	16588	-16580	-20920	6544	-4208	1193	2008	-918	-20264	432	4376	653	331	-93	137	132	1
-8876	-2740	28764	13896	11863	21328	-18812	-352	-4316	16563	30722	-3024	-5688	1584	-368	-2357	604	-44	-9932	13744	12428	1218	17696	-17992	-23008	5184	-4288	1581	2053	-909	-21944	-1312	7968	971	164	-43	138	132	1
-948	-31740	18940	15663	12057	13837	-32768	6764	18920	32767	11575	-1234	-7112	8896	-1320	-1065	1269	-163	-11404	12420	16452	1524	27317	-25719	-29408	7024	-3168	1804	2074	-962	-27208	2840	12944	1185	-62	-16	143	134	1
-22768	23864	15228	9497	32767	7934	-21964	3144	-20760	32767	21983	1371	-32768	-32768	16712	2768	-1058	-386	-9168	16776	17980	2727	32767	-30845	-32768	10208	5744	2663	1866	-963	-27760	5296	22424	1819	-1201	-139	128	134	1
-32768	6828	22148	5387	24307	19641	-28572	8084	-16496	26550	22794	-1055	-14240	17856	16456	1786	1655	-139	-29140	17116	17212	7830	32767	-32768	-32768	16456	6736	4094	1857	-1168	-24704	-1968	18032	3028	-2916	-802	163	128	1
-32768	-32768	5448	11505	19692	12173	-12188	-3088	-7836	-9094	22921	-13217	-15416	23120	-14584	-1508	1400	8	-32212	29572	17448	11940	32767	-32768	-26200	26000	-2032	3423	2352	-1357	-22880	5608	3776	1680	-2980	-640	132	133	1
-16452	-148	10684	8494	6675	13208	-8916	-8656	-11252	-7567	20013	-14560	-9680	-8528	-14496	-3638	-534	246	-32768	26436	14600	3815	32767	-32768	-21216	13400	-8296	1965	2687	-1787	-27304	11144	-14160	632	-2824	266	94	130	1
-13452	3332	15308	5570	-305	6337	-15724	-1916	-15012	5921	11865	-6835	-23184	-14360	-12696	-901	1218	29	-16160	26300	18056	7750	28133	-32768	-20728	5512	-14544	593	2520	-1401	-31720	1592	-7040	-387	-3395	607	118	131	1
-11652	-5436	12212	2787	-506	1399	-19200	3036	-8692	-11476	11137	-4709	-20608	-344	-7256	203	1210	-93	-32768	17264	13664	14492	2236	-28895	-15848	-704	-22552	-339	1590	-1222	-31064	-3864	-5768	-454	-3243	418	144	125	1
-11392	-4056	12140	2155	393	1573	-15272	-3964	-8160	-16495	11239	-6181	-19120	-72	-2352	-274	1688	404	-10012	32767	10576	9855	-27885	-3854	-12576	320	-8280	707	98	-258	-30616	-6552	-5000	43	-3145	614	140	134	1
-11060	-3040	12692	547	1909	745	-17644	-2796	-7720	-7591	8008	-3879	-16544	-1128	-1048	-240	1922	466	7040	22820	5044	-3140	-29152	-643	-8856	-1040	-1648	1767	-1272	493	-27024	-1808	-4632	773	-3002	995	135	150	1
-11300	-3916	11864	-579	1611	-139	-17740	-712	-7096	-3751	5511	-4319	-18976	-1960	-2112	-70	1932	476	4000	13060	3820	-7283	-23982	2847	-4536	-840	-5264	960	-1689	925	-22088	792	-5368	1276	-2574	1131	127	139	1
-11452	-4192	11900	-469	1542	-666	-17480	-512	-6492	-8505	2879	-2783	-17280	-2808	-2032	383	1996	327	-980	7632	4716	-771	-21251	14292	-4224	-1392	-6608	-159	-2133	1234	-16968	1224	-6368	1085	-2180	1106	118	128	1
-11624	-4900	11676	-915	1435	-613	-15312	-132	-4612	-14459	3436	-2304	-16416	-2024	-1248	565	1954	435	-3960	8664	5608	7517	-20558	27071	-5888	-664	-6888	-777	-2602	1551	-15272	1072	-6944	584	-1967	1025	123	136	1
-11356	-4972	11596	-1000	1224	-440	-15788	-1016	-3468	-16489	3700	-2161	-15912	-2688	-240	618	1817	381	-7144	12504	5740	7414	-21425	32767	-5536	384	-6528	-1294	-3098	1905	-14048	192	-7120	301	-1797	846	121	127	1
-11408	-4912	11316	-955	1149	-73	-16080	-2564	-2636	-12475	3669	-1742	-15200	-2992	-760	771	2029	252	-9292	12224	6972	2785	-23586	32767	-6288	1872	-5104	-1870	-3305	2190	-12416	-672	-7504	182	-1591	784	123	133	1
-11380	-4492	11348	-713	1129	191	-15532	-2188	-2872	-3770	3010	-966	-16536	-1848	-2056	526	2421	326	-11064	8836	9464	2534	-25109	32767	-9120	2632	-5920	-2640	-3585	2310	-9888	-560	-8432	-9	-1271	752	132	129	1
-11464	-4512	11260	-435	1060	173	-14992	-188	-5544	-176	2633	-318	-15288	1096	1112	-294	2492	-419	-11464	8576	9972	3030	-25238	32767	-11120	2960	-6600	-3532	-3849	2303	-8040	-376	-9104	-489	-1017	720	125	128	1
-11400	-4320	11068	-611	749	218	-15752	2768	-5296	-6258	2416	-1035	-11392	2576	7520	-153	2712	-283	-15948	11444	13208	8682	-26312	32767	-12776	2056	-7360	-4112	-4155	2263	-6680	-256	-10856	-1317	-727	680	130	130	1
-11464	-4396	11244	-496	562	269	-15964	348	-4580	-10040	2641	-1296	-12136	1672	7824	341	3613	158	-18108	11748	14648	10396	-26366	32767	-15696	1024	-8192	-4011	-4537	2236	-5800	-2592	-12120	-2408	-334	507	123	128	1
-11332	-4356	11252	-577	476	377	-16124	296	-3000	-8808	2820	-1410	-18032	-4288	-3264	-1193	3760	435	-20228	13060	18092	12339	-23963	32767	-19456	896	-8952	-3649	-4970	2090	-4512	-4888	-10208	-2748	-74	380	122	129	1
-11436	-4308	11548	-778	770	421	-16192	-128	-1208	-7230	3616	-1251	-20376	-2712	-10536	512	2201	100	-28920	19176	22176	12684	-22967	32767	-24248	3864	-12392	-2850	-5508	2200	-4568	-4352	-5472	-2556	-150	192	136	135	1
-11344	-4776	11580	-954	1244	801	-14896	20	-696	-5605	5198	-1636	-18032	-4072	4784	1612	1557	-141	-32768	21464	24004	11914	-26474	32767	-28888	6424	-13344	-2698	-5796	2422	-5672	-1392	-1104	-2522	-730	22	148	138	1
-11436	-4256	11700	-820	1716	951	-16256	-960	612	-6683	7061	-1258	-15440	-4440	13712	239	1807	22	-32768	15092	19732	14125	-25156	32767	-27232	5320	-15712	-2247	-5736	2458	-11280	2184	5712	-2244	-1369	204	141	132	1
-11340	-5896	11640	-484	2507	1785	-16196	-2576	3772	-4857	9501	-705	-17808	400	6648	-700	1913	230	-32768	6940	10328	14433	-20054	32767	-24072	4176	-16112	-1662	-5115	2270	-21080	2248	19552	-2375	-2242	762	131	134	1
-11424	-6068	12160	15	3793	2673	-16196	-3440	4188	-726	12858	164	-20600	-1432	6576	-78	1423	-230	-32768	-12196	296	13189	-14446	32767	-20024	-2368	-22872	-1219	-3334	2240	-24728	-4104	32767	-2685	-737	187	130	128	1
-11568	-5772	13388	573	5860	4268	-18120	-92	792	1916	15989	290	-17576	-1056	6704	-677	936	-410	-32768	-32768	-10976	28403	-8314	24432	-2944	792	-11096	1853	-1773	899	-13816	-5080	32767	221	-633	-234	126	149	1
-11980	-3828	14844	1219	9231	5092	-18520	-788	-2304	2638	18336	1064	-17968	-4680	768	-1086	1011	-67	-32768	-14244	-15556	9867	-3200	-5732	-3848	10312	-15152	1899	927	10	-25456	728	25344	2400	-1673	-219	129	131	1
-12516	-5584	15412	1272	13500	6092	-21084	-1232	-3312	4013	19739	2375	-20552	-7160	-2016	-886	700	102	-32768	-8052	-1436	-24689	-4531	-32627	-12880	6464	-18144	-338	3119	-1124	-14336	9104	7192	2143	-1455	5	130	140	1
-11852	-6568	15292	-23	18441	8140	-21328	836	-3644	2266	21128	2089	-20448	-2152	656	-634	193	2	-32768	-8224	5948	-17609	2834	-24631	-16640	-2520	-21888	-1798	4654	-1924	-4752	9040	-968	1110	-102	622	131	142	1
-11896	-5132	15320	-1010	23832	11206	-21276	3264	-3188	26	22561	1332	-19648	-1208	5560	-828	107	35	32767	32767	14164	-18977	584	-14113	-32768	288	32767	2036	1760	-703	-12032	-3912	-232	254	716	893	122	127	1
-11456	-5416	17672	-850	31397	14644	-25116	2988	-1216	926	23572	2135	-23296	-1352	8008	-895	154	-16	23476	-31300	14216	-20696	32767	-27065	-21624	7912	-8744	2302	2180	-815	-12000	-6816	1528	-313	515	851	116	128	1
-11248	-8812	17888	-431	32767	22349	-29372	6384	1308	1180	24781	1330	-27304	-792	14216	-826	-280	136	-32768	2436	32767	-10267	26725	-20419	-31416	10496	-14368	-3376	4183	-1987	-24784	-3600	15944	-2854	416	-538	126	110	1
-16268	-10812	17796	-1645	32767	28412	-32768	9196	7288	-10880	26431	-463	-27264	1384	30232	-1301	-2471	806	-28612	32767	-108	-6209	16704	-15873	-11432	-3296	-13120	-2046	3658	-1365	-13736	-29456	-12728	2165	2575	-462	133	151	1
-32768	-5500	14604	-11422	32767	30590	-32768	2784	3588	-17669	32767	-1167	-25552	-2040	19776	-3942	-4859	1223	-13580	-7300	16808	-11695	2778	-16325	-9264	1720	-16088	1167	2114	596	-6728	11040	-12088	4130	-522	209	125	121	1
-32768	-7988	16936	-24501	32767	17959	-29984	-9796	-1868	-16343	32379	4640	-22512	-3528	-8184	-2302	-2066	-74	-13492	6808	12812	-7807	-704	-6988	-18024	1712	-12680	564	1827	-315	-23592	12208	-12784	1394	1394	164	123	119	1
-32768	-24500	12540	-25049	32767	22787	-24724	-6688	-4040	8086	28128	7896	-31344	-11960	-17640	-304	-2742	-769	-9748	8900	11068	-3118	1464	-1809	-18600	264	-9632	1405	1345	-185	-21272	-376	-4424	40	1607	148	122	119	1
-15084	-26852	16844	-8234	32767	32767	-17036	-9716	-19404	12921	23485	6029	-29056	1656	-10472	1195	-3315	-1096	-9060	8668	10768	-2247	1077	-1888	-16120	3552	-7336	3678	484	140	-16456	-1280	-1072	536	1624	69	122	111	1
-27668	-26756	19528	4388	-5753	16123	-17428	2068	-18604	15468	10680	161	-30736	5400	-4216	1882	-3455	-935	-9188	8360	11272	-924	2092	-1474	-13832	11176	-7072	1957	659	76	-15712	1888	-32	579	1651	109	159	132	1
-5036	-19900	16944	13161	-25273	4245	-12080	4532	-6456	8987	-803	2521	-29216	3016	-4624	1087	-3105	-1210	-10060	7772	11032	-37	2700	-1245	-15144	9176	-7640	-1035	1251	-338	-18640	2384	-1544	551	1598	-512	161	124	1
3948	-8328	12832	12885	-25182	-600	-3396	1764	-4620	2827	-8214	673	-25712	1600	-4328	-76	-3023	-1291	-9652	8504	10668	742	3184	-866	-17256	3064	-8344	-1546	1035	-297	-18120	5800	-1584	9	1746	-423	122	130	1
1372	-4916	9820	6927	-23010	-7257	-3880	88	-6756	4541	-14440	554	-20528	-176	-6144	-620	-2576	-1149	-9908	8696	10188	1111	3225	-430	-15984	2280	-7384	-191	683	-111	-17928	3144	-1296	-521	1859	-657	115	127	1
-4876	-5804	9352	945	-26241	-14704	-2812	180	-8260	3685	-19821	650	-17888	-24	-7576	-127	-2034	-620	-9972	9000	9992	1142	2729	-718	-15512	4288	-6128	1290	182	154	-16288	1704	832	-594	1880	-415	148	128	1
-7556	-8868	9228	344	-32372	-19676	-4316	648	-8792	591	-26120	2005	-16336	1848	-7976	-23	-2073	-704	-9920	8540	10248	1216	2379	-957	-15080	7344	-4752	1360	65	168	-15904	600	1704	-536	1920	-136	132	126	1
-8992	-7736	9140	3868	-32768	-21841	-4596	692	-7332	-1630	-31479	3252	-15208	504	-8184	261	-1928	-643	-9720	8396	10244	1382	2286	-1120	-14696	8096	-3824	407	350	21	-16048	528	2568	-315	1928	-156	133	127	1
-11208	-4780	9144	5084	-32768	-24646	-5324	304	-7516	-639	-32768	1903	-11496	688	-8560	331	-1612	-672	-9956	8248	10116	1461	2229	-1231	-14672	6816	-3496	-264	629	-97	-15640	1592	2432	-24	1925	-307	110	131	1
-13120	-3748	10412	3357	-32768	-27561	-7860	372	-7448	941	-32768	3426	-9856	1464	-9400	135	-1385	-601	-9932	8612	9632	1283	2206	-1411	-14392	5584	-4312	43	622	-114	-14784	3328	1632	186	2014	-281	143	131	1
-15580	-5388	12112	1539	-32768	-28727	-10552	-932	-8120	4553	-32768	3664	-7800	368	-10456	679	-1159	-639	-10144	8872	9044	597	1945	-1850	-13640	6568	-4920	549	506	-52	-14568	4072	1224	244	2142	-139	128	128	1
-19604	-6648	13824	680	-32768	-28356	-10400	-1828	-9644	10935	-32768	5156	-7000	-32	-11696	2060	-873	-433	-9996	8172	9480	-494	1835	-1921	-13672	5944	-5352	480	555	-87	-13704	2504	1536	225	2393	7	121	128	1
-24112	-6572	15736	-1016	-32768	-28393	-12196	-8	-9616	10390	-32768	6935	-5504	1784	-13752	3106	-187	-535	-10180	8204	9700	-1133	1865	-1882	-14624	6064	-4768	422	616	-115	-14616	2512	4648	19	2755	-5	126	123	1
-25896	-6652	18028	-4303	-32768	-29813	-17652	1044	-9976	8087	-32768	9444	-3552	4736	-11736	3190	215	-344	-10300	8480	9680	-1628	1960	-2229	-15296	5624	-4664	458	659	-133	-13944	736	4576	-480	2992	-112	129	128	1
-30108	-10548	22252	-5239	-32768	-30349	-23820	-272	-10468	6592	-32768	12428	-3464	3944	-8040	2665	460	-64	-10280	8384	9948	-1923	2389	-2776	-15160	5312	-3664	586	721	-134	-14728	384	-368	13	2656	-77	130	129	1
-32768	-20180	26564	-2834	-32768	-30908	-25060	-896	-10924	7415	-32768	12865	-5272	-1104	-904	2209	127	134	-10360	7836	10244	-1769	2859	-3201	-14152	5216	-3728	697	815	-165	-17848	2216	-3104	-186	1738	-60	128	133	1
-32768	-9368	17404	277	-32768	-32768	-30820	3684	-13368	-6543	-32768	12235	-13632	-5776	9640	1140	-674	123	-10744	8340	10576	-1557	3879	-3833	-16208	7144	-4192	656	984	-243	-18096	5760	3096	-586	1507	-143	121	133	1
-32768	-6112	360	-1090	-32768	-31934	-22628	1532	-16220	-16406	-32768	6881	-29384	536	20328	2118	-2090	-890	-10736	9316	11000	-1835	4934	-5297	-15968	8000	-3472	820	1113	-334	-15224	2744	7528	112	1817	-87	134	130	1
-32768	22820	-18100	-10498	-32768	-21734	-17064	776	-18984	-28551	-31275	-3679	-19872	11280	32767	2251	-290	-678	-10708	9412	11608	-2018	6854	-7235	-16712	7352	-1968	1004	1316	-463	-16840	344	4392	793	1736	68	136	133	1
-32768	32767	-32768	-31570	-17403	-14112	1684	-10188	-5920	-23377	-6588	-822	-9392	10504	32767	-639	-847	1590	-11252	7040	14368	-1477	10123	-8639	-17928	9336	-2904	726	1688	-765	-19984	6992	3472	451	1263	153	104	130	1
