#Activity	walking 
#ActivityID	1 
#Date 10-06-18-14
acc_rf_x	acc_rf_y	acc_rf_z	gyro_rf_x	gyro_rf_y	gyro_rf_z	acc_rs_x	acc_rs_y	acc_rs_z	gyro_rs_x	gyro_rs_y	gyro_rs_z	acc_rt_x	acc_rt_y	acc_rt_z	gyro_rt_x	gyro_rt_y	gyro_rt_z	acc_lf_x	acc_lf_y	acc_lf_z	gyro_lf_x	gyro_lf_y	gyro_lf_z	acc_ls_x	acc_ls_y	acc_ls_z	gyro_ls_x	gyro_ls_y	gyro_ls_z	acc_lt_x	acc_lt_y	acc_lt_z	gyro_lt_x	gyro_lt_y	gyro_lt_z	EMG_r	EMG_l	act
-32768	-18220	18284	-1045	1225	15076	-12732	1440	-7680	-141	10485	5879	-24352	-4708	-3876	10083	-22374	-2791	-12540	2108	12648	-2383	183	-3902	-17600	-424	-4176	6003	9469	3303	-16520	2800	-2692	-1427	9550	4278	123	132	1
-8124	-11220	19312	-677	-25958	759	-8468	-1224	-3264	-1433	1463	3711	-23920	-2920	-2968	8092	-22259	-3336	-11592	2024	12616	-1400	243	-2297	-18084	-996	-3484	234	6742	2158	-15124	1728	-2460	-4818	9470	2692	129	126	1
3564	-8696	14212	-3779	-28964	-2230	-9976	-12	1932	-4878	-5346	-622	-21588	-3968	-5268	6894	-20177	-4772	-11440	2720	12364	-902	313	-1273	-17212	-1456	-2212	-4039	4607	1497	-17340	4	-1324	-7346	9170	2312	118	130	1
2092	-7600	9616	-6939	-27984	-1684	-5972	792	248	-4210	-12634	-3026	-18640	-3436	-6136	8853	-17770	-4673	-11052	3624	11896	-847	332	-900	-16720	-2444	-1528	-2092	4572	1699	-16244	256	-1232	-5520	9833	3614	123	130	1
-4220	-8488	7792	-6498	-29941	-4892	-4540	232	-2248	-3029	-19185	-4549	-15760	-2508	-6764	10511	-15778	-4134	-11232	3132	11672	-864	128	-999	-15748	-2300	-852	754	4690	1761	-15560	-2856	196	-3374	9975	4550	128	127	1
-7408	-10904	7868	-3180	-32768	-10609	-7052	1036	-4716	-3292	-25430	-5418	-14000	-2252	-6780	12043	-14317	-3444	-11172	3212	12020	-675	178	-1239	-15948	-3000	-484	5678	5662	2318	-15184	-3364	1872	2689	10464	4189	124	126	1
-9332	-9232	7952	154	-32768	-14590	-9148	2120	-3628	-5207	-31331	-6176	-12724	-3120	-6668	12511	-13121	-3236	-10376	4344	11756	-486	166	-1701	-16844	-1352	108	8438	6508	2755	-15724	-548	1740	7790	11117	4287	126	129	1
-13424	-6660	7992	-60	-32768	-18021	-9960	2592	-4680	-4168	-32768	-7598	-11576	-2260	-7432	14274	-11908	-3400	-11480	2772	12000	-1218	-15	-1956	-16220	-500	-776	4474	5888	2347	-15184	-248	1068	8562	11538	4996	124	132	1
-14296	-4888	9392	-2727	-32768	-20826	-11652	4256	-5516	-4983	-32768	-8737	-9912	-828	-7812	18124	-11266	-3094	-11232	2980	11956	-1520	240	-1685	-17000	-1996	-8	966	5898	1869	-15124	-956	2212	7668	10539	4143	126	130	1
-17296	-5480	10692	-6028	-32768	-22459	-14820	5076	-6032	-6959	-32768	-10078	-9412	684	-7784	16003	-10440	-2284	-10704	4100	12168	-1776	845	-1785	-16972	-1116	644	909	6629	2269	-15964	572	1924	9244	12437	5094	126	130	1
-18968	-8656	12480	-6900	-32768	-22989	-17456	4272	-6184	-8317	-32768	-11809	-8764	972	-7536	9731	-7322	-2101	-11664	3476	11884	-2409	564	-2627	-16248	-992	-1360	1496	7404	2229	-17384	436	1464	6643	15383	5716	124	131	1
-25104	-8620	15924	-7927	-32768	-24044	-22352	6868	-8424	-6622	-32768	-12992	-9916	476	-6224	4575	-3437	-2552	-12172	2812	11788	-2578	-237	-2631	-17448	-408	-3152	2882	8230	2789	-16124	3112	-20	1361	18591	6797	126	131	1
-29116	-6864	17892	-10955	-32768	-24510	-26968	9048	-9756	-8866	-32768	-14563	-10120	4352	-2300	2593	-1304	-1887	-11792	1104	12660	-2386	123	-2007	-16980	-2160	-3072	2078	8616	2642	-16144	1552	-2312	-3546	17665	6924	127	132	1
-32768	-6368	19064	-12659	-32349	-24439	-30644	11592	-13916	-6067	-32768	-14545	-10952	2776	3736	7430	-4146	-1902	-11684	1480	12588	-1590	765	-1226	-15908	-1636	-1476	1501	9093	2462	-16536	184	-848	-3064	11353	4293	127	129	1
-32768	-5676	17964	-12486	-31341	-24800	-24484	9196	-17532	-8883	-32768	-13126	-14348	-2924	8456	6735	-3136	-2864	-11516	3436	12288	-1985	1312	-1872	-17156	1192	-328	-42	9357	1945	-16700	240	2484	-2543	9984	4416	126	130	1
-32768	5388	1724	-8232	-30876	-21845	-21480	8868	-20212	-8182	-32289	-11489	-16916	576	14744	7038	-1929	-5294	-11788	2644	12672	-1639	2548	-2705	-17608	-932	-584	-76	10882	1456	-17832	-2524	3336	-1646	9925	6147	122	130	1
-32768	12504	-8800	-6894	-24677	-18396	-15148	8824	-21984	-5920	-21869	-9428	-16380	3900	23064	2561	-3340	-5097	-11852	3124	12916	-1409	4228	-4011	-17528	-672	-268	1451	13187	1384	-18268	-3188	4252	4572	8681	6309	128	131	1
-32768	20744	-19240	-6711	-15173	-12700	-7644	7660	-22132	-4132	-8259	-5913	-13492	1868	23500	-8779	-488	-572	-11028	2388	14672	-3321	6305	-6263	-17840	-272	-132	1401	13451	1331	-18684	56	2560	6658	7034	4412	120	129	1
-32768	22132	-21328	-5014	-904	-4421	-6424	6004	-20600	-810	6275	-916	-14244	-1972	19908	-8162	-5384	1283	-11820	1724	14756	-3636	10281	-6369	-19616	-3460	-3260	-2282	15784	526	-20008	2856	-908	6492	5085	2804	124	128	1
-31512	10636	-11612	4943	11486	5193	-11352	6016	-19832	2164	17038	3481	-15696	-5944	13336	-6623	-7253	-9	-11604	2592	15684	-6009	13881	-7750	-20432	-2856	-3176	-5419	16350	292	-19816	2660	1420	6205	2817	853	122	128	1
120	-14000	32767	9742	15477	9886	-32256	2208	32767	-10498	14340	8135	-17444	-1268	-76	-3668	2560	703	-10696	2364	16824	-7222	18469	-8276	-23376	-3048	-2648	-6822	16971	-188	-23072	1380	3372	5726	319	130	137	127	1
-4960	1988	4340	7366	22746	16639	-10960	8356	-2000	18467	5590	-2930	-22124	4908	6508	-2410	7072	5013	-10900	4704	16064	-8234	23985	-9658	-23840	-5876	-496	-5689	18220	580	-23812	-1184	7752	5278	-3613	-780	125	128	1
-28340	-128	16372	-1406	23907	-667	-17516	9832	-1460	3442	15617	7983	-10128	-2668	6584	9587	4927	2319	-3052	1196	17076	-9989	32767	-14046	-26328	-8584	2936	138	20628	1591	-21188	-7672	13428	-1862	-14397	-4125	128	128	1
-12240	1960	15544	-1373	19344	6054	-20612	8932	-4436	6003	13902	729	-16428	1456	3184	7079	12410	-657	-7764	6068	18828	-11812	32767	-16330	-29616	-14928	11708	7169	23979	2401	-18596	-20976	12520	3317	-14229	-12409	119	129	1
-20012	-6844	13628	-3817	12535	7248	-19228	2932	-5568	4419	13381	2884	-17436	1652	-1516	-761	12176	2171	-16252	6344	17880	-13960	32767	-22918	-29284	-10592	12356	12903	27103	4597	-20428	-15528	13076	10217	-18777	-16971	123	127	1
-15940	-14188	10768	-51	9026	4429	-20200	2668	-4652	6362	11563	644	-19424	-5928	-3412	-2412	12796	-802	-32768	-6588	1660	-7314	32767	-27382	-24224	4752	-15184	6795	28625	5610	-16920	-1380	3940	23083	-13882	-13431	133	132	1
-17316	-8496	14120	2526	6174	4552	-15928	4232	-4088	5233	10002	70	-16600	-1464	-1664	278	11851	-3914	-32768	4476	9288	-7233	32767	-29795	-28596	3928	-12848	-479	26229	3547	-26184	4940	-10316	32767	-8283	-9283	129	132	1
-11556	-4472	12748	4774	3656	4069	-18196	2760	-3824	1761	9480	-925	-16020	-5136	-3800	-3782	11694	-1529	-29592	7072	20140	-322	32767	-28600	-20700	424	-2268	-5084	17236	2321	-32768	2220	-14688	24516	-16095	2848	139	133	1
-12384	-7748	10788	3547	2630	3683	-16688	2156	-3532	83	8436	-866	-16024	-6164	-2332	-2097	11881	-2983	-11484	14900	21420	5722	24872	-23412	-16028	2612	-10316	-6780	11791	2478	-29868	4380	-11600	7484	-26773	5099	135	131	1
-12164	-5424	12244	2517	1256	3037	-17064	2876	-3128	1833	5962	-246	-17124	-5232	-1016	1524	12294	-1867	-31744	10492	20204	7679	-12238	-973	-7816	2960	-8752	3664	5964	505	-25080	1520	-1392	4338	-30121	-406	133	134	1
-10688	-5596	11956	1295	1082	1476	-17204	4124	-2368	2400	4860	-370	-15608	-3744	-880	3702	12981	-510	-7660	13536	15772	6832	-32397	9507	-10940	-504	1188	7169	-3614	-74	-24964	3880	-5184	5985	-22792	2208	129	128	1
-10184	-5772	11292	703	633	756	-16852	3152	-1576	1475	4510	-452	-16080	-2824	456	3747	13928	161	2444	10572	10376	4454	-32768	12830	-7124	784	1500	2831	-11952	-1688	-20000	4732	-8228	5310	-18337	3868	123	117	1
-9716	-6012	11176	496	333	563	-16076	2764	-700	1299	4073	-268	-15808	-1192	2024	3702	14597	-774	-1216	6668	8304	2954	-28998	13819	-6456	2440	-884	-1390	-19940	-3549	-16780	4676	-9060	-835	-17237	3697	122	119	1
-9396	-5864	11012	309	584	327	-16040	3028	48	-568	4605	-11	-16080	424	3296	766	14542	-1650	-4632	4976	8396	5009	-28777	14474	-6156	2312	-1240	-1983	-21136	-3837	-13596	2928	-9392	-6550	-17272	3150	126	121	1
-7976	-6484	10736	871	1037	991	-15892	1824	1328	-2102	5657	-245	-15224	-240	4572	-3595	13777	-2500	-5428	4492	8428	5481	-28973	14733	-7028	884	-2972	-2472	-27286	-4876	-11428	3040	-9172	-10051	-16485	2505	128	124	1
-8624	-6408	10524	1722	1303	2175	-15020	780	1496	-2297	6730	-70	-14920	-1520	4504	-5957	12580	-2468	-16740	1316	10892	11740	-32768	18070	-9212	996	-6876	4800	-32768	-6075	-9068	3992	-8792	-12771	-14582	1216	132	124	1
-9256	-6216	10860	2452	1058	3059	-15620	876	404	281	6793	386	-15392	-1268	4940	-4660	13137	-2933	-17720	-1712	10180	19866	-32768	22373	-11336	-1260	-5376	7051	-32768	-6966	-8860	4224	-10140	-19716	-12621	435	131	131	1
-9960	-5368	11456	2746	832	3116	-16152	2812	-1564	-635	8210	791	-16048	-2416	2144	-4651	13514	-2167	-14728	160	8352	26495	-32768	25190	-14640	-3524	-3736	7943	-32768	-6082	-8332	3828	-11220	-25082	-10967	-153	126	127	1
-10220	-4772	11552	1983	935	2170	-16376	3668	-1992	-1315	9683	1262	-15788	-2068	-2128	-5106	14117	-2462	-15796	1020	10624	26969	-32768	24292	-19592	-1992	-8396	8176	-32768	-4694	-8592	1244	-10720	-23751	-9675	-360	124	125	1
-10808	-4820	11584	1268	953	1641	-15924	3760	-2720	-1073	9438	913	-15092	-1908	-2460	-2604	14275	-2814	-32428	5932	13564	21583	-29589	22578	-22456	1104	-11304	8393	-32768	-3635	-9128	-5308	-5468	-16989	-10049	-1897	125	123	1
-10824	-4260	11816	839	896	810	-16236	4024	-2636	-58	9099	1110	-15076	-972	-952	-969	15297	-2464	-32768	-2324	17808	18238	-27857	24319	-28880	-4788	-17304	4378	-32768	-3520	-10828	-9332	1380	-11081	-12403	-3438	130	126	1
-10056	-5448	11176	211	1085	423	-16104	2064	-444	-148	9360	1209	-15980	-2604	1240	-27	14456	-2394	-32768	-7584	15040	18497	-29498	32767	-24500	-4268	-15528	12339	-32768	-3446	-9732	-6408	6964	-5105	-5949	23	131	126	1
-9768	-6244	11588	487	1503	1207	-17088	-104	-660	2397	9219	1653	-18472	-5420	1096	1840	10861	-3468	-32768	-6812	10412	13124	-29768	32767	-23860	2784	-15600	12679	-32768	-3288	-12484	-1616	7304	11203	2790	6537	127	123	1
-10248	-6000	11408	193	2059	2027	-17332	1196	-692	3474	10479	2752	-17124	-5228	2728	-179	9068	-3569	-32768	-10948	1104	3143	-29590	27398	-25344	-436	-15504	3207	-32768	-2969	-14580	-2884	10168	10006	4762	7397	127	124	1
-10560	-6056	11956	-48	2963	3151	-16684	1568	-1828	2682	11756	3331	-17432	-1700	3184	-4679	8305	-2806	-32768	-19004	-12724	1485	-21135	19614	-17440	888	-18500	1348	-21868	1622	-18020	-2332	16496	-2876	528	6404	126	125	1
-10292	-5568	13316	-1423	5391	3545	-17728	3784	-976	613	14191	3760	-17764	-864	3132	-5435	8009	-2659	-29768	-28512	-20640	7697	-5044	11653	-10268	936	-20552	3060	-8760	5300	-16144	-10704	25256	-4404	-503	2086	129	121	1
-10176	-6184	14120	-731	10462	4174	-19856	3972	-776	2895	15670	4289	-20636	-2548	3096	-8813	3578	-1680	-32768	-26952	-17328	7881	5501	7488	-8288	4548	-19864	-1144	6145	4844	-15480	-6700	23756	1313	-5518	1781	126	119	1
-10708	-4548	15052	-658	14983	4168	-19492	6192	-2668	6080	16594	5484	-19824	-4324	1780	-8212	2411	-245	-25288	-7420	-4520	-9802	7083	756	-14536	2556	-7712	-5733	16745	2913	-15036	1664	12176	681	-2227	4628	127	131	1
-10244	-5964	15124	-1415	21558	4960	-21080	7612	-3120	4549	17790	5547	-20936	-3084	1840	-8549	1079	1086	-5808	23924	32767	-7938	4946	-11778	-32768	-17552	32767	-9018	8226	-1794	-16564	1272	-3464	-3139	8338	6844	127	124	1
-7816	-6468	15488	-1449	28514	7092	-24272	5708	-948	2323	19180	5716	-23324	-3476	4540	-8371	-2677	2097	-7888	-10640	3180	-20166	11656	-19721	-7576	-8152	-8784	-26142	3442	5379	-20672	-3456	4536	-10579	12636	4065	131	127	1
-6244	-8512	15556	-796	32767	12195	-25660	7328	1792	1845	19615	5841	-23732	-388	16448	-8480	-13414	3840	-20400	-8952	19208	-3883	25690	7280	-19364	-20516	-4812	-12445	12579	-1616	-10676	-10412	8004	-19158	9732	-6565	134	130	1
-8016	-8528	16740	572	32767	17047	-28964	8368	9520	-3574	21759	6292	-18284	10824	20400	-4042	-17447	3635	-13956	-15748	20760	-56	17297	-5867	-20772	-7120	-6832	-6533	13500	5104	-18132	-17452	-4248	-9184	11235	-1785	129	117	1
-12364	-12224	13368	143	32767	23138	-27060	2840	13540	-10119	25739	6009	-20100	7656	9072	-14321	-14336	6408	-23780	15220	10324	6307	11476	-1640	-21472	-336	-3660	-477	15397	5617	-18912	3528	-6780	9262	13673	-379	120	137	1
-32768	-10568	5552	-2562	32767	27657	-22368	1684	-13808	-3920	27883	4932	-19368	292	-280	-30484	-16841	7454	-28620	18112	11256	-4248	5584	-3012	-18532	11740	-4208	-5955	11574	6015	-17200	15136	-4220	4935	10646	5878	127	122	1
-31360	-7528	5420	-3965	32767	26659	-27584	4248	-8600	-429	26146	8195	-24384	-6696	-14660	-32768	-17772	4654	-14184	4864	11708	-3409	4011	-3280	-18416	-532	-5180	-6940	8578	3469	-16984	6436	-6956	-4576	10168	6807	120	142	1
-32768	-13476	16044	-9355	32767	21625	-21232	5876	-12232	-4722	23944	6974	-26988	-13720	-14552	-10111	-20084	-2420	-11916	3372	12500	-3689	3309	-2882	-17236	-3380	-3124	82	7810	3733	-16752	216	-3380	-2794	9979	6332	136	138	1
-3056	-23024	19048	-5108	17442	17045	-17152	-568	-9540	-3036	18090	7997	-24472	-10764	-9688	5934	-22216	-3595	-13068	3836	12512	-2362	2257	-2485	-18040	-252	-2296	5228	8085	3746	-16540	1776	-1640	1196	9844	5205	131	137	1
-16444	-27000	23548	3123	-7479	4439	-13684	-6244	-8032	-1103	7442	3887	-23664	-5068	-3188	11074	-23607	-4569	-11648	4932	12044	-1918	1281	-2062	-17736	-116	-1064	3711	7051	2915	-16800	1280	-632	2461	10012	3547	125	135	1
-4520	-13944	18760	2921	-26223	-5511	-8680	-2564	2568	-3253	-2116	3429	-21472	-4304	-4228	8237	-20548	-6447	-11380	4752	12204	-2081	1160	-1696	-17340	-948	-856	584	5676	2119	-15864	2492	-800	-121	10223	2655	127	126	1
3800	-9904	12996	-484	-31590	-5129	-10372	-3560	3012	-175	-11698	-1902	-18444	-4468	-6268	8386	-17738	-6463	-11644	4676	12052	-2173	1249	-1611	-16608	-1996	-1364	-487	4865	1649	-15648	1440	-904	-4201	10291	2451	122	129	1
-404	-9292	10960	-2494	-32216	-4466	-6896	-1184	-356	4115	-20173	-3420	-17096	-3120	-6836	11502	-15994	-6622	-10792	5008	11832	-547	1066	-1081	-16788	-2092	-540	2426	4875	1803	-16144	-644	-716	-2576	10805	3234	131	130	1
-8560	-10092	10760	-2731	-32768	-8462	-6752	-920	-1020	4438	-21407	-3628	-14340	-2420	-6084	15063	-14839	-5346	-11520	4156	11448	101	708	-1181	-16416	-1276	-456	4380	5114	1617	-15900	-1512	844	2615	11676	4938	129	130	1
-10540	-8872	9576	-1701	-32768	-13437	-9680	2784	-4704	-2791	-32759	-4570	-14124	-3648	-5888	17724	-13736	-4607	-10524	5492	11132	-40	539	-1520	-16492	-1432	424	4350	5217	1611	-14296	-1392	996	5163	11747	5288	124	129	1
-11788	-6348	7372	-2903	-32768	-17859	-11192	3744	-2480	-3373	-32768	-5301	-13928	-2540	-8632	22513	-11989	-4542	-11432	3588	11520	112	452	-1930	-16144	-1540	364	2874	5341	1513	-15520	-804	2024	7742	11741	4623	124	130	1
-14568	-8352	7920	-2693	-32768	-20570	-10844	4860	-5640	-5023	-32768	-7287	-11264	568	-8604	26515	-12178	-3774	-10424	5676	11100	-139	539	-2291	-16464	-1368	1760	2352	6031	1684	-15736	-392	2644	8035	11719	4576	129	132	1
-16852	-7904	9756	-1168	-32768	-21872	-14592	4876	-6108	-7371	-32768	-9577	-9068	3804	-8428	20610	-11545	-1954	-9860	7164	10932	-1493	1033	-3780	-17044	544	1844	1092	6238	1833	-15812	724	1092	6582	13878	5646	129	131	1
-17232	-5944	12580	-3133	-32768	-24608	-17624	5304	-6128	-6282	-32768	-10640	-8076	2704	-7536	11894	-7728	-1413	-11716	4868	11264	-2947	903	-5570	-16632	-416	-604	-382	6281	1824	-15448	100	2404	-2338	16656	7808	132	131	1
-23392	-4828	17152	-9330	-32768	-26972	-21228	7892	-8092	-6567	-32768	-10961	-7616	2520	-6088	5140	-3646	-2000	-11776	4556	10884	-3419	1105	-5649	-16748	-1960	-1088	1042	7720	2037	-16488	720	1224	-6406	20295	9828	127	135	1
-30740	-6828	19232	-14094	-32768	-25540	-27620	9180	-10708	-9116	-32768	-13715	-9120	6020	-1424	2092	-2833	-1563	-12044	2792	11720	-4027	869	-4897	-15336	-2096	-260	2897	9980	2619	-17984	1492	-708	-1939	15994	6483	131	133	1
-32768	-6160	19428	-13254	-32768	-23180	-29040	11408	-14444	-7590	-32768	-13738	-11748	5812	6040	3863	-4331	-1078	-12108	2748	12848	-3010	1379	-4202	-17700	-1328	-804	1801	11030	2598	-19608	960	-304	-1190	10488	3830	128	131	1
-32768	92	14228	-11182	-32768	-24755	-25644	9540	-17636	-11614	-32768	-10578	-15272	-3948	10548	-3846	-5976	-3061	-12404	2060	12548	-1996	2105	-3467	-17080	-1684	-1096	558	12328	1934	-17716	-828	1260	-1448	9026	3697	124	131	1
-32768	1264	2416	-5586	-32768	-22299	-20720	8596	-18224	-9955	-32531	-8804	-17208	-4092	11876	-1169	-2303	-7632	-12804	3324	12096	-1467	2845	-3300	-16700	144	648	1149	14064	1671	-16836	-1720	3128	974	9047	4419	125	130	1
-32768	9124	-9540	-4772	-26204	-15932	-17252	7540	-20360	-8218	-22590	-9516	-15252	4604	18596	2477	-1820	-6303	-12700	6204	11952	-2884	3413	-4173	-17296	1688	944	-1822	15192	1325	-17624	-272	3508	3946	6845	4842	123	131	1
-32768	19808	-18492	-11694	-14242	-7860	-8744	7180	-21236	-6443	-9380	-8417	-15304	748	23236	-4952	243	-633	-12164	4212	13908	-2825	5478	-6473	-19068	-920	-1820	-4466	16396	186	-17772	2128	1524	4381	5200	4074	124	131	1
-32768	19508	-18756	-11537	239	-2414	-7032	6364	-20628	-3276	4770	-2298	-13924	-2360	21440	-6026	-4531	684	-13432	2100	14364	-5163	9750	-6882	-20880	-2032	-3104	-7105	17209	-406	-20084	3936	-392	3948	4616	2700	120	130	1
-32768	8856	-12872	5154	11293	3883	-9884	4792	-20048	3168	15178	2708	-14188	-3092	20552	-5425	-5072	452	-12296	3768	15104	-6641	14315	-8437	-20308	-2052	-3136	-7600	17340	-360	-19996	1904	1060	4998	3667	778	119	128	1
10240	-1860	28372	15308	3094	4809	-23104	5480	12196	-6729	20426	7457	-11532	-3700	1136	-5100	2498	-701	-11076	4080	16508	-6961	19390	-10631	-22064	-5456	-3284	-7476	18912	143	-20180	-1260	2196	6670	1558	-177	120	127	1
23272	-32768	32767	6583	15569	8926	-32768	1108	32767	7622	5293	-507	-15328	2744	-8056	-3132	15401	2253	-9360	4160	17724	-8562	27000	-11445	-26032	-6156	-628	-5830	20288	393	-23520	-3260	5000	6521	-4188	-505	130	126	1
-21080	8960	4252	5784	20925	10403	3876	18368	-14420	21270	6733	356	-16732	3572	-6420	-5046	16737	3072	-7604	3080	17804	-9031	32767	-14731	-25896	-10608	2424	-1195	21920	1677	-21556	-9216	16576	-1204	-17582	-4097	125	129	1
-12896	-7996	18436	-1500	25213	1040	-28192	11592	-80	3364	13879	5634	-15592	-220	9296	20795	9584	-1000	-10048	8024	18064	-9881	32767	-16612	-28924	-17208	12652	8854	25809	3060	-16224	-22104	13320	5000	-13979	-14082	121	129	1
-19772	3636	18352	-6542	17331	9249	-17864	6920	-3476	1488	14650	2457	-16688	8696	5324	8120	12587	1235	-21568	3648	15840	-9953	32767	-25423	-28112	-7044	6808	12867	28747	4556	-19652	-11084	12384	12663	-16481	-16082	125	124	1
-15484	-22496	8264	-2457	11805	4826	-21728	1324	-3652	3010	15038	-226	-20860	2132	-444	-7074	12871	2408	-32768	-2220	6588	-2696	32767	-27928	-29492	4736	-11448	4788	31000	3677	-18640	5040	2140	25518	-13400	-12738	132	133	1
-29336	-11436	12308	4490	7822	4975	-17888	-2436	-8852	6489	12868	-696	-16248	-8108	-1496	-12291	11662	-3072	-32768	11936	15856	-6262	32767	-32441	-28880	2336	-6484	-6060	21851	1750	-30228	8944	-15100	32767	-8439	-4943	133	134	1
-12052	-3644	12284	5126	4730	4809	-16556	3768	-5780	3651	11105	282	-14696	-9936	-6684	-10524	10997	-4074	-32768	11328	24260	1649	32767	-28746	-20392	4924	-6528	-14019	16930	669	-32768	2264	-14908	12805	-21411	6446	137	136	1
-11316	-7256	10816	5304	3031	4582	-16932	1752	-4588	-2086	10740	79	-15364	-8140	-4896	-3553	10505	-2674	-32768	5460	16444	-4674	8812	-19100	-15684	2788	-12588	-8594	10220	-335	-27468	3636	-6172	2296	-32618	1575	135	137	1
-11076	-5540	12216	4255	1857	3899	-17044	3160	-3092	-500	8111	593	-17012	-5204	-976	2683	12374	-1803	-16780	13240	20512	2515	-30775	1050	-9672	1460	-1700	1580	2846	-2338	-26868	820	-1092	1343	-30261	-731	131	132	1
-10356	-5012	12508	2787	1758	2446	-17308	4404	-1616	1285	6786	623	-16336	-2840	960	4098	12137	393	1544	10948	14052	3634	-32768	6950	-8732	-844	2580	4387	-5555	-1346	-23756	1500	-7144	4379	-22045	2021	132	123	1
-8840	-6500	11308	1977	1911	1511	-16468	3024	-496	1897	6423	-197	-15376	-2652	824	4481	12632	769	796	8800	9860	3646	-30961	6425	-6408	1132	-248	3741	-13583	-2764	-18148	2824	-8352	2841	-19086	3102	121	119	1
-10188	-4788	11788	1494	1427	1149	-15864	2680	-1532	2666	5532	26	-15844	-1144	532	5106	13166	-345	-4280	5828	8404	4424	-31977	8381	-5888	2600	-2300	1393	-20470	-4891	-15672	3344	-8620	-1403	-18134	2934	127	120	1
-9648	-6344	10884	1252	1219	988	-16172	2612	-2012	1077	5375	885	-15504	80	108	-211	15223	-1286	-6220	5076	8124	8147	-32768	11753	-7132	748	-3004	1111	-26822	-6656	-13904	2816	-9152	-6884	-17952	2209	127	124	1
-9040	-6464	10696	1424	856	1802	-16276	3128	-1576	-2613	6028	172	-14716	-1040	-1324	-4447	16579	-2628	-13000	5336	9092	10200	-32768	15173	-8128	792	-4952	4478	-31374	-6851	-11888	2472	-8868	-9032	-17399	1404	128	124	1
-9944	-5072	11400	1496	1033	1945	-15972	4176	-1984	-2106	5357	-148	-15068	-812	-1364	-5037	16673	-1719	-14924	2408	9740	13839	-32768	19627	-10556	372	-5208	7413	-32768	-7108	-10288	3748	-8772	-12535	-15293	347	132	124	1
-10312	-4800	11544	828	1267	978	-16648	4336	-1840	-1798	5552	-253	-16292	-672	-368	-5695	16887	-369	-13244	988	9404	20496	-32768	23375	-12452	-1244	-4116	7228	-32768	-7482	-8768	3628	-9784	-20314	-14173	-613	128	126	1
-10060	-5312	11524	366	1438	646	-16276	2972	-2004	-1845	6456	-31	-15452	-1528	948	-6043	17493	-921	-13856	2464	9224	24766	-32768	23148	-16688	-1944	-5696	6501	-32768	-5204	-6952	2808	-11040	-25444	-13723	-1407	126	119	1
-10360	-5700	11080	508	1339	592	-16204	1668	-1700	-3403	7526	426	-14472	-3024	1544	-1092	19392	-3747	-19676	4020	11460	23454	-29586	20492	-18040	-236	-9816	7736	-32768	-5065	-7408	-1492	-8452	-22111	-12622	-2536	129	123	1
-9920	-5888	11020	448	1397	693	-15956	1528	-160	-2344	7980	1150	-16172	-956	3040	2446	19609	-5482	-32464	3020	18576	21594	-28666	22461	-23428	-2952	-14464	9626	-32768	-3823	-8060	-6824	-5588	-12359	-10532	-4075	126	127	1
-9892	-5908	11336	33	1629	1353	-16140	1096	828	-1205	9044	1633	-19080	-3200	3304	-2885	14591	-3454	-32768	-764	20020	21234	-32768	29420	-25852	-4476	-17600	14945	-32768	-3444	-11184	-5908	276	-5908	-11865	-4332	125	127	1
-10108	-6092	11668	-219	2117	2169	-16852	712	880	564	10441	2326	-20152	-5808	2760	-4401	9486	-2389	-32768	-7340	13524	22026	-32768	32767	-23792	-236	-17176	20892	-32768	-1923	-9604	2308	1712	6175	-1105	4099	123	123	1
-10604	-6852	11596	-657	2717	3058	-18100	704	-88	2733	11331	3357	-18448	-3140	4248	-2077	9182	-3344	-32768	-7716	9812	15263	-32768	29329	-28256	4744	-17584	8123	-32768	-3292	-14216	4196	5568	12867	2904	9026	124	127	1
-10268	-8108	11636	-1124	4403	4452	-17592	664	-708	2281	12835	3465	-16856	-2060	3656	-5275	9650	-2865	-32768	-14404	-460	8852	-29136	23138	-23440	-1864	-20144	2841	-32768	-2445	-17704	-1688	11920	72	3	8352	123	127	1
-11064	-5956	12488	558	7895	6353	-18684	3604	-240	2850	14330	4625	-19840	-2432	2596	-6358	7779	-2625	-32768	-19508	-15468	5197	-18154	18479	-15268	2320	-24892	-876	-22511	2058	-18520	-4836	20060	-8155	1382	7826	126	111	1
-10844	-5140	13916	350	10837	6339	-17404	2392	596	7660	16263	5329	-19600	-2556	5252	-5447	3942	-1729	-32768	-32768	-22676	8372	-5121	14995	-7300	888	-26232	-509	-5883	4563	-11976	-13608	26560	-4696	1997	1788	125	116	1
-10520	-5644	14508	709	15684	8237	-17560	2828	124	8714	16431	5433	-19188	-4044	2892	-3963	2725	-419	-32768	-28716	-18456	5885	5676	9499	-8116	5704	-23012	-2935	11360	4902	-13992	-3764	20808	-120	-3104	1130	124	118	1
-10228	-5608	15168	434	23809	10112	-22548	8148	-4316	8692	18285	5543	-20248	-3548	-904	-4947	3493	578	-30732	6924	24600	-16532	8068	-9918	-23264	-10488	7432	-12026	13833	-397	-11080	2584	3348	897	6378	4996	122	128	1
-7228	-4604	15520	606	30243	11978	-21884	7300	-1692	4535	19467	5210	-21964	-2116	2048	-6465	66	1709	16348	32767	32767	-16755	26000	-25415	-28848	-6576	15984	-21310	-4205	9574	-27324	-5200	944	-2029	15527	6546	121	127	1
-7808	-6964	14504	1774	32767	13841	-25392	6296	2624	4753	19895	6586	-24288	-988	14404	-6366	-10805	2346	-21952	-32768	7412	-10299	23730	-9226	-5268	-26896	-10228	-18788	9369	-3119	-20208	-5976	10020	-15692	3629	807	123	122	1
-8936	-7928	16532	3272	32767	17507	-27784	8880	12056	-1086	22756	6529	-17696	8340	18816	-6852	-22418	3100	-17252	-3732	18628	-3444	23539	-7214	-25532	-11432	-5228	-5355	14478	5950	-13320	-25104	11276	-20068	16639	-5815	123	128	1
-16876	-9888	14404	1672	32767	19959	-26708	8796	11932	-10061	27982	6692	-19360	11208	8620	-14403	-14348	6411	-30368	8276	10624	4853	22149	-9822	-23300	2852	-2024	1953	17832	6164	-12792	-9416	-2332	9364	11195	-2927	121	121	1
-32768	-14112	7764	-150	32767	23897	-26552	2480	-14104	-4771	31823	6122	-22024	784	2904	-29993	-19748	7977	-32768	27732	7868	-6923	11244	-5283	-22792	14788	-2636	-4306	14702	8303	-22096	20204	-4332	11445	9522	2498	134	132	1
-32768	-11212	14492	-1580	32767	24494	-31568	3368	-5464	699	25936	7955	-25540	-7252	-20248	-32768	-19351	5056	-15292	1464	11120	-9133	4851	-7580	-18220	772	-4456	-12948	11276	4301	-17616	17196	-7892	-1211	10339	8980	128	138	1
-27896	-14132	20868	-8182	32767	20502	-24240	3100	-7504	-2120	25450	8221	-29424	-16468	-12152	-8757	-20750	-3909	-18420	800	12764	-9745	2066	-8325	-15412	1976	-5576	-6789	10163	3719	-15864	1636	-3908	-6685	6871	6594	128	134	1
-32768	-17748	18152	-931	13506	18356	-16364	904	-10208	95	15981	6997	-27764	-11060	-8192	9750	-25077	-3671	-12812	2564	13192	-4677	257	-5436	-18364	-5676	-3644	3334	11372	3006	-16420	1332	-2512	-2169	9263	6011	128	140	1
-8328	-18964	21288	-1382	-21775	-888	-11168	-3488	-4748	-2001	4842	4022	-27316	-2144	-2888	14490	-26710	-3049	-12448	2188	12812	-2668	54	-4037	-17484	-1140	-3252	8292	11659	3458	-16912	848	-3012	2154	10702	5039	127	133	1
3872	-12612	16808	-3083	-27519	-5527	-10236	-1708	3844	-6436	-3961	-360	-23524	-2424	-3272	6017	-22925	-5507	-11160	3064	12248	-1900	-197	-3359	-17708	-432	-1968	3912	9327	2426	-15404	2928	-2056	-764	10369	3709	127	128	1
2668	-9584	12232	-5433	-30218	-4465	-9804	-2080	3304	-6177	-5269	-1450	-18820	-3428	-7000	3628	-19817	-5657	-11228	3812	12028	-1933	-192	-3498	-17476	992	-1748	-3304	6116	1860	-15460	2984	-1536	-4604	10625	3214	129	126	1
-3380	-9744	10464	-4812	-32768	-4633	-5660	-1432	-2036	-940	-21439	-5375	-15884	-2356	-7676	6055	-17450	-4980	-11236	3224	11696	-1762	48	-2979	-16688	-2224	-1968	-7537	4691	1079	-16000	356	-620	-7507	10309	3862	131	125	1
-6352	-7544	9744	-5359	-32768	-9514	-5988	1868	-3408	-2122	-27999	-5959	-13420	-2180	-8132	9224	-15791	-4679	-10988	2656	12184	-1154	759	-1976	-15332	-5724	-692	-1417	6134	1644	-16392	-5116	652	-6880	9771	4769	122	129	1
-9032	-7608	9020	-6623	-32768	-16042	-8524	3516	-3904	-8137	-32453	-6861	-12120	-3456	-8388	10590	-14039	-4235	-10972	3172	11868	-665	1095	-2003	-15704	-3036	-248	6597	8371	2992	-14940	-5368	2504	3435	10677	5120	121	129	1
-13116	-9524	9344	-5018	-32768	-20680	-11384	2392	-5292	-9607	-32768	-8335	-11220	-4576	-8448	12958	-11906	-4008	-10756	4260	11928	-841	1253	-2420	-16964	-764	232	6792	8806	3166	-14072	-1936	2008	11910	11829	5097	122	131	1
-16384	-7708	9672	-3202	-32768	-23194	-12304	3908	-5340	-7080	-32768	-9964	-9712	-2756	-9948	20501	-10667	-3310	-11200	3452	11848	-1856	1224	-3018	-16284	256	-1044	1028	7852	2354	-14456	1164	-1052	13329	14622	6209	127	130	1
-18620	-5980	10880	-4948	-32768	-25331	-15448	6060	-6284	-8038	-32768	-11023	-8560	-156	-10976	24017	-10671	-3088	-12052	1712	11516	-2319	640	-3396	-16852	-596	-2788	-1586	7268	2147	-16356	1452	-2504	8074	17107	6866	123	130	1
-23580	-8292	13804	-7309	-32768	-27933	-19712	4804	-8596	-7033	-32768	-11915	-8284	1496	-9160	18287	-8765	-2861	-11888	3336	12340	-2477	196	-2774	-17500	-1372	-3508	1151	8162	2648	-16620	1972	-2360	1031	18881	8192	127	128	1
-28348	-8580	16280	-8617	-32768	-29666	-23540	8140	-9760	-5035	-32768	-12736	-8616	2408	-5280	11328	-6288	-2305	-11508	2228	12660	-1976	417	-2136	-17196	-3092	-4836	3829	8660	3331	-15952	1096	-2180	-4249	20498	8909	131	129	1
-30488	-8220	17800	-9726	-32768	-27661	-28444	10848	-10828	-6572	-32768	-14741	-9044	6616	-916	7355	-4725	-1485	-11708	1644	12676	-1099	1335	-1035	-17740	-1936	-2232	4032	9266	3160	-16936	1844	-1660	-1277	19110	6476	129	131	1
-32768	-5128	16240	-11049	-32404	-28813	-27992	9936	-17904	-6842	-32768	-13653	-10800	4968	4356	5840	-3193	-1093	-12164	2820	12196	-1428	1971	-1611	-15568	-180	1320	1998	9928	3097	-19124	1172	3504	2683	10926	4739	126	129	1
-32768	-7656	7188	-3447	-32768	-24206	-29564	9052	-18712	-5187	-32768	-11734	-14028	-3996	11964	-2764	-1301	-2924	-12152	2984	12192	-1270	3160	-3027	-17848	1168	1160	310	11797	2018	-18776	-832	7532	838	7731	5014	124	131	1
-32768	9448	-3432	-2328	-31206	-24009	-19620	9092	-22652	-6125	-30212	-8486	-15704	-4920	13488	-3191	-1314	-3269	-10836	2744	15052	-2609	5445	-5333	-20172	-1736	-328	-368	13508	1531	-18792	-2560	4684	1546	9509	5849	124	132	1
-32768	11980	-18040	-4094	-21181	-16893	-14192	7464	-22680	-4065	-18823	-9157	-15040	1280	23468	5107	887	-5905	-11672	2632	14764	-3091	9449	-6354	-18940	-3276	-704	-1070	16074	1334	-20584	-1492	3244	6653	8160	4663	116	133	1
-32768	26424	-24252	-9556	-6396	-8794	-6184	6944	-23404	-1292	-2455	-5079	-17068	2660	25672	-4692	-1640	80	-11104	2072	15872	-5499	13133	-7014	-20396	-2592	-1540	-5441	17372	752	-20972	296	3352	7471	5314	2341	120	131	1
-32768	14324	-18520	-2921	6318	-1849	-7468	4704	-23100	2309	12439	762	-16276	-3328	19032	-3926	-6650	543	-11212	3164	16076	-7355	17716	-8035	-22476	-3344	-2056	-7200	18502	637	-21592	1468	2668	6951	4319	1123	122	130	1
272	-10168	4612	18459	8165	12209	-23980	4832	-6928	1478	19603	3418	-13992	-3900	6936	-4441	347	-1065	-10104	3776	17324	-8362	23820	-9438	-25480	-4456	-860	-5837	19570	938	-23248	1788	3892	7918	1819	-218	125	130	1
10204	-4876	19924	19394	9617	13907	-32768	-692	22284	20534	5373	-2446	-20600	-2100	-620	-8435	11224	-785	-8520	4304	17652	-10442	32767	-12507	-26848	-7840	3504	-4764	21234	968	-25236	-396	9456	8595	-5200	-1539	131	129	1
-28968	16080	13696	7059	23433	9880	484	21464	-9152	20837	10559	5290	-17152	-7364	13012	5813	300	-2894	-6416	3256	20944	-11546	32767	-15094	-28424	-16528	8212	3905	23648	2778	-22588	-13636	23452	-4417	-23388	-8497	129	130	1
-16284	3432	19536	-1056	22867	5007	-27440	22176	-3328	8298	16456	5429	-14420	10400	8760	22199	12631	3040	-16804	8780	16972	-9869	32767	-18442	-30632	-18008	15072	18871	28208	5683	-21304	-23712	15952	7705	-16976	-16168	122	131	1
-17800	-148	17476	-4876	15645	9938	-18968	6372	-2684	-423	20382	880	-19356	16528	-256	13476	12131	3726	-32768	-2312	2532	-3875	32767	-26596	-28340	5104	-10096	13329	32767	7521	-16468	-4656	8036	16630	-16342	-14659	132	130	1
-13724	-16588	9544	-1107	13020	6684	-19180	-1848	-4444	2707	17917	-864	-16336	-5952	-4920	-10084	12643	517	-32768	4260	11052	-3561	32767	-30751	-30972	6932	-6348	-1591	29648	3147	-23976	9296	-7572	32767	-7950	-12575	132	129	1
-32768	-21432	12000	6167	9221	7665	-18912	-6628	-9984	8405	13348	-1068	-13060	-13116	-4576	-10796	9845	-3009	-32620	11612	23416	3146	32767	-31624	-23180	-120	-640	-6214	18770	3210	-32768	3856	-14240	25699	-15327	-177	125	130	1
-11160	-2068	12868	8993	3045	9363	-16080	1164	-6092	12009	8527	163	-17160	-11708	-7740	-5825	7831	-6483	1748	19856	20176	5994	30720	-27677	-18112	3728	-8628	-10344	12776	2340	-32768	6016	-13860	6128	-27864	7328	132	139	1
-12192	-4104	12228	8035	1354	8204	-16536	6436	-5772	3593	8609	296	-15780	-5188	-3668	752	11988	-5332	-32768	13940	20780	7063	-9107	-3313	-9996	3312	-11800	230	7658	-107	-26108	1612	-2908	975	-32768	160	133	135	1
-12652	-1804	13576	4706	546	4782	-16908	9148	-4272	-2020	8479	388	-22000	-1264	836	1053	15221	-166	-10672	16736	17640	1763	-32768	8987	-11504	-1436	1088	4714	-1827	-1175	-27676	776	-3312	4063	-27565	1526	134	125	1
-10712	-2408	13512	1444	856	1199	-17604	7320	-1664	-5501	9293	-373	-15112	1492	2372	4262	14561	395	2992	9484	11732	-580	-32768	12346	-7220	-164	1424	2677	-10746	-1306	-22676	2256	-8656	5968	-20717	2828	127	118	1
-10096	-4652	12012	21	968	48	-16740	1936	-508	-2783	8563	-985	-15868	-824	1804	1756	14266	1080	948	4904	9712	1964	-30690	13552	-5780	1180	-852	1454	-18625	-3133	-17692	2548	-9852	2401	-18910	3797	117	119	1
-9340	-5028	11132	-29	760	128	-16192	424	-56	5164	5755	-518	-15012	-2060	1528	1861	13738	-1272	-3888	3524	8944	7540	-29325	14405	-5292	876	-2208	1105	-25674	-4289	-14148	2428	-10200	-2745	-18237	2936	125	119	1
-9060	-5512	11204	359	722	655	-15552	2780	-820	7304	4491	-332	-15232	-2540	-232	1820	15073	-1721	-9980	3860	9400	12005	-31812	15519	-6004	484	-4216	3582	-31015	-4511	-11604	1500	-9876	-6051	-16854	2319	126	123	1
-9328	-5812	10996	928	794	1377	-15376	3096	-1748	27	6591	-47	-14852	-1616	916	-533	15309	-2868	-15156	2992	9992	14111	-32768	17154	-8592	-240	-4844	7803	-32768	-4382	-9548	1976	-9228	-7708	-14778	1217	123	126	1
-9988	-4936	11288	1738	774	2096	-16168	2660	-2200	-4680	8339	-555	-15104	-1996	464	-4789	17083	-2892	-15988	844	10356	17520	-32768	20506	-10440	-1528	-4728	10129	-32768	-4892	-7580	3184	-10136	-12417	-11701	642	133	131	1
-9988	-4252	11808	2096	662	2217	-16428	3128	-1580	-1452	8131	-421	-15428	-1088	28	-5643	19486	-2692	-16132	848	10756	21688	-32768	24263	-13276	-2196	-4792	8592	-32768	-4819	-6780	4052	-11216	-18378	-10489	117	124	125	1
-10288	-3604	11764	1770	260	1880	-16040	3600	-2032	2711	8089	-154	-15332	-40	96	-3733	20190	-2526	-17116	1364	12612	24093	-32768	27593	-18332	-3072	-7120	4137	-32768	-4320	-5872	3860	-11836	-22329	-10456	-479	126	122	1
-10072	-3616	12180	1031	789	1157	-16092	4616	-2480	944	8302	179	-15268	472	1060	220	20644	-3600	-26076	-276	15640	23300	-32768	28759	-20920	-2992	-11552	6844	-32768	-6327	-6260	3776	-11140	-22486	-10625	-450	129	118	1
-10428	-4420	11412	455	1328	1266	-16260	2536	-2440	-2590	8897	-197	-15316	-1936	428	2466	19847	-5473	-32768	1276	20064	22010	-31439	29663	-27464	-5728	-14588	8351	-32768	-5218	-10612	-5564	-2284	-16340	-12978	-2729	130	121	1
-10368	-3992	11800	6	1671	1156	-15636	2184	-1316	-2858	9244	475	-16868	-5192	104	95	14891	-4747	-32768	-7188	20804	19332	-32768	32767	-29064	-3456	-15924	14271	-32768	-6080	-10124	-5764	2588	-9718	-9998	-1625	123	125	1
-10368	-4732	12148	-217	2129	1469	-17060	644	-408	-173	10138	1313	-19288	-4924	3000	-2701	10653	-3721	-32768	-5372	8952	16526	-32768	32767	-26524	1684	-18096	16896	-32768	-4560	-11560	-2040	5816	11535	-1851	5001	120	126	1
-10492	-4580	12236	-291	3079	2016	-17156	684	-404	1506	11608	2488	-18540	-3028	6616	-3104	9802	-3766	-32768	-9356	-2820	7969	-32768	28147	-26736	1220	-18420	4662	-32768	-2812	-17848	-4340	12064	5417	1626	6340	125	126	1
-10264	-5592	13128	378	5548	3443	-18400	968	376	1345	13830	3386	-19212	-1452	6296	-6652	8613	-3262	-32768	-20912	-15832	8167	-22699	23663	-18288	648	-22708	4078	-24836	2283	-17408	-8584	19188	-2638	-981	2747	125	118	1
-10696	-5732	13884	1775	9604	5555	-19428	1092	964	4830	16396	4240	-20880	-3452	5388	-8329	5267	-2928	-32768	-31288	-23968	10968	-6417	16276	-10672	1456	-24848	4987	-8710	5256	-15828	-10712	27916	-1310	1029	1836	127	113	1
-10684	-5196	15352	2569	13227	7991	-19020	2848	-1512	9931	17777	5358	-19036	-6440	5248	-6859	2609	-2477	-32768	-29600	-21248	5450	3283	7097	-6956	7088	-22768	-1386	8415	4571	-14760	-2072	23608	1661	-3402	3105	127	132	1
-11236	-6128	16276	3475	18538	10458	-22128	5392	-3744	9180	19225	5685	-20184	-5832	1496	-6235	2044	-653	-32308	-22496	-12800	-10220	9520	-6394	-11680	3664	-20076	-10783	19749	3026	-16096	2028	11528	-1753	-2664	5287	130	125	1
-7504	-6632	16508	4871	24146	13356	-23328	4868	-2332	7176	20079	4477	-21124	-3024	2484	-9007	-215	680	14348	31476	32767	-5626	-3701	-14782	-32768	-30092	32767	-4321	9918	-3070	-12612	-4504	-3296	-6749	14302	5352	134	117	1
-8800	-4672	17752	5379	31263	19248	-25544	5908	-912	5972	21115	4623	-25608	-1524	14012	-10874	-9220	1220	-4024	-14368	-1440	-20751	14512	-32768	-1560	-8408	-14848	-24132	3614	8796	-23660	-13636	5716	-3819	14277	-2909	130	141	1
-5204	-5592	17216	6515	32767	24559	-31564	11560	9576	-1511	23261	5778	-26164	-1708	18360	-9551	-13094	1143	-23080	-3920	21756	1069	30641	3010	-24904	-20552	-4204	-2293	17347	-2986	-15560	-8288	4028	-13748	5564	-5672	123	151	1
-8100	-4436	17012	9368	32767	26123	-24492	13744	12092	-11734	27028	1663	-20488	19808	9936	-12969	-12055	7030	-17236	-9264	18688	2551	24352	-5943	-19700	-4548	-4884	-3107	16543	4638	-15500	-15732	3460	5924	12817	-1092	112	123	1
-32768	412	9216	-4259	32767	17776	-22720	10720	-5756	-22760	32767	1573	-20188	11148	4180	-32768	-19412	10368	-26696	22808	16292	-194	13937	-4238	-23648	3404	-308	2234	16040	6470	-20296	8472	-7248	14601	10300	-155	125	134	1
-32768	-7436	6904	-6861	32767	21206	-27084	-1424	-9996	-16402	32182	3276	-23316	-5032	-11672	-32768	-18267	8705	-15708	-7260	15740	-7863	6431	-8427	-19012	5932	-5896	-11037	11758	5893	-23576	24728	-7476	-919	14337	7157	115	137	1
-32768	-10132	16516	-4663	32767	27421	-24132	-372	-5196	-15997	24492	3889	-27428	-19840	-18748	-24118	-19553	-1500	-14520	10016	10384	-8512	2524	-5919	-17308	4228	-3212	-9463	9258	3135	-14584	6748	-6616	-9539	12140	6649	132	137	1
-32768	-11360	19052	-6160	32767	27016	-19928	-3652	-8768	-1940	17892	5463	-26476	-15400	-10372	6986	-23311	-5755	-14500	3804	12060	-6035	907	-5699	-16704	-2152	-3512	-4838	8566	1724	-16284	3024	-1332	-10655	8808	4823	132	135	1
4092	-18920	25920	-12485	23339	19003	-8768	-1680	-13036	5809	3988	4375	-23740	-7360	-4868	15987	-23295	-4245	-12528	3468	12276	-3861	469	-4084	-18452	-1852	-3084	2763	9652	1909	-17232	2196	-2296	-6150	8783	3563	127	126	1
-6840	-18256	19324	-1853	-31051	-13053	-11476	-1164	2140	-1856	-2705	2771	-23468	-3756	-5340	11586	-21239	-5571	-11872	3232	12872	-2659	356	-2917	-17236	-1928	-2644	3014	8966	1430	-16656	-2320	-1240	-8688	9052	3217	124	127	1
2292	-10968	11080	1621	-32768	-13129	-10976	-1924	1720	-293	-12369	-3952	-20880	-4132	-6524	9955	-19283	-7279	-11560	2848	12400	-1314	803	-1196	-17100	-3436	-1328	2049	8060	1257	-15132	-3620	92	-4490	9744	3582	124	124	1
-1736	-6192	9384	1642	-32257	-13493	-7136	280	-728	4737	-21440	-3910	-17956	-3312	-6916	11319	-17673	-7716	-9900	5720	11448	-1577	1244	-1528	-17460	20	-1768	-1007	5985	1652	-15356	-240	-3444	692	12010	4949	132	128	1
-6992	-6060	9244	-823	-32768	-15269	-6468	816	-3936	6702	-28807	-4506	-14104	-1252	-7988	13511	-16031	-7270	-11984	3344	11604	-1319	962	-1767	-16088	-2632	-2820	-1885	4600	916	-15072	-960	-3336	2073	13306	6053	122	128	1
-10956	-7260	10176	-1809	-32768	-19058	-9332	3160	-5232	241	-32768	-4535	-13928	-1524	-7748	14060	-15699	-7077	-11952	2908	11684	95	601	-1123	-15544	-4224	-1776	3836	5572	1692	-15020	-2536	-1088	3231	13560	5576	123	127	1
-14104	-6432	9820	-2210	-32768	-22587	-12620	3452	-4404	-1695	-32768	-4998	-13040	-3096	-7432	18495	-13655	-5691	-10744	4128	11596	745	638	-1089	-16720	-2212	196	6814	6354	2439	-15220	-2596	1808	9356	13137	4671	121	127	1
-16896	-5796	9912	-2700	-32768	-24807	-12356	4844	-5500	-1473	-32768	-6761	-11528	-980	-8036	23499	-13342	-4880	-9792	6384	11036	117	1030	-2261	-17148	836	2056	3870	6108	2221	-15928	1660	1564	13591	14873	5171	116	131	1
-16080	-5200	10588	-3987	-32768	-24598	-15004	5404	-4868	-4849	-32768	-8570	-9428	1604	-8960	23477	-12812	-3361	-10884	6524	10592	-1726	704	-5193	-16724	1520	968	-1029	5152	1583	-16444	2676	732	9199	15871	6549	125	127	1
-17512	-6908	12948	-4602	-32768	-23600	-18148	4684	-6592	-4427	-32768	-10281	-8812	2048	-9028	22960	-12679	-3309	-11144	6044	10948	-3699	-337	-7404	-16604	-284	-500	-1665	5752	1654	-16648	3760	1856	-1757	16287	7676	128	131	1
-22424	-5288	18108	-6211	-32768	-23358	-22420	7400	-9144	-3027	-32768	-10931	-8440	3512	-5888	10860	-6155	-1267	-12296	1532	11880	-4745	-1259	-5746	-15692	-2484	-2112	1599	8164	2099	-14944	172	404	-4030	15005	7524	126	130	1
-32768	-2552	22936	-13864	-32768	-24579	-25360	11132	-13616	-9555	-32768	-11430	-8540	5516	-3792	5420	-3243	-1290	-11792	2840	12420	-4072	-1628	-4541	-15952	-2624	-1188	2099	9807	2623	-16144	-1536	1668	-2812	14211	5764	127	131	1
-32768	-2516	19736	-18490	-32768	-24416	-28520	9744	-16700	-16986	-32768	-14003	-11124	6268	-236	5310	-2346	-2038	-11628	3636	12292	-3341	-205	-3065	-17476	-796	864	-554	10897	2235	-18676	-1736	3676	-2447	13069	5812	123	129	1
-32768	1324	9604	-17870	-32768	-23025	-25636	8276	-18460	-14999	-32768	-13869	-12716	-1864	3388	-4172	-882	-3160	-11392	3724	12508	-2860	611	-4076	-17268	352	2000	-1946	12745	1824	-19912	-408	5848	-2256	10783	5882	122	131	1
-32768	6388	-668	-12527	-30815	-20465	-24028	11916	-21576	-10658	-32603	-12425	-19660	216	14404	477	-4000	-5169	-12616	2952	12996	-2531	2180	-5104	-17872	-536	28	-1651	15141	1644	-16908	-3764	5104	2464	10246	6519	122	134	1
-32768	12880	-12584	-6705	-19368	-16513	-16840	6536	-24900	-6292	-21676	-11549	-18900	176	24536	783	-6152	-5694	-12380	2052	13916	-3598	5499	-7019	-18440	-1752	-1712	-2502	17074	1157	-18096	-1508	3020	5126	9103	6400	116	134	1
-32768	27688	-22912	-6925	-7312	-9127	-4788	7896	-25456	486	-8381	-6056	-13616	1432	26868	-8378	-30	-1905	-12572	-64	14484	-4498	9829	-7157	-18656	-3120	-2816	-5564	18941	-368	-18376	3216	1084	3477	5827	3604	116	132	1
-32768	29876	-23264	-7874	-5105	-8382	-4512	7092	-25040	1755	9744	419	-12736	-3524	21852	-5769	-4760	-161	-11864	3048	15732	-6220	14220	-7478	-20928	-1916	-4244	-9162	19287	-793	-18908	3816	-116	3872	2872	669	121	129	1
-25564	6004	-6420	7322	11804	5301	-13692	7332	-16788	820	20910	5014	-14784	-5212	10904	-3124	-3812	-281	-10680	4556	16660	-7836	18268	-10045	-22968	-4040	-4724	-9234	19129	-262	-20320	1876	-432	4423	1690	294	123	128	1
8984	-16496	32767	4238	17084	10680	-32768	-3156	32767	-6941	10710	6405	-18016	1088	-5628	-5593	10385	2066	-10196	2808	17456	-8911	25072	-11742	-26076	-5608	-2460	-5934	19829	798	-24300	-804	5232	4573	-3519	-402	118	127	1
-14396	14788	4276	10758	23039	22886	1940	16652	-11684	25666	5792	-1430	-21684	192	9108	-1033	4341	4860	-6428	5672	18604	-9941	32767	-14641	-26536	-11296	5412	-703	22174	2181	-22608	-9540	12244	-537	-12937	-3547	134	128	1
-17468	-7324	19960	-2883	27060	4276	-24392	11928	428	414	18380	10504	-11440	3132	9972	21938	4415	2652	-6296	3668	20544	-11842	32767	-19364	-27336	-12296	6180	151	22522	2546	-18380	-24772	14824	2840	-14889	-12842	119	129	1
-19668	1336	17292	-6283	19822	11629	-27588	10648	-2088	-218	18729	8081	-18992	8320	2456	2959	12484	2113	-13916	7264	19916	-13341	32767	-23562	-30880	-9780	12400	14614	28928	4451	-19664	-14036	14612	7864	-18657	-15829	137	134	1
-22828	-22888	9784	783	13278	6913	-22512	-3324	-5852	4137	17724	1630	-19956	-5184	-2924	-11018	10885	2174	-32768	-4508	5128	-5419	32767	-28888	-26628	5544	-14108	5711	30796	4676	-17984	5116	156	32767	-9679	-14977	120	124	1
-18752	-8264	15636	6035	9843	8276	-16880	-188	-5908	11675	12505	1014	-14396	-11788	-6172	-7596	13257	-5395	-32768	9300	15040	-6586	32767	-31272	-27744	5264	-13060	3767	30918	4016	-28616	7804	-9592	32767	-8434	-8571	122	132	1
-14440	-3416	12772	7642	4010	7917	-16412	2488	-6604	9421	9906	824	-15184	-7856	-8368	-5429	10862	-3445	-28224	12444	24732	348	32767	-31418	-22304	1232	844	-8716	16044	1480	-32768	1524	-17040	16196	-18096	5118	116	136	1
-13672	-5184	12280	5363	2522	6256	-16652	5808	-6420	288	10386	1294	-17120	-5632	-5420	-1327	9989	-2970	-28936	7964	15152	-3883	25649	-26324	-16908	3928	-12788	-8729	9716	2218	-30428	3808	-9460	3413	-31856	3542	138	132	1
-12740	-3764	12684	3083	1084	4162	-17248	4504	-4412	-2978	9271	902	-17304	-5872	-2576	3074	13221	-1510	-28144	11508	21164	3283	-22830	-296	-7720	2940	-6132	605	4270	-2021	-25588	-696	-520	2373	-32165	-349	139	134	1
-11220	-3760	12376	2476	424	2500	-17820	4028	-2576	-1263	7477	744	-13368	-2680	-644	3751	14909	516	-5324	14300	15520	3399	-32768	10868	-10860	-2192	1836	5338	-5193	-1563	-26704	2580	-5832	6703	-22753	2053	131	126	1
-10864	-4492	11868	1523	128	1381	-16992	2144	-1504	1984	5775	645	-16652	-1892	868	4677	13741	1084	3224	8900	11016	1942	-32768	13156	-7044	-360	1460	2943	-13929	-2513	-18984	2716	-8772	5673	-18817	3515	125	123	1
-10104	-4500	11732	763	-62	676	-16168	3500	-880	5624	4144	584	-15568	-192	1904	6893	13747	-1332	-1928	6412	9040	2696	-31711	13615	-6692	2300	-1244	1002	-21594	-4254	-16408	3088	-9052	449	-17907	3991	120	117	1
-9800	-4568	11496	350	19	439	-15728	3852	-612	4707	4402	130	-14832	1128	1724	3205	13305	-2181	-6244	3732	8724	7091	-32076	14528	-6392	1356	-2792	-640	-28240	-5798	-13268	4208	-9900	-5521	-17424	2781	127	118	1
-9228	-5056	10960	259	174	720	-15036	3196	-412	101	5914	52	-14540	-24	2600	-1778	13709	-1800	-13444	2580	10440	11642	-32768	16552	-7476	756	-5568	2907	-32768	-6228	-11220	2900	-9380	-9640	-17200	1378	125	119	1
-8496	-5164	10700	665	532	1602	-15604	1668	156	-4831	7762	-405	-14628	-1384	2864	-6413	14259	-1701	-16976	-104	10336	17738	-32768	20229	-10380	-836	-5424	8774	-32768	-6422	-9332	3804	-8752	-13435	-15462	650	129	124	1
-9840	-4720	11472	1312	920	2049	-16204	1616	-820	-3306	7895	363	-15612	-2484	3112	-6131	14656	-2144	-13624	1152	9316	23020	-32768	22882	-12196	-1216	-3228	9842	-32768	-6739	-8200	4800	-9932	-19991	-13710	-540	124	125	1
-10284	-4580	11624	1364	832	2128	-16588	3200	-2296	527	7299	759	-15524	-1396	268	-6362	17933	-2674	-13556	1716	9280	25564	-32768	23556	-15532	-2188	-4272	6860	-32768	-4881	-6432	3544	-12136	-25586	-12478	-1788	125	124	1
-10668	-3644	12148	1124	608	1413	-15672	4716	-3444	196	8240	733	-14660	-128	-1476	-4320	19454	-2405	-22448	2576	12920	25687	-32762	23663	-18804	-180	-11064	7658	-32768	-4936	-6644	-776	-9456	-22433	-11469	-2551	124	120	1
-10012	-4020	11592	642	997	899	-16248	3856	-3156	-2306	9214	403	-15356	-1360	-1988	-2260	19189	-2700	-28804	2900	16668	24321	-31034	26248	-23736	-4036	-11636	10435	-32768	-4046	-7032	-6788	-5360	-11690	-10778	-4478	126	123	1
-10208	-4268	11616	606	1193	1107	-16576	2020	-1836	-3014	9086	380	-15668	-3164	324	-692	18385	-3282	-32768	420	19884	22817	-30815	28340	-27700	-2900	-18248	14143	-32768	-2455	-10692	-8164	1320	-7328	-13307	-5073	127	120	1
-10600	-4392	11632	441	1311	1374	-16220	952	-500	-1175	9048	1289	-17348	-3616	3768	592	16052	-3590	-32768	-9732	14544	23857	-32768	32767	-24680	-3164	-18256	20138	-32768	-1853	-10520	-2052	4308	5524	-3082	1196	124	123	1
-10504	-4692	11844	483	1701	1753	-16052	-232	912	988	10398	2476	-19008	-4116	5764	401	10775	-4229	-32768	-10208	8356	18412	-31743	29992	-25776	2920	-17964	14491	-32768	-1409	-14828	1460	7172	16158	2099	7847	122	125	1
-10688	-5004	12132	664	2295	2614	-16720	-728	-140	2709	12662	3628	-18284	-4304	7488	-3876	8244	-3281	-32768	-16300	-2384	10501	-26011	22334	-22984	-468	-20144	9119	-30191	-111	-17020	-292	12928	5117	-174	7183	123	126	1
-11760	-6316	12748	618	3775	4110	-18436	788	-564	3019	14731	4625	-18344	-2328	4784	-6324	6919	-3206	-32768	-21144	-16032	4626	-15541	15437	-14644	1752	-22772	2730	-18757	3011	-17692	-1900	20160	-2369	327	7231	127	118	1
-10384	-4128	16016	1952	8877	6272	-19964	4824	-992	3855	16503	5318	-20836	-2028	2564	-7698	5079	-2182	-32768	-23056	-18104	4321	-13011	14305	-7780	924	-24004	-1413	-4572	4016	-14604	-10544	24412	-2928	-489	1639	125	117	1
-11228	-4436	15936	2430	13320	7836	-19552	6108	-2212	6828	18402	5856	-19752	-3616	1596	-8047	2610	-754	-32768	-24576	-16100	2031	8382	7484	-9940	2596	-21772	-5495	10741	3693	-14984	-3048	19116	-2237	-4651	1074	124	138	1
-11060	-4816	16208	3495	19156	9157	-20684	5952	-3864	8291	19261	5880	-19704	-3740	972	-6666	1323	271	-15508	-10984	21048	-17733	8116	-2349	-20632	-5836	6980	-13745	15927	-169	-12700	3104	5140	-5088	1581	3697	123	124	1
-7748	-4828	16432	4308	24587	11077	-22136	6180	-4024	7501	19428	5465	-20516	-3220	2860	-7665	-914	1190	24080	32767	32767	-6594	9918	-7792	-32768	-14288	32767	-14923	649	3697	-13864	1276	-5404	-18215	19966	4733	116	111	1
-8924	-3300	16664	3694	31518	14682	-25096	8028	-1388	5037	20546	6169	-20956	-3236	3596	-7852	-1563	1404	-17484	-25852	-2980	-22772	18038	-22860	-2312	-13728	-15448	-32768	4120	1142	-24716	-6376	10980	-16637	6587	-497	122	134	1
-5888	-6996	18164	4160	32767	16222	-29456	11212	8980	-4115	24192	7430	-16676	10572	15244	-7894	-15969	3150	-22064	-576	21220	-5222	24307	-4393	-25908	-14772	-5536	-16266	12269	262	-16332	-15340	4712	-30664	9428	131	117	116	1
-11428	-10868	15256	7760	32767	23320	-27488	6872	11280	-13688	28457	3382	-22304	16156	10516	-10897	-13681	8075	-27596	3776	15984	185	19973	-11181	-22268	-2660	-5640	-9123	14988	4892	-14388	-20184	1760	-1650	10935	-484	118	108	1
-32768	-5812	8388	3127	32767	27708	-24492	1552	-11352	-12989	30713	1924	-20936	5236	-832	-32768	-15151	9981	-22204	19924	14028	-5266	12618	-6004	-21756	3456	472	-4724	14429	7873	-19116	10296	-4612	13290	10104	2288	113	124	1
-32768	-3136	10696	2060	32767	29737	-28456	1244	-8468	-6449	28168	5426	-24420	-9296	-15460	-32768	-16541	5780	-14452	-1404	13680	-9494	5432	-8826	-17716	5312	-3724	-13287	10917	6122	-17520	17808	-6632	3994	10254	10139	122	139	1
-32768	-10308	18840	-5104	32767	25132	-21676	3076	-7712	-9938	24584	5322	-26216	-16836	-16040	-13790	-20010	-3400	-14588	4540	11512	-9785	2929	-9001	-17244	1760	-4636	-10697	8814	4244	-15972	4764	-4036	-4818	8342	9613	132	150	1
-5932	-18584	22100	-9744	20815	18228	-16580	-2316	-15704	-1652	18411	4835	-25268	-12404	-8472	6263	-23076	-4138	-14196	1612	13908	-5915	547	-6598	-17868	-4972	-5116	-2312	9597	3387	-16188	4308	-5056	-3241	10149	5636	136	139	1
-18320	-24408	26768	-7454	-16804	6842	-11716	-4200	-7396	-4623	6018	2310	-24764	-4872	-3616	12155	-22821	-3950	-12984	1124	12972	-3659	266	-4321	-18200	-2172	-4664	5519	10470	3799	-17180	1156	-3300	-2812	11268	4827	131	130	1
1688	-15364	16592	-8947	-32768	-2573	-11748	-740	4956	-9058	-2373	-874	-22060	-2600	-4980	7693	-20226	-6064	-12304	2012	12224	-1610	25	-2564	-17652	-768	-3872	4912	9213	3117	-15948	2408	-3068	-3733	9699	3444	122	128	1
6048	-10944	9788	-6805	-29142	-5054	-8800	336	3672	-4754	-12022	-2718	-19356	-2856	-6068	7871	-18669	-6673	-11896	1328	12332	-1304	588	-1189	-17216	-1884	-3608	330	6800	2453	-16436	-244	-3016	-7549	9931	3039	129	126	1
-2268	-10200	8728	-4030	-25944	-9183	-5368	-52	-1552	1232	-19298	-5580	-16100	-1560	-6548	9776	-16807	-5857	-11144	1756	12320	-742	760	-567	-16272	-3424	-2792	-1255	5117	2458	-14904	-3948	-1984	-6986	10464	4949	132	126	1
-7136	-9284	9876	-3576	-30750	-16448	-7116	2860	-4520	605	-26414	-7165	-14224	-1240	-6280	11999	-15145	-5274	-10956	2796	11732	-246	984	30	-16056	-3672	-1208	2462	5788	3194	-14712	-3860	-536	-1161	10762	6395	125	129	1
-9296	-5616	10484	-5350	-32768	-23970	-10368	3584	-4128	-4065	-30848	-7746	-13292	-4132	-5712	14280	-13705	-4505	-10488	3368	11560	258	1301	-236	-15732	-2292	772	5730	6461	3443	-15432	-1864	1056	5439	11698	6272	125	132	1
-12132	-5192	9828	-7217	-32768	-27474	-11324	2200	-3464	-2794	-32768	-9735	-12428	-3996	-7324	19654	-12516	-4780	-10828	4724	11268	-307	1710	-1831	-16860	-684	12	8330	6918	4072	-15624	1280	436	10754	13642	6989	122	129	1
-15912	-6160	11040	-6415	-32768	-27392	-13320	2048	-5236	1375	-32768	-11134	-10488	368	-7412	22180	-11814	-3959	-11952	1960	11900	-1534	1533	-1607	-16824	460	-2096	4892	6325	3090	-14836	40	28	11860	15556	6950	128	132	1
-16232	-5152	12084	-4945	-32768	-25465	-15284	4320	-5636	4892	-32768	-11544	-8888	2288	-7928	17897	-11481	-3605	-12224	1772	11920	-609	1409	-1458	-16776	-1952	-2312	3018	6345	2374	-15812	660	-788	11482	16959	6845	122	132	1
-17296	-5680	13936	-4287	-32768	-25521	-17820	7220	-6948	2870	-32768	-11330	-8544	2264	-7832	16870	-11303	-3521	-11844	2664	11556	-237	1315	-1249	-16480	-1808	-1812	4673	7568	2977	-15812	392	-908	6342	17906	6808	122	133	1
-20852	-5208	17584	-4693	-31358	-26773	-21308	8412	-7972	44	-32768	-10725	-8504	736	-6268	5988	-5719	-2326	-11644	3728	11644	-634	1196	-1250	-16768	-808	-1124	4839	7876	2953	-16188	348	556	42	18668	6929	125	133	1
-29072	-5652	21904	-5671	-29765	-27481	-25348	8588	-11160	-3980	-32768	-10265	-9424	3068	-4060	3359	-2508	-2366	-12468	3104	11816	-1064	1143	-2221	-17200	-80	-1280	3885	8229	3183	-16892	1592	812	-3484	18818	8116	126	133	1
-32768	-5264	21708	-6996	-32394	-25218	-30108	8660	-14832	-9049	-32768	-10708	-10428	3352	-1148	2103	-212	-3322	-11992	2972	11712	-1081	1203	-2195	-15948	-28	1108	3658	10221	2750	-18768	2336	3556	-1028	14113	7410	127	132	1
-32768	-644	12956	-10178	-32768	-22263	-30196	8736	-15200	-9983	-32768	-10812	-12884	-2804	2212	1105	-948	-4484	-12032	2584	11428	-1657	899	-2832	-15560	592	2312	2214	12497	2320	-19356	756	5904	1095	7820	4898	128	133	1
-32768	8888	-1220	-9521	-32768	-15681	-21788	7488	-23376	-8838	-32768	-13281	-21048	-3972	11532	8826	-3857	-6753	-11804	3076	12368	-1958	2012	-3630	-17920	-96	976	212	14869	1415	-18140	-2036	7660	2408	7646	5088	121	136	1
-32768	18660	-9952	-17775	-29543	-21649	-15360	10324	-27744	-9498	-23416	-10037	-19196	3704	26840	9245	-5853	-6300	-12324	3616	13452	-3039	4568	-5511	-19148	-892	-280	-1083	16902	1222	-18232	-2876	3736	3870	8421	5455	120	135	1
-32768	26396	-28760	-21074	-18543	-17810	-5340	8192	-24972	-9469	-6267	-8466	-14008	6060	29680	-8260	-1612	-880	-12624	960	14356	-4465	8890	-6193	-18980	-2600	-2760	-3673	18720	349	-18612	1224	1820	6593	6114	3926	116	132	1
-32768	22124	-27540	-7652	1596	-6366	-5796	3020	-21832	-1384	10517	-1448	-14240	-3080	20720	-6973	-6435	2751	-11744	3300	15944	-7332	13008	-7043	-20852	-2068	-3140	-7824	19813	-393	-19696	3324	1488	5805	3305	1460	110	127	1
9836	13008	6788	29005	19433	15117	-20784	-2808	472	7160	14338	2642	-12868	-8412	5420	-4575	2092	-1265	-11680	2336	15764	-7587	13615	-7467	-25556	-4084	-2984	-9914	20286	-887	-23168	2636	2796	5194	-150	435	124	126	1
-10724	6472	26712	10239	23968	16731	-23868	13180	6168	27083	4563	-121	-22368	-3132	2544	-4767	10399	-2732	-9424	3892	18536	-10105	27355	-10999	-27988	-8456	-1040	-7955	20949	168	-24468	1856	3436	5254	-1069	242	128	126	1
-13200	16228	16728	3288	30822	3853	-14280	15356	-1300	30722	4835	-484	-25296	-244	13612	18110	-4756	923	-7380	4872	20652	-10872	32767	-14503	-31140	-13108	8408	218	24063	1466	-23796	-10032	16132	-3727	-16415	-5389	123	127	1
-26332	8640	20920	-5352	21335	7826	-27228	20184	-7316	5597	19901	4324	-12832	17860	10208	24599	10921	4753	-4412	8460	24016	-12849	32767	-18350	-32768	-24108	18456	12310	27871	3470	-22844	-25496	15748	3332	-16815	-16006	122	126	1
-21444	-22180	7692	-3414	14004	7752	-22980	-3392	-5824	-158	22001	721	-17076	5228	-7320	-7807	13938	5047	-29404	7524	14872	-12561	32767	-28346	-28356	-2128	3480	16652	30561	4615	-20132	-11980	11144	10188	-18423	-17406	132	127	1
-24884	-17244	7956	8090	8276	8428	-17992	-11244	-9032	8898	15825	-1348	-11636	-16172	-9412	-16005	13542	-1495	-32768	6104	13716	-11303	32767	-30678	-29800	7980	-11320	2624	31998	2493	-20456	7240	-5972	32767	-9263	-16392	118	128	1
-16652	-4464	12024	11107	1702	11610	-14404	-588	-8580	15575	8581	302	-14728	-17620	-10804	-1433	9737	-5083	-32768	8208	21524	-4502	32767	-32768	-24460	3256	-3564	-7045	19803	3506	-31164	2416	-14816	32767	-12222	-4015	128	131	1
-14636	-572	13328	7574	926	8158	-17308	8368	-8104	9600	7289	1892	-19788	264	-7368	4828	10599	-5753	-21632	15440	26812	3293	31010	-26352	-18400	-924	-7236	-10483	13802	2542	-32768	620	-16844	9976	-25908	7057	130	138	1
-12616	-416	14184	4410	-397	3704	-18092	13196	-5136	-1461	9228	366	-17396	428	-2244	4715	14440	-3031	-7792	17216	24160	3231	28054	-26589	-10916	296	-10556	376	8200	2362	-26956	2172	-4628	4045	-32768	718	137	131	1
-11316	-2556	12956	1246	606	450	-16752	6504	-2584	-8443	10351	-859	-14216	-1648	-1628	2421	16856	1437	-10264	13852	19896	7523	-30199	5517	-9412	-1124	600	7313	-596	804	-25620	-484	-1332	6617	-28913	353	132	128	1
-10452	-4520	11712	429	749	-390	-17528	-360	-1152	-2933	8249	-1259	-16420	-3696	164	2099	15403	3327	2196	11416	12672	7390	-32768	9353	-7224	148	2096	8728	-9279	1034	-22368	1680	-8692	11021	-19317	1804	126	119	1
-10336	-4660	11264	397	261	-228	-16836	-68	-936	7707	3956	-168	-15524	-3352	732	5910	15778	-616	1200	6452	9776	8604	-30729	10801	-5700	832	220	5827	-18030	-260	-18688	2688	-10132	7195	-17832	2625	123	118	1
-9964	-3928	11400	289	311	-377	-15884	4840	-908	9648	2844	134	-14672	776	1600	6645	15915	-2718	-5004	5340	9776	10461	-30032	11793	-5052	1420	-2696	4000	-25339	-1518	-14520	3056	-10332	480	-17932	2301	123	115	1
-9640	-4120	11548	-136	650	-392	-15040	4916	-272	774	6070	-664	-15572	552	4196	1618	14665	-1531	-7944	3412	9612	14858	-31941	14886	-6144	-512	-3408	5478	-31336	-2229	-11520	1972	-9872	-3627	-16562	1370	130	120	1
-9412	-5140	10952	-237	895	328	-15164	828	528	-7973	10083	-782	-14532	-2176	5924	-5859	15189	-2262	-15216	1532	11060	18318	-32768	18759	-7896	-1284	-5656	9953	-32768	-1992	-9704	3524	-9412	-6580	-14792	-266	129	120	1
-9876	-4924	10836	719	437	1589	-16416	-2380	520	-4352	10264	773	-15736	-4592	7060	-4781	15883	-3696	-14956	-156	12228	21632	-32768	23265	-8364	-1548	-5484	10783	-32768	-2129	-7616	5452	-9148	-12247	-12047	-1003	137	125	1
-9904	-5060	11088	1545	-267	2635	-16016	212	-1576	2533	9052	2446	-16396	-2928	-32	-5893	14453	-3586	-13908	-688	11752	25126	-32768	27388	-13148	-3720	-3084	11758	-32768	-2850	-6424	6164	-11040	-20048	-10087	-1958	131	125	1
-9948	-4928	11048	1686	-290	2865	-15908	6912	-3480	2447	9375	1959	-14664	2216	-6092	-5001	14075	-2869	-17608	596	14052	26076	-32768	29277	-18764	-3416	-7424	5052	-32768	-2680	-6016	5352	-11728	-24236	-9775	-2217	126	125	1
-10732	-2384	12436	841	375	2401	-16316	6908	-4460	-2147	10720	433	-14764	1872	-3680	-6333	14769	-1383	-27196	-876	16980	23879	-30890	30396	-21444	-3148	-11892	3558	-32768	-6242	-7020	952	-9312	-22184	-9284	-2925	125	122	1
-10736	-3868	11588	431	929	2003	-16440	1820	-2532	-2250	9689	549	-15204	-3320	-256	-7547	16292	-2111	-32768	960	21228	18193	-31701	29648	-28364	-7268	-15320	4153	-32768	-5441	-9824	-5912	-4428	-21527	-13327	-4000	127	125	1
-10632	-3876	11468	436	924	2060	-15576	420	-1524	-642	9389	1551	-16140	-4472	3000	-3163	15451	-4041	-32768	-11268	17872	16806	-32768	32767	-27668	-3660	-20212	10281	-32768	-6960	-10928	-5292	4388	-10039	-10161	-3095	125	123	1
-10528	-4556	11736	462	1810	3006	-16720	1032	-284	106	10721	2683	-17944	-3832	5612	203	11697	-5564	-32768	-6840	6608	10023	-32768	32767	-26916	2780	-20440	9535	-32768	-6836	-11672	-3140	6164	5420	-270	4659	127	128	1
-10408	-4940	12632	897	3532	4014	-17132	204	-116	803	13017	3573	-18852	-5552	7048	-4818	8716	-3788	-32768	-13288	-7924	1791	-32768	30927	-25088	56	-20332	2214	-32768	-3568	-14404	-9512	11712	-4960	4183	4672	126	129	1
-10716	-5700	14392	1842	6061	5813	-19392	1444	-304	2389	15271	4873	-20796	-4312	4996	-6432	5938	-2542	-32768	-23064	-18776	6422	-19368	26619	-16184	3608	-23716	1309	-21246	1285	-20260	-14076	20708	-2761	-1162	1249	127	119	1
-11444	-4476	15628	3401	11947	8433	-21828	5460	-1972	4626	16246	5380	-21644	-2748	3432	-6162	4698	-1994	-32768	-29216	-25320	8845	-2450	19457	-9916	3544	-23828	628	-5955	3725	-19612	-16788	26852	-877	-3298	3160	126	114	1
-11432	-3912	16412	4820	16965	10390	-21004	6404	-3084	6505	17879	5611	-20492	-3528	2548	-7047	3700	-117	-32768	-20868	-17580	-3056	9643	9611	-13040	4544	-18944	-3460	8111	4237	-14312	-5604	19224	8827	-4577	3424	126	129	1
-9156	-4224	17212	6175	22496	11347	-21668	5936	-2240	7888	18804	5645	-20824	-4752	3024	-6442	995	763	-19096	-2620	27516	-13988	18065	-14421	-26620	-11572	31448	-13640	10083	-323	-18376	3496	2552	5795	4189	5550	128	115	1
-8872	-3976	17676	6978	28550	15466	-24436	6000	-1688	7404	19634	5859	-23132	-5256	6824	-6672	-2880	2204	-14076	-13256	8032	-13250	23794	-21902	-12832	-11656	-6984	-27583	4367	8345	-19696	-5016	8484	-13447	12730	7874	136	128	1
-7700	-3008	16672	8651	32767	23739	-27416	8720	2768	2976	21157	6517	-23756	-5096	8320	-7014	-3990	2482	-13736	-14704	22036	-3212	30050	-5382	-15292	-22180	-4028	-16073	14578	-2050	-7828	-8820	5188	-22711	16958	-2381	126	124	1
-7976	-13008	16724	10951	32767	26772	-29260	10220	12176	-8173	24907	4666	-22620	14424	16316	-4736	-14593	7351	-23056	-4884	17036	1686	19867	-13523	-24784	-3756	-2476	-6867	17625	7080	-19216	-18524	-468	-4913	4892	-1453	126	119	1
-30724	-3320	11812	7704	32767	23022	-26640	6704	-1264	-19873	31093	2178	-21604	12540	13072	-15405	-16957	8966	-32768	32767	15236	-7544	12939	-7676	-22400	12276	408	-8248	15048	8622	-18016	12404	-5556	15237	9502	1116	115	127	1
-32768	-7048	9744	3716	32767	30080	-29708	-2628	-9752	-15644	32767	4178	-24160	-1824	-11044	-32768	-18647	9013	-16664	-5284	13228	-12640	3599	-14052	-16988	6364	-5636	-22996	8933	5610	-18504	29144	-10848	-179	9852	9368	134	146	1
-32768	-11020	21636	610	32767	28980	-25836	2796	-1496	-10062	26045	5193	-26584	-11128	-18180	-32134	-18842	164	-18376	-1824	14048	-11874	-1164	-11883	-15952	-3060	-8400	-15307	8066	3982	-18984	180	-6844	-21833	6942	8889	130	142	1
-13156	-17668	24904	-6746	27201	21232	-19064	-444	-10284	-1615	19536	3485	-27716	-11608	-11512	-509	-24955	-5152	-13848	-516	14128	-5823	-524	-4799	-18048	-9584	-7568	-667	10556	4135	-16360	-6288	-4944	-10017	8007	6300	130	139	1
-27372	-15904	24456	-11704	-6186	4219	-10008	-1164	-14912	-4523	8004	799	-26308	-1696	-4764	9508	-25795	-4204	-12756	312	13728	-1758	361	-1830	-18112	-4808	-4900	10634	11660	5091	-18980	-1300	-4812	-2487	10882	4859	127	130	1
-1552	-18672	15816	-13200	-28020	-8725	-10188	1096	3772	-14558	1278	-2208	-23236	280	-4380	2827	-22309	-6230	-11896	2492	12388	-10	544	-780	-17612	-128	-2648	10851	10370	4856	-15448	484	-1632	12	11928	4746	131	136	1
3776	-12420	9472	-9622	-26481	-12091	-6364	-820	2156	-9697	-8420	-7381	-19436	-1980	-5888	-1932	-20527	-7243	-11448	2932	11872	-197	492	-583	-18060	2560	-2200	85	6376	3146	-15808	3312	-2376	-1003	11071	4194	128	124	1
-2264	-9136	8520	-7664	-24034	-15579	-6040	-2172	-1504	-1379	-16875	-9969	-16204	-2440	-7868	825	-18063	-6437	-11360	2700	11952	-770	442	-502	-16904	-1592	-1932	-7156	3781	1679	-15688	-48	-908	-6309	10763	4850	132	119	1
-6500	-7808	9108	-7283	-27293	-19755	-6664	-184	-3232	3708	-24603	-10753	-12792	-2192	-8340	5126	-15262	-6358	-11148	2520	11928	-336	437	-159	-15688	-5648	-1648	-2367	4576	2545	-15388	-3868	-1240	-3407	11544	5642	129	129	1
-7712	-4584	10780	-7966	-32264	-24420	-7900	4732	-4272	1871	-31708	-12028	-11248	-3368	-7660	7845	-13381	-5607	-10796	2764	12024	-132	559	-120	-14864	-4556	-640	5499	6297	3534	-14376	-5192	948	3131	12075	6998	126	127	1
-11764	-1520	12680	-10737	-32768	-28064	-11304	5488	-4296	-2957	-32768	-12902	-11056	-5460	-7320	11052	-11875	-5073	-10400	4392	11604	269	777	-662	-16012	-3092	932	12021	8077	4423	-14728	-712	660	11747	13962	6343	124	128	1
-15916	-1960	12944	-12007	-32768	-29316	-13556	4124	-3820	-297	-32768	-13547	-10740	-3680	-8716	20097	-10916	-3968	-11700	3124	11372	-1730	237	-1853	-17152	1984	-980	8858	7711	4631	-15272	3216	16	14622	16196	7479	125	130	1
-17632	-2060	13692	-10390	-32768	-27925	-14188	6316	-4660	3039	-32768	-13360	-9308	-772	-10852	28563	-11688	-3747	-11992	2008	12156	-1109	278	-2072	-17300	216	-2176	-1077	5377	2767	-15712	1732	-280	8949	17095	7696	124	130	1
-19128	-4052	15108	-7168	-32768	-27325	-18404	8948	-6896	1326	-32768	-12243	-8692	292	-10292	25808	-10499	-4085	-11168	2184	12520	-674	503	-1422	-15880	-4168	-1032	-2391	5985	2209	-16744	-2364	524	3264	16030	6618	126	130	1
-23312	-3568	18720	-5201	-32768	-28965	-21416	9688	-7972	-1365	-32768	-11383	-8068	1016	-6116	17759	-6857	-3553	-10964	4864	11852	-702	746	-1568	-16676	-1644	888	3639	8089	3505	-16536	-852	3216	-265	16211	6380	128	130	1
-32768	-1884	22752	-7745	-32768	-31016	-24768	10440	-10888	-5857	-32768	-10924	-7140	5148	-2584	8365	-1839	-2165	-11328	3068	11968	-766	856	-2859	-16836	-128	-244	3881	8974	3446	-15236	1196	3672	-6854	16964	9192	128	133	1
-32768	-560	23048	-11375	-32768	-28903	-30576	10676	-14036	-9949	-32768	-12169	-8896	7108	484	7576	523	-2634	-11632	2040	12500	-987	1202	-2646	-16668	-1504	308	1547	10312	2762	-20192	1640	2904	-2277	15687	7725	124	133	1
-32768	2484	12976	-14401	-32768	-27004	-28548	8988	-17184	-10588	-32768	-11753	-12856	2964	3452	195	1216	-2949	-11952	2964	12496	-1633	1525	-2886	-16028	-868	1924	-633	12414	2548	-19468	-884	5152	1063	9770	5320	121	133	1
-32768	7956	-4752	-10210	-32768	-21544	-21716	9996	-21536	-5106	-32768	-11950	-22308	-552	17428	503	-2808	-5369	-12020	3528	12956	-2080	2433	-3640	-17372	108	640	-554	15339	2109	-17816	-2980	6208	1980	7450	5645	122	134	1
-32768	15908	-14116	-10988	-24219	-21671	-19144	10804	-23160	-5116	-32768	-11788	-20280	5452	28612	6972	-4516	-5178	-12240	3992	13932	-3045	4903	-5602	-19560	-516	-1308	-2158	17047	1515	-16852	-888	2556	3852	6909	6266	118	134	1
-32768	32767	-30952	-15893	-8800	-16673	-1704	4844	-24416	-5797	-2201	-5598	-17092	7076	32767	-8870	-5701	-700	-11860	1220	15912	-4287	9435	-6340	-19676	-4336	-3828	-3285	18498	416	-18144	2580	388	5949	6395	4335	114	131	1
-32768	16496	-25656	-1803	10297	-5897	-6300	1748	-21316	5508	13138	2350	-16096	-888	20652	-9191	-9986	388	-11668	1944	16164	-6181	13830	-6945	-20208	-3404	-4372	-5953	19188	258	-19524	2820	-784	5972	4868	1418	116	127	1
-27476	-2700	19752	26080	5748	3417	-21896	8880	8824	153	18687	6748	-11116	-8656	3184	-7207	309	-916	-11448	3200	17120	-7250	18577	-8515	-23304	-3484	-3948	-7340	19045	9	-21572	3160	176	5357	2392	90	114	124	1
13968	-14624	26684	14917	21304	13542	-30680	348	23560	17792	5941	-1337	-17272	-5808	-4640	-3889	11413	-3249	-10508	4968	17512	-9142	24651	-10118	-25972	-4944	-1092	-6376	19721	407	-25200	624	6500	6596	-3125	108	130	125	1
-21952	22100	11232	13108	25729	10885	-25008	3108	13592	23246	5426	-2378	-16728	-3848	6776	7216	1057	127	-4556	4856	19504	-10185	32693	-13696	-27892	-9440	5208	-928	22121	1668	-22504	-6616	16308	-315	-13277	-3298	131	129	1
-19688	5172	19236	-249	27444	-476	-25624	20328	-4764	11268	16045	9086	-16232	7524	8232	24569	6326	3307	-6132	8000	20160	-11776	32767	-19777	-32204	-18104	13180	6862	25767	3590	-20940	-24136	16496	2593	-14790	-11446	125	127	1
-26908	1760	18968	-3232	17492	13660	-21980	6692	-7924	2	19309	-72	-20416	14872	1572	16792	11287	4214	-16960	7744	19032	-14488	32767	-25946	-31352	-11836	15168	15641	29145	4817	-19640	-16048	13788	9253	-18616	-15995	135	132	1
-16596	-22580	7460	1565	14697	6846	-22076	-2440	-4640	4871	16806	-617	-19948	-4968	-7516	-10543	15071	2771	-32768	-4812	2788	-6647	32767	-30049	-25132	5948	-14168	8066	30858	5844	-18236	1092	-2380	32767	-9938	-13607	126	132	1
-14068	376	15976	10895	5032	9618	-14940	-1620	-5784	16567	9111	-560	-13088	-18012	-8568	-9492	15228	-5014	-32768	11996	15340	-6940	32767	-32670	-26392	6012	-12836	7040	31304	5301	-27428	4404	-12884	32767	-8894	-7941	134	132	1
-12216	-5868	12164	8173	1456	7535	-14948	5272	-5796	10806	7498	892	-16900	-3576	-8392	2367	11997	-6459	-32768	11744	25444	2107	32767	-31715	-20548	2672	-4700	-8606	16661	3546	-32768	-2876	-17052	18202	-19781	4413	125	135	1
-13644	-2420	13572	4680	941	4809	-16836	8388	-4868	669	8282	1028	-16560	-368	-2540	833	12179	-3974	-28636	4144	15508	-955	16977	-21619	-15260	0	-10696	-2874	9508	4793	-30332	2132	-10184	7326	-32081	2367	132	137	1
-11244	-2700	12652	2239	545	1652	-17860	7136	-2420	-4768	9337	120	-17040	-2772	76	-1403	14832	-1167	-19624	11816	20844	10368	-20756	3486	-7148	-524	-3296	8006	3692	2138	-25752	-1992	-1648	5881	-31533	179	126	132	1
-10412	-4016	12240	1216	480	714	-17028	1772	-1008	-3128	8535	-188	-15660	-4612	796	247	14102	1607	-1816	14800	15468	9525	-28960	12239	-9744	-488	2208	11384	-6055	3516	-24440	552	-6572	11071	-22319	2423	127	124	1
-10152	-4600	11604	1211	366	456	-16620	512	-452	4127	5576	364	-15716	-4296	1620	3414	13704	784	2296	9992	11500	8029	-27560	14753	-6744	1660	1056	5638	-15721	3034	-18780	2784	-9412	10105	-18417	3434	117	117	1
-9888	-4508	11560	1191	35	487	-16264	3052	-924	7902	3682	801	-15752	-3972	1580	3920	13665	405	-3796	6148	10548	7611	-26707	15970	-5860	2144	-1960	329	-24093	853	-15764	3856	-9644	3451	-17690	3947	120	120	1
-9632	-4428	11520	1142	-92	514	-15492	4352	-820	4352	4821	849	-15456	-140	2660	4673	14462	-2188	-6956	2164	10892	11433	-28699	18295	-6844	-940	-3440	85	-30624	-842	-12840	3036	-9904	-2841	-16947	3353	125	116	1
-9520	-4368	11548	923	81	653	-14676	3756	-312	-1556	6912	728	-14756	816	3464	-278	14268	-2033	-10924	1008	11620	14796	-31861	20588	-7808	-2600	-4140	4863	-32768	-1676	-10684	4140	-9392	-6649	-15871	2520	128	124	1
-9052	-5156	11024	1126	41	1408	-15472	2220	-60	-5662	8664	59	-13908	-880	3384	-4084	14320	-951	-15180	-504	12784	17475	-32768	22149	-9256	-1776	-5320	8811	-32768	-2135	-7700	4764	-9808	-11166	-13189	1414	126	117	1
-9312	-4560	11388	1661	-31	2328	-16292	1888	-636	-3451	8873	-252	-15120	-2424	812	-4799	16967	-1150	-17824	-2484	13720	22202	-32768	25121	-11552	-2572	-5864	9067	-32768	-3247	-6908	5000	-10588	-16818	-11222	267	123	123	1
-10520	-3096	12068	1644	-400	2283	-15520	3436	-2024	2404	8202	844	-15668	-676	-704	-853	18653	-2396	-17572	-1524	12868	27739	-32768	28547	-16516	-3852	-4836	6981	-32768	-3224	-5664	5892	-12148	-23037	-10365	-205	121	124	1
-10184	-2992	12264	996	-341	1443	-15864	4984	-2220	1819	9049	1073	-14856	792	-916	1838	18986	-3062	-15320	-1528	15536	29484	-32768	28252	-21624	-6656	-8528	7754	-32768	-4006	-7724	2792	-11236	-23847	-9551	-703	121	120	1
-9852	-3556	11904	445	317	921	-15908	4696	-1204	-3187	10163	701	-15344	908	728	471	18092	-3389	-32768	1664	19348	27105	-28688	28425	-23620	-2276	-13872	7083	-32768	-4318	-9652	-4916	-3440	-18835	-12495	-3001	126	119	1
-9952	-4124	11856	580	739	1454	-16080	1028	-104	-1782	9856	597	-16188	-1944	1640	-307	16846	-4002	-32768	-3064	22300	18757	-32768	30603	-30260	-8708	-16972	9394	-32768	-5224	-9764	-9020	3056	-14390	-14223	-4690	123	120	1
-10132	-4684	11812	1020	651	2550	-16440	-324	-96	2135	9722	1713	-17748	-5068	2040	-1779	11863	-3628	-32768	-10300	14412	16862	-32768	32767	-25752	-2896	-18296	15219	-32768	-5417	-10784	-3816	11324	1966	-5874	806	117	123	1
-10456	-4816	11856	1251	656	3918	-16960	-76	-240	3225	11160	3030	-18592	-5128	5200	-2153	8574	-4433	-32768	-6784	2112	6332	-32768	32767	-24712	3176	-17628	3270	-32768	-5996	-14556	-3452	9680	6007	3541	6580	121	121	1
-10396	-4080	12920	956	2037	4523	-16412	1216	-32	2321	13768	4261	-17964	-3736	7512	-5851	7239	-4180	-32768	-17248	-12076	-606	-26746	28080	-20660	200	-20044	-952	-27266	-1914	-13476	-9064	15652	-391	3027	2410	122	120	1
-10204	-6716	14188	1649	5092	6012	-19428	1216	-120	3529	16337	4957	-19644	-1796	5032	-8290	5492	-2967	-32768	-27000	-23176	4533	-9453	21227	-10584	1808	-22672	-895	-12667	2549	-19748	-8492	23036	-8754	-1252	-551	124	128	1
-9096	-2928	18068	3203	10183	8447	-20864	6632	-896	5460	18043	5674	-21624	-3940	3156	-7532	3365	-2038	-32768	-26556	-21656	2170	8306	11787	-9036	5104	-20812	-2693	2943	2907	-18400	-12080	25288	-3614	-7553	-114	126	134	1
-11452	-4540	17584	4259	16348	10188	-22860	7552	-3252	7857	19186	6269	-21416	-4064	1560	-7256	1896	-673	-32768	-13748	-8076	-11575	11447	-1795	-13400	6444	-13736	-7957	14392	2705	-16748	-1896	13380	388	-3732	2600	125	123	1
-10240	-4812	17792	5995	22661	11943	-22920	6756	-3792	7562	19806	5847	-22200	-3376	3384	-7129	40	964	-19672	7676	32767	-5632	11052	-14455	-29136	-20724	30368	-11470	10298	-1195	-8644	-4816	-400	-13606	6318	4152	121	119	1
-6952	-4484	19156	6558	28870	15918	-26176	5868	-968	6779	20265	6030	-24924	-3356	10748	-8384	-5821	1793	-2364	-6872	1512	-14637	22726	-18642	-7676	-14244	-10760	-15772	7306	7352	-14460	-11608	-1940	-2763	22683	3373	123	127	1
-5908	-5452	18444	8943	32767	24827	-30360	8932	6628	855	22517	6972	-25632	-3416	13344	-8545	-8281	2003	-22140	-6428	20160	-724	30580	3450	-22080	-10560	-2764	-5251	16084	-229	-16664	-9656	-120	-3465	5252	-2209	124	125	1
-5324	-10276	18052	10898	32767	30747	-27112	11408	12244	-7799	26371	3567	-20848	16096	13084	-8671	-14827	7448	-20780	-10128	15044	1562	22594	-11674	-22840	-5884	-4964	-8463	14659	4244	-18412	-10268	5080	-917	7618	-49	113	124	1
-20380	-2528	12740	7727	32767	23487	-26336	12104	2084	-22383	30820	1691	-21104	13664	9272	-23090	-15994	9183	-32768	32767	3380	-6290	11009	-2570	-25344	14624	-3620	-633	15859	7323	-21516	3876	64	12578	9895	1397	124	124	1
-32768	-2708	4856	1364	32767	30618	-23004	-5128	-12240	-21996	32767	3128	-22896	1272	-17392	-32768	-15605	10338	-16648	-6668	12808	-8998	4780	-9684	-18704	1088	-6456	-14632	10857	5758	-18952	24244	-10048	1905	12892	7732	123	121	1
-32768	-13932	23044	-939	32767	28953	-25372	284	-19320	-10090	27503	2781	-28268	-16988	-19388	-32518	-18776	-635	-12424	4392	12084	-9488	744	-9235	-15408	2552	-5416	-8834	9066	4420	-15560	4564	-7164	-10537	9266	8076	133	141	1
-12964	-14436	25288	-7480	18358	18188	-18892	1788	-12604	-4489	18830	4945	-25396	-17424	-13704	2229	-23017	-4995	-14692	880	13296	-6026	-273	-6707	-17704	-4720	-5856	-2437	8979	2452	-18180	1792	-3948	-8913	8435	4856	134	135	1
-18260	-23732	26524	-10082	-9706	4386	-10984	-3088	-4704	-5703	6951	1250	-25308	-6416	-4868	12473	-23522	-5214	-13012	1184	13076	-2519	-200	-3139	-18272	-4668	-4060	5171	9708	2691	-16344	-1764	-1808	-6445	11286	5487	129	133	1
1152	-18480	16220	-10166	-26250	-7288	-10692	-2996	3828	-8911	-1106	-1355	-21272	-2836	-4808	6790	-19837	-6374	-11640	2772	12304	-910	210	-1300	-17444	-1468	-3008	6732	9059	2678	-15212	-1384	-1828	-2917	11599	4433	128	119	1
3880	-14188	9984	-6227	-23852	-10481	-9768	-2256	3188	-1683	-12634	-4751	-18000	-4940	-6252	5235	-18217	-7422	-11052	3444	11908	-681	731	-247	-16964	-1428	-1112	2382	7200	1982	-15984	-580	-1356	-2544	10085	2254	128	127	1
-2552	-10488	8524	-1317	-21768	-13755	-6176	-1224	-832	8236	-20942	-6554	-15340	-2792	-7316	9662	-16272	-7671	-10968	3652	11832	-701	775	-168	-16996	-740	-2200	-3101	4855	1525	-15104	-420	-2712	-2959	12177	3854	130	125	1
-9552	-8584	9900	-855	-26637	-20038	-6788	1192	-5344	9358	-27531	-7298	-12756	-1616	-7040	12835	-14733	-6743	-11368	2900	11792	-249	1118	-63	-15812	-4864	-1140	-343	4933	1670	-15488	-3164	-1128	-397	12206	5520	128	131	1
-12252	-5592	11768	-2228	-32768	-25736	-10188	3728	-6040	3212	-32748	-8009	-12616	-3668	-5900	15153	-13783	-6199	-11496	3640	11532	514	962	20	-15344	-2732	-408	4855	6093	2313	-14912	-3384	672	6751	12594	6548	126	129	1
-13136	-3040	10840	-6003	-32768	-29177	-13200	2836	-3208	1018	-32768	-8668	-13284	-5396	-7128	19909	-12775	-5351	-10292	4860	11060	1229	1079	-337	-16576	-1604	1584	8070	7078	2717	-14556	24	1484	12509	12937	6024	120	130	1
-13744	-3848	11124	-8053	-32768	-27566	-12580	3692	-3908	2864	-32768	-10164	-12040	-1504	-8364	25949	-12078	-5638	-10992	5000	11092	167	1277	-2045	-16876	1240	-724	3111	5905	2618	-15340	1188	-504	14434	16782	7031	123	131	1
-15228	-4380	12132	-7884	-32768	-23896	-14996	6100	-5100	415	-32768	-11045	-9972	1840	-9292	24713	-11205	-4766	-11844	3532	11316	-719	1130	-2451	-17120	-2076	-2048	223	5487	1657	-15652	556	-2388	8906	18961	7146	126	132	1
-18056	-6576	14348	-5751	-32768	-22807	-18212	5760	-6288	-1047	-32768	-11655	-8592	3192	-8736	17703	-8372	-4225	-11812	5200	11092	-836	784	-3308	-16816	-1188	-724	2258	6170	2409	-16464	972	-480	-521	17518	7142	125	130	1
-22912	-5872	18460	-4856	-32768	-24871	-18688	5824	-6840	-859	-32768	-11760	-7468	2960	-6060	11047	-5119	-2891	-12040	3392	10828	-941	-22	-3873	-14760	-376	-668	3230	7902	2835	-15960	1972	3788	-5345	16362	8160	126	131	1
-28152	-3496	22224	-8139	-30889	-28275	-26684	10112	-9532	-3902	-32768	-11304	-8244	5556	-4032	5124	-1973	-1804	-10980	4772	12108	-1264	-470	-3538	-16320	-1268	2176	2402	9425	2577	-18240	232	3652	-1969	14742	6512	129	134	1
-32768	-3840	23528	-10938	-32285	-28497	-29688	9220	-15068	-7019	-32768	-12692	-8984	6468	-1892	5466	907	-2875	-11700	4556	11864	-2421	-362	-5178	-17712	128	1096	-1904	9759	2574	-19568	76	2860	-2034	11726	4457	129	134	1
-32768	2644	15064	-13420	-32768	-28458	-29816	6860	-17800	-10274	-32768	-12701	-14336	820	4104	-1433	-2081	-3378	-11708	2904	12060	-3105	586	-4651	-16532	-964	736	-3110	11718	1881	-17968	-204	4972	-3414	9746	5085	127	134	1
-32768	7512	-464	-13186	-32768	-26316	-24044	10776	-19968	-5976	-32768	-11779	-23468	-4452	15172	3991	-6474	-7967	-12568	3052	12460	-2641	1787	-5090	-17140	-824	1068	-1202	15085	2048	-17396	-2436	6624	-643	9248	5844	126	135	1
-32768	16256	-15352	-10761	-24246	-22327	-15492	10116	-26216	-5455	-24837	-11495	-18528	5604	28980	8064	-5238	-7646	-12132	3248	13356	-3559	3797	-6097	-17820	356	320	-5431	17100	1213	-17832	-2100	4624	2611	6660	5408	119	134	1
-32768	32767	-30276	-17141	-9955	-15007	-1592	6704	-26972	-7815	-2728	-6931	-15164	4668	32767	-5640	-3401	-1259	-12156	1760	16048	-5994	8171	-6845	-20396	-5316	-3768	-7078	18770	-122	-18832	2340	1104	3845	5040	3777	121	132	1
-32768	20672	-24688	-4219	6927	-3502	-6756	2536	-22260	3405	13859	1726	-15476	3956	32436	-6369	-4322	-146	-11692	4452	16792	-7028	13532	-6778	-21632	-3640	-4736	-8517	19912	-582	-20024	3928	-1092	3483	4915	2027	121	129	1
-9848	5980	20216	25505	6670	10386	-21312	8496	9560	-5748	19665	7273	-10020	-7288	1052	-11051	1508	89	-10492	2280	17580	-7604	19230	-9235	-23156	-4852	-4040	-8946	19736	63	-21540	860	384	5869	2792	31	128	126	1
14852	-13300	32767	7888	17255	19876	-32768	3840	25596	10414	5626	-2076	-18548	-336	-6692	-11108	11856	576	-9776	3500	18012	-8351	26633	-11089	-25916	-7180	-844	-7353	20716	735	-24448	-2764	6248	6683	-4050	-655	133	126	1
-12600	22172	6228	8103	23720	15294	2500	27864	-11836	15035	12580	5163	-27012	-1528	10940	3081	-6108	2862	-6492	3976	19660	-9650	32767	-13820	-28308	-11700	4584	-1316	23166	2405	-22360	-11312	18096	-2885	-18389	-4499	139	130	1
-23172	-1756	21052	-4467	27019	2565	-30208	14092	-2724	1213	19561	8369	-13520	12544	14864	22665	4567	3520	-6828	8616	19988	-11103	32767	-18004	-32768	-20336	15116	10324	26880	4549	-20904	-25204	16652	4854	-16014	-14276	131	133	1
-28020	-3744	15816	-6826	15735	11692	-22420	2208	-6984	-159	20229	1986	-17852	8584	-620	1128	12083	4737	-19204	11840	18768	-13032	32767	-27159	-30920	-5476	12572	15561	29012	5329	-20316	-10028	10500	11087	-17774	-15825	138	131	1
-14380	-25512	15536	5248	12124	4511	-21668	-7116	-5728	4920	17332	-288	-16988	-11328	-9068	-17460	14110	3601	-32768	-668	408	-7244	32767	-31662	-26568	6588	-11632	6082	30372	5390	-19388	7948	-4836	32767	-7113	-14503	127	129	1
-15620	-876	14272	9694	4341	9122	-15324	-1296	-7160	14549	9866	404	-13876	-19136	-11396	-7699	11830	-5167	-32768	6280	16208	-5386	32767	-32768	-26900	3336	-4936	-3437	21977	3283	-31800	7400	-14248	32767	-10828	-4758	128	132	1
-12656	-4992	12504	7721	2476	7921	-15980	5336	-7856	7996	8450	2131	-17432	-4296	-9376	1451	11427	-5406	-32768	10564	26148	6994	32767	-25999	-19208	1392	-8040	-9811	16143	1893	-32768	2232	-16716	9041	-23977	5991	134	135	1
-13224	-2716	13516	4065	1316	5170	-17332	9648	-5860	-925	8492	1223	-16776	-1688	-4976	3524	13395	-3661	-32768	5060	19764	4420	4642	-14040	-13496	1776	-10860	-779	9175	2229	-27008	1852	-5280	2096	-32768	-409	136	133	1
-11916	-2072	13472	2362	114	2283	-17364	7216	-3256	-5322	8467	56	-18672	-76	-564	3758	16158	-360	-15416	12736	20692	8043	-30232	2992	-12840	592	-8864	1042	8240	1983	-26624	480	-804	4329	-29362	-363	135	127	1
-11064	-3416	12556	444	337	144	-17580	3372	-864	-3087	7360	-399	-16192	-204	1396	2661	14600	1430	1028	12280	14032	6797	-32768	8844	-8280	-840	2812	8615	-8323	281	-22956	2500	-7576	8971	-19511	2100	128	122	1
-10416	-4684	11476	19	289	-208	-16668	432	-748	4099	4733	-541	-15900	-2824	1892	1256	14239	1273	2892	8092	10024	6745	-29806	11129	-6468	-196	1084	5101	-17044	-1668	-18208	3804	-9364	5780	-17462	3576	122	120	1
-9900	-4940	11252	-75	173	-267	-16416	1948	-624	8769	2543	39	-14876	-3284	2156	3698	14726	-877	-4132	6816	8720	6676	-27798	12745	-5696	2216	-1928	1850	-24273	-3197	-14204	3396	-9708	-817	-16964	3256	126	115	1
-9300	-5012	11172	18	240	-64	-15032	3760	-236	3584	4325	465	-14852	-1180	2760	2877	14518	-1522	-7672	5064	9264	8733	-30105	15620	-7120	528	-3160	1955	-30345	-4220	-12172	3104	-10128	-6721	-16684	2222	131	121	1
-8896	-5712	10876	147	484	730	-14884	1764	140	-4548	7080	128	-14216	-1804	3140	-3949	14753	-2037	-14076	3776	10164	10845	-32768	18696	-8580	88	-5040	4829	-32768	-4325	-9488	3764	-9268	-8795	-15324	1848	132	123	1
-8952	-5212	10584	893	735	2100	-16064	1212	-1200	-8580	8599	-39	-14128	-2300	2368	-6507	16499	-1799	-17768	1788	11176	14357	-32768	22879	-11004	204	-6136	8715	-32768	-4723	-7812	4600	-9432	-12521	-13009	1244	132	128	1
-9948	-3596	12388	1465	913	2226	-16772	4248	-1128	-3901	7440	634	-15812	-656	748	-5598	18999	-1807	-18044	1088	11328	19028	-32768	26662	-13736	-580	-5088	7507	-32768	-5458	-7668	5780	-10176	-19225	-11942	671	128	125	1
-10444	-2784	12268	823	975	1031	-16068	4536	-1700	-600	8199	553	-15580	268	644	-2675	19371	-1835	-16956	1520	10720	24217	-32768	29082	-17580	-2704	-4636	4880	-32768	-4602	-6648	5336	-12704	-25349	-11058	1	122	126	1
-10200	-4048	11576	432	1107	406	-15608	2840	-768	-1006	9254	783	-15264	-976	380	-126	18417	-2301	-19260	2016	12472	25679	-32128	28196	-20720	-3536	-8988	7145	-32768	-3800	-7184	1460	-11960	-24083	-8979	-271	127	124	1
-10424	-5292	11320	564	1096	960	-16052	1008	-880	-1879	9428	661	-16792	-3648	1068	2506	16735	-4028	-32768	7760	16944	21764	-27541	27146	-25012	-660	-14328	7009	-32768	-3869	-8892	-6040	-5228	-17737	-11207	-3053	131	126	1
-10056	-4472	11312	884	878	1614	-16108	956	-792	-800	9354	1528	-17348	-4880	1848	1933	13697	-4123	-32768	-3096	18632	17773	-32768	31142	-30144	-6796	-15192	11360	-32768	-3063	-9300	-9672	-556	-11044	-9194	-3920	126	123	1
-10280	-4476	11888	606	1300	1964	-16832	1500	148	-357	10428	2413	-18616	-3176	4496	-1105	10833	-2664	-32768	-7344	12592	17624	-32768	32767	-28036	-520	-19204	17895	-32768	-2091	-10792	-2484	8724	8776	-4701	1896	126	124	1
-10432	-4536	12200	328	2214	2360	-16484	1096	316	1061	12362	3400	-18060	-1572	7548	-2923	9770	-2915	-32768	-11244	2636	11445	-32768	32767	-26024	460	-19520	8774	-32768	-2343	-19060	-2156	11408	10392	646	7997	126	123	1
-10720	-4428	12864	345	3746	2910	-17192	848	-256	2449	14775	4411	-17636	-664	5920	-6468	7892	-2882	-32768	-18412	-12148	7129	-27930	29006	-20532	2632	-20640	5053	-27697	327	-17568	-5884	18456	4338	-478	5748	125	124	1
-10672	-5608	13600	708	5825	4659	-18500	1452	-480	4435	16895	5314	-18800	-2484	3964	-9247	5540	-2780	-32768	-30712	-26112	10231	-13062	17193	-8724	-1188	-23184	6994	-11781	6477	-15804	-9656	27664	-2959	2109	4352	128	116	1
-11624	-4608	14480	1860	11359	6959	-19896	4864	-2448	7569	17787	6074	-20464	-5048	2168	-8440	2830	-2175	-32768	-32768	-24764	14909	5957	9498	-6440	6036	-20736	2224	6237	5631	-14492	-6740	26468	3228	-3050	1699	127	115	1
-10752	-5496	16344	2384	16933	8443	-21140	6052	-3592	8406	19065	6479	-19076	-5776	844	-6690	2250	-157	-32768	-13720	-13372	-7405	12069	-3446	-10648	4776	-20488	-11047	17144	2686	-17376	1888	16564	-463	-4927	4460	127	121	1
-10396	-5996	15924	3881	23204	11209	-21860	5968	-4168	7729	19819	6039	-19788	-2896	1692	-7800	720	1514	27324	15184	32767	-11907	3909	-17104	-32768	-26124	32767	-8753	10790	-4071	-12396	2944	-7520	-5351	11327	5604	129	122	1
-8148	-4676	17028	4186	28737	14119	-24676	6000	-1780	5181	20333	5972	-23572	-2428	8124	-8017	-5207	2351	-4132	-7208	1896	-25237	11529	-30174	-4976	-1668	-10552	-32768	1051	10062	-22116	-7016	5004	-7967	13222	2864	121	124	1
-6164	-4576	17096	5727	32767	18423	-27824	8648	4312	1001	21820	6677	-22244	420	23120	-3776	-23430	2761	-10276	-16852	21076	-6297	29912	1050	-16620	-26512	-3452	-19347	12810	-5816	-11216	-7736	6768	-31610	5500	-6156	135	131	1
-6992	-10804	16100	7563	32767	22735	-29064	11208	12676	-8209	25404	5847	-21920	12936	14920	-10369	-13278	6175	-17828	-21876	21656	209	22749	-11516	-21400	-8676	-5000	-7188	17152	4889	-17312	-24228	752	-10983	6881	-1119	128	119	1
-27348	-7312	12608	6431	32767	25185	-26164	7364	1212	-18047	29408	2297	-21940	12708	8820	-19426	-16033	9215	-32768	32767	9156	-7275	11814	-2225	-26476	9648	-5848	1791	18538	8298	-19828	-1184	-4144	18453	10251	-2333	118	141	1
-32768	-3520	6232	2344	32767	30817	-26304	-2348	-12712	-13772	31717	4401	-23612	-3096	-13688	-32768	-16478	9171	-16284	-12796	14100	-7663	4994	-9370	-17440	3572	-6604	-12683	13240	6571	-18792	32744	-12108	14000	14087	9090	125	134	1
-32768	-11228	18388	-1578	32767	26969	-24196	3732	-11244	-5613	26210	6269	-28952	-15556	-18692	-30304	-17725	-779	-12004	5408	11432	-10225	1751	-9314	-16176	5224	-5616	-12575	9195	3797	-15480	7500	-6672	-10672	9434	10148	134	142	1
-27980	-14452	24620	-9277	28463	19669	-19392	-620	-9112	-2290	19303	6558	-26228	-15500	-12096	4277	-23455	-4820	-13396	1496	13132	-5709	-135	-6694	-17932	-6484	-5612	-3939	9177	2041	-17388	1204	-5364	-7072	7949	5153	139	135	1
-32768	-19624	27764	-6333	-8165	8442	-13492	-256	-8800	-2622	7914	3035	-26128	-6040	-3996	13561	-23407	-3857	-12480	2160	13204	-3100	-319	-4339	-18224	-3272	-3640	4715	9885	2784	-18952	-212	-3164	-3136	10093	4367	127	137	1
-4776	-15800	20508	-9442	-32768	-3166	-8960	-1076	2696	-9560	-385	1461	-22680	-2308	-4400	7778	-20116	-5165	-12404	1600	12664	-2058	180	-2285	-17096	-1936	-3684	6276	9718	2615	-16236	-1176	-720	-3086	10479	4602	123	126	1
4228	-12256	11532	-10354	-32768	-5490	-10236	-768	3972	-7523	-10174	-4825	-19184	-4528	-5936	5127	-18077	-6248	-10628	3596	12436	-974	1021	-204	-17132	-2584	-1564	3854	8114	2009	-14512	-1380	-1608	-1495	11632	2793	123	128	1
1800	-10680	8172	-6640	-28278	-8584	-7284	-776	1344	-2340	-18680	-5964	-15612	-2664	-6680	9087	-16697	-5882	-11184	3376	11728	-921	1131	-236	-16468	-1420	-1944	-551	5911	1860	-15160	-316	-2664	-1069	11958	3012	134	127	1
-6172	-9480	8804	-4736	-28677	-14322	-6448	648	-3608	3298	-25699	-6820	-12972	-1580	-7032	12699	-15157	-5376	-11532	3292	11772	-319	1118	-293	-15908	-2676	-1496	662	5306	1983	-15728	-824	-1768	-2791	11655	3936	128	129	1
-11836	-8500	10324	-3960	-32768	-21581	-9636	2980	-5740	-550	-31331	-7658	-12568	-3032	-6152	15070	-13820	-4494	-11084	4152	11432	281	979	-346	-15920	-2000	-468	4076	5725	2266	-15772	-1984	-320	876	12293	5322	130	129	1
-13492	-5920	10544	-5271	-32768	-26754	-13472	2436	-4188	-2378	-32768	-8546	-13264	-4948	-7172	18850	-13013	-4528	-11040	3584	11344	1281	1108	-768	-16676	-1496	100	5343	6169	2380	-14700	-1444	1700	7203	12264	5618	127	127	1
-15844	-5668	10548	-6835	-32768	-27807	-12860	2996	-4912	150	-32768	-10355	-12184	-1900	-8080	24472	-12916	-4733	-10556	5344	11632	496	1361	-2302	-17332	280	180	2249	5512	2593	-15988	1316	1604	11182	14038	5827	123	132	1
-16248	-5868	11244	-6597	-32768	-25753	-14916	4024	-4928	691	-32768	-11897	-10120	1476	-8488	23610	-13080	-4019	-11104	4756	11552	-519	907	-3401	-16912	-132	-264	-141	5374	1929	-15472	1704	-560	8978	15824	6323	123	133	1
-17320	-6952	12928	-5214	-32768	-25129	-17896	5572	-6412	624	-32768	-12362	-8432	1944	-7792	15535	-10970	-3514	-11652	3588	11172	-1337	332	-4085	-16048	-1012	-1636	432	5915	2007	-16124	1416	-76	3521	15692	6327	125	132	1
-19936	-7024	16676	-3994	-32221	-26288	-21912	7112	-8316	1998	-32768	-12141	-7972	1672	-5796	7846	-7173	-3014	-11828	3332	11772	-1708	246	-3660	-17116	-1972	-2408	2792	7066	2368	-16528	280	2004	-3827	18114	7581	126	131	1
-27392	-5548	20524	-5714	-28120	-27998	-25328	9292	-9616	-286	-32768	-11239	-8596	4324	-4628	1759	-2729	-2718	-11940	1536	12028	-1313	242	-2774	-16156	-3472	-1552	4772	9273	2811	-15800	-940	2456	-4819	20018	8170	127	133	1
-32768	-8444	22560	-6315	-30303	-26787	-28580	7008	-15480	-5398	-32768	-12271	-9052	5160	-2724	1236	293	-3158	-11532	2756	12568	-1267	1054	-1721	-16516	-1684	468	5085	11169	3082	-19064	-764	2028	151	16357	5278	125	132	1
-32768	944	16548	-10000	-32768	-25911	-29204	7896	-18884	-11580	-32768	-12248	-9392	5316	-2176	1177	60	-2814	-11600	3656	12272	-1264	1629	-2185	-17164	280	1636	1693	12124	2404	-19716	740	2636	-1010	10421	4367	127	132	1
-32768	1184	-2116	-13757	-32768	-25510	-27240	10164	-20692	-10599	-32768	-13390	-17636	-6716	11456	5107	-4704	-7139	-12336	4052	12008	-2066	2274	-2695	-17364	1160	768	115	13939	1847	-17232	384	5964	-610	8767	5062	125	133	1
-32768	13960	-9056	-20206	-31251	-26954	-18132	9240	-27304	-11059	-25619	-10863	-21432	2940	26276	11486	-6994	-8747	-12544	3504	12788	-2107	4036	-3966	-18160	-940	376	-2290	16020	616	-18204	-920	5172	2002	8668	5394	125	135	1
-32768	28252	-29828	-22853	-19206	-17499	-3860	7500	-25556	-14123	-7152	-9867	-14788	7032	32204	-10623	-183	-2581	-11984	2876	14608	-3667	7962	-4438	-18924	-3272	-1312	-4515	18135	-187	-19576	-452	3728	4976	6543	3696	120	133	1
-32768	23676	-28180	-16360	3776	-4233	-5644	4016	-22640	-8032	11730	-2260	-14928	-1472	21924	-10940	-7245	1584	-11708	3440	15676	-5155	12567	-5273	-20976	-2844	-2556	-7785	19789	-944	-20412	2196	2100	5140	4477	1255	116	129	1
-14244	-9200	6084	25373	6552	6451	-18704	3864	-348	-6680	19270	3684	-12476	-9124	6372	-6555	-670	-1646	-11348	4444	16772	-6776	18415	-8320	-23216	-4416	-3220	-8823	20314	-573	-21848	1172	1776	5700	2281	530	117	125	1
14260	-17476	32767	17825	16602	14818	-32768	-2696	32767	14121	5594	-855	-16024	-6316	-7556	-7215	15792	-4096	-9860	3920	18060	-7025	26595	-10423	-26348	-6732	-1532	-6385	21395	127	-24072	-2224	5420	7588	-3460	-491	135	126	1
-18720	27340	11148	12652	23267	11874	3912	27892	-11056	32767	5692	4469	-27320	-7676	8884	7628	-4562	-878	-6124	3416	19868	-6886	32767	-13044	-28488	-13000	4400	280	24056	1428	-24696	-3568	8892	7555	-6130	-846	141	127	1
-17336	5372	20536	-82	26838	5563	-28904	21320	-2732	15134	14684	9278	-22144	10388	17732	32767	-2887	3537	-8536	12368	20160	-9152	32767	-18160	-32768	-15948	13852	7665	26865	2938	-22304	-23844	14096	3850	-14712	-13313	119	130	1
-26304	-6104	15904	-4510	17383	15028	-21392	6060	-8332	-725	20426	-890	-16148	18624	568	14913	16439	4977	-16688	14416	19040	-15455	32767	-24582	-32592	-5948	15160	11357	28326	3203	-23152	-9540	14564	9639	-19887	-15637	126	127	1
-26668	-12240	12544	-4413	16329	14224	-23124	-7216	-5236	1506	18798	-697	-17160	-6888	-7212	-21332	13467	5339	-32768	-1912	2096	-9723	32767	-32768	-27108	6700	-14996	-1488	28674	3803	-18800	6324	-1976	27723	-11328	-13812	124	133	1
-14884	628	15048	7956	3275	8098	-13992	-556	-6820	13064	11392	1718	-12864	-21736	-13040	-15542	13309	-5577	-32768	7832	17244	-7870	32767	-32768	-28828	1576	-11028	-10537	20775	1481	-30112	6188	-15440	32767	-10099	-5876	121	134	1
-11836	-5152	11848	7739	1950	7322	-15680	2624	-6544	4954	10143	2278	-16048	-2920	-7152	-3982	8667	-7517	-31712	11516	27760	4399	32767	-26544	-19508	276	-5852	-11727	16631	232	-32768	-684	-15924	11485	-24057	5322	128	139	1
-11936	-3344	12884	4517	1264	5216	-16908	8920	-4584	-2132	9791	1396	-15288	-3224	-3320	-3297	10845	-2744	-32768	3976	15968	-798	12486	-15967	-13604	496	-10864	-3348	9329	1233	-27236	1028	-6300	2145	-32768	-611	136	131	1
-11388	-2692	13376	2561	544	2424	-17220	6092	-2456	-5404	9951	206	-17268	-3548	408	801	14624	197	-17092	11404	20368	5334	-27745	2305	-6048	2140	-2544	5687	2566	-821	-24640	-552	72	4531	-29665	-1642	135	126	1
-10284	-3800	12404	1169	939	817	-17612	2076	-696	-1283	8275	-94	-15724	-3880	996	3481	13584	2591	-748	11844	15004	5850	-32768	9057	-7804	-976	2796	9913	-6383	-417	-22524	1648	-7188	8733	-19609	773	132	119	1
-9960	-5308	11404	1206	609	721	-16572	32	-940	5668	5631	155	-15464	-3416	1260	4933	13287	1954	2052	8304	10472	6905	-31693	9509	-6124	304	1460	7515	-14473	-1939	-17912	3400	-9316	6385	-17179	1961	123	123	1
-9672	-4932	11284	1183	146	619	-15984	2348	-972	8318	3990	706	-15860	-1812	2040	5806	13168	-1398	-4604	6340	9208	7940	-31736	9833	-5964	3076	-1544	5407	-21840	-2888	-15060	3736	-9064	1138	-16673	2094	133	119	1
-9172	-5360	11136	1341	185	978	-15380	3020	-908	2746	5745	906	-14684	-976	1920	1385	14102	-1739	-7368	5192	9140	10455	-32768	10829	-7416	1032	-2644	4291	-28177	-3888	-12988	3388	-9536	-4843	-16479	1817	126	121	1
-8936	-5636	10960	1645	370	1764	-15228	3036	-976	-4603	7993	508	-14164	-924	1564	-5874	15713	-1458	-11052	3872	9712	13408	-32768	13664	-8152	-696	-4352	6335	-32768	-4169	-10752	3344	-9288	-7049	-15644	896	127	124	1
-10072	-3684	11740	1850	635	2232	-15916	3180	-1724	-7105	9169	-56	-14696	-1380	1472	-6226	15582	-772	-15496	2780	9664	17066	-32768	19058	-9608	-1064	-5400	10303	-32768	-4452	-8644	3984	-9464	-10490	-13403	181	127	132	1
-10024	-3292	12324	1360	587	1490	-16788	2488	-1152	-1329	8397	571	-16312	-760	384	-4811	17955	-298	-15428	3004	10540	19726	-32768	24594	-12232	-1496	-4388	10114	-32768	-4872	-7360	4460	-10208	-16633	-11804	-340	127	127	1
-9772	-3536	12128	826	446	744	-15660	3488	-1076	2997	8132	1112	-15724	-1128	1064	-2216	18895	-745	-17268	2396	10796	23324	-32768	29318	-16536	-1768	-4936	6886	-32768	-3475	-6212	4316	-11804	-21711	-10542	-950	123	126	1
-9644	-5156	11676	714	773	912	-16304	2600	-1368	-80	9054	807	-14820	-2216	1212	2719	19997	-2776	-18324	2068	12900	25101	-32546	29259	-20304	-3144	-8772	7060	-32768	-3178	-6752	1404	-10812	-21810	-9496	-1824	123	124	1
-10136	-4792	11668	738	1096	1564	-16488	1876	-1764	-2310	9251	886	-15564	-2424	1268	4924	19317	-5011	-32768	5444	17940	21442	-27260	28785	-24556	-768	-13092	4040	-32768	-3979	-8528	-4440	-5412	-14627	-9730	-3273	127	123	1
-9992	-4188	11636	750	1143	1947	-15560	2168	-908	-1102	9466	1319	-16584	-3240	412	1927	15584	-3767	-32768	-1080	21656	17512	-32742	30100	-29756	-7980	-17732	7898	-32768	-4634	-10472	-7452	644	-10962	-11222	-4352	133	120	1
-10476	-4108	12012	634	1457	2267	-16148	1376	-1776	1868	9748	1863	-17744	-3792	1184	-297	11486	-2508	-32768	-10660	16600	18713	-32768	32767	-27016	-3936	-18244	20104	-32768	-4694	-11112	-1588	7492	914	-6034	1206	123	122	1
-10508	-4236	12488	300	2596	2262	-17352	2112	-1428	1898	11255	2941	-17932	-2416	4396	-848	9857	-3220	-32768	-7120	5944	11854	-32768	32767	-26336	3712	-17544	13531	-32768	-4210	-16828	-1848	7868	10307	1203	8365	123	124	1
-10448	-5528	12740	387	3856	3012	-16932	320	-168	1397	13738	3782	-17904	-1384	5568	-6525	8244	-3370	-32768	-15132	-9532	4519	-30480	23167	-23492	440	-19988	7062	-29697	-546	-17120	-8816	17088	5510	445	3620	125	121	1
-10616	-4692	14144	1543	6350	5145	-18460	2068	-772	2681	15714	4655	-19308	-2840	4904	-9181	5597	-3261	-32768	-27696	-22752	10689	-14331	15419	-11612	-896	-23752	8319	-14943	5205	-17240	-9064	26528	-1271	962	1847	124	115	1
-11148	-4120	14640	1827	11262	6246	-19920	5048	-2588	5163	17463	5336	-20208	-4428	2480	-8653	3532	-2409	-32768	-32768	-24296	16685	3223	10871	-10904	-1228	-23496	8820	-12162	5570	-14624	-7788	27932	3752	-2464	822	127	113	1
-11112	-4752	16460	2275	16720	8211	-21292	5532	-3504	7133	18683	6048	-19740	-5700	896	-7251	3122	-255	-32768	-15384	-15968	-2670	10284	3068	-10032	5368	-20624	-5382	16493	2294	-16848	344	18572	1551	-5727	2667	126	120	1
-9964	-5688	16324	3525	22850	10607	-22128	5632	-4196	7931	18865	5622	-20912	-3816	596	-7007	1714	1059	24296	8284	32767	-11170	8296	-15871	-32768	-16212	32767	-10198	12556	-2085	-16164	2380	-1924	-2353	6515	5184	125	126	1
-8916	-4408	16940	3905	28021	13045	-24092	6024	-2584	5917	19146	5532	-23012	-3008	4720	-7601	-2270	1962	-5496	-6052	7760	-24972	9900	-26662	-12200	-1980	-2896	-30179	1156	9552	-21292	-5476	2548	-11721	14368	2132	128	126	1
-6348	-3448	16352	5151	32767	16911	-25940	8328	456	2293	20328	6095	-23548	-2688	5776	-7848	-3428	2021	-12308	-18180	19192	-9532	24999	-5176	-11916	-23088	-7096	-25652	10751	-4840	-10820	-4208	6316	-29393	7529	-1274	128	132	1
-7048	-10448	18324	5907	32767	18942	-30364	12652	11788	-6944	23742	6351	-20884	17164	19800	-6442	-14370	4896	-19360	-12544	19692	-3803	20677	-14217	-23420	-7512	-4420	-12502	14639	5229	-18300	-19300	-424	-14996	7984	-74	122	125	1
-25480	-6384	13660	5445	32767	23569	-26548	7348	4292	-19999	29564	1556	-22480	13280	13572	-15770	-17829	9779	-23112	15328	10220	-1205	15822	-11664	-20236	-500	-3336	-9315	15270	6317	-15708	-1532	-3416	8414	12580	-612	119	121	1
-32768	-7824	8812	-1062	32767	27915	-28596	-2836	-10276	-15498	32767	4406	-21520	-1804	-6432	-32768	-16800	8303	-15732	4464	9280	-13572	4185	-12849	-21196	15492	-7952	-13554	12713	7558	-19532	22316	-4456	5855	10329	6340	128	142	1
-32768	-11880	17468	-721	32767	29076	-26076	1272	-148	-7409	25669	6046	-25668	-11096	-18320	-32768	-19076	2492	-14604	7156	10164	-9180	712	-10915	-17708	584	-4740	-14693	9817	3726	-17152	8472	-7940	-10172	9361	9602	126	134	1
-26612	-18044	26748	-9502	31815	24396	-20224	-688	-4684	-2512	21369	4831	-27648	-14236	-12608	-2291	-23518	-4513	-13644	-1904	13720	-8139	-600	-8817	-16132	-3408	-6144	-9254	8853	2812	-15464	-204	-3892	-9438	7331	7695	133	142	1
-32768	-4132	28876	-12535	2819	16392	-11072	3244	-9808	-690	9886	2790	-25636	-7388	-5432	9018	-24662	-3471	-12876	372	13504	-4745	-427	-5284	-18208	-6868	-5424	2349	10409	3372	-17264	-1192	-3808	-5081	9023	5523	133	131	1
-7988	-15204	22364	-12896	-32768	-2069	-9508	-1368	2308	-12951	2302	1829	-24932	-1556	-4080	7075	-21832	-5047	-12112	1520	12788	-2348	33	-2776	-17432	-2572	-3348	7413	10773	3746	-16328	-968	-2196	-2821	10166	4634	127	131	1
-3648	-17024	21320	-13549	-32768	-3767	-9120	164	4668	-12297	-7045	-6519	-20060	-3268	-5368	2407	-19847	-6445	-11308	2584	12092	-2181	279	-1684	-17376	-1948	-2836	7252	10597	3721	-15460	368	-1256	-1526	10811	4069	121	118	1
912	-11284	9192	-8975	-30077	-9733	-7116	-920	1248	-7813	-15693	-8090	-16216	-2896	-6552	4327	-17431	-5514	-11008	2424	12016	-2569	376	-1457	-16732	-1392	-1108	-1513	6793	2353	-15760	-96	-1184	-2932	10923	3885	125	126	1
-4432	-9440	9060	-7898	-31192	-15667	-6936	12	-1528	-204	-24737	-9897	-13416	-1352	-7192	7753	-15323	-5741	-10236	2368	11752	-2928	259	-1963	-16256	-2856	-912	-1573	5866	2582	-15504	40	-3228	-2000	12117	4458	130	126	1
-8752	-7520	11300	-7806	-32768	-22054	-9832	3620	-3848	-978	-31388	-10298	-12736	-3592	-6160	11221	-14057	-4786	-12212	556	12344	-2339	386	-2248	-15592	-3468	-2912	872	5591	2778	-15912	-2448	-1292	618	12425	5720	129	129	1
-13168	-4600	12496	-8986	-32768	-27028	-13544	4108	-3804	-3689	-32768	-11308	-12468	-5436	-7376	16036	-12490	-4424	-11080	2544	12156	-860	759	-1667	-16388	-4112	-864	6291	6953	3269	-15104	-2976	384	5126	13044	6080	125	128	1
-15480	-3624	12848	-10881	-32768	-27947	-13812	4608	-4704	-1310	-32768	-13078	-11812	-2172	-8584	23397	-12511	-3285	-10996	3008	12244	-1105	749	-1983	-16724	-244	-708	4529	6927	3726	-14664	-1340	1256	9802	13649	5523	122	129	1
-16524	-3328	13848	-11675	-32768	-26032	-15200	6456	-4664	-833	-32768	-14138	-10344	1972	-9264	24496	-12949	-2745	-10912	3416	12412	-1194	709	-2297	-16916	-804	-572	-104	6412	2683	-15700	1392	616	9915	15346	5740	123	130	1
-17800	-5764	15120	-9521	-32768	-25090	-18064	7884	-5892	-2126	-32768	-14977	-8708	2512	-9088	17095	-11235	-2150	-11480	2100	12416	-1237	876	-2394	-16764	-2068	-1744	1199	7331	2639	-16768	1136	-836	6181	16788	6435	122	129	1
-18036	-6172	15596	-8872	-32768	-25115	-22192	9292	-7700	-287	-32768	-14683	-7452	1820	-6260	9378	-6983	-1616	-11700	2004	12152	-965	759	-2114	-17316	-1628	-2796	3936	8494	3218	-16088	508	-104	-1695	19483	8451	123	131	1
-25952	-3624	22780	-5975	-26186	-28127	-26820	11480	-9744	-1422	-32768	-13109	-8124	3784	-4064	3200	-3217	-1070	-11648	956	12288	-628	1125	-1815	-17100	-2228	-2292	5258	9606	3267	-15280	1088	1228	-6548	20954	9185	124	133	1
-32768	-3384	24756	-6072	-26790	-26316	-28736	9496	-15812	-6896	-32768	-12797	-8120	4888	-1696	4635	-645	-2808	-11480	1392	12280	-910	1565	-1605	-16056	-596	832	4098	10804	2926	-19400	920	1360	1200	15076	6254	122	133	1
-32768	5724	16556	-11691	-32768	-28680	-27852	8952	-22852	-10271	-32768	-11333	-10952	-2140	5120	-1129	-3865	-4318	-11972	3108	12464	-1331	1948	-2396	-16352	360	3480	1008	12506	1707	-20040	324	7724	3782	7988	3622	122	133	1
-32768	3596	-9072	-11158	-32768	-29285	-22920	10620	-22716	-5551	-32768	-10943	-18184	-4920	14344	4237	-5094	-7877	-11772	3584	13044	-2298	3659	-5128	-18980	404	1260	-484	14982	1292	-19024	-2496	8332	1705	6956	5130	124	135	1
-32768	12944	-18112	-9592	-28376	-25984	-15252	7972	-24328	-2577	-24431	-10132	-19752	5520	24304	5776	-1225	-5481	-11528	2880	14840	-3779	6553	-7311	-19608	-2572	-1008	-688	17187	991	-18236	-3424	4936	3640	9079	5750	119	134	1
-32768	31844	-30720	-11421	-8532	-17311	-3464	7288	-27152	735	-6380	-6781	-16460	4972	32216	-2858	-3597	959	-12012	1084	15516	-5336	10909	-8742	-19308	-4592	-2760	-3058	18885	587	-19988	-456	728	6891	7049	3609	123	133	1
-32768	21660	-25600	-2125	8971	-10041	-6252	3844	-25540	7160	10885	1486	-15456	-3296	20192	-2358	-6905	697	-11144	936	16968	-7951	15183	-9233	-21284	-4316	-3572	-7469	19422	-374	-20340	2268	672	5856	3941	1538	112	130	1
9640	9152	16276	20117	14593	9377	-27200	-5324	20772	1451	14264	5432	-14108	-6752	1936	-4320	3005	-143	-10836	2660	18140	-9744	20438	-9936	-24564	-4384	-2548	-7838	20086	-151	-23224	3176	3828	5258	334	-249	125	125	1
-22304	17356	15576	9501	22930	20677	-21752	11852	-2972	28766	5863	-1887	-22896	-3380	2804	-6456	8773	-286	-9872	5004	17032	-11695	27410	-13479	-26756	-5376	1092	-5723	21559	395	-25652	412	13480	4841	-8403	-1859	123	128	1
-8936	16928	17776	3652	29269	7681	-11028	23012	1228	11790	16903	11267	-18068	1820	13096	16471	-3172	1389	-8296	6808	19684	-13187	32767	-21334	-30928	-12968	11216	1411	24904	1582	-21308	-11644	15212	782	-15008	-6982	125	130	1
-23688	6176	19396	-3273	23014	10661	-24192	17044	-6972	1442	20444	1738	-13300	17680	3480	14030	13520	3494	-7656	10680	21244	-14036	32767	-21634	-32768	-17780	16692	12666	27500	4572	-23600	-21328	12744	4531	-17019	-14913	131	131	1
-22412	-17856	11112	-2282	15532	9648	-23016	600	-6112	-114	20874	1120	-19384	1416	-5160	-8232	11262	4747	-32768	3128	12152	-14659	32767	-32768	-26464	1196	-7500	13154	29884	5653	-17828	-9688	5188	13724	-16079	-14467	124	128	1
-29972	-17664	6448	7103	7082	8181	-22096	-12236	-12232	6437	16518	-979	-14548	-15128	-6644	-13900	10093	-1664	-32768	3404	6240	-10149	32767	-32768	-31316	6372	-9728	4358	30615	4101	-22644	4460	-6804	32767	-7848	-12724	127	131	1
-14264	-4472	11620	7352	1288	7578	-15976	4392	-8348	15150	8412	946	-15364	-14824	-13208	-4523	11316	-5010	-32768	8684	24084	-4401	32767	-32768	-21124	872	-4932	-4562	18484	5497	-32768	400	-15028	32767	-14276	-1165	127	131	1
-12548	-2108	12960	5854	216	6258	-14600	6312	-6580	6933	7553	812	-17304	-1920	-6972	4510	10613	-4512	-2976	18224	23152	801	24672	-21743	-18432	-1792	-8312	-5074	11996	4706	-32768	2296	-14948	12105	-25587	6739	134	138	1
-11692	-1760	13732	3422	173	2832	-17524	9492	-3672	-1749	8304	999	-16756	-2308	-1396	5578	14038	-2367	-27484	13256	22384	6295	-11174	4204	-9276	-504	-5668	4964	6845	2530	-25604	280	-4464	5922	-32768	1544	138	132	1
-10468	-3360	12528	1550	520	837	-17692	5844	-1760	-5071	8980	-18	-16744	-912	692	3292	14646	434	-6268	16332	18140	7188	-25751	16731	-11432	-2268	2464	9443	-3168	2302	-24604	-104	-4412	7402	-26218	1987	132	133	1
-9996	-4400	11800	992	606	249	-16708	1540	-248	-1374	7537	-15	-15612	-1000	2216	2086	13460	1251	3104	10196	13816	4653	-26622	19704	-7044	788	2212	3275	-14103	2951	-19780	1132	-8200	10445	-19796	3018	124	124	1
-10372	-4456	11716	897	589	201	-15804	1768	60	5028	5240	238	-15360	-1828	3136	2568	12763	386	-2464	5124	11992	5129	-25325	19827	-5844	1488	-1164	-2014	-22709	876	-16236	2224	-10132	5389	-17541	3865	116	121	1
-9696	-4536	11544	966	153	263	-16132	1684	68	5610	5017	255	-15476	-872	3632	4031	12926	-432	-5768	1352	12120	9756	-28278	19768	-6796	-1400	-2800	-2007	-29586	-614	-13224	3492	-10016	-653	-17026	3223	129	122	1
-9452	-4596	11288	958	125	363	-15544	3060	-816	2445	6277	688	-14688	-1780	2236	261	14955	-946	-10304	-500	12764	14168	-32140	20081	-7200	-2856	-4268	2413	-32768	-1884	-10388	3940	-9216	-5919	-16635	2435	127	122	1
-8836	-5140	10824	1024	108	1201	-15432	2376	-932	-2838	7677	649	-14148	-2264	1048	-4527	15760	-1562	-14832	-1952	13140	18686	-32768	21475	-9368	-2368	-5636	7935	-32768	-2580	-7680	4608	-9340	-10835	-14467	973	125	126	1
-9500	-5092	10880	1701	-220	2551	-15996	1532	-1560	-5316	8439	610	-15016	-2904	544	-3982	16928	-1938	-14288	-2216	12736	23117	-32768	23206	-11892	-3348	-5036	9152	-32768	-3298	-7268	4824	-10476	-16816	-12101	-346	126	125	1
-10052	-2340	12336	1573	-489	2564	-16108	5524	-2056	-1444	7768	968	-16108	436	300	-3280	18480	-1472	-14072	-1156	11968	27068	-32768	24676	-14804	-4164	-4456	7509	-32768	-3348	-6740	4504	-12124	-21957	-10378	-845	125	123	1
-10132	-2592	12600	358	65	1297	-15920	5756	-1016	27	8928	1014	-15584	1572	936	-2583	18850	-1064	-18072	-808	14864	28512	-32296	25163	-19008	-5332	-9076	7669	-32768	-3123	-6784	2264	-12124	-22282	-8468	-1155	124	120	1
-9752	-4188	11964	-60	540	941	-16096	3080	-640	-719	9653	771	-14884	848	2684	1413	21027	-2891	-30256	1184	18352	25920	-28691	26473	-23872	-3648	-12816	9831	-32768	-3762	-8244	-3292	-4328	-17617	-12559	-3287	124	120	1
-10220	-4724	11292	341	545	1671	-16056	880	-1288	-272	9734	917	-15232	-1596	3376	3187	21092	-4825	-32768	-2800	21396	21509	-29931	29346	-29068	-6612	-17200	10504	-32768	-3924	-9552	-6844	-832	-14949	-12962	-4464	129	125	1
-10492	-4316	11568	1165	246	2719	-15968	288	-244	2059	10184	1873	-17456	-5696	1052	1124	15079	-4515	-32768	-9672	15908	19711	-32768	32767	-25464	-3344	-17124	15467	-32768	-3984	-10760	-4824	8756	-650	-7635	-97	123	127	1
-10168	-4380	11824	1216	379	2745	-16392	668	148	3909	11503	3162	-19440	-4556	4136	-1368	9274	-3888	-32768	-6924	6916	8809	-32768	32767	-25344	4280	-16600	5175	-32768	-5300	-10648	-4388	9832	4220	-6002	1545	124	124	1
-10432	-4108	12824	1156	1930	4140	-16444	1164	-308	4359	13509	4140	-18008	-2488	7420	-3911	8189	-3106	-32768	-14028	-7992	-1352	-29608	28709	-22268	-972	-19512	-2820	-31408	-3263	-14224	-7540	14736	4472	3521	5333	122	126	1
-10484	-5940	13944	1683	4804	6043	-19072	2424	-508	4191	15706	4696	-18984	-1728	4152	-6639	7191	-2493	-32768	-27216	-21544	2895	-14942	21921	-12204	-380	-23228	-116	-16877	2764	-18220	-7856	22924	-5526	696	1740	126	119	1
-9704	-2848	17488	2947	9619	8261	-19872	7116	-1684	4038	17778	5622	-20464	-3524	3140	-7077	5346	-2248	-32768	-32768	-23480	10584	3272	15651	-7688	4004	-21840	889	-201	4054	-17020	-12236	27128	-2825	-4063	-357	126	113	1
-10416	-3988	16800	3813	15036	9626	-21104	7016	-2800	7159	19298	6292	-20980	-2780	2440	-6561	2426	-974	-32768	-20532	-15384	-835	9170	5913	-9600	5232	-21520	-5624	13809	2819	-18040	-2480	18268	356	-6221	795	127	126	1
-10032	-5232	17860	5767	21408	11054	-22808	6628	-3428	7864	19957	6337	-21680	-4004	2992	-6299	1200	959	-18184	24700	26908	-8648	7984	-14404	-25788	-11808	3336	-11892	16627	-486	-12128	2160	3464	307	4000	4467	122	131	1
-7144	-3672	18616	6099	26885	13901	-24584	6804	-1808	6907	20466	6252	-23128	-4292	7092	-7603	-2215	2435	5656	29856	32767	-14352	22339	-22093	-25544	-7460	11260	-21390	492	9212	-16908	-2632	-5476	-11596	24551	3944	123	117	1
-6512	-3148	18524	7494	32767	21674	-28772	8552	1948	2911	21951	7393	-26048	-1240	27820	-879	-22358	3131	-5720	-27924	7364	-10930	27618	-10419	-6868	-24272	-10824	-19928	11321	-3265	-15512	-4180	576	-8783	8497	91	125	130	1
-5632	-12992	17660	8990	32767	26938	-29932	11220	12992	-6576	25541	6565	-21384	15076	16964	-5801	-13864	6153	-28048	-2260	19232	-5285	25575	-11104	-26724	-5712	-3544	-7650	14586	4968	-21468	-18920	4268	-13286	3963	-720	123	129	1
-12584	-6360	15956	9810	32767	24763	-28468	11424	8096	-19966	29381	3183	-22096	14172	11924	-15892	-16736	9452	-32768	20164	18456	-284	15306	-6238	-25108	3104	-1088	-3535	16307	6125	-20028	-4648	-3152	9515	11284	-53	123	120	1
-32768	-7076	7112	3679	32767	32386	-28008	9688	4900	-22129	30484	3096	-22512	-252	-13360	-32768	-16679	9969	-15372	-8104	17400	-10384	6321	-10865	-18420	4604	-6432	-13056	12652	7824	-17112	27144	-11680	13610	16030	7318	124	124	1
-32768	-16820	20064	3561	32767	32282	-28588	-1264	-14144	-5248	27755	6454	-30388	-15160	-18820	-32768	-18382	-266	-15816	6836	10564	-8868	2080	-8788	-16544	3976	-4820	-11988	9432	4589	-14836	8940	-6572	-12155	7629	8915	122	138	1
-28260	-13640	26568	-6939	27900	22983	-18280	1132	-11088	1046	19017	6791	-26324	-17500	-15572	2738	-22522	-5589	-14068	1600	13080	-5318	188	-6228	-17916	-5140	-4476	-6251	9380	2760	-17976	740	-2860	-12350	6758	5427	137	137	1
-32768	-16152	25792	-3649	-7919	3309	-12896	308	-9696	63	7858	3626	-26920	-6020	-5240	13870	-24247	-5424	-12664	1364	12692	-3166	42	-3624	-18324	-3852	-4108	3171	10939	3066	-17704	-428	-3620	-3619	9840	5180	132	133	1
-3324	-15964	18828	-7038	-29757	-8366	-9388	-2148	3792	-8457	521	2010	-23164	-1772	-4288	8022	-21446	-6563	-11448	3368	12132	-2172	87	-2552	-16592	-2420	-3108	7949	10689	3280	-15976	-336	-2720	-1453	11000	5369	130	130	1
7188	-13080	10460	-5357	-27980	-9235	-10348	-660	4940	-4223	-10614	-5493	-19144	-3140	-5868	4983	-19306	-7439	-11276	2284	12064	-1626	422	-1762	-17100	-1388	-2140	5748	8590	2761	-15052	-68	-1756	-302	11480	4059	122	127	1
604	-9288	8504	-4352	-22627	-11920	-6336	-1512	716	2036	-18440	-6794	-15104	-1612	-6628	8189	-17419	-6917	-11312	2632	11828	-1287	909	-1585	-17600	-44	-2208	-692	5939	2120	-15892	-104	-2200	-1744	12395	3789	121	127	1
-7356	-8980	9364	-5726	-26410	-17423	-5832	-144	-3728	6069	-25923	-7717	-12516	-1296	-7368	10734	-15114	-6389	-11316	2692	12180	-659	1004	-1361	-16332	-3016	-1488	-2426	4861	1685	-15456	-1820	-1372	-2217	12387	4462	124	131	1
-8500	-7844	10024	-5264	-32768	-23051	-8672	3188	-4748	1355	-31279	-8964	-12244	-2600	-6668	12722	-13623	-6122	-11272	2708	11604	468	1072	-708	-15516	-3316	-116	1673	6020	2328	-15040	-2864	884	1955	11709	5681	128	129	1
-11544	-4612	11368	-6524	-32768	-26655	-12304	3380	-4828	-2439	-32768	-10054	-12176	-4492	-7356	14775	-12227	-5910	-10852	4076	11492	65	1315	-1447	-15844	-1544	1104	5135	7147	2967	-14828	-2212	2492	7746	10741	5702	127	130	1
-18592	-3276	12596	-10006	-32768	-28083	-13168	2972	-6236	147	-32768	-11038	-12812	-2752	-8632	21899	-11341	-5643	-10976	4116	10760	-804	1561	-2556	-16988	656	28	4092	7484	2646	-15248	1048	1404	14299	13344	6689	121	129	1
-18772	-4180	12716	-11466	-32768	-26149	-13244	3472	-6564	261	-32768	-11320	-11156	880	-9576	26679	-11847	-4893	-11900	3072	11696	-1310	1116	-3065	-17168	-612	-1588	1399	7328	2080	-15820	1124	256	9647	16411	8667	122	132	1
-18184	-6072	13104	-10827	-32768	-24496	-17784	5860	-6232	-5081	-32768	-14221	-9480	1936	-9176	20611	-10585	-4668	-12188	1908	11860	-1374	491	-2868	-16420	-2472	-3024	1891	8146	2118	-15668	308	1920	-2632	17068	8731	129	131	1
-21704	-8352	16204	-7121	-32768	-25109	-21756	5464	-7476	-1345	-32768	-15351	-7908	2272	-7288	11627	-6644	-3596	-11764	2580	12056	-925	538	-2110	-16724	-2332	-2600	4253	9015	2639	-16052	1412	-1624	-1621	19578	6189	125	128	1
-28824	-5956	22380	-6245	-31088	-27410	-27040	9620	-10384	-79	-32768	-15009	-8272	5684	-4012	3472	-3006	-2342	-11788	3552	12060	-1067	832	-2130	-17432	-1832	-2188	4310	9050	3136	-17896	2452	-3980	1725	18976	4617	125	128	1
-32768	-1232	24924	-12110	-32598	-31499	-29976	11820	-15324	-3748	-32768	-14273	-8264	6308	-592	2756	-687	-2424	-12284	2088	12136	-1313	1074	-1959	-17148	-1892	-1184	2866	9515	2804	-19308	1672	-300	-1148	14710	4994	127	129	1
-32768	4492	17036	-18271	-32768	-32768	-28608	9268	-17768	-12615	-32768	-13737	-12104	-820	2556	-1005	-2102	-3922	-12168	2356	11552	-1485	1645	-2274	-16052	280	2060	2667	11316	3005	-17000	-772	6288	-23	11287	5244	124	130	1
-32768	3912	-136	-12730	-32768	-28516	-25340	9224	-20804	-6945	-32768	-14051	-19960	-7016	14044	1073	-5053	-8864	-12364	4064	11972	-2329	2193	-3266	-16320	1688	2456	-588	13597	1899	-17880	-2276	8800	1012	8143	5027	122	132	1
-32768	15020	-13180	-8226	-26660	-22589	-16296	10040	-25572	-3704	-26224	-11930	-19976	2160	25828	8174	-5257	-8844	-10988	3924	14144	-3275	4510	-5211	-19236	-956	368	-3443	15773	849	-18412	-1996	5488	2006	6792	5411	128	134	1
-32768	32767	-29788	-17241	-10178	-12957	-2064	10268	-28324	-5738	-5057	-8039	-15132	4080	32767	-1964	-2083	-1740	-11988	1748	15184	-4533	9211	-6271	-19812	-4332	-3424	-4889	17624	564	-19420	1120	1616	4496	7105	4051	121	132	1
-32768	22240	-25424	-6594	7008	-3454	-5948	3588	-24812	2682	13736	1277	-15720	384	21364	-4681	-7733	1712	-11972	1200	15684	-5912	13997	-7399	-20852	-3148	-3664	-6823	18825	-250	-20084	2356	-144	5294	6103	2681	116	129	1
-3572	6656	22856	26033	3751	7922	-21904	7592	13260	-9801	20127	7047	-10568	-5896	1412	-8564	1916	304	-11020	3004	16864	-7270	19736	-8708	-22468	-3960	-1996	-8397	19464	-226	-21308	1460	3136	7357	1421	93	121	128	1
14508	-14260	28416	11401	16337	20021	-32420	2384	19680	14898	4741	-4790	-19012	-1764	-7140	-9147	12610	523	-10272	4956	17532	-8116	27420	-10942	-26600	-5768	548	-7402	21151	4	-25596	-420	8728	7213	-5797	-1102	127	127	1
-13888	29096	10852	10847	24195	15570	688	27924	-7644	18324	11243	7257	-26572	-5692	10228	7679	-6175	-375	-6768	4876	20060	-9318	32767	-14415	-29288	-11788	5748	2	24218	1597	-22424	-8956	17320	-2704	-17020	-4524	128	128	1
-23808	3924	18976	-1436	28249	5500	-29120	18048	-3692	8053	17149	6580	-14412	14992	15668	27762	5295	3110	-7792	8060	18744	-12519	32767	-19188	-32300	-19456	14536	10424	27451	4046	-18400	-26488	14616	5342	-14942	-14610	129	128	1
-32768	-8764	15320	-4944	16471	15339	-23936	108	-9004	-2172	20909	284	-19360	15536	344	4175	12843	5661	-22696	6700	17800	-13101	32767	-27187	-30360	-5936	9728	14378	28930	4629	-21176	-11356	10412	11084	-18458	-16192	123	132	1
-24620	-27272	16788	5734	12924	4947	-22936	-4684	-6480	3047	18516	-616	-19388	-11464	-7452	-21269	13057	2939	-32768	1428	1472	-6413	32767	-30436	-27612	6460	-12448	5374	30584	4515	-18920	8332	-3900	32767	-7199	-14249	127	133	1
-15672	-1092	14900	6553	4148	6429	-14988	1044	-7152	10886	12030	947	-13020	-17488	-8968	-9961	11986	-6105	-32768	5232	17796	-7244	32767	-32768	-27060	5396	-5676	-3857	21490	3387	-32404	7636	-13912	32767	-9885	-4652	120	134	1
-11620	-5048	12384	5384	2994	5405	-15836	4232	-5880	2410	11955	2566	-15364	-4788	-7240	-4997	8990	-4956	-32444	10696	26516	4071	32767	-27259	-20340	-772	-6704	-10142	16139	876	-32768	3156	-16404	8595	-24501	6032	129	135	1
-11860	-4952	12120	3531	1930	4183	-16580	5068	-5280	-4482	11327	1882	-14804	-5652	-5404	-5081	10573	-2210	-32768	2972	17916	1678	10338	-14636	-12936	808	-9728	-3091	8411	1545	-26216	1820	-4532	567	-32768	690	134	136	1
-11028	-3728	12184	2702	717	2380	-17176	5316	-3600	-5526	10001	1416	-16988	-6064	-3180	1109	14312	385	-16708	12088	20924	5056	-24904	3847	-8548	2016	-2784	3674	960	-805	-24456	-320	-592	3564	-28847	-240	132	130	1
-10628	-3992	11948	1887	902	1128	-17844	2744	-2556	-1697	7556	779	-16340	-2656	-1732	3626	15004	1357	-1192	11664	13968	6013	-32085	9967	-8696	-84	2076	6699	-7501	-1213	-22140	2760	-6804	7939	-19664	2390	125	121	1
-10200	-4860	11404	1752	448	880	-16780	1724	-1952	5302	4355	170	-15328	-1560	-1188	3814	15374	1338	2668	7148	9600	7620	-28289	10907	-6096	-244	1116	3029	-16121	-2644	-17876	3556	-9000	3847	-17442	3254	128	122	1
-10608	-4304	11496	920	-237	448	-16068	2536	-1276	7642	2372	770	-15960	-2208	612	5340	15842	166	-5584	6804	8076	8005	-26031	11299	-5692	2312	-1896	2601	-22497	-3471	-14388	3060	-9344	-2411	-17282	2940	124	120	1
-9480	-5108	11104	661	-300	506	-15384	3412	12	4606	3484	608	-15864	-548	2568	4421	16198	-1288	-10592	5684	8564	9202	-30614	12340	-6896	1472	-3528	3162	-28124	-3728	-12420	2396	-9800	-7151	-17161	1993	124	124	1
-8616	-6096	10792	846	-213	1416	-14964	2160	1192	-1627	6380	300	-15028	-624	5244	-85	14847	-2104	-13312	3340	9172	10871	-32768	15699	-8300	-356	-4684	5731	-32338	-4052	-10548	3776	-8816	-9036	-16132	1193	128	123	1
-10244	-4336	11368	1350	607	2008	-15608	2036	-432	-4987	8805	17	-14804	-692	5728	-708	14489	-2188	-15748	2300	9192	14097	-32768	20769	-9900	-560	-5208	8605	-32768	-4459	-8932	4420	-9676	-12974	-13314	1119	129	128	1
-9500	-4580	11708	1401	664	1938	-16640	1144	276	-649	8634	1107	-15168	-372	3536	-5166	19715	-2789	-16916	2700	10284	17015	-32768	25980	-12040	-48	-5384	6602	-32768	-5624	-7588	4036	-11108	-18327	-11584	476	128	128	1
-10264	-3764	11616	1465	472	1966	-15784	2824	-1524	2523	8911	1322	-15492	-1932	5244	-1000	21574	-3028	-18436	3396	11008	18705	-32768	29929	-15224	-840	-3820	5198	-32768	-5324	-6996	3748	-12000	-22600	-10808	-200	122	123	1
-10404	-4036	11764	1193	551	1834	-16544	3808	-2900	813	9561	1760	-15560	-2412	-1576	-1216	20883	-3017	-16536	2024	12552	21393	-32768	30973	-16384	-1212	-3892	4244	-32768	-5076	-6888	3104	-11156	-19683	-8974	-11	124	121	1
-10440	-4120	11616	1097	880	1801	-15740	3780	-2428	-2398	10630	1266	-16480	-1712	-5052	-23	15030	-3389	-31684	2032	15992	23192	-26826	30061	-24464	532	-12780	4323	-32768	-5960	-8848	-3052	-6360	-14814	-7835	-1686	127	124	1
-10336	-4132	12040	748	1153	1822	-15836	2460	-2116	-813	9966	1614	-16136	-1564	-700	-991	11284	-2804	-32768	2428	21172	19452	-32470	29794	-32768	-5700	-18076	5919	-32768	-4901	-10460	-10460	-848	-13840	-9419	-4075	129	123	1
-10604	-3840	12352	67	1995	1387	-16876	3680	-2528	-255	10206	2224	-16532	-2424	1880	-3942	11250	-2345	-32768	-12124	14668	21859	-32768	32767	-26696	-4132	-18396	20406	-32768	-4572	-10868	-3688	8684	5429	-6605	-772	125	125	1
-10604	-4080	12384	-437	3163	1266	-17256	1660	-1380	-1016	11674	2867	-17844	-4660	2168	-3497	10316	-2752	-32768	-9532	3204	16886	-32768	32767	-25544	2700	-19488	19600	-32768	-1186	-19512	-2256	9780	13174	69	7389	124	124	1
-10796	-5520	12768	121	4516	2562	-17200	-260	-56	943	13448	3842	-18300	-4272	6076	-4739	8355	-3113	-32768	-20324	-11092	12454	-29721	25534	-23064	3072	-20484	13007	-27409	1874	-15436	-5636	20296	6118	-925	6101	125	123	1
-9996	-6120	14300	949	8475	4656	-20220	2032	144	4246	15045	4872	-18576	-4112	6576	-5219	7935	-3052	-32768	-29904	-25100	13971	-14646	14599	-10168	88	-23208	9529	-12579	6775	-16504	-8272	26896	545	1138	5271	124	112	1
-10884	-4596	14608	1367	11938	7021	-19476	4020	-2248	7197	17040	5719	-19576	-3568	4184	-7801	4442	-1093	-32768	-32768	-25636	15326	5498	7559	-6716	4532	-21908	3088	5256	5934	-14848	-5660	26908	3800	-2350	2803	127	111	1
-11220	-5072	15916	2239	17652	8840	-20740	5644	-2828	7049	18353	6351	-19808	-4668	2060	-7301	3190	-168	-32288	-6884	-11436	-10703	12462	-1057	-12548	4608	-11788	-8928	16593	2416	-16468	3304	15464	-150	-4467	4642	126	115	1
-9292	-5752	16044	3378	23891	12109	-21852	5588	-3028	6677	19276	5864	-21148	-3740	3180	-8428	15	1412	-6584	25936	32767	-14036	9974	-11969	-32768	-17252	32767	-12894	7177	-2388	-18200	2608	-4912	-6967	9909	6050	129	120	1
-9144	-5036	17372	3855	29913	14597	-25608	6804	-1568	4856	20123	6292	-25052	-3732	11860	-8262	-7478	2395	-10156	-21016	2360	-29549	12079	-27243	-5444	-9200	-12608	-32768	2753	6802	-20572	-3696	6844	-16824	11673	2051	113	123	1
-5524	-5020	18648	5384	32767	17592	-30044	9028	8528	-1188	22741	7839	-19252	144	18028	-9052	-21693	1632	-19824	-13896	24660	-6325	28365	783	-20268	-25544	-6384	-20739	13609	-3310	-10764	-11296	8720	-32768	8572	-5242	127	120	1
-8008	-10524	15996	6688	32767	23564	-28272	10992	13492	-10581	26842	5440	-23432	16024	11220	-9991	-14157	7343	-26520	-10972	18316	-640	20000	-14149	-25808	-948	-6312	-5004	20066	5967	-18308	-25740	-1884	-8210	7461	-3259	121	119	1
-32768	-9840	10560	3354	32767	27063	-25808	3780	-4632	-18449	31596	3469	-22104	7896	4032	-30051	-15186	9616	-20012	24856	720	-12271	7560	-7281	-23676	15604	-6520	-4336	17262	9905	-19988	8944	-10316	22820	11179	-386	121	129	1
-32768	-4052	6200	2860	32767	31938	-29148	-2892	-9500	-7528	30438	6643	-24824	-5788	-15664	-32768	-16496	7615	-17672	304	10776	-6274	3351	-8680	-17068	3792	-7064	-10481	12729	4753	-19504	17820	-10728	22653	10290	1398	121	144	1
-32768	-13768	20432	175	32767	29934	-23772	4456	-8264	-5678	21454	5610	-26856	-16056	-17448	-19666	-20518	-2773	-15768	-1240	13012	-8972	673	-9502	-16784	1684	-7432	-10830	8628	3251	-18900	3024	-6140	-9900	9883	9506	121	134	1
-20420	-12864	22428	-7374	24387	19815	-17404	-1148	-12168	1686	16858	7122	-26356	-16128	-16916	-13353	-21366	-3861	-13912	1024	13716	-4649	-383	-5416	-19412	-5932	-5364	81	9506	2434	-17004	776	-4468	-3438	9482	5878	136	133	1
-28804	-20616	25632	-5543	-9828	6700	-11380	-1116	-12216	37	5354	3824	-24688	-5656	-4824	11420	-23627	-5275	-12396	1812	13024	-1791	-466	-3146	-17596	-3096	-2688	6169	10015	2875	-16716	-852	-1688	-1611	10817	4973	130	132	1
-4716	-17124	18972	-6961	-32768	-2162	-10868	-1180	2560	-9011	-1002	340	-22752	-3340	-4840	7738	-21104	-5891	-11492	3188	12132	-1381	-306	-2456	-17160	384	-1740	3448	8615	2439	-15796	928	-416	-1536	10751	3786	126	117	1
2640	-10508	10652	-7223	-32768	-3330	-9620	228	2680	-5520	-11705	-4773	-19232	-3392	-6380	8503	-19432	-6663	-10784	3860	11960	-1353	303	-1299	-17416	-784	-1544	-1906	6691	1284	-15284	2156	-2056	-2123	11724	2655	122	126	1
1244	-7548	7624	-7659	-31507	-7759	-6272	1176	1048	-1437	-19560	-5829	-16124	-1732	-6320	10916	-17453	-6495	-11264	2736	11568	-1550	291	-1166	-16008	-2752	-2480	-2674	5349	1159	-15532	-596	-2748	-5527	11512	3558	126	127	1
