#Activity	walking 
#ActivityID	1 
#Date 09-24-16-39
acc_rf_x	acc_rf_y	acc_rf_z	gyro_rf_x	gyro_rf_y	gyro_rf_z	acc_rs_x	acc_rs_y	acc_rs_z	gyro_rs_x	gyro_rs_y	gyro_rs_z	acc_rt_x	acc_rt_y	acc_rt_z	gyro_rt_x	gyro_rt_y	gyro_rt_z	acc_lf_x	acc_lf_y	acc_lf_z	gyro_lf_x	gyro_lf_y	gyro_lf_z	acc_ls_x	acc_ls_y	acc_ls_z	gyro_ls_x	gyro_ls_y	gyro_ls_z	acc_lt_x	acc_lt_y	acc_lt_z	gyro_lt_x	gyro_lt_y	gyro_lt_z	EMG_r	EMG_l	act
-20268	-2600	18412	-15512	-32768	-9500	-19760	-260	-9572	-963	-32768	10372	-3880	3292	-10208	9625	-14252	-5234	-9448	3368	13388	-104	433	-1335	-16224	2576	-3788	3188	3179	2735	-14296	1656	1028	8021	15968	2299	129	138	1
-29492	-7384	24716	-15555	-32768	-11557	-25640	-3224	-11024	-2284	-32768	9813	-4228	3924	-5008	7422	-13996	-3190	-9324	3220	13596	-67	1037	-1653	-15996	1600	-3340	5055	3436	2943	-13804	108	2744	5907	16744	2775	126	133	1
-32768	-13204	26568	-10584	-32768	-13914	-30880	-6972	-11580	-959	-32768	9303	-9008	4440	4260	2861	-16727	-585	-9352	3336	13616	20	1752	-1675	-15284	2936	-1196	5990	4385	3122	-16356	3208	240	5770	17289	1203	126	133	1
-32768	-15948	17572	-5130	-32768	-20819	-26652	-9408	-16944	-18	-32768	7234	-13692	1752	6088	6323	-11803	-1814	-9528	3968	13648	-84	2511	-1992	-15368	4908	-88	4416	6256	3262	-20372	9660	-1176	4904	11456	-348	128	123	1
-32768	-5384	7760	-899	-32768	-28869	-19548	-5284	-16504	8099	-32768	5392	-13600	-812	9084	15114	-8036	-1585	-9248	3416	13928	-89	3719	-2356	-15612	3428	48	2533	8445	3151	-20208	9520	3152	1168	7946	1182	128	122	1
-32768	2776	252	-1898	-28510	-28667	-20980	-2740	-15964	4045	-30075	4977	-13768	8224	22888	13412	-10597	-152	-9328	3032	14580	272	5845	-2316	-16504	3220	-172	2152	11095	2837	-17396	6616	6168	-194	8985	1610	128	125	1
-32768	14252	-20268	2113	-19911	-16592	-10064	-4784	-17416	-1629	-16042	-1331	-14288	12396	32767	11089	-9638	-4016	-9496	3376	15052	548	8942	-2734	-17448	2884	-1220	358	13610	2926	-17836	3728	5696	1239	9392	1276	112	124	1
-32768	24988	-27324	-5454	-3405	1177	-1616	-9248	-20308	-2226	3284	-6061	-14096	7908	30080	4057	-2156	-4984	-9560	2756	15652	719	13372	-2749	-18508	1576	-2144	-72	16060	3017	-19296	1788	4464	2372	8696	654	133	124	1
-32768	11720	-10492	-772	5957	11957	-8808	-5112	-21528	2974	16125	-5089	-15856	5736	7864	-3212	7888	-8131	-9868	3832	16072	943	19051	-3054	-20812	408	-1876	1386	18255	3546	-21880	2016	4900	3015	6846	352	136	120	1
-30976	80	-448	4550	7676	16057	-12496	-1764	-16432	-1249	22745	-7437	-9144	8120	-3280	-8800	17923	-7172	-9472	4496	16152	621	26207	-4166	-22208	-1748	-1156	3236	20420	4567	-23592	404	7204	3536	2902	299	127	124	1
16244	20212	32767	14877	19929	336	-31984	26984	16764	13759	18100	-4713	-584	2084	-7188	7790	15928	-6379	-9424	4588	18196	904	32767	-5027	-25904	-2208	-248	5353	22951	5184	-24976	664	11336	2647	-2822	118	120	129	1
-12600	18928	11120	3400	32767	-6076	-25520	-2348	-11040	19341	15389	949	-31428	-18552	14552	1261	1854	-5229	-8296	5520	17272	1717	32767	-6483	-31384	-8468	1692	5840	24553	5650	-25152	704	12492	2414	-4071	-123	115	128	1
-32248	15684	32767	-1024	24992	10839	-21904	2368	-9440	23171	17991	-2539	-22328	16548	-64	32767	1482	-3001	-9448	12768	19284	2851	32767	-12104	-32768	-12480	8448	17957	23818	8189	-27592	-4660	32767	-11922	-32768	-7939	126	129	1
-12304	-21680	12052	823	21325	4407	-21848	4276	-8652	18922	19442	-3814	-16556	18884	-11872	9239	6131	-4215	-32000	13156	17276	2074	32767	-27116	-28696	13840	-1712	22781	24569	8848	-20280	-12000	4620	11232	-10080	-11917	126	131	1
-12268	8500	16288	1971	17641	5977	-11444	-1980	-10916	7541	14292	-8202	-11400	4992	-9780	-13874	6808	-434	-32768	15584	21788	-2368	32767	-30510	-28276	13556	-9252	11137	25358	8912	-27832	12848	-4416	16267	-19868	-4332	116	129	1
-23048	-14060	13976	5182	11881	5380	-19760	-1964	-11928	-8319	11410	-8588	-17464	-400	-7008	-11092	10986	-3337	-29072	17052	28180	-1820	32767	-29379	-24476	5476	-10612	4201	21024	6083	-32588	10244	-13900	13054	-15114	664	121	128	1
-12584	2160	16100	4821	7649	4157	-19728	-1756	-8052	-8859	11448	-6451	-22500	-3604	-5640	-9029	11399	-3424	-11152	5508	29476	12250	25555	-16575	-17320	6584	-13348	-1969	16227	2194	-30996	-1188	-6428	-1352	-23183	3580	111	124	1
-11868	-716	15568	4272	4706	2560	-16608	-3104	-6708	-10099	9595	-4520	-17288	-2832	-3316	-3173	11250	-2048	-20836	9208	28568	14813	20940	-14591	-15356	2608	-11476	2651	7112	2496	-26244	76	-5628	-3784	-25607	2032	117	122	1
-10284	-2080	13760	2971	3434	1301	-17916	-3584	-6092	-2699	7156	-3145	-17244	700	-2528	1757	11858	-1285	960	16092	19028	4090	-27036	3621	-11828	-1392	-6600	12779	-1722	3028	-27100	2332	-6316	442	-22758	-741	116	114	1
-9992	-1488	13820	2333	3287	456	-19048	-2448	-5788	2472	6336	-2641	-18472	2080	-2252	2571	12646	-1185	8192	7784	10344	1732	-24719	9179	-7828	3800	-6220	9901	-8962	2033	-23288	3352	-6984	3321	-19353	-571	120	134	1
-10584	-1272	13380	1178	2690	-468	-17988	516	-6020	398	4997	-2217	-17884	1324	-3296	1368	13689	-713	4964	5792	9200	1327	-20422	11493	-5704	3372	-6312	1462	-15284	-460	-20096	948	-8780	2203	-16960	314	119	128	1
-10228	-2080	12796	627	1937	-736	-17032	-936	-5320	-3638	3855	-2122	-16812	1408	-2812	916	14555	-515	-3204	6820	12940	-481	-21629	10694	-5372	4044	-7404	-4931	-20772	-1584	-16420	-844	-9248	1854	-16019	792	120	123	1
-10068	-1964	12756	709	1316	-727	-16692	-2084	-4196	-5704	3078	-1724	-16032	-424	-1812	1675	14817	-546	-8136	4212	16060	-419	-29705	10416	-6092	2304	-8020	-6430	-25854	-2425	-12896	272	-9276	677	-15923	1571	130	125	1
-9988	-2092	12692	760	1297	-770	-16760	-2972	-3396	-4174	3020	-1549	-16464	832	-532	3993	14617	-1106	-8104	2040	15044	4742	-32768	12247	-7760	448	-7956	-5234	-30626	-4009	-11632	2404	-9092	388	-14695	1934	134	119	1
-9668	-1528	12664	755	920	-610	-16072	-1120	-2980	-2176	3020	-1344	-15620	1776	-288	2749	13934	-249	-9556	3520	14764	8344	-32768	13876	-8428	660	-8344	-3919	-32768	-5903	-9808	2580	-8800	-1014	-12131	979	133	125	1
-9568	-1896	12340	624	908	-613	-15712	-1868	-2132	-1095	3175	-930	-15244	1908	384	620	14012	-1086	-13600	5320	16236	7366	-32768	14863	-9304	1416	-9260	-4517	-32768	-6828	-7224	1172	-9504	-3241	-9277	-181	134	134	1
-9608	-1988	12428	710	966	20	-16044	-1604	-1760	-1055	3401	-1016	-15604	1724	504	-2900	13121	-1513	-16516	4728	17696	6361	-32768	15671	-10596	1308	-9856	-5421	-32768	-7650	-6388	-80	-10132	-4754	-6708	-1304	129	138	1
-9876	-2092	12316	818	946	494	-16100	-1288	-2612	-2422	3768	-1000	-13680	1072	244	-7479	12293	-1487	-19456	3784	18480	8958	-32768	16905	-13180	1716	-10616	-5713	-32768	-9061	-4968	320	-10928	-8013	-3477	-704	130	140	1
-9796	-1904	12688	928	926	938	-15872	-624	-2624	-3191	4332	-1148	-12560	1936	5780	-6021	12976	-1778	-21952	3624	18488	13171	-32768	17631	-17116	2428	-10792	-4621	-32768	-11072	-3076	-20	-10604	-14859	-1652	1511	128	134	1
-9908	-1240	12396	887	1041	1070	-16048	-252	-2080	-3941	5048	-1233	-13456	3248	3588	-2946	17719	-2831	-27312	6544	22832	12018	-32768	16628	-22284	3192	-11924	-3771	-32768	-11194	-4512	-380	-7288	-12843	-12	2962	127	125	1
-9660	-1656	12700	1056	1019	1460	-15680	-932	-1424	-3998	6062	-1450	-18360	4340	2120	-5445	18218	-988	-32768	8580	29576	8439	-32768	18991	-24492	7800	-13692	-5188	-32768	-12304	-10928	1680	2228	-9486	-6458	2477	122	122	1
-9604	-1416	12828	1145	1452	1782	-15728	292	-860	-3225	7324	-1703	-19408	2952	980	-4428	10390	-80	-32768	7328	22364	3471	-32768	22405	-24048	6056	-13920	-6959	-32768	-14348	-17152	5612	8928	-6611	-14157	4560	123	116	1
-9396	-496	13476	696	2493	1644	-15968	-992	-1960	-2502	8773	-1752	-17612	-1072	1768	-2518	6986	8	-32768	5196	7752	347	-32768	22800	-19452	7460	-16252	-6006	-32768	-11865	-13572	4084	8024	-8919	-4570	3841	124	111	1
-9780	-1376	13276	431	3847	1392	-17064	-1620	-2288	-272	9912	-1048	-16292	-1544	2652	-1988	10684	235	-32768	-9376	-10792	2928	-31134	18915	-16996	-1800	-13636	-5922	-31946	-5634	-14568	-7872	25672	-9695	-5890	-563	125	115	1
-9560	-1252	13264	439	4053	1435	-16508	-556	-1480	-449	11546	-1172	-16932	-608	3876	-1218	13045	294	-32768	-32768	-30496	21491	-16425	6582	176	8212	-10892	11130	-11534	3423	-26456	-10100	32767	-10050	-4448	59	126	115	1
-9788	-980	13544	355	5642	1486	-17912	-1456	-1412	1833	13377	-418	-18780	-1708	5084	1763	11283	1265	-32768	-23912	-17640	-3028	1114	-9109	-4876	15776	-15936	2055	9291	4573	-22288	-1792	22020	1113	-4003	-726	125	121	1
-9652	-1204	15852	-77	12835	497	-21056	-848	-1744	5359	15595	409	-22600	1112	4820	3783	9202	691	-32768	-12792	-7528	-8298	5294	-14822	-8460	7008	-18880	-1910	20730	4484	-13628	2256	224	12048	-3927	1600	126	126	1
-9996	-1764	16276	-388	18777	978	-22316	2816	-1568	4196	17095	-302	-22532	4592	6644	296	5462	1996	-9456	-472	6392	-14276	10115	-13672	-9868	7860	-19400	-1806	21634	4823	-11372	160	-3180	16230	2775	4841	125	129	1
-9236	-1256	17440	-837	26665	944	-24012	4660	-504	1131	19392	-1077	-23212	4340	11364	-2110	1150	2965	24540	8292	32767	-3901	29878	-1045	-32768	-26968	6832	-12002	15536	-880	-11428	-5348	-6584	4234	62	2874	126	141	1
-7688	276	19996	-1324	32767	-420	-28980	5900	1444	-78	22048	-581	-24652	4460	17160	-3368	-4931	3292	-32768	-10968	15708	-9415	32767	-850	-21168	6948	-15772	-25913	19126	3309	-32768	9564	29196	-32768	-11598	8838	130	124	1
-6912	-6592	19460	-1508	32767	-1159	-32108	9840	7808	-5087	23509	-1094	-25328	11120	29164	-4467	-17701	7862	-22160	-12232	26664	1361	17791	-12323	-19248	-14636	-11372	-13036	20286	8619	-19096	-16476	-6732	-3933	20229	-2828	134	115	1
-18880	-11052	18768	-1776	32767	5664	-32580	1852	2392	-16171	23352	-2415	-18176	14640	17260	2296	1538	10655	-5252	18208	10764	-899	21193	-4697	-12308	3140	-6480	6435	15928	9905	-11988	-10716	-22320	10967	1382	-4448	128	152	1
-32768	-10048	21572	1343	32767	16518	-31892	-15712	-5088	-9625	27864	-2627	-23584	-1292	1672	-26554	-3011	8048	-22324	5832	15020	-7388	8350	-10043	-14728	20620	-14836	4508	13235	11444	-4812	10440	-8820	23950	5943	1268	128	130	1
-31760	-14632	27588	11620	32767	26913	-31500	-6032	-3564	1741	28082	-3621	-32156	-7804	-11240	-10757	-4524	666	-14800	596	16384	-4547	1115	-5188	-17608	3912	-12916	-3289	11494	7739	-22892	14256	-8056	9896	11365	6180	125	111	1
-22328	-7808	32767	1447	32767	21787	-25124	-416	-5916	5214	23076	-2762	-30588	2240	-10648	-2729	-14555	43	-10248	3168	14296	-1606	148	-1870	-16292	2280	-7048	8727	10456	5413	-20464	7984	-5860	5834	7867	6309	129	110	1
-32684	60	32767	-15228	19402	11255	-19672	-1464	-12756	1596	15275	45	-28468	6504	-4992	-1278	-18806	1347	-9420	3668	14180	-775	-32	-1575	-16248	6412	-7572	8658	8624	5523	-18540	5668	-3840	4423	9128	3400	129	115	1
-12504	-20660	29792	-19211	-13653	6031	-17620	-1660	-4536	-6894	8598	-269	-28528	6420	-9856	-273	-18802	3361	-9152	3248	14020	-58	552	-1113	-16756	8000	-7900	-233	7352	3235	-16232	3996	-1172	908	10232	2667	128	115	1
1508	-16996	16872	-2018	-23999	4964	-13416	-3572	-2900	-6947	1023	-1385	-28012	4328	-10360	-1045	-18725	960	-9068	3340	13844	635	1018	-700	-17044	1756	-7004	-5268	5866	2492	-15972	332	-912	-1382	12789	2233	123	132	1
4048	-8828	11072	5811	-24778	1153	-7956	-4636	-3292	-1816	-7460	78	-22976	2884	-10668	-1893	-18270	-542	-9900	3452	13508	941	1325	-714	-16552	48	-6220	448	4385	3409	-17204	-116	-1388	465	13555	1269	128	135	1
2668	-5916	9056	3181	-23901	-3947	-6568	-2420	-3872	3534	-14528	2766	-18344	2340	-10984	-2581	-18459	-1907	-9616	4076	13324	882	1414	-496	-15968	4040	-5148	4922	3271	3461	-16116	2156	-1264	3166	14407	1085	132	122	1
-1324	-6820	10376	408	-25625	-7702	-6924	-2432	-4812	5389	-19942	3984	-15744	3704	-11316	-3534	-18612	-2943	-9580	4316	13204	778	1276	-337	-15688	5316	-3840	4651	2675	2958	-15904	4636	-624	3684	15214	1289	131	132	1
-5340	-6720	11620	-386	-30645	-10696	-7060	-2428	-5688	5571	-25130	4762	-12764	2336	-11348	-4181	-19897	-3298	-9552	4260	13132	400	1122	-637	-15444	4640	-3052	2852	2559	2601	-15956	4160	-320	2660	15507	1842	127	130	1
-8956	-6016	12764	-424	-32768	-13528	-7180	-2156	-5896	5759	-29624	5477	-10928	272	-11376	-1412	-19183	-3598	-9388	4016	12932	260	923	-663	-14784	4020	-3240	1764	2718	2411	-14344	1916	408	1578	15430	1600	128	134	1
-9208	-4584	13040	-554	-32768	-15640	-8876	-2192	-5972	6230	-32768	6682	-9400	-168	-11388	1025	-19917	-4161	-9388	3928	13132	143	694	-798	-14696	3044	-3092	1732	2851	2318	-14832	756	628	3536	14131	1069	130	129	1
-11684	-3676	13920	-1926	-32768	-16254	-10504	-1400	-6408	5820	-32768	7881	-6964	1108	-11432	3933	-18717	-3977	-9508	3956	13092	-19	601	-1097	-15196	3272	-2844	3003	3047	2620	-14652	1476	540	8117	13395	337	131	133	1
-13512	-2832	15400	-4559	-32768	-15408	-12484	-576	-6936	3704	-32768	8622	-7668	2080	-12064	5610	-17405	-4051	-9692	3972	12972	-133	553	-1322	-15324	4896	-3336	2985	3388	2424	-13840	3316	-296	10313	14445	479	131	131	1
-16632	-2244	17036	-10759	-32768	-14101	-16548	-964	-7392	1632	-32768	8622	-5336	2224	-12820	8210	-15899	-4611	-9596	3920	13240	-290	523	-1701	-15592	3116	-3712	2427	3477	2478	-14276	3340	1748	7531	16135	1858	126	133	1
-21900	-3328	18940	-15346	-32768	-13021	-20192	-1516	-9580	-724	-32768	9020	-4508	3296	-10952	9594	-13600	-5595	-9676	3756	13228	-349	862	-1990	-15916	2276	-4112	3554	3554	2597	-15084	1712	-108	6575	16970	2471	126	131	1
-30740	-6064	24808	-16582	-32768	-14526	-26952	-2580	-10956	-1828	-32768	8862	-4656	3496	-4528	7938	-14251	-4412	-9724	3308	13364	-239	1375	-2042	-16012	2108	-3260	5033	3920	2853	-16116	3556	-2028	7720	16943	1059	123	129	1
-32768	-12276	26512	-12016	-32768	-16036	-31616	-4252	-11888	-3038	-32768	8934	-11292	4780	6048	2355	-18084	-1857	-9484	3356	13456	-124	2015	-1897	-14804	3692	-1784	4899	5068	2904	-18540	6848	-2644	5477	12087	-309	124	123	1
-32768	-12844	16284	-6725	-32768	-19668	-26420	-8220	-19356	-7369	-32768	5334	-14384	2492	6944	6723	-9575	-2779	-9540	3528	14004	78	3365	-2106	-16296	3944	-1124	3046	6741	2776	-18548	7724	1616	1474	8716	-63	127	124	1
-32768	-3336	6976	-4662	-32768	-24789	-18532	-7236	-18516	2215	-32768	2861	-14356	156	10400	9773	-7993	-2575	-9588	3536	13796	213	4918	-2288	-16564	3684	-1100	2894	7080	2800	-17792	6176	5596	1008	9648	567	126	124	1
-32768	4260	-5076	-3639	-29408	-24000	-19728	-4268	-17328	1076	-27680	1264	-13260	6592	27572	10110	-9293	-681	-9732	3444	14176	274	6991	-2060	-15800	3628	36	1883	11213	2692	-16828	5360	6880	1619	10460	459	127	125	1
-32768	16696	-26504	1286	-17787	-14695	-5916	-3284	-20272	603	-11896	-3277	-14912	7732	32767	11118	-8169	-4265	-9636	3764	14692	358	10216	-2361	-17572	3220	-684	-218	13855	2784	-18188	3560	5920	1287	10519	936	124	124	1
-32768	22220	-26716	-2897	1350	-826	-3756	-9348	-22136	652	7194	-6245	-14784	6332	24096	6889	8	-5361	-10020	3004	15268	677	14508	-2487	-18672	832	-1264	-297	16287	3085	-20188	1512	5136	1528	9229	1140	136	123	1
-32768	8452	-8428	4101	8246	7677	-10040	-6676	-23072	7465	18384	-5292	-12896	4592	4268	740	8736	-9163	-10000	3740	15768	995	20152	-2720	-20660	-312	-1144	1484	18694	3755	-21296	1552	6404	2619	6349	468	143	123	1
-3808	-48	2936	29396	22360	5994	-18464	4384	-6300	15191	23383	-8103	-12436	3848	788	-436	12906	-8530	-9528	4112	16816	1061	27901	-3510	-22636	-968	-740	3515	21178	4648	-23280	1408	8192	3446	2409	163	129	127	1
8716	2892	32767	7349	32767	-9628	-32768	23300	8936	24619	17562	4842	-11632	-7436	136	14293	13086	-11278	-9136	4316	17808	1900	32767	-3975	-28208	-3700	352	4429	23629	4905	-26832	1928	11688	1652	-4135	-342	136	131	1
-32768	25836	23680	2691	32767	3301	-17872	364	-12544	26518	18120	670	-24696	-1620	15064	23395	1093	-2995	-8528	7956	18036	3161	32767	-6045	-32768	-12696	3860	8493	24543	6500	-27872	776	18024	392	-15696	-2081	113	130	1
-16880	-5600	17492	-257	18556	12502	-23628	5720	-10264	16882	21314	-4865	-21468	18252	-15300	19103	3303	-4113	-15184	15460	18916	6461	32767	-14491	-32768	-7080	7832	22256	23462	8857	-24844	-13172	19012	-7187	-32163	-11532	123	132	1
-11544	-6940	12708	5458	22177	3099	-15504	-3276	-9168	14073	17847	-6825	-9992	9944	-10596	-7910	4821	-2920	-32768	7572	15808	1879	32767	-28721	-24448	19024	-7872	19323	24868	9723	-21680	-7040	1008	12083	-12671	-9608	130	130	1
-24900	-4444	17060	6846	14489	9563	-13876	-3124	-12784	1709	13734	-8080	-11768	-1384	-6136	-12222	8511	-1205	-32768	15552	21464	454	32767	-29245	-27260	9568	-11488	10480	23809	9084	-27208	12240	-6744	22685	-15804	-4410	119	127	1
-14720	7644	18900	8497	7898	5761	-20944	1764	-10004	-5380	12462	-8264	-25068	-3224	-7060	-6353	11237	-5242	-29832	11488	28404	4718	32767	-24558	-21724	4144	-11356	7684	20019	7173	-32708	8544	-13672	15669	-13143	-15	125	128	1
-9608	-5420	14560	5225	3502	3675	-18176	-48	-6652	-11359	11950	-4938	-19452	-1376	-4736	-1774	9240	-3605	-32768	6996	24512	23747	20122	-15329	-15820	8260	-15544	3373	15549	2397	-28564	1668	-10404	-796	-21805	3745	120	127	1
-10572	-3216	14664	5065	3203	3754	-16088	-5192	-7724	846	8718	-4199	-15656	1864	-2256	3519	9789	-2189	-21568	25680	28960	18336	-17300	-5984	-13724	3044	-11640	8296	8236	3099	-24804	184	-7248	-4669	-24201	1697	122	116	1
-9716	104	13800	1337	1885	389	-18668	696	-7516	5649	7139	-3583	-17748	4916	-2944	3888	11063	-1990	12	14592	13532	5915	-27901	-29	-11168	1044	-8088	13080	923	3247	-25580	1496	-6492	-583	-21647	-346	127	141	1
-9488	-824	13728	55	2345	-600	-18588	1340	-6692	1280	6305	-4059	-18268	4164	-3284	241	12351	-1166	7416	8076	6456	-244	-22920	4063	-7676	3980	-7024	8245	-5250	2215	-23196	2376	-6916	3145	-19468	39	120	127	1
-9808	-1636	13040	-294	2206	-940	-16964	-2008	-6416	-2670	4674	-3861	-18168	3780	-3424	-503	12715	-1149	5876	5220	5804	-2029	-15982	6928	-5240	2792	-7012	-91	-10894	-355	-20256	3528	-8800	2740	-17762	595	118	127	1
-9904	-1800	12692	380	1614	-792	-16356	-3280	-5620	-3604	3773	-3137	-17116	-912	-3252	-2890	14882	-1405	-188	6120	9552	-3331	-15276	8013	-4064	3000	-7816	-5921	-16277	-1907	-16972	1924	-9484	408	-17520	1037	119	123	1
-9832	-1616	12632	704	950	-638	-16124	-3788	-4488	-3607	2841	-2314	-16264	-2960	-1876	713	15149	-1880	-5100	5308	13584	-3569	-21319	9264	-3948	1664	-8232	-7401	-21260	-2710	-14036	600	-9344	-2318	-17932	1564	130	121	1
-9492	-1920	12840	872	546	-371	-16216	-3868	-3672	-1166	2377	-1534	-16000	-1864	-976	4722	14323	-2566	-6840	2624	14752	-507	-29541	12102	-4784	432	-8124	-6661	-25871	-4293	-11792	1344	-8192	-3050	-16217	1626	132	124	1
-9216	-1456	12784	754	428	-186	-15876	-1384	-3072	751	2569	-1476	-15780	2288	364	6327	13201	-2232	-8052	1916	14072	3487	-32768	14716	-6340	424	-8212	-5548	-30045	-5949	-9964	1444	-8292	-4182	-13287	951	134	126	1
-9096	-1336	13064	549	610	-88	-16328	-528	-2564	41	2712	-1434	-15516	2832	624	2532	13060	-1325	-9132	2652	14460	4978	-32768	15981	-7828	492	-8648	-5878	-32768	-7824	-8640	1328	-8656	-4873	-10399	-210	130	130	1
-9428	-1192	12768	499	725	160	-16180	-1564	-2888	-902	3048	-1626	-14920	2180	304	-1405	13918	-1596	-14352	4172	16684	3798	-32768	16653	-8476	800	-9264	-5831	-32768	-9177	-8056	332	-9412	-5496	-7352	-1566	128	136	1
-9392	-1388	12960	411	710	317	-15920	-1732	-2932	-711	3307	-1500	-14844	1368	56	-4792	13792	-1373	-17204	3808	17896	3020	-32768	16954	-10268	1656	-9280	-5761	-32768	-10127	-5932	-584	-9936	-6448	-5059	-1912	129	139	1
-9396	-1084	12700	390	703	428	-16208	-1088	-3148	-1215	3689	-1435	-15164	1376	1036	-5628	12745	-1555	-17516	2564	15872	7307	-32768	17030	-13572	1768	-9556	-5826	-32768	-12013	-4960	-12	-10576	-9229	-1408	-370	131	134	1
-9300	-1276	13064	321	888	582	-16552	-716	-2908	-2214	4202	-1487	-13920	3192	5108	-1911	15899	-2415	-20876	4564	15984	12446	-32768	16469	-16684	3104	-11188	-4340	-32768	-13626	-3324	-960	-9612	-10439	2009	1879	125	132	1
-9208	-944	13188	505	1209	704	-16460	-44	-2528	-3548	4968	-1796	-15420	4456	1596	-3364	18731	-2884	-30220	10520	23108	11007	-32768	16281	-21940	4184	-12624	-2648	-32768	-12888	-5232	-960	-7048	-9443	1867	2464	124	128	1
-9240	-688	13276	580	1681	641	-15724	388	-2312	-4122	5698	-2120	-18336	4120	-908	-6596	13829	-1495	-32768	16064	27668	6897	-32768	20158	-26440	10968	-13868	-5589	-32768	-13461	-11192	1444	2220	-7444	-4846	1487	125	125	1
-9220	-624	13304	335	2374	400	-15516	-112	-2564	-4315	7045	-2284	-18020	-712	-476	-4087	6712	-511	-32768	11148	17984	2230	-32768	25615	-23264	5776	-14320	-5239	-32768	-14281	-17796	4524	8344	-6193	-9867	2739	125	114	1
-9368	-968	13500	-149	3501	157	-16672	-2692	-2596	-2862	7943	-1900	-16876	-2816	1984	-2232	9437	-417	-32768	7996	5176	1622	-32768	26015	-18744	8680	-15140	-1518	-32768	-10221	-16916	424	11716	-9858	-2804	3566	125	117	1
-9320	-1204	13356	-153	4744	419	-16608	-1752	-1288	-1943	9573	-1550	-17684	-1384	4608	-2297	12548	-679	-32768	-13240	-15420	9866	-30679	18476	-16396	-1560	-11040	1054	-29316	-1873	-17920	-13160	32767	-7830	-3886	4090	127	122	1
-9208	-884	14132	-287	6490	482	-16284	-1000	-832	-958	11601	-1422	-17144	-1256	7224	-218	11330	137	-32768	-31652	-30196	32767	-16122	10076	2780	9052	-9752	19196	-7265	6911	-20244	-14236	32767	-6397	-4017	4234	128	123	1
-9256	-108	15268	-453	9861	-116	-18764	-1316	-1228	2398	13902	-895	-19160	-604	7388	1535	10244	1449	-32768	-9980	-17688	-2494	2987	-5277	-4696	19836	-13580	10624	11448	7357	-20032	3812	17204	13255	-7698	35	128	130	1
-9212	16	15424	-551	10515	-199	-20732	152	-724	3893	16257	-631	-22568	2336	8252	1996	7639	1386	-28360	3692	1476	-19601	8978	-16894	-10832	14204	-13904	-8816	20655	5630	-13428	10860	-2516	18677	-804	5036	127	124	1
-9368	-2124	16404	-877	20733	718	-21412	2068	-240	1730	18655	-1671	-20852	3820	10872	-1460	3888	2104	-32768	4932	-2856	-20518	13227	-16809	-27788	-12192	13300	-27814	19029	5984	-10508	9048	-5384	9036	3016	8687	128	137	1
-8932	-1212	18464	-841	30063	861	-26232	2800	356	-824	21621	-2118	-23700	3556	14744	-3964	-1351	2942	-4156	-9688	3504	-9059	32767	-9233	-32768	-3716	-12452	-26144	16474	-821	-22652	4056	-764	-27555	-3809	7923	130	143	1
-7268	-1984	20420	-1695	32767	507	-32480	5968	3028	-799	24143	-1853	-27252	6580	25768	-5969	-11540	4725	-32768	-24932	32767	-3476	22438	-12085	-17536	-15836	-10604	-20014	21082	5869	-19792	-21412	32767	-21464	11679	1899	131	117	1
-6660	-8788	23208	1	32767	464	-32768	19896	8492	-9144	25382	-3806	-21048	15872	30252	12003	-10937	10778	-13924	28652	10568	2975	16864	-7787	-14816	1064	-4900	4096	20174	9288	-17232	-20556	-25948	-10890	7555	-5230	125	131	1
-30796	-4296	22336	-580	32767	10424	-30452	-7024	1644	-22261	28047	-3085	-17408	12408	-1328	-26569	-4173	12999	-21876	3964	15100	-10372	13401	-11495	-14828	19508	-12056	-644	14784	11972	1636	6024	-11784	25599	783	-2787	129	124	1
-32768	-2436	21560	-46	32767	11540	-31536	-16372	-6528	-11421	28591	-3242	-30244	-7776	-7792	-20872	-1048	2521	-19156	5736	16928	-9265	4418	-10415	-13912	5644	-14708	-6463	12285	9404	-13220	11364	-7684	12307	9455	5472	124	112	1
-27560	-11840	32448	9431	32767	25915	-27276	-3832	-4764	1597	25587	-3927	-31480	-624	-12316	-6542	-11363	-1099	-12684	632	15716	-3501	463	-3217	-19348	-2536	-10096	6576	11472	5987	-26032	14288	-11232	7401	10701	8011	135	92	1
-6844	928	28264	-7868	32767	16411	-21892	-1868	-7736	7707	18274	-1785	-30116	8184	-4188	-3024	-18053	577	-10040	4964	14352	-1927	18	-2105	-16188	8352	-8436	11906	9376	5891	-21588	3684	-5004	2358	8636	4257	124	102	1
-29688	-15260	32767	-20978	-597	6098	-17140	-200	-8744	-1031	10677	-150	-29872	6512	-9128	-1248	-18715	1859	-8880	3228	14456	-567	485	-1738	-17156	6548	-8540	1206	7482	4170	-15812	3388	-2444	717	10057	2526	130	127	1
-21772	-18368	32767	-21331	-5980	5911	-15048	0	-2904	-7815	2602	-2265	-28396	5724	-10052	-1683	-18780	1919	-9928	2280	13992	682	1372	-767	-16740	3436	-8860	-7734	6103	2162	-17620	168	-1948	-1802	12391	2204	131	130	1
5220	-9528	12748	2043	-25011	3107	-9020	-4048	-3284	-5510	-5856	-2526	-24896	4124	-11232	-2756	-17646	686	-9624	3428	13648	1164	1519	-435	-17144	-1000	-6532	-2737	4468	3376	-15620	160	-1984	53	13127	547	144	123	1
4624	-5048	9188	1564	-23867	-1731	-6244	-2388	-3944	568	-13528	37	-19264	3752	-11496	-4647	-18200	-579	-9804	3464	13672	1242	1489	-380	-15608	3108	-5440	4710	3151	3724	-16320	3832	-2884	3177	13851	-132	137	126	1
484	-5580	9696	-1705	-24409	-6470	-6096	-1416	-5072	3538	-19767	1972	-17476	3856	-12460	-4668	-18524	-1921	-9636	4496	13272	503	1153	-452	-15540	6020	-4300	5417	2297	3001	-16620	5716	-2568	1189	14267	998	133	132	1
-3908	-6024	11868	-2474	-28440	-9688	-6468	-1204	-6056	4382	-25110	2828	-14108	4956	-12556	-6302	-19828	-2156	-9548	4344	13204	164	964	-476	-15952	5028	-3376	3508	2025	2208	-15364	3632	768	201	15502	2104	128	136	1
-7868	-4556	13656	-2439	-32768	-12780	-6632	-1040	-6508	3783	-29849	3596	-12496	2856	-11712	-5646	-20682	-2833	-9520	3880	13252	137	893	-317	-15248	3368	-3660	1824	2097	2142	-15952	2792	268	49	15917	1951	126	138	1
-9892	-2652	14696	-2749	-32768	-15281	-7784	-1236	-6496	3670	-32768	4603	-9964	172	-12112	-3334	-19020	-3253	-9532	3748	13196	177	849	-302	-14904	2812	-3572	1039	2147	2046	-14504	268	444	2532	14972	450	126	138	1
-10192	-440	14692	-5500	-32768	-16361	-10000	212	-6304	3433	-32768	6401	-8244	-500	-11484	-611	-17817	-3975	-9452	3952	13052	-4	619	-457	-15080	2556	-2860	2733	2199	2448	-14688	728	-92	6301	13057	-424	136	134	1
-12868	-420	16100	-8974	-32768	-15447	-12276	144	-6636	1042	-32768	7413	-7084	368	-12316	2338	-16971	-3935	-9504	4156	12800	-212	379	-778	-14992	2956	-2876	3039	2258	2481	-14056	3196	-1016	9130	13628	-175	133	131	1
-14824	-88	16120	-12825	-32768	-12891	-16248	-804	-7588	56	-32768	7292	-5660	1204	-13052	5731	-15447	-4441	-9516	4100	12988	-327	60	-1235	-15476	4496	-3584	2432	2642	2026	-13436	3656	-440	8085	15580	1277	128	136	1
-21892	-468	18772	-15432	-32768	-10928	-18192	-624	-10392	-358	-32768	8457	-4620	2432	-10692	8822	-14218	-5929	-9456	3780	13208	-381	98	-1605	-16196	1484	-3848	2972	2631	2278	-13832	1052	1912	5452	16784	2579	130	135	1
-29696	-3536	25944	-15919	-32768	-12388	-26732	-1516	-10548	-1172	-32768	8891	-4084	2932	-5788	6855	-14046	-4474	-9444	3440	13340	-385	472	-1662	-15512	1040	-2176	5373	3119	2621	-16244	1324	560	6644	18036	1266	127	128	1
-32768	-10408	28244	-10330	-32768	-14107	-32308	-4408	-13632	-1374	-32768	9398	-10524	2112	5984	1753	-18517	-2712	-9500	3828	13384	-195	1011	-1686	-15172	3612	-484	5472	4526	2822	-18892	6952	-1152	5476	13453	-415	127	126	1
-32768	-13928	19900	-4617	-32768	-18520	-28744	-8116	-15180	-2014	-32768	8164	-14284	3084	4308	4677	-10680	-4370	-9416	4132	13576	-159	2053	-1865	-15740	4836	-468	2114	6579	2741	-19712	9272	140	213	8287	-124	128	124	1
-32768	-12012	8716	1341	-32768	-25880	-20616	-6636	-17260	8292	-32768	5910	-15904	76	6348	11837	-9557	-2935	-9204	3756	13732	-194	3284	-2158	-16120	3476	-660	1262	8298	2557	-17556	7052	3644	-854	8943	893	130	123	1
-32768	-2824	4328	-1579	-26724	-31254	-22980	1204	-15724	7000	-32768	5795	-13144	5908	17456	14603	-10548	37	-9168	3360	14012	96	5006	-2212	-15908	2332	-188	2122	10282	2560	-16456	4956	4632	979	10908	775	128	124	1
-32768	6448	-10080	-992	-22528	-25603	-14552	-1448	-18324	-2481	-24209	-208	-12596	16460	32767	12194	-7699	-271	-9212	3520	14620	368	7511	-2371	-16864	3720	-276	1011	12850	2556	-18252	4200	5164	1499	9743	655	123	123	1
-32768	27912	-29256	-12498	-10582	-9301	-2112	-7360	-17412	-18181	-4415	-9430	-12992	11812	32767	-2085	-1383	-284	-9520	3568	15620	609	11827	-2480	-19036	2120	-1464	-1241	15489	2514	-20348	1848	4532	712	7642	1011	120	121	1
-32768	16484	-18256	-6389	3128	11602	-6484	-14492	-20080	-6399	11070	-5870	-15756	-788	18144	-9724	3689	-6531	-9576	3736	16180	1074	17551	-2791	-20616	428	-2856	-180	17536	2800	-20912	1268	3408	1849	7022	601	130	121	1
-32768	9116	-4540	8334	5032	21378	-9888	-2844	-21048	8275	22108	-3645	-15036	-1408	3024	-5951	8588	-10394	-9748	3824	15748	974	24291	-3640	-21420	-1368	-3632	2251	18900	3637	-21000	592	2660	4275	5229	-284	135	121	1
14124	-8428	27348	21610	10470	18661	-18940	664	9712	7474	26525	-8160	-10452	2964	-624	4341	17312	-9094	-9516	3616	15804	1606	32332	-3974	-21564	-3044	-3452	4813	20329	4518	-21304	-748	4684	6133	2336	-644	130	127	1
32056	-6652	29564	6768	23302	-730	-32768	27856	14972	12464	14160	1734	-8884	-3208	-7648	745	8129	-3594	-8836	2688	16428	2471	32767	-3399	-26116	-4428	-1600	6378	21959	4433	-26092	244	8476	3802	-2894	-1232	143	129	1
-31680	18332	13216	3952	32767	-2357	-11020	-5832	-12812	18379	16267	-409	-26472	-2172	19716	25391	191	-3207	-8908	9556	15116	3676	32767	-4559	-29912	-10940	4432	11057	22192	5326	-24584	-12	14724	1259	-12888	-3411	128	128	1
-20660	9108	24440	360	19238	14284	-31040	2824	-10012	22922	16848	-2781	-24036	12692	-7660	31397	4322	-3561	-17164	14848	17252	7446	32767	-14235	-31900	-2544	7100	21715	21905	7073	-24668	-4640	28440	-9127	-32768	-10541	113	131	1
-10632	-16692	10984	4576	21460	2262	-17192	-3096	-6216	17242	19164	-3720	-13692	14520	-12404	3272	4841	-2971	-32768	10840	13224	469	32767	-26643	-25956	17128	-7468	15155	24345	7462	-18796	-5608	5236	8455	-10360	-10817	128	137	1
-15088	2808	15556	3857	16814	7538	-9200	-796	-11084	9474	12778	-6324	-9616	6072	-6032	-9024	6869	-1960	-32768	13316	20880	-380	32767	-27930	-26476	10884	-9000	6259	23921	6348	-26736	12944	-3468	16234	-14446	-4655	116	129	1
-16880	-2336	15100	7918	10222	3768	-23936	3520	-10992	-7590	12030	-8886	-21524	1020	-7632	-12929	12236	-4713	-28848	10968	25548	311	32767	-24889	-22516	3440	-9744	3759	20154	4299	-30964	10564	-13772	10520	-11737	-977	116	127	1
-14764	-2272	15564	3849	5457	3211	-19268	-332	-8632	-12926	12466	-5704	-20580	-756	-5560	-10238	10742	-2660	-21280	3812	21992	17229	22394	-16419	-17152	6932	-14132	2335	16917	836	-29248	1748	-10496	-4992	-19519	2747	109	124	1
-10012	-256	14432	3033	3199	1662	-16100	-4680	-7948	-10553	9188	-5400	-16620	-1256	-4216	-3497	11487	-1665	-24872	26392	31020	13317	-14026	-5378	-15428	5604	-12580	4476	10091	430	-24468	-1156	-5776	-7567	-24491	1262	123	120	1
-9320	-348	14376	1060	2725	-156	-17444	-3388	-5916	1131	6649	-3504	-17632	1852	-1808	1144	11900	-1439	-2768	15540	15024	951	-26079	1715	-11804	632	-7408	10656	2650	62	-24820	1568	-5880	-2313	-21516	-700	117	141	1
-9512	-1240	13668	-152	2965	-840	-19392	-84	-5396	4299	5797	-3343	-18168	2868	-2480	1430	12718	-1436	5512	9372	7212	-4086	-23589	5581	-8400	4820	-6412	8624	-3464	-328	-22992	4176	-6540	911	-18649	-430	118	128	1
-10336	-2084	13076	-669	2766	-1078	-17580	-428	-5392	-2702	4468	-3384	-17784	540	-2628	-1259	14049	-859	4932	6636	4960	-6084	-17725	6887	-5688	5364	-6248	915	-9397	-2543	-20224	3220	-8688	486	-17064	280	120	122	1
-10224	-2672	12424	-420	2110	-983	-16752	-2312	-4488	-7031	3700	-3060	-17200	548	-1968	-4225	15318	-528	-232	6840	7892	-6672	-16129	6432	-4672	5860	-6992	-6493	-14432	-3680	-16152	1776	-8828	-10	-16689	802	118	123	1
-9868	-2556	12544	531	1710	-863	-16700	-3972	-3528	-7541	3210	-2515	-17132	-2612	-1816	-109	13983	-1698	-5132	6884	11632	-5721	-21557	6494	-4204	5224	-7480	-8994	-19209	-4737	-13852	3984	-9352	-2300	-16705	2263	132	125	1
-9788	-1992	12804	983	1581	-1193	-16440	-3588	-2972	-4449	3174	-2365	-16404	-1384	-32	3294	14438	-1916	-7128	5984	12680	-2023	-29505	8670	-5460	4672	-7740	-9205	-23920	-6375	-12124	3480	-8232	-3325	-16000	2914	135	125	1
-9668	-1656	12760	968	1661	-1559	-15964	-1356	-2368	-2196	3425	-1893	-15540	2620	992	2988	13501	-1370	-8356	6844	11832	1298	-32768	10941	-6680	3624	-7784	-8746	-28429	-8298	-11188	3688	-8308	-4686	-13498	2585	134	124	1
-9500	-1856	12768	688	1786	-1583	-16148	-1284	-2068	-2171	3595	-1815	-15524	3160	1384	-751	13200	-421	-10416	8020	11784	1660	-32768	12517	-7600	2912	-8596	-8796	-32541	-9775	-9972	1824	-8816	-6908	-10948	1617	130	128	1
-9592	-2000	12704	497	1820	-1145	-15908	-1372	-1948	-4438	3985	-2089	-14820	1168	1560	-5481	13395	-586	-13236	8620	12736	1210	-32768	13928	-8980	1852	-9020	-7607	-32768	-9992	-8792	-48	-9336	-8096	-8294	465	130	131	1
-9732	-2564	12436	411	1760	-568	-15984	-3412	-1908	-5785	4553	-2059	-14652	-732	216	-9899	13426	-1099	-17320	9056	14508	2135	-32768	15971	-10920	2920	-9488	-5279	-32768	-10609	-7912	-280	-9124	-8945	-5040	192	133	134	1
-9736	-1976	12212	512	1686	74	-15416	-3300	-2748	-4239	5001	-1732	-14924	-544	1888	-9268	13336	-1715	-21708	10340	16824	3199	-32768	18708	-13768	5104	-10204	-4377	-32768	-11945	-5768	-872	-8400	-9401	-2279	1167	124	134	1
-9808	-2064	12288	297	1801	426	-15928	-2088	-2944	-3832	5724	-1303	-13024	872	3180	-3851	17074	-2392	-25552	11000	18784	3271	-32768	20984	-17196	5648	-10804	-4181	-32768	-12497	-4888	-1044	-6916	-8522	-601	2796	125	129	1
-9908	-2276	12416	218	1899	992	-16164	-1548	-2648	-4706	6196	-1378	-16312	3384	20	-6272	18964	-1560	-30344	11488	21052	3446	-32768	22983	-19824	5780	-10252	-4329	-32768	-12746	-5968	-424	-7028	-6017	-238	3538	125	131	1
-9624	-1820	12856	95	2309	1235	-14936	-424	-2140	-5288	7100	-1469	-18692	2224	-1816	-8745	11294	-268	-32500	11688	23344	2510	-32768	23735	-25148	7992	-11736	-4503	-32768	-13333	-10172	1836	-4360	-3909	-559	3945	124	125	1
-9640	-1332	12972	-222	3093	1037	-15876	-1512	-3196	-4542	8159	-1663	-17180	-1000	-8	-4662	6886	315	-32768	13224	22316	1111	-32768	21867	-26288	7880	-14504	-6539	-32768	-12878	-16036	4684	2808	-4053	-4803	4155	127	119	1
-9924	-1548	12748	-604	4223	853	-16796	-1984	-3216	-2671	8945	-1283	-15812	-1032	1744	-3167	10413	-319	-32768	7316	9080	4625	-32768	19626	-23504	4256	-15112	-7550	-32768	-9392	-19764	2620	12128	-10472	-7985	5258	127	112	1
-9956	-2164	12912	-812	5487	1055	-16096	-1892	-1896	-2384	10330	-1159	-16644	-68	3844	-3946	12784	-724	-32768	-18824	-18608	22757	-32694	12614	-15812	-5820	-14436	5770	-31687	828	-18652	-9964	32767	-13568	-6330	3546	127	121	1
-9828	-1064	13500	-1047	7429	847	-16308	-892	-1220	-263	12305	-1060	-17416	-1440	6556	435	10189	524	-32768	-32768	-30468	32767	-16400	5095	5112	15852	-9556	24645	-6679	8557	-27576	-5108	32767	1719	-5814	-117	124	122	1
-10048	-740	14908	-1227	11213	-612	-19212	-1644	-1412	3904	14680	84	-19648	-1576	6924	3636	9282	1485	-32768	-19848	-19940	-13454	1885	-16796	-4720	21760	-18144	3832	13635	6973	-16936	4644	9604	9909	-7314	-423	125	125	1
-9712	-2844	15688	-1693	17092	-550	-22088	-288	-804	5856	16662	148	-23240	1832	7040	2896	6915	1583	-28028	5596	-6108	-30509	10005	-25875	-11988	11124	-18192	-14208	22956	5972	-12928	12252	-808	16700	-1212	6930	126	122	1
-9340	-2304	16556	-2361	24536	189	-22900	4548	-44	2053	19000	-1378	-24956	4208	10904	-3120	1463	2422	18548	540	32767	-13032	30174	-392	-32768	-32768	5860	-27539	20184	-740	-6576	3588	-6588	1613	611	5590	125	136	1
-7824	-800	19320	-3755	32767	-1207	-29504	6388	2432	-3030	21966	-1710	-26844	5608	22408	-5885	-8439	3564	-32768	-17884	14616	-9113	32767	-4578	-26356	-64	-19280	-30077	21266	4188	-32768	2668	24832	-32768	-8675	8308	129	142	1
-5116	-2304	21136	-6500	32767	-4672	-32768	14340	8372	-6511	24746	-1861	-27296	6856	25200	-6177	-10578	3944	-24508	-15628	29972	2488	16663	-13391	-15788	-8780	-10624	-11059	22416	8120	-18500	-23116	-18220	-16076	18303	-3289	128	125	1
-15040	-5488	20672	-6574	32767	-875	-32768	6360	5252	-17132	25456	-1905	-16216	22840	-2472	-22358	-4525	12026	-6336	25660	7076	-2011	19520	-5000	-14296	7080	-10048	-737	17584	9181	-11780	-11696	-20456	9374	1040	-4015	127	138	1
-32768	-14352	18236	-10757	32767	7149	-30664	-17768	-7360	-11808	27715	-946	-26544	-2060	-2232	-25166	205	5831	-19956	-48	16368	-8142	7564	-12234	-13456	15024	-15444	1627	13365	11873	-5044	9832	-10648	19918	5124	1297	126	131	1
-32768	-18596	26092	1753	32767	23827	-32768	-8444	-7112	-1897	27044	-4412	-32768	-5444	-13716	-10745	-9681	2325	-15940	-2424	18788	-5805	1653	-6508	-18984	3768	-14576	1289	11778	8187	-27200	17092	-11224	10924	13711	7034	129	130	1
-22972	-11652	32767	-3500	32767	20994	-26052	-3808	-6480	4397	21248	-4213	-30376	5960	-6340	-3553	-18324	1808	-9980	5304	14012	-2359	151	-2285	-15944	5880	-7624	8923	10636	5522	-19940	7120	-5144	835	6788	5940	127	114	1
-29404	-2688	32767	-16328	11662	10248	-19160	-2948	-10728	2810	14142	-1570	-30608	2612	-8612	-3098	-17306	2317	-9220	2684	14048	-1289	126	-1627	-16456	5896	-8760	2489	8603	4914	-15752	3892	-4712	1791	9064	2983	130	120	1
-4280	-16228	27680	-18566	-19745	9204	-15460	-2032	-2668	-7992	5880	-1684	-29728	4444	-10072	-1381	-17689	2671	-9320	2328	14376	-405	768	-1037	-17064	5472	-8624	-3087	7107	2930	-16708	2560	-1912	250	10782	2633	132	138	1
3992	-11952	15848	-6989	-26588	11358	-12652	-5652	-1644	-8231	-3193	-1732	-27676	3068	-10400	-123	-17720	1068	-9560	3008	13864	487	1174	-424	-17260	1572	-7624	-5997	5340	2559	-17900	160	-3036	-2105	13551	1714	125	129	1
3632	-7132	11072	-95	-26698	10751	-8160	-4536	-2636	-887	-11493	-365	-19780	4604	-10412	-3042	-18391	146	-9556	3488	13488	763	1119	-402	-16456	144	-6408	1489	3697	3491	-15756	1396	-2900	1437	14253	653	134	126	1
768	-6108	9940	-2111	-26600	5878	-6928	-1268	-4104	3419	-17584	2183	-18196	2804	-10752	-4784	-18147	-1779	-9308	4304	12948	618	833	-454	-15616	4600	-5412	6215	2467	3106	-16104	1948	-2952	2116	14317	624	132	129	1
-2968	-7968	10912	-4543	-29208	-291	-7024	-192	-5180	2079	-22518	3392	-14420	2624	-10388	-5238	-18761	-2128	-9552	4224	13348	445	769	-398	-15732	5596	-3760	4698	1876	2428	-15840	4508	-852	51	15399	1467	128	137	1
-4816	-8208	11316	-3675	-32768	-6734	-7536	-500	-5408	20	-27062	4282	-11376	1756	-11808	-5769	-20492	-2424	-9436	3776	13444	321	808	-324	-15988	3892	-3052	1752	1860	2205	-15960	1632	752	-450	17145	1809	125	133	1
-7200	-7516	11880	-2239	-32768	-12206	-8020	-2024	-5952	811	-31516	4979	-10488	-420	-12128	-3153	-20063	-3089	-9516	3520	13356	327	912	-234	-14944	2352	-3260	176	1996	2289	-14808	-1308	724	-472	13782	1262	132	127	1
-10980	-6784	13776	-316	-32768	-16339	-9284	-2708	-6628	2955	-32768	5931	-9048	-164	-11036	-364	-18772	-3885	-9520	3488	13280	264	948	-167	-15056	1636	-2696	2491	2181	2614	-14348	-1144	1072	4662	14773	-9	135	129	1
-12996	-4632	15312	-84	-32768	-17833	-11280	-1640	-6780	4442	-32768	6555	-7684	1284	-10908	2045	-17955	-4324	-9508	4232	12888	150	723	-362	-15016	4488	-2456	4984	2541	2807	-14412	1988	-656	10359	13836	-83	135	127	1
-15580	-3300	16896	-3796	-32768	-18369	-13952	-1584	-7360	3799	-32768	7575	-6364	1476	-11760	4499	-16435	-4824	-9804	4132	12872	-98	397	-894	-14936	5108	-3036	4541	2857	2685	-13384	3868	-616	11139	15183	1229	128	132	1
-18864	-3808	17956	-8808	-32768	-17226	-17036	-2080	-7328	3349	-32768	7779	-4144	1476	-13340	7819	-14251	-5754	-9568	3932	13160	-246	342	-1446	-15836	2456	-3628	3839	2996	2592	-13300	2232	2536	7723	17305	3128	127	139	1
-23692	-3244	19964	-12886	-32768	-15879	-20732	-2036	-9952	2517	-32768	8263	-3240	1900	-10580	8043	-12372	-5695	-9628	3356	13392	-219	737	-1511	-15828	1764	-2648	4994	3392	2850	-16072	1768	200	8211	19168	2483	124	128	1
-30120	-6152	24620	-13886	-32768	-17377	-21488	-1824	-10228	2320	-32768	8633	-5292	2220	-2724	6155	-13340	-3957	-9436	3740	13472	-91	1409	-1560	-15628	2792	-624	5933	4548	3062	-19036	6188	-1476	7899	15301	256	132	124	1
-32768	-15004	27408	-7457	-32768	-18375	-31292	-6596	-13448	92	-32768	9149	-10216	2620	5800	4652	-17204	-1130	-9536	3808	13728	-147	2409	-1923	-15588	2792	-412	5954	4783	3120	-21132	8316	-1364	2386	8362	-509	126	122	1
-32768	-15584	26116	-5849	-32768	-18946	-23924	-5316	-19496	357	-32768	5930	-16436	-2232	4536	12629	-10321	-3393	-9600	3460	13588	104	3499	-2205	-15692	4608	-328	2539	8531	3064	-17308	7936	4548	-52	8374	719	125	127	1
-32768	-2156	3908	-3208	-32768	-25254	-20944	-2988	-18812	1647	-32768	5069	-15500	2824	13288	15188	-11671	-2080	-9668	3448	13920	271	5218	-2268	-15460	2952	264	2877	10854	2844	-15920	6384	6092	1502	10774	1180	125	125	1
-32768	5728	-12068	-2671	-29007	-17462	-17776	-5876	-18216	68	-25736	-101	-13048	15272	32767	12602	-10649	-349	-9428	3732	14508	523	7707	-2616	-16632	3400	-192	1748	13491	3039	-17980	4236	5716	2731	10344	973	127	122	1
-32768	25012	-32768	-6942	-14006	-2748	-1172	-4160	-21848	-7949	-5909	-7731	-13180	11564	32767	7382	-1730	-1552	-9608	3176	15332	602	11823	-2655	-18464	2588	-1812	-213	16134	2949	-19420	1900	4792	2144	8828	1272	123	121	1
-32768	18392	-20856	-3053	2466	10543	-5200	-11300	-23108	-3593	13361	-6279	-17392	3680	17080	1971	6645	-8445	-9744	3424	16372	1021	17960	-2907	-21432	188	-1956	-82	18520	3180	-21896	1652	4424	1715	7373	1038	139	117	1
-32768	-8240	-12500	32767	14537	19330	-14920	-6204	-17764	7855	24055	-6752	-11424	8336	8544	-9309	13109	-8679	-9464	4228	16812	945	25717	-3711	-21896	-1624	-1500	2835	20704	4233	-22368	1256	6512	3707	4338	129	124	118	1
14572	-10136	32767	12579	27569	-7610	-32768	29768	18700	26337	20935	2242	-4936	-1568	-1340	4629	12784	-10143	-9056	4224	18036	1251	32767	-4197	-26392	-1484	-268	4474	23361	4563	-26208	2704	8988	2616	-1643	-770	127	125	1
-28840	19896	15304	9419	32767	-4525	-18784	-2008	-17812	30007	20615	-1479	-25076	-14312	14728	14905	-696	-7185	-8008	5568	17716	2313	32767	-5741	-31716	-8660	2648	5133	24886	5218	-28244	2012	15324	-57	-11310	-766	112	129	1
-22604	22120	31232	25	20467	13328	-20112	9752	-11372	20279	22104	-4935	-22868	13800	-14172	29957	4542	-2665	-10712	13200	18416	3434	32767	-11955	-32768	-12324	10508	18100	23995	7556	-29380	-4312	32767	-13086	-32768	-7075	121	133	1
-10988	-25884	7212	1839	20883	5856	-19592	-3856	-8088	13217	19513	-4506	-11696	12148	-12552	5406	3895	-2138	-32768	14228	18112	1458	32767	-28099	-28420	15828	-4060	22535	24942	8898	-18576	-15888	3108	10276	-10520	-11387	121	136	1
-14708	5584	16424	6537	16702	6993	-11604	-7404	-11276	10291	13461	-7964	-13648	-44	-8600	-7277	7064	-1918	-32768	17024	21960	-2384	32767	-31033	-27600	13376	-8560	9314	24980	8855	-27652	11436	-4512	16641	-19503	-4368	128	134	1
-17220	-7112	14380	7997	9697	5591	-22652	3500	-11484	-3703	12450	-7348	-22636	-972	-7764	-6259	11916	-5947	-25512	16744	27004	-1719	32767	-29740	-24208	4272	-9568	6179	20076	6443	-30976	11160	-15188	15693	-13976	-618	128	127	1
-13068	2872	16696	4431	5376	4754	-18628	-88	-8352	-7956	12297	-5028	-19496	-80	-4132	-4731	10351	-3890	-8888	384	27572	16803	31940	-18309	-17028	3992	-12024	1036	15695	2539	-30312	184	-7120	1262	-21935	2332	116	122	1
-9952	-84	14832	3360	3299	2816	-16624	-1540	-6664	-8471	9702	-4842	-15596	416	-2408	-668	11307	-1983	-31400	32268	32767	17895	-9064	-2910	-16280	5748	-13928	407	14759	2140	-25352	-648	-6388	-5108	-24632	1502	127	116	1
-10084	-776	14044	2197	2801	1664	-17592	-3452	-5872	-214	7820	-3958	-16860	2892	-1768	1670	11768	-1647	-784	18004	21096	3786	-28703	4419	-12904	-2680	-5940	11963	-806	3089	-25604	1764	-6408	-1729	-22951	-1312	119	146	1
-9764	-676	13992	1366	2813	949	-18200	-760	-5176	5158	6600	-3496	-17384	4180	-1196	1810	12642	-2127	8724	7456	10364	130	-26601	9772	-8384	2760	-5420	10911	-7789	2445	-23152	3412	-6692	2886	-19676	-1933	119	134	1
-9892	-1588	13276	270	3274	424	-17616	1152	-5288	462	5438	-3523	-17396	688	-2580	-107	13663	-1581	5880	4264	7984	-181	-20315	11910	-5764	2412	-5568	3424	-13965	-381	-19308	2236	-8284	2273	-17300	-882	120	130	1
-10168	-2040	12792	-586	3410	563	-16548	-1432	-4824	-5108	4530	-3277	-16584	-648	-2584	-2842	14753	-1189	-3308	6152	11592	-1822	-20405	11100	-5052	4260	-6840	-2872	-19062	-1868	-14264	-3304	-9532	1342	-16286	-241	121	124	1
-10064	-2060	12612	-494	2688	696	-16384	-4568	-3836	-5246	3852	-2658	-16608	-3428	-1564	59	14377	-2138	-8340	4028	15696	-2887	-28024	9901	-5372	3516	-7652	-6581	-23692	-2490	-12628	1528	-9420	284	-16600	1191	131	125	1
-9736	-1384	12944	-586	2311	539	-16240	-4264	-3364	-376	3545	-1776	-16320	-1864	-76	5319	13870	-2446	-9124	1824	15496	2275	-32768	11321	-7636	1752	-7932	-6538	-28234	-4419	-10816	2588	-8376	360	-15389	1673	127	123	1
-9512	-768	13024	-254	1851	212	-16000	-968	-2964	2666	4119	-1599	-15132	2368	1472	8110	12951	-1828	-9280	3492	14352	6314	-32768	12156	-8880	1464	-8332	-5032	-32737	-6627	-10156	3576	-8196	-640	-12688	1218	138	126	1
-9452	-940	13048	-33	1662	64	-16752	504	-2784	2040	4065	-1770	-15296	4496	1500	4857	12514	-1282	-11504	4936	14584	7065	-32768	12910	-9476	1368	-8852	-5615	-32768	-7833	-9572	2220	-8920	-2257	-9409	-2	136	130	1
-9624	-1116	13024	237	1460	8	-16208	280	-2488	-1025	4429	-2260	-14960	4196	1648	-397	13379	-1639	-16644	6788	16492	6615	-32768	14182	-10252	1032	-9676	-5143	-32768	-8463	-8324	92	-10396	-4411	-6984	-1352	129	136	1
-9756	-1236	12784	673	1217	109	-16460	-1396	-2308	-2970	5120	-2612	-15016	1772	740	-5070	13421	-1716	-18532	6224	16668	8039	-32768	16602	-13040	2120	-9920	-4451	-32768	-9349	-7716	448	-10400	-7792	-4483	-1028	128	136	1
-9804	-1080	12656	1470	654	278	-15932	-2432	-2624	-2683	5584	-2416	-15280	692	600	-6909	13085	-2257	-18432	5952	16372	8911	-32768	17101	-16784	2596	-10408	-3241	-32768	-11331	-4124	-12	-9184	-11407	-1929	1534	130	132	1
-9680	-1120	12932	1916	581	422	-16496	-1684	-3144	-2357	6153	-2122	-14880	2616	3544	-7257	14508	-3116	-26580	11204	21376	12005	-32768	20724	-20536	5056	-11784	-1671	-32768	-11545	-3040	224	-7104	-10624	-1460	3512	127	126	1
-9672	-880	12908	1919	949	672	-16396	-624	-3368	-3598	6719	-2235	-13376	3592	3004	-3462	19390	-3163	-32768	14156	28568	5266	-32768	22902	-24180	11340	-13604	-5414	-32768	-11676	-8360	1744	-308	-6561	-4938	3525	123	121	1
-9304	-304	13360	1692	1810	625	-16168	-760	-2972	-4629	7532	-2184	-16100	3136	-1648	-6288	17578	-1194	-32768	13012	22432	760	-32768	26568	-22808	7192	-14664	-11971	-32768	-14498	-14304	5048	5308	-3235	-10743	4523	123	111	1
-9220	36	13788	1011	3400	538	-16384	-952	-2828	-3977	8493	-2229	-20160	-1736	-1820	-5975	8460	1249	-32768	10364	11536	-1214	-32768	27924	-20960	5796	-15208	-7845	-32768	-12899	-14140	4988	6028	-7984	-5030	4075	125	110	1
-9672	-596	13428	696	5266	558	-17048	-1636	-2548	-3151	9671	-2005	-17924	-2312	3252	-4295	8358	452	-32768	-200	-4928	1905	-32768	22715	-20720	-1220	-13920	-5430	-32768	-5848	-15040	-6684	22220	-14198	-6427	1982	120	112	1
-9572	-928	13616	536	7179	596	-16252	-1404	-1388	-2318	11628	-1875	-15996	-256	6776	-2573	11030	-354	-32768	-32768	-28640	32767	-23299	13890	-700	44	-10960	17337	-17498	5369	-26448	-10984	32767	-9345	-5029	2385	126	117	1
-9520	-156	14360	581	9826	533	-16944	-1596	-1212	-540	13857	-1579	-17508	-588	7964	-1667	12076	-211	-32768	-14892	-21840	12460	-2029	1103	-932	20376	-11140	15148	4869	5988	-22972	-2692	26052	5760	-4342	-1319	128	137	1
-9656	-944	15676	266	14396	312	-20624	-1292	-1148	2059	16194	-1023	-21008	640	6936	-352	9024	496	-32768	-16656	-9188	-18414	8320	-15566	-8852	15552	-18116	-6620	18040	5547	-16424	9948	1032	12382	-7269	2306	126	116	1
-9876	-1528	16344	48	20520	1113	-22300	2368	-644	1711	18428	-1720	-23500	2340	8804	-3186	5975	1514	-24788	29216	10916	-23382	7814	-16225	-11812	6348	-12852	-16843	23268	6709	-9728	6920	-3516	13568	190	6866	124	142	1
-9384	-1396	17396	-372	29089	1701	-24392	4720	416	-1172	21349	-3074	-23256	4652	15340	-4106	-1110	3390	20416	-3256	32767	-17327	23547	-5282	-32768	-30620	12036	-24765	17551	3589	-4456	-1396	-8000	-5192	2649	4640	127	138	1
-7748	-872	21300	-1165	32767	1438	-31920	5648	2744	-4564	24044	-3228	-20872	7612	32767	10383	-7563	4760	-32768	-18452	12824	-9555	32767	-7334	-29480	7144	-17384	-24412	18432	2970	-32768	12196	26836	-26981	-6666	8832	128	120	1
-3492	-5136	22580	-2692	32767	-400	-32768	12992	8812	-10233	25377	-3155	-19816	21476	13928	-12379	-2926	12008	-26104	-5552	28020	795	19679	-15962	-17884	-8992	-8408	-15652	22169	7551	-32768	9076	32767	-20272	-2643	10321	124	104	1
-21160	-10620	23640	-3263	32767	6260	-32368	-1088	3204	-21805	27046	-2503	-24588	8500	5000	-25814	-2939	10320	-8664	21576	8748	-5468	21204	-5193	-14204	7440	-10712	-3956	17843	9862	-14588	-15580	-17716	7485	3272	-51	131	120	1
-32768	-16648	23892	2950	32767	18091	-32768	-20000	-5128	-14960	28244	-2699	-31192	-9980	-7540	-20708	-4488	3298	-19868	284	16372	-7381	8262	-12071	-13264	10076	-16548	-3393	13925	11520	-2452	3420	-10972	20204	4149	1196	129	128	1
-27808	-12712	30812	9585	32767	26138	-32768	-17736	-6016	-12045	29329	-2857	-29868	876	-8312	-2192	-15775	-696	-18340	6456	14236	-7383	7831	-10926	-18628	1748	-15160	1762	11598	9772	-25560	14288	-10052	12413	12017	5390	130	137	1
-14880	-10216	31204	-5821	32767	15778	-22112	-1652	-6900	6243	16423	-897	-32364	5052	-7152	263	-17730	1741	-10564	6156	13972	-2435	742	-2210	-16716	7104	-7708	11827	10539	7102	-21676	10128	-6648	5959	7097	5844	124	114	1
-32768	-14716	32767	-20112	818	3266	-16272	-4896	-11944	-493	8767	895	-31188	4812	-9892	2160	-18034	2389	-9776	4032	14004	-1152	303	-1358	-16444	10064	-8964	4722	8673	5264	-16988	8000	-6752	3502	9632	3332	123	121	1
-3532	-18692	22812	-12190	-24341	2915	-15476	-1680	-3176	-4329	1001	-1049	-28732	5372	-11028	1176	-18585	1300	-9016	3476	13876	-113	944	-953	-17324	5576	-8532	-780	6830	3014	-15756	4104	-2972	741	11992	3819	126	131	1
2732	-12004	12852	64	-29497	1503	-9480	-4560	-3488	-1547	-7386	-1482	-25484	4632	-11148	-4	-18104	553	-9244	3028	13860	820	1568	-317	-17460	1824	-8000	-4224	5048	2289	-18456	-948	-2376	-1192	14396	2513	130	137	1
1484	-7608	9412	2933	-28819	-2582	-8568	-4536	-3684	-736	-8717	-1224	-18344	5564	-11464	-1953	-18314	-221	-9892	3128	13568	1325	1866	-31	-17040	-96	-7004	548	3251	3247	-15460	-660	-2080	1152	14844	541	136	126	1
-1248	-5864	9820	457	-29884	-7654	-6424	-632	-5104	4797	-20728	2178	-17460	3368	-11844	-1702	-18621	-1863	-9852	3824	13232	1352	1649	352	-15932	2500	-5696	5445	2057	3640	-17140	2576	-2720	2524	15561	179	131	136	1
-4140	-5524	11144	-1694	-32486	-11689	-7096	-564	-5624	4266	-25832	3297	-13252	6068	-13092	-4411	-20036	-2076	-9812	4300	13136	1178	1684	593	-15696	4884	-3764	5855	1378	3175	-15448	4508	-1812	-287	14877	1056	129	135	1
-9156	-5236	13444	-1499	-32768	-14542	-6736	-1756	-6348	2845	-30608	3979	-9732	2824	-12836	-6605	-20923	-2625	-9708	4448	13088	1102	1615	636	-15868	4260	-2996	3877	1364	2844	-15112	1500	264	346	15474	1332	124	133	1
-10352	-2536	14200	-1552	-32768	-16364	-7400	-1984	-6216	3733	-32768	4855	-7900	-456	-12500	-4859	-19783	-3861	-9720	3844	13068	1033	1552	595	-14668	2576	-2916	3100	1554	2947	-14280	560	916	1154	16033	1082	138	133	1
-11536	-1460	14376	-4936	-32768	-16941	-9344	-1004	-6104	3608	-32768	5971	-6392	-780	-12376	-2030	-16876	-4717	-9536	4128	13192	1002	1421	657	-15256	8176	-2736	4214	2094	2603	-14680	1356	672	3495	14620	385	137	133	1
-12096	-616	14348	-8961	-32768	-15340	-12348	-1336	-6396	1718	-32768	7744	-6116	-892	-13332	1462	-15793	-5853	-9708	4624	12748	590	1309	192	-15060	4348	-2224	3776	2493	2902	-13960	2856	-332	9122	14365	579	129	131	1
-15772	108	14084	-15679	-32768	-12233	-16316	-2144	-7916	-247	-32768	7620	-5180	-388	-14144	6845	-14059	-6600	-9664	4592	12652	49	831	-429	-15068	4704	-2584	4827	2708	3033	-12536	3996	868	10248	16604	1647	126	135	1
-22292	-2108	18040	-18183	-32768	-11341	-19692	-1208	-9796	-723	-32768	8952	-2808	1292	-11232	10274	-13977	-7262	-9736	4120	12644	-237	569	-1054	-15256	3332	-3348	5230	2828	2852	-12480	3976	2128	9671	16910	2013	127	133	1
-31752	-8880	26136	-15941	-32768	-13554	-29608	-4348	-16396	-802	-32768	8835	-4512	2912	4156	7410	-19591	-3948	-9740	4032	12852	-456	600	-1535	-15740	2100	-1612	5923	3498	3048	-15784	2772	400	10881	20442	1508	125	128	1
-32768	-11600	22372	-9748	-32768	-15427	-30780	-4640	-14012	-2849	-32768	8499	-10876	1020	6792	404	-18048	-3219	-9504	4124	13332	-395	1309	-1754	-15620	2864	1260	6590	5217	3193	-20444	6316	-36	8167	13730	-98	130	124	1
-32768	-15284	12028	-7600	-32768	-20585	-23808	-10032	-19492	-6366	-32768	4152	-16656	1988	4568	4497	-10776	-3339	-9376	3940	13648	-169	2646	-2123	-14780	4212	1936	3092	7948	3472	-20908	9388	4084	-488	6514	604	123	121	1
-32768	-4048	6228	-5871	-32768	-26363	-18176	-7016	-18492	6402	-32768	512	-11976	1400	6776	13981	-8958	-253	-9644	3644	13528	35	4369	-2293	-15352	3032	1392	2235	10747	3222	-17000	8496	8276	297	8077	1159	128	121	1
-32768	4896	2824	-8341	-28056	-24434	-24424	-272	-16036	-1304	-30375	1020	-13288	11420	21076	12787	-3905	-2258	-9744	3784	13832	452	5915	-2351	-15088	4716	324	2169	13508	3082	-15376	6484	7176	3694	10734	1354	128	124	1
-32768	16780	-19156	-3822	-21814	-11242	-10084	-3752	-18936	-10276	-17063	-5219	-17020	9964	32767	2726	-6067	-5923	-9552	4340	14560	810	8874	-2873	-17292	3596	-524	-33	16235	3243	-17716	3024	4604	4008	9559	1598	125	124	1
-32768	27484	-27884	-9271	-4364	5190	-1196	-7428	-20576	-6834	3240	-8297	-15284	3072	28872	-1445	1158	-6745	-9536	3420	15668	1180	13583	-3105	-18808	660	-2060	-507	18793	3841	-20584	904	4048	1982	5883	1569	123	123	1
-32768	10904	-8896	219	5503	11228	-8804	-5132	-22548	6361	14600	-4600	-16716	1004	5228	-3864	8506	-8131	-9976	3408	16616	2080	20641	-2951	-21804	-2284	-3204	1133	21031	4515	-21164	-12	5748	2550	3018	451	128	121	1
-24684	-12856	-5048	32767	14184	11900	-16648	-40	-12980	9326	22681	-7700	-8840	5016	844	-2668	16150	-7858	-9564	3100	17068	3567	30364	-2834	-23760	-5608	-3336	4097	23054	5617	-23324	-1336	7440	3767	-1380	-1102	131	126	1
22432	-4648	32767	14941	26853	-9925	-32768	28336	20340	26859	16417	1834	-14480	-3036	5672	16158	6662	-7042	-8168	3628	18336	6095	32767	-1338	-30520	-9172	-1164	9459	24982	6301	-27380	-780	13956	2371	-9181	-2478	119	128	1
-32768	32767	20688	7970	32767	2273	-22424	-1288	-15796	32049	19787	457	-24828	-8576	25432	29802	3326	-5075	-6200	9396	19916	8565	32767	-1632	-32768	-13808	5676	16866	25486	7602	-29236	-2900	32024	-5060	-28895	-5870	95	127	1
-19896	304	21688	249	19716	13095	-22960	10588	-7008	16471	23678	-4244	-23712	23080	-11020	32767	4611	-4922	-17868	15332	19472	11758	32767	-12323	-31992	3472	4888	23796	25290	7017	-15420	-19384	-884	13171	-9902	-12477	143	129	1
-6536	-11664	9848	6427	21799	2409	-15868	-6864	-6828	12982	23026	-5845	-6536	14004	-16420	-6414	3191	-1586	-32768	12560	14380	8177	32767	-21673	-27336	16412	-7104	12013	26747	7134	-26980	9484	3292	16874	-17029	-6742	117	132	1
-23872	-3884	16060	7332	16963	10404	-8084	-5236	-13388	7055	14921	-7682	-6796	11620	-16340	-11028	3503	-548	-32768	20464	24628	-798	32767	-30348	-27248	11552	-9460	6759	23788	6547	-30648	14092	-14040	18591	-12802	-2831	131	132	1
-16016	7740	18904	9839	8474	6147	-23864	5876	-12880	-5371	12953	-9497	-24560	-3884	-7632	-9711	12299	-4828	-28036	14304	30220	3270	32767	-23732	-20480	5076	-11048	-1595	19617	3275	-32608	2512	-9768	3514	-18745	1397	112	127	1
-11640	-4484	14244	4333	2734	2675	-20100	44	-7352	-15429	14360	-4721	-22064	904	-6136	-6040	9699	-2474	-32768	10316	32767	22106	9162	-13093	-14512	7736	-17444	-3688	13764	-521	-26964	3992	-6324	-5805	-23717	2453	105	119	1
-9920	-1180	14152	3449	1345	1987	-15672	-5740	-7488	-11926	11074	-5410	-16112	-1264	-3872	-3198	10546	-1108	-8424	22236	25324	14276	-26441	-5497	-12684	-2288	-8040	9848	4588	519	-25884	3648	-5988	-4638	-22787	-1203	125	129	1
-9152	-12	14204	1419	1333	758	-17288	-5940	-7056	2194	8849	-3346	-16936	2176	-2376	-69	11152	-1104	3896	12008	11836	5011	-31518	-1611	-9492	4636	-6876	16864	-3063	874	-25500	3740	-6896	-914	-19144	-2577	116	128	1
-9380	-600	13708	-355	1911	14	-19752	-228	-6684	6522	7239	-3039	-18560	2024	-3992	461	12323	-1702	6504	8568	6080	-1194	-26667	994	-5872	7900	-6536	7651	-9766	-1491	-22176	5052	-7872	-619	-16905	-980	122	125	1
-9776	-1440	13472	-1084	2042	100	-17524	252	-6704	-1230	5723	-3196	-18700	336	-4664	-1668	14048	-928	3224	7672	6484	-4505	-21487	2073	-4784	5908	-6836	-3544	-15270	-4014	-18212	2252	-9032	-2148	-15394	-453	121	124	1
-10004	-2128	12720	-525	1865	-200	-16724	-3392	-6100	-6045	4245	-2869	-18768	-5876	-5560	48	15291	-1457	-3648	9028	10468	-4867	-22560	3871	-4916	4944	-7508	-8326	-20460	-5738	-15460	3020	-9980	-2498	-15191	708	131	126	1
-9916	-2048	12676	910	1372	-543	-16676	-4628	-5308	-5585	3298	-2086	-16728	-1524	-3300	1241	14773	-2101	-7504	8424	13060	-3175	-28847	7750	-5776	3324	-8180	-7587	-25252	-7256	-12288	1876	-9080	-3791	-15459	1515	140	120	1
-10056	-1932	12712	1008	1312	-629	-16336	-3144	-4216	-2835	2548	-1437	-16512	352	-1388	4436	14426	-2357	-9624	8308	13308	-535	-32768	12656	-6996	3408	-8316	-6333	-29676	-9022	-10628	3344	-8136	-4337	-13621	1481	132	121	1
-9336	-1132	13020	949	1207	-1281	-16292	-1080	-3576	-724	2450	-1610	-15492	3292	-472	3248	14190	-1611	-11728	9060	13220	-377	-32768	15975	-7988	3652	-8400	-6710	-32768	-10683	-9176	2820	-8424	-6137	-10403	1020	132	126	1
-9112	-1596	13120	555	1523	-1126	-15980	-1732	-2468	-1154	2861	-1808	-16060	1720	420	-657	14563	-1101	-15460	9252	14216	-1584	-32768	17889	-8724	3196	-9180	-7870	-32768	-11219	-8660	1252	-9248	-7095	-7098	14	133	133	1
-9196	-2464	12624	451	1750	-390	-16300	-3060	-1900	-2837	3228	-1822	-15076	-120	916	-6920	15073	-1489	-18180	8348	14808	-1238	-32768	19196	-10908	3040	-9320	-7192	-32768	-12072	-8040	776	-9324	-7427	-6536	-154	130	137	1
-9424	-1976	12516	518	1566	550	-15768	-3596	-2260	-4018	3620	-1430	-14616	-1276	836	-9593	14720	-1641	-20452	7816	15520	2113	-32768	20064	-13336	3220	-9440	-6074	-32768	-13466	-4736	228	-9440	-11241	-948	-4	130	133	1
-9404	-1688	12684	858	1498	1091	-15432	-2492	-2624	-3525	4382	-1109	-14300	216	5144	-8006	14652	-1532	-23716	8544	16332	6376	-32768	20294	-17240	3796	-9400	-3853	-32768	-14057	-2752	-752	-8996	-12382	2647	2231	127	128	1
-9536	-1308	12680	821	1672	1411	-16276	-1160	-2276	-3571	5282	-1017	-13432	2476	4268	-4159	19287	-2775	-28352	11680	20364	8165	-32768	18978	-22480	5980	-11016	-2085	-32768	-13703	-4680	-572	-5588	-11482	658	2655	122	122	1
-9508	-1260	13040	772	1996	1754	-15552	-928	-1636	-4495	6079	-1591	-18504	3120	1240	-7198	17207	-1126	-32768	18048	25276	5327	-32768	19628	-24944	10804	-12272	-6755	-32768	-13950	-9768	680	796	-9292	-6269	1681	126	119	1
-9368	-932	13108	597	2687	1845	-15500	-452	-1568	-4322	7478	-1901	-19496	64	316	-4651	8286	803	-32768	12920	16416	-207	-32768	23459	-21476	5876	-15000	-6754	-32768	-12513	-17952	3264	6664	-7902	-11638	3030	126	110	1
-9512	-556	13248	319	3893	1365	-16468	-1684	-2372	-2931	8893	-1946	-16864	-2504	3200	-2863	8308	824	-32768	7400	4364	1400	-32768	23165	-19644	4900	-16400	-914	-32768	-9074	-14612	1064	6920	-9664	-3880	2317	127	111	1
-9572	-928	13284	167	5173	944	-16016	-1864	-1832	-1894	10612	-1657	-15852	-1336	5176	-2590	12988	101	-32768	-11452	-12144	9704	-32768	16966	-17072	512	-13564	4015	-31198	-938	-16272	-10176	30280	-12206	-7602	1768	125	119	1
-9516	-908	13796	155	6853	932	-16176	-1972	-932	-703	12626	-1494	-16676	-1004	6128	-928	12846	109	-32768	-31784	-30844	32278	-20803	10631	1848	10092	-10892	17050	-9397	6063	-27980	-10168	32767	-1131	-3637	1136	128	126	1
-9448	-352	15284	134	10288	452	-18808	-2028	-1644	2697	14863	-933	-19228	-1528	5744	1171	10138	658	-32768	-11620	-23088	-3294	1997	-6289	-4668	19548	-14116	6567	10119	7040	-20804	736	15508	11859	-5983	1281	123	122	1
-9540	-904	16200	-389	15696	347	-21464	556	-1648	4466	17079	-804	-22180	720	7120	1976	6908	818	-32768	-4248	-15888	-24035	16365	-24219	-11332	15760	-18040	-8198	20168	6430	-15004	9216	488	21064	-2137	5463	130	120	1
-9692	-1336	17004	-836	22641	578	-22976	2040	-504	2208	19422	-1671	-22072	2884	11324	-1056	3402	2812	10100	-4940	32767	-15927	30876	-8574	-32768	-27848	9336	-32768	20725	1854	-16312	7636	-2120	9673	-1628	8040	128	153	1
-9092	-2156	18864	-1031	32767	759	-28052	2260	1540	-653	22460	-2268	-25108	2800	17340	-3460	-3632	3763	-32768	-5320	12516	-10950	32767	-9362	-31932	708	-18380	-32768	22102	3065	-32768	9152	31424	-32768	-12635	13015	126	124	1
-6104	-1760	21060	-2253	32767	1350	-32768	8428	6012	-2843	24816	-3162	-28100	9344	30940	-5766	-18411	8123	-23832	-18032	32068	-724	18918	-12229	-16756	-19052	-12176	-13027	22622	9239	-14372	-19772	-14956	-4879	21977	-2669	127	84	1
-9688	-11792	24264	-3024	32767	548	-32768	20036	8236	-15665	25634	-4077	-21660	22204	14880	5901	-1939	12503	-6064	24192	6400	1200	18284	-7587	-12380	7596	-7836	3923	19324	8957	-13976	-14320	-20804	3209	179	-6389	127	151	1
-32768	-676	20500	-3068	32767	11202	-29084	-12196	-308	-28732	29792	-3683	-21064	10112	5932	-26405	-3795	8814	-20232	1420	15468	-10875	9224	-13891	-15292	22164	-15052	-1664	14614	12660	-12504	-11564	-17624	6720	-775	-5046	131	123	1
-32768	-18688	25656	4958	32767	24998	-32768	-15276	-8216	-11067	28630	-5044	-30216	-6880	-11032	-20560	-2730	1587	-16024	3548	15692	-6486	22	-7438	-18592	968	-16264	-7632	12599	7906	-23052	15000	-8952	8905	11269	7525	129	123	1
-30640	-13372	32767	2851	32767	23778	-27532	-5268	-6952	5829	24208	-4628	-32724	1232	-7272	-8469	-16120	-16	-11356	3016	14100	-1851	-637	-2069	-16548	-780	-8256	8429	11583	5892	-25680	7916	-7808	1057	7966	8633	126	114	1
-17624	1000	32767	-8985	18196	14387	-26904	-5140	-7024	7355	23037	-4025	-32768	3688	-8412	-3148	-17171	-394	-9140	2928	14540	-654	-445	-1600	-17060	6620	-9688	8646	9374	5986	-17972	2468	-5268	2663	8929	2814	123	118	1
-7268	-17572	31596	-18616	-13427	8403	-17636	1276	-3744	-1214	7305	-1221	-31116	6328	-10132	294	-19584	1300	-8940	2668	14176	51	167	-1146	-16036	5468	-9308	172	7613	4307	-14840	1984	-1792	1500	10593	2524	127	113	1
4152	-15740	18892	-8056	-23229	5366	-12644	-792	-2620	-6535	-1881	-1753	-30588	6100	-10896	-1135	-19322	354	-9376	2332	13756	1050	797	-224	-16724	2936	-9000	-6886	5929	2729	-17780	-160	-2876	-924	12607	1693	122	129	1
5984	-9080	12900	-482	-25046	-1130	-7920	-2208	-3612	-2489	-10518	-246	-23076	2840	-11604	-2053	-19501	257	-9240	3176	13800	1242	946	-3	-17156	-32	-7172	-1611	4112	3775	-17404	948	-2896	182	13654	945	146	148	1
3752	-5536	10464	-1090	-24978	-7967	-6784	-304	-4180	2401	-17629	2856	-20116	5212	-12680	-4294	-20419	-752	-9688	3580	13352	1229	1143	492	-15996	2828	-6296	4752	2734	3653	-16708	3272	-2640	1589	14965	861	137	129	1
-1244	-6016	11572	-1621	-27038	-12534	-5960	-588	-5368	2704	-23753	4144	-14784	5832	-12644	-5515	-20683	-1164	-9452	3992	13472	947	1108	668	-15708	5260	-4768	5724	1834	3007	-17084	4644	-1336	1995	14831	1635	124	132	1
-5000	-4248	13412	670	-32768	-14572	-5552	-748	-6036	2096	-29169	4848	-9860	2724	-11748	-5498	-20516	-1665	-9316	4104	13348	718	1027	297	-16012	4316	-3692	3840	1540	2460	-15724	3444	-64	266	16926	1801	128	134	1
-7684	-1204	14124	179	-32768	-16166	-6648	-412	-6212	3181	-32768	6080	-9456	-404	-12640	-2935	-20878	-2312	-9424	3652	13228	572	958	62	-15352	2932	-3412	1831	1582	2442	-14784	264	940	913	16724	2003	127	133	1
-9900	-452	14952	-1515	-32768	-16491	-8852	-304	-6356	3564	-32768	7803	-8144	124	-11608	-686	-18866	-3110	-9372	3480	13368	550	962	-36	-14728	1548	-3192	1510	1764	2565	-14212	-1188	1500	2332	15669	653	130	133	1
-12928	-792	16252	-2097	-32768	-14561	-11128	-504	-7040	2850	-32768	8701	-6060	1296	-11972	2126	-18588	-3080	-9432	3872	13192	326	916	-232	-14840	2800	-2212	3773	2220	2823	-14356	448	1292	7690	13667	-178	137	136	1
-15228	-324	18260	-3761	-32768	-11924	-13512	-284	-8408	2796	-32768	9540	-4680	2096	-12108	5408	-16380	-3211	-9576	4164	12812	-44	593	-773	-14876	4416	-2388	3995	2718	2699	-13968	2620	184	11518	14009	15	137	136	1
-20652	-928	21692	-9454	-32768	-10476	-16984	784	-8652	1302	-32768	9979	-3688	2576	-12608	8949	-14707	-3657	-9500	4040	13168	-277	218	-1298	-15048	3756	-3112	4232	3113	2578	-12908	3136	1972	10787	16097	1503	130	136	1
-22644	-1484	21672	-15195	-32768	-10040	-22568	836	-9308	-2493	-32768	10479	-2168	3444	-9864	9000	-12600	-3590	-9548	3560	13296	-358	279	-1799	-16296	1988	-3628	4540	3281	2801	-13692	1344	1592	8090	18412	3010	128	136	1
-30156	-4612	25520	-15699	-32768	-10983	-29108	-1884	-11972	-3785	-32768	10695	-3972	3548	-1812	6493	-12075	-2073	-9348	3392	13632	-193	815	-1851	-16096	1592	-2660	5400	3847	2986	-16972	2188	-552	8621	19858	1481	125	126	1
-32768	-11544	28528	-9917	-32768	-14361	-30348	-5196	-14680	-5146	-32768	9433	-10612	3960	8384	3151	-15471	44	-9224	3620	13660	-131	1825	-2027	-16156	2428	-780	5442	5185	3236	-17652	3116	-980	8542	19281	968	129	126	1
-32768	-7004	13840	-3294	-32768	-18953	-22848	-8516	-19892	-2846	-32768	7124	-17740	-1672	9060	8481	-10877	-2552	-9632	3712	13456	-208	3043	-2432	-16088	2644	-488	5453	5436	3299	-20068	10652	2264	-272	8573	-762	125	126	1
-32768	-1212	3132	-2854	-32768	-19308	-22084	-4312	-18324	551	-32768	5534	-13276	-84	17456	10277	-11497	-723	-9200	3600	14048	-87	4244	-2340	-14740	4388	1728	1344	10416	2778	-16396	10080	8520	-2332	9658	1106	128	123	1
-32768	9548	-16416	-3987	-27840	-12504	-13676	-4880	-19704	-1150	-23594	690	-12928	8424	32767	13996	-9155	1566	-9396	3956	14616	262	6810	-2742	-17028	2536	1032	74	13624	2638	-17924	5968	8736	-1066	10891	1416	127	121	1
-32768	24244	-32768	-2885	-10400	84	-572	-8108	-22080	-4180	-2807	-6144	-15244	11624	32767	10220	-3814	-2153	-9208	2888	15876	565	10957	-2933	-18228	1472	-956	-580	16697	2930	-19856	1464	7264	2005	11003	783	118	121	1
-32768	16700	-17828	2032	5410	9301	-5932	-10060	-24076	3161	14182	-4289	-14856	6412	15084	5346	5269	-7602	-9500	3556	16732	1043	17196	-3068	-21656	-68	-1580	-390	19364	3151	-21788	-332	4944	2380	8266	582	120	122	1
-15652	228	-14160	22947	22209	11358	-17860	-2784	-15880	11917	23238	-5593	-14504	5664	9540	4308	6898	-8429	-9432	3992	17708	963	25738	-3910	-23908	-2060	-1624	1768	21869	4100	-24840	-428	6824	3166	4783	391	130	121	1
7856	-10260	32767	6910	32767	-4622	-32768	23948	14532	27550	19937	5655	-29116	4660	32767	12949	6481	-8693	-8548	3972	18944	803	32767	-4174	-28328	-2332	-360	2434	24604	4094	-27552	2232	10108	1870	-723	-618	122	127	1
-32768	17696	25292	7815	32767	-1072	-19544	3772	-15392	26597	21648	-2179	-11364	-7668	6396	14139	5909	-3776	-7504	6416	18876	1534	32767	-5744	-32768	-9224	2684	3513	26081	4819	-29328	3196	15488	-1259	-10922	-1118	98	128	1
-12440	11728	21416	-375	18897	12004	-16700	10968	-12740	10822	23630	-8034	-18288	16680	-22872	12555	3609	-3633	-11312	17024	19324	1748	32767	-13671	-32768	-10708	10992	17250	24452	7716	-31256	-2500	32767	-12904	-32768	-7359	136	132	1
-13480	-14784	11316	3183	21963	4923	-16032	-6148	-9948	3533	17789	-7539	-7580	7828	-10932	-7956	5478	-1472	-32768	13636	18496	-115	32767	-31749	-28752	17672	-4700	20857	25210	9448	-17256	-15684	-664	11382	-10988	-11233	136	135	1
-17024	3012	17552	5600	14730	7991	-16468	-7160	-12032	3594	12199	-8392	-13932	-4304	-7172	-7084	10061	-1770	-32768	13356	22036	-3319	32767	-32768	-27360	12772	-8496	7810	25211	8974	-27452	11440	-4164	17094	-21125	-4167	126	133	1
-14228	-268	15456	6667	7396	4549	-22304	1020	-9752	-515	12392	-6538	-28636	-3636	-8940	-2090	12370	-5497	-25480	15660	28524	804	32767	-28037	-23988	3068	-10128	5987	20419	6344	-30412	10652	-15472	15593	-15073	-7	114	123	1
-11644	-3792	15260	3588	3013	3154	-17192	-1360	-6948	-5051	11720	-4294	-17740	-300	-4648	1356	10546	-3931	-25000	7464	24328	18312	31273	-18233	-16140	5344	-13456	1524	15651	2223	-29852	-768	-5760	1923	-22669	2788	111	120	1
-9392	-596	14384	2713	1947	2151	-15952	-1812	-6416	-3929	8671	-4107	-14940	2412	-2000	2614	11436	-2237	-23996	32767	32767	15373	-11081	-165	-13792	5600	-11368	3981	7810	2076	-24748	-516	-6284	-4020	-25207	2738	122	106	1
-8696	-616	13704	1922	1582	1506	-18000	-984	-5552	523	7035	-3478	-16692	3068	-1676	2461	12117	-1932	-128	17980	18460	-101	-26020	7167	-12280	-1060	-6044	11663	-193	2920	-26296	1972	-6232	-1688	-23237	-60	114	129	1
-9016	-560	13888	1070	1617	1135	-17924	88	-4548	1423	5868	-3290	-17392	3832	-812	2314	12784	-1908	8288	7768	10244	-4954	-23747	11209	-7592	3440	-5664	8708	-7231	2250	-22636	3724	-6344	2945	-20138	-427	116	131	1
-9368	-1396	13288	790	1651	1125	-17320	-460	-4464	-210	4764	-3375	-16768	1944	-1572	-149	14086	-1497	4760	4148	9192	-4071	-18776	12821	-5908	2820	-5844	336	-13563	-824	-20280	2484	-8404	3187	-17469	348	125	130	1
-9788	-1860	13084	1053	1260	1036	-16804	-1780	-4016	-2376	4082	-3254	-16544	732	-1432	-1586	14800	-1469	-2816	4892	12680	-3930	-20968	11842	-5104	4300	-6720	-5151	-18939	-2209	-15840	1108	-9356	1124	-17008	1460	124	125	1
-9632	-1124	13052	1229	819	571	-16676	-2696	-3952	-2673	3517	-2534	-16388	-680	-916	-404	15136	-2073	-5676	1652	15140	-2112	-28052	10257	-5516	2208	-7608	-7800	-23993	-3105	-12900	1252	-9460	-1243	-17257	2125	129	126	1
-9256	-692	13108	1175	383	113	-16372	-1876	-3448	-665	3724	-2102	-16500	1752	-108	3594	14372	-2791	-8272	1752	15560	3578	-32768	10240	-6732	832	-7840	-6452	-28851	-5086	-11568	2864	-9056	-2603	-15897	2346	129	119	1
-8940	-696	13328	807	391	-311	-16064	-496	-2852	-270	3903	-2313	-16064	2512	444	3040	13748	-1646	-9892	3480	15044	6528	-32768	10922	-7568	496	-8480	-4980	-32768	-6831	-9188	1756	-8556	-3836	-12813	1294	131	127	1
-9000	-1036	13160	534	467	-366	-16272	-1216	-2576	-292	3901	-2246	-15468	2584	404	6	14332	-1590	-11844	4336	15148	6997	-32768	12725	-8768	-448	-9060	-5210	-32768	-8212	-8036	456	-9464	-5796	-9871	-520	134	135	1
-8992	-1108	13040	484	520	-102	-15988	-1780	-2444	-1020	4389	-1992	-15132	748	180	-2807	14404	-1591	-15368	5584	16816	6554	-32768	15277	-10008	-760	-10028	-3458	-32768	-8938	-7472	-1068	-10424	-7316	-6802	-2059	132	133	1
-9096	-1360	12968	545	500	435	-16068	-2372	-2428	-1524	4644	-1832	-14896	52	224	-5015	13822	-1771	-19100	6280	19052	6429	-32768	17625	-12384	1740	-11008	-2829	-32768	-9741	-5644	-1076	-10640	-9718	-3777	-2267	131	133	1
-8836	-872	13284	772	529	986	-16180	-1020	-3048	-1888	4989	-1776	-14792	1852	2000	-5751	13522	-2170	-20668	5088	19564	8950	-32768	19746	-16732	2352	-10704	-4353	-32768	-11541	-3760	-1216	-9252	-12563	-588	-240	128	128	1
-9020	-464	13232	742	847	1115	-16800	604	-3236	-3278	5576	-1940	-13152	3996	3776	-2548	17559	-2838	-24184	6836	20716	11683	-32768	20555	-20660	4168	-11540	-5029	-32768	-13179	-4368	-556	-8792	-12554	2769	2091	125	128	1
-8956	-256	13380	699	1429	1104	-16492	648	-2588	-5167	6419	-2287	-15448	4964	1372	-5842	19551	-1610	-32768	12392	27032	8245	-32768	22065	-24940	7936	-13128	-8295	-32768	-13886	-7252	564	-3996	-9868	297	2100	125	126	1
-8644	-176	13592	567	2205	1137	-15352	268	-1696	-5748	7498	-2621	-18832	2740	-152	-6287	11570	-293	-32768	16452	24388	-330	-32768	27436	-25880	9816	-13688	-16480	-32768	-16614	-16064	3552	7328	-10256	-11369	3020	126	116	1
-8940	-136	13848	848	3211	916	-16028	-1464	-2500	-4682	9000	-2526	-17460	-2312	1444	-4394	7017	-63	-32768	10568	8064	-8482	-32768	32463	-20516	4952	-16296	-16255	-32768	-16556	-17676	5664	13924	-14578	-9537	3907	128	104	1
-9100	-740	14056	873	4615	637	-17036	-2120	-2048	-2612	10190	-1869	-17064	-2556	3544	-2204	12881	-742	-32768	-7404	-15948	-5913	-27692	26512	-16236	-3404	-15768	-6104	-30081	-6686	-16388	-10576	29884	-17519	-5098	865	127	110	1
-9148	-684	14264	845	6662	1056	-16556	-1336	-1400	-1840	12123	-1658	-17596	-1240	4868	-1357	12452	-255	-32768	-32768	-32072	25844	-15835	13370	64	10908	-10932	10857	-9200	3509	-25012	-19624	32767	-13072	-6223	-856	128	121	1
-9004	912	15376	960	9524	417	-17240	-1876	-1252	933	14449	-982	-18840	-3212	6808	975	9821	735	-32768	-17336	-20024	-1263	712	-8778	-5468	19372	-16072	2377	9225	6001	-21396	-3884	17540	9229	-3242	-2540	126	128	1
-9200	-1680	16820	948	14253	278	-17664	-2152	-1024	1590	14948	-799	-22844	-628	8700	2651	7271	739	-32768	-8800	-6788	-9892	3596	-19059	-6976	9248	-19092	-3071	18866	6203	-14276	3660	-612	21292	-2258	4475	129	144	1
-9564	-2656	17388	1697	20637	1873	-23616	1788	72	3162	19397	-1384	-23420	4324	11228	-377	3933	2014	7784	8016	5272	-15654	11104	-15720	-12980	5780	-11196	-9261	21508	9960	-6476	-852	-3676	20455	2155	7454	130	133	1
-9124	-1820	19092	2201	29414	3365	-26368	3784	204	156	22497	-2902	-25072	4056	15280	-2458	-1758	2839	12176	8996	32767	3768	32767	2126	-32768	-32768	6684	-14145	16260	-2385	-17460	2892	3792	-8421	-8991	5622	128	153	1
-8192	-2116	20620	2485	32767	4185	-31488	2800	1760	-1248	25362	-3056	-23892	5952	25572	-5398	-10380	4508	-32768	-22312	32508	-6023	32753	-10326	-20496	11828	-16808	-29312	21240	5901	-32768	5632	32767	-20465	921	11013	130	102	1
-4552	-6256	24312	-248	32767	5344	-32768	15048	8376	-5654	26479	-4469	-24092	13368	28268	3915	-1302	8761	-15232	14116	16364	974	16647	-12616	-14424	-11844	-9820	-8863	20964	9978	-25264	-9740	20472	-15479	8524	5002	128	117	1
-21320	-2404	25424	5954	32767	11482	-32768	5508	8548	-20996	28957	-3692	-23064	13732	-388	-28401	-5484	13218	-27312	11400	15256	-11212	16729	-12117	-14932	16884	-12284	4094	15314	13220	320	-5488	-6120	17503	-2187	-779	123	131	1
-32768	-12000	26128	5557	32767	19696	-31116	-13324	-7560	-22840	30146	-3199	-26832	-5744	-4928	-27623	-1728	3866	-19564	7776	17936	-9229	4129	-9836	-13152	11744	-15888	-3457	12601	12219	-12600	14088	-10404	11730	9736	3861	128	142	1
-26912	-11828	31368	10075	32767	26822	-30976	-9120	-4100	-5943	24968	-3337	-32292	-2744	-13588	-7305	-14728	-464	-13100	-336	16048	-3816	149	-3585	-19720	-2128	-12588	622	11322	7236	-27064	10660	-10948	4548	11110	8162	131	122	1
-13112	-8004	32767	-3820	32767	18025	-21072	-2232	-7536	10689	15954	-881	-31580	7344	-6820	1681	-20232	-981	-9552	3508	14408	-1073	154	-1171	-16024	5224	-7900	11746	9640	6566	-21608	3332	-4444	4341	8355	6681	128	106	1
-32468	-14704	32767	-16681	1978	1561	-14992	-1752	-11328	3810	8550	496	-29868	8264	-10756	358	-18316	330	-8880	3784	13984	-153	399	-1069	-16600	6552	-8452	7326	7720	5408	-16708	6364	-4588	5244	9095	3419	129	120	1
-432	-21260	23512	-7480	-22760	-2566	-14788	-1216	-9088	1794	7283	399	-30820	8404	-12524	-1625	-18988	411	-9780	2704	13804	816	1041	-723	-17212	6868	-10048	-1148	6078	3511	-16624	3412	-2424	1076	12509	3071	119	135	1
5512	-9932	13448	4053	-26605	-4996	-9336	-3324	-3404	-3404	-9037	-2429	-24692	4944	-12104	-4099	-19211	-1134	-9544	3236	13752	1577	1369	6	-17764	1304	-8960	-4726	4282	3078	-18944	480	-3820	-1032	14845	2261	131	135	1
1072	-4860	11932	2330	-26654	-9600	-6176	-2244	-4964	2957	-17167	-291	-18284	3440	-12008	-2690	-18860	-1303	-9292	3436	13580	1792	1849	560	-16728	644	-7456	1510	2355	3550	-16664	628	-3056	1571	15857	1278	140	128	1
-3736	-4000	12944	-1273	-32050	-13580	-6284	-892	-5380	5632	-22953	1628	-16980	6136	-12604	-2622	-18874	-2786	-9656	3852	13456	1735	2179	1179	-16152	3120	-5808	4687	1029	3488	-16824	1816	-2156	1440	16587	1026	136	132	1
-4660	-2804	13140	-3713	-32768	-15397	-7812	152	-5316	5843	-28192	2835	-12492	5608	-12364	-4451	-19306	-2428	-9572	4156	13360	1673	2395	1320	-16136	4092	-4380	5491	392	3153	-16684	1912	-572	1499	15781	1438	130	135	1
-8632	-2056	14456	-4271	-32768	-15913	-7572	-324	-6248	3572	-32768	3490	-9516	2524	-13100	-4642	-20241	-2860	-9612	4128	13176	1525	2362	1140	-15628	3512	-3124	4849	295	3012	-14756	1480	-212	-196	17476	1429	122	137	1
-8780	-1740	14632	-4465	-32768	-15993	-8148	36	-6428	2541	-32768	4967	-6636	-452	-13452	-3852	-18746	-3714	-9584	3924	13116	1205	2224	808	-14776	2968	-2828	4559	486	3183	-14796	576	644	2151	15984	1232	131	136	1
-10652	1896	15252	-10430	-32768	-15580	-10948	820	-6388	950	-32768	6858	-5708	-1732	-12972	-1750	-17386	-4513	-9752	4176	12688	892	2024	537	-14592	3632	-2564	4778	938	3167	-14140	1424	-68	6359	14555	134	135	137	1
-12432	1500	15336	-14233	-32768	-12201	-14904	-100	-7712	-1494	-32768	7186	-5492	-1200	-14472	3520	-15058	-5354	-9748	4136	12720	936	2077	534	-13956	4476	-2616	5158	1423	3021	-12780	2852	-708	10470	14966	365	134	131	1
-20876	2700	18276	-18363	-32768	-9516	-15880	-288	-10872	-432	-32768	8419	-4572	1060	-13008	8453	-14667	-6240	-10096	4600	12108	-112	445	-336	-13892	5096	-3412	5038	1626	2677	-11432	3172	2896	9042	16691	2074	131	136	1
-27496	-1592	23680	-19755	-32768	-11276	-23592	716	-10188	-2166	-32768	9555	-1748	2808	-8864	10455	-14685	-4977	-9968	4304	12184	-752	-495	-1126	-14296	3468	-2964	5673	1699	2635	-11856	2432	80	9161	19978	2875	127	130	1
-32316	-10556	28172	-12946	-32768	-11946	-32016	-4676	-12072	-2779	-32768	8949	-6444	3156	4660	6128	-20528	-2720	-9740	3876	12984	-919	-832	-1785	-15844	2028	-1252	7363	2378	3002	-17260	4992	-1852	12907	19157	1265	126	123	1
-32768	-11548	21924	-7519	-32768	-17350	-28056	-5208	-14256	-3192	-32768	7675	-11524	3620	7164	6647	-14333	-2149	-9304	4040	13436	-682	-202	-2000	-16020	2792	1168	6389	4173	3030	-21440	6460	-928	6361	9928	320	123	125	1
-32768	-11964	13296	-3163	-32768	-23659	-21960	-8580	-16520	1947	-32768	4602	-15940	5372	7596	6289	-10408	-1312	-9336	4176	13308	-591	704	-2253	-15116	4552	1924	3077	6733	3206	-19844	8648	6300	-122	6334	972	119	124	1
-32768	-308	8504	-3858	-32424	-27667	-22836	-1732	-15408	4865	-32768	3848	-13120	2524	12120	10119	-7322	-37	-9244	4320	13272	-374	1656	-2417	-14900	3708	2312	739	9416	3110	-16280	7944	9036	633	9891	1715	122	123	1
-32768	7356	-1624	-6399	-27201	-20263	-18932	-108	-17456	-7051	-29447	534	-13796	9268	23072	10298	-8990	-1299	-8972	4112	13972	-414	3509	-3006	-15696	4484	1544	748	12290	3132	-16460	7232	6856	3009	11795	1738	121	121	1
-32768	28676	-24740	-14816	-17616	-1780	-5660	-5492	-19312	-19896	-11955	-8453	-14304	9392	25168	10720	-8715	-1424	-8952	3540	15492	373	7062	-2965	-18724	2808	-572	-1164	15384	2735	-20616	4824	3592	2165	9390	1890	126	122	1
-32768	20616	-22032	-13180	-577	13623	-6080	-10548	-21008	-10462	6604	-6429	-15612	5788	22848	-10096	1775	-4921	-8812	3132	16888	1524	13175	-2865	-21232	-280	-2112	-851	18057	3020	-23104	2280	3376	369	5862	1058	122	123	1
-32768	5208	-7516	4268	6696	18121	-10928	-3640	-21288	-2553	20705	-4182	-15324	3264	4272	-14180	6862	-9344	-8856	3612	17388	2705	21356	-2703	-22684	-1960	-3036	1480	20198	3819	-22808	292	5240	1757	3795	4	136	122	1
2892	-25152	9848	32767	12312	12835	-19432	-4168	-32	4963	24392	-8148	-14008	728	-2336	-8570	14819	-7476	-8980	3072	17500	3928	30738	-2416	-23304	-5176	-3200	4145	22119	4828	-23224	-2292	7488	5014	1157	-523	117	128	1
25944	-2732	31320	15331	28186	-15341	-32768	17360	13888	23525	16004	3675	-13472	-6088	3580	12885	10372	-8107	-8088	3312	17860	5946	32767	-803	-28708	-6916	-424	6747	24397	4804	-26548	-2376	11928	3087	-4409	-1318	128	131	1
-31052	31476	17752	8635	32767	-7426	-14692	2028	-16388	32767	16316	3570	-17260	-11076	15800	32767	-5084	-8438	-6948	10388	18436	8227	32767	-1828	-32768	-12724	5584	11889	24553	5906	-26732	-1712	19684	-1214	-16373	-4403	115	132	1
-20232	23044	30200	-1950	19146	16127	-27836	17728	-6640	23264	20958	-2376	-27032	21932	-7332	32767	8019	-4037	-13596	14780	18620	12072	32767	-12081	-32768	-1208	7372	21771	23884	6980	-22456	-9268	17204	-5845	-30840	-14312	117	136	1
-13160	-32768	7280	4583	20065	4595	-17204	-9584	-3196	8907	20795	-5318	-13576	15400	-11556	3103	4069	-758	-32768	13840	12300	6872	32767	-23712	-26168	18952	-9160	13243	25996	6716	-21128	648	1896	12747	-10601	-9024	113	128	1
-12168	11180	16244	8254	17311	6985	-10096	-4744	-9972	12949	13995	-7223	-7092	332	-5184	-13533	5075	-984	-32768	13468	15992	6443	32767	-24314	-27080	11724	-7192	5905	24861	6684	-28040	16148	-9516	16067	-16365	-4003	123	130	1
-22200	-11352	14244	9379	10852	7109	-21072	4640	-11900	-4095	14342	-6732	-13876	3196	-4096	-10698	10640	-7171	-27848	12276	28620	3840	32767	-23871	-22372	3660	-9324	1514	21124	3939	-30812	7264	-12956	4095	-16956	-241	115	123	1
-14024	8984	19048	5385	5150	5522	-20308	3288	-9212	-9867	13606	-6185	-25068	300	-5228	-10385	10811	-3872	-32768	11428	30156	21636	19099	-14949	-16724	8196	-14700	-1088	16271	-39	-27924	112	-5876	-6136	-23463	2125	97	133	1
-10900	-1244	14072	4258	2538	3024	-16828	-3280	-8064	-12570	11283	-5882	-17460	500	-4692	-5338	11420	-1630	-15708	27920	30840	11464	-19715	-5187	-14884	1232	-9032	5212	7628	257	-25036	2140	-4708	-5835	-24267	42	127	126	1
-8900	-888	14192	2186	2098	1314	-17036	-4380	-6644	573	9072	-4816	-16172	2404	-3300	-653	11544	-1324	1812	13820	15596	-417	-28825	239	-11004	2340	-5840	13355	81	555	-25032	4292	-5772	-1864	-20875	-2028	123	127	1
-9636	-156	13732	489	2406	355	-18296	-820	-7032	6666	7083	-4273	-17184	3936	-2668	-70	12517	-1157	6972	7908	8192	-3921	-26077	2557	-7132	7052	-5656	9089	-6587	-1144	-22568	5092	-6652	909	-17504	-1177	125	130	1
-10176	-1012	13204	-1018	2800	-211	-18360	2540	-6076	-1643	5924	-4503	-17724	1328	-3420	-3608	13973	-105	4128	6392	6788	-5441	-21333	2623	-5156	6776	-6252	-1348	-12706	-3869	-18980	3468	-8116	-447	-15469	277	119	128	1
-10268	-1948	12884	-1249	2476	-193	-17016	-3592	-5168	-9040	4910	-4157	-18308	-2288	-3440	-6247	15281	391	-2428	7600	10036	-4991	-22311	2492	-4600	6396	-7272	-8613	-17974	-5433	-15932	3140	-9620	-757	-14683	1750	122	126	1
-10228	-2408	12360	-105	1493	-99	-16420	-7416	-4532	-7363	4161	-2715	-17784	-6928	-3164	335	14835	-1466	-7012	8292	12960	-3157	-28892	4443	-5200	4588	-7816	-9784	-22758	-7048	-12024	3936	-9584	-3356	-15413	3008	133	127	1
-10008	-2000	12400	897	829	-106	-15824	-6232	-3948	-1646	3378	-1304	-15948	-3220	-1400	5108	13897	-2134	-9096	8848	13052	-497	-32768	8908	-6684	3648	-8372	-8628	-27421	-9068	-11684	3840	-8420	-3853	-13664	3267	129	122	1
-9580	-1240	12648	1367	354	-379	-16060	-1264	-3556	766	3651	-1111	-15620	3516	388	6438	13746	-2062	-10688	9844	12608	188	-32768	12579	-8028	2912	-8636	-7962	-31720	-11025	-11216	3448	-8508	-6277	-11104	2381	135	126	1
-9436	-1116	13036	1213	297	-668	-15960	444	-3388	-171	3344	-1417	-15100	5408	464	4274	14058	-692	-13376	9696	13220	-371	-32768	15537	-8952	2184	-9004	-7907	-32768	-11520	-9752	848	-9376	-7558	-8355	795	135	127	1
-9120	-1120	13024	887	486	-658	-16220	-480	-2748	-2991	3677	-2163	-14696	4492	956	-3987	14922	-627	-16832	9640	14476	117	-32768	18230	-10396	1636	-9160	-6328	-32768	-12054	-8536	-800	-10228	-9405	-6152	-335	132	129	1
-9484	-1404	12780	650	750	-301	-16196	-3812	-2704	-3933	4100	-2236	-15052	376	-32	-9976	16093	-1107	-17512	9676	14780	283	-32768	18690	-12860	3440	-9128	-4071	-32768	-12218	-5772	-816	-10420	-12139	-3819	-358	130	133	1
-9476	-1916	12516	669	699	387	-15536	-3928	-2784	-2313	4555	-1637	-14744	-1084	-88	-9284	15751	-2202	-21020	8364	15200	5563	-32768	20892	-16744	4436	-9652	-3893	-32768	-12789	-3804	-884	-9124	-13141	-837	978	129	128	1
-9368	-1416	12720	838	749	983	-16680	-1036	-3204	-3152	5098	-1501	-13952	1464	3384	-8078	16887	-3178	-27608	12204	19532	7368	-32768	20157	-19932	7060	-11184	-4248	-32768	-13034	-4708	-1176	-5416	-10202	1191	2720	124	126	1
-9452	-1184	12964	945	1059	1369	-16264	-900	-3024	-4904	5526	-1726	-13748	3528	2212	-5632	20320	-3964	-32768	16992	25940	3814	-32768	20528	-24272	10264	-13236	-9190	-32768	-12953	-8716	140	-1328	-9480	-3908	1699	122	124	1
-9336	-1164	13232	1117	1506	1747	-16280	-748	-2868	-5082	5550	-1840	-18792	1588	-2380	-7632	13626	-1252	-32768	15300	21544	387	-32768	25214	-23660	5628	-14932	-13631	-32768	-14821	-15808	3204	4716	-8672	-10441	1940	123	111	1
-9400	-324	13396	896	2524	1648	-15892	-1484	-2424	-4946	7596	-2325	-19696	-4092	340	-6023	6717	611	-32768	9628	11208	-154	-32768	28463	-19448	3172	-15948	-4497	-32768	-12543	-16188	4584	4888	-8744	-9442	2046	127	106	1
-9292	-452	13568	413	4049	1244	-17024	-1852	-2028	-2928	8759	-1899	-17464	-2548	3956	-4039	9467	172	-32768	-2096	-5528	3069	-32768	22957	-20648	1612	-13364	-248	-32768	-5296	-16404	-9564	21852	-15907	-7137	2519	127	119	1
-9400	-1012	14052	363	5938	1198	-16684	-1636	-540	-2232	11031	-1803	-16812	-120	6620	-1427	12750	-33	-32768	-32768	-29216	29712	-22233	10474	-1052	5924	-10940	15478	-16323	5026	-26192	-11956	32767	-8431	-5622	2492	129	119	1
-9240	-16	14876	404	8791	748	-17604	-1760	-848	433	13328	-1415	-18728	-1932	7484	669	11930	617	-32768	-17924	-23352	8480	-2695	-6961	-1784	19492	-13564	9467	5848	6333	-23304	-2968	24196	8985	-4091	-354	128	131	1
-9236	-532	16188	135	13450	83	-21072	-1560	-1312	3663	15916	-637	-21892	-552	7088	2344	9960	1050	-32768	-11608	-8152	-13603	5734	-18067	-7964	13632	-19216	-3753	18970	5971	-21464	200	16724	10463	-5386	-223	126	136	1
-9856	-1976	16844	-250	19776	643	-22580	1568	-1008	3204	18007	-1291	-22716	3692	9256	-806	7185	1329	-1988	9368	3152	-25579	18855	-16923	-18892	9772	-6252	-19450	24077	7859	-12676	6368	-1704	18459	-1299	8288	129	139	1
-9304	-1060	18000	-577	28104	943	-24664	3236	120	358	20760	-2350	-23756	2628	13116	-3113	1945	2550	1840	7224	27984	-6799	32767	-975	-32768	-18768	-4752	-26132	18603	-3625	-17728	4432	-7120	-8378	-2767	8118	128	138	1
-8200	-1908	19272	-554	32767	403	-29616	3456	2796	-376	23802	-2230	-25932	3204	20772	-4808	-5973	3324	-32768	-20868	25924	-9409	32767	-2999	-18748	-5176	-18364	-32263	22084	4237	-24336	5796	32767	-26469	-2195	13327	130	123	1
-4324	-1580	22868	-3213	32767	-234	-32768	13572	9016	-3481	25878	-3215	-27132	9156	31240	-1691	-19679	9377	-18208	-3008	20848	3792	16835	-11826	-13028	-10932	-10080	-7085	21156	10147	-21612	-20824	-31392	-20175	15958	-3726	133	132	1
-18624	-9892	24792	-1563	32767	4365	-32768	9812	8736	-19630	25982	-3838	-20648	20504	2468	-1845	-1844	11870	-7672	24036	10976	-6186	21263	-6192	-15296	13812	-8740	1182	14932	11346	-6184	-10380	-8840	6824	2751	-2646	131	127	1
-32768	-16432	25548	-2149	32767	13396	-32664	-16564	-8184	-21713	29026	-2368	-23764	2996	-860	-24068	-3748	6627	-20320	-3208	19828	-7542	4781	-10750	-16248	11100	-17228	-5727	12107	12457	-12196	6280	-9136	13087	8486	4402	122	122	1
-32680	-13432	31932	9678	32767	26468	-32000	-10892	-5032	-4865	26205	-3977	-32768	-4100	-12440	-11578	-8799	865	-13428	-1296	16300	-3679	965	-3648	-18164	-2888	-12704	2306	10636	8553	-16884	6792	-8636	12418	10655	5238	122	132	1
-16540	-5712	32767	-1419	32767	17959	-24552	-1288	-7468	10250	19910	-2184	-32768	5376	-6452	-3684	-19505	1195	-9228	5240	13772	-1008	640	-943	-15980	4512	-8124	15362	9021	8460	-20556	4592	-5156	8877	8541	5505	125	115	1
-32768	-10148	32767	-15821	7944	4026	-17976	-28	-11764	5009	12040	106	-32252	6492	-9468	-1527	-18645	1608	-9264	3728	14008	185	918	-501	-17016	7296	-8156	9553	7122	6827	-15324	7704	-4880	7808	9223	1923	128	117	1
-4288	-18452	27636	-12300	-19416	1110	-16728	2224	-3444	-5998	4257	-1469	-29748	8440	-10792	-1626	-20316	2562	-9712	3268	13840	1183	1553	-84	-16372	8796	-7964	-2376	5956	3703	-16660	5184	-1740	2249	11428	2504	129	140	1
4148	-10288	15684	770	-26427	369	-10616	-3232	-3304	-6701	-4857	-2392	-26548	4408	-11348	-2919	-18726	1786	-9488	4108	13672	1691	1767	-64	-17332	2180	-5928	-4878	4593	3358	-16428	2712	-1700	623	13213	2360	141	127	1
4220	-4584	10832	3149	-26739	-2598	-6712	-3076	-4152	-1254	-13017	-444	-19596	4360	-12164	-4448	-19151	709	-9696	4204	13260	1623	1556	-181	-16324	1148	-5140	2241	3394	3666	-16080	2956	-1816	1992	14197	847	140	132	1
612	-3012	9872	178	-27555	-6013	-5712	-1356	-4720	2878	-19479	2241	-18152	3276	-12732	-4920	-19317	-749	-10240	4180	13156	1026	1692	-297	-15848	3984	-4476	6026	2456	3618	-17064	4556	-2176	1346	15326	1626	129	136	1
-2924	-3548	11228	-2171	-30672	-7963	-5968	-1260	-5528	3833	-24825	3631	-13448	3500	-13896	-5903	-20774	-869	-9628	4288	13248	540	1463	-509	-15864	4620	-3236	5487	2119	3174	-16192	2812	820	1616	16827	2555	127	141	1
-7064	-3252	12944	-2665	-32768	-9331	-5520	-944	-6220	2902	-29592	4672	-10776	60	-12844	-4563	-20047	-1585	-9588	3996	13176	424	1440	-444	-15412	3764	-3192	3073	2255	3079	-14284	316	1004	3026	17115	2321	128	135	1
-9224	-2280	13864	-3358	-32768	-10902	-6612	-1572	-6376	2350	-32768	6027	-8180	-424	-12316	-2539	-20271	-2412	-9716	3656	13072	464	1366	-265	-14484	2940	-2908	1714	2479	2895	-13868	420	-208	4259	16107	1093	127	131	1
-10356	-1292	13888	-5174	-32768	-12117	-8732	-632	-6432	2422	-32768	7642	-7444	-880	-12724	197	-18475	-3422	-9548	3868	13028	321	1359	-408	-15300	3172	-2796	2556	2729	3076	-14140	628	-888	7591	15531	542	133	129	1
-12856	-2008	14756	-6977	-32768	-12053	-10924	-588	-6760	424	-32768	8884	-6556	452	-13100	2424	-17159	-3722	-9920	4292	12712	106	1180	-787	-15024	4548	-3000	3901	2973	3002	-13412	2260	616	9587	16199	906	134	131	1
-14368	-1984	16024	-10368	-32768	-10665	-15488	-1496	-7224	-387	-32768	9236	-4896	720	-14024	5891	-15788	-4404	-9756	4024	12664	-189	907	-1366	-15076	3656	-3636	4066	3062	2897	-13060	3168	2616	7033	16473	2330	131	133	1
-20220	-2172	18244	-15634	-32768	-9674	-18788	-1772	-9300	-1585	-32768	9285	-4260	1192	-12372	8488	-14568	-5852	-9800	3808	12952	-393	802	-1806	-15300	2372	-3096	5861	3471	3051	-15076	5496	-2364	10334	18912	1372	125	130	1
-29480	-5552	23932	-18412	-32768	-11886	-25544	-3036	-10960	-2765	-32768	9934	-3344	1496	-7472	8750	-13551	-5613	-9732	3580	13364	-303	1290	-1922	-15792	2192	-1880	6291	4383	3164	-19096	6544	-2940	10079	14535	382	127	126	1
-32768	-15256	27048	-12914	-32768	-14600	-32528	-7500	-11484	-363	-32768	9416	-8732	3724	4672	4038	-18088	-2249	-9624	3116	13516	-43	2229	-2012	-15128	3060	-1148	5289	5915	3225	-18892	6316	616	2262	8364	-424	128	125	1
-32768	-16080	19472	-5536	-32768	-19574	-29216	-8912	-17624	-2561	-32768	7556	-15040	2100	6760	5806	-13487	-2199	-9732	3656	13440	212	3590	-1837	-15676	4632	-768	3222	7922	2836	-16392	7376	3972	1086	9217	-226	130	123	1
-32768	-7648	8596	-2937	-32768	-25562	-20484	-8828	-19612	3389	-32768	3812	-15896	-2636	6980	11148	-8449	-2637	-9724	3808	13600	392	5190	-2032	-15968	3384	536	1891	10123	2739	-17356	6728	5488	1784	11053	271	119	122	1
-32768	2504	1640	-7210	-31288	-23993	-22148	-2728	-16164	-517	-32734	2409	-13708	6296	22148	9680	-11007	274	-9636	3948	13968	450	6972	-2487	-15324	3624	900	1559	12796	2978	-17256	6036	6884	1627	10860	555	125	123	1
-32768	12876	-19560	-5889	-22584	-12040	-11776	-6252	-19488	-8270	-19361	-3844	-15952	12308	32767	8177	-7581	-3893	-9744	3964	14796	661	10723	-2840	-18356	2744	-300	-833	15830	2993	-19684	3492	6380	1254	9631	1288	133	123	1
-32768	25896	-30592	-6797	-4670	3111	68	-8788	-22152	-5735	822	-8538	-13940	6932	30520	40	-1465	-6038	-9748	3256	15980	954	16201	-3299	-20488	-508	-2056	-632	18202	3543	-20932	-264	5236	2017	7552	1526	135	124	1
-32768	13868	-13004	-282	6406	9876	-6784	-7036	-24428	5662	14327	-5848	-15512	2136	6444	-3285	6294	-8270	-9628	3276	16588	1968	23717	-3169	-21984	-3444	-2652	2392	20393	4341	-22296	-1652	6080	4033	5062	-115	136	125	1
-3124	10016	-9284	30652	22567	10130	-16788	1904	-10480	16085	22459	-7759	-11660	2784	1116	-4855	14142	-8004	-8920	3228	17168	3173	32767	-2937	-24652	-5324	-1764	5650	22761	5405	-24824	-932	9004	5661	885	-996	134	129	1
12884	404	32767	11569	32767	-4735	-32768	21620	10224	30253	18713	5757	-22936	-3632	32767	20303	5216	-9051	-8076	4312	18112	4954	32767	-2140	-31712	-7808	1268	8728	24722	5561	-30036	-444	14456	2990	-7234	-1800	127	130	1
-32768	25488	31468	3234	31429	6044	-19976	9520	-11028	26881	21763	-1104	-14080	1672	12860	23593	11570	503	-8044	12144	19052	7083	32767	-5376	-32768	-12644	7004	14402	24373	6845	-30944	304	15228	1872	-9430	-1766	112	129	1
-13564	-13400	13776	-1285	19492	8407	-19160	2564	-8076	8775	24444	-6885	-17480	16512	-20544	16259	913	-5128	-24404	15376	18020	11076	32767	-19578	-30564	5912	5824	24691	24097	8627	-13688	-14432	-7036	13785	-15320	-12220	124	131	1
-10284	120	12560	4872	23248	2697	-13512	-9240	-9796	12993	17624	-7770	-7488	7028	-13304	-13707	3633	-542	-32768	11972	16428	6757	32767	-25995	-26552	15204	-8012	13663	25847	9462	-25496	6212	-1292	17363	-16496	-7586	119	132	1
-27160	-10096	16200	5942	12790	8799	-13948	-3472	-15288	4650	13100	-8924	-9236	-2324	-8016	-7522	9714	-2745	-32768	22208	26764	69	32767	-30555	-25880	8888	-10264	9946	23005	8071	-29592	12396	-13780	19851	-14769	-3510	139	127	1
-14352	10108	18980	6640	7429	4233	-24704	5980	-11360	-8035	13003	-8430	-32608	-2716	-9496	-4233	11875	-5450	-22152	6508	28728	9327	26072	-21478	-19300	7040	-13300	2580	20035	3772	-31916	4788	-11224	5573	-17494	1856	112	126	1
-11148	-3680	14312	3290	3280	1308	-17416	-2584	-7316	-14499	12067	-5358	-18840	1516	-6320	-2929	10372	-2488	-32768	23664	32767	19854	-8779	-11646	-14716	6792	-16928	1810	13825	1784	-26228	2952	-7568	-4540	-24064	3018	112	117	1
-9768	-1176	13716	2298	2466	390	-16008	-4660	-7308	-8508	8686	-5281	-14532	2188	-2616	-904	11505	-1337	-3040	17756	19300	12412	-31314	-3749	-13188	-2352	-7708	11733	4859	1426	-27256	3344	-6608	-2737	-22782	-47	120	113	1
-9096	-772	14092	1018	2787	-680	-18872	-3356	-5748	1071	7273	-4011	-17864	2944	-1528	391	12240	-1617	6460	11488	8400	4303	-29992	505	-9076	5184	-6412	14284	-2334	905	-24700	4192	-7052	156	-20159	-1018	121	143	1
-9208	-1024	14044	826	2897	-798	-18992	-648	-5448	2468	5761	-3909	-17968	3324	-1680	-1088	13661	-1368	6760	8124	5160	-3401	-23303	1525	-5384	6592	-6004	4658	-8690	-1078	-22048	2392	-7900	-329	-18005	52	114	128	1
-10184	-2220	13000	-364	2612	-1270	-18692	-16	-5484	1740	5640	-3929	-17556	1552	-2248	-3205	14640	-939	1396	6960	7648	-5777	-21042	2345	-4256	6600	-6772	-6236	-13758	-2873	-17792	4296	-9016	-1188	-17134	881	118	123	1
-10460	-2324	12632	-219	2409	-1354	-16476	-2972	-4492	-8427	3949	-3553	-17456	-2844	-1828	-4506	15517	-1086	-3920	7648	11172	-4146	-26194	3993	-4048	4864	-7148	-9790	-18870	-4453	-14236	3296	-9864	-4007	-17123	2475	131	124	1
-10044	-2684	12364	440	1918	-1305	-16332	-5180	-3520	-7526	3629	-2977	-15840	-2560	-828	-1802	14886	-2069	-5092	6824	11764	324	-32768	7633	-5424	3408	-7420	-8720	-24061	-6272	-12600	3920	-8556	-5383	-17249	2764	136	122	1
-9920	-2400	12544	623	1638	-1263	-15776	-3760	-3056	-3918	3812	-2709	-15836	-844	-48	2717	14427	-2951	-5100	8208	10668	2970	-32768	11271	-6804	3712	-7124	-7769	-28868	-8233	-11300	3696	-8124	-6490	-14711	2817	133	125	1
-9700	-1752	12364	566	1453	-1329	-15468	-1812	-2912	-1707	3979	-2313	-15076	2256	552	1093	13537	-2032	-7640	9492	11452	1513	-32768	13977	-7752	3980	-8088	-8978	-32768	-9895	-10224	2584	-8668	-7828	-11484	2040	138	129	1
-9592	-2128	12372	422	1289	-1017	-15664	-1388	-3136	-3308	4137	-2362	-15032	1776	312	-2266	13206	-1410	-11632	9104	13596	774	-32768	17041	-8344	2540	-8996	-9528	-32768	-10977	-9196	1224	-9576	-9245	-8635	935	130	134	1
-9496	-2632	12224	379	1183	-323	-15796	-2660	-2472	-4935	4353	-2518	-14744	-204	128	-7157	14168	-1418	-14884	8404	15432	2714	-32768	19716	-10048	2288	-9488	-7341	-32768	-11926	-7900	172	-10556	-10459	-5542	356	130	143	1
-9576	-2008	12192	444	1079	313	-15432	-3944	-2936	-4276	4757	-2277	-15056	-1416	-1072	-9653	14674	-1476	-18668	9312	17792	5395	-32768	21472	-12600	4284	-10320	-5744	-32768	-12567	-5816	-1564	-9812	-12908	-2162	490	129	134	1
-9868	-2136	12236	434	1060	655	-15600	-3548	-3864	-1645	5094	-1462	-14952	-632	1528	-7951	16454	-1782	-23468	9860	20016	7020	-32768	22318	-16708	5628	-9648	-5034	-32768	-12864	-2500	-1096	-9152	-14239	920	2236	125	127	1
-9748	-2108	12580	413	1104	942	-16888	-404	-4024	-3014	5472	-1466	-13484	3036	2164	-3472	20340	-2973	-25844	10096	21388	9858	-32768	22197	-21488	6344	-11036	-4443	-32768	-13060	-3344	-124	-7484	-11828	1800	3423	123	126	1
-9740	-1440	12712	190	1437	1030	-16120	820	-3440	-6191	5741	-2007	-15856	3916	-1964	-6014	18860	-1793	-32768	16644	25928	8300	-32768	21511	-26104	11604	-13472	-7280	-32768	-13761	-9404	812	-1948	-8899	-2205	3568	123	125	1
-9484	-932	13036	-202	2141	701	-15216	-700	-2660	-7136	6664	-2227	-18344	1252	-1356	-7790	8751	1244	-32768	15032	21016	769	-32768	22932	-24688	5804	-14796	-9674	-32768	-13068	-15968	2984	6760	-6739	-8929	4278	128	121	1
-9556	-1736	13208	-605	3475	392	-15380	-1192	-2548	-6861	6826	-2212	-17968	-3288	2808	-5907	7598	873	-32768	4888	9956	4130	-32768	23436	-19968	3780	-16784	-1094	-32768	-9589	-16404	576	10816	-9575	-6674	4543	127	116	1
-9724	-2612	12760	-623	4606	1045	-16264	-2628	-988	-2060	9418	-1544	-16596	-2604	4628	-3747	11356	-1273	-32768	-11632	-8924	20100	-32768	15325	-17920	228	-14180	10563	-32768	178	-17412	-12544	31372	-6197	-5292	4385	125	118	1
-9696	-1908	13528	-843	6427	1306	-16268	-1172	-188	-1706	11605	-1504	-16892	-664	6908	-1769	11537	-1069	-32768	-32212	-28884	32767	-21117	7996	1412	11112	-11056	22232	-11857	8972	-26564	-10608	32767	-341	-4711	1153	127	122	1
-9556	-568	15072	-1410	10100	591	-19016	-1520	-1252	964	14231	-971	-19524	-952	7400	-697	10279	637	-32768	-13416	-23200	1501	1076	-4220	-2808	20320	-15216	8920	9816	7441	-21924	4068	19188	9963	-5515	1966	126	133	1
-9936	-1512	15912	-2025	15412	-187	-21436	916	-1292	2845	16569	-720	-20656	1588	8036	-323	8940	1383	-32768	-6384	-9080	-27546	16058	-17141	-11740	14324	-17680	-9295	20794	7284	-15176	9556	-440	17688	-3129	6771	127	135	1
-9592	-1804	16676	-3002	22974	-735	-22940	5196	-808	376	19045	-1656	-22832	6324	11548	-3475	5824	2647	12024	-9656	32767	-25643	26434	-4214	-31068	-20176	12020	-32768	21937	3980	-14000	7944	-3960	12396	-328	8096	128	140	1
-8612	-220	19692	-4277	32767	-2682	-28832	6072	1464	-3258	21833	-2167	-26600	6632	16816	-5200	-2068	4338	-29812	-17660	12112	-12981	32767	-9964	-32768	208	-18244	-32768	21406	-557	-29868	9224	11752	-32768	-9021	10927	132	138	1
-4744	1160	21232	-6960	32767	-6598	-32768	12180	7068	-5151	24418	-1747	-28880	9144	30000	-7783	-15603	7809	-29868	-20760	32767	-1390	17389	-14412	-19296	-24980	-12416	-17068	24511	8929	-11948	-28016	-724	-8831	21560	-981	131	104	1
-9700	-6236	24412	-9036	32767	-5649	-32768	12948	11648	-16931	25954	-2432	-20804	12680	25612	4142	-4380	11238	-5980	27800	6648	-308	18633	-6098	-11248	9400	-6660	5310	20818	10041	-17296	-19572	-26428	1887	705	-5987	126	121	1
-32768	-13480	19860	-14796	32767	2430	-31460	-14224	-6656	-14608	29174	1040	-18372	2580	1308	-22500	-2936	9488	-18704	-1412	15092	-10963	10498	-13844	-13284	19828	-15020	-1474	15063	13486	7680	7036	-10976	29396	1989	-263	128	116	1
-32768	-23048	22932	-1600	32767	19847	-32768	-9960	-7568	-17	28647	-2472	-32768	-5440	-11272	-9025	-4660	2473	-16316	868	18560	-7758	2042	-8502	-18556	-148	-17784	-2756	13072	8798	-22252	16540	-7812	14248	12787	5969	122	122	1
-26132	-13196	32767	-642	32767	23548	-27300	-2208	-6072	6697	23305	-4038	-31836	5564	-10920	-3598	-16567	2415	-15748	-604	18600	-6824	1442	-7163	-16428	1092	-9684	11415	11715	6307	-28372	10240	-11560	2504	8309	7499	123	105	1
-26772	-208	32767	-16330	26158	12515	-21484	-660	-10048	6937	15630	-1204	-31504	6424	-5444	-5039	-18308	2541	-9912	2504	14712	-882	19	-1221	-16484	8768	-10700	8434	9326	6343	-15992	2772	-5204	4285	10594	2767	127	97	1
-15820	-20476	32767	-20257	-13924	7205	-20100	-504	-12316	4731	14519	-818	-29244	6440	-7952	-3035	-18926	3597	-8796	3204	13708	19	529	-492	-16548	6804	-8792	-1119	7333	4281	-15860	3352	-3024	2093	11424	2272	130	123	1
2120	-14408	20372	-7742	-27320	10346	-16712	-1936	-2796	-8676	6439	-1276	-28916	5048	-11156	-1969	-18508	2043	-9088	3220	13900	1123	1346	-110	-17496	4144	-8136	-8435	5603	2183	-18220	2756	-2812	-2236	14209	1519	138	126	1
2808	-8708	13056	105	-30748	11547	-8236	-6740	-3140	-5931	-10037	-2298	-21660	5652	-11832	-6125	-18339	943	-9640	3316	13468	1492	1521	-18	-17080	-8	-6460	-1034	3850	3324	-16732	1776	-2648	-2006	15295	951	127	140	1
296	-5152	10592	-1241	-32768	8155	-6428	-3324	-4452	-314	-17212	-62	-17868	2704	-11724	-8888	-18227	-1257	-9736	4248	13388	1289	1438	19	-15872	3876	-5276	6433	2686	3343	-16964	3916	-2804	1311	15957	994	132	129	1
-740	-5552	10204	-6522	-32768	2934	-6640	-768	-4812	1156	-23046	1738	-17000	1472	-13672	-7998	-19471	-2269	-9880	4184	13264	842	1333	-165	-15588	6316	-4384	5929	1952	2674	-16316	4328	-1344	1176	16568	1732	125	130	1
-4404	-7768	10812	-8657	-32768	-2250	-7656	-720	-6024	-617	-28458	3016	-14772	1312	-13420	-7496	-20111	-2603	-9532	3776	13276	660	1208	-228	-16000	3736	-3508	3102	1831	2199	-15140	1400	1052	598	15885	2935	134	132	1
-8764	-8232	12224	-6498	-32768	-7894	-7412	-1920	-6412	-1062	-32768	3480	-9120	-584	-10616	-3434	-18843	-2677	-9528	3704	13300	674	1281	-188	-15304	2712	-3172	1806	2037	2238	-14416	-364	764	282	16846	1695	135	129	1
-9836	-6436	13108	-4160	-32768	-13034	-8576	-1480	-6616	924	-32768	4319	-8340	-524	-12908	-753	-19359	-4181	-9576	3568	13176	582	1545	-158	-14756	2828	-3048	2141	2183	2387	-14088	-996	660	5836	15882	804	132	136	1
-12136	-4316	14444	-4568	-32768	-16738	-10556	-1160	-7044	1194	-32768	5436	-5868	-124	-12572	2329	-18475	-4639	-9724	4020	12908	286	1496	-581	-14828	3936	-2652	4158	2424	2609	-14216	1152	-1152	11829	15224	185	133	134	1
-15168	-3808	16664	-6949	-32768	-17864	-12804	-2276	-7960	1727	-32768	6222	-4228	204	-13556	5090	-16681	-4790	-9780	4184	12736	-211	929	-1203	-14500	4408	-2908	5637	2680	2631	-12136	3280	1396	12937	16648	1013	131	135	1
-18412	-3364	18420	-10986	-32768	-17586	-17432	-2444	-7880	3039	-32768	6563	-2992	300	-14172	7111	-14626	-6132	-9844	3764	12908	-425	636	-1694	-15372	4084	-3676	5004	2934	2525	-12116	3776	1844	8727	18244	2466	126	137	1
-24000	-4136	21600	-14240	-32768	-16952	-22480	-2120	-10620	2570	-32768	7855	-2440	592	-11296	8880	-12764	-6378	-9776	3372	13172	-494	715	-1955	-15412	1716	-2412	5129	3505	2619	-16384	4872	-1804	11139	20162	1088	124	126	1
-32768	-8776	28344	-11894	-32768	-19461	-29968	-3404	-13192	3449	-32768	9494	-5304	2044	-1444	9575	-14696	-4169	-9552	3464	13464	-375	1398	-2048	-15380	2152	-560	6828	4778	2907	-20524	6116	-2904	8116	12728	-600	125	124	1
-32768	-13708	27508	-4574	-32768	-21517	-32324	-4032	-14952	359	-32768	9314	-13068	1228	6076	11165	-16484	-1755	-9480	3548	13672	-225	2383	-2306	-15248	4476	-20	5193	6919	3102	-19608	8300	2068	75	6568	-558	134	126	1
-32768	-7180	14928	-904	-32768	-24359	-23116	-8876	-19824	-1317	-32768	6713	-17552	-888	5584	11681	-9511	-4526	-9780	3512	13680	-81	3998	-2208	-15992	3896	144	2186	9289	2471	-17160	8820	6488	-239	9815	409	121	125	1
-32768	-3440	2584	-3215	-32768	-20596	-22860	-6904	-18176	1415	-32768	3740	-17840	-1368	6696	12380	-8974	-4321	-9504	3640	14028	127	5933	-2504	-15920	2528	1016	1928	11777	2709	-16320	5600	7288	1495	11782	815	130	121	1
-32768	11884	-21824	-7720	-27707	-10215	-12868	-1636	-19648	-518	-23662	-2969	-15200	15428	32767	13601	-12334	2082	-9580	3412	14700	273	8985	-2843	-17348	2640	-356	551	14807	3065	-19244	3200	7304	2112	11248	931	114	122	1
-32768	24520	-32768	-10831	-5517	1084	340	-8556	-21568	-9612	532	-8950	-14088	12332	32767	10556	-2860	-1570	-9544	2496	16124	762	13990	-2541	-19612	1260	-1520	-1480	17752	3040	-20380	488	5864	1276	9596	1479	119	121	1
-32768	12216	-13256	4735	7339	8812	-8308	-11020	-23936	2329	16339	-5289	-15556	3548	9320	1559	8076	-10977	-9364	3556	16852	1340	21212	-2670	-22436	-1564	-1500	-67	20310	3700	-23040	156	5844	1240	6775	483	129	123	1
-32768	-9704	-6600	32767	17112	12520	-16244	-5172	-18496	15541	24756	-6439	-14220	7448	728	-9334	15738	-11168	-9260	4032	17384	1742	30966	-3403	-23624	-3960	-680	3639	22765	4988	-24148	1196	8436	3201	2506	-877	137	123	1
7960	1520	32767	12583	30026	-15105	-32768	31520	12696	32767	20528	786	-2820	-4328	-6372	12313	11820	-12138	-8412	4196	18644	2896	32767	-3567	-28864	-4956	484	6523	25406	5442	-26496	2336	12944	2894	-5081	-1779	118	130	1
-25980	31788	17800	5586	32767	-4146	-21384	4220	-17000	30676	19397	-148	-28960	-10796	12560	14754	1060	-6375	-8784	10928	18508	3650	32767	-5270	-32768	-13752	5288	10586	25761	6322	-29168	-648	20280	-116	-17525	-2982	103	131	1
-23744	6008	25100	-2272	22285	16228	-22188	10720	-10920	13510	21163	-6056	-23648	22672	-10024	25955	5315	-2156	-18924	17664	19520	7956	32767	-18051	-32768	-568	8700	24402	24480	8580	-20752	-14364	11080	-2328	-26537	-12914	107	134	1
-15704	-18076	11568	5640	24542	1608	-24092	7820	-12412	11992	21134	-6163	-11936	11216	-10956	-5801	5420	-2230	-32768	9612	18220	1451	32767	-30159	-25864	19308	-8448	15068	26565	9109	-25812	1576	368	14958	-14775	-8010	124	135	1
-23368	468	17712	5529	14966	10274	-12024	-6804	-13352	3835	14788	-8315	-10956	-3260	-7848	-12677	8058	-406	-32768	19160	26712	-1277	32767	-30824	-29116	8736	-8004	8211	24445	7996	-29152	14000	-15408	22779	-16063	-3818	128	126	1
-15340	6552	17620	9062	9147	5255	-21292	1164	-11128	-3489	12420	-8565	-23508	-4600	-9708	-6481	12071	-4882	-25504	11164	28848	6039	32767	-23675	-22632	3412	-11340	2800	19849	4744	-32768	3480	-12100	8009	-19402	551	128	125	1
-11436	-4616	14008	4763	4130	2504	-19084	276	-7960	-12342	12141	-4798	-24944	-4608	-8884	-5791	11981	-5051	-32768	20152	32767	23400	8658	-11586	-15388	8404	-17628	142	13759	1737	-27504	-116	-6416	-4886	-26597	2898	119	110	1
-11368	-128	14376	3025	2331	1259	-17352	-5168	-7752	-7493	8827	-4352	-17072	-288	-4352	492	11748	-2217	-7688	26624	25724	12717	-23151	-2682	-14824	-2056	-7776	9783	3772	2504	-28004	2092	-5572	-2205	-26083	-435	119	123	1
-10344	-1036	13708	1476	2147	80	-17956	-3128	-7036	1930	6252	-2904	-17568	3364	-3048	2592	12986	-1912	3704	14872	12860	2141	-27629	3951	-9564	3980	-6888	14968	-3878	2947	-26420	3256	-7172	3361	-21833	-1613	120	142	1
-9464	-1524	13620	40	2305	-866	-19240	1544	-5480	2881	5621	-2905	-18400	3708	-3252	1121	14073	-1601	6532	8904	7604	-2501	-23291	8250	-5248	6372	-6796	6530	-10847	961	-22104	3608	-7908	4313	-19008	281	119	127	1
-9804	-1628	12984	-501	2435	-1247	-17284	-360	-5160	-2005	4094	-2976	-16732	1236	-2780	-225	14961	-803	1944	6800	8500	-4039	-20509	10210	-4688	4984	-6992	-3266	-16678	-1614	-17652	2968	-9600	2355	-16775	1279	119	126	1
-9888	-2216	12648	-173	2200	-1195	-16288	-1960	-3992	-5235	3465	-2873	-15400	-1508	-2344	-1117	15272	-369	-4096	6452	12052	-4248	-24144	10597	-4392	4128	-7428	-7913	-22014	-2784	-14448	1452	-10560	963	-16246	2265	126	123	1
-9712	-2368	12472	286	1772	-848	-16300	-4208	-2768	-4881	2996	-2280	-16368	-2460	-1044	2458	15073	-2353	-7528	3732	14248	-1857	-31156	11885	-5236	2188	-7676	-7834	-26712	-4242	-11924	3796	-10092	-452	-16296	2951	135	123	1
-9548	-1784	12424	371	1407	-521	-15848	-2724	-2272	-1813	3546	-2215	-15584	420	36	4371	14260	-2421	-9644	3160	14404	2814	-32768	13849	-6168	2292	-7972	-6491	-30993	-6250	-9760	3616	-9628	-3261	-14109	2916	138	124	1
-9500	-1380	12512	427	1254	-396	-15108	-1896	-2436	175	3795	-1778	-14672	2156	120	1955	13659	-2004	-11068	4304	14108	4943	-32768	15133	-7340	2232	-8212	-6634	-32768	-8347	-8196	3552	-9812	-5301	-11496	1793	135	136	1
-9560	-2192	12288	301	1280	-190	-15692	-1904	-1900	310	3891	-1618	-14964	2308	352	-3206	13513	-2336	-14272	5932	15096	4379	-32768	15909	-8260	1788	-9072	-7580	-32768	-9705	-6928	1756	-10972	-8451	-8524	404	137	137	1
-9800	-1968	12304	490	878	373	-16032	-1608	-2276	-1965	4268	-1812	-13752	1472	1020	-8256	12869	-2322	-18124	6224	16336	3844	-32768	16954	-9772	1880	-9684	-6786	-32768	-10551	-6124	-228	-10956	-10988	-5419	-401	131	135	1
-9604	-1828	12312	714	460	815	-15604	-1652	-2428	-3620	4699	-1893	-13952	760	5060	-6656	14869	-2569	-18808	5384	16076	7055	-32768	18364	-13568	2420	-10104	-6287	-32768	-12050	-2708	-484	-11464	-14823	-2356	341	126	136	1
-9680	-1792	12652	926	370	1191	-16172	-1888	-2140	-3330	5319	-1704	-14604	2800	2988	-4846	19024	-3796	-23276	7476	17872	10996	-32768	19240	-17252	4164	-11180	-4393	-32768	-13436	-2544	-60	-10500	-17605	1638	2338	126	128	1
-9504	-1584	12836	1149	433	1632	-16064	-76	-2108	-3398	6032	-1714	-18708	3368	-1224	-7144	16851	-1909	-30552	11840	24128	9106	-32768	19534	-24980	6936	-13072	-4359	-32768	-13629	-4012	280	-6340	-14323	-144	2745	124	127	1
-9528	-672	13068	1003	889	1518	-15644	1320	-2188	-5037	7116	-2445	-18480	1596	-388	-5570	9822	-723	-32768	18224	28100	4326	-32768	23294	-26884	11924	-14524	-10994	-32768	-15462	-11788	756	1924	-9608	-8047	2446	126	123	1
-9364	-656	13124	676	1602	1038	-15612	-1680	-2428	-5127	8210	-2601	-15856	-1280	2524	-4637	8650	222	-32768	13752	14288	-2027	-32768	29320	-22832	7160	-15716	-10958	-32768	-14903	-18948	4060	7180	-7864	-10919	3319	128	106	1
-9356	-1608	13308	238	2897	802	-16864	-3340	-1644	-2357	9487	-1870	-16404	-2420	3352	-3456	13719	-346	-32768	9004	-1868	-1631	-32768	28674	-21188	6172	-16680	-8213	-32768	-9370	-18668	-3492	15488	-12352	-6037	2955	127	114	1
-9292	-1208	13764	275	4598	1103	-16900	-1016	-480	-1714	11226	-1849	-18328	-1096	5116	-1804	12913	-399	-32768	-25556	-24116	21462	-26811	20043	-10144	-2172	-12428	6840	-25058	2590	-22640	-19100	32767	-11065	-3745	4731	125	118	1
-9296	-1036	13840	172	4925	1076	-17936	-1208	-1128	1062	13673	-1252	-18920	-1084	6264	788	11162	320	-32768	-24072	-27316	28242	-8361	10364	1880	16944	-9600	17604	-1057	7923	-26244	-6420	30756	3978	-2216	-1390	127	135	1
-9184	-724	16192	-845	12671	-391	-20708	-1556	-1864	5043	15746	-415	-21520	-96	5052	2277	9617	452	-32768	-15232	-14004	-13098	7355	-9267	-7788	19196	-16400	1196	15168	7507	-17136	9236	9644	14347	-10543	2425	125	113	1
-9700	-2484	16028	-1350	18497	184	-21608	1020	-832	3846	17735	-865	-21328	1888	7336	-268	6193	1455	-32768	-6804	-740	-8960	8307	-14847	-10736	9772	-21604	-15557	23276	6498	-13144	10536	-3700	18988	1346	8649	127	122	1
-9668	-2140	16420	-1807	25606	884	-22260	3416	-236	280	20186	-2152	-22460	4476	10636	-2827	2489	2592	12928	25380	28992	-25600	16522	-6117	-27032	-16408	9068	-24901	20135	7754	-2728	3004	-6976	6889	4108	8727	129	137	1
-8156	-644	19192	-2638	32767	479	-27552	5652	1332	-1993	22789	-2749	-24132	6744	17500	-5688	-4434	3429	6692	-11984	13616	-5089	32767	-3796	-32768	-10156	-9828	-17941	14625	-1230	-13724	8452	-12116	-22444	-270	7419	127	129	1
-4452	1360	21304	-5416	32767	-3142	-32768	14376	5416	-4094	24934	-2426	-26528	13348	30544	-5009	-18538	7630	-32768	-28716	32767	-2652	28102	-12095	-19032	-11612	-9076	-27238	20215	3790	-32768	-13356	32767	-29673	8666	2871	130	99	1
-15044	-6848	21744	-7435	32767	-1839	-32768	16728	6036	-25194	25670	-3928	-16740	24188	10172	-165	1149	13419	-15020	31940	9076	1950	19906	-7962	-19016	-1176	-7476	-3859	19844	9053	-22724	-24128	-19112	-16606	11162	-2962	128	127	1
-32768	-9312	22788	-8211	32767	8874	-32076	-21296	-2880	-23228	30059	-1727	-22688	1984	2728	-32758	-1127	8686	-26308	-2532	19320	-10859	18008	-10721	-13596	13832	-12520	-2674	14563	12759	3856	-1696	-8024	24093	-1519	-1137	131	146	1
-32768	-18180	26112	6303	32767	25527	-32768	-10960	-5492	-759	28219	-4103	-32768	-9824	-12188	-14758	-3392	1047	-16324	10288	14704	-9681	8005	-8945	-14560	5248	-14400	-1875	11783	10891	-16064	7212	-9376	15568	11026	5119	124	118	1
-25172	-8372	32767	-4	32767	22329	-26972	-2092	-5928	9858	23408	-3573	-32768	3740	-8888	-2031	-16909	267	-14048	2660	15364	-3753	1614	-3135	-18896	-380	-11064	10425	10900	7865	-24400	16128	-11916	13807	8168	7155	131	108	1
-31548	-1032	32767	-18125	17780	10872	-20900	-1000	-12724	5952	15334	-811	-32684	6400	-7296	-1844	-19066	1075	-11796	6764	13664	-3292	1598	-2314	-16128	12264	-9108	13268	8797	6381	-21728	10816	-6496	5727	10045	5250	125	94	1
-7560	-21216	29388	-20172	-16695	8137	-17424	-972	-4420	-8241	6736	-1761	-31708	7020	-10004	-2123	-19222	3652	-8984	3272	14660	-728	1001	-1341	-17052	9308	-8380	-1023	7019	3744	-16292	4864	-2964	-365	10639	3921	122	154	1
2436	-15088	16444	-3451	-26580	8437	-12796	-4604	-3220	-10618	-2270	-3282	-28852	3628	-11488	-3602	-18294	1231	-10028	2260	13948	542	1421	-386	-17144	2540	-8912	-9632	5394	2089	-17960	592	-2924	-2789	13981	3617	118	129	1
3764	-7340	10604	2481	-27813	5185	-7112	-5416	-3928	-3936	-10881	-1457	-22648	1688	-12176	-3236	-18744	50	-9548	3436	13808	1423	1824	-32	-17672	-2544	-6808	-1306	3503	3307	-16072	-1276	-2028	165	14775	653	139	125	1
2028	-5932	8808	-855	-27642	23	-7036	-4840	-3788	-2714	-12399	-879	-17428	4036	-11932	-3752	-19203	-2298	-9792	3948	13252	1689	1910	119	-15904	2400	-5616	5156	2127	3722	-16848	2204	-2464	1761	15286	-10	136	124	1
-1500	-7280	9696	-3569	-29259	-4341	-6396	-2208	-5088	4265	-23447	2872	-14720	3764	-12608	-5826	-19647	-2870	-9840	4512	13008	1415	1861	218	-15976	5076	-3564	6116	1445	3362	-16184	4140	-1272	593	15144	796	135	130	1
-4988	-7896	11032	-3292	-32768	-8357	-6532	-1996	-5664	3382	-28589	3607	-12244	872	-12968	-5207	-20012	-3275	-9824	4436	12880	1003	1905	165	-15908	4744	-2404	4002	1389	2863	-14064	5848	-1520	-1937	15594	552	129	136	1
-8436	-7072	12412	-1840	-32768	-12305	-6520	-2628	-6164	3683	-32768	4284	-7996	-560	-11760	-3232	-20188	-3670	-9696	4088	13024	644	1850	62	-14788	3252	-2532	2549	1689	2889	-13692	-120	1240	430	16038	2076	132	137	1
-10988	-4828	13728	-2164	-32768	-15648	-7224	-2212	-6576	4662	-32768	5465	-6576	-888	-11824	-1197	-18509	-4761	-9940	4096	12680	382	1654	-119	-14548	2584	-2520	3107	2040	2879	-14568	-516	256	5343	15102	1938	139	138	1
-13296	-2800	14364	-5479	-32768	-17509	-9220	-1464	-6408	3615	-32768	6667	-3392	-408	-12804	2134	-17932	-4885	-9956	4368	12476	166	1159	-314	-14428	3780	-2188	5263	2431	3271	-13216	428	236	12075	14190	1518	126	133	1
-12736	-2480	13792	-9757	-32768	-16704	-13104	-2500	-6504	2132	-32768	7281	-4576	-496	-14148	6454	-15603	-6218	-9832	4556	12412	-230	541	-903	-14656	4880	-2836	6090	2770	3118	-11608	2736	5348	10263	15295	2575	128	131	1
-18016	-2228	15112	-14537	-32768	-14253	-16020	-2332	-8884	2620	-32768	7181	-3384	460	-14460	9842	-14067	-7104	-9832	4328	12380	-641	-54	-1617	-14888	3384	-2824	5223	2915	3060	-12804	4060	-632	10247	19215	2670	128	132	1
-25860	-2996	20620	-17273	-32768	-14546	-20896	-1460	-10704	289	-32768	8565	-2864	1180	-14036	10375	-13819	-7326	-9812	3516	13128	-787	-23	-2020	-15764	1512	-2280	5797	3544	3251	-17936	6936	-3408	13646	18183	1271	128	127	1
-32332	-12380	26732	-15284	-32768	-16522	-31036	-5548	-13148	-385	-32768	8434	-5904	3500	1968	7866	-18211	-3425	-9648	3808	13172	-612	442	-2019	-15252	1868	-184	6066	4944	3715	-20652	5560	-576	6268	10346	46	124	126	1
-32768	-13512	22404	-7973	-32768	-19809	-29752	-6492	-16916	-4658	-32768	7010	-12396	2088	2720	5065	-13810	-3203	-9584	3992	13144	-391	1110	-2043	-14580	5040	620	4281	7167	3856	-17768	7440	4332	-134	7236	115	124	124	1
-32768	-9076	12608	-3882	-32768	-24690	-21788	-8672	-20372	-1411	-32768	2983	-17040	-228	4252	9412	-7000	-4251	-9360	4396	13264	-314	2127	-2515	-15600	4484	1536	1792	9417	3675	-15840	7824	7196	1421	10123	1309	114	123	1
-32768	2204	7372	-5842	-32768	-24433	-23688	-2440	-16348	1078	-32768	2851	-16240	4208	15936	9282	-11147	-401	-9484	4100	13760	-88	4018	-2825	-15580	3396	1560	1452	12146	3635	-16840	6468	7336	2048	11034	1772	129	123	1
-32768	10532	-10432	-3713	-27815	-13577	-17476	-3636	-18596	-3078	-25684	-1150	-14836	11828	32767	10201	-7422	-2504	-9380	3648	15056	409	7485	-3081	-17888	2788	-152	-770	15146	3728	-19356	3504	5868	2135	9491	1873	125	120	1
-32768	29588	-32272	-7953	-11552	1908	164	-4472	-20640	-8250	-5370	-7771	-13612	8476	32767	6409	-3824	-2307	-9296	2884	16016	1105	12608	-2997	-19452	664	-2048	-1140	17732	4179	-20500	1616	4632	981	7437	1991	126	120	1
-32768	19412	-17672	-3199	5298	11537	-7244	-7672	-23636	6	12470	-5645	-14232	6836	32767	5785	-3044	-3042	-9732	2844	16908	2169	19770	-2357	-21372	-1176	-2976	-72	20097	4657	-21288	672	5104	1503	5371	1103	119	120	1
-32768	-9852	-5636	32767	15131	12766	-15880	-2884	-15008	7870	23108	-5808	-11716	7620	2424	-6353	14182	-9947	-9248	3756	17192	3919	29084	-2028	-23392	-4044	-2228	3532	22184	5702	-21700	496	5224	2121	4647	854	129	123	1
20844	-6308	32767	15924	28888	-8243	-32768	26900	21332	25188	18290	2616	-18604	3576	-328	-1614	9967	-8483	-7668	3740	18332	5676	32767	-1470	-28232	-5732	-916	6936	24479	6462	-27332	632	11976	3522	-4111	-1075	122	129	1
-32768	25640	17744	10026	32767	-4573	-21492	-3852	-16820	32767	19670	-191	-17848	-720	19120	31118	-87	-10727	-7824	8004	19080	8343	32767	-1158	-32768	-14360	3552	11741	24907	6981	-28888	-2264	20244	-312	-17135	-3295	121	129	1
-20360	24316	30172	-254	19086	14117	-22420	19412	-9036	20675	22837	-4589	-25724	20388	-13320	31352	7835	-3366	-13508	13536	21244	13999	32767	-8488	-32768	-8080	7988	25238	23488	8596	-21368	-16284	12156	-4688	-27930	-14321	130	129	1
-6824	-27804	5220	1507	22390	4790	-15396	-3748	-6940	6771	23505	-5157	-8408	15004	-16528	-2896	2735	-2085	-32768	10988	13340	9831	32767	-21487	-25988	19184	-8264	20577	25170	8106	-23600	-2308	3652	14579	-13209	-10194	136	135	1
-18860	4952	16492	7113	19000	8141	-8868	-10404	-11764	6392	13827	-8388	-7844	-3808	-7556	-14743	7188	1625	-32768	21320	22628	7619	32767	-25501	-27548	12600	-9532	10237	24115	8328	-28236	16308	-13876	24691	-14922	-5340	108	134	1
-20216	-3464	15844	10260	9162	6232	-24640	2180	-12212	-1233	12554	-8461	-24096	-5676	-10004	-5528	12188	-5219	-30220	13796	31396	7000	32767	-24686	-22528	5816	-10060	2174	20250	4796	-31512	7996	-11996	8924	-18359	-535	115	127	1
-12972	-3636	14676	4693	2662	3670	-19748	1360	-8828	-9770	13576	-4460	-22348	252	-7332	-1435	10173	-4403	-32768	11028	32767	24976	15652	-14175	-16528	8860	-14932	-3090	14846	86	-28640	3992	-6012	-5166	-23980	3008	112	127	1
-10856	340	14056	3113	1293	2273	-15652	-2912	-8792	-10185	9498	-4631	-15368	1328	-4900	-1495	11613	-2186	-14368	26684	30876	15420	-23081	-5635	-14736	-768	-7876	5994	5838	293	-25816	3868	-5144	-5747	-24267	185	125	125	1
-9240	60	14100	1020	1558	717	-18132	-3744	-6704	-244	7027	-3391	-17316	3280	-3384	-404	12774	-1142	2540	14712	15648	3453	-32032	-730	-10788	2968	-5720	14300	-2064	1096	-24204	4324	-6484	-2114	-21278	-2357	119	131	1
-9164	-632	13644	-418	2212	-168	-19188	88	-5848	4416	5932	-3318	-17596	3828	-3172	-209	12894	-1250	6808	9260	8724	-2993	-28532	2561	-6648	6840	-5656	8036	-9230	-1507	-22988	5444	-7244	-961	-17929	-1163	122	126	1
-9616	-1212	13296	-993	2386	-384	-17628	732	-4688	-1684	4434	-3453	-16920	2064	-2688	-3808	14999	-278	3168	7428	7756	-6408	-23744	3879	-5092	5796	-6204	-2330	-14989	-4081	-18592	2612	-8604	-2021	-16247	-524	115	125	1
-9708	-2480	12724	-338	1912	-274	-16260	-3544	-3428	-6702	3553	-3262	-17360	-3828	-2640	-2142	15775	-598	-2232	7424	10388	-6349	-24872	4828	-4912	5000	-6940	-8162	-20420	-5899	-14284	2708	-9800	-1755	-15641	777	127	130	1
-9880	-2440	12448	668	1212	14	-16152	-5076	-2528	-6040	3149	-2327	-15616	-4348	-808	-37	15339	-1741	-6932	7360	12728	-4188	-30122	7180	-5308	2984	-7640	-7997	-25146	-7519	-11484	2748	-9060	-2251	-15183	1635	129	124	1
-9680	-1584	12720	1111	587	-12	-15788	-4104	-2372	-2127	3657	-1955	-16292	-952	-244	4318	13757	-2300	-11700	8240	13896	-2053	-32768	10571	-5908	3000	-8260	-6186	-29399	-9047	-9396	2480	-8792	-3130	-13559	1863	134	123	1
-9384	-1076	12908	967	487	-263	-15796	-3596	-2192	-1581	3772	-1889	-15384	1368	412	3309	13661	-1537	-10948	7064	12524	-1276	-32768	12964	-7840	3132	-8140	-6248	-32768	-10247	-8616	2740	-8408	-5843	-10875	665	134	127	1
-9264	-1716	12832	828	452	-202	-15956	-896	-1748	656	4247	-1346	-15124	3012	936	-919	13019	-1298	-12736	6760	12532	785	-32768	14524	-8704	1284	-8716	-6339	-32768	-11171	-8464	1476	-9988	-6858	-7549	-692	130	138	1
-9420	-1604	12596	658	368	275	-16068	-1868	-1660	-1485	4422	-1531	-14288	1784	1260	-6896	12522	-978	-18044	8652	14860	1890	-32768	15708	-9848	2360	-9392	-4164	-32768	-11542	-7036	212	-10952	-8658	-4883	-1643	147	138	1
-9368	-1872	12584	807	250	907	-15892	-2336	-2308	-2650	4900	-1623	-13948	740	2844	-9580	13096	-1771	-20112	7656	15904	3423	-32768	16570	-12720	3548	-9616	-4076	-32768	-11610	-4204	-260	-10824	-11559	-2277	-919	130	133	1
-9452	-1320	12884	956	216	1310	-15880	-1640	-2724	-3049	5598	-1552	-13668	1700	4284	-4671	17024	-3101	-22036	6392	15956	10392	-32768	18013	-17184	3480	-10008	-2808	-32768	-12997	-2904	-1256	-9780	-13359	1754	1480	125	131	1
-9148	-1256	12976	947	323	1581	-16360	-308	-2564	-3655	6230	-1807	-15908	3632	320	-6478	19882	-3403	-29320	12484	20956	11496	-32768	18296	-22784	6828	-12140	-2976	-32768	-12870	-3708	-232	-6232	-12327	-117	2169	123	124	1
-9100	-928	13128	1026	732	1782	-15944	976	-2132	-5245	6944	-2380	-19268	3308	-1272	-6645	13789	-1551	-32768	17432	24988	5115	-32768	20155	-26248	10748	-13488	-9327	-32768	-13262	-11224	1004	2380	-9798	-8461	1717	125	124	1
-9160	-60	13376	777	1540	1409	-15320	-384	-2592	-5504	8163	-2677	-17200	-1076	336	-4698	7067	460	-32768	12000	17452	1079	-32768	26556	-22892	5568	-15976	-7889	-32768	-14356	-18972	4084	7456	-7815	-13619	3039	127	111	1
-9280	-464	13480	731	2576	853	-16564	-3684	-2772	-3004	8849	-2150	-15488	-3700	2124	-3542	11780	209	-32768	8072	4264	-515	-32768	27037	-20044	7408	-17180	-3293	-32768	-10177	-16720	1636	7792	-10152	-3814	2476	127	113	1
-9168	-1708	13900	703	3903	1126	-16692	-2272	-1292	-1273	10566	-1681	-17200	-2224	3268	-1595	13860	-193	-32768	-13128	-15888	7102	-29296	19789	-16088	396	-13504	1082	-29013	-1937	-17732	-12604	32767	-9532	-5442	2062	127	113	1
-9068	-796	14700	788	6413	1192	-17464	-1200	-984	-797	12398	-1665	-19376	-1380	5544	154	11613	669	-32768	-30552	-29924	27542	-15523	8114	912	10936	-10152	15988	-7939	6118	-28868	-10684	32767	-1184	-1852	368	127	123	1
-9080	532	15856	605	10390	362	-19292	-1868	-2132	2356	14727	-867	-19268	-1088	5252	2067	9699	1323	-32768	-14916	-18292	-2645	2191	-10614	-5892	18080	-14976	5309	10720	7655	-18180	4104	15708	9945	-6114	1423	127	134	1
-9520	-1128	16440	109	15867	279	-21548	-740	-1796	4118	16890	-487	-21596	1452	5732	558	7928	1133	-32768	-7756	-6048	-9819	7486	-17060	-8608	10912	-17672	-6467	20759	5917	-14124	7708	-1204	16600	-1227	5361	128	132	1
-9796	-2328	16580	189	21962	1361	-21808	1508	-424	1233	18928	-1664	-21272	3192	9776	-2110	4911	2302	4136	7544	27676	-23710	21353	-11773	-26768	-9156	9736	-23029	20899	7823	-12320	2544	-4380	13241	2000	7768	130	126	1
-9160	-1860	17940	241	30155	2205	-24948	1200	404	-1459	21784	-2531	-22868	2792	13848	-4485	-601	2563	-2332	-3312	13188	-5708	32767	-4911	-32768	-3528	-10108	-26632	17410	-2273	-22720	2940	704	-18962	-6683	7244	131	151	1
