#Activity	walking 
#ActivityID	1 
#Date 09-27-16-11
acc_rf_x	acc_rf_y	acc_rf_z	gyro_rf_x	gyro_rf_y	gyro_rf_z	acc_rs_x	acc_rs_y	acc_rs_z	gyro_rs_x	gyro_rs_y	gyro_rs_z	acc_rt_x	acc_rt_y	acc_rt_z	gyro_rt_x	gyro_rt_y	gyro_rt_z	acc_lf_x	acc_lf_y	acc_lf_z	gyro_lf_x	gyro_lf_y	gyro_lf_z	acc_ls_x	acc_ls_y	acc_ls_z	gyro_ls_x	gyro_ls_y	gyro_ls_z	acc_lt_x	acc_lt_y	acc_lt_z	gyro_lt_x	gyro_lt_y	gyro_lt_z	EMG_r	EMG_l	act
-32768	-3120	2780	5865	-31398	-19646	-25604	3504	-22868	5310	-32768	-7092	-24864	-7816	31976	1787	-14091	-4852	-7808	6900	13712	3379	11302	-3563	-19200	452	-1368	1589	14389	-2298	-18084	4324	8188	6864	9413	-2036	125	129	1
-32768	-212	-21044	2340	-22503	-12729	-9456	5548	-25328	-3743	-18665	-3665	-10308	9572	32767	479	-4597	-3251	-8008	5944	13972	3360	15529	-4658	-19820	-1904	-1308	455	16873	-3299	-19212	2748	8368	8062	6482	-2132	122	130	1
-32768	15660	-32768	-16507	-10477	567	-4236	8128	-22384	-8513	2516	-4105	-18636	-204	27780	-2035	-2869	3053	-8592	5936	14532	3034	20692	-4999	-20880	-3284	-1708	867	18894	-3714	-19820	2752	8044	9055	1374	-3380	128	127	1
-32768	-4952	-24340	-8984	8905	6145	-12652	748	-20740	-9240	18188	2115	-15492	-1308	13536	-9464	-2600	3307	-7772	6692	14252	3453	27859	-5854	-23276	-2472	-596	1467	20751	-3438	-19956	2872	12940	8055	-3732	-3628	134	118	1
-18500	3996	-4144	13132	26745	14708	-13408	596	-17932	3371	25583	4443	-11580	-4920	1116	-12386	1151	158	-8088	6548	14328	4467	32767	-8114	-25580	-4224	2196	4483	23351	-2332	-20364	1692	27724	9218	-17270	-3486	131	127	1
12864	-9672	32767	2209	29335	2566	-32768	11848	32767	13470	16073	6385	-16320	-4008	13124	-2019	1304	2644	-6200	8608	17264	8576	32767	-11070	-32768	-4320	8244	14135	25532	-1899	-8824	-196	25292	11195	-19284	-6271	119	135	1
-32768	-3164	31180	5621	31709	3513	-21596	7228	-19928	19259	22451	8520	-18156	-5396	5536	5613	13137	-377	-4984	7772	17416	9953	32767	-11915	-32768	3564	14672	24424	25134	-370	-19448	-708	9568	25062	-5088	-7235	130	143	1
-14800	-14064	13816	7481	6438	12219	-18536	-8280	-9168	9490	23411	2423	-18788	-1576	-19460	6296	13252	-3462	-29924	10092	20860	16863	32767	-24038	-28676	6752	-1260	20970	19359	1248	-27556	7976	-12468	29125	-3444	-5760	109	123	1
-15852	1300	16608	5837	6011	8378	-9616	-1504	-14408	25940	18618	3108	-13692	-3780	-12912	9198	5086	-3628	-32768	23940	23328	18150	32767	-15820	-18068	-2888	-27848	6872	24613	-6036	-26316	6536	-3736	7852	-18318	5934	93	129	1
-5248	-14904	12744	4952	2303	5733	-12664	7608	-16320	13367	13408	2764	-12348	1772	-8276	3016	10886	-4327	-16704	16116	32767	6804	-3502	-12083	-29004	-5620	-19376	-601	21267	-7937	-32768	-1176	-3980	-9342	-18251	7839	116	121	1
-10884	-2872	14972	4626	118	3059	-22284	9332	-10792	268	11234	3414	-23332	-3108	-9796	-1066	11481	-3403	10408	3480	26956	9188	-18398	-13940	-17120	8104	6004	19788	5467	-288	-32768	-6100	-6580	-4437	-18933	6401	124	82	1
-9172	-3540	14936	3203	-120	1826	-17236	1580	-6680	-1801	10401	1496	-21424	-2128	-4476	-1663	13985	258	6492	16448	25876	5704	-23966	-7108	-9532	3516	2480	13273	-1146	2473	-26160	-5248	-4508	207	-18913	5470	118	127	1
-8100	-2560	14812	1584	156	866	-16636	1084	-6432	8671	7477	950	-17948	-1492	-3368	3118	17212	2481	6492	12324	18984	-3351	-28729	-1812	-7940	2416	2052	5708	-11633	7643	-21428	-2824	-4216	6643	-15468	6519	124	126	1
-7700	-3080	14632	230	464	203	-16912	3088	-5968	11512	5859	668	-16592	908	-1344	4144	17959	3170	604	6832	16856	-214	-32768	3388	-8168	768	-792	3551	-18486	9408	-17352	2300	-6640	3638	-12879	9854	119	120	1
-7916	-4068	14240	-41	564	130	-15700	2412	-4364	5695	5742	121	-16708	-964	288	1331	17052	1168	-5100	8448	14892	4390	-32768	9158	-7408	-212	-3520	1481	-23172	10652	-15100	2944	-7320	-1773	-11938	11064	135	136	1
-7820	-4996	13660	285	528	720	-15896	536	-3560	-3189	6210	-678	-15004	-1632	1480	-4902	15467	1296	-5640	8908	11712	2968	-32768	13778	-9280	988	-2752	-2670	-28205	12036	-12412	-456	-6660	-4747	-12318	9944	149	130	1
-7624	-4176	14248	347	756	979	-16116	-1288	-2904	-2566	6074	-296	-14292	-4140	1996	-4716	14282	840	-7652	9320	10724	-650	-32768	16345	-10636	-1236	-2068	-4553	-32488	12675	-10820	-1524	-6720	-6278	-11312	8881	132	122	1
-7296	-4440	14272	98	1362	1156	-15636	-1380	-2504	2864	5771	168	-14388	-3196	2692	-2601	13516	938	-11512	10136	12924	-3403	-32768	19468	-12788	-2164	-5252	-5184	-32768	13446	-9120	-2968	-7180	-7729	-10826	8077	132	129	1
-6980	-4396	14012	36	1464	1270	-15784	1008	-3320	2963	6219	-6	-15844	-1784	3080	-2680	12954	1058	-14728	10616	14892	-3930	-32768	22385	-15068	-2852	-5432	-4931	-32768	14065	-7612	-3080	-8112	-11802	-12422	6964	129	120	1
-8900	-4096	14068	71	1963	1734	-15992	356	-4308	-217	7195	-100	-16428	-2396	3320	-5117	13444	686	-16408	11516	16500	-4284	-32768	24428	-20428	-3104	-6604	-5660	-32768	15990	-6652	-3376	-6804	-15466	-11570	6872	118	107	1
-9336	-3248	14392	-299	1862	1716	-15368	1000	-4624	-1427	8050	170	-13728	-2616	4672	-5267	16966	434	-18156	13000	18136	-3326	-32768	25151	-24484	-4404	-9176	-5683	-32768	16642	-7804	-4092	-3060	-18870	-10789	7520	128	134	1
-8172	-4332	14092	-596	2095	2025	-15468	-528	-4360	-2010	8700	33	-14544	-3108	2716	-5261	19698	670	-27844	17320	19292	-6925	-30414	25520	-22728	-2840	-12536	-7522	-32768	17250	-8012	-2920	-160	-20090	-6574	7952	126	125	1
-8248	-3880	14408	-813	3414	2540	-17584	580	-3584	-1490	9588	12	-19308	-3656	604	-4104	18135	843	-32768	4208	20572	-5095	-31499	28367	-19956	-8172	-14136	-6621	-32768	14327	-11292	1732	584	-10616	-2940	6710	119	129	1
-8276	-2852	14560	-1493	5761	2560	-17864	3520	-2872	-2613	11459	207	-20376	-1624	1596	-4193	9864	974	-32768	10176	12492	-6130	-32404	23331	-29316	-2972	-16588	-2197	-32768	13255	-13508	4224	8180	-2811	-1607	5772	121	126	1
-8244	-2856	14896	-2164	8969	2256	-17468	1660	-2816	-3335	13900	684	-16160	-3688	7636	-5908	6225	2152	-32768	9540	10748	-7577	-31400	21924	-28388	-6392	-24812	-9300	-28891	8861	-12020	6136	28172	-5962	318	7958	112	126	1
-8520	-4104	14964	-2070	13112	2926	-19900	164	-2876	-1981	16039	1434	-17776	-3512	9652	-6773	9827	1687	-32768	4520	-19452	-4110	-19595	5688	-6160	-5880	-26720	-8044	-15327	6817	-17056	-1244	30768	-6209	2335	5277	120	126	1
-7904	-4416	15232	-1564	18121	4284	-19448	1024	-1732	-793	18546	1840	-18384	-1208	9780	-5358	6560	963	-32768	-4452	-29444	12073	-4950	1879	-7620	-12356	-21476	-1144	6000	2114	-18980	-2780	24280	-1976	-5150	-231	121	120	1
-8260	-4540	15552	-1443	24694	5714	-22820	1780	-400	-1318	21793	1932	-22348	-3724	13088	-6911	-1541	932	-32768	7360	-17508	-3919	17679	2710	-9588	-6288	-27792	658	19393	-4421	-15608	2092	8132	4514	-3684	-2752	125	113	1
-7552	-5568	16104	-502	32767	8503	-27576	2684	1360	-2484	25115	1105	-25312	-2172	30336	-7044	-19182	2204	-8904	-6596	-6676	58	28329	-3117	-22776	-7640	-11200	-5080	20741	-7899	-8764	1892	5700	3930	-1039	-3099	131	133	1
-7356	-7376	17584	-1691	32767	13734	-32768	4504	6776	-9478	28228	-1296	-16676	764	27708	-10141	-18834	4936	-28856	5904	32767	11600	32767	-7516	-30140	-17508	-8536	6027	22769	-4154	-19932	-1804	6816	4667	18879	-1941	117	120	1
-11264	-10568	22036	-3170	32767	20300	-32768	-1812	13584	-24945	29095	-1442	-23236	-204	14604	-15012	-13635	5544	-32768	10308	22792	11525	32668	-9134	-26772	-8228	-7432	-9443	30126	-7544	-18884	-16912	-9172	6832	6564	-9044	119	163	1
-32768	-9796	23928	-2917	32767	29339	-27200	-5076	-6936	-25426	28851	-714	-25936	-6412	-8412	-24580	-11781	5316	-13016	16508	7676	-7383	12898	-6554	-17736	14488	-28932	-7576	20462	-589	-16740	1440	-16428	22330	6004	105	136	144	1
-32288	-6528	18976	-8580	32767	23914	-27668	-2608	-5748	-20648	24281	2842	-31388	-7352	-12840	-8332	-18396	14	-13040	9068	10688	-821	-510	-7208	-12868	-9276	-8612	-3643	17329	-4405	-9500	7964	-16216	16058	10517	-860	134	157	1
-32768	-14904	32767	-9821	32767	28501	-15400	-1948	-28740	-10012	20155	1170	-32376	376	-5820	-856	-21780	-4235	-8908	1820	16088	-2650	3083	-4530	-18784	-2980	-10092	5048	12777	-3082	-23228	11760	-13500	7215	14407	-771	133	167	1
-19968	-11928	32767	-10386	-10857	19232	-15476	-936	-11812	-12879	9025	-1902	-32768	-4488	-6652	-1812	-21350	-6250	-6344	8304	13056	-1701	2873	-2989	-20804	976	-7700	-169	7344	-3312	-25344	11380	-11824	4066	14147	-318	134	137	1
2856	-18288	28596	-12585	-31750	6668	-11784	-1088	3340	-13786	-256	-3441	-29732	-2036	-6036	825	-20576	-7096	-9832	4320	13932	-621	1917	-1951	-17928	-7336	-6212	-8703	5838	-4130	-18532	-5396	-956	-8666	17086	-5340	127	151	1
12288	-15488	8680	-4019	-26888	-3060	-7252	-1936	3984	-5150	-9491	-5576	-23480	488	-6456	-1856	-18069	-9514	-6976	5348	13388	1269	2015	-347	-17212	-4180	-3912	-4417	3965	-1813	-16864	-2300	-740	-5600	14899	-6314	126	127	1
4576	-9300	11700	-1121	-23818	-12719	-4128	1336	-824	7912	-17094	-7844	-16504	392	-7568	-1093	-16855	-10815	-6028	7384	13124	1945	2782	-990	-17012	1216	-2220	362	4517	-727	-17348	660	1164	-2750	14444	-5531	128	123	1
-2456	-6780	15192	-2729	-26717	-21466	-4656	4164	-3908	8847	-23908	-8562	-14548	-688	-8360	2753	-14607	-10912	-7128	7156	12976	1693	2778	-1864	-17204	-352	-3124	2752	4594	-1126	-17640	876	3936	-1383	13318	-3893	125	127	1
-8000	-4184	17372	-2869	-32768	-27512	-4336	3752	-4904	5892	-29954	-9360	-11348	112	-9796	4274	-12906	-9101	-7524	5904	13312	1630	2773	-2437	-16552	-1412	-1088	1836	4695	-1238	-15796	-1824	6092	561	12469	-3159	124	131	1
-11764	-2056	16808	-1074	-32768	-30348	-5396	2872	-5224	5359	-32768	-10500	-9648	-348	-9956	6563	-12027	-6496	-8132	5476	12668	1204	2699	-2569	-15052	-1300	-2156	1795	5889	-910	-14112	-56	5264	4610	11255	-3499	133	98	1
-13496	-448	15368	1321	-32768	-29253	-6952	1952	-3692	9404	-32768	-11022	-8016	656	-9296	9018	-11265	-4448	-7544	7224	12400	871	2879	-2953	-16376	600	-3624	2210	6491	-1052	-15412	2456	3304	8082	10723	-2969	136	121	1
-13652	-192	15336	1555	-32768	-28772	-10368	3304	-4352	11557	-32768	-10807	-7344	1816	-10764	11839	-8187	-2721	-7984	6632	12384	930	3187	-3149	-17376	-1712	-3964	1943	6819	-1583	-15600	3484	2520	6927	14176	-2887	127	129	1
-19544	-1692	17388	759	-32768	-21095	-14848	3788	-6308	10520	-32768	-10389	-7372	1984	-11180	12744	-7636	-2491	-9068	5392	12468	1025	3302	-2827	-15572	-2536	-3412	1733	7149	-2036	-15108	2840	1524	6316	15519	-3800	130	127	1
-22668	-5708	21244	4037	-32768	-18069	-22344	4452	-10240	7678	-32768	-10342	-4560	4192	-8372	22137	-2029	-920	-8744	5880	12280	904	3482	-2630	-15128	-1420	-3760	-277	7776	-2271	-16148	1784	8	3112	14323	-3559	132	122	1
-30276	-7024	23264	5068	-32768	-17702	-29556	4944	-10976	5222	-32768	-9400	-5996	1996	-4520	19313	-1055	-1598	-8968	5964	12488	1053	3890	-2561	-15856	-1040	-4812	-2570	8229	-2669	-16376	3252	1328	-1415	11577	-2065	123	111	1
-32768	-7496	21804	2899	-32768	-17648	-27928	3304	-17172	-943	-32768	-8085	-9552	-4156	-2756	17116	-1097	-4869	-7960	6972	12716	1391	4888	-3259	-17852	-460	-3380	-2794	9073	-2821	-16732	3888	4828	-2991	11076	-2217	123	122	1
-32768	-12024	12616	6610	-32768	-13474	-29456	-160	-21408	3517	-32768	-8159	-20000	-3848	7288	11390	-2488	-5485	-8108	6288	13308	1655	7195	-3996	-18292	-1656	-1756	-1957	10910	-3357	-17736	4500	8224	-471	10737	-3321	123	133	1
-32768	-1276	-7496	3879	-30477	-12224	-21472	5384	-23988	7002	-31334	-5108	-22804	-2800	32767	9348	-15053	-238	-7856	6584	13712	2423	10976	-4749	-19580	-1816	-532	-1439	13535	-4151	-18904	3268	9864	1367	9074	-3571	127	126	1
-32768	-136	-26248	1619	-18022	-8849	-6332	4404	-27752	1487	-14952	-3432	-9924	9764	32767	8041	-3018	-1880	-8320	5872	14012	2825	16088	-5470	-20052	-2904	-668	-2583	16287	-5041	-19056	1660	11852	2927	5212	-3426	124	134	1
-32768	12800	-32768	-5641	-2428	-1647	-5592	6416	-24268	-204	6546	-1199	-17480	1692	25852	-1418	-711	2430	-8084	6532	14200	2403	22282	-5929	-21612	-2368	-256	-2987	19221	-5520	-19244	2428	13524	5866	706	-3678	130	127	1
-32768	2144	-18264	1848	14546	3294	-10440	2532	-23956	314	21279	3401	-14200	1868	10128	-8544	771	2219	-7560	8156	14036	2489	30200	-7565	-24328	-1896	932	-1316	22196	-4680	-20132	3812	19444	7630	-6558	-2615	141	115	1
-19912	4604	25412	-561	23537	9236	-24348	488	24368	-8831	21069	4316	-10136	2412	11056	-13319	7132	2201	-6704	9324	16192	3758	32767	-12007	-28816	-1476	3888	4737	25420	-3582	-18556	4120	29444	10139	-22822	-3943	126	126	1
-16612	-7084	6908	-10344	32767	7131	-28600	15712	-14244	5170	22664	2879	-16316	2000	9528	-17476	12547	7322	-5396	15032	17216	7297	32767	-20267	-32768	4520	10304	16030	26906	-2180	-19880	6052	21736	18935	-13144	-5890	119	132	1
-32768	-19720	32767	-2651	20895	2178	-18324	-9848	-16184	-16390	23729	2673	-27576	-3656	1512	-2820	-83	941	-16376	14020	20600	13336	32767	-29809	-32768	6240	5356	24554	23608	-1093	-18972	-4	-5896	25802	-5789	-6495	118	136	1
-1872	-12076	8676	7593	11082	3854	-21108	-6608	-10632	9850	21692	1716	-18684	-5228	-17736	-8205	6663	-5077	-32768	8676	24828	13262	32767	-26578	-16800	-728	-13952	15116	25332	-2807	-24360	8724	-7888	18909	-10800	63	147	130	1
-14188	-2700	14436	1923	4389	2970	-7912	4564	-14840	20100	15633	5043	-6752	-7068	-15100	-274	7494	-2716	-32768	24576	32767	18891	10208	-19122	-20360	-12664	-26284	5953	25674	-8849	-32600	-572	-4432	-2408	-17270	6947	87	124	1
-10636	-1828	15592	1161	2355	1371	-15124	6680	-11100	1764	11034	1979	-22052	-2080	-10944	2261	11759	668	700	17848	32767	11250	-17859	-17398	-26112	8128	6156	22629	9515	-1385	-32768	-5404	-8456	-3798	-17790	7442	123	117	1
-9432	-4816	14312	253	1571	415	-21964	3664	-8224	-6074	9601	987	-23924	-1792	-6812	1323	13197	516	1796	15304	24784	5969	-18737	-16650	-23904	10644	5716	23775	8099	-189	-28608	-2860	-5224	-156	-17715	7474	110	106	1
-9636	-4232	14108	-405	1325	-138	-17724	956	-7776	-791	7573	860	-19192	-496	-4712	-274	15202	2397	8404	13120	15480	2882	-24233	-7795	-6668	1056	2100	8720	-5605	4850	-21316	-4056	-3972	4239	-14816	7640	121	127	1
-8752	-4292	13948	-702	1246	-416	-16180	1008	-6648	3621	4706	442	-17448	-2216	-3228	415	16350	4020	5796	11820	11344	2448	-24193	269	-8024	3512	184	2681	-13332	8205	-18908	-680	-5832	1557	-12380	9473	126	123	1
-8188	-5048	13860	-767	1072	-439	-17008	812	-4192	2586	3732	399	-17004	-1208	-768	239	17101	3237	-72	11668	11760	2322	-24558	8013	-6444	924	-2420	-1997	-19001	10140	-15512	976	-7048	-2002	-10712	12067	134	123	1
-8152	-5584	13784	-824	1009	-137	-16392	892	-2548	-2822	4168	213	-17436	-1824	2160	-3340	16085	2906	-5988	11288	13408	1115	-29318	17188	-6596	-1116	-4148	-6803	-23149	10848	-11924	-232	-7532	-4455	-9788	12284	134	116	1
-7836	-6064	13272	140	541	602	-15712	-2104	-2352	-3158	4864	143	-14212	-2388	1664	-5571	15366	1939	-5412	9632	11580	-2030	-32392	25515	-8476	-544	-2424	-9977	-28398	10775	-11364	352	-6692	-5318	-9824	11351	127	130	1
-7944	-5644	13120	612	560	1406	-14844	-2456	-2192	348	4686	622	-13628	-3964	2164	-4209	13837	1798	-9656	7892	12696	-4727	-31997	30349	-11536	-1360	-3664	-12262	-32751	10730	-10872	-444	-6312	-8050	-9303	10348	126	137	1
-7604	-4600	13332	2275	-123	2374	-14956	-1960	-32	4264	5196	951	-13828	-3988	3396	-2409	13281	1559	-13632	8312	14916	-6413	-32768	32119	-14444	-2840	-5636	-13197	-32768	10350	-10312	-1200	-6184	-11748	-10005	9925	123	129	1
-7920	-6748	13344	2728	-583	3809	-14692	-2872	-2728	3941	5667	847	-13732	-4524	6376	-4398	15227	523	-15000	8956	14396	-8887	-32768	30825	-13924	-2300	-5364	-13281	-32768	10494	-8532	-3508	-7716	-18174	-11736	9654	123	124	1
-8232	-5084	13708	1947	-526	3661	-15724	-68	-2804	4273	6519	1807	-13576	-4476	4816	-98	18827	-1824	-16176	9132	15428	-9903	-32768	27629	-19544	-2280	-6424	-11819	-32768	11947	-7164	-4080	-6184	-23280	-10193	9299	125	116	1
-9392	-3872	13620	1539	111	3047	-15172	2896	-3304	2797	7693	1739	-16308	-2484	1868	-196	18206	-168	-20184	11656	19932	-9087	-32107	23781	-23160	-2644	-9844	-9752	-32768	12962	-7608	-5320	-1008	-24129	-10048	8654	126	120	1
-8532	-3512	14288	754	858	2403	-15776	1688	-2896	798	9073	1339	-17768	-1632	1528	-2670	13184	2654	-25708	15572	21228	-9319	-32768	21019	-25084	-4068	-12092	-7072	-32768	13987	-9692	-4828	3392	-23652	-7987	8072	124	118	1
-8572	-3764	14288	-308	1951	2037	-16860	1552	-2816	1305	10491	1387	-17636	-680	2996	-642	9487	1737	-30168	7468	18144	-5299	-32768	21467	-22316	-8288	-13112	-3447	-32768	14342	-12776	-2272	3000	-13681	-3038	5086	122	122	1
-8180	-3940	14168	-1180	4069	1883	-18452	1704	-3516	376	12052	1586	-17828	-1724	4468	-1633	10533	804	-32768	9424	12600	1590	-30448	18560	-30636	-5068	-15084	3508	-32768	14057	-16552	540	12564	-15	-3219	3583	121	115	1
-8508	-3792	14732	-2189	7166	1708	-19412	1992	-3080	-377	13699	2239	-18472	-864	4840	-4169	11506	949	-32768	3708	476	-4387	-22665	11724	-25560	-1628	-22104	-2586	-26517	10881	-11912	3296	25288	1338	1365	7065	117	128	1
-9164	-3792	14884	-2828	11266	2212	-19240	1368	-2468	-500	15906	2729	-18972	-756	5772	-6072	8766	1293	-32768	4972	-15116	-1162	-17880	1975	-24340	-3540	-23436	-2347	-24412	10206	-17496	1364	29616	3752	2944	4652	125	118	1
-8728	-4200	14824	-3531	16905	3214	-20060	2124	-2632	-597	17992	3234	-20336	-2420	6712	-7523	4764	1556	-32768	-324	-27528	7839	-5193	-2153	-8576	-9968	-22208	1821	6003	2453	-19172	1148	22360	4476	-1072	1599	126	124	1
-7816	-4724	15224	-4221	24043	4190	-22384	3360	-1664	-1335	20264	3577	-20808	-3140	6892	-7131	4037	1567	-32768	4528	-17616	-551	15950	-1160	-10712	-8536	-24788	1077	17869	-3821	-14820	2396	9016	5384	-2454	-980	127	141	1
-8752	-6276	15352	-5376	32767	5486	-26208	4348	1672	-4270	22683	2655	-24076	-1188	22204	-6250	-12117	3028	-9512	6464	-5712	-5753	31567	788	-21088	-8936	-11796	-7858	20483	-7689	-10068	4396	860	4388	-645	-2568	124	133	1
-9512	-10484	17568	-5088	32767	7537	-32768	2600	8224	-10735	25746	1667	-20204	240	32716	-6473	-23458	5952	-17816	-11408	32767	8573	32767	-883	-25576	-9032	1924	-4265	18450	-4376	-18184	5184	9820	-1332	16708	-506	116	135	1
-8668	-9308	19696	-7167	32767	12943	-32768	-84	10676	-17724	26903	2262	-19988	-1940	18596	-16480	-13224	5152	-26328	260	32767	6541	21492	-10479	-18188	-11760	-14068	-15973	29625	-8293	-16320	-8720	-2176	-46	12984	-8367	128	154	1
-31000	-12768	25852	-10697	32767	21554	-31420	-4860	-3724	-23048	28874	2812	-18156	-5168	1764	-18380	-11198	4545	-14876	27420	3256	-4942	9241	-7097	-21364	17064	-26740	-8841	23103	-360	-20880	-2528	-21236	12242	7042	1217	140	163	1
-32768	-10248	28180	-11453	32767	19497	-25224	-7392	-3876	-18464	25458	8764	-28308	-13172	-17672	-14378	-14074	2167	-13316	3688	14640	296	-836	-8346	-11440	-9768	-7816	-2810	16810	-3727	-15224	3492	-17556	19621	9700	-2650	135	127	1
-32768	-18652	32767	-7540	32767	27613	-16988	-2772	-26300	-1441	22944	7558	-31356	-4592	-7240	5220	-19927	-5399	-8440	3564	15772	-1646	4073	-4640	-17768	-2544	-10448	5738	13991	-1674	-16776	8028	-12660	17104	13973	-155	133	187	1
-20960	-20276	32767	-6602	-7813	17740	-18744	2372	-12324	-2053	12459	4803	-32768	-2400	-5180	11670	-20448	-7511	-8560	6900	13624	-1350	4464	-2442	-20240	-424	-7212	4022	7952	-2061	-23444	5860	-4084	401	13720	-1646	133	155	1
3428	-16448	32767	-3708	-25269	12898	-13156	-1352	1744	-11302	773	108	-32692	1612	-6764	9393	-20060	-5727	-10584	5404	13892	55	3068	-1426	-18100	-4764	-6308	-7367	7234	-3156	-20776	-2136	-2532	-7812	16890	-4043	128	140	1
9488	-10308	14732	-2573	-27411	7388	-7380	-1300	3316	-6997	-7715	-2291	-23612	4976	-6360	1553	-19720	-6711	-7840	5232	13620	2011	2624	-262	-16964	-4092	-4572	-6184	5264	-2066	-17492	-3500	-984	-2637	15836	-6607	122	128	1
6056	-10948	12616	-1802	-28844	937	-2928	-652	-556	390	-15437	-5662	-17224	1432	-7756	-3154	-18336	-8386	-6320	7688	13076	2314	2927	-803	-17332	300	-2660	2272	5826	-441	-16636	3720	-1308	-897	13462	-6697	135	122	1
1268	-9680	12176	-2565	-30363	-5747	-3408	1788	-2104	1058	-21629	-8046	-14276	768	-8632	-2919	-15385	-9204	-7084	6760	13424	1975	3559	-1457	-17648	356	-3316	3904	5081	-674	-18688	2432	1996	-2179	12827	-4275	114	113	1
-4912	-9368	13536	-4943	-32768	-13203	-2840	1840	-5452	-316	-27728	-10085	-11992	-1804	-10988	-2958	-13920	-7757	-7712	6744	12948	2329	3745	-2002	-17840	-1688	-3368	1519	5036	-999	-15652	-1652	4424	-2784	13319	-4051	125	105	1
-8220	-7432	13896	-5202	-32768	-20104	-4008	2188	-6008	-1102	-32768	-12310	-10220	-1548	-10052	197	-12535	-5716	-8240	4912	12796	2060	4055	-1464	-16572	-3468	-1596	2501	5395	-715	-15628	-856	4692	1233	12617	-4494	139	138	1
-11008	-5408	13160	-5066	-32768	-24055	-6760	1224	-4024	1134	-32768	-13887	-9392	224	-9960	2163	-10251	-4391	-7812	5852	12424	1767	4659	-1262	-15828	-156	-3432	1563	6152	-659	-14604	1248	4988	4432	12854	-3172	136	122	1
-15032	-5180	15040	-4575	-32768	-23807	-10240	1896	-6020	4349	-32768	-15665	-8484	2208	-9368	6913	-9012	-3191	-8160	6532	12208	1865	4591	-1057	-16412	-92	-3916	-1042	7054	-1449	-14644	3464	2268	3447	14486	-2250	133	114	1
-20776	-6316	17820	-3628	-32768	-22518	-15888	3156	-6460	4300	-32768	-16555	-7044	2680	-11392	12344	-5310	-2492	-8844	6520	11996	1948	4717	-1003	-15696	-1500	-3872	-166	7496	-1714	-14716	3508	2024	2959	14937	-3244	127	124	1
-23224	-10336	18180	-9	-32768	-22385	-22020	2360	-8844	6845	-32768	-16578	-4844	4016	-9764	15070	-2516	-1933	-8796	6280	11968	1944	4722	-1029	-14908	-1076	-3196	1473	8347	-1863	-15632	2368	1156	1795	14182	-3246	126	127	1
-27960	-13656	21804	4609	-32768	-23637	-27540	1792	-10972	9562	-32768	-16440	-6584	880	-4652	15208	-1082	-3106	-8644	6544	11864	1250	5422	-1755	-15792	1328	-2936	-1199	9367	-1975	-16000	3448	540	64	11820	-2111	123	118	1
-32768	-1112	23040	2266	-32768	-28953	-29264	7248	-12020	12040	-32768	-12327	-9664	-5796	-1100	15503	-2451	-6327	-8480	7680	11700	1503	6679	-3000	-17436	1744	-4728	-3937	10154	-2579	-16504	5508	2548	-1480	11769	-1672	124	119	1
-32768	-10876	16808	1695	-32768	-28466	-28468	4036	-19908	571	-32768	-9877	-17036	-7284	6140	9319	-997	-8460	-8612	7248	12188	1896	8014	-3800	-17064	-752	-2756	-3411	11559	-3250	-15952	3332	6100	620	11126	-2087	121	139	1
-32768	-2664	436	9909	-28032	-23569	-26268	2996	-21464	7914	-32768	-6092	-20344	-9824	30732	3735	-10002	-4798	-8928	7404	12864	2640	11019	-4721	-18500	-1372	-2444	-680	13752	-3315	-17956	1904	7484	4092	10997	-2081	132	135	1
-32768	1724	-21292	2502	-18361	-13291	-7756	5352	-26488	2716	-17842	-3641	-11148	9520	32767	8188	-6169	-2836	-9128	5480	13464	3465	15659	-4702	-19700	-4588	-500	-64	16184	-4034	-19864	-248	10552	5954	8261	-1786	123	128	1
-32768	12544	-32768	-22409	-9193	-3161	-2576	9832	-23840	-6945	4661	-4488	-18384	4208	28032	5291	-3393	3917	-9188	5820	14228	4191	22433	-3799	-21276	-4544	68	458	18952	-4734	-20448	1604	13720	7515	1408	-3515	125	120	1
-32768	-10124	-24056	-7709	10977	175	-11428	1184	-21472	-8231	19840	1352	-13488	1748	10672	-12038	680	2835	-8256	8364	13784	5466	31298	-4848	-24452	-1004	1928	995	22114	-4166	-21148	3460	20324	7569	-8308	-3264	130	127	1
-18304	3732	-3840	12213	27717	4999	-13896	1024	-20072	6986	25901	4673	-8732	-5980	-3772	-14689	5873	1220	-8560	8212	13928	5686	32767	-5184	-28576	-1500	5336	4182	25975	-3531	-19132	5728	32767	10639	-23781	-2261	125	132	1
32416	1868	32767	-703	32767	-874	-32768	13968	32767	20023	12508	5603	-1076	-12812	-7244	25	20025	-1924	-4180	11092	19560	14418	32767	-15530	-32768	2300	11072	14377	28000	-2692	-15216	5068	24348	24183	-15060	-7058	127	133	1
-32768	-96	32767	-4927	32767	9058	-18488	3564	-25996	19132	21758	8294	-32768	-3424	24844	15122	-8535	5013	-18160	15356	17956	18105	32767	-26008	-32768	5812	6468	22252	25738	-308	-23448	1512	-3700	28746	-1096	-5675	114	133	1
648	-20388	-1656	10428	10757	8414	-28728	-3656	-9052	13893	25058	588	-21276	2344	-24208	6287	12896	-2387	-32768	18508	19648	18004	32767	-24166	-22640	472	-19120	11953	27426	-3290	-30932	6988	-12480	20022	-10924	1718	139	141	1
-26728	6568	26520	10271	7783	8833	-6580	5056	-18144	17966	20828	4462	-21708	7224	-22948	6268	12033	-5255	-32768	25016	32767	12663	14119	-16659	-20092	-15512	-28916	999	25941	-9331	-31696	-4584	-2784	-7220	-19828	8323	106	110	1
-5496	-9668	14896	3584	3662	4146	-11340	4024	-12876	-6910	14375	1604	-12428	-6156	-12552	-8272	9473	4613	3320	12680	32767	12651	-15727	-14734	-23276	2592	13464	17500	10328	-935	-32768	-7780	-8236	-6274	-20125	5914	112	119	1
-9296	-4556	14120	1752	2496	3553	-22668	476	-11688	-4071	9684	2340	-26008	-8724	-9780	-6658	10876	-515	5624	11708	29072	12579	-19809	-18084	-9152	2360	3352	21414	2750	4426	-28944	-6760	-5556	5233	-20166	2551	115	111	1
-10816	-4220	13792	1781	1848	2952	-20932	2876	-10272	6804	8194	2466	-23868	-4052	-5936	2373	16591	1030	8224	11976	20216	5395	-28444	-12854	-8456	2720	2316	14960	-6823	9192	-23976	-4808	-5228	7191	-17266	4266	128	119	1
-9724	-3536	14104	872	1614	1506	-15920	4308	-7384	9684	5743	1852	-19688	52	-3632	5091	19591	3569	3964	8276	16824	5494	-32222	-5751	-7748	276	796	8658	-15085	12030	-18896	-288	-6456	9593	-14105	7093	126	121	1
-8448	-4792	14268	463	1746	1111	-16692	2000	-4512	6035	4520	1306	-16232	-572	512	3678	19372	5324	-1604	8772	14604	9227	-32768	2560	-7292	-1380	-1932	5485	-20881	13477	-16052	2056	-8700	3283	-12559	9515	124	121	1
-8232	-6064	13376	109	2085	1633	-17980	1004	-2848	-1835	5604	235	-17420	-1380	952	-767	16908	3164	-4232	9500	11508	7263	-32768	10675	-7632	-788	-1756	940	-25889	14744	-12044	-624	-7900	-647	-11338	9268	126	122	1
-8644	-4136	14076	176	2324	2444	-16516	-472	-1160	-1084	5585	653	-16132	-1604	2024	-1373	15954	1956	-6704	8392	10988	2795	-32768	16972	-8792	-2620	-1356	-2015	-30244	15434	-10588	-2468	-7900	-1114	-10462	8205	139	129	1
-8156	-4104	13860	262	2305	2623	-15240	-1992	-2396	2047	5550	940	-14304	-3504	2388	-1694	13718	2084	-11980	8012	15180	-451	-32768	22693	-11704	-3076	-4504	-5557	-32768	15895	-10232	-2012	-8484	-3659	-10611	7119	136	141	1
-9584	-4604	12648	313	3567	2699	-14512	496	-3832	3846	6150	1474	-13724	-2624	4616	1614	13098	1522	-15376	8008	17588	-2247	-32768	27232	-15332	-3916	-5460	-9010	-32768	15468	-7972	-2560	-8204	-7070	-11074	6999	137	124	1
-9892	-4732	12408	526	3048	2562	-13476	-176	-4624	2631	7154	1095	-12992	-764	5040	-1616	15774	1790	-16668	8228	17172	-4200	-32768	28844	-19520	-3808	-5648	-9508	-32768	15466	-5784	-2176	-8164	-12717	-12380	6646	125	121	1
-10144	-4400	12752	598	2403	2479	-14728	444	-4840	1716	7783	1456	-15000	-3008	1804	-6517	18318	1937	-19108	7836	19208	-6505	-32768	27636	-22356	-4132	-7608	-9033	-32768	15655	-6092	-2020	-5272	-16843	-9929	7140	119	130	1
-10040	-4208	12844	234	2302	2238	-15080	1924	-4456	451	8494	1436	-14032	-1556	-860	-3189	17467	2023	-24020	8352	23200	-6958	-32768	25129	-23612	-4372	-9280	-8440	-32768	14283	-7784	-1108	-1784	-17952	-8199	8613	127	124	1
-10192	-3192	12940	-112	2448	1554	-13588	1280	-3568	789	9382	1747	-15356	-2624	552	7	12783	1918	-29816	8112	24844	-5867	-32768	21793	-26660	-6912	-11208	-2319	-32768	13745	-9568	1272	1856	-19346	-6868	10036	126	124	1
-9396	-3584	13552	-822	3499	886	-15116	1656	-3360	2571	10675	2057	-15964	-2064	4164	896	9888	1243	-32768	8960	19220	-4594	-32768	16849	-26736	-4452	-14024	2757	-32768	13522	-10288	1304	2236	-18700	-6566	10136	119	117	1
-9028	-3784	14036	-1628	6043	812	-15816	2152	-3328	2643	10934	2049	-18440	-368	6020	-1173	11227	1299	-32768	10608	7624	-6420	-32768	11088	-28184	-2004	-21260	-2723	-32768	12577	-13164	5448	18892	-5033	-7513	7599	118	121	1
-9232	-4604	13828	-2077	9581	1864	-19748	2052	-3444	-853	14589	2007	-19844	-1488	5176	-4539	10685	1680	-32768	8620	-9660	-2492	-25799	6565	-26732	-2020	-21116	-3845	-32768	12208	-12640	-2800	32767	-7804	-1979	3260	124	120	1
-9368	-4404	14088	-2199	14476	2766	-19488	1872	-2616	-1271	16799	2670	-19040	-2696	7824	-4503	7483	1273	-32768	-1600	-32540	13377	-15061	3245	-3760	-11108	-27036	454	-1483	6551	-18676	-3564	31972	-6056	-4233	908	122	125	1
-9188	-4276	14620	-2292	20652	3688	-22056	2152	-904	-1196	19176	3277	-20728	-2300	12484	-6267	2956	1672	-32768	11028	-27080	3335	9979	5067	-8876	-2772	-27120	3971	16155	-2009	-15448	3476	13344	7610	-3118	-680	121	112	1
-9504	-5792	14780	-2364	29462	5177	-25044	2352	1356	-2953	22385	3112	-23100	-2748	20264	-7260	-6359	2642	-32768	8276	-7784	-9427	26565	3409	-9984	-5212	-27808	-12529	22491	-7206	-10620	4808	248	6394	1322	-308	126	123	1
-8228	-7644	15628	-2882	32767	8312	-30156	1604	6596	-8963	25778	1847	-21704	-1492	32767	-7655	-27788	5736	13356	-4228	28452	-6048	32767	8008	-32768	-5860	32767	-19472	-1758	-13112	-12436	8092	10552	-8756	77	477	120	133	1
-9924	-9192	18360	-6269	32767	14376	-32768	780	9168	-20412	28152	1218	-16720	-2996	21300	-18468	-15254	5195	-32768	-6212	19364	8137	32767	-4945	-22668	-20028	-22432	-6388	24170	-7175	-24892	-6576	30876	-18682	8215	3798	112	142	1
-25984	-14692	22880	-9189	32767	24523	-32768	-6092	-1172	-23642	29882	2376	-26820	-4544	2916	-20248	-12137	4139	-23752	32767	32767	1105	10339	-16267	-28984	7660	-1680	-4242	30884	-3060	-22028	-24724	-4416	1893	8329	-6159	135	154	1
-32768	-7560	23740	-7472	32767	24649	-28528	-4576	-12772	-17489	28930	6875	-30336	-12096	-11620	-15479	-12553	1128	-11976	-15320	31772	-2845	9190	-8811	-18340	7424	-17340	-2831	15763	-445	-17956	6364	-23672	29703	4369	-93	130	108	1
-32768	-18104	29824	-8311	32767	28459	-20500	-296	-9552	-6529	22001	5584	-32768	656	-10952	3491	-19055	-5253	-8432	32767	-488	-4174	5512	-8555	-9200	-2116	-13012	758	18849	-2969	-7676	7764	-12736	13522	10209	2179	133	184	1
-32768	-17868	32767	-10869	16804	25713	-11560	-1536	-22588	-3696	16638	3326	-31080	312	-1024	4519	-22528	-6018	-13896	6300	13436	-2161	2716	-3300	-20580	-15980	-12708	7109	10784	-4260	-26384	7520	-12792	6515	15068	300	142	172	1
-15644	-18988	32767	-13001	-25110	16542	-14448	1284	-5296	-14498	3863	-561	-32768	-2860	-7816	979	-18148	-4785	-8864	3000	15016	-577	1854	-1499	-21440	368	-10084	-1702	7329	-1873	-25928	-6192	-3924	-5962	16426	-2938	134	132	1
9684	-13068	13128	-7990	-32768	9150	-9632	-2552	4816	-13521	-5193	-3798	-27452	1348	-6456	-759	-18646	-6999	-9152	2484	14528	1200	1972	-372	-17688	-9008	-6008	-6917	6301	-2199	-20940	-7176	-2312	-2365	17002	-6830	130	150	1
7496	-13668	8680	-3258	-28725	1697	-3872	-2308	1560	-835	-13408	-6839	-18648	2796	-7176	-4406	-16792	-8024	-7336	5488	13592	2846	2672	467	-16832	-1900	-4052	-1607	4090	425	-15616	216	-304	1927	15315	-7240	127	119	1
1708	-11120	9688	-2580	-27508	-7391	-3808	2220	-1892	5092	-19429	-9049	-15116	-3368	-8396	-1553	-14504	-10601	-7180	7324	12876	2936	3073	-314	-17108	1184	-3788	5078	5813	651	-16852	3032	-428	5750	14447	-6253	128	112	1
-4172	-10500	12772	-4010	-30095	-17505	-4448	2276	-5216	4819	-25828	-9991	-12676	-76	-9316	1860	-11688	-10229	-7052	7804	12188	2782	3233	-1575	-17428	1324	-3832	5527	4055	589	-16312	3788	2176	2376	13858	-4962	118	115	1
-8724	-8828	14700	-2864	-32768	-25802	-5040	1600	-6184	5609	-31089	-11194	-11544	-1196	-10392	3185	-10940	-8683	-8256	6248	12460	2527	3297	-2002	-16280	-1000	-3312	3741	4405	40	-15968	688	2300	344	12504	-3628	127	130	1
-11332	-5244	14616	-1636	-32768	-31097	-6588	1444	-5472	6955	-32768	-11957	-9260	-916	-10440	6273	-9604	-7043	-8212	4880	12416	2152	3337	-1685	-15988	-2848	-2720	4731	4379	-207	-15064	416	4072	3833	11748	-3543	137	120	1
-15684	-4020	16400	-1646	-32768	-31467	-8544	1360	-6424	9572	-32768	-12731	-7556	1872	-8272	9739	-9616	-5627	-8500	5856	12224	1871	3407	-1161	-15076	-148	-3936	3265	5266	-781	-14048	2400	4724	5340	14721	-3371	140	126	1
-19516	-4328	17004	-1204	-32768	-28379	-13144	2080	-5488	7940	-32768	-13780	-7796	2660	-12836	13611	-7074	-5101	-8592	6476	11940	1794	3259	-1185	-15948	-176	-4100	1246	5625	-1404	-13852	3628	2316	6786	18392	-3981	138	126	1
-22048	-5744	15504	237	-32768	-24608	-18060	2564	-7992	9608	-32768	-14319	-6300	3768	-11012	17587	-4412	-4354	-8196	6804	11756	1158	3025	-1908	-15692	504	-3604	989	6020	-1401	-14980	4472	312	5557	18170	-4439	126	134	1
-25588	-9716	19768	3674	-32768	-21503	-23240	2516	-10340	9020	-32768	-14272	-6392	5032	-7088	19615	-4212	-3551	-8996	6256	11468	1058	2602	-2351	-14372	-212	-3980	11	6959	-1844	-16508	3184	960	1298	15718	-2582	130	124	1
-30528	-11856	18644	3739	-32768	-17921	-31956	3572	-12280	7766	-32768	-16384	-7184	2028	-1384	19441	-3903	-3493	-8676	6476	12128	1009	2531	-2774	-15448	-840	-1716	-156	8460	-1971	-17084	3232	3292	-2036	10235	-1683	128	122	1
-32768	972	21844	-6809	-32768	-21860	-24348	6288	-18368	4693	-32768	-13383	-12520	-3332	-268	15801	-1885	-6321	-8376	6072	12872	1390	4240	-3141	-18356	-1188	-2016	-902	10435	-2412	-17004	5360	7204	-1256	9872	-2512	123	120	1
-32768	-7532	9808	-4479	-32768	-22891	-25020	6916	-21788	-1638	-32768	-11693	-23080	-5356	11796	9835	-6085	-6558	-8388	5564	13320	2116	7315	-3107	-19144	-2204	-2036	-2215	12528	-3679	-17468	4028	7912	953	11554	-2870	122	135	1
-32768	1020	-10820	4497	-24482	-21996	-22368	1552	-22276	-4819	-26921	-6362	-10660	-764	32767	938	-10084	-3899	-8352	6056	13864	3001	12070	-3739	-20676	-2604	-1796	-2759	14312	-4227	-20556	1188	7652	2180	10037	-2995	116	131	1
-32768	5472	-26800	3012	-13604	-8311	-6148	1696	-24416	1845	-9336	-3993	-16816	1340	30152	-1234	-1389	-3811	-8420	5520	14192	3734	17799	-3857	-21040	-4256	-712	-2454	16555	-4839	-20612	564	9904	4412	4915	-3688	124	123	1
-32768	8220	-31768	-4615	3345	1706	-8480	8300	-22000	2113	8990	-3029	-18348	2924	20000	-289	-1253	894	-8304	6324	14400	4311	24332	-3630	-21856	-2932	632	-769	19299	-5219	-20780	2704	12752	6367	-1098	-4258	138	121	1
-32768	1268	-22156	9589	25577	4277	-13956	8592	-17368	3956	20547	2786	-16008	1256	10952	-10537	-1406	-156	-7492	8312	14100	5337	32767	-5127	-25076	-1436	1604	1437	22445	-4712	-20420	4480	20476	7778	-10343	-3434	133	133	1
6652	13428	32767	-3308	32767	3315	-32768	12876	24816	15938	18576	6924	-22036	-264	7588	-8176	-2359	1444	-7376	10284	17624	7623	32767	-8848	-32488	-1388	5412	8598	24483	-4432	-22860	9092	32767	14256	-26945	-3331	136	130	1
-32768	7928	29936	-5051	26328	6199	-11324	22784	-18456	15429	25601	6263	-2008	7560	15880	7116	21132	3018	-4680	11904	17532	14189	32767	-18387	-32768	2524	10980	18493	25198	-1878	-19200	8580	31232	16451	-25131	-3683	119	130	1
-15336	-24224	3224	4949	13453	1950	-20744	-8468	-16916	-8674	24365	-1624	-16048	10480	-14144	-9185	10175	3660	-31164	14392	21596	17543	32767	-26318	-29604	6600	-2628	21725	22909	-927	-23428	5460	-4668	28877	-2913	-6160	134	142	1
-18044	160	19608	7142	8331	4639	-13144	-8456	-13192	13342	20460	1441	-18980	-12432	-15716	-7258	-169	-1797	-32768	14196	19744	19383	32767	-18887	-18224	-3216	-21924	5632	27324	-8026	-25028	10692	-11932	13650	-11962	690	113	120	1
-6312	-8872	14476	1244	4312	2010	-13408	5632	-10408	9694	14325	3488	-11856	76	-8968	-7621	9412	-402	-32768	23140	22544	19216	32767	-16508	-25920	-5584	-20808	-757	21780	-9333	-32376	-4500	-4560	-8745	-17442	7570	102	132	1
-11524	-3368	15060	-59	3284	2124	-20092	5148	-10884	-5618	11802	1967	-25208	-6752	-11132	-8120	11209	-1089	10412	1368	27964	4478	-15742	-17912	-19676	6252	7624	16210	7556	-2296	-32768	-4528	-8392	-6872	-17337	5784	124	125	1
-10608	-4892	14144	-402	1972	1174	-18696	116	-8416	10	9678	959	-21912	-3328	-3980	-2515	13433	2336	5944	11368	27096	5236	-20954	-14792	-9824	1844	3632	14912	1302	674	-25388	-4808	-5276	28	-17935	4649	116	112	1
-10052	-3424	14184	-1178	1309	-248	-16980	3372	-7896	2964	7000	719	-18220	-1048	-3756	1799	16847	4258	7576	11176	18052	-208	-25892	-10520	-8912	2740	2700	9614	-7271	5045	-22060	-20	-5860	1969	-15935	5617	128	122	1
-9560	-3976	14220	-1359	1272	-467	-17248	2308	-6460	1645	4806	312	-17336	568	-2216	1510	17132	5712	4076	8764	14256	-1019	-28080	-5556	-8400	1960	516	4764	-14805	7164	-19340	224	-6104	527	-13510	6878	143	116	1
-7872	-5836	13796	-2175	1941	-959	-17788	724	-3960	-5454	4631	-570	-18904	-976	256	-4488	15167	4736	-1232	9964	13088	1782	-30955	1388	-7824	-208	-2080	1587	-20190	8659	-15716	1616	-8352	-2703	-12685	9016	120	124	1
-7972	-5488	13720	-2207	2745	-183	-17772	-296	-3700	-9251	4892	-806	-17680	-2760	828	-7296	14881	3725	-5432	12524	12964	-964	-32768	9162	-9108	260	-4596	-2361	-25166	10061	-13564	1000	-8172	-4700	-11625	9809	128	125	1
-8432	-5364	13256	-2599	2992	8	-16704	-204	-3288	-8972	4825	153	-15404	-2004	1412	-8156	13935	3487	-7100	11000	12496	-4199	-32768	16504	-10708	-472	-3516	-4543	-30614	10264	-12088	1516	-7432	-5435	-11098	9424	137	132	1
-9104	-5468	13044	-2800	3779	-171	-15264	-360	-3192	-7981	4896	608	-13968	-4144	1240	-7514	12582	3966	-12024	11484	13400	-5392	-32768	22016	-12544	28	-5440	-7617	-32768	10466	-11956	876	-7492	-10266	-10167	9512	135	126	1
-9288	-5664	12236	-2570	3450	-305	-14088	-1208	-3488	-6306	5308	1153	-13576	-3360	3476	-7948	12561	4467	-12976	13136	12268	-7683	-32768	25046	-16108	704	-6284	-11550	-32768	10820	-10160	-1152	-8544	-14941	-11394	10501	123	129	1
-8968	-11192	11648	-1717	2242	558	-12324	-2336	-2272	-11106	7696	820	-13196	-4060	2896	-10538	14850	5092	-17868	13092	13600	-8600	-32768	26635	-19516	-3356	-6256	-14036	-32768	11035	-8204	-3544	-7360	-20372	-12889	10517	128	128	1
-9520	-6620	11964	-527	2042	1616	-14152	-4096	-3704	-1072	5709	1725	-14480	-7852	528	-8827	16396	3364	-18352	13892	15256	-9007	-32768	26386	-20880	128	-8624	-12451	-32768	12018	-7396	-4504	-3044	-23062	-12347	8765	126	124	1
-9040	-6832	11968	511	1208	2860	-13916	-2152	-3348	-744	7174	2594	-12328	-5628	-296	-3773	14938	2035	-19932	15408	18592	-7870	-29384	25468	-25108	-1748	-9640	-10487	-32768	12487	-8676	-3336	1844	-23778	-12178	8371	128	120	1
-9144	-5944	12456	363	799	3341	-13452	-1112	-4144	3509	7576	3017	-13248	-3628	288	698	13612	1177	-28080	14780	22268	-5401	-30965	23687	-24940	-2992	-13112	-5465	-32768	14339	-10912	-2928	5496	-19161	-11013	7003	123	128	1
-9556	-4924	12784	-93	1383	3425	-16212	2820	-4468	3412	8260	2614	-16808	-1116	1800	1078	12440	1776	-29540	11904	18220	-206	-32768	19415	-23772	-1508	-14848	903	-32768	17159	-12940	-1776	3228	-11723	-6976	5364	116	118	1
-8964	-4788	13812	-47	3100	3218	-18612	2736	-1628	1120	10152	2453	-19416	-144	3876	-1472	11201	2324	-32768	-3228	14440	4397	-32768	14503	-23120	-5296	-18016	649	-32768	16990	-12740	5648	12240	-1007	-4904	3898	114	123	1
-8872	-4952	13752	-821	6163	3343	-19228	-292	-780	1897	12397	3139	-19032	-5376	7944	-2566	10373	2562	-32768	9960	-2552	8317	-31748	9440	-21468	-5296	-22116	8782	-24558	14582	-9428	3448	20540	946	-1676	9355	124	126	1
-8860	-5628	13928	-1723	10600	3912	-20272	-576	-864	3638	14745	4128	-20628	-3596	8224	-1690	10227	1289	-32768	1924	-22700	-2444	-18311	361	-9312	332	-25444	3299	-12460	10662	-17644	1228	30088	57	-149	9223	125	121	1
-9100	-5196	14496	-3017	16481	4967	-21364	3376	-1712	2546	17541	4307	-20800	880	9168	-4498	6839	1194	-32768	-628	-27892	6991	-4102	-4176	-6452	-10356	-26216	-4350	6768	2562	-18024	-1760	22760	4103	-664	3837	123	111	1
-10344	-3388	14400	-4745	22858	5114	-22212	6408	-344	-2001	20045	4227	-22416	1096	12424	-8442	658	2933	-32768	10288	-18544	-4193	16927	3283	-12656	-7608	-24808	-2304	18580	-2839	-12488	240	8668	4752	-626	284	126	124	1
-10024	-5872	14308	-7225	32767	4800	-25964	4036	2884	-5629	23201	3992	-23716	-636	21096	-9569	-10974	4059	-20396	-720	-372	-13707	30584	7414	-17760	-11904	-13000	-12984	18971	-8061	-8940	2924	-4612	7067	2913	-2087	129	120	1
-10012	-7576	16928	-12460	32767	6032	-31508	2284	9564	-10344	26191	3502	-18396	-4000	32767	-11458	-26536	6307	-15052	-25776	32604	9362	32767	3364	-26704	-11720	-1728	-3593	17509	-4036	-29768	5936	24192	-2344	8980	1167	124	144	1
-9320	-12336	19520	-14402	32767	12244	-32768	-4452	9240	-19004	27414	3862	-20752	-8308	13352	-17427	-12725	4117	-31108	-21848	29692	14812	25849	-7821	-23392	-19660	-6816	-24887	28997	-10564	-12328	-15100	6100	-10256	18704	-7930	125	121	1
-32768	-15992	24828	-17255	32767	18514	-31360	-4144	-11140	-16525	30831	5620	-20048	-9716	264	-14956	-11504	2400	-32768	32767	9600	2005	955	-10468	-14556	17480	-24904	2518	27522	2737	-20476	-5712	-12016	13067	4719	-513	132	131	1
-32768	-14976	23644	-18010	32767	21468	-29724	-5804	-6280	-14137	22885	9840	-32768	-12008	-16572	1457	-14748	-864	-3320	-12476	21320	-2976	3513	-6375	-15472	-5660	-2608	-4722	19112	-3075	-14612	7404	-20220	28160	7463	-1714	135	123	1
-32768	-19956	31236	-14151	32767	26376	-18836	-1640	-15888	420	20160	8846	-32004	-584	-8228	11811	-19640	-6383	-8848	6548	14336	-1831	5434	-3553	-14332	-3028	-11500	5674	16575	-1372	-14332	8820	-15988	24684	13293	218	133	167	1
-32768	-27180	32767	-14823	4813	16636	-13856	-328	-20716	3338	15199	6267	-30296	-2956	-3224	10995	-20976	-6981	-12032	10680	10660	-1356	2547	-2262	-18912	-1228	-10640	11020	10346	-1972	-25376	12056	-8892	8520	14256	-617	123	149	1
-14572	-18788	32767	631	-30383	12263	-12136	-2072	-3076	-11475	2835	1527	-31340	-620	-7064	7506	-19037	-5011	-8696	6568	13752	-318	1586	-1690	-18944	-176	-7616	-8443	7130	-2977	-21704	-4972	-1540	-8624	17019	-3154	119	152	1
8988	-7400	14272	2345	-32768	9272	-8856	-2508	5472	-9962	-6091	-673	-26148	1932	-6608	2126	-18697	-7146	-7696	3976	14156	1736	2224	-268	-18740	-8736	-4892	-10347	5669	-2810	-18116	-4416	-492	-6007	16911	-5440	134	141	1
6508	-7428	10896	-1851	-32768	5129	-3100	-2120	280	-1022	-14351	-2869	-17748	2360	-6508	-2251	-17803	-7784	-7456	6332	13168	2867	2741	137	-15808	-2064	-3784	-795	5653	-145	-16892	-1180	-68	843	15369	-6478	125	110	1
6188	-8192	10400	-1998	-32768	4456	-2420	-536	-2068	2002	-20697	-6658	-16024	-3008	-8484	-983	-15066	-9171	-7536	7132	12696	2654	2705	-369	-17356	464	-4604	5845	6038	312	-15648	3028	444	3945	13582	-5333	130	102	1
-3764	-10952	12408	936	-32768	-4445	-5172	972	-4912	1979	-26793	-8595	-13892	-656	-9988	1118	-13063	-9319	-7052	6016	13500	2641	2592	-1073	-16844	1080	-2868	3432	4826	-153	-15092	2444	2536	937	13670	-4194	128	157	1
-7920	-10024	13636	-233	-32768	-12590	-4964	1608	-5440	1340	-32130	-9449	-11400	-2336	-10296	4052	-11257	-8309	-7924	7352	12588	2361	2735	-1914	-16112	288	-3588	1669	5488	-196	-15916	860	2204	1367	11639	-3698	128	147	1
-8540	-10004	13208	-331	-32768	-14060	-6968	412	-5516	2140	-32768	-11073	-9892	-288	-9520	5649	-10952	-6642	-8048	6224	12520	2094	3145	-1958	-16436	-1740	-3960	4517	5711	-158	-16780	976	2504	5590	10279	-3022	134	119	1
-13364	-9136	13820	799	-32768	-21799	-9304	380	-5356	5034	-32768	-12975	-8560	1628	-8444	8260	-10312	-5373	-8628	6184	12324	2321	3563	-1449	-14860	-3324	-3640	7338	6036	-224	-15148	1524	3772	6163	14366	-2524	138	121	1
-19036	-10496	16596	1637	-32768	-22084	-13364	428	-6436	6498	-32768	-14494	-8328	3052	-12720	13571	-6984	-4882	-8760	5320	12412	2615	3811	-853	-15052	-1636	-2824	4805	6107	-1069	-13736	2384	3292	9604	17169	-4161	113	122	1
-22372	-9584	16252	-1260	-32768	-22772	-18488	2264	-8304	8523	-32768	-15559	-8272	3164	-12436	14220	-6378	-4828	-8552	5592	12596	2645	3851	-744	-15064	-84	-3192	3980	7094	-1589	-15428	3432	684	11013	16257	-5531	129	122	1
-23456	-15908	16920	2560	-32768	-22709	-25944	1248	-10336	9470	-32768	-16634	-6996	5724	-6000	20271	-3963	-2592	-8024	7740	11880	1461	4356	-1996	-15792	2308	-4844	740	7861	-1933	-17268	5320	-32	2770	12836	-2977	122	120	1
-30780	-17036	19112	5222	-32768	-22368	-32768	1020	-14088	13081	-32768	-17932	-7152	752	-500	18881	-3876	-3160	-8436	7676	11760	1415	4554	-3078	-16596	844	-3832	-2396	8881	-2453	-16504	4488	2172	-1432	10459	-1108	124	117	1
-32768	3568	23592	-3653	-32088	-28523	-24764	6372	-20912	13506	-32768	-13381	-13320	-4976	416	14483	-578	-6314	-8440	7196	12460	1952	6380	-4100	-18120	-1100	-2992	-1457	10472	-2611	-16948	5612	6972	-875	9427	-2008	129	125	1
-32768	-4468	8192	-4197	-32768	-27725	-24952	7284	-24740	-5128	-32768	-10642	-24684	-9196	19452	7897	-9989	-7178	-8336	6716	13480	2858	9455	-4122	-18532	-1600	-1504	-369	13053	-3740	-16444	5572	9376	1991	9529	-3363	120	132	1
-32768	4108	-13632	5904	-25096	-18402	-18120	-1624	-22936	-5555	-24598	-5387	-8372	2060	31884	-5679	-7752	-4841	-8468	6252	13664	3623	14718	-4794	-20940	-2864	-960	-1665	15192	-4578	-20416	1296	11112	3468	9316	-3722	118	137	1
-32768	8896	-29288	1117	-14280	1307	-3536	4528	-26728	2926	-6547	-4904	-16560	700	26612	-634	-851	-4638	-8908	6592	13992	4197	20743	-4443	-21416	-4388	-68	-1722	17926	-5045	-20728	-792	14260	5309	2852	-3898	121	125	1
-32768	-2420	-32768	-7174	1958	5520	-8768	6560	-21272	-2966	11578	-3765	-16084	2428	16640	103	-992	2234	-8048	7336	14300	5039	29109	-4649	-23444	-3096	2464	-232	21457	-5009	-20532	1116	20000	6458	-5186	-3485	139	122	1
-32768	2684	-20756	10849	25635	3973	-12096	12996	-16088	673	21987	2712	-11748	2080	7416	-12691	934	2969	-7248	8148	15580	7113	32767	-6853	-28028	-3036	3556	2700	25246	-4139	-21824	4356	32767	5767	-21801	-2261	123	131	1
2880	18268	32767	-6488	32767	-858	-32768	9836	8560	19521	18349	6498	-26956	-3080	32767	-3609	-1953	5068	-2140	12484	19144	12416	32767	-12434	-32768	652	10940	13666	27232	-3266	-13024	3196	19584	16341	-15855	-7058	120	136	1
-32768	18840	32767	-8370	24962	7127	-10008	22380	-15276	8855	25734	8278	-18060	1040	-9428	-892	8552	8814	-3028	12448	18872	13389	32767	-14210	-32768	7756	10772	21699	23899	-1169	-21224	-516	-576	25347	-2705	-5826	121	131	1
-6476	-32768	-5092	6642	14014	3497	-23072	-13108	-17624	-2710	24784	-2004	-16676	-2132	-23228	194	9956	1415	-32768	17412	22084	18932	32767	-24302	-23092	5264	-16716	13732	26625	-2183	-27260	9188	-14716	22837	-6949	-3121	116	121	1
-24304	6044	23996	4916	5495	4549	-11916	152	-15756	17366	19353	4645	-7056	-8488	-15148	-9190	345	-2008	-32768	19988	32767	15984	20857	-14637	-22492	-12536	-26224	-1189	28824	-10508	-29664	2080	-1580	-6738	-19589	8614	93	124	1
-6940	-6264	15460	2299	4378	2703	-14464	2756	-11304	-1096	13466	2661	-18184	-6524	-13752	-9096	10589	8	-8144	10140	32767	13455	-7946	-16952	-25424	1096	6580	11685	11091	-3955	-32768	-5080	-8840	-10858	-18072	6068	100	132	1
-9712	-5768	13320	1078	2439	2242	-20900	1636	-10272	-8600	10387	3376	-24120	-7820	-7940	-6910	10752	27	1896	9616	25352	11237	-16701	-21710	-13524	5068	2812	20229	4474	849	-29696	-5820	-5840	-2720	-19782	4842	119	97	1
-10304	-4632	14344	1330	1606	2079	-18864	1408	-8644	5126	8048	2799	-20708	-3372	-3204	2281	16008	2342	2492	13144	26688	11273	-18418	-20449	-8568	2052	2120	14831	-3633	3664	-23336	-4156	-5608	2184	-19174	4713	109	117	1
-10244	-2668	14364	201	877	257	-16556	4516	-7184	7006	6556	2694	-17120	540	-2496	6741	18707	4634	4984	10388	14028	-933	-28004	-10555	-8292	1760	1048	8449	-11724	7243	-21496	-776	-5808	3083	-15107	6777	135	124	1
-8564	-4752	13968	-797	929	-463	-16648	3904	-6748	7141	6138	2618	-16660	644	-2300	6851	18610	5033	1520	9628	12364	2063	-30336	-3028	-6896	-4	-1316	3742	-18354	8857	-17256	-884	-7292	-66	-13166	9443	104	99	1
-7892	-5744	13608	-767	1213	78	-16756	1056	-2728	238	5045	1047	-17876	-588	1056	162	16390	4454	-3032	11340	12112	2924	-32768	5582	-6692	-1228	-3564	141	-23210	10770	-14476	-976	-8000	-2076	-13245	10162	116	138	1
-7904	-5780	13320	-184	1651	1160	-16792	-876	-2828	-3944	5314	467	-15848	-1984	1472	-3802	15243	2559	-4780	10508	10968	554	-32768	14027	-7584	-1356	-2756	-1927	-27723	12107	-11452	-1620	-7504	-1997	-12097	9143	131	128	1
-8160	-5352	13248	5	1557	2459	-15588	-1972	-2336	-1741	5072	1012	-13904	-2992	1164	-2312	14243	1879	-8012	9460	12068	-1425	-32768	20552	-9144	-1384	-3460	-4435	-32003	13154	-10720	-1660	-7372	-3143	-11237	7519	133	132	1
-8476	-4812	13156	778	1792	2884	-14768	-588	-1788	2409	5468	1377	-13932	-2704	3368	-1494	12891	1811	-10812	9036	13272	-2950	-32768	24751	-12020	-1364	-4452	-8783	-32768	13741	-9388	-2200	-7780	-6376	-10671	6740	125	133	1
-8992	-4812	13180	989	1712	3069	-14796	480	-3312	2157	6289	1585	-14624	-1416	6232	-3539	13330	2107	-14468	8800	15604	-4035	-32768	26552	-14516	-920	-6112	-10640	-32768	14185	-7384	-2604	-8740	-10618	-11308	5693	131	126	1
-8808	-4928	12956	1131	1298	3124	-14576	84	-3148	433	7605	1322	-14016	-3144	4196	-5338	14941	2290	-16388	8892	16696	-4099	-32768	26673	-19944	-4588	-6156	-9743	-32768	14776	-5776	-3316	-8120	-17217	-11133	5736	116	118	1
-9772	-4596	12884	1138	1068	3213	-14724	-820	-3924	1057	8676	1857	-15008	-5032	1472	-5324	14548	2172	-18600	8800	18352	-3688	-32768	26109	-23744	-4288	-7744	-7353	-32768	14950	-7760	-3920	-2960	-20957	-10852	6584	120	129	1
-9652	-4084	13116	1000	1252	3029	-14372	536	-5324	3437	9247	2182	-14436	-3168	-8	-530	12909	1406	-26776	13520	24756	-5505	-30694	24030	-25780	-4656	-12180	-4659	-32768	14830	-8884	-1544	1776	-19786	-10292	8272	121	121	1
-9336	-3328	13472	269	2037	2354	-15616	2808	-4964	3419	9754	2339	-15980	-716	728	329	11797	1699	-32768	9340	23876	-6217	-32768	22106	-26404	-5516	-14128	-3001	-32768	15004	-12344	3256	3632	-17605	-7980	9032	117	125	1
-9136	-3892	14052	-501	3641	1961	-17648	2092	-5052	1642	10614	2003	-17820	-1248	1112	-634	11917	2164	-32768	7880	16548	-2990	-32768	17385	-27620	-3492	-15480	1604	-32768	12641	-15684	5340	5284	-7598	-4899	7227	117	125	1
-9044	-3796	14248	-1166	6114	2010	-19036	1992	-4164	459	11717	2368	-18776	-2020	3200	-1961	11420	1710	-32768	8944	4560	-8455	-32311	10636	-26428	-3272	-21584	-4016	-32768	11882	-12764	3492	20920	-5416	-4293	6174	114	129	1
-8904	-3848	14408	-1293	6596	2081	-19496	872	-3312	-277	13473	2727	-18940	-2172	3412	-2070	11203	1597	-32768	5156	-15404	-1851	-24326	4103	-11444	-8648	-25752	-1440	-20475	8156	-16472	-7820	32767	-6201	-1703	4115	116	130	1
-8580	-4404	14452	-2209	14900	3934	-20152	2128	-2032	-688	15727	3166	-19568	-3036	8936	-4376	7245	2030	-32768	-3276	-31552	12539	-12386	-1263	-3740	-10308	-24036	4332	1917	5099	-17840	-3008	29384	-1384	-2498	882	118	128	1
-8188	-4656	15004	-2679	21507	4992	-22800	2332	-1100	-1381	18435	3508	-21520	-1580	12412	-6523	2499	2902	-32768	7912	-22924	558	10131	-16	-9844	-1760	-26252	5330	18645	-3009	-14772	2568	12532	6933	-1873	-577	122	122	1
-8264	-5708	15056	-2342	30301	6560	-25636	3104	896	-3658	21336	3139	-23940	-1304	20760	-7875	-8634	3634	-32768	4788	-5120	-9581	22615	-3884	-11612	-5068	-27728	-9151	25097	-6970	-10004	96	1188	7640	223	-693	125	119	1
-8528	-7972	15504	-2425	32767	10287	-30228	720	6608	-8407	24671	1407	-20908	72	32767	-11644	-22988	6573	25728	-15680	32767	-2819	32767	-344	-32768	-14280	32767	-17246	1588	-12491	-5444	3928	-1508	-6482	16220	-1003	118	127	1
-10392	-9912	17912	-4768	32767	16723	-32768	-2384	10480	-19931	26813	500	-18420	-7568	21468	-18227	-14854	4051	-32768	-3480	7268	6864	32767	-6055	-17484	-17848	-20224	-4979	26500	-6526	-30504	-9656	18760	-5217	12048	-4173	128	127	1
-8620	-8816	18652	-4950	32767	18218	-32768	-5584	660	-23703	28442	1757	-21676	-5880	3576	-18899	-12033	5315	-3708	10004	18572	14390	19012	-11264	-22648	872	-892	-160	22196	-3951	-21856	-17020	-7332	2550	8574	-1504	123	143	1
-32768	-9420	21248	-6787	32767	27398	-25348	-3248	-10760	-17800	28080	5462	-27772	-12304	-11328	-9889	-11231	519	-32768	21864	15572	-2562	9996	-7044	-10684	7604	-26880	-2610	19455	1855	-15984	4964	-20344	28917	8183	-1638	126	121	1
-32460	-15992	26888	-12654	32767	25699	-21648	-1704	52	-11244	20803	5751	-32768	-3192	-12456	3414	-18908	-4229	-5232	15416	12828	-1666	1793	-6395	-20616	-6920	-12392	1933	17156	-2374	-17808	8352	-14868	17608	12553	467	133	173	1
-32768	-17380	32767	-12754	25591	25759	-11896	-2544	-31792	-6484	15642	3342	-29184	20	-40	5541	-21989	-5336	-9128	2308	15284	-1195	2963	-2104	-18148	-2572	-7700	11949	8353	-933	-20132	9528	-9804	13100	13079	-2713	140	134	1
-14216	-18776	32767	-7950	-26121	13131	-15324	132	-4904	-10731	4256	329	-32768	-2296	-8048	3363	-18010	-6184	-8728	6116	13836	-103	3520	-1699	-17132	1796	-6284	1825	8550	-2327	-19896	2676	-3804	-978	14531	-4122	123	140	1
8432	-14588	18168	-3900	-32768	3171	-9680	-2724	6056	-10395	-4817	-2852	-27612	2644	-6168	295	-18044	-8072	-8128	5908	13248	1639	2493	-1404	-18436	-3848	-5508	-6575	5925	-2504	-18212	-2260	-1868	-3252	16184	-4830	133	143	1
7316	-12080	9904	-1974	-31356	-4957	-5212	-1492	2196	-328	-13967	-5326	-20688	984	-7184	-2576	-16227	-9591	-6908	5584	13428	2226	2383	-859	-17848	-2788	-3152	-3186	3915	-1057	-17432	-280	224	-1868	15090	-5736	131	118	1
404	-9096	11540	-2930	-30812	-13097	-3784	2016	-1712	5738	-20595	-7860	-13804	-1688	-7532	432	-14711	-10590	-6860	7772	12416	755	2451	-1545	-16348	1412	-2692	2041	4564	-473	-16816	3016	560	2406	14438	-5084	128	110	1
-4824	-8500	14332	-2923	-32768	-20339	-5300	2068	-4480	5255	-26636	-9533	-12380	668	-7836	1952	-11935	-10364	-7756	6840	12656	356	1944	-1829	-15988	612	-3368	2468	4081	-1196	-15960	5356	2024	-575	12340	-4168	120	131	1
-9540	-5640	15732	-1940	-32768	-25960	-6792	2736	-4820	4379	-32009	-10612	-12492	-800	-9408	1690	-11329	-9432	-7540	6308	12888	245	1586	-1988	-15564	-128	-1960	-1105	4360	-1694	-13624	1624	3564	-2799	11891	-3703	132	125	1
-12292	-3776	14824	-1085	-32768	-28878	-8308	2408	-4308	6039	-32768	-11617	-10276	464	-9128	6446	-10516	-8321	-7456	7352	12388	-286	1116	-2596	-15780	780	-2956	-1430	5127	-1594	-15056	1848	3036	-110	10691	-2779	136	123	1
-14492	-3536	14280	819	-32768	-27628	-9124	2568	-4324	10485	-32768	-12704	-8012	2848	-7464	11116	-11026	-5969	-7860	6504	12420	-54	1331	-2791	-17968	-2764	-2524	-1108	5800	-1883	-14880	2644	4252	418	13057	-1335	129	136	1
-18636	-2416	15804	556	-32768	-24855	-13476	3964	-4868	10780	-32768	-13289	-7640	4544	-10800	14683	-8499	-4533	-8124	4988	12820	561	1248	-2542	-15272	-3804	-2560	1637	5838	-1800	-14128	-852	4612	2776	18436	-859	130	134	1
-22164	-6028	17332	1223	-32768	-22541	-18488	4296	-8488	9659	-32768	-13449	-5984	5456	-9268	20160	-5901	-2873	-8340	5064	13036	1158	1683	-1616	-16628	-3088	-2556	4409	7396	-1426	-18468	184	2332	7601	16760	-3916	133	119	1
-24196	-7364	20620	4127	-32768	-21007	-23780	4144	-10224	7893	-32768	-13527	-6216	3856	-5240	22488	-3923	-2534	-8400	4940	13140	1673	2478	-1108	-17028	-1880	-2616	3056	8309	-2070	-19196	2060	796	3947	11726	-3898	132	114	1
-31980	-9448	23168	2435	-32768	-19724	-29996	5060	-12736	7153	-32768	-13929	-7440	1580	-2436	20455	-2279	-3032	-7816	6080	12928	1745	3439	-1466	-17328	124	-2556	540	9030	-2396	-16136	4332	3804	-810	9292	-2190	123	132	1
-32768	-5984	23936	-1504	-32768	-21048	-27012	4476	-18188	1323	-32768	-11595	-11976	-3088	-2772	12131	311	-5522	-7396	6340	13104	1986	4575	-1611	-16696	28	-1220	-1922	10570	-3640	-14904	4836	7084	-690	9375	-1755	124	134	1
-32768	-8076	12736	-182	-32768	-17305	-29728	4308	-19512	-3215	-32768	-10959	-24928	-6128	10400	2577	-5097	-6236	-6840	6160	13964	2509	7013	-2050	-18544	-1440	-1792	-1899	12919	-4337	-16608	3904	7620	3121	10871	-3421	125	138	1
-32768	3316	-4888	-2304	-28464	-16260	-20180	4116	-21356	-7144	-30311	-5779	-14536	-1080	32767	-3402	-9803	-2542	-7984	6636	14040	3783	11084	-3020	-20572	-2376	-2460	-724	14766	-4668	-20280	2844	6600	4106	9281	-3518	128	141	1
-32768	3164	-27388	-7042	-21243	-4705	-3044	3212	-24404	-9239	-9466	-6872	-16436	5364	32767	-2016	-4750	-936	-8164	5552	14188	4216	16158	-3729	-20328	-3536	-1428	-928	16905	-5437	-19860	1680	8056	4852	4287	-3989	127	121	1
-32768	9956	-32768	-19140	-4480	2159	-9612	6140	-19344	-11315	9406	-3176	-17224	-284	22036	-9550	-2970	3204	-7712	6176	14796	5041	23026	-4192	-22808	-2368	-1604	-2259	18846	-6249	-21272	2080	10180	4574	-1252	-4263	124	114	1
-32768	-6172	-10624	2241	12678	7439	-11384	1440	-20856	-3897	20764	2394	-14192	-3532	7064	-12522	-758	-978	-7144	7868	14440	5075	31830	-5843	-24932	-2112	240	-1904	20842	-5868	-20732	1432	18964	4737	-9348	-3780	125	121	1
-32768	-5800	-5484	4246	13482	7557	-15324	4588	-11396	3569	24863	4251	-5732	-3396	-7164	-11589	6491	420	-6640	8604	14840	6453	32767	-8853	-28192	-3664	4992	3180	23826	-4860	-18036	2788	32767	5545	-21376	-3276	133	127	1
25756	-6384	32767	5219	23879	-7529	-32768	11112	32767	4621	12550	7128	5740	-7820	-21204	-4450	22661	2261	-5584	11140	17244	10672	32767	-15640	-32768	720	10100	13053	26935	-4059	-16424	5872	23344	21093	-13644	-7321	131	135	1
-25724	12640	18148	-3752	32767	8194	-21816	-1116	-18872	25226	17759	8248	-32768	-8980	17496	10130	-3828	3230	-9932	13792	17604	16064	32767	-25591	-32768	6916	8356	19195	25403	-3690	-18908	4728	2712	25820	-2504	-7122	104	129	1
-26272	-29584	32767	3863	13168	19095	-20780	-7664	-11288	10679	19633	4670	-18744	10248	4856	14741	7101	-1635	-32768	14308	22392	13210	32767	-27081	-22328	5192	-13556	10489	22530	-3233	-24004	5732	-1348	26128	-2480	-6369	140	135	1
-16348	14696	24680	14769	13327	7554	-16116	2004	-9080	20834	19228	1406	-13060	-404	-13404	2016	13304	-8076	-32768	20840	32767	1586	32767	-25877	-19532	-4380	-26592	-1327	23074	-8933	-27492	4396	-6116	-5289	-17658	8823	125	115	1
-13968	-16292	11240	4775	3395	7820	-10952	6660	-15492	47	14628	2960	-12928	-3376	-11140	-6590	7114	-1113	-13688	17724	32767	-836	-3201	-13693	-27948	-6308	-3844	-4001	16813	-8601	-32768	60	-7040	-15956	-17784	8880	137	131	1
-12216	2888	16920	4844	1367	4877	-18416	2300	-11256	-1663	10066	2861	-18496	-5268	-9156	-8139	10047	-1686	3348	9224	28120	2803	-15141	-16454	-14452	8276	5576	14864	2980	-3390	-32768	-3600	-5540	-8965	-19576	5922	116	87	1
-10200	-2988	15204	2631	1095	2707	-19916	3072	-7612	-3	8160	2886	-21748	-2928	-4444	-2907	13959	787	7444	12520	21764	-709	-25168	-12158	-9684	2856	3320	11332	-4878	-769	-26508	-4684	-5196	-6613	-18840	6121	125	111	1
-9452	-3316	14580	1201	750	551	-16948	4916	-6536	3392	6658	1722	-19376	-460	-2932	375	16519	3420	5436	11156	17284	-3754	-29420	-6459	-7920	3060	952	4425	-13906	3647	-20524	-2948	-5420	279	-15740	7745	118	125	1
-8216	-3464	14216	528	752	60	-16288	1352	-4964	5491	5268	625	-16716	364	-1328	941	17226	5111	556	9776	14676	-331	-32768	-99	-7340	1532	-1332	1236	-20433	5303	-15236	1640	-6520	-1146	-13207	10225	123	117	1
-7764	-4580	13852	356	970	323	-16228	48	-3616	3943	4391	375	-16832	-1272	-388	-1459	16703	3232	-4412	10972	12932	2546	-32768	6615	-6408	280	-4012	109	-25573	7041	-12524	-352	-7220	-6571	-12278	11568	129	130	1
-7736	-6124	13344	2019	499	1724	-14988	-1888	-2772	1843	4601	-68	-14828	-4836	1012	-2634	15720	2282	-6772	12400	10572	1336	-32768	13334	-6716	700	-3384	-2022	-30005	9091	-10608	-2836	-6484	-3007	-11398	9300	145	125	1
-8532	-5316	13880	2415	107	2056	-15820	-2036	-2816	1888	5570	608	-14112	-6620	2776	-1773	14730	927	-8364	11728	9948	-2539	-32768	18406	-9212	108	-2700	-3822	-32768	10733	-10904	-1976	-7068	-6371	-11014	7409	129	131	1
-9616	-4240	14064	1644	118	2107	-15176	300	-1988	5284	6076	1308	-13672	-1848	4204	781	14767	813	-11264	10992	12296	-3779	-32768	22514	-12304	-1172	-5156	-6849	-32768	11982	-9588	-3868	-7220	-9630	-11081	5352	130	131	1
-7888	-3968	13844	1438	-108	1665	-15344	-12	-1832	5493	6794	989	-15848	-844	3768	-1282	14318	1416	-15960	11360	15080	-3474	-32768	26668	-14392	-2492	-6096	-8275	-32768	12785	-7652	-4024	-8660	-11541	-12373	4515	128	107	1
-8628	-4260	13796	1258	27	1733	-15896	36	-3428	3225	7823	913	-15524	-2552	3224	-4570	14175	931	-17292	10520	16088	-2536	-32768	29077	-20268	-3100	-6188	-7510	-32768	14607	-5816	-3732	-8032	-16531	-12160	5066	129	134	1
-8664	-3696	13884	559	358	1394	-15240	1684	-3408	-188	8624	1239	-14012	-4552	3912	-4086	14081	1157	-19556	10804	19036	96	-32768	28873	-24864	-4500	-8872	-4514	-32768	15285	-8032	-4076	-2928	-19282	-11217	6160	128	124	1
-8584	-3252	14688	-151	1017	908	-15280	448	-1616	-1309	9879	1230	-14420	-1816	4828	-3613	14635	1322	-20984	11236	19824	326	-32768	28673	-26108	-1360	-13032	-2132	-32768	16933	-9108	-3804	2748	-19958	-9849	8090	125	125	1
-7956	-4120	14556	-333	1952	1365	-17136	-1268	-3468	662	10901	1099	-15680	-1944	3704	-2726	16403	765	-32768	13164	21292	-6218	-32768	22400	-25068	-2428	-15116	-3218	-32768	17590	-11932	1280	4752	-14148	-6291	8099	119	121	1
-8252	-5152	14480	-1508	2969	2221	-17584	380	-3888	-236	11940	998	-17836	-3208	284	-2396	14945	972	-32768	5812	15156	1400	-32768	20716	-26112	-7712	-15076	1220	-32768	14113	-14732	5232	7032	1912	-2405	4365	125	124	1
-9020	-3720	13908	-1836	5747	2548	-18560	2584	-4976	-4213	13762	778	-20512	-3948	84	-5392	10840	1703	-32768	6696	4860	-3436	-29845	14915	-29360	-3816	-20576	1514	-30789	12404	-11276	7896	23348	3652	-1857	6950	122	123	1
-8100	-2880	15424	-2657	10086	2442	-19988	1984	-3540	-4514	15174	1840	-19876	-3068	3080	-5675	8838	1019	-32768	5716	-13828	-3410	-21868	4307	-12576	-3140	-23332	1254	-18847	8243	-18732	-400	32564	87	741	6366	122	125	1
-8108	-3404	15736	-3415	16043	2935	-20348	1956	-3752	-3971	15400	2080	-20792	-984	6224	-9135	7994	2579	-32768	-1104	-28012	9715	-10979	-4062	-6400	-9616	-24188	-1137	2328	5425	-20264	-1728	27660	-1304	-2895	2659	121	119	1
-7760	-3808	15348	-3826	22692	3533	-21588	2624	-2128	-3552	18529	2669	-20912	-2200	8640	-9098	3637	3010	-32768	10288	-22148	577	12340	-1244	-10908	-6644	-25056	4218	17859	-1645	-16472	1796	13796	3764	-3118	281	124	127	1
-8296	-5432	15476	-3863	30610	4853	-24116	1652	340	-4859	21016	2701	-23308	-2816	15056	-10553	-3382	2261	-32768	5000	-4588	-8575	25524	-340	-15780	-6668	-23664	-8101	23790	-6058	-9188	752	440	3342	1005	-899	125	120	1
-8216	-6932	15264	-3440	32767	7859	-27676	2368	3812	-8821	24308	1274	-24500	-964	32767	-9294	-23580	5089	14264	-25384	32767	-2220	32767	4316	-32768	-21568	32767	-19327	4618	-12146	-15432	3496	18040	-10395	6575	-2096	128	140	1
-8816	-9444	19116	-5098	32767	12903	-32768	-3348	12468	-18548	26267	575	-18244	-3008	29184	-12980	-18587	5894	-32768	-11324	16844	9727	29210	-7396	-17768	-14520	-17376	-13487	24287	-7075	-21016	-9928	10600	-11775	14019	-3425	122	105	1
-17580	-9244	21336	-8077	32767	22708	-32768	-2440	6028	-22910	27667	1249	-19716	-1340	7592	-16443	-12368	5119	-13160	32767	31168	2216	11584	-11221	-22500	6248	-6180	171	23054	-2076	-21548	-11816	96	2812	6490	-1845	129	132	1
-32768	-3260	18596	-5649	32767	25002	-25900	-4676	-12356	-20790	30023	2585	-22696	-11672	-7216	-17675	-13756	4196	-21868	-8268	28588	-2695	9077	-6502	-18032	7132	-14724	-7716	16525	782	-16200	7496	-19488	25797	9979	-1025	131	160	1
-29748	-19740	25252	-10989	32767	22972	-26496	-2400	3032	-15912	21577	5750	-32768	-5732	-11916	-1976	-19557	-2179	-780	29916	4320	-3851	1318	-8508	-15820	-1940	-13016	1554	16685	-2406	-13292	8752	-12604	17191	12868	3336	130	149	1
-32768	-15224	32767	-13091	32767	24520	-12876	-868	-30528	-4276	18949	4321	-29108	-180	-544	4217	-21927	-4095	-7960	2084	15528	-3957	1284	-5145	-18592	-4968	-8152	7297	8888	-3012	-20116	12380	-8316	9053	14995	225	136	168	1
-12876	-16096	32767	-6530	-19112	15592	-15448	1172	-8576	-9495	8668	672	-32388	-4168	-7308	2901	-18938	-4943	-10092	1568	15932	-3116	1225	-3757	-17676	-1168	-7284	-3686	8161	-2914	-21268	528	-1568	-9860	15827	-2390	139	131	1
7048	-13428	25872	-4508	-32768	7968	-11364	-3088	6788	-12091	-2101	-2379	-29704	1104	-5616	3799	-19513	-6640	-8064	3368	14612	-385	1756	-1286	-17720	-2756	-6656	-5881	7603	-3295	-18184	-6280	-928	-8724	16152	-4702	134	152	1
9740	-10876	11616	-4138	-30613	736	-6848	-512	3188	-3212	-11282	-4683	-22444	1672	-6176	-1498	-18725	-7717	-6332	4668	14096	1941	2976	-328	-17356	-2920	-4056	-8221	4999	-1264	-17028	-1820	168	-3546	15563	-5283	131	127	1
3768	-10040	11992	-4152	-29064	-7262	-4344	1212	-632	4005	-18926	-7645	-15516	-468	-7076	-307	-16025	-9548	-6868	6848	13344	2426	2987	-1160	-17448	-344	-3212	2496	5965	-87	-16708	3104	296	-236	14558	-4077	137	123	1
-3680	-9548	15096	-3959	-31973	-14951	-4860	2008	-4352	3857	-24700	-9089	-13004	-488	-8576	777	-14548	-9033	-7392	6704	12936	1523	2636	-2248	-16472	1276	-2972	2289	5450	-540	-15792	160	1860	247	13852	-3228	126	128	1
-8860	-7344	16820	-3381	-32768	-21679	-5648	2320	-6144	2788	-30516	-10506	-12484	-2212	-10168	501	-13295	-8244	-7204	6220	13120	443	2111	-2905	-16040	952	-3752	-2659	5825	-961	-15752	1732	3064	1136	12317	-2352	129	135	1
-10968	-4504	15112	-2970	-32768	-26638	-7532	1928	-4704	3392	-32768	-11435	-10796	-1632	-9604	3933	-11656	-7118	-8520	5948	12988	939	2357	-3272	-16964	-1640	-3984	-1685	6193	-839	-17384	760	4072	2105	12109	-2252	132	111	1
-12860	-3844	14148	-2193	-32768	-27163	-8404	1436	-4168	6814	-32768	-12471	-10904	-1372	-9744	4725	-11288	-7060	-8224	5804	12788	1361	2869	-3165	-17548	-3312	-4164	2297	6686	-174	-15980	172	3752	3519	15350	-2172	140	128	1
-17584	-3984	17116	-1444	-32768	-24461	-12420	2476	-6228	8658	-32768	-13766	-8240	2760	-10272	13006	-8985	-3913	-8664	4324	13172	1860	4292	-2125	-17028	-4244	-4064	3293	6777	-396	-15784	1516	2960	7041	18339	-3029	130	121	1
-21604	-6356	18844	-341	-32768	-21982	-17984	3280	-6892	7232	-32768	-14106	-6820	3452	-11892	17412	-5219	-2681	-8376	4352	13052	2830	5068	-840	-15500	-2716	-2416	1752	7650	-1188	-16948	2080	1092	7039	15959	-3916	142	123	1
-23980	-8856	20936	1799	-32768	-21011	-24556	3612	-10616	7279	-32768	-14217	-6400	3356	-7376	20103	-3247	-2463	-8116	6388	12532	3015	5909	-884	-15832	664	-3744	-405	8576	-1620	-17344	3132	1348	1155	11803	-2378	127	120	1
-31252	-12256	22604	2731	-32768	-19868	-32012	2456	-12660	6254	-32768	-15196	-7236	1544	-2828	18016	-2850	-3423	-8228	6712	12712	3107	6847	-1462	-17076	-180	-3668	-1304	9714	-2039	-15920	3260	2800	-2048	10180	-1175	126	117	1
-32768	-1352	21224	152	-32768	-20676	-27572	2404	-17336	6020	-32768	-13480	-12360	-5672	-160	14448	-2127	-7058	-8276	6612	12804	3231	8728	-2249	-17912	-1280	-2624	190	10923	-2154	-16560	3324	5652	1871	10804	-2291	123	122	1
-32768	-10444	11920	-4781	-32768	-19822	-26444	4992	-24136	-2828	-32768	-11501	-23232	-5824	11796	7812	-6188	-6933	-8372	6544	12676	3246	8976	-2369	-17988	-524	-2060	796	13231	-2811	-16700	4504	7260	5497	10328	-3411	128	131	1
-32768	2440	-8096	-785	-27885	-20144	-22580	2292	-23208	-4749	-29080	-5968	-11788	188	32767	-2736	-10454	-3243	-7804	6952	13372	3668	15336	-3634	-20100	-872	-1712	-612	15185	-3947	-18956	2296	8588	6303	9494	-2634	124	135	1
-32768	2776	-31532	-2730	-16576	-8248	-4864	1576	-25348	-5732	-9479	-5533	-16644	3960	31652	-2641	-3911	-2453	-8632	5900	13628	3871	20858	-3738	-20808	-4308	-460	-421	17510	-4590	-20172	452	11036	8789	5036	-3358	123	124	1
-32768	9240	-31864	-17434	-2351	-80	-6188	6724	-23536	-5764	9955	-4033	-17288	928	20540	-6463	-1805	2165	-8224	6600	14004	4230	28407	-4334	-22728	-2808	292	1238	20182	-4279	-21004	2444	13916	9133	-1885	-4111	127	123	1
-32768	-5968	-15400	-3507	12819	3008	-10772	3576	-22428	-2539	21682	1115	-12088	-832	5168	-13467	600	-191	-8148	8616	14224	4941	32767	-6699	-26092	-1936	2996	2904	23022	-3502	-21836	3212	25936	6218	-13720	-2620	129	120	1
-19268	-12108	488	19226	24058	-1223	-12960	7032	-12932	6660	24522	3047	-4644	-6920	-9392	-13825	9967	1133	-6548	11448	15620	8873	32767	-11359	-31852	-1220	10564	8372	25536	-2679	-11440	1044	29712	8230	-21844	-3368	127	129	1
32767	23448	28052	2265	32767	-8392	-32768	9532	32767	21419	8561	6607	-12056	-15960	-8584	1447	10606	577	-5784	11944	19916	16217	32767	-19801	-32768	2728	14060	19794	27557	-2806	-16008	2484	16480	26039	-6947	-6925	122	132	1
-32768	20424	32767	-2500	32535	19174	-11448	740	-26168	30097	20159	8744	-32768	-6408	31160	29825	-7021	3924	-32768	8944	17280	11824	32767	-27843	-32768	5520	-3100	19118	25206	-1484	-29632	9372	-12472	30690	-1740	-5102	105	114	1
3812	-20240	8316	14909	15517	9808	-26920	3308	-7308	23297	23579	1010	-23672	9968	-19832	15005	14690	-8156	-32768	23888	17792	13547	32767	-24823	-23904	2240	-21824	6548	25519	-4664	-31788	6964	-10388	5622	-16406	6297	115	128	1
-15176	-8540	13724	4046	1560	7476	-6684	10516	-19152	15866	20091	5308	-9392	1404	-19444	-1768	6175	-7392	-32768	17920	32767	577	14123	-16649	-18464	-14888	-32768	-4318	21992	-11849	-31532	-4	-2824	-13999	-19500	8927	102	121	1
-10360	-140	15920	4243	1011	5066	-11196	2956	-13356	-7684	15113	1111	-13012	-3432	-12188	-10777	9182	1698	3696	488	32767	9685	-21664	-12987	-22320	-2412	12368	9445	8392	-4692	-32768	-5992	-8324	-12085	-19947	6824	118	111	1
-9412	-3096	14884	3638	1281	3421	-21296	-284	-9844	-7060	10359	1741	-23788	-8248	-9044	-12441	10701	-1297	4308	13152	27352	11455	-26113	-11448	-19804	1188	11244	14727	7427	-3881	-28432	-7484	-5716	-2447	-20762	3711	105	111	1
-10592	-1248	14776	1979	1050	1431	-19912	1392	-8356	8250	8528	2936	-23384	-4668	-4808	484	15877	1040	6552	14004	16584	413	-29238	-8488	-8296	4048	1104	11402	-9164	5755	-24624	-3488	-5432	6175	-17861	5321	110	126	1
-9176	-2300	14472	558	1194	425	-15512	4592	-7196	12151	6256	1532	-18708	676	-2756	5453	19222	4834	3268	9384	13688	-3831	-32218	-2984	-5220	2136	-308	1989	-16534	8180	-16480	-1756	-7084	5215	-13567	9142	128	123	1
-7848	-4180	14124	-529	1520	-99	-15996	3376	-4100	5290	5588	807	-17132	508	440	3381	19010	3847	-1652	7588	12012	926	-32768	4579	-6208	-1100	-2360	-269	-22021	8943	-14132	2572	-8396	-903	-11850	11036	127	126	1
-8260	-5252	13824	-656	2004	557	-17684	516	-3304	-2681	6400	-939	-16188	-516	-68	-2290	16019	2729	-4888	9092	10892	3055	-32768	11685	-5496	-4	-3560	-1523	-27269	10123	-11044	-768	-8460	-4436	-10785	10566	132	129	1
-8428	-3736	13952	-328	2116	1256	-16624	-1540	-3588	-2232	6062	-417	-16008	-3172	996	-2814	15263	1723	-6728	9884	10276	555	-32768	17170	-7640	456	-2772	-3741	-32142	11806	-11124	76	-8776	-3490	-9207	8135	138	142	1
-9128	-4304	13404	-1065	2284	1650	-15096	-1136	-3900	-385	5320	-106	-15168	-2944	872	-1816	14344	1502	-12160	10256	13712	-2586	-32768	21259	-10468	-1648	-5584	-5740	-32768	12406	-10100	-2296	-8348	-7881	-10749	6212	135	133	1
-9236	-3848	13624	-777	2733	1458	-15456	348	-3760	-1509	5853	311	-13400	-2592	3148	-3814	13729	1153	-15876	8936	15284	-2772	-32768	24768	-14900	-2776	-6080	-7774	-32768	12894	-8956	-3600	-8968	-10044	-12457	5985	129	136	1
-9420	-4540	13780	-417	2502	1415	-13756	-2572	-4304	-3218	7943	-293	-13988	-2732	6660	-5632	16941	475	-17068	9020	12904	-1178	-32768	26118	-19472	-6224	-4428	-5066	-32768	13735	-7064	-4444	-8912	-14902	-12343	6026	127	111	1
-9320	-4644	13244	40	2311	1370	-14604	-888	-3256	-206	7306	829	-14240	-5132	2844	-9840	19266	2218	-19800	11756	16812	-2464	-32768	25551	-21236	-2664	-8088	-1778	-32768	15757	-6172	-4604	-6992	-19028	-10542	6071	124	119	1
-8164	-5104	13440	-202	2343	2034	-14452	-328	-1872	-2134	8401	726	-14752	-5088	2152	-9863	18847	2435	-23224	13584	19484	-2344	-32768	24169	-24768	-1712	-10756	-2933	-32768	16921	-7768	-3800	-260	-19561	-10002	7369	127	129	1
-9412	-3492	13340	-429	2705	2094	-14988	248	-3644	-696	9409	1091	-15644	-3688	-104	-2939	11263	1891	-32292	17568	22788	-4729	-32768	22699	-26620	-3120	-14808	-4268	-32768	18418	-9556	-1188	4836	-19822	-8500	8346	127	121	1
-9344	-3484	13752	-803	3732	2023	-16540	1124	-3868	-134	10439	1240	-17012	-2768	2492	-813	9688	1974	-32768	2544	20188	296	-32768	26436	-22824	-10516	-14980	-3946	-32768	14858	-12920	4344	3600	-7527	-4215	5120	116	123	1
-8808	-3452	14112	-1305	6188	2223	-18632	1924	-3004	-871	12109	1405	-18744	-2896	5396	-3611	9556	2254	-32768	8344	7124	-3913	-31716	22179	-29028	-3524	-19880	-1860	-32768	12657	-12692	7944	19576	498	-5338	5516	112	123	1
-8664	-3824	14672	-1748	9869	2427	-19756	1692	-2888	-2256	14213	1969	-19160	-2548	6352	-6668	9652	1684	-32768	4864	-10840	-11874	-21954	10763	-18840	-3304	-26184	-6899	-25121	7806	-14416	1032	31036	-2786	1893	7225	125	125	1
-8788	-4232	14728	-2456	15224	3394	-20704	2328	-2156	-2907	16454	2080	-20048	-488	7012	-7458	8282	2131	-32768	-708	-28708	2646	-13665	-1253	-5076	-8988	-28456	-10183	-4110	5649	-20580	-2832	31948	-8957	-2243	4671	119	134	1
-8852	-3580	14964	-2436	21262	3978	-20616	3224	-1696	-3323	18561	2329	-20464	-996	9104	-8256	3117	2495	-32768	7792	-26888	7915	6391	3059	-12068	-9416	-24128	1768	15908	-1396	-16168	-1528	17096	928	-3674	-1217	124	125	1
-8980	-5436	15108	-2034	29117	4676	-24088	2148	516	-4217	21064	2551	-22504	-3152	14720	-8482	-4358	2111	-32768	4016	-8080	-5975	24577	-81	-13244	-4236	-25432	-2658	22928	-5761	-12240	320	1344	7974	1280	-2261	115	125	1
-10160	-6160	15444	-3553	32767	6732	-28608	3996	3812	-7634	23838	1241	-24580	-104	32767	-7747	-24680	5619	9768	-3812	32767	-4976	32767	-1401	-32768	-10584	32767	-9389	1667	-10110	-12596	2752	7120	3989	2010	-1875	124	123	1
-9988	-9404	19304	-6863	32767	11352	-32768	-332	12568	-20034	25937	-45	-17648	100	31712	-13989	-17731	6961	-32768	5040	15772	7243	32767	-7414	-19468	-12040	-20732	57	22665	-5115	-18196	-2012	11756	-3759	16384	1479	123	126	1
-15840	-10920	23184	-8965	32767	19789	-32768	-4036	8200	-25843	26622	1219	-20128	-5592	8668	-20393	-11868	6002	-4072	9552	32380	7562	20918	-14956	-25700	-3356	-1340	-6265	24359	-4672	-16936	-16460	2264	4742	7720	-6634	129	141	1
-32768	-3188	20900	-6824	32767	23361	-28584	-5276	-12080	-22735	29286	3113	-23012	-14580	-4444	-18475	-13524	4083	-14408	7592	14340	-3082	7803	-8545	-20592	11588	-22512	-7427	19929	801	-16804	3544	-15144	18085	7358	1097	127	140	1
-31564	-20848	23380	-10974	32767	22403	-28760	-4808	540	-15527	21364	7075	-32768	-7740	-12492	1909	-17219	-3102	-11668	23464	7292	-2485	3125	-7445	-14240	-6432	-12376	-2715	20262	-3766	-14840	6076	-13940	16198	10851	2501	137	150	1
-32768	-17220	32767	-10737	32767	26787	-13660	-2784	-30104	-1818	18722	4797	-29248	1536	-608	8824	-21812	-6362	-10576	560	16320	-1353	2681	-5022	-17516	-7444	-11316	5868	10830	-3010	-20264	9476	-12288	11542	14641	-151	137	154	1
-13180	-14508	32767	-7740	-16647	15117	-14852	4064	-13540	-5598	9412	2409	-32684	-3092	-7120	6292	-19704	-6482	-9232	3260	15344	-295	1996	-2148	-19816	80	-8804	-2044	9484	-2846	-23380	1708	-4484	-7404	15819	-2416	129	134	1
5556	-15584	27060	-6410	-32768	6575	-11444	-2844	4692	-13984	-767	-1643	-30836	2324	-5712	5088	-19590	-6607	-8976	2892	14876	1300	2242	-813	-18312	-7980	-6204	-9167	6520	-3165	-20976	-7100	-2284	-7733	17037	-5048	131	151	1
8596	-11132	10884	-3972	-32768	676	-6984	-1812	3268	-5957	-9775	-4799	-22728	4768	-6404	-3587	-19058	-7828	-7556	5036	13760	3051	2855	330	-17848	-4556	-4348	-3123	5524	-562	-18208	-3208	-564	-2290	15146	-5293	127	126	1
3504	-10644	10652	-3549	-30568	-5364	-2092	-368	-548	2141	-17285	-8449	-16580	-1048	-7812	-6955	-16814	-9466	-7344	6708	13056	3338	3416	-109	-17168	-360	-4200	5381	6071	590	-17412	2424	-336	4349	13913	-5333	126	120	1
-2488	-9692	13456	-4043	-32768	-12242	-4668	176	-4272	3284	-23214	-10364	-13928	-2460	-9616	-3104	-13917	-10619	-7084	6988	12668	3320	3907	-1007	-17980	1236	-3072	5775	5093	223	-17336	1808	740	2891	12867	-4563	127	103	1
-8016	-9320	14872	-3652	-32768	-19305	-4984	276	-5712	4117	-29404	-11183	-12748	-5300	-10864	-470	-12220	-10251	-7968	6480	12608	2516	4007	-1735	-17536	140	-4208	3161	4878	-347	-17064	1944	1972	3791	12684	-3868	126	143	1
-10764	-7600	14268	-1987	-32768	-25252	-6808	360	-5712	6352	-32768	-12039	-10944	-2960	-10624	4151	-10253	-9039	-8504	6052	12232	2671	4550	-1455	-16092	-2960	-3348	2924	4984	-729	-13892	676	3916	3820	13425	-3725	130	127	1
-13000	-6348	14576	-1299	-32768	-29183	-8708	688	-5612	9759	-32768	-12281	-9020	-60	-9500	7637	-9905	-7761	-8380	6180	12228	2225	4614	-1179	-15496	-672	-3548	2779	5602	-811	-13940	1000	4068	3796	13202	-3535	131	125	1
-16644	-7944	15860	-347	-32768	-29403	-11684	1832	-6588	10715	-32768	-13059	-7708	2784	-9848	12533	-8184	-5933	-8696	6672	11468	2012	4536	-1356	-14884	512	-4248	854	5796	-1372	-14232	3904	2680	5780	17121	-3402	137	127	1
-17496	-8228	16624	1	-32768	-29120	-14488	2824	-5892	10061	-32768	-13970	-6144	4432	-12556	17938	-4679	-4615	-8776	6708	11572	1515	4020	-1770	-15184	-180	-3840	-465	6688	-1875	-13808	4784	1188	7127	18255	-3673	137	108	1
-23996	-10356	18228	-217	-32768	-25914	-20340	1264	-9816	6146	-32768	-15339	-4872	6468	-10000	22881	-4436	-3046	-8548	7396	11560	1000	3612	-2493	-14368	1244	-3712	-1156	7428	-1833	-16512	3700	-76	1196	14676	-2832	126	118	1
-30172	-16248	21172	4363	-32768	-23744	-30516	-92	-11712	7925	-32768	-17666	-4592	4384	-4528	19848	-2498	-3049	-8924	6560	11644	624	3760	-3434	-15260	-232	-4084	-2848	8591	-2100	-16816	3276	444	59	13956	-2437	124	112	1
-32768	-9496	21984	3570	-32768	-24537	-28684	688	-21104	12442	-32768	-16091	-8168	-5364	36	18238	382	-6596	-8824	5744	12524	1274	5116	-3535	-17660	-3380	-2564	-2650	9915	-2233	-16868	1280	5204	-1127	9739	-1733	123	128	1
-32768	-10776	16164	-8671	-32768	-29834	-29212	11856	-24468	-1928	-32768	-12121	-21480	-7196	12192	9386	-1179	-8782	-8656	5604	13292	2127	7722	-3498	-17884	-2700	-984	-609	12102	-2623	-16564	3448	9440	2642	9805	-3021	117	134	1
-32768	4764	-5324	-1688	-31025	-27891	-23136	3152	-17696	-9371	-32369	-6991	-15544	-3972	32767	2084	-8290	-5016	-8372	6464	13764	2946	12291	-3760	-20044	-1640	-932	-1437	14774	-3360	-19412	1112	11272	4012	10622	-2324	120	139	1
-32768	6676	-30580	2066	-17050	-7790	-4156	-16	-27396	-267	-11761	-5902	-14492	4712	32767	2604	-4851	-3871	-8572	5892	13592	3271	17801	-4103	-20000	-3880	-256	-2317	17581	-4089	-19664	-464	11764	5984	6231	-2447	130	126	1
-32768	13856	-32184	-15382	-4459	3782	-5280	10968	-23564	-2026	10277	-2509	-18620	340	24488	-2317	-2974	2503	-8800	5904	13992	3674	25296	-3719	-22852	-3632	-260	-1470	20611	-4023	-21148	2320	13692	7425	-779	-3106	128	122	1
-32768	-3888	-13732	3199	14932	6448	-11244	8080	-23520	-930	22642	4404	-11752	876	5072	-9768	391	877	-7568	8788	14076	5047	32767	-5475	-26652	-2228	2624	1197	23616	-2587	-22240	1712	23780	7344	-12694	-2332	127	126	1
-12664	-4912	22288	8156	20774	5181	-18296	1056	-1620	-4617	24680	4957	-4748	-2324	-6968	-11858	8088	4808	-5816	9440	16404	8778	32767	-9858	-27176	-2488	2792	1880	24164	-2254	-16992	3696	32767	15218	-28274	-3850	123	132	1
32767	21536	10188	-5481	32767	2337	-32768	12408	32767	14376	11772	4504	-13536	-8664	7788	-6947	7953	5395	-4284	9848	20192	17207	32767	-17416	-32768	-748	13156	22890	28521	-1074	-19760	2484	18552	28425	-11449	-8491	120	130	1
-32768	5496	32767	-8961	32767	10070	-17840	9636	-18628	21412	22328	10585	-32768	-6024	14288	14963	-3543	3870	-28048	12072	17312	15038	32767	-25045	-32768	4428	-348	27206	26225	1432	-29844	6472	-11096	32767	-1993	-8054	117	126	1
-11212	-25484	-4756	14119	18203	7657	-19868	-9212	-17384	13894	25576	1531	-32768	-4088	14664	16830	-2927	3724	-32768	18872	18436	17799	32767	-20442	-19640	1192	-24300	9430	26181	-4519	-29392	12504	-12244	13227	-10813	4459	145	142	1
-22200	5340	24032	9375	8717	8691	-19900	-4752	-11284	15598	24236	1316	-8800	196	-20928	-10402	2017	-4315	-32768	14788	32767	6689	6805	-13971	-21968	-13424	-30980	-5995	24933	-12414	-32768	2608	-5212	-14251	-18025	9232	105	123	1
-7324	-6920	16324	3507	4393	2906	-13248	2504	-13740	-12094	14215	1250	-17340	-4408	-14264	-11708	9582	2124	5844	692	32767	14043	-18688	-16955	-21564	3440	12572	14952	8137	-5581	-32768	-2748	-9196	-14482	-19435	7738	107	93	1
-10464	-5940	14392	1351	2388	1325	-21548	464	-10884	-5398	10043	1857	-25780	-8940	-9588	-8586	11493	150	4584	17084	27908	6311	-22824	-16155	-10872	6520	1012	17424	1339	-1675	-28928	-3208	-6272	-9693	-19479	5430	116	115	1
-10192	-4560	14264	549	1714	753	-18896	3180	-9752	5643	7599	1995	-23436	-2504	-4616	413	16394	2748	7080	14352	18252	-8081	-26739	-11614	-7456	4300	1624	5209	-10294	2282	-21960	-4528	-5804	1822	-16119	5887	135	120	1
-9360	-3824	14392	-872	1249	-733	-16000	4844	-7540	4556	5290	1039	-18068	2068	-2160	1441	18282	4781	3056	9004	15324	-7774	-30504	-4159	-7556	632	-156	-1549	-17961	3817	-18264	2188	-6912	688	-14175	8314	124	121	1
-8240	-5108	13804	-1693	1044	-1173	-16440	2224	-4460	-1422	4316	-44	-16964	1076	-188	-2053	17695	6473	-2992	10272	14144	-2368	-32768	4305	-6196	-644	-4124	-1310	-23735	4759	-14964	3428	-8712	-7068	-12210	10981	117	124	1
-7820	-6452	13432	-1375	1331	-557	-17052	-652	-3484	-6193	4837	-706	-17296	-2536	1240	-6413	15694	4633	-5316	11360	10876	-2861	-32768	10770	-7100	1520	-3808	-2491	-29448	6495	-11216	-932	-7480	-9936	-12088	10450	125	126	1
-8000	-6248	13104	-1406	1521	25	-16396	-1984	-2640	-7097	5446	-230	-14884	-3504	940	-9668	14537	4048	-7644	11888	10628	-5317	-32768	14808	-9736	1392	-4044	-3467	-32768	8083	-11756	-1124	-7528	-6776	-10766	8835	127	129	1
-8288	-5656	13160	-1301	1807	495	-14884	-2456	-2796	-5180	5139	633	-13596	-5712	1444	-8268	13315	3270	-14420	13348	12892	-7275	-32768	19146	-12348	1332	-6332	-7503	-32768	8992	-11516	-472	-8516	-12112	-11853	7899	137	127	1
-8084	-6196	12756	-945	1950	1022	-14716	-2216	-2636	-3468	5402	1039	-13500	-5380	3340	-6429	12422	2691	-15840	12960	12332	-7758	-32768	23532	-15448	-20	-6008	-11080	-32768	9430	-9784	-2724	-8392	-15536	-12723	8231	136	122	1
-8104	-6192	12636	-771	1995	1142	-15316	-2940	-2884	-2597	5931	1468	-14072	-4520	5932	-7072	15196	2270	-15696	14116	12648	-8037	-32768	26025	-17632	-988	-6776	-11445	-32768	10402	-7324	-4400	-8000	-19912	-14440	8202	127	127	1
-8680	-6312	12628	719	1438	3277	-15132	-3004	-2976	-1378	6701	2370	-13044	-6620	3692	-9890	18594	1956	-17952	13380	15788	-7491	-32768	27303	-22100	-2016	-8456	-9658	-32768	11690	-6808	-5264	-5296	-22610	-13776	7694	123	115	1
-8032	-5980	12776	1823	638	4760	-13516	-2268	-1984	1220	7801	2550	-13964	-6596	-568	-7609	16857	2748	-22508	14880	20664	-4590	-31563	25565	-24124	-1812	-12192	-6105	-32768	13401	-6768	-5048	-4040	-22117	-13565	7415	130	132	1
-8528	-5868	13232	2200	654	5795	-14536	-848	-4328	2786	8461	2235	-15960	-4244	-164	-1628	12458	2261	-30956	15756	23352	-4237	-32768	22018	-24456	-1760	-14888	-3518	-32768	15836	-9492	-3200	3848	-18727	-8327	6097	125	118	1
-9392	-4092	13668	1305	1734	5335	-17160	2848	-4296	2841	9492	2287	-17980	-2016	2452	1498	11569	1988	-32768	14220	18136	-3163	-32768	16599	-24240	-364	-16720	46	-32768	18520	-11516	-1316	652	-8984	-2830	4135	119	123	1
-9328	-4132	13652	-112	4203	4406	-18676	3128	-3244	2144	11072	2206	-18676	-1692	5140	243	11623	2318	-32768	-252	13252	8408	-32768	14800	-26812	-11732	-17992	3924	-32768	14956	-14952	4604	15464	-138	-5850	3655	118	128	1
-8916	-4140	14432	-1873	7985	3282	-20272	3208	-2388	1385	13101	2865	-19924	-2516	6444	-1169	11587	2517	-32768	8936	-4580	-524	-31020	8887	-25752	-1808	-26124	5383	-25130	12769	-11644	4036	25760	-1678	-549	10199	123	127	1
-9712	-3672	14728	-3173	13384	3382	-20900	1764	-1776	1716	15568	3361	-19832	-1652	7868	-1847	9731	2574	-32768	1328	-27816	-4273	-18357	-1812	-6632	-1956	-27512	-2922	-9733	7433	-18968	-84	32767	-1082	-928	8005	121	127	1
-8836	-4112	14764	-4313	19812	4005	-21460	3920	-1236	1085	18017	3617	-21480	-96	9948	-5068	6430	2822	-32768	-2036	-30260	11079	-1509	-2117	-5456	-13988	-26460	-4786	11812	97	-17700	-4132	22196	2106	-1565	835	120	121	1
-8908	-4980	15036	-5513	27487	4320	-23284	3356	1688	-1233	20875	3613	-22376	-640	14496	-7177	-570	3014	-32768	8364	-16216	-6851	20922	4241	-7676	-8948	-31340	-1777	23277	-6189	-11304	-164	5364	7123	673	-1378	125	118	1
-9336	-7184	14576	-6353	32767	5642	-26364	2604	4356	-4934	24215	2529	-23532	-440	27392	-8153	-16811	4159	1312	-5620	32767	-7881	30363	913	-32768	-10572	25508	-7858	6087	-10410	-8220	1704	-1092	8455	3888	-3491	125	115	1
-8452	-10068	18436	-8057	32767	10073	-32768	-2404	8292	-12831	26635	401	-15628	-5664	26768	-15977	-23353	6191	-31168	7552	11912	7505	32767	-5279	-21496	-12196	-19076	9471	23205	-3562	-21068	-1056	17796	994	17866	217	119	110	1
-10892	-10488	20056	-12140	32767	19019	-32768	-3924	8364	-24434	26833	713	-23044	-6704	10308	-17161	-12470	4245	-9484	-788	26796	15742	21075	-7034	-30088	-16092	3400	-11621	26473	-9105	-14948	-12156	-16692	11714	13852	-10542	130	140	1
-32768	-13256	25196	-14952	32767	21731	-24456	-3700	-14148	-24006	31835	3949	-19188	-10584	-3220	-18030	-13362	2783	-32768	32767	7780	-6285	8924	-9168	-11024	25216	-30692	1737	21578	3064	-16372	3852	-15036	20197	4298	-904	132	151	1
-25488	-15868	20888	-18556	32767	22032	-30164	-2660	908	-16812	23658	6930	-30256	-7928	-13984	2395	-17178	-2297	-4188	-12	18248	-3153	327	-7881	-16624	-5900	-7692	-9646	21152	-5736	-14712	7192	-16376	19454	10617	1665	138	162	1
-32768	-18348	32767	-27132	32767	20762	-14216	1396	-26104	-4004	21300	7243	-30084	1068	-5276	6581	-20436	-4845	-13964	912	14916	-2321	5139	-5058	-17004	-6596	-11488	3701	12753	-2335	-19992	9584	-14008	15586	15210	1557	138	165	1
-12256	-23256	32767	-10352	-11727	13133	-15672	2184	-17288	-10182	11679	3047	-31320	-2412	-7364	4718	-19301	-4741	-12268	7400	13188	-1782	3105	-2533	-17816	-7960	-10920	5859	10985	-2519	-23056	4080	-4400	-2372	15007	-1043	123	134	1
4168	-17788	31412	1855	-32768	5613	-11680	-3972	3172	-14280	153	-1697	-30072	-828	-6308	3077	-19321	-5568	-9620	4088	14112	934	2230	-1065	-17904	-5828	-7040	-8866	7298	-2854	-20440	-10136	-736	-8730	17995	-3817	143	148	1
7428	-7860	13056	2342	-32768	402	-6832	-2188	3500	-3641	-8462	-3467	-22536	2416	-6304	-1567	-17522	-7675	-7484	4800	14176	3314	2791	289	-18828	-6756	-4372	-5486	6204	-669	-18116	-3920	-276	-1406	15538	-5741	131	133	1
5892	-7800	10528	-2369	-32263	-4819	-3616	-1432	-316	3292	-16411	-6227	-18032	-1184	-7800	-3148	-15797	-9563	-6916	7112	13280	3736	3335	56	-17288	-456	-3436	3103	6678	1117	-17040	1752	-728	4763	14154	-5831	130	133	1
-1920	-9892	12192	-1414	-32768	-8893	-4160	-776	-3716	6325	-22257	-9030	-14536	-2952	-8344	85	-12981	-10676	-7728	6292	13328	3344	3350	-463	-17732	128	-4676	7265	5929	254	-16196	3812	484	5913	14733	-4868	133	112	1
-6776	-9124	14684	410	-32768	-14163	-5184	1828	-5572	6122	-28443	-10233	-13888	-2608	-8864	835	-12539	-10723	-7896	6632	12900	3186	3726	-1082	-16556	468	-3344	4751	5135	-143	-16244	1924	1744	3766	13572	-4137	121	118	1
-9328	-7204	14260	952	-32768	-19913	-7040	1452	-5240	4645	-32768	-10916	-11712	-1936	-9324	3324	-10868	-8009	-8032	6332	12516	2809	3849	-1209	-16312	-1284	-3156	3452	5560	-450	-15004	432	3216	4777	12784	-3188	126	113	1
-11780	-6952	13364	1279	-32768	-23021	-9400	1280	-5008	6046	-32768	-12096	-9600	-312	-8976	7138	-10263	-7168	-8108	5952	12476	2976	4371	-955	-18716	-9192	1200	7672	6348	-334	-16288	944	2996	6861	9743	-3603	133	114	1
-15268	-8136	14076	3874	-32768	-23035	-11864	1468	-6008	8207	-32768	-12696	-8080	1452	-8680	11769	-9802	-6039	-6296	6172	11892	3041	4179	-1125	-12484	10692	-14772	6083	8957	1930	-14620	4500	3280	6816	13032	-4578	130	128	1
-20516	-6052	18196	3894	-32768	-22412	-15348	3420	-6576	9155	-32768	-12365	-7652	2516	-12164	16999	-6254	-6153	-8016	7440	11800	1719	4180	-1589	-12448	1076	-2300	-855	6702	-2931	-13052	6472	800	5553	17754	-4461	125	137	1
-20992	-10060	16940	4740	-32768	-21973	-19656	2296	-8560	9286	-32768	-12876	-4776	4460	-9748	21660	-4595	-5216	-8828	6824	11584	1259	3954	-2227	-15560	136	-4456	-2355	6997	-2437	-14568	3408	-196	3919	17282	-3723	130	133	1
-23172	-12748	20360	7715	-32768	-20255	-26212	1980	-9448	9054	-32768	-13978	-5452	3576	-5348	21259	-2790	-4029	-9048	6316	11644	841	3727	-3009	-15180	-1068	-4392	-855	8005	-2260	-16720	1612	-200	131	14100	-2524	124	118	1
-32036	-16968	22396	10433	-32768	-18156	-31612	504	-14408	13419	-32768	-14264	-6940	1124	-2408	19040	-745	-3555	-8488	7116	11904	1174	4369	-3528	-16428	108	-3948	-1749	9171	-2453	-16700	3040	2800	-559	10531	-1018	133	130	1
-32768	-1848	25736	1994	-32768	-21324	-26532	8360	-20284	9728	-32768	-10622	-13948	-2616	-2896	13599	3852	-5966	-8316	7076	12948	1606	6304	-4216	-18240	-2160	-2304	-1498	10890	-2830	-17292	3432	7024	1441	9802	-1884	124	126	1
-32768	-5632	7840	-1434	-32768	-20740	-27216	8196	-22392	-921	-32768	-9905	-26084	-7072	28064	13279	-13025	-5200	-8568	6564	13440	2437	9849	-4618	-19640	-2168	-1948	-328	13122	-3514	-18096	3612	7948	2447	10597	-3083	127	140	1
-32768	5192	-17064	-2667	-28204	-16330	-10012	6160	-25852	-7799	-23071	-5551	-10196	11548	32767	7756	-6367	-3205	-8584	5876	13748	3087	15033	-5084	-20444	-3172	-1260	-2688	15153	-4575	-19728	428	9612	3915	8630	-2307	117	130	1
-32768	18356	-32768	-12922	-10877	3866	-4492	4360	-22524	-9482	1877	-5732	-18976	1156	32767	302	-5097	1563	-8608	5716	14272	3201	21347	-4753	-21436	-4192	-180	-3009	17797	-5255	-20188	1972	11208	6446	4126	-3888	121	122	1
-32768	1548	-29820	8423	18604	13295	-12268	3768	-22916	-372	19638	2369	-17892	-76	14996	-13256	-3308	1925	-8360	7700	14276	3743	29953	-4816	-24596	-1608	908	-1491	20539	-5040	-21656	4684	16160	8441	-1773	-3901	124	125	1
-1404	8600	17024	936	32767	10331	-32768	10488	32767	-5112	21185	11724	-19008	1804	5600	-7522	-3452	650	-7980	9724	17108	4650	32767	-8661	-31496	-804	3516	3050	23597	-4397	-25312	9996	30872	11871	-17818	-3134	120	130	1
-32768	3176	25480	-283	32767	8711	-17980	11300	-29216	23016	28498	6765	-32768	840	32767	2685	-19781	9169	-3044	14032	17660	9149	32767	-17042	-32768	4864	10884	9400	24726	-2832	-12940	8040	21636	8658	-18944	-1909	127	127	1
-16776	-2536	32767	-1875	13614	4985	-20100	13660	-4488	-14220	28347	3321	-11840	4756	-32768	-16682	13181	7375	-14844	12412	18564	14652	32767	-28765	-32768	4480	7492	17606	24433	-955	-21408	-2656	3460	18796	-4747	-4254	134	133	1
-14376	-26616	5992	8834	12505	3853	-9216	-25404	-21024	-3501	24467	217	-14384	-10920	-20328	-22347	4340	2360	-32768	8916	21040	13482	32767	-28568	-23948	3036	-15640	16478	26252	-1164	-26460	9452	-10248	20680	-6732	-3078	110	124	1
-10112	-5068	16380	3334	2953	4308	-11332	2008	-11480	20991	14987	5048	-9292	-11132	-8580	-13474	2185	-2482	-32768	28020	32767	10140	32767	-21851	-22360	-9340	-28780	7901	26069	-6258	-29796	1688	-4980	1249	-19160	6019	90	127	1
-8944	-9320	14336	2687	3071	4225	-12868	5440	-11796	20184	13866	4705	-24504	-5036	-11240	-2714	12660	-1073	-11892	14112	32767	10002	-8447	-12135	-30908	-4884	160	6671	14841	-5657	-32768	-4328	-7172	-8057	-17562	7158	107	151	1
-9648	-3360	15152	1441	1804	1815	-21396	612	-7756	-5974	10506	3107	-22832	-1716	-3148	-608	13957	900	5156	10104	27236	13248	-16151	-12858	-14872	7120	6392	22056	4025	-51	-30276	-5196	-5724	-3642	-19494	7666	119	94	1
-10196	-3852	14232	243	1182	741	-15936	4116	-8208	3013	7940	1759	-18196	-2448	-3624	2890	17838	3731	7944	13788	21464	5102	-25440	-7182	-9176	3796	4012	11290	-3805	2541	-22776	-4524	-4548	-1713	-18869	6986	121	120	1
-8836	-3988	14172	-1101	953	-566	-17160	992	-6092	6141	5709	1891	-15040	176	-1952	4103	18779	5926	5404	10680	16448	-2769	-28083	-705	-6896	1876	2236	1886	-12287	6963	-20996	400	-5512	1091	-16335	7373	128	124	1
-8156	-5420	13828	-1400	1187	-450	-16680	588	-4448	2909	4959	1575	-18076	-2656	-440	1338	18867	5250	1168	6868	14628	-732	-30872	6320	-7224	-820	244	-2017	-18818	8127	-17016	-636	-7212	112	-14074	9686	114	115	1
-7904	-6104	13420	-1166	1580	231	-16992	1276	-3368	-6003	5192	732	-17780	-1960	992	-2888	17090	3358	-3596	8600	13796	949	-32768	13085	-7664	-1748	-3192	-3419	-23888	9522	-15344	224	-8548	-3161	-12443	11105	136	125	1
-7912	-5808	13464	-777	1979	969	-16600	-2248	-2512	-6470	4935	886	-14580	-3212	1020	-4429	16346	3111	-6088	7968	12164	-2017	-32768	18656	-8756	-1076	-2776	-6013	-29683	10523	-11776	-1740	-7076	-3798	-12774	9996	131	126	1
-8000	-4916	13244	-593	2099	1793	-14984	-1828	-2324	-727	4517	1646	-13580	-3544	1292	-2726	14832	2848	-8992	7188	13168	-4338	-32768	22304	-10008	-1492	-3404	-7425	-32768	10958	-9592	-1040	-7908	-6642	-12023	8293	137	141	1
-8252	-5492	13032	192	2149	2664	-15012	-532	-3500	1374	4758	1524	-14816	-2324	3484	-2901	14487	3685	-13004	8044	14856	-5990	-32768	24415	-12528	-1908	-5292	-9300	-32768	10970	-8696	-1592	-7856	-9989	-12387	7168	129	116	1
-8784	-5164	13128	735	1505	2974	-14760	624	-3768	-11	5361	1593	-13928	-1508	6476	-5248	18237	3953	-13192	7912	14716	-6162	-32768	24538	-15112	-2120	-5584	-8333	-32768	11360	-6548	-4792	-8852	-12753	-12388	6281	130	109	1
-9128	-5004	12864	868	1128	3050	-15124	-392	-2720	-979	6188	1846	-14384	-4248	1936	-6337	21721	3206	-17396	9500	17120	-8275	-32768	23721	-18984	-3468	-6164	-7600	-32768	12655	-5204	-4188	-9428	-17762	-12053	5532	124	135	1
-8988	-5136	13104	1331	917	3379	-14940	-868	-3256	293	7127	2184	-15784	-5180	-792	-3857	18641	2993	-20288	9224	20272	-6202	-32768	22006	-23500	-4316	-7408	-4846	-32768	13693	-5944	-3308	-4292	-18576	-9828	5245	123	128	1
-9912	-4228	13344	1056	943	3312	-14820	428	-3032	2867	8236	2467	-16440	-2944	912	-425	14161	2596	-23672	11284	23400	-3889	-32768	18447	-26788	-4644	-10384	325	-32768	15297	-8280	-3056	704	-20286	-8989	6204	121	126	1
-9200	-3868	13828	795	1741	3089	-15972	1352	-2720	2932	9720	2720	-16912	-2396	2776	2082	11406	2031	-32768	10816	24988	-3241	-32768	16105	-25716	-6040	-14232	2152	-32768	16741	-11968	1780	2320	-15947	-6370	7385	122	119	1
-8724	-3884	13892	-249	3898	2958	-18484	1284	-2952	3223	11231	3149	-17556	-2704	4456	2088	11031	2209	-32768	7552	16484	870	-32768	14548	-30364	-6740	-17744	5577	-32768	14119	-16480	7444	10004	-5394	-5948	7682	119	126	1
-8732	-3980	14620	-1060	7179	2886	-19128	2668	-2448	2442	13148	3750	-19104	-2624	5292	-890	12011	2171	-32768	8940	-952	-7180	-32392	6846	-27892	1672	-23368	-1824	-32591	11916	-13096	4040	25652	-2271	-3605	8078	117	128	1
-8756	-4324	14864	-1829	11719	3237	-20800	2160	-2132	570	15420	4198	-20612	-376	6680	-4342	11190	2570	-32768	4968	-24216	-379	-23765	-1640	-7496	-7948	-29436	-4071	-14466	8763	-17792	-8920	32767	-5178	-3953	3337	120	121	1
-8256	-3824	15200	-2344	17587	4114	-20904	3332	-656	-225	18183	4780	-20988	32	9396	-6014	6677	2585	-32768	-2424	-32768	15691	-6807	850	-4136	-12744	-26288	2221	7403	1077	-18548	-1440	25196	2690	-2896	-1107	124	114	1
-8356	-4228	14924	-2944	24691	4569	-22744	2468	288	-1030	20977	5501	-22312	-1604	12708	-7017	65	2607	-32768	8084	-22092	-7458	21120	3308	-15740	-1032	-26528	5382	20892	-4235	-15108	3644	7700	7972	-1997	-1668	119	114	1
-8772	-7932	15420	-2514	32767	7079	-26128	2200	3236	-3847	24105	4732	-23476	-1856	20836	-8845	-9454	2787	-16992	688	1388	-8631	28303	570	-18716	-5336	-16312	-11965	22929	-8625	-5768	576	-5148	7786	2369	-3258	121	135	1
-9756	-7260	15868	-2289	32767	11825	-31032	-616	6932	-8872	26608	3417	-21144	-5324	32767	-5285	-32768	5373	-9264	-21824	30248	16082	32767	-2668	-29072	-15580	300	-3220	17291	-4081	-20840	1544	16628	-5421	11827	-1559	115	137	1
-9608	-12548	18300	-2786	32767	20846	-32768	-5656	9488	-15367	27194	3858	-19608	-11876	13384	-17618	-12848	2948	-32768	-15424	25500	15323	28265	-7137	-23668	-20924	-11528	-18777	31297	-9321	-19688	-11304	700	3101	13825	-10234	117	146	1
-32768	-11612	23296	-2305	32767	32182	-29432	-6368	-7124	-19435	30145	4632	-19348	-7316	-1060	-12634	-10024	1756	-32768	32767	8936	-2407	5697	-14395	-14848	24908	-32768	-2399	26503	2264	-18864	2584	-17200	20445	5368	194	126	166	1
-32768	-9504	22684	-5856	32767	27963	-27820	-1756	-5000	-15547	25002	9475	-32768	-13628	-20544	-2748	-14725	-20	-9984	-7920	18676	-4322	1592	-10646	-13688	-9156	-2720	-8230	17161	-4872	-13800	8292	-20708	24958	11409	1670	133	134	1
-32768	-14832	32767	-6099	32767	31354	-18952	-3932	-19908	-4508	21952	6046	-32404	516	-5840	10723	-20186	-5824	-9048	1816	18056	-2771	4558	-5201	-14636	-4260	-10508	2613	16183	-3700	-18120	9372	-14456	14945	16059	767	126	183	1
-28888	-21404	32767	-6478	-2776	18767	-17784	-572	-18008	371	14458	4898	-30544	1700	-3060	10757	-20406	-5921	-9764	4592	14800	-1120	2188	-2295	-20508	-2708	-7804	4512	10144	-3097	-23564	5836	-6428	122	14502	-464	128	139	1
-3508	-21920	32767	-4954	-29816	6807	-13240	-508	444	-10252	2234	397	-31404	1480	-6048	3664	-20436	-5642	-9452	3940	14116	4	1621	-1710	-18492	-3060	-7572	-8325	8106	-3183	-21624	-4552	-3584	-9349	17767	-4403	130	133	1
12016	-12852	11780	42	-29770	324	-9664	-1040	5380	-7868	-6257	-2560	-25708	2528	-5532	-1717	-19536	-8074	-7932	4004	14036	1802	2254	-507	-18336	-6752	-5008	-8502	5802	-2241	-18276	-4628	-384	-6439	16366	-4937	125	139	1
6012	-9592	12044	-1246	-26814	-6705	-3480	-112	-112	1745	-14414	-5534	-18668	1920	-7272	-4950	-17205	-8979	-6612	6684	13552	2308	2830	-869	-17000	-1120	-2556	138	6926	-389	-16400	-848	-1164	68	15106	-4760	125	118	1
-156	-9480	13268	-3147	-29209	-13547	-4140	600	-3088	4295	-20333	-7943	-15520	-1628	-8320	890	-15162	-11251	-7468	5756	13420	2164	3319	-1323	-17784	-680	-3940	4774	5580	-100	-17808	3580	1756	2069	13991	-3951	124	111	1
-5252	-8808	14788	-2568	-32768	-19423	-4880	1124	-4756	4578	-27116	-9579	-13636	-1240	-9824	-80	-14195	-10636	-8292	6288	12792	2619	3508	-2114	-16924	904	-3436	2149	5765	-275	-16568	452	2344	791	12312	-3633	126	119	1
-9952	-7256	15724	-1006	-32768	-24329	-6248	1244	-5892	5709	-32121	-10984	-12552	-2168	-10552	2310	-11402	-9303	-7820	4948	13056	2322	4210	-2447	-17196	-1884	-3100	2017	5868	-612	-16536	956	3912	1566	11042	-2938	126	132	1
-11880	-4996	15404	-29	-32768	-27682	-8604	884	-5544	8477	-32768	-11422	-10452	-1532	-10176	7000	-10926	-7731	-8528	5592	12404	2387	5156	-1976	-16304	-2084	-3880	2635	6298	-710	-14996	124	4852	5991	12552	-3086	135	123	1
-14392	-4536	15856	185	-32768	-27348	-10788	1924	-5812	11120	-32768	-11967	-8424	1904	-9364	11314	-10177	-6250	-8648	6152	12196	2574	5382	-1783	-15776	-1184	-3884	1916	6900	-959	-14364	1880	3400	8278	16484	-3974	125	144	1
-20004	-6344	18620	1193	-32768	-24957	-14360	2836	-7092	9579	-32768	-12431	-7464	3424	-11912	15650	-7884	-5105	-8888	6444	11688	2432	5383	-1857	-15780	-164	-4504	1408	7430	-1404	-14348	4164	412	7577	18042	-4624	122	130	1
-23812	-8052	18992	3499	-32768	-23288	-19680	2716	-7768	8548	-32768	-13143	-5680	4504	-11992	19515	-4211	-3793	-8820	6176	11800	2330	5685	-1897	-15400	-908	-4724	694	7790	-1851	-15820	3208	-1020	4792	16252	-3821	130	127	1
-26124	-10116	22316	3292	-32768	-21652	-25468	3240	-10948	6141	-32768	-13504	-6272	3792	-7088	20850	-2823	-3024	-9264	6068	11760	2238	6119	-2426	-15428	-1280	-4360	706	8223	-1824	-16600	1548	664	1363	12899	-2616	128	119	1
-32768	-16160	22992	2643	-32768	-18903	-32768	1056	-16028	5456	-32768	-16078	-7416	1136	-2304	21402	-2806	-3337	-9024	6572	11824	2247	6857	-2759	-16168	-416	-2680	1033	9580	-1972	-16300	3844	3876	475	8806	-2272	123	118	1
-32768	-900	23528	-4412	-32768	-22338	-26472	5368	-22440	5290	-32768	-12958	-11964	-4084	-2528	14039	1521	-6771	-9636	6292	11884	2341	9042	-3457	-18236	-464	-2420	-7	11476	-2815	-16608	5756	8152	1784	9423	-2479	118	123	1
-32768	-7040	6444	-5457	-32768	-22611	-24596	6772	-23252	-2647	-32768	-11405	-28888	-8332	30672	9747	-15897	-5590	-8856	6816	13076	2413	12453	-4122	-20132	-924	-1712	-656	13762	-3846	-17848	4300	10392	3364	11136	-3012	129	136	1
-32768	2328	-22700	-1614	-26697	-19826	-13088	3368	-25464	-8028	-21868	-5485	-6376	11512	32767	-4285	-6599	-4034	-8592	6212	13336	2480	17810	-5001	-21364	-2640	420	-1448	16169	-4251	-19984	772	13376	5224	8757	-2784	112	129	1
-32768	17372	-32768	-9352	-10061	2223	-10232	2180	-27100	-8135	-18415	-5935	-19164	692	30744	-5503	-4048	-1667	-9176	5392	13996	2792	25515	-4926	-21428	-3364	904	-1320	16662	-4335	-20824	1480	17092	7855	1089	-4060	129	121	1
-32768	20	-26224	-8702	7752	7223	-8812	6284	-27008	-3560	19443	782	-15044	468	12260	-11515	-30	2319	-8816	8716	14764	3288	32767	-6314	-25504	-2048	4396	1112	23310	-4392	-21772	2104	24916	6896	-10906	-3457	121	127	1
-24988	-2376	-11120	22298	28334	6342	-11568	11028	-17208	2386	26863	4315	-7364	-1308	-2860	-17593	5026	78	-6356	8976	16176	7529	32767	-10494	-31468	-876	9404	4384	26622	-3732	-19092	6472	32767	13349	-27360	-2562	128	135	1
20760	23296	20608	-4027	32767	-3135	-32768	14872	8716	23305	17162	5320	-11376	-8932	4204	-8884	8739	3111	-4484	12832	20024	13845	32767	-19151	-32768	2980	14728	17948	28149	-2858	-18396	7864	19260	25657	-9209	-7253	143	134	1
-32768	19420	32767	-11882	30272	8479	-10048	19916	-18316	13596	25651	10631	-28424	-456	2536	14863	2587	6858	-28772	8552	14164	12736	32767	-28692	-32768	7008	992	21061	26510	-1302	-26556	7368	-10648	27949	-2396	-5373	123	124	1
-10772	-32768	-16608	10401	15396	7544	-23324	-14436	-20880	11556	24940	-2138	-17136	6536	-19468	5020	10726	-4968	-32768	24968	21632	15203	32767	-25035	-22716	2476	-20076	8487	25852	-5122	-31768	6508	-11428	5413	-14945	4588	90	130	1
-22980	8340	25860	6894	3611	9015	-11804	6032	-18760	22522	18597	5252	-4084	-11508	-18116	-10481	563	28	-32768	22992	32767	-484	16706	-18737	-20080	-12980	-32768	-3968	23154	-10438	-32768	1488	-4160	-11419	-19780	8683	97	128	1
-12140	4552	20912	5052	3496	4736	-13720	5292	-13960	-1896	12623	2705	-19256	-4572	-15764	-7259	9754	-2788	244	7912	32767	10748	-20498	-11993	-25256	-3452	18684	7995	7014	-5384	-32768	-2096	-10140	-11519	-19764	8216	103	110	1
-8732	-5072	14136	2379	1665	1744	-22680	4324	-9180	-10787	10109	3088	-23468	-2136	-7376	-7335	13492	-543	5056	16020	30976	12021	-26192	-11195	-10664	6812	3380	20842	-203	-653	-30580	-5572	-5660	-4279	-21241	4698	120	109	1
-9884	-1832	14860	1052	922	355	-18020	2860	-6908	1397	7649	2102	-21640	-1788	-3336	-114	16858	3222	6620	15884	19168	-1831	-30403	-7333	-9384	4444	1644	8921	-11173	4425	-24572	-3448	-5904	-1642	-18433	7115	142	115	1
-8436	-3760	14168	-724	1256	-762	-15992	2152	-6168	6951	5559	807	-17504	620	-2732	2930	18651	6200	3296	9000	15760	-5510	-32768	-857	-6084	1928	672	-664	-18879	7224	-17240	-1616	-7496	1099	-15108	9367	120	118	1
-7884	-4808	13848	-1543	1557	-983	-16704	468	-4424	7061	4179	776	-15912	456	364	2010	18531	6036	-1616	7444	13040	604	-32768	6751	-6864	-1524	-1824	-1265	-24156	8027	-11740	-56	-8720	-2472	-12942	11230	123	122	1
-8244	-5760	13576	-1140	1591	-260	-16264	388	-4048	6220	4133	699	-16752	60	1560	-3417	16405	3577	-6816	9312	12056	3067	-32768	13115	-5780	100	-4512	-1674	-29735	9563	-10516	-296	-9308	-5003	-11395	10388	130	134	1
-8192	-5724	13356	-949	1457	471	-16232	352	-2708	-8809	6196	-546	-15060	-2032	2192	-7198	15015	2159	-9216	10676	10656	-406	-32768	17950	-6872	800	-2956	-3377	-32768	11028	-9064	-1716	-8688	-6589	-11282	7420	135	133	1
-8108	-4404	13464	-639	1578	791	-15908	-1672	-1624	-6507	6391	38	-13272	-3496	1460	-8032	13767	2629	-12996	10008	12976	-3846	-32768	22158	-10652	-516	-4552	-7051	-32768	11879	-8468	-2012	-8120	-8639	-11686	6031	135	131	1
-7916	-5592	13244	66	1253	1836	-14556	-4640	-3572	1111	6276	813	-13492	-4368	2924	-8663	13223	3349	-15636	9864	14088	-3457	-32768	26217	-15308	-2320	-5104	-9196	-32768	12082	-8208	-2920	-9524	-10865	-12057	5933	130	125	1
-7572	-7124	12708	1597	778	3372	-16680	-1820	-4152	2076	6228	1399	-13740	-6256	4824	-7192	16082	2416	-18084	10420	14748	-4209	-32768	28650	-20960	-3616	-6564	-8855	-32768	13523	-6708	-2848	-8316	-19454	-12338	6386	128	109	1
-8568	-5680	13304	1692	218	3925	-15440	672	-3908	-1162	7419	1722	-12508	-5060	3428	-7181	20571	1716	-22376	11140	19688	-3824	-32768	28330	-25108	-3948	-9044	-6016	-32768	13741	-7592	-4756	-4232	-22728	-12517	7118	125	131	1
-8904	-4492	13732	1363	321	3984	-14660	620	-2688	-2648	8695	1614	-15308	-4472	972	-6130	17483	2688	-27608	15108	22452	-6225	-32768	24832	-26888	-1564	-12716	-4751	-32768	15115	-8996	-3768	1724	-22375	-12048	7748	127	123	1
-9484	-3488	13932	670	1506	3536	-15956	460	-3108	433	9780	1940	-17288	-4092	1472	-2048	11628	3381	-32768	12548	23412	-7364	-32768	21480	-26892	-3672	-14948	-4569	-32768	15645	-10844	-1000	4084	-19614	-8493	8206	124	123	1
-9076	-2692	14080	-629	3746	2684	-18476	2684	-3796	2175	11025	2499	-18948	-2956	3016	496	11189	2877	-32768	4228	17136	-506	-32768	19897	-24628	-6792	-15000	-394	-32768	13978	-12792	2668	1020	-5942	-1957	5341	120	121	1
-8676	-3172	14540	-1662	6580	2176	-19352	2504	-3136	1222	12735	2816	-19280	-2948	5800	31	12414	2605	-32768	7108	7016	-3213	-32768	14264	-27440	-5560	-23148	826	-32768	13354	-14044	4392	20200	-2747	-7811	6361	119	123	1
-8612	-4432	15312	-2444	10435	2549	-19776	1212	-2072	199	15047	3319	-19188	-3544	6544	-388	10968	1806	-32768	5392	-14152	-2972	-25956	6070	-15700	-5348	-27204	328	-22757	9717	-12132	-2768	32767	-2304	-1682	6982	124	127	1
-8644	-4216	15112	-3171	16445	3518	-21040	2880	-2236	267	17514	3814	-20240	-972	7804	-4188	7728	2647	-32768	-3696	-32768	10681	-14290	-2683	-4208	-8956	-29456	373	-76	6521	-18928	-2920	31508	1809	-2222	2444	126	124	1
-8004	-3528	15136	-3932	23378	4180	-22328	4424	-1416	-2071	19965	3816	-21808	200	11564	-7333	3050	4055	-32768	6764	-26768	6819	7679	667	-7824	-7572	-29396	4618	18501	-2192	-15144	172	14560	8479	-1616	-363	122	117	1
-8468	-5348	15816	-4224	32628	5359	-25832	3036	1828	-4257	22520	3467	-24300	136	17776	-8412	-6162	3381	-32768	4424	-9248	-7920	24576	613	-8784	-6244	-30232	-2260	25218	-5974	-9192	440	1324	10817	1561	-954	127	115	1
-7816	-7416	15260	-3890	32767	8500	-29900	884	6504	-8285	25695	2027	-24040	-1332	32767	-7681	-28273	6039	29560	-18160	32767	-200	32767	3919	-32768	-16856	32767	-16579	-111	-13593	-13048	2156	9168	-5336	3850	-4362	123	143	1
-10508	-10788	19768	-7086	32767	14779	-32768	-3076	12896	-19545	27494	1054	-15208	-8400	26392	-16849	-17348	5323	-32768	1260	13412	8335	32767	-6469	-16060	-12468	-25212	-4603	25989	-5192	-26056	-4216	22652	-3717	11133	-3225	125	111	1
-23956	-13384	19996	-10558	32767	24812	-32768	-4864	2308	-24244	29126	2416	-21404	-4992	3380	-18675	-10944	4967	-13732	30984	32767	5470	14270	-11622	-27444	4500	-2104	499	26354	-3637	-22312	-14696	-516	1688	7460	-3416	133	152	1
-32768	-7248	22228	-9272	32767	25204	-25500	-7120	-8212	-19946	29914	6468	-28004	-14656	-15848	-16264	-12847	2099	-20152	-996	22880	-1995	10981	-4990	-17260	8180	-17980	-7486	18999	957	-15372	2948	-20728	26570	8202	-1802	136	115	1
-32768	-18960	29760	-12136	32767	25662	-23952	-3664	368	-9766	20723	6806	-32768	-3756	-10156	8315	-20029	-5140	-5104	23860	7004	-608	3570	-5352	-15024	-5568	-11100	4141	19985	-2814	-12676	2136	-15356	20619	12812	711	137	161	1
-32768	-21636	32767	-11106	25258	24605	-10688	-2696	-32152	-61	17012	4806	-29144	-304	248	10078	-21989	-6418	-9692	6052	13436	80	3838	-3024	-18824	-6008	-11432	15439	10863	-1072	-13264	4596	-16660	21817	13654	149	143	152	1
-20884	-17808	32767	-7355	-24779	13166	-14624	1544	-6104	-9363	5363	1527	-32768	-3504	-8532	4024	-18642	-6130	-8288	3380	15456	759	3183	-2375	-19308	4884	-9328	-1368	8523	-1959	-20124	816	-4456	-3500	15664	-3791	133	125	1
8728	-13060	16832	-2786	-32768	5551	-10056	-3056	6684	-12299	-3653	-1741	-28116	760	-6228	1040	-19149	-7459	-9136	3868	14676	1979	2353	-1394	-19036	-8276	-5440	-8760	6667	-2940	-21420	-4992	-2032	-3897	16806	-5287	127	152	1
8948	-11136	8668	-1704	-32482	-922	-5124	-2904	2000	-1896	-13307	-4233	-20436	1712	-7500	-2832	-16541	-9323	-7020	6408	13764	3101	2965	-260	-17988	-2616	-3260	-1407	4626	-499	-18236	-1356	180	-369	15098	-6257	128	125	1
8584	-10968	8784	-1489	-31892	-1903	-2744	216	-1324	6929	-19886	-7467	-15272	-1008	-9004	261	-14850	-11016	-6900	7660	12756	3047	3316	-853	-17500	-96	-3996	7644	6013	258	-17120	2468	192	5350	13573	-6747	137	121	1
-4252	-10288	13224	-1577	-32768	-14304	-4436	1084	-5460	5756	-25989	-8920	-12408	-1576	-8812	2405	-13027	-10879	-7600	7396	12816	2997	3690	-1574	-17276	796	-3496	8004	4743	223	-16020	3168	2752	4402	12271	-4766	130	115	1
-8444	-8004	14068	-1817	-32768	-20975	-5308	1164	-5728	4637	-31635	-10223	-11716	-1512	-10820	4437	-10662	-9776	-7780	6360	12288	2752	4002	-1600	-16268	-452	-2992	4347	5060	-815	-15044	2284	3060	2713	11515	-4924	130	118	1
-8852	-7504	13936	-1923	-32768	-21990	-7280	876	-4680	5814	-32768	-11561	-10100	-540	-10348	7223	-9319	-8190	-8084	7008	11704	2569	4341	-1348	-15408	-656	-3052	3543	5099	-1390	-14808	1924	3120	3452	11434	-3984	134	111	1
-14372	-5832	14684	-1483	-32768	-26577	-8960	1240	-5268	8686	-32768	-12601	-8008	1888	-8932	9598	-9761	-6132	-8076	7252	11536	2149	3918	-1297	-17496	-1500	-2980	2358	6277	-1931	-13880	2384	2856	6395	13451	-4119	139	118	1
-18240	-6452	17316	772	-32768	-24969	-12972	1916	-6244	10041	-32768	-13748	-7488	3608	-10384	13196	-8133	-5291	-8244	7268	11416	1566	3290	-1915	-14908	400	-3632	2637	5873	-2067	-13692	3584	1772	7488	16062	-4586	130	131	1
-23052	-6888	17020	2005	-32768	-23921	-18116	2848	-6220	11305	-32768	-13869	-5868	4200	-11588	18030	-3961	-4523	-7552	7740	11356	494	2663	-3073	-15372	1276	-4536	1224	6713	-2195	-14724	4708	284	5596	17972	-3942	128	124	1
-23964	-9108	20316	2947	-32768	-23242	-22980	3592	-10040	10216	-32768	-13949	-5688	4732	-6384	21984	-3244	-3827	-8508	7432	11424	316	2071	-3775	-15360	-468	-3384	-917	7528	-2386	-15488	1976	2144	3896	15717	-2900	131	125	1
-30688	-12660	22052	3657	-32768	-21072	-32768	2788	-12188	9497	-32768	-15765	-7260	3328	-1624	22080	-4195	-3079	-9328	6508	11952	596	2409	-4224	-14900	-1480	-2312	-10	9123	-2709	-17228	4328	3744	-8	10901	-2138	135	107	1
-32768	2436	23564	-4344	-32768	-23977	-25436	7120	-17992	6676	-32768	-11981	-12004	-3296	-488	17300	-2444	-6253	-8368	6432	12852	1158	4200	-3867	-18316	-2260	-1968	-1631	11185	-3381	-18080	3588	6952	-2185	8804	-1614	127	123	1
-32768	-6760	12084	-1390	-32768	-20661	-25712	3852	-22316	-145	-32768	-10966	-24088	-7036	14672	9634	-7938	-7295	-8648	6168	12816	1261	4474	-3891	-19608	-2596	-1624	-2740	13545	-4646	-16608	4284	9116	-282	9970	-3348	131	145	1
-32768	6456	-9952	2795	-28040	-15551	-21724	2424	-21872	-3279	-28414	-5414	-11748	-944	32767	2116	-9432	-3642	-7856	6904	13740	3313	12533	-4194	-21304	-2608	-1488	-3649	15381	-5161	-20072	2760	9656	870	9943	-3464	131	149	1
-32768	6028	-32100	-2707	-15690	-916	-3460	3924	-26072	715	-8697	-5248	-17768	5728	32767	4756	-5758	-2770	-8456	6116	14116	4216	18903	-4339	-21828	-4496	124	-4057	17930	-5786	-20344	1064	13156	2426	5013	-3822	114	124	1
-32768	7128	-31968	-15055	-941	2230	-6768	8872	-25468	-4952	12163	-2596	-17060	5072	20172	-6229	-768	2699	-7592	7004	15092	4922	27497	-4306	-23456	-3312	1864	-3123	21198	-6099	-21568	2116	18468	3973	-3740	-4221	124	120	1
-32768	-9532	-19200	11152	21688	3316	-12808	5408	-22316	-3349	23309	1599	-12500	3488	4872	-19252	1892	812	-6572	8776	15336	6725	32767	-6533	-27692	-2960	4096	579	24922	-5290	-22916	2888	32767	3961	-22103	-3229	129	127	1
25236	6516	32767	2444	32767	-2941	-32768	17440	32767	2798	14624	9543	-13872	-5224	12116	-14275	884	3051	-5880	12344	20056	11350	32767	-12029	-32768	-1676	11312	10298	27731	-4297	-7492	2480	27120	9706	-18433	-6562	127	132	1
-32768	19280	28432	-3791	32767	7429	-13264	12132	-23664	21883	24258	7305	-21372	-9160	13752	4055	7891	1585	-5452	13872	19396	18742	32767	-22716	-32768	8572	12860	21148	27377	-2759	-21404	2848	5296	23902	-963	-6228	112	129	1
-32768	-32768	26268	4096	7044	14007	-18768	-13888	-17380	-8464	26021	792	-21736	3904	-10864	6721	8086	848	-32768	11640	18604	15627	32767	-27903	-25592	9216	-12308	13400	23197	-2607	-29244	13592	-18748	24377	-5983	-3965	153	119	1
-20540	10692	27720	13477	11289	7996	-14924	-7384	-8328	22260	20336	2094	-14624	-7804	-17388	-301	3601	-6296	-32768	27452	27044	12157	32767	-21698	-21716	-2400	-23392	-1934	24471	-9023	-28412	4392	-6180	-7498	-18834	8873	106	128	1
-7208	-23052	10296	6770	2754	7250	-9484	4056	-14792	10735	14364	3749	-14424	-5020	-10472	-239	10924	-3032	-15608	12592	32767	3421	-5726	-11877	-27636	-7240	-10152	-4218	18988	-11032	-32768	-684	-6868	-15899	-17350	8430	98	129	1
-12064	-4148	13632	4693	366	4380	-19816	9244	-12508	2190	10420	4987	-22604	-2724	-7428	-2808	10688	-4240	8984	7636	28416	3811	-17952	-16386	-17312	10924	5824	19632	2362	-3270	-32768	-5228	-7484	-11270	-19146	7771	121	77	1
-9184	-2892	14872	3436	283	2369	-19864	5848	-7948	-3412	9830	2845	-21688	180	-3912	-2015	15200	721	4720	10088	29124	5248	-17985	-15496	-8784	3836	2728	11567	-5767	-732	-27600	-5240	-5280	-3970	-19509	6273	125	117	1
-8596	-2216	14720	841	693	258	-16900	3484	-6340	2380	8306	1153	-18712	-72	-3148	1352	18090	3701	6152	10428	17784	-7257	-32768	-6353	-8104	2156	2232	4215	-14810	4291	-20180	-3836	-5824	-5	-16298	7718	136	114	1
-8384	-3100	14336	-1045	1541	-758	-16580	1288	-6480	8752	5366	497	-16472	64	-1604	2900	17822	5841	1460	8428	14236	-3458	-32768	-1898	-6892	1100	-1156	2346	-21554	6418	-15436	-1116	-6928	1220	-13240	10250	118	114	1
-8708	-3776	14164	-1909	1630	-1122	-15988	2084	-5100	5093	4919	408	-16896	788	-848	1159	17467	4295	-4584	10740	12804	724	-32768	3147	-6600	284	-4164	2707	-26471	9062	-12056	1036	-8224	-1695	-12954	10447	133	118	1
-8336	-4808	13868	-1799	1235	-682	-15484	1772	-3520	-4626	5839	-577	-16008	-280	760	-4819	15939	2890	-5384	11028	12480	942	-32768	3954	-7340	316	-3580	1930	-30601	10999	-9948	-1644	-7244	-3083	-11302	9492	130	133	1
-8356	-4748	13584	-1273	945	-169	-15980	-296	-2644	-9706	6282	-1005	-13364	-3244	1924	-7834	14307	2115	-8836	12544	9088	-1908	-32768	13727	-9944	600	-3352	-1089	-32768	12747	-9680	-1316	-7152	-7975	-11688	6871	141	139	1
-8296	-4128	13756	-1112	970	-82	-16032	-472	-2588	-9422	6285	-956	-14128	-3820	1880	-7539	13716	2371	-12560	12312	11468	-2922	-32768	19215	-13412	-1168	-5336	-4869	-32768	13719	-9092	-2016	-8024	-11100	-12510	6070	138	129	1
-8428	-4572	13700	-1149	1164	-52	-15508	-1068	-3604	-77	5992	498	-15416	-3464	2520	-7035	13571	3133	-16436	13652	13056	-2321	-32768	24267	-17628	-1780	-6064	-8047	-32768	13464	-7620	-2400	-8032	-15216	-13253	5959	132	123	1
-8524	-3636	13624	-841	1094	222	-15696	-460	-4352	-3257	6687	636	-15284	-3860	3444	-8632	15045	2659	-17544	14072	15716	-3047	-32768	27426	-20912	-2260	-8344	-7279	-32768	15709	-7492	-2232	-5360	-19600	-13581	6540	130	107	1
-8028	-4620	13424	-577	1026	1120	-15328	-984	-3800	-5899	7369	582	-13292	-4292	3804	-7873	17075	2336	-21908	15008	18864	-2964	-31092	28958	-25580	-1804	-11028	-8374	-32768	15208	-8948	-2340	856	-20910	-14091	7985	126	135	1
-8112	-4764	13796	-589	1216	1616	-15412	-2156	-2784	-3926	8185	1295	-14500	-5768	2232	-6547	18631	1976	-30112	18176	20748	-8013	-31079	27628	-25060	-976	-14828	-7481	-32768	16002	-9240	-1084	3688	-19768	-9466	9040	125	125	1
-8008	-4628	13920	-405	2216	2575	-16488	-228	-2364	-1377	9289	1413	-17252	-5060	1392	-4885	15783	2953	-32160	11628	17552	-6357	-32768	24397	-24128	-1724	-16064	-5954	-32768	16167	-12460	2324	2480	-12852	-5005	7470	121	123	1
-8704	-3516	14256	-566	3811	2869	-17108	1752	-2808	-1312	11098	1848	-18240	-4928	3392	-4052	11491	3058	-32768	5124	12052	1488	-32768	19879	-22868	-7072	-15620	221	-32768	14226	-13300	2736	4728	-96	-3036	3537	121	124	1
-8288	-4404	14916	-1498	6261	2607	-18816	840	-2156	-240	13349	2685	-19104	-3816	6344	-3067	11180	1891	-32768	3616	1736	-1146	-28679	12947	-23240	-5828	-23204	2357	-28487	12952	-9832	2732	22064	-3443	-2191	6609	115	129	1
-8172	-4480	14788	-2483	10430	3304	-20072	428	-2772	1109	15692	3392	-18244	-3172	6748	-2845	10196	2044	-32768	3956	-17128	-2431	-20500	1861	-11880	-4352	-26460	1794	-16115	9528	-16284	1292	28460	-39	1352	7763	117	125	1
-9012	-3832	15160	-3559	16319	4335	-21140	3596	-3296	-52	18014	3812	-22440	-1248	6864	-6745	7958	2898	-32768	-772	-28304	5650	-7643	-4653	-6300	-8688	-26472	-4059	3546	4311	-18312	-1980	24956	-1379	-2569	4579	124	134	1
-8288	-4520	15864	-4338	23260	4930	-22468	4280	-1980	-2582	20360	3764	-21888	-16	9460	-9034	2952	2887	-32768	8904	-23984	-1716	14495	-384	-12812	-7864	-26236	-254	18414	-2005	-14244	-196	13628	1018	-2108	191	126	121	1
-8532	-4656	15644	-4739	32767	5882	-25848	3956	528	-4625	22761	3516	-24024	-288	17736	-9419	-7349	3280	-27868	2240	-4912	-11904	32070	585	-16036	-10620	-16700	-9435	21891	-6654	-9608	-692	608	5455	1459	-2322	127	114	1
-7872	-8632	16224	-4681	32767	8763	-30776	468	8304	-9214	25717	2224	-23580	-4416	32767	-8673	-27067	5960	6832	-32476	32767	11705	32767	3239	-32768	-16284	15480	-7414	16462	-5456	-26852	-192	27316	-55	7523	-1462	124	127	1
-9352	-10788	19904	-6846	32767	14938	-32768	-4000	12244	-16018	27401	2365	-16788	-9880	23336	-15913	-16259	4170	-32768	-21172	21932	13006	27067	-8977	-15476	-19576	-20336	-17357	31434	-8654	-18024	-10416	3356	-5625	18415	-6545	118	142	1
-25020	-12516	21044	-10265	32767	24835	-32768	-4904	28	-21561	28885	2882	-21176	-3024	4312	-13910	-11495	4718	-28252	32767	13752	14	5559	-10944	-16496	14184	-20624	1583	27257	1591	-20972	-5544	-10940	14035	4966	-3135	129	133	1
-32768	-6900	23572	-8314	32767	24923	-27340	-4864	-10460	-18053	27940	6614	-25728	-11264	-15924	-9876	-12839	2159	-10224	-13560	22600	-791	4688	-5633	-16116	-3220	-4204	-4528	18094	-2354	-14004	7936	-22556	32767	9633	-2540	133	135	1
-32768	-17000	31428	-11307	32767	26088	-20856	-2560	-5020	-8046	21321	6611	-32768	-4516	-8744	4947	-20338	-3384	-9452	17400	10316	-596	6187	-3046	-14576	-2236	-11648	6545	17502	-1757	-17684	11576	-18008	23699	15651	450	131	163	1
-32768	-22208	32767	-10071	20829	23693	-14160	-2524	-25988	-1225	16620	5004	-30640	-1956	-2392	7227	-21557	-5637	-9976	9772	12808	-214	3146	-2486	-20472	-272	-11048	8672	9492	-2045	-24772	12156	-8984	5784	14982	-812	140	146	1
-16604	-17324	32767	-8922	-24047	14112	-15376	-124	-3000	-9671	4252	1360	-32768	-3928	-7816	5159	-19682	-6256	-8972	6068	14264	559	2029	-2363	-18092	-844	-7168	-8598	7259	-3337	-22316	-4620	-2180	-10158	17847	-3174	136	143	1
9540	-13288	17600	-3764	-32768	6915	-10160	-2800	6664	-11096	-5001	-1914	-27884	1380	-6056	3089	-19368	-7635	-8076	3812	14412	2339	2304	-352	-19092	-9696	-4340	-8198	5369	-2778	-18656	-5092	-164	-5891	16635	-6242	133	132	1
8208	-11252	10044	-1746	-32107	379	-4876	-2368	1532	-517	-14166	-4519	-19852	2172	-7124	-2402	-17590	-8808	-6692	7200	13100	3059	3266	-161	-19352	-8392	-3688	-6724	5075	-2234	-16012	304	-352	-121	15141	-6415	123	116	1
716	-10732	11244	-1322	-31111	-6593	-2964	788	-2252	5798	-20809	-7490	-15608	-4156	-9056	326	-15480	-11165	-6392	5732	13756	3318	3813	-848	-17732	-792	-4320	6640	4949	23	-16620	1508	876	4243	14079	-5843	129	123	1
-4216	-10728	13472	-1974	-32768	-14263	-4640	364	-4948	5133	-27048	-8561	-12632	408	-9856	1328	-13235	-10565	-7968	6632	12852	3154	4081	-1217	-17268	344	-3720	4900	4723	-161	-18156	1544	1512	1196	11734	-4384	128	123	1
-9304	-10168	14208	-674	-32768	-21499	-5684	384	-5924	5906	-32496	-9677	-11564	-2436	-11456	3286	-11519	-10051	-7320	5692	12780	3183	4756	-1192	-17112	-2248	-2104	4231	4534	-529	-15116	480	4572	2795	12376	-3869	126	130	1
-11388	-7600	14132	1439	-32768	-27004	-7852	316	-6044	7791	-32768	-10517	-9672	-2224	-10644	6444	-10670	-8256	-8284	6344	12148	3015	5217	-946	-15356	-924	-2996	4911	5515	-623	-14016	224	5592	6768	12399	-3487	134	127	1
-16056	-6284	15064	1515	-32768	-29224	-9356	800	-5884	11518	-32768	-10793	-8332	856	-9980	11099	-9607	-7282	-8616	7400	11840	2963	5245	-945	-10732	2868	-4236	7906	6337	-262	-14416	3444	5000	8803	15971	-4478	128	98	1
-19168	-7200	17504	3498	-32768	-28056	-13124	1544	-6900	12496	-32768	-11414	-7556	3728	-11664	16746	-7517	-6265	-7420	7476	11788	1610	4966	-2066	-12620	3252	-1508	1111	6937	-1953	-13988	6344	1248	9037	17419	-4655	123	133	1
-24660	-7816	18072	4992	-32768	-26114	-18380	2500	-6548	13142	-32768	-12145	-4920	5060	-12788	20887	-3792	-4554	-8608	7640	11208	1213	4758	-3073	-15208	1172	-3940	-1624	8094	-2477	-14968	6164	-724	4331	15120	-3084	133	129	1
-23996	-10052	20692	5405	-32768	-23336	-24548	2116	-10716	10164	-32768	-12797	-5248	5436	-7020	23725	-2171	-2450	-9224	7132	11404	1243	4372	-3537	-14232	-80	-3996	-1836	8758	-2879	-15552	1656	1996	-244	12085	-2148	129	122	1
-32768	-15176	23484	6004	-32768	-19700	-32768	1860	-14372	9896	-32768	-14620	-7484	2320	-1264	21744	-2821	-2851	-9132	6744	11720	1360	5016	-4131	-16920	-2144	-3256	-1052	10406	-2641	-15708	1908	4032	312	9445	-2189	135	121	1
-32768	2220	26100	-2314	-32768	-22015	-25552	5884	-20832	5504	-32768	-11715	-12852	-4092	-1216	14421	620	-5978	-8852	6092	12360	2078	7265	-4159	-18188	-2504	-2124	-404	12075	-3205	-17760	3688	6964	1049	8995	-2742	122	128	1
-32768	-5540	6496	-6039	-32768	-20251	-25412	5800	-25664	-3155	-32768	-11062	-28004	-9340	30788	9827	-14865	-6318	-8736	6300	13564	2866	10935	-4087	-19780	-2176	-1812	-735	14357	-4370	-17184	3528	7528	1765	8876	-2913	127	138	1
-32768	2420	-22092	-5958	-29524	-16712	-12300	4004	-25648	-10866	-22509	-6390	-7836	12292	32767	-937	-7468	-3528	-8700	6384	13236	3714	16589	-4429	-21228	-2836	-556	-2723	16218	-5094	-19504	0	11516	4135	8560	-2879	117	128	1
-32768	13884	-32768	-15507	-12393	679	-1084	4716	-25740	-9296	639	-6515	-19084	3768	31596	-5932	-4536	-778	-8876	5948	14212	4621	23530	-3926	-21972	-4840	1496	-1842	19306	-5449	-20616	300	15624	6567	1464	-3995	124	118	1
-32768	-4548	-27848	-10493	7597	3205	-1572	6876	-25324	-8472	4150	-6080	-19000	2732	28724	-9216	-3314	8	-8076	7428	14688	6518	32767	-4481	-25580	-3396	3996	1874	22947	-4700	-21992	1424	24132	7921	-9645	-3998	126	124	1
-32768	4084	-16852	20251	32722	7122	-12440	7892	-14820	4101	26127	4097	-8140	-5760	-1988	-18580	3750	-413	-6636	8372	17164	10819	32767	-7649	-31308	-3156	8216	6407	26447	-3918	-19844	5548	32767	12472	-25575	-3310	130	135	1
-8788	24196	28608	-5197	32767	2764	-32768	9616	-988	29104	22184	5619	-23024	-9388	25376	4695	-1335	2896	-5460	13068	20212	18278	32767	-15264	-32768	4784	13064	18000	27623	-3409	-20596	8996	17284	27396	-11377	-7848	134	132	1
-32768	-864	32767	-3920	19152	12431	-13216	19732	-20576	8057	28504	8853	-22128	5264	-2464	8008	3754	11258	-31048	15920	19812	17816	32767	-25883	-32768	8704	-4428	18620	25771	-1483	-25564	8480	-10404	26129	-2751	-5065	126	125	1
6036	-25832	5076	12292	15467	4517	-24692	-16556	-7116	171	25450	-1765	-16472	1648	-25764	-1452	11019	-3115	-32768	18176	19048	16191	32767	-24247	-21984	1160	-21636	2783	26858	-7061	-27904	9232	-9648	6632	-11812	4283	97	125	1
