#Activity	walking 
#ActivityID	1 
#Date 08-27-18-04
acc_rf_x	acc_rf_y	acc_rf_z	gyro_rf_x	gyro_rf_y	gyro_rf_z	acc_rs_x	acc_rs_y	acc_rs_z	gyro_rs_x	gyro_rs_y	gyro_rs_z	acc_rt_x	acc_rt_y	acc_rt_z	gyro_rt_x	gyro_rt_y	gyro_rt_z	acc_lf_x	acc_lf_y	acc_lf_z	gyro_lf_x	gyro_lf_y	gyro_lf_z	acc_ls_x	acc_ls_y	acc_ls_z	gyro_ls_x	gyro_ls_y	gyro_ls_z	acc_lt_x	acc_lt_y	acc_lt_z	gyro_lt_x	gyro_lt_y	gyro_lt_z	EMG_r	EMG_l	act
-31136	-19068	9256	1108	-29697	-31572	-25432	-4488	-13520	12327	-32768	-11858	-10552	9704	2784	1670	-1037	88	-9208	7360	11936	53	176	-253	-16064	4672	-584	917	917	-101	-17592	4464	-472	1547	969	401	123	129	1
-30460	-14976	9016	-1023	-25378	-32768	-23796	-1940	-13116	17410	-32768	-10337	-13688	9008	5048	738	-1020	208	-9584	7560	11856	139	267	-326	-16184	3896	-2248	757	1154	-89	-17104	6376	824	1001	699	193	123	130	1
-31844	-11240	9764	-46	-21707	-32768	-23172	260	-12948	14901	-32768	-9403	-15744	5992	8280	-613	-474	330	-9712	6552	12392	239	451	-349	-17352	4864	-3448	496	1408	-161	-16888	5960	2952	1071	812	8	123	131	1
-31880	-6848	8428	5869	-18885	-32160	-23868	-1076	-10328	12509	-32768	-9128	-15736	2392	10264	-1368	-74	-24	-10312	7120	12632	345	760	-426	-18624	4552	-3856	277	1552	-216	-16800	4112	-472	1203	973	131	123	127	1
-32076	-3936	-2104	3436	-14540	-26274	-16264	3548	-16208	10877	-27647	-7948	-17408	-2896	16416	-1103	377	-691	-10240	6472	13016	375	1134	-550	-18480	3064	-4192	413	1729	-228	-17864	3800	-96	879	1006	88	124	126	1
-32768	13160	-9352	-12417	-11722	-14662	-9568	5016	-18252	-6859	-13263	-8002	-22120	-8296	17704	-1079	-111	-1054	-10944	8408	13640	400	1590	-715	-18072	3872	-3528	497	2005	-255	-18176	5064	2072	455	909	98	125	128	1
-32768	11148	-14364	-10049	-6711	2635	-5224	1500	-17868	-13094	1116	-7513	-21352	-7168	13440	-31	-503	-895	-10784	9560	13904	314	2245	-968	-20184	4288	-4144	328	2252	-273	-19528	4696	1888	582	779	77	123	127	1
-31016	6920	-11732	-4860	1819	11031	-9336	1608	-17704	-11500	12266	-2523	-14104	472	8624	75	-360	-532	-11264	7448	14008	459	2900	-1294	-21176	3480	-3904	395	2483	-301	-19312	3256	2344	919	738	-62	123	130	1
-28184	-4904	-6924	-5841	8459	9135	-12940	-1156	-16100	-5206	19735	867	-14552	2552	664	-1363	603	-327	-11368	9192	13176	630	3636	-1690	-21952	2808	-2192	748	2696	-276	-19616	1040	4856	857	514	-15	125	130	1
7124	-16572	-8744	14650	26667	16201	-12992	-1220	-15616	-3471	20489	971	-10560	-344	184	-2593	1127	-14	-11032	9720	13784	894	4441	-2339	-22632	3632	-976	1131	2927	-142	-20288	-1976	8808	872	96	205	122	131	1
6108	-17996	17364	7117	26156	7980	-32268	-1640	16164	16740	13203	758	-10952	-7072	-13288	-540	1174	263	-10920	10512	14320	1193	5483	-3185	-27608	6664	-464	1476	3092	-68	-25440	320	13176	1249	-757	161	124	134	1
-32768	-3628	21976	4004	32767	13461	-28404	8312	-10060	27954	15705	-15	-32768	-23744	11672	4045	-1003	823	-15592	15144	16416	1616	6743	-4489	-32768	3944	7160	2206	3291	186	-21728	-8224	7408	716	-2397	-87	124	129	1
-27128	-8604	14176	-2123	24107	11811	-21720	6708	-10052	10872	23540	5474	-20528	11472	-3376	7031	-1117	-93	-32768	6328	14456	2167	7274	-4541	-26344	2400	-5360	2419	3175	598	-25240	-5064	2712	2317	-2234	-691	123	126	1
-12260	-3884	12080	2483	12259	8690	-15720	-8292	-7824	13703	19797	1964	-14016	19368	-18312	4697	616	-862	-32768	13720	12792	4234	7610	-2760	-27200	2832	-1672	3425	3213	-55	-21624	10568	-10264	3033	-3245	-751	124	132	1
-14196	-9096	9624	6762	2731	5689	-14180	-3604	-12420	16259	13974	-409	-6248	11472	-8776	-271	2158	-430	-32768	21688	18096	3537	5504	-3587	-27064	13376	-9528	3560	2743	27	-27304	12984	-16664	2730	-3329	3	124	133	1
-12756	-7304	12164	5524	669	2712	-17552	5696	-8972	7657	10163	-117	-10648	6336	-11408	-1504	2068	330	-6240	31560	23024	-682	1908	-5283	-15112	12992	-17232	1461	1972	553	-28840	4072	-13528	308	-3910	653	124	134	1
-10276	-6460	12204	2721	767	691	-18460	5312	-7768	-5874	9274	-2969	-16688	-2568	-7672	-1653	2165	678	-9784	9608	25064	354	-2587	-781	-15208	-48	-5840	-269	823	-452	-30016	4640	-8024	-912	-4084	539	120	132	1
-9680	-6752	11568	1194	1038	163	-16380	892	-5204	-15143	8570	-5941	-21944	-5992	-6000	-66	1942	297	-1456	15856	13992	970	-2948	629	-15208	520	-1520	478	-116	-442	-27664	5320	-4824	-1133	-3871	1008	121	130	1
-9508	-6884	11260	253	1473	-152	-17988	-4012	-3100	-11195	6667	-5239	-19920	2576	-3456	1014	1763	227	-1112	14008	11328	-383	-3483	1004	-6216	536	-5032	292	-1519	223	-23688	2096	-4064	-1044	-3613	1190	119	124	1
-9444	-7540	10464	-46	1694	-297	-17228	-5416	-2012	-500	5226	-1871	-17656	3216	-1312	620	1810	422	-2000	5104	10768	-627	-4029	1778	-4616	728	-3328	-252	-2452	465	-18848	928	-5640	-670	-3023	941	120	124	1
-9408	-7160	10724	240	1615	-356	-15204	-3596	-2380	6469	4257	599	-13168	1968	240	25	1784	555	-4936	6248	9696	-90	-4546	2401	-4992	760	-3576	-368	-2573	490	-14904	1624	-7112	-534	-2517	771	123	130	1
-9412	-7804	10408	384	1678	-152	-16136	-1388	-2512	5164	4567	1043	-11600	872	-352	-362	1956	382	-5528	5296	9792	212	-5051	2624	-7528	600	-4472	-1005	-3965	916	-11784	2088	-8576	-737	-2081	453	117	130	1
-9324	-7972	10028	673	1466	63	-14904	104	-2728	-1152	5692	-534	-14608	1176	-1640	-725	2093	303	-7744	5928	10024	389	-5119	2893	-9488	-192	-4256	-1283	-4656	1096	-8864	3480	-8768	-1010	-1727	179	99	130	1
-9788	-7452	10456	796	1236	133	-14860	116	-3052	-6549	6013	-2392	-16824	4232	-1712	-1154	2281	214	-11456	8272	11120	311	-5159	3187	-10808	-488	-5832	-1547	-5191	1139	-6616	4744	-9336	-1465	-1496	6	98	133	1
-9212	-7492	10600	563	1277	190	-15980	-844	-2396	-8822	6036	-2699	-17176	4968	-1208	-1764	2614	194	-15784	9736	13016	103	-5105	3658	-13472	1136	-8552	-1870	-5611	1023	-5424	4424	-10224	-2470	-1073	-116	104	129	1
-9676	-6832	10912	274	1608	214	-21500	-576	-2712	-8051	5993	205	-14616	1992	1368	-2266	2952	-23	-21872	5976	16656	93	-5015	4067	-17320	2552	-11152	-2134	-6008	940	-4672	2560	-10152	-3000	-845	-306	110	129	1
-9200	-7120	10468	16	1634	451	-16376	-3188	-2932	-3039	7044	-1172	-15400	-2128	408	-2058	2614	104	-26224	10376	14120	435	-5043	4475	-20488	3392	-12392	-2179	-6183	822	-4552	2352	-9784	-3071	-809	-329	114	125	1
-9472	-7932	10292	-310	2521	650	-15576	-2440	-1772	591	7027	964	-15960	-3168	-4888	-886	1425	494	-29872	9368	14432	373	-4709	4221	-22336	2160	-13456	-1861	-6302	946	-8152	-320	-1704	-2526	-863	-180	115	123	1
-10104	-6204	10284	-524	2945	808	-14496	-400	-2356	-693	8135	849	-15136	-2840	-5496	-2	953	566	-32768	12040	14720	588	-4582	3811	-24304	2264	-15712	-1279	-5883	1080	-9064	-4256	2256	-1154	-777	51	115	125	1
-10384	-5388	10888	-295	3376	524	-16672	-1216	-2160	-1208	9320	913	-17520	320	-3064	160	1204	140	-32768	10744	13224	900	-4617	3575	-24304	5824	-16184	-744	-5606	1276	-10744	-6440	7064	8	-229	67	121	139	1
-9800	-7184	11304	-1525	4411	1384	-17628	-1164	-2856	-1073	10396	833	-19200	1928	440	94	1085	286	-32768	7344	7024	1349	-4113	3527	-24184	6248	-16200	-640	-5094	1241	-18024	-4144	13200	1332	171	88	121	131	1
-9544	-5448	12560	-2181	6661	1809	-17432	-636	-2060	-1791	12264	985	-17960	1568	-80	-335	933	377	-32768	3488	-2840	707	-3186	3003	-19008	2264	-18560	-686	-4116	1047	-18976	-3280	21376	2228	-142	371	119	124	1
-9948	-8132	12132	-3206	8926	3294	-17976	-1280	-1252	-1869	14059	1403	-17440	1440	1880	-606	990	350	-32768	-9208	-13152	552	-1767	2247	-12344	1624	-21536	-245	-2408	826	-17800	1416	22344	641	-749	1096	122	131	1
-10120	-8316	11644	-2849	12113	4775	-18108	-1712	-2592	-841	16169	1275	-18112	2736	2248	-810	932	99	-32768	-12464	-19888	601	-623	971	-8048	4016	-20792	41	-338	617	-19432	13312	20760	-122	-1198	1073	120	136	1
-10956	-7380	12932	-1799	16689	6375	-19752	-584	-4392	1478	17671	1795	-18984	3984	-1424	-1189	852	54	-32768	-9768	-16008	109	900	-29	-6744	1808	-20232	-716	1470	191	-17136	7792	14152	-61	-408	-2	123	140	1
-11500	-8636	13068	-2803	22147	8110	-20976	452	-4660	2617	19152	1762	-20280	1696	-2792	-1278	763	328	-32120	-2600	-6744	-268	1915	-86	-10456	-176	-20016	-1032	2818	-248	-13104	2304	4448	-234	202	-589	122	132	1
-8388	-10376	10404	-5777	27012	9227	-21804	1412	-2644	-1160	18985	1065	-19552	-440	-360	-891	635	467	-14288	10888	8400	-2546	4061	-1175	-19784	2264	-2104	-70	3107	-151	-4216	5224	6480	-786	245	20	122	136	1
-14496	-7072	13200	-4634	25847	9028	-20948	-1440	-708	-2205	22130	-651	-19792	-1096	3320	-638	481	202	1504	-1672	25528	-1225	2444	-1288	-32768	6360	13216	-172	1818	156	-2504	13120	-16888	1638	1180	715	122	130	1
-10444	-11576	13588	-6879	32767	18373	-25588	-2584	1312	-5006	22841	-1129	-24904	-1512	6536	-729	247	-172	-32768	8352	26080	-622	3919	-2399	-32768	4288	9272	-877	1977	221	-32768	26584	23720	-4891	-2454	1299	122	113	1
-10028	-9720	13948	-11278	32767	25813	-30412	-180	1396	-11014	22978	-363	-28208	-4952	9984	-1046	-854	-343	-21872	15992	13480	-1045	3163	-1468	-20216	3800	-8536	-643	3416	-1126	-27040	-12200	-7720	-6369	2993	612	122	139	1
-24668	-28176	10484	-13649	32767	32767	-27060	1164	6256	-17870	30485	-2073	-19456	1800	10176	-2490	-3248	-849	-17384	3560	18632	-624	1117	-1283	-9944	7768	-11552	-2154	2847	-767	-20912	-17872	-7864	-1019	1205	495	124	119	1
-28332	-992	13192	-25283	32767	27353	-22188	-92	-11304	-20442	27214	-6309	-17968	10688	-1584	-1080	-2183	-733	-14264	4440	14200	-850	59	-486	-14960	2808	-14488	-3125	2029	-135	-10520	-4592	-8216	1342	1491	934	121	121	1
-32612	-20896	11040	-30644	32767	19287	-24824	-1004	-9372	-21448	29019	5381	-22120	2456	-17792	-1873	-2205	-1322	-10712	5584	13144	-406	131	-31	-23864	-8224	-9824	-882	1590	-88	-9400	8144	-7480	1791	1605	614	124	123	1
-15948	-23088	16088	-22355	29072	24174	-26112	-6832	-14740	-15239	23752	1600	-26768	4352	-13720	-1492	-2235	-2026	-10136	6144	12744	-120	172	43	-15536	-2024	-7792	1244	1223	163	-17288	12712	-5512	222	1515	707	123	133	1
-1624	-27088	18596	-16092	27134	25566	-16744	1124	-11548	-1280	14296	4517	-27760	5176	-12824	-1368	-2266	-2080	-9720	7344	12104	-15	195	28	-17432	4784	-5704	1970	876	467	-22312	4472	-2216	-1004	1771	465	126	137	1
-592	-12488	15836	-3184	-14852	1155	-13340	360	-268	-3971	3069	7630	-25688	3840	-6928	1279	-3378	-1493	-9664	7488	12024	14	186	-13	-15880	7864	-4288	1258	778	331	-23400	-1664	256	-16	1826	203	123	129	1
-3624	-10500	12608	-1329	-19335	-2624	-8636	988	-4304	-1074	-5623	2093	-23184	6272	-5896	1327	-3302	-1772	-9512	7336	12096	19	186	-17	-15888	6072	-4504	202	692	175	-15160	960	960	891	1824	-118	122	127	1
-5176	-6000	12780	-1111	-29180	-9408	-4156	2932	-5568	-2177	-13857	-514	-20408	8152	-3888	938	-2955	-1658	-10088	6728	11984	68	252	25	-17184	3928	-4920	-310	614	5	-11904	5248	536	827	1890	-146	124	132	1
-4512	-6932	10432	-1438	-32768	-15225	-5812	2796	-4644	-3541	-21343	-2634	-17256	8248	-4960	788	-2488	-1072	-10088	7280	11848	117	258	45	-16576	1408	-4632	142	648	6	-12944	4552	680	659	1995	10	129	123	1
-2516	-4940	8324	-606	-32768	-16220	-9240	3748	-1764	-3740	-27114	-5269	-15120	7032	-5392	292	-2080	-901	-9904	7456	11016	114	216	16	-15048	3576	-4032	898	551	97	-15288	1440	-80	729	1972	249	129	123	1
-6500	-4416	8956	-2195	-32768	-19774	-7780	5956	-3684	-2542	-32421	-6907	-12544	5480	-6464	48	-1687	-828	-9992	7624	11232	95	151	-44	-14696	5112	-4120	1013	414	172	-17840	-8	-672	1166	2010	185	129	138	1
-8104	-6524	9900	-1967	-32768	-24658	-7792	4276	-4560	-3816	-32768	-8682	-9768	4432	-7648	156	-1225	-650	-9728	6960	11408	90	108	-70	-15848	3720	-4120	933	425	179	-17856	736	-8	1726	2094	302	129	127	1
-11188	-6396	11644	-1352	-32768	-28903	-12048	3852	-5724	-689	-32768	-10418	-7408	3512	-8128	586	-1173	-382	-10568	7176	11184	81	104	-86	-16408	4120	-3752	893	504	159	-14968	3000	1296	2161	2236	240	128	126	1
-16664	-6228	13856	-1945	-32768	-31868	-15184	3064	-7840	2966	-32768	-9630	-6104	3456	-8424	1350	-1155	-21	-10296	7520	11032	72	93	-104	-15608	5496	-3592	747	541	70	-13344	7656	2448	2047	2448	158	126	129	1
-20680	-6740	14640	-1826	-32768	-30977	-17212	4680	-9896	5656	-32768	-8751	-5608	3312	-7936	1474	-1151	32	-9632	7672	11296	39	81	-133	-15048	5488	-2992	479	629	-99	-14464	10584	1696	1550	2714	205	124	123	1
-25380	-5600	15768	-2532	-32768	-30191	-19128	7552	-10800	2755	-32768	-7998	-4944	3656	-5024	1916	-1088	471	-9760	7128	11448	26	79	-171	-15376	3912	-3288	284	785	-164	-16368	7048	576	771	2491	107	122	127	1
-27256	-9324	16480	-1472	-32768	-28765	-22764	6724	-11624	-3183	-32768	-9971	-6952	3152	-2568	1506	-828	302	-9848	7544	11408	41	110	-202	-15840	4080	-3152	230	934	-200	-16640	2328	-1704	211	1725	201	124	130	1
-29712	-9800	18216	84	-32768	-27047	-25596	3628	-13292	-4700	-32768	-11896	-9128	5184	216	569	-372	-51	-9896	7464	11808	70	215	-238	-16280	3256	-3776	134	1093	-209	-16208	1072	-3080	-91	1334	192	122	130	1
-32768	-12796	14908	212	-32768	-25289	-25896	3216	-13456	-4024	-32768	-11823	-9136	5576	1064	397	-332	-91	-9688	6808	12752	167	378	-294	-17264	2440	-4208	135	1188	-211	-17320	3984	-2096	-230	1199	-66	122	132	1
-32768	-14864	5872	4266	-30982	-22787	-24680	-3776	-14812	8624	-32768	-10322	-17616	5560	6864	-1420	42	-167	-9768	6920	12792	258	624	-364	-17960	2736	-4688	254	1254	-216	-17472	5016	304	74	1228	-210	122	130	1
-32768	-12628	-3072	8165	-20571	-24521	-21212	-1760	-17040	18726	-32768	-6788	-19832	2120	11992	-1659	94	194	-10152	8696	13048	230	948	-502	-18136	3400	-3584	377	1417	-211	-17264	4776	688	135	1235	-198	123	128	1
-32768	-12224	-4776	8411	-18563	-25246	-14572	3044	-20660	20400	-24853	-5701	-19704	-7264	21992	-1533	255	514	-10832	7728	13056	92	1381	-691	-17912	4976	-3704	297	1703	-326	-18840	408	3384	191	1071	222	122	128	1
-32768	15268	-20628	-1731	2362	-23552	-7016	296	-20228	8377	-8088	-1348	-19896	-16432	22592	-638	-163	84	-11032	8680	13832	-34	1926	-996	-20256	4704	-3896	-42	2113	-455	-21416	2224	4264	544	902	197	124	129	1
-32768	11760	-20552	343	7332	-2422	-3236	-872	-21440	4243	8220	-910	-20968	-11568	10728	1400	-500	-652	-10440	8704	14536	-7	2504	-1370	-21824	2960	-3536	123	2333	-484	-20528	6456	3648	1317	758	-34	123	129	1
-29796	3748	-12384	-7301	13046	6884	-10900	1052	-18484	-3630	19968	519	-19000	-1648	1224	1967	-118	-699	-11776	7136	13848	-3	2585	-1415	-22056	3328	-2848	510	2545	-490	-20192	7160	3608	1228	608	-228	120	128	1
-25676	-13376	-6624	-5541	18654	4888	-14084	-3152	-15388	-135	24945	-289	-10360	3904	-2336	321	1085	-321	-10448	9520	13648	211	3911	-2392	-22664	4096	-1040	822	2808	-483	-19824	4104	7184	704	242	-200	121	128	1
3748	-32768	21960	5394	21596	3959	-30868	-7416	27816	-4836	15892	950	-2064	3184	-10736	-1168	1305	37	-10896	11912	12352	329	4581	-3331	-24312	5632	-672	1103	3053	-358	-21464	1096	12648	581	-255	-4	121	129	1
-1132	8544	15116	1160	32767	11585	-21656	1192	1596	18328	15185	-9259	-16392	648	-3328	77	383	1314	-8112	15088	15128	623	5506	-4670	-31176	6976	4080	1716	3157	-187	-28696	400	27872	-952	-2495	243	123	130	1
-32768	-8544	20988	4416	24026	26256	-26704	5684	-7276	20501	17399	1316	-32768	-22480	15832	4353	-728	135	-20360	12472	15760	1134	6714	-5592	-30784	2984	576	2020	3368	161	-24064	-7424	5312	1538	-1618	-100	124	129	1
-27220	-15440	9932	8576	9249	12938	-23884	-2444	-12080	16339	21503	939	-21672	14096	-5088	5972	59	-699	-26352	-4024	13528	2045	7238	-5058	-24272	5008	-10192	2808	3232	230	-25312	2128	-4264	2686	-2960	-682	123	127	1
-16148	-7316	12440	4327	3853	5223	-15844	4580	-9656	22660	17389	2886	-14112	18768	-14920	2837	1129	-1219	-32768	19144	14544	2173	6313	-4400	-29680	10976	-9544	3540	3034	-575	-27240	13880	-16168	3763	-3184	-138	123	136	1
-11252	-7656	12052	2943	1375	1402	-12560	2308	-8552	6715	14553	-2679	-3408	8344	-6032	-854	2254	-74	-26760	32496	23896	3	3632	-5495	-19176	13560	-12416	2193	2546	392	-26600	6232	-17064	1620	-3424	772	123	132	1
-9836	-5496	12780	728	1874	-406	-14764	4472	-6388	-2874	11677	-3911	-10968	3400	-10808	-1653	1676	1127	-24720	32767	22864	-574	3153	-5455	-13592	-2376	-11640	-247	1254	140	-28880	856	-8760	-718	-4015	824	122	132	1
-9400	-7252	11104	-201	1850	-697	-17744	-844	-6348	-13657	10417	-5395	-16864	-7648	-9576	-1288	1942	1269	1840	20912	15008	977	-1442	1605	-18016	1296	-512	797	396	-479	-28528	3160	-4816	-1436	-3986	902	123	132	1
-9172	-7492	10948	218	1621	-142	-17868	-6448	-4092	-10937	8043	-4972	-21808	-6128	-6448	193	1873	417	-3024	16664	12904	-322	-1867	2024	-7904	2888	-5104	462	-843	431	-25000	1264	-2848	-1186	-3787	1320	122	125	1
-9140	-7392	11072	440	1490	253	-18192	-5372	-2960	-450	6085	-621	-20480	4408	-4040	658	2000	-47	-4592	5968	14376	-543	-3098	2788	-3192	2072	-4032	-641	-1832	719	-20384	-344	-4432	-498	-3312	1188	123	124	1
-9220	-6828	11244	332	1390	115	-15880	-948	-2468	2642	5028	1239	-16752	3568	-2144	343	2127	86	-4880	4944	12448	-25	-4012	3289	-7352	1152	-2736	-1286	-2649	994	-16496	-168	-5744	-285	-2766	926	124	125	1
-9104	-7160	10996	309	1436	199	-15644	-44	-2056	938	5008	177	-12576	1672	-800	-109	2131	476	-5528	3720	11352	134	-4747	3083	-9568	-344	-3808	-1702	-3525	1372	-14512	1016	-7224	-428	-2393	685	123	132	1
-8996	-6568	10976	254	1544	161	-16144	940	-2320	-2939	5198	-1042	-11288	1664	-1480	-609	2386	447	-7080	2592	11536	482	-4968	3148	-10032	-2112	-3544	-2131	-4173	1387	-11920	2840	-8304	-821	-1956	450	112	131	1
-9504	-7016	10660	269	1419	173	-15708	-1376	-2392	-5200	5365	-1200	-15704	3152	-960	-1025	2263	624	-10456	4976	12744	508	-4912	3377	-12080	-3664	-5936	-2244	-4858	1290	-8840	3472	-8752	-1240	-1794	331	104	131	1
-9416	-6608	11072	363	1392	359	-15284	-1000	-2092	-5348	5332	-1072	-16736	5816	960	-1281	2217	495	-15784	5088	15736	471	-4921	3794	-14576	-3448	-7952	-2134	-5367	1149	-6536	3392	-8848	-2385	-1516	210	115	129	1
-9192	-7240	10756	141	1613	344	-16384	-1160	-1452	-5969	6159	-622	-16296	4584	1560	-1729	2484	237	-20368	3264	17584	762	-5110	4103	-17520	-3056	-9712	-1773	-5825	996	-5264	1152	-8544	-3196	-1225	-3	112	129	1
-8688	-7432	10896	162	1719	933	-16704	-2408	-164	-3448	6704	-221	-15112	1696	-976	-1182	2225	46	-23240	2928	17400	1163	-5233	3968	-19128	-4008	-10792	-1081	-6147	1121	-5600	664	-7320	-3098	-1070	-172	113	126	1
-9412	-7584	10900	190	2207	1720	-16176	-2264	-2072	-1253	7318	-5	-17880	-4176	-8016	-617	1194	277	-27424	7320	17632	1085	-5094	3736	-21344	-3032	-12968	-281	-6288	1359	-7704	-1424	-3552	-2400	-901	-241	115	128	1
-9408	-6216	11336	-67	2557	1858	-15716	-684	-3152	-1520	8142	885	-15160	-4520	-7224	-246	876	581	-31744	8224	18664	797	-4856	3589	-25264	792	-15032	47	-6227	1696	-8992	-5840	152	-928	-731	-150	124	128	1
-10256	-6836	11192	-716	3044	1922	-16628	-1496	-2880	-1967	8795	1390	-16736	-208	-1872	-34	1141	367	-32768	9080	16328	823	-4872	3668	-24072	4696	-17128	-548	-5938	1531	-9864	-7408	5152	707	-477	-23	126	121	1
-9704	-7308	11616	-1313	4071	2799	-16800	-1364	-1824	-2277	10151	1676	-18624	2672	1184	186	1144	321	-32768	6632	8488	617	-4587	3455	-20832	6528	-17552	-1536	-5396	1133	-13104	-6120	8008	1858	-179	-104	125	135	1
-8396	-7364	11772	-1024	4561	2716	-18268	-360	-300	-2143	11880	1488	-20288	3728	1984	-50	903	296	-32768	-56	-1352	176	-3641	3060	-20376	600	-18488	-2179	-4264	806	-17616	-264	13376	3224	-39	-62	124	125	1
-10080	-6288	13036	-2550	8047	5065	-17500	960	-736	-2486	14557	1219	-17872	3072	3744	-712	759	172	-32768	-7824	-10016	-403	-2089	2630	-17104	-3648	-23360	-1586	-2704	392	-17752	3152	25488	2336	-457	165	122	127	1
-10864	-6484	12760	-2199	12114	5715	-18268	-52	-2536	209	16576	2118	-17264	4392	3200	-1198	843	32	-32768	-16224	-15592	-471	-852	1389	-9616	1456	-23240	-103	-885	40	-17680	16000	22440	-246	-1043	754	122	137	1
-9916	-6844	13220	-1660	16703	7041	-19408	64	-4076	3662	18037	2986	-17880	4976	184	-1493	815	107	-32768	-15784	-17656	-135	50	-600	-6568	3232	-22160	-208	891	14	-19048	14704	15704	-658	85	633	122	153	1
-10752	-7492	13920	-1889	21993	8672	-20940	392	-4416	4103	19344	3077	-19552	168	-2976	-1545	791	448	-32768	9640	-17896	-1279	1988	-1639	-9904	1688	-17256	343	2399	-103	-18280	1776	8576	-943	358	-352	123	122	1
-10992	-8064	12992	-2881	27645	11098	-28800	1196	-4136	2048	20668	1146	-20232	-3800	-2896	-924	664	570	-19736	12536	31704	-1037	2730	-2234	-26352	6864	16464	2268	2762	-76	-21664	-1696	28840	-1941	-1398	-662	121	135	1
-11416	-8624	12764	-4315	31910	13788	-21400	-676	-1612	-1919	21628	-4	-20272	-4256	-2616	-790	632	565	-12528	-8680	11872	-472	2861	-2318	-31264	-9216	-8400	-231	2800	447	-8056	4576	-4416	54	1060	-281	122	128	1
-10544	-11092	13896	-4894	32767	18733	-25416	-2976	2056	-3298	22447	858	-24200	-4240	3904	113	56	215	-25896	15928	18024	-463	3041	-1785	-16640	8224	-5776	1384	2857	-762	-19152	13016	2504	-547	103	558	121	123	1
-11044	-8568	13672	-8286	32767	26538	-30572	1796	536	-7699	22322	2622	-25744	-5616	9464	224	-850	25	-22368	16776	8392	-1077	2662	-1539	-11032	12040	-11056	-697	2693	-551	-20728	216	-4592	-2671	1428	747	124	117	1
-23336	-24352	10076	-10544	32767	32767	-26804	-808	8824	-13454	29883	1758	-20712	664	16432	-805	-3736	-597	-13488	-864	16472	-613	770	-1104	-15064	8392	-11824	-3717	2269	-499	-14312	-1832	-6400	197	1017	1162	121	129	1
-23696	1604	12956	-18496	32767	30721	-23148	980	-9100	-13987	26081	-3658	-17528	11792	112	-422	-2194	-682	-18456	416	16088	-576	175	-343	-21128	-3616	-13952	-3343	1812	-643	-18720	2768	-7392	711	1736	997	121	121	1
-32768	-21700	12912	-22551	32767	23201	-23324	-92	-8368	-19403	28353	7186	-22392	3888	-17784	-1577	-1887	-1131	-12872	4864	13120	-226	117	8	-20880	-6696	-9248	-668	1510	-205	-16640	9008	-5928	-101	1898	616	122	120	1
-32768	-20212	17732	-15273	32767	22921	-26464	-3896	-15096	-12728	24547	4665	-24552	2392	-15176	-1331	-2198	-1657	-10248	5632	12880	-49	144	31	-14088	-1728	-6712	1373	995	384	-16400	5640	-3144	-1488	1764	537	123	118	1
-32768	-23112	12900	6820	14268	12960	-16128	-3196	-8520	-4011	16136	5457	-26416	4688	-9688	-32	-2623	-1687	-9648	6976	12064	48	174	47	-17192	4080	-5160	1957	793	572	-18792	-200	-976	-1173	1789	255	122	130	1
-3404	-13640	18544	7094	-8361	-5912	-15456	236	-2516	586	5902	9611	-25520	2896	-6680	1570	-3197	-1374	-9888	7128	11608	47	178	14	-16016	8888	-5048	1396	600	493	-17696	-2480	696	192	1672	69	123	131	1
-2444	-9168	13136	6376	-9988	-5917	-10712	-2720	-860	738	-1822	6520	-23112	4992	-7088	1842	-3330	-1689	-9560	6696	11840	13	184	5	-15520	7592	-4624	348	484	214	-15816	1704	904	1377	1625	-18	122	130	1
-6884	-7128	12936	6850	-19921	-6556	-6044	-1840	-6416	6073	-10000	3098	-21112	7816	-5160	1325	-3070	-1758	-9880	7536	11816	12	189	18	-17096	5400	-4328	-167	515	-3	-15704	6584	552	1572	1742	-68	122	128	1
-5160	-5884	12540	5201	-32768	-10388	-5748	-620	-5344	7975	-18884	3768	-18736	7640	-4592	931	-2631	-1378	-9864	7176	11368	19	174	14	-16120	4424	-4032	-13	529	-37	-14480	7784	1008	1230	1944	164	122	128	1
-4536	-6124	9016	3320	-32768	-11684	-8080	1256	-4296	7074	-26074	3487	-16040	5728	-6144	709	-2195	-1135	-9960	7488	11200	11	146	-7	-15144	3648	-3512	497	418	39	-14728	5240	1344	823	2050	464	123	130	1
-5016	-6528	7280	1866	-32768	-13033	-7960	3560	-4756	4715	-31631	997	-13968	4568	-7064	635	-1736	-1041	-9920	7216	11320	5	113	-31	-15560	4440	-3136	898	268	138	-16176	3072	1136	890	2014	476	121	136	1
-8820	-8648	7016	752	-32768	-17951	-6872	4872	-7168	-2140	-32768	-727	-11424	2264	-7744	739	-1365	-839	-9968	6856	12000	10	87	-55	-15752	4776	-3040	1012	296	178	-17784	1208	1056	1149	1981	321	123	131	1
-8832	-9668	6628	965	-32768	-24336	-9020	2860	-5036	-5749	-32768	-3761	-8840	1184	-8048	1176	-1159	-591	-10080	6680	11672	30	77	-68	-15656	5136	-3040	900	396	62	-14800	1024	2040	1810	1978	-163	123	128	1
-13392	-9756	9100	1633	-32768	-29577	-13784	1180	-8372	-3777	-32768	-6073	-6864	1464	-8632	1829	-1054	-257	-9920	6912	11792	34	84	-76	-15560	5360	-2408	660	495	31	-14104	3656	1816	1492	1961	121	123	130	1
-19940	-8380	10568	-239	-32768	-32342	-15028	852	-9772	-2715	-32768	-5933	-4760	2896	-8208	2379	-948	123	-8992	6368	11872	56	114	-65	-15344	3944	-3384	573	591	-34	-15040	5360	2072	1373	2144	212	123	123	1
-22692	-9452	10916	-1110	-32768	-29933	-17452	1276	-10816	-1593	-32768	-7114	-5128	4872	-6280	2584	-961	309	-10432	6992	11256	68	115	-86	-16160	4680	-3048	844	642	-73	-16248	6280	2568	1343	2427	261	124	129	1
-26972	-11776	11864	-1256	-32768	-28454	-20812	2228	-11376	-1816	-32768	-9024	-6272	5960	-3184	2249	-853	285	-9560	6856	11480	55	112	-124	-15904	5384	-3440	761	719	-151	-16440	4440	1784	1259	2369	319	124	128	1
-27868	-16416	11108	452	-32768	-27521	-24524	140	-11240	216	-32768	-12383	-9152	7992	-128	1348	-783	20	-9496	7320	11616	59	151	-171	-15968	4472	-2608	728	790	-176	-15552	3632	-1400	1198	1694	209	122	130	1
-30808	-15400	11808	1003	-31776	-29173	-24652	-716	-12640	6046	-32768	-12853	-11032	9080	3256	582	-501	-63	-9568	7440	11624	73	200	-228	-15616	3752	-2416	625	991	-175	-15496	5096	-3072	817	1207	1	122	130	1
-29844	-13444	10464	-1260	-27975	-31638	-25780	232	-13112	8590	-32768	-11921	-14872	8120	8032	-106	-331	102	-9808	6936	11792	135	320	-243	-16776	4288	-3192	404	1153	-191	-16920	6336	-40	250	1085	-177	123	132	1
-29532	-13260	6568	5133	-20084	-29492	-24540	-2320	-14540	12379	-32768	-11893	-17608	5064	11144	-807	-258	94	-9504	7512	12864	273	540	-293	-18352	4880	-3376	156	1389	-252	-18328	4992	2376	200	1170	-116	124	129	1
-32768	5236	11816	932	-22034	-30617	-15756	5348	-14344	17024	-29574	-5902	-18392	-2128	13528	-1547	116	-64	-9720	7656	12936	321	880	-390	-18248	3016	-2704	177	1605	-332	-18184	2440	2632	265	1125	133	123	129	1
-32768	17928	-3604	2796	-7794	-21841	-13132	2924	-17252	4911	-19554	-5553	-19712	-7760	16920	-1305	367	-297	-10080	8336	13856	271	1252	-535	-17792	4856	-3712	206	1856	-367	-17672	2168	2352	396	969	163	124	128	1
-32768	11804	-13336	-104	-4513	-4494	-8860	624	-18588	-370	-4666	-1897	-19320	-8440	18256	-623	-161	-687	-10856	7944	13432	325	1746	-734	-19240	3384	-5136	97	2113	-396	-18544	3584	632	648	902	21	125	127	1
-32768	8724	-14696	-7292	1400	7815	-7584	3708	-19424	-6712	10067	-242	-20704	-3976	9944	265	-188	-913	-10360	7968	14208	178	2368	-1090	-20704	3096	-4560	257	2260	-395	-19760	5072	1160	787	853	-160	123	129	1
-21568	-11936	-17708	3573	17670	18830	-13972	-3716	-14296	-8247	18513	-3506	-19496	2208	5848	-288	143	-363	-11248	9536	13912	306	3098	-1385	-22144	4208	-3432	595	2459	-452	-20464	5576	4136	821	745	-183	124	130	1
-16812	-19100	19716	6572	22487	15652	-23460	-6580	9380	-9607	21130	863	-15616	4480	-1704	-1354	1003	-94	-11040	10008	14920	416	3885	-2042	-24832	6024	-1376	791	2705	-450	-23032	4584	8008	686	449	-31	124	131	1
-13324	976	12048	2550	28974	13093	-32768	8208	-3156	19668	18732	-5802	-31512	2800	4952	-1241	398	514	-10600	13072	15856	560	4886	-3060	-28784	7392	272	876	3007	-470	-27968	3640	11808	482	-172	49	121	134	1
-24004	120	23828	-531	32767	11208	-22352	8508	-2332	12691	22706	3065	-14072	-20960	-2864	2147	-681	73	-10664	16640	15888	946	6058	-4449	-32432	4312	5384	1376	3175	-305	-28952	8400	13224	1133	-1794	37	123	128	1
-18788	-7044	11844	-5758	22341	11083	-14352	-6160	-6664	7192	22425	5204	-10680	-6152	-2992	4140	214	148	-16872	10608	15880	1326	7025	-5376	-29808	296	2856	2179	3243	199	-16872	-8920	-360	216	-1553	-463	124	128	1
-13652	-11620	7932	8338	5775	10337	-16596	-15276	-12860	17976	19550	-407	-13608	16720	-17064	3843	326	-581	-26872	-3360	14472	3120	7687	-4145	-22728	512	-10184	2938	3113	261	-25600	-7744	80	4	-3040	-630	124	131	1
-15204	-8612	10600	8710	57	5368	-14560	1580	-13084	28295	12050	4615	-9928	14176	-8320	682	1141	-452	-32768	22904	13376	3632	6997	-3500	-30728	7304	-3744	4164	2802	-400	-23440	1456	-13936	2526	-3510	-867	122	133	1
-9964	-4672	13488	4798	338	1519	-20456	11292	-8656	10618	10524	903	-15720	8952	-7792	-522	1981	288	-32768	32767	23512	1962	4550	-4727	-19336	15256	-12304	3130	2504	518	-26928	2144	-16680	2954	-3725	50	125	136	1
-10884	-5316	13168	4104	335	1173	-16220	7048	-7792	-11661	11206	-4569	-19448	-1840	-7928	-906	1935	550	-32768	20824	31528	-1728	-428	-3246	-10840	1648	-11640	149	1101	578	-28368	3104	-8376	1231	-4037	303	124	134	1
-9568	-5916	11912	46	1279	-514	-14956	256	-5048	-20411	9405	-7371	-18112	-1248	-3728	467	1901	195	2664	11912	18384	1097	-2607	929	-16944	-696	504	334	271	-231	-28136	8536	-4752	315	-4018	340	123	133	1
-9000	-6720	11288	-572	1635	-543	-18756	-4884	-3220	-14113	7074	-5607	-18424	3832	-2880	431	1627	238	-2320	19016	12424	1020	-2880	1682	-10704	1480	-2968	809	-804	385	-24192	8344	-4872	-462	-3679	1086	123	121	1
-9364	-7028	11168	-452	1506	-573	-17064	-6496	-1980	-2175	5655	-1557	-15824	1640	-728	-162	1672	669	-2072	11048	12272	-497	-3731	1995	-4488	2608	-2576	212	-2079	976	-20192	2704	-5216	-543	-3235	1109	124	125	1
-9124	-7272	10780	-195	1351	-409	-16116	-4756	-1936	6955	4695	1854	-14144	-1344	-80	-338	1696	802	-6280	5632	11728	-162	-4308	3005	-6392	3328	-3608	-1169	-2785	1243	-16312	832	-6560	-559	-2749	720	125	127	1
-9348	-7408	10800	114	1255	-104	-16412	-752	-2864	7381	4244	2446	-13936	-864	-440	-311	1915	527	-7392	7584	10512	147	-5022	3477	-9424	2424	-5488	-2040	-3524	1241	-13632	1240	-7288	-591	-2309	484	124	129	1
-9308	-7324	10576	285	1100	29	-15316	2196	-3160	-184	5052	468	-15928	1616	-760	-496	2084	239	-7672	6536	9992	107	-5094	3608	-10952	1416	-4680	-2607	-4265	1250	-11208	2696	-8848	-828	-1866	275	122	131	1
-9324	-7204	11108	130	1064	-51	-15440	2168	-2480	-8205	5492	-2212	-16960	4680	-1072	-761	2243	211	-11792	7320	11144	132	-4964	3955	-12944	-1208	-6816	-2979	-4984	1214	-8832	3736	-9664	-1286	-1587	97	128	133	1
-9288	-6744	11024	-155	1421	-32	-16372	-328	-2920	-11071	5170	-3372	-16416	5512	-704	-1421	2601	410	-15384	6624	14784	147	-4854	4381	-15024	-1656	-9480	-2758	-5569	973	-6680	4536	-9808	-2042	-1270	-47	144	132	1
-9576	-6628	11212	-304	1828	159	-17272	-3240	-2164	-8243	5127	-2549	-15144	1736	104	-1964	2737	557	-20872	2872	17480	650	-4978	4563	-18600	-1552	-10840	-2145	-5979	683	-5032	3968	-7496	-2486	-1045	-191	142	131	1
-9384	-6944	11096	-244	2411	576	-16136	-3540	-1100	-2947	5839	258	-14824	-3256	576	-2005	2647	621	-27824	4112	17560	1259	-5119	4110	-20592	-4184	-12512	-892	-6196	768	-5096	3192	-4800	-2524	-1028	-148	141	127	1
-8612	-7280	10576	-123	2480	723	-15432	-2320	-1152	38	7059	1642	-16976	-5624	-296	-1366	2299	701	-30256	7544	16952	840	-5318	3257	-21304	-2056	-13120	667	-6202	1169	-6472	728	-1552	-2129	-1069	-11	138	125	1
-10812	-6492	11440	148	3566	1134	-15780	-1244	-796	556	8848	1921	-17272	-3432	-1280	-109	1260	583	-30584	9120	15080	848	-5084	2718	-24720	2560	-13536	1138	-5995	1684	-7872	-4104	1888	-996	-822	132	140	126	1
-9568	-7248	10712	-76	2972	1535	-15740	-1140	-1020	-2	10185	1953	-17072	328	-5264	478	887	314	-32768	12632	13400	1100	-4794	2748	-22024	7360	-16352	176	-5716	1718	-9328	-8224	4936	53	-393	305	139	128	1
-9536	-6796	11608	-611	3710	2355	-17116	-856	-3156	-131	11077	1678	-18808	2400	-1440	376	1160	355	-32768	7136	5752	1054	-4209	3151	-20384	5952	-14904	-1480	-5015	1507	-15944	-8008	10224	977	-196	48	137	128	1
-9408	-6636	12436	-1749	5184	3192	-18232	584	-2136	-767	12779	2402	-18552	2296	1160	-156	949	474	-32768	-1160	-2136	563	-2904	3113	-20104	-1152	-18496	-2266	-3801	913	-19920	-2912	18736	2175	-490	-115	137	127	1
-9564	-7176	12188	-2178	7918	4369	-18292	348	-1956	-826	13143	2510	-15640	2584	2080	-782	956	336	-32768	-11152	-7416	-640	-1512	2531	-16032	-1600	-21680	-1189	-2353	360	-17568	1680	23624	1605	-1047	198	140	129	1
-9956	-7028	13080	-1787	11187	4961	-17752	120	-3428	443	16356	2363	-16232	4672	2576	-740	914	160	-32768	-13736	-18224	-831	-566	963	-10080	4464	-21232	-488	-350	-78	-19328	13824	23096	158	-1033	999	137	130	1
-10372	-7516	14076	-924	15797	6354	-20596	-1520	-4856	3410	17319	3371	-19640	4504	-1600	-1125	795	188	-32768	-11008	-14808	366	494	-10	-5656	1560	-22512	-829	1442	-60	-19984	11608	15160	238	-147	700	134	155	1
-11748	-8508	14012	-907	21381	8464	-21400	264	-4824	4328	18520	2814	-21248	-784	-4208	-1408	710	560	-31576	224	-6200	317	1351	-237	-10016	184	-19880	-425	2881	-76	-18200	920	5040	-602	80	-607	132	124	1
-10932	-8892	13400	-1623	27118	11175	-21328	1376	-4444	1469	20312	1369	-20000	-4336	-2744	-619	638	703	-8984	6008	18832	-1910	3303	-1274	-25296	6832	6952	1250	2967	-7	-5760	-6400	10448	-2450	-563	-604	130	128	1
-11516	-9932	12556	-3238	31753	14041	-21104	-972	-2508	-2851	21267	-432	-21472	-3936	-392	-62	480	506	-6456	-4712	17968	-341	2338	-1266	-32768	-4592	2312	-398	2172	67	-2360	6152	-14376	1350	650	536	130	123	1
-10364	-10504	13028	-3508	32767	19428	-26520	-4104	600	-4356	21250	238	-23784	-1336	2592	113	174	249	-27768	14400	21272	-420	2993	-2177	-19072	16	-8272	185	2530	-647	-27720	17000	17864	-1998	-1133	1137	129	122	1
-9628	-10296	12908	-6802	32767	26817	-27036	-1788	412	-6095	20921	1504	-26200	-2672	8136	9	-616	130	-13992	12640	9472	-679	2805	-1325	-15976	6416	-8976	-546	2692	-611	-23424	-408	-8064	-3496	2425	683	129	135	1
-21840	-20108	11324	-7472	32767	32767	-25600	-1984	7264	-14060	26694	2613	-20632	-3560	14336	-986	-3295	-386	-21432	1352	15136	-724	1029	-1374	-15208	6808	-8120	-837	2676	-644	-18344	-5144	-4840	-810	1424	485	128	124	1
-28612	-2460	14084	-13667	32767	32767	-21828	-624	-5544	-12362	26961	-3532	-16920	5672	2768	-957	-2010	-526	-15056	2656	12784	-695	906	-1376	-17400	888	-12080	-2995	1775	-298	-17480	-1352	-3640	-2	1786	1139	126	124	1
-32768	-9028	13404	-20700	32767	23521	-21564	1360	-4688	-16556	27498	7154	-20056	2712	-13336	-1083	-1866	-999	-11600	6616	13336	-451	187	-297	-21824	-7976	-8328	-1348	1440	-125	-12944	5704	-4888	85	2025	958	125	118	1
-32768	-20616	16624	-13815	32767	24465	-26924	-4316	-12092	-13859	26815	5244	-23640	1368	-15752	-1198	-2163	-1514	-10856	6336	12768	-217	171	-91	-15512	-960	-6824	944	1165	187	-14576	8768	-2752	-721	1791	818	126	128	1
1628	-12036	14940	8866	22512	25572	-18236	-5964	-9160	-5529	19282	5038	-26320	6400	-10024	-70	-2519	-1777	-9184	7680	11632	-111	202	-16	-16264	4392	-4008	1474	904	518	-18984	2736	-1760	-1041	1845	382	127	118	1
-12112	-13420	21052	9010	-6440	-1962	-17420	3340	-6816	6864	8894	10045	-26008	5256	-6432	1344	-2936	-1426	-10024	7752	11800	-78	204	-24	-15560	8648	-4864	822	721	427	-18824	-1240	696	-150	1752	159	126	131	1
-2104	-9748	14124	6521	-8279	-6878	-11924	-1608	-352	2412	425	8834	-23280	5432	-6288	1529	-3218	-1657	-9696	7024	12064	-72	183	-10	-15792	6112	-4152	155	574	203	-16216	320	1256	1007	1696	53	126	132	1
-6220	-8732	12764	6691	-16335	-8780	-7168	-1364	-5648	6312	-7325	5041	-21352	7328	-5056	1153	-3041	-1868	-9576	7136	11640	-46	196	-5	-17464	4064	-4368	-80	587	79	-14912	5040	1136	1192	1776	21	126	128	1
-7416	-6488	12848	4834	-30749	-13614	-5236	-604	-7336	7670	-15597	3846	-19456	7632	-3984	832	-2662	-1578	-9536	7352	11592	-21	199	2	-16240	3528	-3752	55	644	46	-13920	6528	1328	826	1921	211	125	125	1
-3188	-6796	9440	3171	-32768	-15138	-8092	500	-3424	6033	-22711	3856	-17848	6048	-4784	682	-2228	-1261	-9672	7720	11576	-14	188	-11	-15464	3632	-3304	575	549	141	-15008	3560	808	600	1976	376	125	126	1
-3468	-6288	6140	2501	-32768	-14261	-8916	2424	-10816	3197	-26177	1265	-15968	4768	-6064	628	-1814	-1121	-9528	7800	11480	-14	185	-10	-15920	4656	-3168	898	432	187	-16752	888	96	1042	2024	355	123	128	1
-6364	-6108	7112	-534	-32768	-16315	-6888	5344	-5496	-1306	-32738	-1388	-12752	3440	-6608	893	-1510	-817	-9800	7136	11488	39	157	-39	-16056	4336	-3808	1013	429	180	-16624	888	-184	1707	2063	305	124	131	1
-8924	-8840	7988	-1593	-32768	-20958	-8404	3792	-5776	-7360	-32768	-4981	-9784	2536	-6976	1333	-1424	-464	-9696	7328	11608	57	139	-36	-15504	5824	-3816	864	525	69	-13728	168	424	2427	2008	147	125	124	1
-10596	-8928	9572	-1231	-32768	-24784	-13028	2244	-6116	-6261	-32768	-8055	-7936	2432	-7160	1897	-1420	-108	-9472	7280	11416	75	132	-44	-15504	5096	-2912	756	518	113	-13456	5744	1264	1890	2281	209	123	128	1
-16792	-8076	12112	-2391	-32768	-28604	-14744	1272	-8692	-4149	-32768	-8380	-6512	3272	-7240	2398	-1418	229	-9392	7832	11224	70	147	-85	-16048	5280	-2320	714	576	19	-14808	8360	2528	1385	2487	508	125	111	1
-18524	-8700	12416	-2419	-32768	-28335	-14932	1376	-8604	-3857	-32768	-8330	-4992	4464	-7000	2318	-1320	377	-9696	7592	11168	85	158	-129	-15128	5128	-2888	702	718	-44	-16368	7392	2112	912	2526	412	124	130	1
-21536	-9488	13128	-1611	-32768	-23603	-19900	408	-8792	-2730	-32768	-11769	-5536	5656	-4856	1793	-1033	241	-9728	8104	11168	64	143	-176	-15560	5792	-2520	722	857	-140	-16608	5104	-496	812	1914	172	124	129	1
-29048	-9976	15504	-4912	-32768	-22118	-23196	1912	-11848	-1005	-32768	-12000	-6472	6880	-2992	780	-532	-60	-9584	7768	12040	51	187	-249	-16176	5168	-2656	489	938	-143	-16928	5464	-2848	669	1314	131	126	130	1
-27152	-15552	15044	-5548	-32768	-24229	-26476	724	-14516	3795	-32768	-12406	-9320	9056	2760	-483	-271	-248	-9728	7568	12232	104	284	-298	-16760	3256	-3792	346	1096	-162	-16856	6376	-2248	269	1069	69	126	131	1
-31972	-13024	12064	-2250	-28427	-27775	-26788	1084	-14692	8350	-32768	-12291	-13896	6776	7584	-1033	-482	-287	-9632	7208	12576	215	462	-353	-18056	3968	-4568	338	1210	-198	-16896	6432	-1808	234	1070	31	124	129	1
-32768	-12060	8456	-574	-25030	-31470	-23816	-324	-17496	9327	-32768	-9988	-15104	5832	8480	-1042	-495	-270	-9664	6808	12712	305	767	-444	-18456	2752	-3656	395	1277	-183	-17712	3232	336	312	1292	-71	126	125	1
-32768	-9200	-944	5607	-21142	-30237	-18772	-1352	-15932	11714	-32768	-8379	-19344	-1496	11032	-1998	489	-210	-10008	7880	12896	302	1113	-559	-17888	3888	-2752	524	1503	-201	-17696	128	2992	252	1219	84	124	129	1
-32768	8592	-5128	1183	-12995	-28233	-15088	1592	-17964	6472	-23635	-5017	-18184	-6528	17520	-1974	727	-198	-10480	7656	13464	193	1553	-758	-17920	5008	-3568	242	1925	-306	-19200	-720	4616	363	1017	257	127	131	1
-32768	10784	-15068	283	-8422	-12168	-10148	-1384	-18620	5613	-9321	-3403	-18824	-12584	15160	-607	277	-618	-11136	7936	14032	178	2161	-1031	-20896	3240	-4368	108	2127	-380	-20704	1840	2160	1157	856	175	124	129	1
-32768	11076	-17668	-5548	1284	-116	-5996	5980	-19960	-713	6405	-954	-22192	-11808	9472	1055	-239	-668	-11120	7824	13632	314	2833	-1303	-21872	1976	-3664	425	2328	-391	-19736	5744	2104	1651	849	-74	126	134	1
-31524	1320	-10512	-4701	8911	4580	-9500	1484	-19036	-7216	17599	-1943	-17856	-4096	5072	1726	-279	-238	-11056	10024	13664	417	3581	-1694	-21720	4184	-1968	729	2569	-406	-19720	6592	3504	1121	586	-196	124	126	1
-16688	-19232	-10028	9717	24141	11855	-15316	-7088	-9352	-1188	21385	-1773	-11144	2976	-1688	833	764	-113	-10704	10768	13136	563	4316	-2373	-22472	5608	-544	875	2844	-390	-20392	3904	7680	645	247	-2	124	130	1
4412	-31676	25800	8918	20393	8413	-30008	-5812	24192	4241	14938	2888	-7720	160	-8672	-246	983	224	-9584	12312	14136	851	5206	-3321	-26240	6424	-64	1017	3042	-316	-24408	2232	12104	669	-254	141	124	132	1
-32768	3432	17260	5951	32767	14082	-26856	3872	-11508	26216	16059	-4253	-30776	-6944	6136	858	-306	1335	-12520	16552	15184	1377	6516	-4525	-32768	3064	4888	1763	3109	-135	-30528	5488	20280	493	-2327	253	125	128	1
-20404	1748	18652	2347	23684	13480	-24216	8900	-7760	16165	22667	6129	-22776	-9328	7208	5241	-611	215	-25320	10656	13592	1811	7195	-5124	-30040	1328	-1152	2681	3269	127	-21672	-6256	1576	1321	-1737	-290	126	128	1
-27916	-11736	14600	2236	13239	9952	-16720	-3856	-9276	13505	21408	3373	-16296	18664	-13912	4510	702	-1163	-32104	9704	15504	3781	7339	-3342	-22920	5864	-4408	3629	3134	-20	-22384	504	-6992	1865	-3070	-603	125	129	1
-16788	-11552	11176	3427	7404	7252	-13528	316	-12092	16574	15497	339	-7912	16776	-7600	487	1516	-1039	-32768	17520	16272	2712	6178	-4080	-29808	11000	-2192	3640	2589	-414	-25552	8720	-14920	2907	-3327	-348	124	134	1
-12260	-6344	12728	4113	1948	3657	-12192	-472	-9140	5057	12585	-2201	-10040	7168	-9104	-1299	2294	326	-31032	32767	18744	1242	3920	-4880	-17360	12016	-15272	1584	2519	368	-26008	2840	-14304	1350	-3702	445	125	132	1
-10804	-6804	11796	2421	1360	1088	-18704	3868	-6712	-4264	10858	-2986	-14032	-1288	-10248	-1967	1899	1129	-32768	17480	31440	-565	-1936	-1441	-11808	-2088	-10992	-772	1132	-75	-28216	2160	-7824	-122	-4122	376	126	131	1
-10112	-6692	11720	1524	1367	399	-16016	776	-5588	-12401	9656	-5364	-19984	-7712	-6104	-320	2003	861	3320	14608	14280	1125	-2869	1133	-18960	584	2344	487	290	-307	-26680	5712	-4784	-716	-3845	635	126	131	1
-9584	-6840	11328	1165	1498	321	-17216	-3320	-3752	-11620	7994	-4748	-20368	-6912	-5800	-66	1961	715	-2488	16728	10704	446	-2896	1424	-8824	904	-5168	435	-928	408	-23760	3616	-3512	-906	-3608	1232	127	125	1
-9420	-7428	10992	1099	1563	372	-18220	-5892	-2388	-1851	6475	-1746	-18016	3576	-2456	587	1929	415	-2680	9752	11272	-552	-3629	2007	-4016	1144	-3104	-100	-1945	730	-20440	-128	-4584	-650	-3324	1030	126	125	1
-9460	-7012	10940	1218	1643	400	-15284	-3564	-2100	5188	5278	1109	-14984	1560	-360	164	1923	648	-6600	5912	11472	-233	-4084	2905	-7384	1280	-3608	-876	-2679	1158	-16640	-592	-5696	-402	-2833	708	126	126	1
-9388	-7028	10896	1115	1486	392	-15760	-360	-2352	4568	5466	1380	-12360	320	112	-80	2100	489	-7912	6080	11208	256	-4917	3461	-9352	56	-4688	-1418	-3413	1241	-14248	-376	-6704	-347	-2528	450	127	130	1
-9256	-7116	10516	1105	1487	434	-15724	732	-2716	-1376	6552	-159	-13744	424	-1248	-468	2206	548	-7496	5528	11248	316	-5015	3503	-11336	-624	-3256	-1737	-4153	1407	-13688	80	-7208	-361	-2427	369	131	133	1
-9508	-6904	10832	1079	1436	483	-15784	-1128	-2740	-5521	7124	-1302	-16360	2976	-936	-929	2435	490	-10264	5656	13328	470	-5063	3743	-12936	-2760	-5656	-1916	-4931	1498	-8896	3448	-8088	-796	-1920	-76	129	132	1
-9632	-7284	10732	1017	1542	818	-15792	-2608	-2236	-4849	6770	-840	-17160	4864	-560	-1517	2724	308	-13512	5240	16624	549	-5076	4046	-15000	-3496	-6896	-1801	-5477	1344	-7264	3872	-7840	-1380	-1500	-200	126	133	1
-9228	-6448	11244	667	1878	1208	-16752	-1236	-2480	-2631	6671	30	-14080	5264	720	-1913	2842	138	-19288	3560	19296	859	-5199	4184	-18192	-2600	-8848	-1467	-5919	1147	-5952	2784	-8080	-2143	-1169	-341	121	129	1
-9824	-6952	10928	334	2585	1124	-16816	-1244	-1688	-2282	7434	731	-16056	1264	-1288	-1597	2447	119	-23792	4784	19296	1357	-5433	3924	-20144	-3856	-9744	-773	-6255	1219	-5040	1776	-7800	-2548	-949	-399	125	126	1
-9648	-6748	10732	-111	3077	1463	-15360	-1576	-2088	-763	8170	1108	-14440	-1440	-7152	-893	1069	617	-26728	8256	18744	872	-5467	3535	-22576	-1880	-11696	105	-6451	1459	-6264	1352	-6320	-2378	-829	-262	125	126	1
-10292	-6696	11008	-290	3494	1375	-15300	-1072	-3176	-579	8880	1196	-14280	-1656	-7416	-787	959	668	-29688	9728	18688	681	-5028	3271	-26736	1248	-15168	173	-6467	1753	-8432	-1520	-1008	-1242	-772	-79	126	127	1
-10240	-6468	11580	-725	4148	1913	-17320	-1628	-3568	-1013	9594	1667	-18696	-648	-1912	150	1513	287	-32768	11296	16888	918	-4997	3465	-23216	4400	-19736	-690	-6105	1566	-8192	-4608	3672	76	-560	178	127	122	1
-9712	-6388	12224	-1355	5474	2817	-18084	-588	-2236	-2051	10998	2135	-19608	920	328	-112	1203	331	-32768	9056	4192	433	-4551	3583	-23488	7272	-20264	-1833	-5381	1117	-13200	-2528	11448	1216	-564	-183	127	141	1
-9704	-7392	12092	-2326	7702	4491	-18068	172	40	-3240	13119	1285	-19824	608	1984	-289	1008	391	-32768	816	-8984	-472	-3102	3375	-18768	2040	-22904	-2624	-3879	544	-19736	-1136	22792	2516	-560	-167	127	123	1
-9996	-7792	12620	-1561	11101	5646	-18104	1008	-788	-3239	15903	1063	-18256	928	5256	-345	808	304	-32768	-8992	-18512	-1281	-1201	2909	-12168	192	-29264	-2301	-1937	38	-22712	2352	29840	1079	-594	449	127	123	1
-10056	-6716	14520	-805	15539	7204	-20328	-1276	-1956	604	18080	2654	-18600	5520	3792	-852	861	49	-32768	-14528	-25496	-820	275	1482	-6720	2960	-26672	-1324	364	-262	-18760	15184	20248	-587	-481	1150	128	136	1
-13172	-6416	13456	-884	21683	8270	-20304	-20	-4044	3971	20110	3567	-19592	5336	216	-1509	804	288	-32768	-11624	-16320	-257	1537	167	-3960	1112	-25048	-1125	2045	-68	-16304	8304	9360	-833	539	310	129	117	1
-11384	-7416	13596	-43	27076	11348	-21400	408	-2696	4521	21908	2689	-20656	-1400	-920	-1523	670	628	-26552	-5024	-7608	-1036	3882	-1380	-13232	3120	-13744	83	3030	-115	-17352	1288	13008	-1638	481	-533	129	127	1
-10568	-10644	14484	-1021	31401	14876	-21144	-212	-568	816	23548	-54	-20144	-5304	680	-895	415	444	9256	10736	32767	-307	2815	-1638	-32768	928	22672	808	1728	85	416	1432	-7576	-688	1360	-418	127	130	1
-10984	-10848	14008	-2958	32767	19728	-25216	-2248	1268	-3381	25088	-426	-23448	-5432	4584	-455	162	84	-32768	-1664	29424	92	4004	-2703	-24160	-4152	-17056	712	3068	39	-28784	13640	10240	394	-1181	345	125	116	1
-11420	-9732	14480	-5947	32767	28077	-30240	-2552	556	-7975	24614	-254	-28456	-8032	7976	-144	-752	-144	-10552	17592	9688	-630	2677	-1879	-18960	8312	-10528	491	3148	-663	-24592	8648	-7640	-3256	1946	432	127	156	1
-19748	-27316	13672	-7290	32767	32767	-28500	-2296	9592	-12081	31408	1119	-21784	-3144	12312	-1306	-3501	-788	-19904	-9248	17208	-766	452	-1508	-9840	12656	-16224	-2049	3093	-712	-18640	-5368	-11728	-851	1199	1031	126	132	1
-27472	484	14448	-16880	32767	32767	-23548	256	-9372	-15782	27229	-5333	-17824	8936	-240	-189	-2458	-722	-20968	4960	14440	-982	111	-859	-10352	12888	-13288	-2374	2866	-790	-15496	-4880	-7160	435	1217	1464	125	107	1
-32768	-12680	14208	-18098	32767	28566	-24756	-912	-8544	-22564	30741	6707	-22592	3808	-17776	-858	-2205	-1252	-12152	5248	13304	-443	66	-179	-27616	-11952	-11952	-2363	1597	-439	-14856	8432	-7912	1162	1797	772	124	138	1
-32768	-26064	19924	-11157	32465	23730	-26672	-4968	-15284	-14927	24698	3959	-26832	4920	-15080	-926	-2379	-1957	-10568	5296	13144	-128	133	-2	-15040	-4888	-8240	950	1299	155	-15144	13912	-5264	-1182	1884	431	124	134	1
-32768	-21372	27452	4108	1995	4976	-17504	-80	-9956	-2028	16246	5330	-28744	6880	-9824	253	-2865	-1975	-9208	7560	11768	7	187	60	-15320	2440	-5384	2237	921	538	-20792	3216	-2760	-2310	1914	171	124	134	1
776	-15712	16856	5457	-8361	-9912	-15684	-1296	-1920	-3380	4096	8565	-27352	4984	-7232	1525	-3466	-1644	-9648	7936	11664	8	194	12	-17504	9064	-4968	1607	839	534	-20480	-5248	952	-944	1915	144	124	122	1
-5272	-9084	14096	5256	-12882	-12253	-9580	-1152	-4672	3685	-4277	4394	-24144	7080	-7224	1522	-3583	-2005	-9480	7232	11816	-8	186	-22	-14952	7272	-4312	514	651	303	-15504	-4280	1304	1121	1813	181	126	135	1
-4292	-4996	14120	1952	-26022	-16679	-3972	644	-6056	5484	-13824	2366	-22048	9776	-3552	938	-3236	-2041	-9128	6784	11864	-46	226	-19	-17096	3472	-5856	-76	521	89	-14896	3352	512	1759	1699	-145	126	127	1
-2912	-5000	10796	-1219	-32768	-18268	-5928	712	-3628	7015	-22596	1298	-18456	9416	-3696	874	-2717	-1439	-9624	7440	11752	3	238	9	-17408	3112	-4184	126	594	-13	-15104	7768	968	1565	1907	-116	124	124	1
-2668	-5380	8312	120	-32768	-16327	-8644	3944	-2744	6427	-29499	-1473	-15376	7976	-5592	416	-2142	-1191	-9912	7672	11408	20	212	-9	-15368	3528	-3848	517	642	0	-13984	5872	568	1120	2137	149	127	128	1
-4384	-4400	8048	-1413	-32768	-17537	-7220	8180	-4624	980	-32768	-3886	-12640	6424	-6168	117	-1718	-1037	-9736	7584	11216	10	170	-37	-14648	4312	-3248	830	455	75	-16136	2240	224	920	2023	305	127	129	1
-8788	-7236	10128	-2540	-32768	-23205	-6796	6408	-5668	-5464	-32768	-6824	-9472	4904	-7256	-20	-1286	-753	-9856	7184	11336	25	118	-68	-15872	3936	-3576	977	399	126	-17712	912	1032	1309	2082	314	126	130	1
-11236	-7308	12308	-633	-32768	-29606	-10556	4264	-5396	-5178	-32768	-9535	-6584	3368	-8280	404	-1058	-438	-9592	7352	11760	24	81	-117	-16232	3840	-2864	1043	487	139	-15344	832	2512	1765	2148	212	125	123	1
-15184	-5208	14364	-1370	-32768	-32768	-14536	3740	-7468	-2171	-32768	-9985	-5080	2784	-8600	1337	-1037	-16	-9528	8000	11632	19	84	-154	-15816	6496	-3000	692	582	-6	-14264	4416	2472	2047	2238	68	127	127	1
-19944	-5292	14908	-3950	-32768	-31741	-15436	3992	-8732	-1063	-32768	-9524	-2984	4024	-8616	2087	-1012	398	-9728	7200	11568	-7	95	-186	-14968	4912	-3352	226	674	-100	-14976	9224	1272	1884	2472	90	127	123	1
-23980	-5012	16544	-5161	-32768	-28889	-18596	5680	-10988	-3333	-32768	-10154	-3280	4656	-6880	2218	-946	534	-9952	6704	11760	1	98	-183	-15232	2584	-3584	217	804	-175	-15064	7568	-240	1195	2364	175	127	127	1
-30108	-7616	16820	-7469	-32768	-24637	-23816	6332	-11572	-7466	-32768	-11708	-5832	5088	-4288	1835	-700	401	-10000	7240	11208	7	119	-192	-15712	3432	-3568	440	928	-188	-15200	3528	424	346	2162	241	129	130	1
-32736	-10456	17828	-6063	-32768	-22590	-27208	3952	-15512	-7588	-32768	-14011	-8864	7232	1032	796	-445	55	-9600	8024	11448	35	169	-261	-16816	4112	-3664	452	986	-143	-15776	1400	-352	70	1950	282	128	127	1
-32768	-12864	14612	-4055	-32768	-24920	-27532	2624	-15264	-3014	-32768	-13496	-12232	8304	8392	-337	-542	-93	-9976	6952	12568	110	322	-359	-17408	3216	-3224	359	1189	-175	-17288	872	-544	26	1645	26	127	130	1
-32768	-10980	5492	432	-31243	-27271	-23924	-624	-16560	2678	-32768	-12715	-19344	3424	11128	-1376	-493	109	-8808	6872	13312	228	570	-478	-18000	2544	-2464	393	1403	-240	-18656	3992	1384	352	1427	-153	127	133	1
-32768	-7356	-3032	4246	-22145	-27180	-19232	-2716	-18576	12794	-32768	-8767	-21872	368	13024	-2544	7	257	-10672	6064	13744	255	929	-611	-18464	2704	-3920	374	1571	-222	-18288	4760	3256	604	1227	9	128	127	1
-32768	1520	-10208	6543	-11097	-25436	-15612	1756	-20572	18889	-22551	-4473	-19760	-6880	18112	-2334	626	280	-10912	7680	14208	204	1423	-781	-19896	4032	-4224	301	1819	-318	-19440	1920	3096	481	1038	120	127	127	1
-32768	10112	-16696	6316	129	-17411	-8100	-160	-20612	12981	-6835	434	-20200	-12968	18952	-1481	354	-161	-10352	7944	15096	24	2107	-1124	-21712	3952	-3928	137	2086	-419	-20776	1944	1720	650	1067	-19	127	127	1
-32768	11964	-15404	326	5692	-797	-7592	3164	-21152	7432	8319	2113	-18792	-11184	9864	444	-120	-693	-10816	7736	14312	124	2805	-1448	-21872	1976	-4272	246	2348	-477	-20520	6136	2816	1127	1061	-169	126	128	1
-32768	10464	-14588	-1219	6454	1141	-9856	2224	-19348	-4093	19248	-223	-18368	-3880	1184	1991	-201	-826	-10680	8944	14232	224	3537	-1825	-22328	3744	-2152	566	2599	-537	-20176	6840	3984	722	767	-209	126	131	1
-23148	-7908	11728	6883	23050	19206	-21452	-8444	-4084	-8993	23363	-2289	-15552	3984	-200	1039	359	-194	-10416	9960	14216	238	4265	-2528	-23808	5560	-632	712	2859	-538	-21672	6528	8032	348	475	-180	127	130	1
2860	-11796	16832	3219	27296	17285	-32768	4596	9204	9678	16645	-5154	-24344	4400	4112	-600	-324	486	-10136	12824	15256	363	5114	-3570	-28224	7376	-120	708	3110	-542	-26744	6192	12384	240	-231	-149	127	132	1
-30296	-5404	20988	1399	30088	12620	-27000	3844	-5796	9985	23446	603	-21288	-16608	456	1095	-302	1025	-15344	17360	16712	529	6217	-4983	-32768	4864	5392	1532	3176	-396	-30336	8616	22880	-301	-2761	100	125	127	1
-18952	-9400	10996	-3436	23481	10185	-15488	-3528	-6312	9699	24792	7206	-15048	1104	-3648	4323	410	-206	-28440	12984	14808	1116	7040	-5326	-27776	2912	-3032	2088	3283	-60	-20616	-6280	1784	390	-1596	-213	126	128	1
-28568	-7804	12080	3922	9392	10625	-14880	-10560	-15740	23667	18567	3006	-11040	15168	-16760	3466	558	-1007	-31600	12624	15936	2747	7448	-4065	-25136	4944	-2512	2938	3230	-330	-22216	-1968	-7304	778	-3092	-541	126	130	1
-18936	-8828	11404	6625	2851	6926	-15064	2468	-15356	29785	11657	4659	-9816	15848	-15544	2641	597	-1058	-28936	17840	18128	1971	6418	-4669	-28664	9336	-472	3335	2518	-414	-26632	4736	-15800	2542	-3337	-237	126	135	1
-11660	-4524	13800	4127	1089	2558	-14116	3040	-15316	28017	10963	2916	-16944	7120	-10928	-848	1933	573	-21952	32767	27488	-88	3571	-4963	-19280	10872	-9576	1236	2138	301	-26864	-1256	-13632	1719	-3808	453	124	131	1
-9956	-6128	11952	1782	1097	420	-14684	7116	-8404	-10939	10778	-5091	-19464	-4240	-8560	-1243	1855	914	-27536	14904	28592	-863	-1096	-931	-13224	-576	-9936	-344	794	60	-28560	1424	-7160	576	-4102	377	123	132	1
-9732	-6796	11416	906	1239	71	-14908	-176	-5716	-23614	9487	-8699	-18552	-2544	-4480	521	1933	442	-16	14472	15968	818	-2065	1784	-16856	-512	-104	451	64	-216	-26768	6072	-4760	39	-3894	748	123	131	1
-9348	-7236	11052	682	1420	101	-19508	-5352	-3308	-17532	7052	-7204	-17304	3528	-2592	477	1923	171	-3152	16192	11816	359	-2325	2169	-8968	1696	-4576	712	-1074	493	-23768	5728	-4832	-292	-3685	1352	124	123	1
-9208	-7104	10976	784	1390	221	-17160	-6400	-1780	-4795	5526	-2388	-15336	3264	-648	-193	1894	502	-6600	10336	12904	-558	-3525	2575	-3992	2680	-5056	-23	-2031	943	-19976	1664	-5976	-399	-3296	1175	125	127	1
-9292	-7180	10924	865	1397	96	-16160	-4452	-1936	5726	4334	1307	-15024	-216	-704	-631	1868	809	-6576	5088	11616	-293	-4456	3226	-6280	2936	-4128	-987	-2866	1302	-16144	600	-6784	-510	-2840	840	127	129	1
-9184	-6540	10844	925	1384	25	-16064	-1340	-2664	8863	4030	2745	-13672	-1808	-1096	-381	1991	795	-8800	4928	10352	260	-5159	3553	-8624	2000	-4672	-1831	-3550	1416	-13688	1040	-8064	-613	-2437	626	128	133	1
-9292	-7396	10608	991	1130	-146	-15156	1088	-2756	3935	5174	1329	-14888	272	-560	-390	2170	499	-7416	5384	10208	540	-5388	3684	-10880	488	-3456	-2387	-4268	1496	-10296	1792	-8760	-721	-1988	357	128	133	1
-9360	-6804	11088	741	944	-107	-15500	1760	-2436	-3365	5943	-1140	-16856	4352	8	-598	2319	339	-11936	7608	12320	456	-5267	3913	-12736	-1768	-6088	-2676	-5050	1465	-8072	3536	-9272	-1151	-1669	234	126	133	1
-9264	-5292	11396	285	1009	-131	-15660	1432	-2992	-8583	6094	-2474	-16048	5856	560	-1126	2461	369	-12664	7384	13000	431	-5267	3971	-15608	-2552	-7704	-2562	-5667	1220	-6520	3856	-9296	-1794	-1222	60	116	133	1
-9632	-6828	11072	-158	1310	-306	-16184	-1176	-2080	-10566	6471	-2197	-13952	3680	904	-1710	2668	422	-20384	4632	18696	690	-5116	4653	-19504	-3160	-10016	-2076	-6170	1033	-4720	2840	-8840	-2571	-917	-106	120	131	1
-8972	-7264	11476	-337	1709	236	-16160	-3412	-1128	-7361	6989	-439	-15288	-1456	1280	-2056	2778	429	-26432	4064	19928	1316	-5175	4498	-20960	-4496	-10976	-1018	-6423	1073	-4144	1624	-7728	-2899	-745	-192	120	123	1
-9148	-8084	10496	-128	2199	809	-16024	-4292	-416	-1143	7516	1386	-17208	-2888	-1608	-1744	2316	633	-30880	8512	20104	991	-5304	3968	-23520	-1488	-12072	288	-6470	1366	-6656	472	-3888	-2695	-758	-95	122	128	1
-8788	-8188	11032	103	2818	1574	-16364	-2248	-2048	2221	8210	2169	-17824	-4064	-5880	-730	1274	675	-32768	7336	19328	806	-5210	3401	-26336	680	-14328	460	-6386	1791	-7752	-3288	656	-1518	-641	122	123	126	1
-9168	-7744	10696	3	2900	1633	-16448	-228	-3408	1769	9165	2305	-17136	-2016	-7272	330	1076	448	-32768	9016	16368	1159	-5027	3179	-24592	4424	-17336	-95	-6088	1689	-8560	-7120	5592	-335	-312	383	122	130	1
-9512	-7004	11960	-1123	5076	2396	-17712	600	-1500	-56	10711	2681	-18464	-232	-2280	711	1123	396	-32768	7232	6704	1045	-4506	3281	-22480	5432	-17344	-1290	-5389	1282	-15760	-6352	14256	1068	-354	-97	124	133	1
-9300	-7328	12696	-2574	7439	3692	-17884	592	-572	-2235	12803	1558	-20808	1016	3536	464	954	600	-32768	-200	-9136	-106	-3028	3179	-19640	1152	-19944	-2102	-3880	602	-23304	-2192	27664	2729	-995	-277	124	125	1
-9768	-7480	12712	-3459	9930	5183	-17596	272	-672	-3311	15781	992	-17160	4024	6960	-257	945	281	-32768	-14936	-20976	-1108	-1007	2500	-10104	-232	-24016	-1504	-1858	30	-20456	2968	29632	1637	-877	274	125	129	1
-10196	-6136	13876	-1690	14059	6326	-18900	-668	-2784	-441	17692	1778	-16920	6040	5032	-868	976	149	-32768	-15248	-26632	-553	435	820	-6408	6200	-24768	-658	745	-92	-20448	6808	27912	1224	-827	483	124	152	1
-10716	-7672	14612	-1602	19500	8216	-22052	-920	-3892	4095	19174	3668	-20688	5440	160	-1291	952	262	-32768	-8072	-14976	-164	1847	-227	-6240	2416	-24608	-1230	2389	-60	-17680	6832	9304	-491	309	-45	125	141	1
-11240	-6888	14528	-1748	25629	10155	-26096	-1896	-3936	6264	18941	2614	-22144	-2000	-1552	-1357	830	616	-7008	16384	8648	155	2380	-25	-11600	1176	-21728	-742	3611	-360	-11120	-1440	-2032	-951	577	-428	124	118	1
-10580	-9064	13192	-3659	31448	12889	-22164	1128	-1100	1311	23557	1048	-21176	-6384	576	-723	511	483	3224	10160	32767	-1531	2565	-1733	-32768	7936	24648	1466	1925	336	-272	-1704	-8032	-1320	369	-15	125	135	1
-9944	-11488	13800	-3836	32767	17960	-24908	-1556	1228	-3862	25026	-53	-23208	-5808	3728	-336	169	250	-20776	-16040	21152	-762	4412	-3268	-25816	-7064	-8680	-317	2764	378	-17032	10480	-160	1712	-391	512	123	113	1
-9832	-11484	15068	-6045	32767	26119	-28648	-2684	1516	-5088	25389	646	-23824	-5536	4472	-297	118	222	-19568	18624	14024	-174	2926	-2295	-24448	856	-8264	513	2988	-705	-27360	21896	16728	-3100	-474	970	125	123	1
-15716	-15948	15300	-9273	32767	32767	-30756	-2292	14144	-16487	29581	3432	-24744	-4280	15288	-165	-3000	-250	-15040	20032	9672	-344	3027	-2270	-12000	15040	-13096	-647	3313	-718	-25496	-10320	-15096	-4148	1982	917	125	131	1
-27500	-4024	13704	-13511	32767	32767	-25116	-2056	-4580	-13114	29883	-5284	-18072	8840	2112	-598	-2671	-615	-16440	-5208	16120	-1183	940	-1816	-8832	8384	-15896	-3638	2459	-443	-11656	-10736	-7728	593	1318	1011	125	110	1
-32768	-8616	16124	-21769	32767	28805	-23784	4	-4652	-20323	30673	7811	-20912	5712	-16960	-1150	-1960	-1247	-12600	1600	14688	-598	41	-248	-25448	-9456	-14008	-3665	1734	-406	-14352	3440	-8272	1637	1543	767	129	114	1
-29128	-24560	20208	-16980	32767	27556	-28320	-5852	-15632	-13347	26549	3451	-27736	4112	-16608	-1222	-2262	-1856	-10672	6552	12456	-203	182	39	-18856	-5680	-8744	130	1541	-107	-12536	12976	-7304	374	2265	944	126	123	1
-31084	-24256	11376	5617	22799	21910	-19164	-5908	-9984	-5287	17170	4076	-29344	7592	-10792	-398	-2839	-1950	-9784	6440	12080	-25	215	76	-13080	-192	-6656	1795	959	442	-18416	10816	-4128	-1516	1763	648	128	138	1
-10464	-13932	21156	9623	-11861	-4587	-16772	3444	-5964	4669	6476	7945	-26864	4152	-5928	1192	-3433	-1450	-9760	7928	11560	16	209	33	-18632	7728	-5448	1709	866	552	-23232	-408	-1768	-1394	2027	104	124	124	1
-2452	-8228	14840	3300	-13576	-9313	-11812	-1076	-1148	190	-2927	6917	-24384	5112	-6608	1545	-3696	-1839	-9960	7176	11720	-3	190	-34	-15632	8216	-5264	927	649	362	-18968	-2304	856	501	2051	66	125	131	1
-5444	-7548	13128	1090	-23404	-12384	-6092	488	-6592	2155	-11274	2519	-22544	8600	-3752	1159	-3322	-2006	-10056	6552	11912	11	222	2	-16376	5696	-5424	39	490	94	-13656	2424	256	1183	2057	-124	124	129	1
-5664	-5804	12116	-760	-32768	-17131	-3856	580	-5236	2267	-19295	484	-20048	8720	-3960	816	-2754	-1555	-9888	6968	11736	68	237	26	-17104	3624	-4216	-79	502	-13	-13296	7080	920	1000	2137	-170	123	128	1
-4156	-6856	8340	-836	-32768	-18242	-6932	1368	-2792	1215	-26903	-968	-16000	7984	-5904	545	-2269	-1209	-10080	7296	11416	71	221	7	-15288	4016	-3464	195	592	2	-13704	5544	736	671	2390	176	124	125	1
-4180	-6128	5772	1213	-32768	-17029	-8172	3480	-3100	1716	-32117	-4282	-13216	6632	-6352	157	-1828	-1065	-9752	7264	11168	69	187	-35	-14352	4232	-3648	433	462	76	-15872	1744	-736	552	2365	495	125	127	1
-6068	-5264	7220	-769	-32768	-20098	-6604	5876	-5332	-2048	-32768	-6054	-9576	4736	-7080	6	-1433	-881	-10024	7216	11312	69	157	-72	-16144	3464	-4136	698	365	192	-17808	-160	-592	1021	2440	507	126	130	1
-8396	-8052	8576	-1519	-32768	-26103	-7680	3700	-4900	-4409	-32768	-8347	-6720	2760	-8736	164	-1099	-624	-10280	6792	11216	95	144	-89	-16536	2944	-4464	1064	411	251	-16232	-520	1728	1812	2692	534	126	115	1
-13396	-8836	11832	327	-32768	-32128	-12608	2304	-7212	-1574	-32768	-10314	-4616	1880	-8920	848	-1010	-221	-10016	7200	11384	110	138	-92	-15656	5208	-3016	1217	493	177	-13208	2776	5064	2191	2962	490	125	123	1
-19088	-5864	14248	-1394	-32768	-32768	-15528	2452	-9212	1672	-32768	-8482	-3048	2032	-9200	1984	-1025	196	-10032	7320	11496	97	159	-129	-15296	6144	-1952	985	630	32	-14872	7512	4488	2307	3053	305	123	131	1
-22244	-6028	14116	-4219	-32768	-32067	-17064	4116	-9852	831	-32768	-8294	-2704	2384	-8944	2130	-1029	254	-10160	7456	10936	68	152	-186	-15072	5992	-2240	785	776	-78	-16536	8528	-1456	1479	1981	92	125	130	1
-25568	-9492	15516	-3209	-32768	-28062	-20620	5576	-11196	-2304	-32768	-10658	-5360	4816	-7368	2553	-944	408	-9784	7624	11672	42	159	-263	-15144	5080	-2016	539	1011	-157	-16792	7096	-5160	565	1056	179	125	131	1
-29500	-11764	19472	-2211	-32768	-27018	-21472	5432	-11192	-2927	-32768	-11318	-8704	7376	-3928	1627	-323	189	-10024	6848	12072	94	258	-350	-17192	3504	-3704	386	1164	-153	-17552	4664	-704	203	1074	195	127	130	1
-32768	-15504	17916	-3148	-32768	-28745	-29728	552	-15708	-4984	-32768	-12899	-11624	8664	2904	-47	219	-94	-9760	7216	12880	213	478	-421	-18616	2544	-4696	376	1254	-204	-16720	5808	1000	400	1178	-54	127	129	1
-32768	-18572	8180	2312	-32768	-26413	-27952	-4616	-16880	4357	-32768	-14153	-16608	4368	7424	-1166	257	-50	-10320	7856	13184	251	811	-511	-18888	2048	-3936	606	1322	-149	-17416	1912	-352	415	1308	-64	127	127	1
-32768	-13128	-5472	4541	-25007	-28202	-22576	-1060	-18884	16701	-32768	-9858	-24200	1904	17576	-1845	77	342	-10664	8792	13088	249	1180	-631	-17776	3512	-2640	734	1539	-189	-16968	-656	2696	314	1276	64	126	127	1
-32768	-1704	-14104	2859	-10764	-30293	-14648	4664	-24152	18141	-23964	-9353	-26120	-9352	28104	-948	-65	334	-10616	7400	13592	125	1699	-783	-17984	4960	-3288	281	1957	-349	-19280	-696	4568	451	1096	277	125	127	1
-32768	15920	-25004	1815	4021	-22873	-3968	-640	-23140	7349	-2542	-2487	-20400	-15904	25848	-145	-583	-302	-10864	8504	13864	112	2329	-1021	-21360	4568	-3592	-81	2249	-520	-21056	4944	2912	1400	1018	144	126	130	1
-32768	20240	-18748	2898	9806	1431	-3364	-1792	-24428	7562	161	-2626	-16768	-5096	11840	1577	-883	-1030	-11352	9256	13816	221	2989	-1384	-21736	3264	-2520	217	2458	-503	-20448	9432	1488	1567	876	-151	124	130	1
-32260	772	-8704	-6050	15257	8843	-11924	4832	-20968	-771	25040	2059	-17408	2480	-312	1465	68	-1201	-11104	10592	13096	356	3691	-1949	-21712	4552	-1328	659	2749	-485	-19552	7672	4944	565	455	-295	125	131	1
-9360	-17292	21904	5586	21449	16365	-27404	-5492	14080	-13115	21435	151	-12328	9904	-872	-1492	1204	-630	-11184	11480	13600	466	4450	-2810	-24224	7552	384	942	3039	-430	-22016	4872	11224	243	179	31	126	132	1
-7776	5432	14432	-1266	30403	24529	-28792	3224	612	14180	18216	-7914	-16720	7664	-4864	-1675	586	577	-11248	13504	14664	765	5414	-4002	-30720	7512	952	1182	3163	-277	-27768	2264	14048	341	-712	206	125	132	1
-24364	-11152	18612	2905	27093	18902	-28536	4004	-7244	6856	25129	2701	-32768	-32768	5248	1123	-389	1392	-19968	13368	15448	1131	6643	-5248	-32768	3024	6152	2319	3399	-53	-21728	-9560	8424	-855	-2535	18	124	129	1
-32768	-22216	11896	4781	18635	14299	-17284	-9352	-14148	15028	24806	4912	-16336	608	-5720	5409	178	-565	-32768	3320	14384	1904	7081	-5125	-25192	2848	-7208	2642	3307	247	-25528	-8728	1896	1322	-2168	-359	125	131	1
-16884	-4128	16640	4965	4820	6545	-16508	-10456	-14716	17199	23628	4277	-13832	15256	-18248	4365	572	-1540	-32768	22760	12240	3280	6967	-3718	-29416	5368	-3248	3395	3163	-437	-22080	2992	-15056	2790	-3402	-602	125	132	1
-11076	-5996	12648	3117	1163	1648	-17404	3920	-12636	19003	13465	3267	-8672	15776	-8576	1349	1844	-364	-32768	31928	25576	2180	5265	-4723	-22424	10784	-10344	2728	2854	316	-27016	3136	-17448	2955	-3631	136	126	132	1
-9844	-6416	12452	1965	1542	316	-16852	6560	-7768	5723	10914	-1446	-13064	8216	-12048	-380	1671	1081	-32768	31136	22248	-1422	1488	-3579	-15984	3208	-14696	410	1565	431	-29760	-472	-9808	1011	-4196	542	125	133	1
-9272	-6804	11680	877	1530	-257	-12968	4028	-7924	-11078	9909	-5396	-15680	-2776	-6768	-862	1922	1089	2216	16744	21136	375	-2100	1286	-19552	168	-3032	666	636	-174	-30040	4608	-6872	261	-4250	407	123	134	1
-9220	-6484	11904	545	1502	-84	-17796	-404	-5176	-16139	8166	-7304	-19888	-1024	-4416	376	1906	255	3952	17792	18864	495	-2079	1500	-11648	2584	-1752	1100	-626	365	-26024	7048	-4936	-232	-3915	1150	125	125	1
-8936	-6912	11504	238	1781	-147	-18972	-4208	-3232	-9692	6363	-5238	-19592	6056	-2544	344	1964	199	-5976	10216	14032	-335	-2967	2029	-3800	2392	-4888	130	-1774	779	-21832	2688	-5200	-267	-3533	1464	125	124	1
-8772	-7084	11032	436	1876	-241	-16924	-4796	-2288	-326	5374	-1655	-17920	2824	-1312	-321	2149	498	-7056	6256	13400	-304	-4325	2762	-3336	2424	-4848	-32	-1877	795	-17336	72	-6320	-257	-3056	1088	124	127	1
-8880	-7292	11012	660	1659	-230	-15836	-2700	-1924	4260	4276	80	-13512	-1720	-816	-616	2215	631	-7960	4392	11064	134	-5256	3156	-8880	2056	-4448	-1816	-3267	1294	-14400	880	-7360	-374	-2574	811	126	130	1
-8416	-7464	10804	912	2016	-19	-15984	-1128	-2884	3307	4218	224	-12080	-2792	-1944	-702	2345	532	-6064	5232	9440	536	-5513	3336	-11176	-88	-3872	-2369	-4063	1226	-11568	2080	-8984	-502	-2076	558	129	133	1
-8964	-7108	10740	1038	1367	-93	-15564	576	-3176	-1337	4558	-363	-14720	2392	-776	-685	2456	392	-9368	7904	11152	376	-5333	3551	-11968	-2616	-6112	-2450	-4864	1243	-9120	4024	-9816	-951	-1787	333	122	129	1
-9264	-6060	11612	574	1287	-78	-15912	1740	-2768	-6631	4560	-1903	-17208	6648	-136	-1022	2651	354	-13552	7672	14024	250	-5167	4087	-13688	-2760	-7736	-2220	-5519	1181	-7024	4800	-9840	-1773	-1414	71	118	134	1
-9196	-6284	11384	-31	1475	-294	-16004	484	-2516	-9746	5113	-2407	-15896	6656	1240	-1841	2747	393	-19920	6072	17648	582	-5182	4617	-17344	-1552	-9856	-1849	-5993	1016	-5584	3752	-9376	-2935	-1063	-140	111	132	1
-9128	-6920	11372	-433	1796	-176	-16576	-2784	-800	-9032	6029	-1365	-15488	1048	1816	-2220	2770	282	-23624	2152	17696	1270	-5349	4371	-20192	-2904	-10080	-1147	-6273	1011	-4056	2312	-8016	-3642	-1005	-334	113	127	1
-9516	-6364	11232	-53	2219	363	-14968	-4464	536	-3841	7583	377	-17288	-3392	-1360	-1471	2071	408	-29392	5936	18960	1480	-5235	3648	-21224	-3224	-12992	184	-6398	1313	-5776	1920	-4336	-3409	-1225	-351	118	126	1
-8460	-8032	10672	383	1991	1376	-15356	-2812	-764	-731	8464	1481	-17656	-4072	-1872	-1292	1882	467	-32432	8008	18472	1097	-5389	3033	-24960	0	-14048	941	-6187	1756	-8360	-2352	1472	-2105	-1241	-246	124	127	1
-9480	-7088	11100	32	2510	1602	-16500	-524	-3204	618	9184	1907	-16808	-3592	-6248	-301	1095	261	-32768	9504	15184	1171	-5138	2786	-25072	4232	-15440	713	-5937	1847	-8768	-7872	4472	-481	-843	135	130	117	1
-10064	-5776	12080	-686	3720	1844	-17764	-16	-3224	754	10204	3065	-17712	3472	-1832	163	1182	252	-32768	8848	9424	888	-4580	2929	-19864	5920	-17528	-873	-5320	1566	-12120	-9800	10864	915	-482	106	130	144	1
-9276	-7664	11976	-1512	5263	2547	-17676	76	-1064	422	11884	2922	-18632	3696	1240	141	999	551	-32768	1336	-1304	285	-3472	3087	-19240	2648	-18208	-2207	-4266	965	-19216	-5240	16792	2647	-449	-29	128	124	1
-8956	-7848	13036	-2341	7792	3657	-17832	1192	-1136	-611	13956	1744	-18352	2592	2248	-238	855	446	-32768	-5088	-10568	-888	-1678	2856	-16576	-2360	-23288	-2681	-2571	252	-17176	352	22640	2802	-554	35	128	130	1
-9072	-7964	13808	-2080	11613	4812	-17516	120	-1480	-1046	16509	1995	-18248	3464	4072	-780	816	141	-32768	-16560	-15992	-1619	-234	1941	-10000	640	-24000	-1528	-768	-286	-19120	10368	21400	674	-1097	445	128	134	1
-9792	-7396	14324	-1470	16286	6707	-20032	-1136	-4008	2856	18244	3219	-18560	5912	1216	-1375	830	18	-32768	-14608	-18048	-856	757	99	-7728	3760	-23936	-1276	1079	-324	-16672	14728	14304	-211	-206	607	129	135	1
-10692	-8376	13900	-1220	21860	9032	-21712	-404	-5476	4403	19401	3106	-20720	1800	-2032	-1578	817	385	-32768	-2976	-22392	-1427	2967	-2029	-10000	1488	-25328	-1033	2532	104	-16784	4256	8792	-888	338	18	126	125	1
-10816	-9708	13708	-955	27596	12412	-22520	368	-3196	1602	21159	1228	-21272	-4544	-2200	-1084	769	604	-13704	25632	32767	-829	3956	-1721	-32768	2360	21760	2269	2776	-285	-25128	-1240	27264	-2429	-1758	-161	127	129	1
-10516	-9628	13448	-1581	32748	16143	-22568	-1080	-1832	-1320	22422	-440	-22840	-7072	-416	-419	466	422	-5696	24288	32767	-581	3534	-1827	-28360	-10056	-13312	557	3207	257	-11496	4976	-2400	-609	981	92	126	125	1
-10188	-10720	13872	-2558	32767	21187	-26156	-2772	2340	-2633	23317	687	-25232	-4968	2952	-55	-49	217	-14680	12992	16096	408	2788	-1679	-13728	3848	-4128	1862	3158	-796	-15904	7824	-5064	-640	937	495	127	119	1
-10960	-9560	14004	-4306	32767	28471	-26368	-2464	832	-5954	23689	564	-24296	-7352	9104	233	-893	58	-32768	19136	12896	-349	2051	-1570	-8256	17096	-15432	-82	2734	-299	-17672	-1720	-3072	-1959	1316	226	125	115	1
-12492	-10296	13524	-5119	32767	31169	-26896	-1708	7560	-10165	30721	1264	-20848	1936	17704	-569	-3691	-615	-17800	10344	10888	-907	303	-915	-13288	13056	-14984	-3761	2216	-417	-14200	3184	-9872	525	992	676	125	135	1
-23824	3408	13344	-17193	32767	32767	-24044	1208	-9244	-13679	26338	-3386	-17136	13384	1384	-7	-2204	-894	-12640	232	14832	-706	-101	-333	-23744	-5240	-13864	-4321	1698	-809	-19960	7312	-7376	638	1884	1318	126	122	1
-29924	-16276	12944	-16272	32767	28941	-27492	-380	-3644	-22603	28579	7269	-22960	3568	-18920	-1815	-1789	-1336	-10840	5536	12736	-271	88	31	-21896	-9432	-9328	-854	1505	-430	-18776	9040	-5320	-759	2427	1212	125	124	1
-32768	-21080	20028	-11320	32767	27251	-23760	-5004	-13784	-13464	24353	2035	-25152	4784	-14736	-1316	-2165	-1801	-10024	5792	12648	-68	140	67	-12800	-2648	-5912	1496	1022	282	-17000	2992	-2104	-2322	2248	713	126	135	1
-32768	-20388	11928	8914	17697	15817	-15772	-2316	-8488	-4284	15860	3290	-26264	5880	-8352	-83	-2726	-1722	-9632	6904	12304	60	207	66	-17152	2696	-4384	1730	855	563	-18896	-2704	-616	-1606	2012	251	124	131	1
-5072	-13180	18400	5462	-7009	-8034	-15336	2016	-4824	-365	6206	7971	-24896	3512	-6184	1468	-3224	-1515	-9712	7704	11312	74	212	35	-16128	8368	-5232	1463	615	584	-15776	-4528	1776	175	1865	-90	125	130	1
-3476	-8232	14144	1713	-10210	-10677	-10116	-1344	-1512	-1878	-2092	4606	-22608	5592	-6208	1649	-3316	-1914	-9744	7096	11568	38	210	21	-15952	8128	-4920	432	501	253	-14448	280	1368	1616	1811	-160	125	129	1
-5512	-5428	12996	-297	-20208	-12159	-5176	-316	-5912	1997	-10370	1453	-20928	9144	-3616	1257	-3071	-1884	-9672	7552	11344	51	229	31	-17472	5320	-4112	-120	537	-58	-15928	6240	520	1936	1848	-182	125	121	1
-4320	-5284	11872	-1180	-32385	-14353	-4780	-284	-3988	3820	-19013	-13	-17536	9008	-4192	988	-2624	-1319	-9816	7656	11184	52	225	25	-15616	4200	-3744	71	588	-64	-15208	7856	600	1451	2177	32	124	125	1
-6172	-5896	9204	-1439	-32768	-15108	-7292	2108	-3564	4840	-24719	-757	-14936	7704	-5104	386	-2106	-1114	-9536	7664	11168	26	176	-25	-14608	2320	-3416	475	500	29	-15240	5144	1200	844	2296	414	126	131	1
-3840	-5112	7412	-1479	-32768	-16579	-8056	5308	-3628	2916	-30419	-3455	-12552	5752	-5304	140	-1754	-997	-9728	7208	11216	37	143	-35	-16256	3112	-3264	986	363	166	-16616	2808	544	727	2246	520	126	139	1
-4388	-5372	7404	-2844	-32768	-20231	-7560	6296	-3492	-2729	-32768	-5790	-10528	3432	-6584	109	-1434	-793	-9624	7456	11256	47	142	-63	-16320	3760	-2752	1198	371	244	-15744	1096	1144	1160	2242	334	127	127	1
-9644	-8380	9644	-1558	-32768	-26403	-9564	4092	-5448	-3258	-32768	-8973	-8520	2216	-7760	475	-1194	-510	-10024	6784	11328	55	146	-114	-15112	5840	-3168	909	506	140	-14232	-72	1888	1608	2302	49	126	125	1
-12552	-7476	12560	-76	-32768	-32036	-13236	2896	-5776	-575	-32768	-9721	-6576	2416	-8192	1202	-1139	-123	-10184	7048	11312	73	144	-117	-15200	5064	-3184	567	629	-18	-14232	2712	2712	1907	2476	-22	124	120	1
-16844	-6624	14280	-763	-32768	-32768	-15744	2572	-7956	3102	-32768	-8886	-4824	3440	-8024	2194	-1140	217	-10112	7840	10840	50	139	-137	-16016	4952	-2656	568	701	-81	-15488	7456	2448	1859	2685	232	124	127	1
-20552	-6844	15556	-1414	-32768	-32281	-17324	4236	-8996	3930	-32768	-8438	-4520	4448	-7520	2385	-1049	394	-9880	8016	11224	30	154	-194	-16152	4656	-2792	525	789	-72	-17456	8736	-64	1251	2446	319	125	129	1
-24204	-9008	17560	-289	-32768	-30669	-21188	4408	-9732	2162	-32768	-8873	-5464	5488	-6296	2021	-697	357	-10584	7184	11312	53	194	-261	-16000	4208	-3272	502	928	-140	-16392	5248	-3096	314	1590	288	126	129	1
-29900	-11164	21008	745	-32768	-29373	-26972	3808	-12688	1834	-32768	-10134	-8056	6688	-3728	998	-116	37	-9720	7448	11680	97	273	-309	-16376	3280	-3592	427	1104	-173	-15312	3416	-2672	-105	1266	119	125	129	1
-32768	-11652	20280	-802	-32768	-29183	-28872	2668	-14572	-362	-32768	-8823	-9824	8392	1344	-516	314	-178	-9552	6608	12656	171	461	-365	-17256	3280	-4000	347	1185	-190	-17320	5216	-912	-36	1288	-100	124	132	1
-32768	-14836	11000	143	-32768	-26411	-27996	-1908	-16108	295	-32768	-8974	-13528	6160	5456	-1354	364	-102	-10136	7048	12592	240	775	-432	-18672	2544	-3488	327	1349	-252	-19040	4936	1648	201	1320	-208	126	130	1
-32768	-17328	-3976	5380	-28229	-25329	-23760	-4228	-16348	10005	-32768	-8789	-21504	4344	12272	-1933	294	185	-10440	7320	13176	272	1091	-545	-18120	3000	-2824	365	1619	-297	-17144	720	4240	119	1221	20	125	128	1
-32768	-3756	-13364	2025	-14456	-27673	-16068	2144	-20536	13307	-27817	-8654	-28224	-9368	27016	-1591	-489	232	-10832	7904	13224	153	1543	-766	-17920	4544	-3360	279	1926	-355	-18104	-2264	5416	144	1112	317	125	127	1
-32768	23556	-24400	-13927	-2190	-24006	-5128	1496	-21472	-5077	-4831	-3953	-25448	-22504	26736	-793	-258	-14	-10912	8656	14232	95	2198	-1011	-21576	3936	-3760	-32	2233	-464	-21800	-32	2456	758	1016	226	125	129	1
-32768	14592	-21316	351	7064	2972	-1800	-3060	-23248	1606	11058	-1464	-16448	-5824	13048	1852	-810	-470	-11680	9016	13792	215	2930	-1237	-22480	1568	-3560	160	2482	-546	-20840	7224	928	1857	899	-228	126	131	1
-30360	164	-9808	-10332	10249	9465	-12196	2272	-20224	-4944	22430	2919	-15880	1744	-2032	1653	67	-976	-11408	9520	13192	317	3633	-1715	-21576	3920	-1560	605	2679	-537	-19392	8488	3224	1226	538	-450	125	128	1
12860	-27272	4496	8625	27943	15995	-20728	-5848	4516	-7537	23119	-2309	-9352	5752	-6992	-581	1207	-530	-10344	10928	12928	425	4405	-2499	-23016	6008	320	875	2958	-493	-20696	5040	9264	177	127	-158	125	129	1
1508	-10136	15552	6846	23258	10001	-32768	-5792	15776	14921	14727	-3486	-12152	5528	-5416	-1467	912	485	-10160	12912	13464	773	5402	-3613	-28512	7536	128	1131	3147	-408	-25632	3336	14736	174	-550	108	126	130	1
-32768	-300	24276	1982	32727	16683	-31864	-2572	7328	17546	15791	-5643	-32768	-18672	7816	65	-1046	1094	-16976	16496	18136	1187	6657	-5186	-29864	7896	1944	1294	3163	-394	-23896	-7424	14112	-1447	-2906	121	126	130	1
-32768	-20604	11428	-954	21100	16762	-22108	328	-13868	9567	25101	5336	-16632	-6304	6872	5533	-577	171	-32768	5336	14552	1643	7205	-5483	-27408	3608	-5000	2601	3228	118	-26080	-7280	5664	1420	-2021	-363	124	129	1
-12312	-1644	14600	8125	7158	11198	-15680	-9396	-5712	16975	20277	3157	-16408	19976	-24200	4788	930	-1147	-32768	19112	11336	2915	7246	-4148	-27744	6448	-3400	3303	3126	-478	-22704	5736	-11856	2958	-3248	-641	125	131	1
-14128	-9404	10164	7937	1034	5781	-14296	-6620	-7456	21601	18967	3933	-4552	14968	-6728	-17	1412	-757	-32768	32767	23688	2187	5228	-4501	-24112	12864	-11096	2612	2845	-136	-24176	7984	-14072	3225	-3251	-570	126	135	1
-11180	-6120	11744	5010	187	2187	-16732	9036	-8884	5407	11406	-1056	-13592	5272	-9816	-848	2036	699	-27872	32767	22488	-1536	1660	-4655	-17248	8296	-14568	398	1810	346	-28456	-96	-12080	468	-3957	694	123	132	1
-9556	-6896	11640	2730	841	571	-15996	4768	-8204	-11845	11297	-3978	-15256	-1896	-10128	-1705	1709	1198	-6056	14536	22832	240	-2089	449	-17072	-1040	-4216	-305	723	-259	-29776	3312	-5704	-759	-4336	313	126	137	1
-9288	-6264	11784	1701	1207	334	-17168	-536	-4752	-18087	9265	-6922	-21392	-4608	-4216	154	1936	652	-288	16000	13624	826	-2249	1737	-14144	1016	-160	660	-369	71	-26328	4336	-3896	-728	-3956	853	124	131	1
-9336	-6712	11640	928	1801	123	-19096	-4872	-3368	-10193	7146	-4410	-20232	7656	-2944	721	1842	162	-3616	14240	12776	-142	-2796	2198	-5848	1640	-4856	236	-1558	629	-22432	1528	-3976	-416	-3578	1217	124	123	1
-9180	-7232	11148	755	1884	46	-17084	-5112	-2232	409	6253	-270	-16968	5016	-1024	-138	2141	374	-8000	7968	13592	-505	-4026	3055	-3872	2736	-4216	-507	-2347	980	-17648	248	-5840	-255	-3103	906	126	125	1
-8788	-7624	10892	732	1706	106	-14748	-2824	-1772	5454	5337	1637	-13672	-144	-576	-619	2227	579	-8264	5192	12096	-60	-5090	3758	-8320	1160	-4760	-1266	-3183	1214	-14688	1360	-7040	-351	-2656	718	125	130	1
-9012	-7244	10836	589	1690	245	-15916	376	-2820	3396	5315	1043	-11712	-1984	-1168	-736	2357	510	-6760	4160	10496	364	-5563	3865	-10976	560	-3368	-1654	-4034	1393	-12712	2424	-8320	-542	-2203	495	126	134	1
-9232	-7236	10680	639	1666	199	-15808	852	-2284	-4372	6525	-512	-14960	-840	-1232	-941	2480	630	-8064	4408	11408	512	-5464	3835	-10976	192	-3432	-1738	-4149	1408	-9624	4248	-9136	-860	-1812	303	107	133	1
-8744	-7216	10828	638	1708	587	-15972	-1524	-1848	-5582	6347	-1807	-17296	3040	-536	-1139	2572	562	-13624	6408	15024	495	-5396	4011	-13624	-2888	-6856	-2142	-5455	1265	-7824	4176	-9184	-1448	-1576	129	105	132	1
-9136	-5964	11220	106	1965	914	-15832	-160	-2672	-5801	6055	-1430	-16064	5680	1704	-1638	2830	370	-18432	4048	17624	740	-5432	4131	-18400	-3560	-9488	-1911	-5863	1043	-6392	3200	-8960	-2561	-1212	-39	99	131	1
-9780	-6600	11260	156	2072	820	-16956	-1992	-1472	-5027	7070	-44	-15816	2752	1408	-1752	2799	211	-22936	4760	17304	1259	-5490	3882	-19072	-3792	-9520	-1786	-5935	1009	-5248	1832	-8872	-3009	-1098	-183	101	131	1
-9604	-6648	11340	-243	2874	783	-17096	-2056	-1132	-4549	7255	213	-16120	-1968	-3328	-916	1588	416	-25712	9040	16728	931	-5243	3478	-20664	-3328	-11584	113	-6374	1424	-6344	992	-6680	-2905	-1030	-174	109	129	1
-9404	-7476	10896	-351	3072	1730	-15624	-1032	-2776	2083	8649	1502	-16000	-2608	-4704	-760	1378	482	-29872	12856	18984	468	-4769	3365	-25800	1144	-14448	345	-6424	1879	-7776	-2888	-1496	-1944	-951	-154	123	131	1
-9356	-7876	11072	-953	3927	1850	-16908	-376	-3584	171	9621	1935	-17544	-3008	-4936	255	1235	549	-32768	12264	17232	678	-4737	3885	-23056	4184	-17536	-449	-6186	1849	-8080	-6984	2080	-390	-747	92	132	120	1
-9396	-7400	12560	-1396	5488	2685	-18724	-1132	-3400	280	10179	1781	-19144	1880	-1320	246	1363	402	-32768	9104	9272	626	-4455	3947	-21560	8776	-18808	-1899	-5622	1446	-10040	-6864	7760	806	-456	-167	133	133	1
-9892	-7960	12304	-2322	7862	4415	-18592	384	-1152	-1828	12159	1736	-20224	4192	2568	348	1177	546	-32768	2200	-1352	14	-3554	3598	-20920	2624	-21064	-3127	-4471	820	-18136	-3832	16360	2774	-411	-405	131	129	1
-9972	-8192	12416	-1528	10858	5842	-17492	1040	464	-3590	14912	96	-18592	1680	5880	15	982	416	-32768	-5248	-14936	-1106	-1976	3047	-17696	-3888	-27792	-2550	-2656	117	-21440	832	30936	2563	-508	204	130	126	1
-10420	-7644	13292	-1107	14876	6848	-19220	-700	-2584	-1603	17415	1211	-18464	2880	4296	-723	904	96	-32768	-16680	-23776	-698	-345	1794	-7208	1768	-27760	-694	-485	-83	-19064	15280	23872	132	-844	1423	129	131	1
-11216	-5972	14120	-580	20355	8314	-20956	-544	-3528	3478	19226	3098	-20160	6136	1032	-1413	884	190	-32768	-14312	-21344	348	800	218	-3200	3344	-26280	-578	1491	149	-18952	13136	14392	-529	427	1110	128	125	1
-11288	-7492	13592	-1042	26422	10413	-21552	52	-2232	6185	21034	3497	-20768	1672	-632	-1580	718	598	-32768	8176	-22088	-1602	3417	-1408	-9968	2608	-17840	-57	2875	163	-14504	1928	4544	-1195	647	-398	126	132	1
-11308	-9664	12328	-2401	31336	13048	-20848	532	-1404	2678	22894	1441	-20584	-5264	696	-1002	481	581	496	21936	32767	-791	2901	-1488	-32768	7632	27432	1852	2150	-120	-5008	-5320	6120	-2170	-346	-923	125	141	1
-10436	-10724	13540	-3522	32767	17442	-24636	-2052	1412	-2928	24024	216	-23600	-6560	2680	-489	198	147	-26080	-18320	22456	-279	4164	-2861	-26104	-10064	-14656	-114	3127	132	-19952	11064	600	1706	-416	101	125	117	1
-10780	-10960	13416	-5595	32767	25779	-28248	-2184	1796	-5612	25086	612	-26992	-5808	8320	-317	-569	-125	-14880	22392	12464	-318	3013	-2108	-16784	7016	-8696	1034	3207	-745	-23632	9760	2000	-3187	944	568	127	136	1
-18020	-11772	17568	-10056	32767	32767	-32060	-3780	14508	-21521	29248	2923	-24648	-5032	15104	-353	-3068	-369	-27376	-6416	17824	-1098	942	-1564	-10272	17512	-14280	-1470	3107	-369	-22728	-4048	-12832	-2628	1309	560	125	124	1
-23340	-8388	10784	-16296	32767	32767	-25516	-976	-7124	-13768	29885	-5779	-18752	8192	2432	-468	-2729	-710	-16072	8184	13536	-1217	70	-874	-14184	7624	-16016	-4497	2215	-522	-13856	-6416	-8912	372	1236	1300	125	114	1
-32768	-13152	16548	-20867	32767	27980	-23468	-952	-4480	-19741	30678	7372	-20480	6384	-16448	-1099	-2059	-1330	-11856	4160	14488	-547	90	-153	-26856	-13392	-13032	-3056	1712	-668	-17160	4864	-7864	1300	1897	1051	124	120	1
-32768	-22748	18412	-15965	32767	26491	-27252	-4492	-14536	-13380	25979	3012	-25968	4944	-16376	-1277	-2310	-1842	-10376	5296	13624	-176	158	17	-15992	-5920	-8712	878	1330	172	-15832	12216	-6384	-718	2180	697	125	139	1
-28144	-20620	11512	2890	21479	20008	-18024	-5092	-8432	-6849	16364	3938	-28376	6752	-10296	-405	-2640	-1954	-9416	6808	12376	24	198	78	-14704	1448	-5768	2423	846	601	-18816	5992	-3176	-2016	2025	390	125	123	1
-10716	-15228	19704	6577	-8262	-4335	-16088	2372	-6140	2516	6331	7568	-26800	4056	-6496	1138	-3279	-1559	-9264	8064	11640	44	199	39	-17816	9256	-4336	1915	752	598	-20136	-2744	184	-1134	1992	110	124	130	1
-3660	-9060	15020	3731	-11811	-9816	-11176	-1156	-1360	-666	-2570	5936	-23960	4976	-6848	1405	-3514	-1939	-9680	7000	12016	2	186	1	-14704	9848	-4280	461	583	375	-16392	-3368	1088	735	1913	157	125	138	1
-7412	-7944	13324	2492	-23952	-13968	-5856	140	-8032	3235	-11004	2162	-22064	8872	-4344	945	-3208	-2089	-9472	6752	12080	5	207	19	-16512	4712	-4976	-530	495	9	-14528	2728	-128	1470	1898	-94	126	128	1
-3680	-4124	12424	133	-32768	-17741	-4588	420	-4000	3097	-20217	640	-19344	8656	-3784	785	-2695	-1670	-9728	6944	11752	52	223	36	-17072	2632	-3832	-206	596	-85	-14792	7112	920	1223	2012	-104	125	127	1
-5244	-6512	8888	-369	-32768	-18380	-7016	1756	-3372	3453	-26300	-321	-16120	7216	-5376	738	-2187	-1297	-9528	7304	11280	55	190	23	-15384	2928	-3296	466	589	-23	-13728	6224	1344	835	2256	347	126	126	1
-4964	-5816	6848	1720	-32768	-17128	-8240	3932	-3776	2861	-32431	-3646	-13696	6128	-6272	345	-1711	-1133	-9424	8048	11200	24	154	-14	-14592	3912	-3048	1028	366	189	-15608	2656	520	718	2174	575	124	131	1
-5668	-4528	7360	-925	-32768	-19293	-7408	6340	-4580	-1815	-32768	-4969	-10176	3912	-7152	267	-1288	-884	-9536	7720	11600	22	122	-71	-16296	4984	-3200	1116	334	267	-18184	-144	504	1269	2179	416	125	129	1
-11616	-8568	9820	-2649	-32768	-25706	-8800	4252	-6644	-4370	-32768	-7646	-7096	2448	-8144	626	-1015	-614	-9512	7368	11384	31	112	-100	-16352	4800	-3664	985	419	150	-15776	-160	1496	2095	2263	84	124	121	1
-13936	-8028	11940	-678	-32768	-31949	-12764	3672	-6352	-3393	-32768	-9220	-4840	1760	-8920	1423	-988	-159	-9816	6584	12008	54	100	-107	-15384	4856	-3104	816	525	43	-13656	3096	3072	2128	2478	284	125	127	1
-18212	-5544	12924	-3223	-32768	-32768	-16824	2948	-8120	-982	-32768	-8947	-3568	3200	-8576	2591	-1130	288	-9376	7048	11632	61	117	-111	-15560	4672	-2688	735	631	-48	-14616	6992	3208	2086	2753	354	124	126	1
-23412	-7060	14564	-4376	-32768	-31206	-17640	4784	-10836	-564	-32768	-9777	-3256	5032	-6992	2827	-1253	494	-9424	8288	11584	33	122	-159	-15856	5312	-2080	683	720	-87	-16544	7184	200	1395	2404	260	124	130	1
-27056	-8904	15956	-3359	-32768	-29312	-21664	5304	-10884	-3628	-32768	-10752	-6016	5816	-4312	2525	-1068	411	-9304	7488	11544	13	114	-239	-15704	4992	-3304	539	878	-143	-17344	5880	-4384	705	1483	229	123	130	1
-30344	-10656	16152	-2193	-32768	-27130	-26776	3264	-13256	-3378	-32768	-13293	-8600	7744	120	1323	-722	23	-9200	6880	12576	60	195	-291	-16832	3336	-3440	466	991	-162	-16416	5328	-3608	346	1217	252	124	130	1
-32768	-11580	15436	-3468	-32768	-26711	-26780	2312	-14968	-1204	-32768	-12875	-11232	9776	6440	-35	-293	-257	-9264	7208	12896	161	347	-341	-18072	2840	-3328	517	1104	-168	-17232	7120	104	226	1230	-138	120	131	1
-32768	-12712	7556	-1132	-32768	-25877	-24380	-232	-15928	2412	-32768	-13249	-16632	6960	8080	-1089	-64	9	-9672	5736	12960	247	651	-441	-17632	3680	-2504	445	1329	-232	-18864	4760	3000	131	1252	-190	122	129	1
-32768	-8908	-932	3176	-24341	-24920	-21948	-2012	-17352	10725	-32768	-10176	-21152	3296	10920	-2271	127	272	-9528	6240	13696	263	963	-561	-17824	3656	-2152	456	1565	-246	-18784	3856	3384	114	1230	-148	122	128	1
-32768	-3768	-7824	6759	-12941	-25391	-17684	1832	-18988	16780	-25759	-7801	-20920	2496	12368	-2384	189	311	-10544	7712	13640	229	1376	-742	-17856	4376	-3672	300	1887	-362	-18280	-2472	4504	442	1009	300	123	127	1
-32768	13568	-16428	1979	-1242	-22504	-8052	1116	-20444	7624	-9031	-1328	-20960	-12200	20824	-2003	584	-128	-10376	7912	15024	92	1976	-1025	-20576	3840	-3792	91	2177	-457	-19992	136	2768	1150	871	155	122	130	1
-32768	14492	-18416	837	4713	-2300	-7796	700	-20904	7366	-6661	-1191	-19248	-14768	12032	121	14	-638	-10952	8072	14800	175	2617	-1299	-22208	2224	-3952	237	2393	-467	-20384	6024	752	1837	825	-90	123	127	1
-32768	14344	-17356	-111	5413	136	-8852	4496	-20160	-1592	18648	1396	-18952	-6088	2880	1634	-79	-939	-11104	7824	14040	315	3342	-1669	-22200	2952	-2880	662	2547	-475	-19568	7728	1264	1407	634	-255	123	130	1
-11752	-12256	-4088	5210	25851	16986	-19012	-3996	-8308	-6423	23650	-1280	-15088	3256	-336	973	450	-380	-11032	9544	13592	418	4074	-2311	-23200	4936	-1496	905	2782	-432	-20968	6424	6000	644	345	-215	124	127	1
3364	-17536	17856	-345	19059	13605	-32768	1132	16500	2268	15695	-2398	-17552	10392	-384	-902	646	389	-10896	11816	14912	661	4943	-3190	-26288	6320	-824	1054	2946	-410	-24304	5104	11392	480	-188	-66	123	129	1
-29864	-10664	19752	-2223	32767	12255	-25768	4412	-4468	8370	19481	-3614	-25296	-7192	4512	579	-864	989	-12152	17224	14568	1021	6072	-4437	-32488	5344	4656	1741	3062	-308	-28768	8232	19000	245	-2143	96	125	129	1
-21572	-8260	12920	-4518	28088	11617	-21108	-3292	-6764	5857	24021	5459	-16480	-19304	768	2962	379	674	-21048	13336	11968	1451	6978	-5224	-29104	2824	104	2226	3276	-16	-19704	-7336	1896	395	-1500	-335	125	126	1
-26116	-15316	7144	4999	11185	12665	-15460	-15264	-12244	19939	20116	1504	-15496	12104	-14792	4838	750	-731	-24672	12968	16824	1538	7054	-5383	-22288	4136	-5864	2902	3118	-14	-23784	-1336	-1432	873	-2898	-626	125	129	1
-16052	-11364	10028	9490	2777	9813	-13404	-612	-12688	32767	13042	5989	-8288	15424	-10128	1114	952	-1075	-32768	15968	13816	2579	6176	-4208	-29832	9632	-5112	3532	2916	-695	-25280	7616	-14280	2909	-3192	-412	125	133	1
-13120	-3856	14392	7841	487	4400	-18604	7768	-10408	19261	9843	2151	-13520	8392	-8320	24	2034	-143	-26976	32767	20416	1373	3890	-4601	-19736	11912	-11808	1866	2429	186	-26128	2704	-14968	1925	-3582	334	127	132	1
-10036	-5548	12564	3661	667	1006	-17424	10120	-8524	-5103	10725	-3897	-17136	-584	-10296	-950	1642	786	-32768	21560	31424	-1651	-291	-2487	-13008	720	-13160	-232	1245	120	-27808	1720	-8664	298	-3981	478	125	132	1
-9644	-6748	11780	1637	1096	40	-14040	2048	-6416	-22978	10293	-8193	-18208	-2640	-4696	310	1908	787	1264	13304	16200	412	-1917	1053	-17520	-560	-1128	171	447	-540	-27424	6840	-4984	-381	-3819	647	128	133	1
-9172	-6948	11404	568	1378	-274	-19092	-4156	-2896	-18624	7534	-8099	-18592	6160	-3328	686	1821	365	-872	15800	11280	338	-1925	1603	-9864	2184	-3552	427	-708	36	-24536	6088	-4008	-770	-3615	1319	127	125	1
-9380	-7032	11112	42	1833	-304	-18616	-7460	-1888	-5220	5673	-3539	-17200	5096	-1800	-283	1997	424	-6640	11552	12784	-875	-2911	1876	-3832	2816	-4784	-282	-1692	468	-20848	1632	-4992	-774	-3259	1258	124	125	1
-9256	-7084	11048	51	1806	-397	-16084	-5428	-2140	7491	4304	1494	-15672	32	-1192	-584	1987	591	-7160	5800	12416	-740	-4174	2782	-5224	2744	-5256	-1336	-2446	742	-16632	320	-5624	-619	-2782	968	125	125	1
-9196	-7520	10572	-67	1795	-133	-15960	-1376	-2904	9373	3728	2915	-13192	-1720	-1240	-517	1987	591	-5856	5176	10440	-104	-4926	3204	-8920	1080	-3008	-1690	-3324	834	-14192	896	-6896	-693	-2400	768	121	131	1
-9320	-7508	10472	228	1445	-148	-15120	1524	-2848	973	4981	791	-13712	-568	-1536	-722	2136	469	-7160	6664	9432	151	-5267	3315	-10192	48	-4288	-2123	-3969	979	-11760	2088	-7968	-851	-1966	489	120	131	1
-9412	-6708	10736	295	1044	-170	-15068	1340	-3116	-8815	5791	-1977	-16504	2864	-1296	-1115	2381	406	-8208	6616	10624	68	-5248	3454	-11136	-1384	-5080	-2237	-4812	1063	-9472	3856	-8432	-1216	-1697	239	103	133	1
-9236	-7724	10584	419	956	-114	-15508	-1452	-1996	-13502	5758	-2738	-16592	4264	-360	-1626	2680	359	-8640	6704	10936	75	-5217	3489	-13736	-2488	-6600	-2124	-5378	1003	-7624	4128	-8472	-1863	-1297	49	99	132	1
-9532	-7772	10604	522	837	437	-17048	-3684	-1708	-11174	5456	-2004	-15440	2288	1104	-2162	2977	131	-19264	7000	17072	388	-5099	4210	-16952	-1784	-9520	-1798	-5902	874	-5864	2992	-8256	-2720	-929	-159	109	131	1
-9468	-6332	10672	354	1188	735	-16480	-3020	-416	-6222	6096	290	-15688	336	520	-1966	2621	135	-22616	3296	17744	1060	-5265	4259	-20040	-3112	-10208	-1087	-6226	919	-4440	1232	-7640	-3294	-822	-344	112	128	1
-9440	-7020	10920	420	1226	678	-15500	-2624	208	-896	7220	1691	-15936	-1752	-2496	-1056	1499	478	-27736	8456	16744	1292	-5147	3738	-21824	-2160	-11416	129	-6311	1190	-5952	736	-5648	-3359	-904	-297	115	126	1
-9756	-7800	10552	179	2087	1055	-15108	-1728	-988	1959	8251	1888	-16720	-4016	-3352	-416	867	685	-30936	11016	17440	566	-4933	3102	-24184	1712	-13384	384	-6207	1698	-8968	-2288	-1016	-2379	-846	-158	122	127	1
-9728	-6996	10924	-248	2568	1390	-16296	-728	-2080	1852	9578	2408	-18000	-1848	-3152	198	1153	297	-32768	11384	16080	805	-4874	3379	-23832	3104	-15656	-383	-5919	1803	-9496	-8328	2856	-437	-589	107	127	124	1
-10024	-7844	10712	-631	3524	2035	-17256	-1692	-3104	912	10793	2218	-17768	160	-1160	-2	1181	251	-32768	10144	11000	878	-4456	3599	-22840	6696	-16448	-1245	-5476	1474	-11776	-10384	7328	527	-368	-182	128	133	1
-9656	-7444	11836	-1190	4963	2920	-17488	292	-1912	-1457	12140	2340	-17928	1248	-440	-93	1095	424	-32768	3080	2856	452	-3633	3493	-20992	3792	-17656	-2247	-4665	995	-18824	-4944	15120	2333	-279	-447	128	127	1
-9180	-7652	12764	-2428	6865	4060	-17752	656	-616	-3069	14166	1461	-18240	1240	1936	-187	917	428	-32768	-6408	-9680	-556	-2205	3024	-18328	-5072	-23744	-2414	-3152	334	-19728	-1984	28072	3067	-690	9	127	128	1
-9820	-6020	13228	-2529	10623	4924	-17232	896	-2404	-1205	16680	1817	-17608	4232	4056	-443	785	226	-32768	-13560	-20376	-629	-759	1813	-10176	72	-25440	-186	-1037	15	-17480	9168	24256	1076	-747	988	126	131	1
-10372	-7100	13944	-1887	15464	5989	-20152	-1000	-3728	3662	18184	3534	-18160	5872	1888	-1103	768	195	-32768	-15472	-21736	172	413	-32	-4552	5064	-23760	-144	884	160	-19168	16216	17824	184	-304	1201	125	136	1
-10904	-7516	14292	-1644	21275	7884	-21088	-76	-4620	6238	19463	3876	-20128	1904	-1752	-1373	730	520	-32768	-4816	-11888	448	1581	-659	-7912	1864	-22280	-330	2580	9	-17424	3632	7728	-126	250	-125	127	131	1
-11016	-9336	13372	-2660	26991	10545	-20952	128	-4388	5878	19793	3686	-20264	-3224	-1592	-1024	672	654	-4280	20040	12584	-2029	3355	-1882	-22256	7272	-1256	741	3183	-31	-14352	-2672	1352	-540	231	-810	124	128	1
-10816	-9528	13232	-4004	31435	13329	-21832	-100	-1432	-1391	23022	-120	-21472	-4536	672	-541	500	423	-280	2408	18680	-579	2857	-1766	-32768	-5736	7984	-1168	2191	125	-7560	4080	-1416	-569	334	-398	124	133	1
-9892	-11184	13424	-4465	32767	18681	-26568	-2888	2220	-4545	23943	-480	-24784	-4096	4568	-172	149	177	-32768	5512	26680	87	3916	-1897	-21272	-7088	-10248	130	2715	-622	-19856	22072	4480	536	-882	748	126	139	1
-9056	-10580	14128	-7061	32767	26779	-29288	-2744	1744	-6500	24338	456	-28328	-7016	9568	-55	-748	-15	-15560	27256	7368	-456	3123	-1573	-15944	8928	-10192	358	3316	-876	-19320	4808	-7400	-4861	2199	578	125	138	1
-18816	-24452	11712	-9756	32767	32767	-29468	-2132	15484	-12913	31034	2565	-23048	-2552	17840	-875	-3922	-507	-15184	-3616	16240	-956	633	-1612	-9160	16448	-13848	-2518	2687	-374	-19960	-8048	-12008	-2018	1235	162	124	121	1
-31404	-4404	11324	-17838	32767	32767	-22096	748	-10984	-11218	27948	-6427	-18072	10488	2048	-365	-2385	-837	-14664	1160	14728	-1093	-172	-708	-17336	2464	-15504	-4803	1972	-431	-16960	-5288	-6504	593	1436	1082	126	125	1
-32768	-16196	10700	-27542	32767	24576	-26432	2376	-5076	-21540	31438	9515	-22248	4808	-17784	-1441	-2041	-1328	-11280	5072	13624	-412	74	-80	-28080	-15328	-10984	-1698	1576	-323	-16752	7856	-6856	1161	1982	1019	126	119	1
-32768	-23576	20056	-19720	32767	27338	-26424	-8700	-14596	-16722	23877	1224	-26288	5968	-14488	-1338	-2341	-1967	-10088	5840	12688	-106	135	46	-12872	-2632	-7536	1800	1167	196	-14304	13120	-4024	-789	1961	810	126	133	1
-22784	-25828	9356	11107	20625	23723	-16964	-4996	-7920	-4343	14943	2257	-28184	7416	-9688	-386	-2791	-1844	-9232	7600	11672	13	159	51	-16672	4096	-4296	2424	802	559	-19288	3432	-1912	-1610	1895	448	126	123	1
-11640	-9952	19884	9598	-8201	-3488	-15116	4208	-6956	4626	5428	7697	-25968	3304	-6528	1039	-3281	-1574	-9784	7888	11672	26	160	3	-16736	9200	-5000	1720	718	539	-19696	-3904	1208	-288	1897	72	126	132	1
-5408	-9468	14856	2227	-13472	-10976	-10176	-852	-2136	-1756	-3611	6923	-23536	3952	-6512	1174	-3372	-2135	-9472	7016	11656	-2	150	-16	-15048	8704	-3912	514	527	281	-15280	-2200	1808	1311	1722	-31	124	131	1
-4976	-8764	12584	3092	-25596	-12901	-5848	-1116	-6164	989	-11809	1823	-22032	7496	-3960	993	-3097	-2169	-9576	7616	11640	-15	171	-11	-17360	5016	-4280	-288	544	-71	-14064	6120	1032	1520	1752	-208	125	130	1
-5400	-4032	11536	507	-32768	-16849	-4644	-356	-4832	5496	-21343	198	-18680	7896	-4624	960	-2566	-1562	-9600	7296	11392	2	198	-8	-16672	3288	-3480	-197	663	-167	-14632	7672	1344	967	2078	-1	126	126	1
-5360	-5432	8628	-2540	-32768	-19566	-6216	3088	-3692	5103	-27784	220	-14976	6824	-5704	839	-2098	-1162	-9512	7736	11208	-10	180	-26	-14504	2568	-3184	281	645	-76	-15312	3496	1384	558	2213	439	125	126	1
-4716	-6408	6260	-1621	-32768	-19479	-7384	4740	-3284	448	-32768	-3153	-12408	6280	-6528	546	-1689	-945	-9880	7408	11488	-12	148	-61	-15912	3112	-3208	812	439	136	-17216	120	776	695	2157	534	124	134	1
-5228	-5336	6300	-793	-32768	-20979	-6576	6172	-3080	-3109	-32768	-6401	-9280	4968	-7192	457	-1323	-702	-9952	6056	11672	37	139	-78	-16488	2168	-3736	1164	423	195	-16504	-1216	1968	1283	2089	329	126	128	1
-10596	-6828	10328	-457	-32768	-26191	-8636	4056	-5136	-4524	-32768	-8409	-6584	2848	-8480	492	-945	-372	-9624	7464	11064	59	138	-83	-16016	4960	-2600	1287	573	112	-14720	456	2104	1859	2086	92	124	124	1
-13464	-7124	13068	330	-32768	-32126	-12584	4052	-6080	-2495	-32768	-8931	-4120	2072	-9128	1071	-763	-15	-9752	7744	11328	50	119	-135	-14824	6744	-2368	726	654	28	-14352	3880	2576	2083	2276	102	123	125	1
-18036	-5152	15184	-594	-32768	-32768	-16796	3724	-7764	-537	-32768	-8175	-2456	1680	-8744	2184	-739	320	-10136	7280	11256	30	109	-150	-15128	5200	-2952	320	733	-63	-15040	8192	2016	2035	2573	284	122	121	1
-23524	-6020	15464	-2604	-32768	-31418	-18488	5072	-9668	577	-32768	-7686	-1832	4624	-8736	2755	-787	565	-9672	7752	11992	13	94	-170	-15928	3696	-2632	284	930	-182	-16384	8208	1696	1405	2480	301	123	131	1
-27320	-9200	17784	-234	-32768	-28305	-22708	6076	-11908	-1410	-32768	-8819	-5472	5520	-6144	2654	-607	447	-9760	8112	11232	5	108	-249	-16048	4256	-2536	414	1035	-189	-16504	4928	128	548	1944	287	121	128	1
-32768	-12592	18660	1480	-32768	-25474	-31892	4068	-12832	-2638	-32768	-11025	-9144	8232	-1264	1921	-348	102	-9680	7752	11688	36	188	-332	-16136	3688	-2608	360	1163	-152	-15752	1952	-1048	21	1342	219	121	128	1
-32768	-16540	14292	3450	-32768	-25655	-30024	-744	-15276	3245	-32768	-11760	-12712	10576	8056	610	-480	-197	-10080	7112	12488	122	379	-393	-17064	2744	-4016	172	1423	-197	-17168	4232	-1592	163	1095	-72	119	131	1
-32768	-15276	2436	7523	-31018	-28633	-24520	-2524	-16792	13021	-32768	-9723	-21736	5400	12336	-337	-772	119	-9256	7128	13160	215	668	-450	-17312	2584	-3808	148	1447	-208	-16896	5144	800	284	1215	-167	121	131	1
-32768	-11968	-7024	10850	-17163	-31740	-20856	-3504	-17844	23375	-32768	-6539	-25312	2896	18192	-1712	-296	470	-10272	7032	13160	228	1053	-549	-18496	2816	-4288	167	1653	-231	-16904	1944	2392	244	1253	-22	121	129	1
-32768	1552	-12028	12780	-5900	-32768	-13656	1024	-22140	28386	-22022	-2323	-19992	-5016	24008	-2075	554	451	-9728	6248	12976	121	1489	-731	-18232	3760	-5192	170	1923	-337	-17928	1056	2288	123	1129	206	122	129	1
-32768	14612	-19424	2016	2085	-19221	-7136	928	-20984	11263	-2556	948	-19048	-11040	20824	-1230	5	-355	-10584	9344	14176	12	2034	-985	-20192	4448	-4432	-8	2249	-448	-20136	4064	1664	678	1037	98	121	127	1
-32768	12368	-14444	-3068	4959	3700	-6076	3156	-20576	1448	11276	-308	-18288	-7440	9472	774	-568	-737	-11440	8232	14336	26	2691	-1382	-22408	2776	-4664	160	2377	-452	-20656	7464	1056	1000	876	-198	120	130	1
-29304	-5992	-17388	-4726	17598	15545	-12224	-588	-18632	-9901	21375	-2096	-19328	608	1560	1191	-172	-969	-10840	8744	14504	190	3412	-1766	-23072	3592	-2808	567	2581	-450	-20792	7392	4136	586	666	-319	122	129	1
-15372	-24140	25788	-1969	19513	13763	-26008	-868	14448	-19576	23388	-126	-18984	7272	-1696	-878	683	-625	-10736	11888	14384	315	4183	-2587	-25080	6272	-832	897	2814	-433	-22944	4376	8856	180	312	-120	125	131	1
-15356	6084	13364	-4259	30794	14660	-32768	8740	-5508	3862	23336	-8564	-23824	120	9032	-1285	-838	538	-10712	13264	14408	457	5125	-3782	-30288	7576	104	1122	2944	-344	-28808	2976	12184	199	-514	23	126	131	1
-17320	-6592	15644	-5736	24127	11000	-18928	512	-5076	-1134	27154	3054	-12752	-22176	-11824	720	746	1440	-13576	14384	16744	699	6254	-5333	-32768	3648	5944	2048	3069	-52	-21400	-9384	9848	-1069	-2479	2	127	130	1
-32768	-31900	4264	-446	16020	11906	-11860	-16876	-14128	12060	21733	2846	-12600	2464	-5736	4468	885	-467	-27376	11752	13376	1347	7127	-5565	-25824	2312	-3048	2624	3089	330	-23288	-12648	4680	1055	-1911	-313	127	129	1
-13608	-8744	12512	7916	5718	10543	-15204	-8736	-9640	32767	14078	7223	-11992	3696	-9440	4563	930	-626	-31536	12272	15560	2847	7477	-4311	-24968	4184	-2408	3302	3070	60	-25048	-11624	4432	929	-2292	-453	127	130	1
-12812	-1240	14724	7640	805	5259	-17460	9772	-13552	31643	9192	5889	-15144	10912	-8424	1755	1358	-410	-28264	16128	16936	2004	6255	-4599	-27120	8112	-3640	3534	2423	-40	-27256	4408	-16288	4222	-3543	-76	125	134	1
-10172	-5960	12836	3462	684	1214	-21516	12736	-8620	3749	10552	-2285	-20864	4920	-9624	678	1684	558	-22368	31120	24488	429	3399	-4505	-16256	8856	-18264	1701	2097	734	-25976	16	-14280	2549	-3739	574	126	131	1
-9752	-6440	12176	1467	1154	53	-11928	4132	-8032	-15746	11165	-5576	-18424	896	-6008	215	1570	862	-26096	17696	27968	219	-1594	5	-12880	-1744	-8312	602	908	230	-26392	120	-12736	2171	-3790	617	128	130	1
-9316	-7128	11428	825	1054	18	-17000	-756	-4556	-20844	9077	-8200	-16544	4160	-2816	782	1964	520	-560	15800	14336	864	-1828	1799	-16160	2816	1984	1761	-14	363	-26776	6376	-5192	-119	-3837	990	127	131	1
-9108	-7108	11292	927	1270	154	-18928	-5760	-2772	-12267	6658	-6324	-16136	4528	-2928	682	1961	437	-6496	14568	13008	431	-2515	2489	-6872	3336	-6144	392	-1066	990	-23656	4528	-4680	-367	-3632	1504	126	125	1
-9052	-6356	11444	984	1302	97	-16292	-4232	-2612	671	5382	-985	-16496	2320	-504	-511	1976	382	-4448	8624	13504	99	-3676	3263	-4048	2984	-3128	-663	-1906	1324	-19704	216	-5064	-461	-3237	1172	125	127	1
-9164	-6908	11304	846	1316	-260	-16416	-2568	-2288	7257	4903	1980	-14928	-592	-968	-732	1940	686	-5112	4592	12208	318	-4116	3781	-8584	1616	-1496	-1765	-2737	1640	-15712	-448	-5640	-572	-2864	727	121	127	1
-9312	-6796	11436	704	1384	-250	-16100	-464	-2960	8963	4434	2433	-13864	-768	-1312	-525	2107	639	-7384	3704	12280	689	-4654	4058	-10752	-1080	-4136	-2589	-3511	1658	-12640	400	-6848	-542	-2349	395	118	132	1
-8956	-6948	11004	695	1225	-184	-15368	2176	-2508	3079	5147	426	-16160	2360	-264	-526	2230	486	-8144	3272	13352	730	-4827	4134	-12464	-3872	-4304	-2527	-4293	1648	-10088	1912	-7728	-650	-1986	148	102	133	1
-8844	-6124	11656	324	1144	-69	-15592	3180	-2752	-3860	5424	-2127	-16544	5048	688	-798	2286	492	-12472	2832	16160	611	-4890	4265	-13944	-4848	-5712	-2181	-5122	1584	-7936	3040	-8176	-991	-1706	47	89	134	1
-9336	-7484	10976	-110	1170	-388	-15064	1356	-780	-9613	6854	-3114	-15360	3936	296	-1264	2429	618	-15464	1432	18000	662	-4993	4289	-16496	-5080	-7176	-1901	-5533	1267	-6224	4208	-8344	-1866	-1261	-24	67	132	1
-9044	-6964	10816	-30	1378	11	-16084	-3396	-628	-8795	6299	-2873	-14960	48	608	-1416	2614	434	-21192	808	19664	1046	-5112	4064	-18488	-5432	-8896	-1316	-5918	1143	-4688	2144	-8136	-2865	-1011	-159	88	131	1
-8792	-7592	11380	-130	1878	386	-16688	-3556	-1720	-2146	6056	-173	-16080	-2904	-416	-1423	2635	526	-24520	1784	20184	1270	-5231	3838	-20240	-5224	-10456	-146	-6239	1164	-4784	2152	-6160	-2934	-1040	-175	98	121	1
-9388	-6908	10860	-58	2300	992	-16548	-2132	-2916	1742	6407	1890	-16512	-2088	-2376	-1086	2036	698	-28328	7392	19264	989	-5176	3314	-23408	-2592	-12104	664	-6287	1315	-7816	1432	-1864	-2316	-1039	-54	107	129	1
-9124	-7436	11236	97	2778	1128	-15332	-332	-1720	2361	7490	2343	-14616	192	-8328	-14	1164	604	-32240	8592	19064	679	-5146	2964	-25064	1064	-14944	456	-6220	1654	-8472	-3632	1696	-862	-761	221	117	126	1
-10260	-6904	11548	-564	3351	1496	-16296	920	-3108	525	8502	1637	-16616	984	-4032	919	1290	526	-32768	10456	14968	677	-5098	3161	-22416	3696	-16504	-373	-5896	1428	-7744	-8712	6232	463	-376	243	122	127	1
-9680	-7364	11788	-1349	4372	1795	-16976	584	-1716	-3443	10644	2224	-19712	-48	2400	894	1234	566	-32768	8328	2904	226	-4431	3177	-21616	7128	-17288	-1550	-5156	1027	-14528	-7416	12472	2383	-366	-215	123	140	1
-9032	-8624	12492	-1520	6135	3118	-17252	-2132	-252	-3037	13032	1038	-19968	280	2592	-318	927	400	-32768	424	-10008	-648	-2911	3061	-17872	1920	-20320	-2908	-3590	398	-16720	-6496	14464	2749	-402	-224	124	130	1
-9776	-6756	13148	-2176	8463	4653	-18052	312	-784	-1107	15135	2031	-18200	3656	4352	-621	861	228	-32768	-12224	-16192	-1538	-948	2589	-12160	-1904	-26072	-2373	-1693	-82	-22696	7408	27120	1309	-919	332	124	134	1
-9976	-6724	14180	-1167	12946	6378	-19456	56	-3208	2261	17456	3082	-17944	6112	3272	-800	826	80	-32768	-15688	-21632	-1026	242	954	-8456	2400	-25256	-843	486	-257	-16552	17456	20016	-636	-522	794	126	123	1
-10504	-7772	14680	-1194	18679	7991	-20820	688	-5040	5321	18815	4222	-19784	5192	-888	-1336	857	232	-32768	-13032	-15008	-456	1300	-673	-5768	632	-24136	-802	1976	-78	-15072	8480	8632	-1216	636	312	129	144	1
-10768	-7880	14188	-149	24480	11005	-21864	1012	-3884	5764	20727	3156	-21440	-1040	-2816	-1325	801	524	-6400	4896	-1112	-1526	3241	-2567	-14792	4216	-15128	463	3077	1	-15440	-2136	4160	-1778	294	-576	129	134	1
-11372	-8636	13784	-244	25354	11549	-31364	-600	-3592	3491	21577	-14	-21168	-6048	-872	-836	567	522	-7704	4480	11856	-1578	3299	-2504	-32768	-4744	14000	83	1948	18	-7568	-6960	3784	-2409	7	-1081	128	123	1
-11104	-10828	14260	-572	32767	18577	-24148	-2700	492	-1944	23923	-95	-23760	-6456	2088	-308	278	269	-32768	1648	24688	-191	4247	-2179	-22760	-3232	-10720	1384	2997	-3	-6184	-3856	1576	-1673	593	-947	127	127	1
-9904	-11932	13980	-1690	32767	26883	-27684	-3476	1592	-2170	24753	284	-26784	-6400	7696	50	-460	-9	-23688	24048	11328	-727	2594	-1988	-16640	9472	-11576	1182	3196	-700	-25192	5688	-1352	-1682	1357	514	126	131	1
-11100	-13416	17232	-2774	32767	32767	-31180	-4816	12620	-12870	27392	1604	-25072	-5144	16536	81	-3105	-317	-17624	64	17272	-792	772	-1065	-9448	14336	-12520	-1850	2809	-604	-19848	-1512	-15800	-504	1363	967	127	126	1
-21784	-5632	14932	-8896	32767	32767	-25220	-432	-2196	-10026	27788	-4590	-17232	8504	3896	-134	-2748	-713	-14640	5648	12808	-907	77	-551	-13216	7200	-15640	-4220	1971	-662	-11856	-4216	-7048	1199	1283	1588	140	131	1
-30904	-6976	14892	-12157	32767	32767	-20616	1632	-6900	-17555	30464	4569	-20200	6120	-12672	-757	-1995	-1077	-11600	3040	14576	-397	81	-113	-27536	-12712	-11264	-2839	1453	-478	-17784	8536	-6912	1113	1941	684	132	123	1
-32288	-19808	16880	-3208	32767	31704	-30480	-4788	-10180	-19843	25594	3540	-25488	2640	-19432	-1264	-2179	-1509	-10168	6000	12816	-108	103	45	-15824	-5176	-7264	1138	1236	137	-13936	15984	-5432	-1286	2065	522	128	136	1
-14340	-19820	15840	5772	26669	24232	-19380	-4352	-12188	-6415	20893	4066	-27280	6368	-11320	-297	-2383	-1976	-9088	7176	12048	26	138	74	-14752	2424	-4608	2486	874	473	-20472	3216	-2008	-2880	1938	269	128	125	1
-32768	-16044	28232	6385	-3503	-9168	-17348	6924	-9956	4432	11348	9572	-27192	3424	-5840	1389	-3122	-1546	-9144	7520	12192	37	142	70	-17656	9840	-4528	1758	798	553	-20768	-6400	1664	-1137	1903	45	127	127	1
-824	-12484	15248	6138	-5464	-15982	-11884	-4784	1360	-5239	-11	7759	-24480	3688	-8080	1751	-3356	-1774	-9200	7512	11608	-16	130	-15	-14440	9304	-4080	358	651	250	-14800	-3416	1640	997	1766	21	127	129	1
-5808	-6948	13756	5708	-15354	-15975	-6676	-1864	-6384	5415	-7451	3061	-22152	8176	-5496	1367	-3177	-2062	-9560	7272	11904	-29	151	-12	-17272	4880	-4944	-487	526	-50	-14792	5040	-120	1638	1666	-187	125	133	1
-5984	-3068	14092	1029	-30121	-17813	-4440	-2440	-5264	9325	-18138	2369	-19240	9560	-4088	1021	-2745	-1577	-9888	7400	11800	17	166	-6	-16888	3440	-4520	-230	601	-175	-15248	8536	1072	1270	1927	22	126	125	1
-5464	-5704	9912	-1765	-32768	-17895	-7520	1188	-3780	12039	-25174	3271	-16392	7808	-5008	724	-2281	-1158	-9688	7656	11440	-15	146	-18	-15136	3512	-3824	318	555	-99	-14216	5456	1088	769	2233	470	125	127	1
-4568	-6740	7672	354	-32768	-16653	-9008	4860	-4448	9749	-31464	210	-15160	6296	-5160	426	-1816	-1059	-9600	7248	11496	-25	107	-47	-14912	3528	-3848	370	534	-81	-16536	488	624	640	2135	585	125	127	1
-4376	-5076	7636	-665	-32768	-19322	-7044	8132	-4436	1497	-32768	-1931	-12936	4816	-6392	432	-1429	-919	-9832	6944	11576	-28	93	-40	-16512	2344	-3072	984	309	160	-17440	-1048	1592	1186	2072	386	125	132	1
-9864	-8104	9236	-1184	-32768	-25242	-8556	5400	-6092	-4415	-32768	-5574	-9448	3440	-7840	742	-1159	-657	-9088	6768	11960	32	128	-91	-16320	4512	-2872	1091	425	151	-15216	592	2016	1759	2078	173	125	123	1
-12128	-7224	12084	243	-32768	-30545	-12936	3796	-6256	-3479	-32768	-7642	-6616	2944	-7712	1424	-1156	-305	-9368	7216	11840	55	114	-109	-15360	5200	-2520	734	562	-11	-14248	2736	1984	1927	2066	-94	123	129	1
-17836	-4160	14932	-1446	-32768	-32768	-15668	3664	-8868	-2084	-32768	-6975	-4704	3256	-7712	2248	-1202	143	-9592	7672	11328	23	103	-137	-15096	5160	-2952	448	606	-42	-14624	7512	2040	1753	2206	20	124	122	1
-21960	-5068	14648	-3924	-32768	-28956	-16960	5032	-9360	-3994	-32768	-7617	-3592	4232	-6640	2537	-1211	454	-9576	7176	11248	12	84	-179	-15544	4232	-3208	319	729	-119	-16048	8712	928	1327	2280	236	125	126	1
-24248	-7424	15220	-1640	-32768	-24366	-20176	4916	-10164	-5164	-32768	-10144	-5000	5664	-3776	2085	-1081	427	-9512	7720	11544	10	105	-215	-16408	3944	-3552	454	836	-154	-16688	5968	1024	837	2304	233	124	129	1
-29264	-8516	17908	-2210	-32768	-22560	-26276	3652	-11712	-5201	-32768	-11197	-7736	6928	-456	1126	-668	109	-9624	7632	11672	5	145	-284	-16512	4392	-3552	379	917	-187	-14992	2168	-432	304	2062	292	124	129	1
-31572	-12628	17216	-2790	-32768	-23211	-26476	1576	-12948	-1072	-32768	-10801	-10096	9096	3016	-255	-256	-190	-9624	7640	11768	39	228	-366	-16112	3920	-2544	321	1050	-172	-16072	2232	-2008	85	1573	13	124	130	1
-31936	-12812	12632	-319	-32768	-24099	-26452	1000	-13800	4672	-32768	-10551	-13992	8912	6960	-1175	-223	-104	-9352	7696	11696	58	243	-382	-17600	3136	-3368	200	1308	-190	-19048	4544	-1448	125	1313	-212	125	133	1
-32768	-11256	5384	4076	-27798	-26716	-22724	20	-15452	9878	-32768	-9101	-18536	4864	6880	-1886	-18	150	-9432	6920	13128	240	738	-580	-18456	2352	-3032	363	1457	-205	-18600	4928	2840	260	1170	-56	124	130	1
-32768	-9204	-3136	9047	-19656	-26246	-20644	-1960	-16872	15571	-32137	-6875	-20352	-736	11544	-1981	248	273	-10048	8272	13632	205	1128	-697	-18256	3248	-2824	427	1656	-247	-18008	1240	4496	466	1118	160	125	127	1
-32768	17360	-8100	5715	-7995	-26963	-13096	2916	-18656	13317	-22196	-1895	-21592	-13136	22448	-2267	134	443	-10872	8720	14008	140	1638	-879	-18824	4896	-3728	343	2019	-343	-19312	-1072	3840	446	958	241	126	125	1
-32768	13608	-19688	2806	-3082	-8715	-6296	-2144	-21600	3724	-3090	-402	-19448	-18608	20616	-502	-130	-411	-11080	8296	13632	42	2267	-1244	-20392	3456	-4368	70	2359	-447	-19864	3104	2360	1106	791	23	123	128	1
-32768	13680	-16528	-4071	3065	8798	-5616	4664	-21340	-2241	12294	1805	-21696	-5800	7200	1093	-421	-952	-11840	7616	14128	56	2907	-1612	-22184	2096	-4672	221	2528	-464	-19944	7080	1416	1511	698	-193	123	130	1
-30296	-2472	-8644	-8719	8339	12291	-11992	-236	-18572	-11985	22647	678	-17224	2072	1768	1349	-104	-450	-11136	8928	13912	215	3609	-2004	-22784	3200	-2888	666	2701	-476	-19416	6544	3000	1066	474	-273	123	132	1
3576	-19488	7968	3308	22989	13082	-19900	-7476	5184	-15796	22625	530	-8880	6688	-3328	-136	1206	56	-11056	10152	13224	366	4342	-2744	-23744	4832	-1192	1024	2880	-372	-20624	4536	8768	549	187	-190	124	129	1
-720	-13376	13384	-4547	19167	9123	-31620	2288	9984	6844	14510	-6156	-10640	6376	-3776	-1173	158	638	-12192	14968	15000	601	5212	-3777	-28224	7848	1488	1604	3008	-289	-25416	5368	14688	282	-808	-44	124	129	1
-32768	-3324	24176	-2411	32767	11606	-27620	2100	-7668	7550	19017	-4007	-32768	-16656	8600	526	-47	1839	-15160	13424	16280	772	6484	-5291	-32768	6792	8840	2172	3243	-123	-19312	-7904	5496	-575	-1661	-326	124	131	1
-22980	-11344	13228	-3423	25990	10090	-21860	-1856	-7528	13146	22439	6924	-19176	-5848	-968	4859	-255	-317	-30624	7328	12568	1452	7176	-5696	-26008	4496	-5272	2493	3137	261	-26136	-4808	5400	866	-2100	-560	124	125	1
-23816	-8404	11800	1431	10082	8685	-15916	-7124	-11680	20840	19233	3768	-14184	16184	-16664	4815	676	-1206	-32768	17592	15712	2646	7280	-4409	-28088	6640	-3008	3273	3238	-450	-22120	7808	-9968	2378	-3098	-669	123	133	1
-17132	-14204	9036	5814	4288	6549	-14076	-2088	-13288	22229	13553	2067	-8688	12848	-6016	209	1660	-820	-32768	25952	16888	2276	5783	-4447	-25416	9768	-7272	3047	2618	-272	-26400	8472	-17368	2552	-3190	111	123	133	1
-13160	-7344	14108	5449	2345	4106	-19388	6284	-8108	14150	9477	399	-13288	5336	-9320	-851	1908	493	-16088	32767	23840	-1311	1797	-4075	-16160	9096	-18856	652	2047	189	-28328	1224	-12856	498	-3736	722	123	131	1
-10288	-5736	12656	2928	1167	1408	-16228	7848	-7956	-6643	10574	-3416	-15944	-3768	-7840	-1332	1562	1018	-976	17720	22528	-622	-1811	811	-17336	760	-3032	10	780	-531	-30704	2872	-6400	-866	-4174	524	123	133	1
-9716	-6784	11764	1388	1175	556	-15580	1580	-5828	-20984	10325	-6984	-19960	-3800	-4584	301	1685	540	-168	13240	14360	-85	-1338	1790	-14232	2920	824	492	-390	-106	-27520	4096	-3608	-1105	-3955	810	123	132	1
-9400	-7020	11356	580	1498	270	-18884	-4336	-3424	-16586	7833	-6600	-18736	6496	-2488	575	1709	79	-10136	14256	15640	-465	-2717	2466	-3584	3232	-8024	-698	-1278	327	-22464	1624	-4128	-810	-3507	1239	123	124	1
-9212	-7540	10916	407	1710	285	-19084	-4924	-3132	-14741	7466	-5964	-17616	5960	-1176	-512	1939	237	-4920	6224	13960	-507	-4391	3123	-4112	3016	-2472	-1203	-2384	712	-18256	192	-5296	-512	-3014	1012	125	124	1
-8940	-7232	10936	751	1790	257	-15584	-3140	-2208	5864	4726	1074	-15096	520	-552	-857	1838	512	-4112	4808	10472	26	-5096	3391	-9864	1464	-2824	-1815	-3289	1055	-15184	920	-7224	-541	-2560	837	123	128	1
-9212	-7292	10832	896	1757	146	-16312	-928	-3172	7066	4386	1807	-12208	-1528	-1320	-804	1956	550	-5720	6096	9464	256	-5329	3329	-10792	-112	-3416	-2161	-4022	1149	-12144	1536	-9008	-702	-2057	603	120	131	1
-9076	-7268	10584	930	1713	75	-15316	664	-3252	1840	5584	324	-14144	-848	-1856	-855	1985	509	-7968	7320	11376	225	-5201	3489	-10992	-2040	-5184	-2263	-4799	1163	-9480	2608	-9024	-873	-1825	382	121	131	1
-10264	-6656	10852	760	1231	-31	-14672	2248	-3356	-5368	6465	-1566	-16432	4192	-752	-835	2104	540	-12984	8176	13832	223	-5135	4077	-12912	-2200	-6792	-2228	-5485	1112	-7232	3072	-8952	-1258	-1468	189	130	132	1
-9436	-6968	10924	367	944	-425	-15028	612	-2376	-11280	6834	-2232	-16456	5920	-264	-1300	2415	425	-19056	6192	16984	394	-5069	4515	-17096	-1600	-9448	-2037	-5964	973	-5544	3272	-9240	-2219	-1043	50	52	131	1
-8696	-7488	10636	211	1230	-39	-17384	-3240	-1528	-9656	6241	-2356	-15400	2624	128	-1899	2762	287	-23600	3168	18320	1120	-5150	4518	-20656	-2808	-10648	-1424	-6317	932	-4688	1936	-8552	-3092	-826	-165	63	130	1
-9284	-7024	10876	30	1697	575	-16948	-3680	-1892	-4302	6240	-414	-16032	-3456	616	-2034	2891	387	-30480	9560	18648	1207	-5319	4029	-21360	-2936	-13384	-53	-6384	1182	-5712	2112	-6528	-3259	-970	-270	86	128	1
-9372	-7036	10556	-156	2160	772	-15808	-3020	-2232	7	6911	1901	-15696	-4816	-1432	-1578	2208	676	-29864	8680	16776	714	-5268	3420	-24296	984	-12752	464	-6306	1696	-8568	-1048	-856	-2306	-1092	-256	95	129	1
-10932	-6492	10928	90	2908	1132	-15128	-1152	-2324	858	7797	1838	-14936	-3040	-4800	-362	1030	805	-32768	11240	15976	942	-4810	3072	-24808	3936	-15592	126	-6058	1841	-9488	-7056	2928	-701	-1016	52	107	124	1
-9848	-6268	11292	-284	3036	1700	-16196	-296	-1004	-1089	9234	1602	-16712	136	-3200	896	1053	604	-32768	10568	13232	1114	-4666	3387	-21168	6736	-16424	-983	-5557	1607	-10832	-10304	8040	455	-610	-11	120	135	1
-9528	-8048	11600	-633	4178	2429	-17276	-1160	-952	-1071	11168	1517	-20976	-352	624	1043	1175	462	-32768	2856	3664	700	-3870	3425	-22280	2376	-16856	-2097	-4715	1186	-17520	-4576	15000	2128	-311	-182	126	131	1
-9180	-7436	12592	-1629	5852	3534	-18100	-176	-996	-598	13506	2112	-19576	288	3272	-46	932	335	-32768	-4312	-6552	-209	-2408	3085	-18584	-3568	-21872	-2068	-3233	503	-19064	-640	26800	2902	-699	197	126	123	1
-9652	-6296	13796	-2889	8970	4664	-17440	848	-348	-210	15842	2491	-17520	4216	3312	-712	961	298	-32768	-14232	-16840	-641	-1024	2039	-10296	-664	-23088	-614	-1355	37	-18120	7888	23696	852	-863	869	126	130	1
-10040	-6840	13856	-2421	13446	5905	-19048	396	-3244	1220	18071	2572	-17904	6784	2896	-867	828	332	-32768	-15512	-19720	-215	211	166	-6320	3648	-23392	-371	625	81	-18704	14248	18472	-52	-565	1031	125	127	1
-10288	-7316	14740	-1714	19063	7746	-21000	-672	-4440	3268	19456	3303	-19616	4728	-784	-1329	821	360	-32768	-5752	-12064	-33	1362	-756	-7624	1832	-22728	-546	2239	-72	-18136	4312	8952	-270	-132	-115	124	160	1
-11120	-7976	14004	-2795	25461	10721	-22200	424	-4664	3255	21012	2533	-21792	152	-3104	-1447	831	492	1688	19920	20608	-614	2349	-781	-12208	1024	-18104	-47	3305	-259	-13688	-3272	616	-518	214	-888	125	123	1
-9912	-10512	14712	-3891	31021	13546	-21504	1692	-2156	310	22094	137	-20888	-4016	-1024	-914	690	510	-728	13208	32767	-1364	2322	-1862	-32768	5952	21560	1790	1977	188	352	-1152	-7784	-821	1106	-545	125	158	1
-9940	-10568	13596	-5407	32767	17399	-24296	-792	760	-5357	23054	-641	-22432	-4280	3688	-477	451	377	-14256	-16096	17712	-681	4078	-3173	-25960	-3960	-6624	291	2608	346	-16432	11448	-3000	2654	-99	425	124	134	1
-8488	-11576	13676	-7315	32767	24571	-27908	-2556	1668	-6446	23855	198	-26872	-4432	9656	-201	-267	161	-32336	-13560	26344	-436	4302	-3095	-22848	5336	-7536	484	2825	-634	-26368	19088	14592	-3260	-291	1166	123	108	1
-14664	-11260	14404	-10961	32767	32767	-31368	-2788	14116	-18428	27042	3645	-26224	-4816	22080	-708	-3400	-240	-24832	6968	15744	-953	2619	-1141	-15264	9952	-9416	-1054	3068	-853	-23760	-5272	-15896	-3517	2034	728	124	128	1
-29592	-5632	7424	-15825	32767	32767	-24280	-1976	-3444	-15178	28198	-5470	-16448	6248	3632	-1181	-2275	-481	-19688	18864	9712	-705	759	-1104	-9584	8048	-15504	-3502	2410	-730	-15184	-9184	-4840	-277	1369	1248	134	121	1
-32768	-8552	15384	-25921	32767	24111	-21144	220	-6528	-17762	30276	6505	-20536	1768	-14640	-1313	-1913	-918	-13584	-216	15376	-609	94	-362	-20864	-4168	-13832	-3990	1680	-379	-15024	3600	-6584	842	1819	849	130	126	1
-32768	-22588	17744	-17278	32767	26942	-30812	-7176	-12612	-15348	28647	5356	-24408	136	-17632	-1236	-2163	-1472	-10632	4816	13192	-239	164	-9	-21536	-8016	-8608	-904	1575	-85	-12696	9224	-6160	-409	2157	796	134	124	1
-14504	-24816	14644	4128	21816	26219	-20288	-6824	-6980	-3633	18866	5701	-28600	5088	-10960	38	-2610	-1880	-10296	5840	12392	-8	240	74	-13120	-3080	-7392	1566	1079	399	-17920	5176	-3552	-1371	1776	584	133	129	1
-9836	-16888	21452	7859	-5416	126	-17824	2460	-5876	5155	9162	10512	-27384	4112	-7176	1703	-3221	-1377	-10000	8032	11480	44	239	35	-17736	7728	-6064	2091	842	766	-22096	-248	-1824	-886	1881	194	134	121	1
-2128	-11552	14472	8607	-7068	-3479	-12716	-3080	-256	2392	-45	8771	-24192	5192	-7456	1935	-3501	-1635	-9832	7760	11856	31	233	-15	-16040	8984	-5048	1198	606	521	-19264	-816	-152	807	1878	382	130	129	1
-5656	-8368	13388	9852	-15412	-5158	-11940	-3036	-1076	3363	-1417	8061	-22160	7984	-4800	1238	-3189	-1956	-10288	7032	11520	4	254	-5	-16376	5968	-5560	229	420	282	-15032	4024	-680	1427	1933	115	129	130	1
-5888	-5908	13508	6580	-29004	-9999	-6928	-1796	-6248	7836	-10080	4876	-19808	7664	-3880	772	-2723	-1676	-10224	7176	11224	60	272	27	-17104	4664	-4800	-165	446	47	-13976	8088	232	1016	2003	-2	127	127	1
-3636	-6520	10272	3809	-32768	-11567	-7252	624	-3752	5418	-25146	4908	-16344	6088	-5952	618	-2261	-1387	-10184	7672	11040	76	250	27	-15320	4792	-3928	-29	548	48	-13120	6536	456	595	2267	252	130	126	1
-5368	-6440	7740	1354	-32768	-12708	-8036	3236	-5088	3299	-30491	1826	-14016	5304	-6520	593	-1839	-1204	-9960	7864	10752	65	194	1	-13992	4848	-3736	264	476	94	-15088	2640	-384	443	2210	489	130	129	1
-5792	-8312	7384	1001	-32768	-15204	-6704	3216	-9416	-4338	-32768	-643	-11496	3848	-7808	674	-1367	-983	-9976	7792	10936	43	151	-27	-15272	4248	-3232	623	320	219	-17656	1552	-184	801	2207	628	130	131	1
-9604	-9856	7928	2392	-32768	-20269	-8504	2332	-5412	-6303	-32768	-3456	-9120	1280	-8768	800	-1040	-871	-10464	6968	11240	49	138	-51	-16896	3440	-3856	993	350	281	-15640	-1768	1064	2120	2233	275	128	120	1
-12624	-12320	8424	5717	-32768	-26484	-11588	-248	-6608	-3846	-32768	-5545	-6912	216	-9456	1350	-853	-644	-9904	7232	11064	75	146	-55	-15184	5528	-2704	1187	462	283	-13592	2240	2896	1677	2295	599	127	127	1
-17068	-9612	10912	4920	-32768	-31038	-16500	-1424	-9760	986	-32768	-5653	-4840	-24	-9712	2296	-844	-207	-10016	7296	11256	104	161	-96	-15072	5656	-2896	1147	466	263	-14400	5768	5096	1639	2585	545	127	126	1
-25268	-10260	11160	-791	-32768	-31777	-18068	-1556	-11400	2777	-32768	-4015	-3896	2904	-8304	3299	-1091	200	-10032	7752	11104	87	171	-142	-15376	6504	-2624	750	762	48	-16608	8112	3336	1484	2440	426	126	130	1
-26564	-14828	10000	-631	-32768	-28068	-20812	-980	-11660	5032	-32768	-6624	-5032	4944	-6640	3465	-1267	338	-10384	7408	11328	78	192	-204	-15320	4864	-2600	646	932	-50	-17496	6120	-2008	1205	1578	366	125	129	1
-28616	-17936	10248	2480	-32768	-29629	-23824	1164	-12824	5878	-32768	-10464	-8616	8552	-2456	2559	-1183	231	-10112	7688	11408	114	244	-232	-16728	4552	-3000	736	1031	-65	-17088	4312	-2248	1050	1182	400	125	129	1
-28552	-17772	10336	2463	-32768	-30223	-26816	-756	-14268	4824	-32768	-12595	-11112	10936	3520	963	-736	85	-9888	6800	12048	208	401	-326	-17488	3464	-3616	712	1155	-42	-17288	5328	168	903	1112	174	122	130	1
-32768	-15336	11332	-4527	-31519	-32768	-24868	-3172	-16172	2952	-32768	-13563	-13648	8504	7456	-161	-284	228	-10128	7992	12064	329	652	-362	-17296	3592	-3720	712	1315	-94	-16832	5288	2248	886	1060	-17	117	129	1
-32768	-12008	4420	-3236	-29392	-29145	-24044	-1364	-15080	5568	-32768	-13579	-16000	7992	10936	-1312	459	382	-10448	7824	12352	372	984	-464	-17984	4464	-3472	551	1528	-102	-16488	1752	2280	829	1147	38	117	127	1
-32768	-6836	-3116	-8	-19405	-27774	-19268	1304	-15280	10735	-31861	-13340	-16600	152	18328	-1442	359	15	-10912	8264	12360	352	1405	-620	-17960	4728	-3616	459	1786	-143	-17520	408	3264	788	1125	241	116	127	1
-32768	15264	-13492	-9373	-6831	-28988	-11724	4144	-18784	-683	-15483	-5632	-23096	-11304	21664	-1614	257	-711	-11000	9504	13032	275	1969	-873	-19520	4576	-3512	277	2063	-202	-19368	2856	3048	916	1023	262	116	125	1
-32768	13840	-19776	-1512	890	-8338	-3396	-3140	-20884	5041	1216	-3818	-25672	-13704	20920	-406	-293	-1403	-11400	7928	13256	318	2613	-1144	-20856	3328	-4008	319	2301	-219	-19896	7008	1368	1372	953	108	120	125	1
-32768	9716	-14656	-7856	8261	2363	-7276	5264	-20896	1070	16117	1375	-20672	-4592	6472	652	-277	-1424	-10632	7544	13080	492	3321	-1462	-21800	3504	-2144	569	2545	-243	-20304	7080	3240	1150	849	-67	124	126	1
-12844	-12968	-22932	10413	27055	16149	-15188	-2308	-14916	2982	22953	-3836	-14800	3408	2464	-154	686	-517	-10552	10024	13120	678	4175	-2040	-23080	5456	-200	843	2842	-226	-20640	3600	7696	482	371	10	123	128	1
7012	-32768	32767	7447	29065	12560	-32768	-3644	31148	-1690	17811	2877	-18512	4784	336	-1846	681	215	-10248	12088	15032	900	5199	-2967	-27936	8560	1712	1131	3090	-194	-26408	2584	13072	552	-210	232	123	133	1
-32768	-1304	20956	2320	29116	20282	-29500	12944	-13324	19668	22900	-2249	-30208	-18264	2008	680	-713	900	-13632	18176	15152	1395	6715	-4297	-32768	4920	4952	1466	3221	2	-32048	6560	15544	1010	-1916	262	122	129	1
-18708	-16860	9184	-2118	23524	13113	-17656	-2428	-8544	-2688	30429	5331	-11880	-11488	-8168	5264	-469	660	-26944	11240	14032	2066	7556	-5122	-32768	3064	5944	1644	3218	59	-20800	-9208	-792	1357	-1724	-392	124	125	1
