#Activity	walking 
#ActivityID	1 
#Date 10-06-18-12
acc_rf_x	acc_rf_y	acc_rf_z	gyro_rf_x	gyro_rf_y	gyro_rf_z	acc_rs_x	acc_rs_y	acc_rs_z	gyro_rs_x	gyro_rs_y	gyro_rs_z	acc_rt_x	acc_rt_y	acc_rt_z	gyro_rt_x	gyro_rt_y	gyro_rt_z	acc_lf_x	acc_lf_y	acc_lf_z	gyro_lf_x	gyro_lf_y	gyro_lf_z	acc_ls_x	acc_ls_y	acc_ls_z	gyro_ls_x	gyro_ls_y	gyro_ls_z	acc_lt_x	acc_lt_y	acc_lt_z	gyro_lt_x	gyro_lt_y	gyro_lt_z	EMG_r	EMG_l	act
-11916	-3848	13032	5372	2045	5518	-18308	4292	-4708	1077	7663	-83	-16924	-5308	-4776	598	14542	-4243	-28056	16064	19744	8498	-14686	-4565	-10852	3324	-7012	4063	6430	-288	-27312	-736	-936	527	-32768	-2091	141	134	1
-11264	-3816	12232	3221	794	3456	-16956	5516	-2700	2086	5903	61	-16800	-3584	-1524	2967	15132	-1531	-6388	13448	16504	5391	-32768	2083	-11460	1996	736	5848	-3059	618	-25896	-1032	-4912	4984	-25737	504	130	132	1
-10840	-3412	12700	1839	470	1362	-16604	5940	-1264	2512	5284	-614	-14176	-2432	-764	3927	17325	1269	2228	9756	11544	3546	-32768	3257	-7140	-520	608	3104	-11502	-1860	-21356	1452	-7776	6706	-19983	1905	127	125	1
-10180	-4424	12040	769	1081	-134	-16756	3464	-976	3883	4567	-1235	-16776	-132	1516	4860	16173	869	-2720	5428	8912	4427	-32768	4781	-6528	604	-1724	2752	-18837	-3327	-17156	2148	-8044	2646	-18741	1902	123	122	1
-9832	-4920	11264	377	976	-384	-15992	2652	-764	3893	4271	-952	-15020	-580	1300	2795	16116	-1379	-4092	2752	8716	9354	-32768	8108	-6456	-676	-2524	3770	-24489	-4534	-14776	2456	-8796	-2294	-18709	1914	127	122	1
-9416	-5388	11184	128	892	86	-15252	2280	-796	1128	4688	-606	-14720	-1360	1220	-646	15179	-2341	-9128	4892	9156	13660	-32768	11835	-7348	72	-3900	7313	-29185	-5484	-12504	3044	-8528	-5300	-17470	1207	129	126	1
-9072	-5564	11004	38	856	883	-15596	2616	-784	-4101	6163	-921	-14676	-1520	1352	-1122	15191	-2292	-13816	4096	9804	14606	-32768	14637	-8624	8	-4920	9956	-32768	-5091	-9708	2412	-8176	-7766	-14936	909	131	126	1
-9108	-5656	10648	914	914	1909	-15988	1652	-592	-6326	7064	-1374	-14504	-2768	124	-3446	17754	-2750	-12592	1780	9928	17041	-32768	17920	-10976	-1308	-4396	11009	-32768	-5815	-8340	3508	-9604	-13496	-12151	167	140	126	1
-10024	-4508	11232	1890	523	2260	-16552	1464	-864	-2171	6203	-1146	-15296	-2100	624	-1528	18182	-3082	-14580	856	11888	21987	-32768	20318	-13160	-1340	-4908	10226	-32768	-5401	-7340	4044	-10228	-19739	-11073	-837	128	125	1
-10300	-4036	11732	1889	363	1555	-15764	2444	-1420	1076	6152	-7	-16200	-688	-216	-73	17574	-3016	-16560	1360	13448	25262	-32768	21597	-18708	-1716	-7504	7175	-32768	-4493	-6696	4456	-10192	-22365	-10309	-1564	131	124	1
-9924	-4136	11532	1405	202	1421	-16060	2788	24	-658	7944	189	-17068	-88	108	616	15791	-3469	-22640	-176	14852	27376	-31634	21534	-20252	-3280	-10500	10516	-32768	-5476	-7864	1000	-6740	-19371	-9473	-2530	129	123	1
-10308	-4496	11332	1516	235	1879	-15772	856	640	-462	9398	-30	-17300	-1244	2220	-1301	14544	-4448	-32768	3388	19724	24743	-28741	22811	-27864	-3468	-15048	8319	-32768	-4468	-9488	-4924	-1136	-13329	-10036	-4032	131	127	1
-10096	-5176	11344	1800	56	2883	-17036	-788	632	876	10057	1016	-18432	-5060	3852	-3695	12471	-5021	-32768	-4700	18664	19313	-31492	27852	-26756	-5312	-16904	12858	-32768	-5444	-10212	-6656	5312	-7059	-8802	-2595	128	128	1
-10688	-4456	12172	1492	539	3208	-17328	956	-68	1734	11026	2339	-18928	-5092	2748	-4995	10498	-4542	-32768	-7780	12976	17536	-32076	32767	-24932	888	-17252	17112	-32768	-4873	-11044	-2336	8168	6687	337	3093	125	127	1
-10372	-3728	12612	671	1784	2989	-17728	2408	-824	458	12496	3326	-16928	-2076	4080	-4710	11209	-4302	-32768	-5848	3928	8675	-32768	29512	-24232	3348	-16496	5256	-32768	-5027	-14216	-1888	9764	8328	5355	4968	127	125	1
-10628	-5224	12288	495	3511	3191	-16672	472	164	180	14660	4011	-17392	-1352	3304	-7509	9374	-3632	-32768	-15720	-9808	2726	-27575	23712	-20004	584	-18536	-34	-27235	-1962	-17024	-4624	12648	-3367	1136	3331	124	126	1
-10824	-4352	14112	1286	6107	5223	-17992	2932	-1476	3120	15718	4614	-19400	-2440	2644	-5634	6337	-3796	-32768	-23384	-19864	5997	-11644	19268	-12172	852	-22184	-283	-13884	2106	-17980	-7832	23404	-9421	-711	2328	126	118	1
-11176	-3476	14572	1899	10797	5082	-18472	6056	-1756	4284	17472	5601	-18484	-5040	420	-5397	3195	-3136	-32768	-27460	-20724	8058	3205	14049	-8236	4356	-21236	-1188	2145	3690	-13624	-11336	24612	-650	-2437	1449	127	120	1
-10536	-4500	15320	2505	15446	5515	-19136	4284	-2552	7242	19059	5782	-18752	-5000	860	-5347	1104	-1299	-32768	-17032	-15140	-3093	11190	6260	-10496	5816	-20296	-7694	14753	3665	-17036	-2072	15736	2585	-3947	2694	126	125	1
-9928	-5512	15504	3542	20728	8047	-21300	4864	-3740	8196	19423	5672	-19264	-3632	1112	-6658	653	-203	-32768	-15620	-13632	-5672	12162	4508	-26572	-15212	11172	-17420	13762	-443	-12420	4640	1408	-2803	5977	7682	125	139	1
-10132	-5744	16760	3295	26038	11343	-23956	5944	-2992	5650	19987	5473	-22404	-3372	1920	-8032	-1326	247	12164	24288	24732	-21052	30018	-17017	-21548	-1972	7212	-32768	-2755	9532	-18328	-32	1892	-13566	15232	8902	127	127	1
-7092	-6132	15788	4294	32767	13522	-25688	7988	1324	2906	21093	5840	-23432	-628	9724	-11484	-7442	1427	-19036	-27732	12648	-12339	28660	-224	-9396	-23720	-10624	-29543	8008	-3184	-12768	-2704	3336	-18877	6561	149	120	128	1
-4584	-1572	18192	3518	32767	13425	-26480	14376	6792	-4933	23712	6543	-21560	4268	24660	-6328	-28074	3178	-23612	-14608	22136	-4929	19543	-8168	-25328	-9932	-5948	-15492	12668	4829	-20840	-20984	1240	-23418	9689	-422	120	134	1
-12048	-12080	15416	2735	32767	16162	-28340	12680	14436	-20677	27695	2706	-23784	15848	9608	-17427	-16711	9417	-30600	13372	11244	1145	15643	-11242	-22068	1464	-4908	-7335	15116	7113	-17172	-7484	-2216	1901	12330	-697	120	135	1
-32768	-6424	6164	-3050	32767	25421	-23684	-4444	-11148	-18948	32767	3140	-19980	-1356	3916	-28726	-21646	8082	-12280	8808	11116	-6269	13568	-7548	-18540	5240	-2132	-10709	12106	8084	-16364	19208	-9136	8597	11249	3888	119	127	1
-32768	-12084	11256	1605	32767	28475	-32768	-3048	-9440	-59	29087	8311	-24124	-14012	-18120	-32768	-21391	3748	-16460	1768	12516	-10411	3790	-9929	-18796	3696	-5624	-15684	8227	5286	-19028	8388	-5988	-8989	7363	9289	126	136	1
-32768	-13656	15024	1486	32767	28625	-21784	4440	-6244	3231	24340	9258	-27820	-9500	-16340	-7461	-22202	-6610	-15548	564	13104	-7081	574	-8279	-17096	-3924	-6588	-9607	7811	3598	-16432	904	-4708	-6485	9912	9407	133	134	1
-32768	-9772	22428	-8523	22038	17855	-16312	3932	-15328	4310	14499	6032	-27192	-8328	-7692	9656	-25541	-3605	-12812	1644	12544	-4244	169	-5535	-17112	-5952	-4768	3604	9380	4346	-18216	-1456	-6072	-2226	10510	5698	137	133	1
-15848	-20788	20848	-7991	-19566	1440	-10736	-3268	-4140	-6211	7477	3234	-27340	-296	-3792	9919	-25711	-4046	-12612	1728	12720	-2463	471	-4459	-17268	-5552	-5264	5329	9557	4531	-16356	-1952	-1380	-71	10523	5214	131	129	1
-1000	-16644	15756	-3472	-31977	-2628	-8516	-484	2016	-10079	-912	-3580	-23896	-1148	-4156	4149	-23281	-6619	-11572	2904	11988	-2382	768	-3293	-17640	1532	-336	2342	7960	4362	-15908	3952	-4	1030	9649	3392	129	126	1
4532	-9428	11540	-1685	-32768	-3641	-6624	-340	2368	-8509	-11039	-6533	-20448	-2320	-6188	451	-21189	-6876	-11692	2172	11932	-3114	728	-4009	-17192	1164	-1468	-7801	4883	2690	-16140	3832	-404	-5748	9304	4331	131	136	1
-1112	-4792	10316	-5336	-32768	-6366	-5952	1044	-768	-3444	-20142	-8214	-17116	-2436	-7568	3645	-18851	-6038	-11700	1280	13380	-2976	-216	-3512	-16388	-3308	-2492	-7881	4418	2311	-15716	-1476	-324	-7721	9341	5265	136	130	1
-6228	-4036	11028	-10576	-32768	-12933	-6868	4540	-3408	-2283	-27819	-9092	-14000	-2224	-7316	8567	-16023	-4610	-10488	2160	12696	-2100	-78	-2440	-15668	-4824	-1852	-169	6028	3192	-15504	-3072	-1264	-2979	11121	6123	130	129	1
-7136	-4976	10700	-12167	-32768	-19207	-8496	6452	-2628	-7941	-32768	-10138	-12872	-2944	-8256	13132	-13909	-3014	-10400	1968	12588	-1425	300	-2327	-16244	-3264	-1004	5650	7112	3910	-15104	-3388	548	2671	11495	5198	126	132	1
-11724	-3216	11572	-11533	-32768	-22905	-10128	5656	-3736	-10425	-32768	-12222	-11540	-2428	-9224	17136	-12760	-1844	-11224	2032	12376	-2365	422	-1896	-16644	-1436	-1064	4201	7183	3937	-15596	-576	724	6595	12810	5205	125	132	1
-16356	-1588	13276	-11609	-32768	-24287	-12008	5848	-5388	-7885	-32768	-13968	-8644	-28	-8656	21943	-12933	-926	-11380	804	12312	-3513	516	-1362	-16264	-728	-3396	-1246	6273	3018	-16200	836	-1264	7623	15874	6607	127	129	1
-18640	-1452	13956	-12938	-32768	-25532	-14436	7028	-5948	-5223	-32768	-14458	-6272	1980	-9684	21096	-11391	127	-11020	840	12588	-2994	613	-33	-16312	-3504	-2328	1290	7424	2371	-14208	-804	-456	5694	17237	6056	125	129	1
-17872	-3660	14844	-12195	-32768	-26954	-18052	8364	-5972	-4422	-32768	-13940	-7060	1176	-8336	14971	-7985	-457	-10884	3348	12652	-2797	975	-445	-17184	-1824	-1336	6470	9078	3553	-15448	948	-688	8671	19528	6024	128	128	1
-21552	-2748	17852	-12073	-32768	-26638	-22492	11960	-8848	-5901	-32768	-13890	-8048	1584	-5456	7688	-4405	-919	-11664	1176	12188	-1140	1083	-1942	-16436	-864	-2460	6125	9319	3679	-14696	680	-1808	6137	17344	6454	130	130	1
-32768	-3636	22692	-12352	-30098	-25444	-28200	10804	-15104	-5435	-32768	-14631	-9996	5068	-1660	4185	-2485	-1512	-11524	1072	12784	-735	1122	-2073	-17000	-1084	-1244	4095	9592	3082	-17124	1036	1548	3162	14337	6386	129	131	1
-32768	1136	18048	-11019	-31118	-25885	-29056	11988	-18680	-5827	-32768	-11493	-12236	2512	3420	1429	-3611	-2180	-11400	2132	13244	-700	2048	-3315	-18688	-1440	-596	2172	10036	2629	-18936	-1480	2824	-359	13519	7726	127	131	1
-32768	-1200	6972	-6230	-32417	-26025	-22500	8048	-23368	-4368	-32768	-9925	-15028	-4260	8000	-4577	-878	-4364	-12000	2592	13384	-1070	3921	-4738	-18436	-1528	1408	3220	12690	2944	-18868	-4224	6636	60	11586	8197	129	132	1
-32768	6668	-7204	-1598	-32291	-26939	-20800	9700	-22840	-1195	-30439	-8549	-17456	2012	14732	2511	-558	-3278	-10500	292	15372	-3344	6243	-6944	-19308	-2604	1664	1499	15476	2696	-19768	-3472	7008	3592	9293	6375	126	131	1
-32768	14908	-16456	-3439	-19388	-23748	-14376	8128	-23396	104	-18592	-7396	-18244	840	22516	4166	452	-1652	-11876	2296	15760	-4239	10807	-7384	-19964	-4176	-736	-2085	17504	2521	-21852	-984	2872	5389	6104	3365	124	130	1
-32768	24028	-22416	-6367	-5573	-16022	-6144	6580	-24808	2430	-3909	-3651	-14908	2032	24264	-4959	-632	-89	-11084	1080	16564	-7110	14732	-8633	-20424	-3752	-1892	-5695	19139	1936	-20704	3328	4244	4449	4187	1535	124	129	1
-32768	15796	-17480	4783	5531	-4192	-11740	5692	-15468	354	11391	1622	-13932	-3980	18192	-5694	-1826	560	-10164	2088	16624	-9430	19031	-9425	-21736	-3772	-560	-7423	20632	1873	-21316	3236	5028	4485	1893	-101	118	127	1
-2500	-15308	32767	11838	22367	11066	-31380	1528	32767	-6582	11987	10810	-16884	-5244	-856	-4014	6982	-1601	-9684	3692	18028	-12624	25181	-12659	-26388	-5552	1120	-6385	22070	2430	-23580	-28	7864	5017	-3829	-1494	118	126	1
-25828	12088	584	3930	25208	17043	-6340	10080	-10488	26217	7070	-3896	-26308	-80	19928	-994	-296	589	-7868	6132	18652	-14510	32767	-17947	-27276	-10532	5928	-3021	23664	4112	-23188	-7656	14732	2352	-14769	-4686	123	125	1
-17048	-552	20504	-3429	30106	7235	-19904	10972	440	2797	18916	8857	-7444	4532	12856	21841	6344	5023	-6276	4420	21504	-18047	32767	-20523	-31824	-17552	12204	6784	25613	6158	-18384	-21508	11300	1607	-17811	-12811	124	124	1
-25224	-4776	16716	-3840	18362	13537	-27008	8540	-5824	-2068	21146	528	-28500	13676	-24	4861	12490	1938	-22524	632	16128	-15082	32767	-21636	-26872	-11788	4096	14713	29210	6759	-20736	-12728	7728	9383	-17599	-15012	124	126	1
-17500	-15080	10944	1709	14604	7262	-19680	2672	-3676	5200	19467	644	-15684	-5160	-5348	-16429	10184	-194	-32768	1108	8988	-8999	32767	-23597	-31076	6156	-15896	10348	31758	6069	-20372	1772	-2500	32767	-11598	-12887	130	127	1
-16172	-4660	13440	7639	6632	6852	-16024	-1316	-8408	7869	15198	831	-10696	-16808	-9932	-13307	9326	-3941	-32768	3132	19380	-11494	32767	-32665	-27756	7560	-7400	-3590	21685	5724	-30532	6240	-14320	32767	-11557	-4104	132	133	1
-13248	-7668	10972	6497	2296	6039	-16464	2976	-6980	8193	11299	1472	-14976	-8636	-9928	399	9526	-5019	-27280	11592	27372	-1185	30275	-22694	-20224	332	-8668	-12559	16223	887	-32768	3172	-17484	12996	-24027	8373	123	135	1
-12124	-4288	12296	4832	885	4903	-16072	5592	-7036	3327	9095	649	-17124	-6220	-7524	4625	11447	-2600	-32768	2028	21852	-930	3745	-6634	-12296	-40	-10640	-2837	9048	2180	-28128	1580	-5544	3236	-32768	858	139	137	1
-10588	-4456	12076	3385	1049	3521	-18308	5364	-4516	-198	8084	295	-16388	-4820	-5236	6417	14607	-1250	-12600	11016	21160	7031	-26250	8459	-10884	-676	800	6082	924	-734	-25884	-1456	-2080	4552	-30222	496	135	128	1
-10448	-4920	11260	3616	132	3320	-17024	2852	-2704	311	6549	-321	-16080	-3220	-2864	5974	15520	-480	1148	12684	14604	8786	-30293	12015	-8576	-880	2928	6871	-7816	442	-20988	-420	-5996	8510	-21845	2852	128	122	1
-9696	-4924	11652	4256	-251	3374	-16500	2764	-1496	4799	4043	-1034	-16644	-948	-992	5641	16781	-782	772	8168	11132	8457	-27571	10871	-7056	976	1172	4361	-16491	-196	-17252	1036	-7892	6620	-17955	2875	120	124	1
-10904	-2016	12420	2372	-939	2329	-15456	5840	-852	5839	2657	-851	-16400	1992	1532	5360	16774	-1254	-4972	5004	10176	10691	-27980	11724	-6152	820	-2096	2289	-23515	-1050	-14384	1876	-8820	688	-17174	2781	125	121	1
-9984	-3476	12164	296	-167	723	-15944	5528	180	4124	3828	-840	-16588	3528	3860	1618	15640	-1394	-7072	3728	9984	13860	-30322	13878	-7108	-1228	-2892	4341	-28807	-2012	-11944	1756	-8948	-4958	-17462	2322	129	126	1
-9272	-4740	11240	-94	-100	780	-14680	2576	792	-487	6272	-706	-15188	516	6328	-2818	13569	-1741	-10464	2132	11064	15927	-32718	17027	-8200	-2100	-4768	7222	-32768	-2482	-9412	3184	-8268	-7809	-15807	1933	125	125	1
-8712	-5864	10816	442	5	1598	-15216	8	1772	-3209	8470	-668	-14216	-2688	4948	-5188	14272	-2441	-13980	-1412	13024	18384	-32768	20824	-10752	-2160	-6152	10140	-32768	-3677	-8956	3744	-8264	-8513	-15193	1842	130	124	1
-9508	-5352	11284	1392	-88	2896	-15616	1044	-128	285	8786	133	-15404	-3232	5672	-2539	16161	-3502	-16484	-2248	13736	21923	-32768	23812	-13936	-2460	-5624	8609	-32768	-5122	-10312	5624	-9736	-21798	-12816	531	130	120	1
-10120	-3680	11892	1632	-115	2931	-16876	3796	-2376	1572	9314	926	-17572	-5868	-32	-4339	14959	-1516	-17172	-3552	14736	24271	-32768	23552	-17156	-3508	-6288	5401	-32768	-5468	-8664	4484	-10368	-25836	-13852	-869	126	124	1
-10404	-3192	12424	1226	399	2358	-16748	6044	-4696	2061	9292	712	-15064	-2088	-7152	-3047	17811	-1115	-22528	-1516	14924	23690	-32768	21815	-19472	-3008	-10620	5034	-32768	-6368	-7596	1460	-8884	-20838	-11566	-308	123	124	1
-10492	-3212	12120	740	887	1562	-16028	4896	-3892	-417	9538	20	-13504	428	-3812	605	17715	-1240	-30436	-1500	17548	21334	-31113	21776	-22264	-5388	-12524	7138	-32768	-6516	-7528	-6280	-4056	-11711	-9760	-3056	123	123	1
-10336	-4084	11756	598	1258	1548	-15856	1896	-2632	-1172	8927	-61	-14544	-1548	-520	-2493	19179	-1166	-32768	-3136	19360	18879	-31564	25696	-24208	-6352	-13088	7208	-32768	-6058	-8320	-11068	828	-8366	-8260	-4014	125	126	1
-10360	-3988	12024	363	1506	1919	-16524	1012	-1556	40	8598	849	-17692	-3156	-36	871	15557	-3264	-32768	-10676	14608	17169	-32768	32767	-25456	-1412	-17592	12836	-32768	-6238	-9040	-3688	6524	5896	-984	-217	118	127	1
-10692	-4524	12140	7	2230	2288	-17712	1236	32	619	10062	2013	-19344	-1156	5664	2294	12095	-5571	-32768	-10244	5152	11325	-32768	32767	-24408	3304	-17552	5861	-32768	-5592	-14084	-224	6496	10224	5234	4848	123	125	1
-10096	-5388	13052	600	4226	3857	-17548	1232	244	500	10436	2121	-18804	-1184	8528	-1975	11168	-4872	-32768	-18080	-7492	6973	-30665	27725	-22616	-768	-19580	836	-30219	-3146	-16656	-5072	10700	-6863	2406	3810	123	124	1
-9692	-3568	15412	1179	7497	5271	-19300	3852	-204	872	14659	4101	-20692	-2684	2720	-7707	7622	-3189	-32768	-25088	-19152	7686	-16008	21554	-14272	1904	-22640	836	-17027	1095	-21592	-6624	26236	-6509	-3053	2450	125	114	1
-11160	-3536	14572	2032	10848	6041	-18320	3008	-692	4018	16745	5072	-19376	-6752	2904	-7738	4716	-2601	-32768	-32612	-22784	11544	-219	13246	-8212	4204	-22048	1767	331	3802	-16080	-14296	26972	-1620	-3752	982	124	116	1
-11128	-4648	15160	3112	14822	7876	-19148	3644	-2172	8640	17720	5842	-19108	-6804	2304	-5639	2614	-1178	-32768	-21068	-16384	2414	9665	3168	-10224	5076	-19824	-1468	14857	4368	-19284	-5304	18192	4065	-5246	1002	121	121	1
-10668	-5844	15196	4823	20006	9974	-21032	4920	-3640	9230	18520	5520	-19740	-5492	1284	-4419	1848	-502	17908	14252	28008	-8246	13907	-17156	-32476	-13204	30996	-7023	12943	180	-15904	256	3420	794	3968	4510	123	118	1
-9172	-4420	17056	5185	24792	12695	-24100	4848	-1892	6119	19996	5336	-22876	-4404	3380	-5989	-1286	145	-2796	-1456	17588	-19432	20699	-26098	-17196	-6960	-1200	-25834	2376	9777	-13340	-1524	3856	-11857	16116	6096	129	127	1
-8416	-5252	16608	6141	32767	19616	-26268	7592	1632	5119	21291	6201	-24324	-848	10412	-10008	-8078	1264	-11712	-16328	15244	-5012	31470	1719	-12952	-25276	-4764	-11974	14469	-2566	-11272	-4944	-520	-11393	14075	233	118	130	1
-4912	-2424	18400	7728	32767	22131	-28460	13992	6344	-4154	23305	6321	-21264	5488	23316	-4814	-28958	2200	-21880	-12632	18584	-3511	23046	-8841	-23484	-2300	-6784	-8096	15157	5750	-19928	-20348	2064	-1897	5728	-556	115	119	1
-8412	-7100	16200	8306	32767	18674	-25104	16108	12884	-15556	27449	3790	-21884	17780	6412	-18366	-15725	9101	-25600	7464	12836	2560	15795	-7869	-22540	-3792	-6004	-8274	15126	5799	-18424	3740	-4624	10805	11569	1687	115	125	1
-32768	-2812	9584	1818	32767	21931	-23376	964	-10528	-17534	32767	2713	-21456	3820	6748	-30045	-21547	8540	-7848	2832	13864	-9942	5283	-8009	-19708	10400	-5880	-11775	12223	8139	-17528	20304	-8376	7563	14356	5628	124	138	1
-32768	-8212	9616	1734	32767	24929	-32768	-240	-7220	-8688	29352	7219	-26912	-12644	-19064	-32768	-18643	5788	-17040	9072	10320	-5423	3694	-4792	-17608	296	-5732	-13282	9075	3940	-17004	7248	-8960	-11926	8712	7778	120	133	1
-31576	-14220	25124	-3388	32767	23780	-23956	1972	-8216	-4674	24061	7470	-29592	-15916	-16720	-10215	-20527	-5589	-13552	-36	13816	-4085	2558	-3796	-16048	-4324	-4440	-5396	8731	3857	-19060	-3616	-708	-10805	7332	3798	139	134	1
-32768	-6384	15184	-1986	23604	23010	-17404	2512	-11272	1405	14674	6481	-26484	-7668	-9272	13869	-25804	-3596	-11768	3860	12280	-2575	1634	-2217	-18208	-2412	-2060	5653	10528	4582	-17080	2020	-1500	-1409	9784	4156	135	124	1
-15720	-15560	19300	-3111	-22461	690	-9388	-3232	-5432	-570	4137	3900	-26068	200	-3092	11952	-26855	-4229	-11484	4280	11804	-2937	1367	-2685	-17392	344	-2584	8518	10034	4464	-16272	3200	-3320	2064	11443	4933	140	132	1
3928	-14636	16792	-2640	-26794	-1767	-10400	-400	3396	-6303	-2935	-2200	-23172	-1436	-4476	4688	-23300	-5784	-12856	2392	12636	-2222	698	-2372	-17684	776	-3376	3222	7204	2495	-15868	2672	-2356	-1664	11150	4619	130	132	1
3652	-7268	11448	-3923	-25230	-163	-7088	-196	1436	-3622	-13225	-5396	-19912	-4708	-6628	2673	-20946	-6679	-11420	3064	12212	-740	625	-1118	-17768	-2152	-2512	-706	5119	1686	-16344	364	-1424	-4845	12219	4107	126	130	1
-3120	-5428	9872	-8365	-24895	-5012	-5240	1584	-1928	-1537	-20727	-6207	-16020	-2592	-8316	6176	-18239	-6018	-11420	2600	12084	420	743	-525	-16680	-3156	-2136	-217	4352	1775	-16052	-1208	-1476	-3947	12368	4772	128	131	1
-11264	-8480	9420	-11009	-31769	-13899	-5316	2160	-5748	-3546	-25989	-6972	-12728	-1376	-8468	11022	-15417	-4449	-11148	2848	11680	1526	1171	-442	-15668	-2764	-600	2211	4556	2058	-15136	-3184	-76	-268	12918	5086	131	123	1
-12988	-8340	9260	-8976	-32768	-21058	-7712	2896	-5320	-7713	-31455	-9017	-11848	-2712	-7792	12610	-13537	-3672	-10332	4944	11648	1400	1391	-889	-16388	-2520	844	5739	5378	2652	-16328	-1628	1920	3127	13500	4664	128	129	1
-15128	-5436	9364	-8062	-32768	-27480	-11596	2584	-5064	-7910	-32768	-10545	-11528	-4644	-7864	15279	-12574	-3843	-11464	4620	10936	155	1286	-1810	-16796	-352	232	4866	5444	3031	-14856	572	1112	7662	14565	4936	126	132	1
-15972	-4872	8776	-7303	-32768	-29590	-12692	1640	-3440	-3330	-32768	-11641	-10068	-1836	-9636	23243	-12106	-3638	-11168	4232	11356	-300	1141	-2779	-16356	-364	864	2863	5528	2572	-15148	696	1248	8593	15192	6507	123	131	1
-16568	-3060	10836	-6295	-32768	-25319	-14584	4064	-5352	260	-32768	-13072	-8248	1620	-9920	24964	-11649	-2554	-11004	4104	11644	-1735	1142	-3398	-16616	-560	-24	691	6014	2233	-16544	948	760	6710	14628	6216	127	133	1
-20208	-856	14516	-9568	-32768	-23833	-18456	6844	-8936	1311	-32768	-12919	-7376	2360	-7416	17445	-9507	-2060	-11836	3456	12028	-1708	1450	-3188	-17016	-2688	-1548	3370	7433	2277	-19136	-3488	3912	2324	16443	7029	124	135	1
-25456	-1236	18092	-14744	-32768	-25621	-20816	11036	-9960	-3104	-32768	-11914	-7504	2260	-7020	15826	-8762	-1860	-11760	3548	11992	-1671	1623	-2979	-18012	-2444	-2548	7130	8757	2879	-14400	736	-108	1476	20594	7928	126	135	1
-31988	-3044	20772	-17848	-32768	-27442	-23908	11472	-12060	-13726	-32768	-13110	-8036	5484	-4180	300	-1200	-2287	-12404	2736	11492	-1786	734	-2439	-15900	-1028	-1168	8715	10890	3125	-15848	292	-1932	3164	19116	6840	125	132	1
-32768	-5056	19760	-17184	-32768	-28848	-29540	8924	-14096	-17594	-32768	-14657	-10524	4800	-2192	-2968	1528	-2322	-12360	3592	12204	-1200	1105	-2586	-16420	908	1220	5649	11562	2569	-17552	-240	1608	1698	14211	5957	123	132	1
-32768	-2412	12236	-14375	-32768	-27992	-29612	7012	-17016	-14346	-32768	-15482	-14932	-1836	4964	-6644	90	-3282	-12344	3852	11884	-947	1668	-3869	-17488	580	1776	1372	12769	1795	-19832	-564	3968	-572	9877	5876	126	131	1
-32768	6772	-360	-13804	-32074	-26819	-24592	9416	-21536	-6549	-32768	-14191	-22160	-6436	19596	2007	-9021	-6011	-11976	4816	12528	-1180	3066	-3939	-16784	32	1152	-533	15161	982	-17908	-352	5724	2400	7258	5350	125	130	1
-32768	14752	-13792	-13714	-21569	-24827	-14844	8752	-27076	-1476	-23093	-11226	-17864	-384	27880	5529	-1646	-8923	-11828	3888	14528	-3023	5928	-4249	-19680	-2780	360	-2060	17429	312	-18872	-240	3452	3333	6153	4259	118	129	1
-32768	30556	-27408	-14938	-8092	-19210	-2600	8576	-26108	-1192	-2642	-6373	-14208	1176	30460	-6675	-1648	-1553	-12476	2956	14764	-4362	10057	-6487	-19056	-1988	-2320	-7757	18047	11	-19272	2432	740	4523	5409	2227	121	128	1
-32768	18960	-23100	-2552	10683	-7270	-6844	4024	-22888	3768	14735	903	-14924	-4524	20200	675	-5489	144	-12428	5892	15384	-6631	15098	-7053	-21644	-1108	-2568	-11318	18636	-760	-19752	4192	-508	1819	2938	1296	117	126	1
-1428	-2304	7532	15580	17721	5292	-15400	6728	-16260	5816	22304	5103	-12512	-8320	6940	-1258	168	-1670	-11008	4144	16476	-7569	20223	-10858	-22448	-5140	-3140	-10879	19053	61	-20528	1192	1628	2996	438	454	137	125	1
28268	-8532	32767	5271	22070	2066	-32768	-2472	32767	1747	8184	1420	-16340	400	-4940	875	10073	-1442	-9352	1664	18048	-7671	28387	-11599	-26552	-8596	-1008	-6010	20999	492	-24936	-3284	5592	6447	-4168	-932	122	122	1
-23368	8868	5696	16076	25179	21950	6368	17564	-16700	32767	4174	-452	-22332	-68	4340	2738	2894	1398	-6732	4612	18552	-9238	32767	-12326	-25940	-13588	5728	1371	23885	2284	-22960	-10848	13000	1754	-16355	-4013	143	126	1
-8604	-8692	16820	511	26521	-1397	-20772	13040	768	8333	14749	10529	-13756	2880	12316	31405	3137	-1232	-11784	6040	19768	-10502	32767	-16198	-30120	-17484	12464	8423	26411	4617	-20944	-26296	11836	4018	-16148	-14607	127	125	1
-21816	6212	20504	-4341	19571	10310	-19788	12720	-3972	6603	16057	816	-16896	13496	5980	8537	13001	1177	-25000	3048	14952	-9274	32767	-23970	-27260	-8716	3676	9898	29085	5216	-18188	-14180	12796	12118	-18324	-15341	131	122	1
-21512	-20704	7984	-1207	13947	9341	-22132	-532	-6728	6142	17575	334	-20444	3820	-232	-8915	11079	3448	-32768	-924	6916	-3278	32767	-24283	-30192	4268	-10152	3436	31938	3155	-18896	7316	548	32767	-11321	-14552	139	127	1
-13476	-3324	12676	3371	11973	7910	-16836	2132	-4996	10819	14008	-51	-14764	-13808	-7320	-13579	11443	-2936	-32768	7384	14424	-5603	32767	-31129	-26580	4212	-6268	-7309	22358	2326	-29356	8968	-15172	32767	-8186	-5904	129	132	1
-28704	-27632	7140	6902	9576	5731	-18560	-5968	-10864	1749	14706	-115	-15360	-7068	-3552	-5988	6895	-4609	-23120	13460	27868	3544	32767	-27042	-21100	2244	-3624	-12870	16974	191	-32768	4368	-17884	10747	-22709	7469	128	138	1
-15016	692	14496	8357	2006	9334	-15392	5772	-7740	4574	9686	502	-16668	-9964	-5972	-5257	9260	-2702	-32768	4244	15776	-1378	20096	-19622	-14336	2880	-10928	-9254	9695	-448	-28480	4872	-6880	-105	-32768	1227	130	133	1
-12868	-3220	13384	5732	2164	5182	-18708	6564	-5616	-2032	9774	626	-17664	-4464	-3856	1811	13840	-2454	-19152	13340	20032	1850	-26327	-77	-8844	4456	-3860	1193	2620	-3395	-27460	-2140	92	-934	-32768	-955	131	126	1
-12292	-3024	13328	2586	1621	2449	-17268	6988	-4040	-2252	8341	521	-14864	-1656	-2352	3563	14832	391	-3024	13312	14708	1854	-32768	6639	-9500	-440	1544	3308	-6837	-1859	-24432	-332	-6452	4787	-22888	1778	127	122	1
-10960	-4572	12068	464	1247	497	-16888	3844	-2512	-1350	7256	-320	-16312	-1268	-812	3508	15013	1516	2296	9036	10144	2943	-32768	6803	-5720	-172	620	3156	-14514	-3099	-18680	1160	-8668	4924	-18503	2154	124	122	1
-10100	-5220	11264	432	925	50	-16752	2000	-1228	2895	5187	-752	-15524	-2064	96	4355	14967	227	-4336	5744	8292	5917	-32055	7783	-5452	1628	-2284	4393	-21006	-4156	-15368	1552	-8944	787	-17613	2355	116	120	1
-9180	-5712	10884	435	942	274	-16000	1996	-720	4907	3993	-454	-15264	-1312	420	2454	15406	-1530	-9020	4444	8344	10919	-32768	10236	-6724	1512	-3264	5505	-26491	-4390	-12380	1128	-8920	-4277	-17218	1505	124	122	1
-8208	-6360	10580	851	1113	1474	-15404	1972	-436	2216	4455	-522	-14768	-2252	172	-1256	16340	-2215	-11200	5292	8444	13873	-32768	13639	-8476	224	-3552	8712	-31146	-5324	-10804	2952	-8196	-6063	-15761	1510	127	125	1
-9484	-5992	10828	1495	683	3382	-15880	2016	-1644	-3342	6472	-912	-14956	-2596	1796	-3249	16228	-2167	-14432	3820	9260	14669	-32768	17305	-9268	-648	-5252	10119	-32768	-5212	-8872	3424	-8960	-9499	-12981	1216	127	125	1
-10920	-3768	11720	1852	550	2937	-16404	3412	-2196	-2134	6158	-319	-15764	-1420	632	-3195	17627	-2052	-14676	1156	9636	16719	-32768	22521	-12088	-1576	-4844	9841	-32768	-6114	-8268	4176	-10180	-16423	-11591	438	127	123	1
-10548	-3416	11932	1131	323	1786	-15752	5012	-1768	-746	7162	-38	-15400	108	-144	-4153	19034	-1066	-15384	844	12136	19151	-32768	24572	-15084	-1672	-4916	7456	-32768	-6140	-6840	3820	-10480	-21294	-11586	-318	126	124	1
-10064	-4728	11520	775	436	1242	-16400	2632	-836	-785	8084	-152	-15676	-1172	824	-4008	19329	-1039	-22488	708	14504	21749	-32768	24804	-19252	-640	-9808	5859	-32768	-5654	-6244	2704	-9848	-19093	-10331	-187	129	124	1
-10944	-4776	11220	889	600	1567	-16136	876	-1716	658	7815	156	-16876	-4280	1288	-1288	18106	-2628	-25924	-1736	16056	24852	-32768	24331	-22076	-3896	-10832	9760	-32768	-6759	-8456	-1584	-6776	-12896	-8686	-1423	124	124	1
-10808	-4332	11496	847	685	1739	-16068	2384	-1716	357	7934	970	-16696	-4100	-164	-1354	14615	-2688	-32768	3104	19300	23336	-31107	23083	-28592	-4808	-16600	11767	-32768	-5256	-10804	-6856	-2300	-11235	-9595	-2863	122	125	1
-10548	-4756	11472	758	954	2341	-16080	1216	-944	-831	9473	1153	-16188	-464	3704	-2971	13592	-2610	-32768	-6400	17080	19019	-32768	28455	-28360	-3084	-17248	17403	-32768	-5337	-11260	-4368	4620	2354	-4544	150	122	127	1
-10668	-5384	12036	314	1690	3189	-16888	-372	1668	691	11336	2154	-18468	-468	6608	-5161	12245	-3673	-32768	-7012	8584	14549	-32768	29249	-27072	1176	-17992	15896	-32768	-2736	-15708	-1120	6004	11398	1376	6070	125	128	1
-10128	-6792	11776	1965	3814	4613	-17072	-3160	1916	4781	13492	3436	-18712	-788	6820	-5675	11794	-3780	-32768	-13268	-3380	8242	-28268	25644	-24604	-304	-18980	6811	-32768	-958	-17120	-3016	13556	-4529	859	4402	123	125	1
-10744	-5656	13812	2998	5640	7955	-19192	2104	-1156	5687	15283	4331	-19976	-2828	4288	-9673	7235	-3781	-32768	-21144	-16824	4161	-17416	22507	-14656	3180	-22452	-1678	-21305	2574	-18516	-5524	25884	-6755	-991	2349	124	122	1
-11444	-4348	14732	3073	10129	8582	-19924	6728	-2176	4301	17546	4977	-18832	-5052	1744	-8147	5440	-3689	-32768	-32768	-22968	7106	-3288	19098	-7220	604	-22468	-4765	-4043	3252	-15720	-13852	28512	-6633	-2609	103	124	112	1
-11556	-3608	15340	3627	14725	8855	-18312	5024	-2420	6166	19117	4917	-18228	-4580	2000	-3786	3430	-1712	-32012	-22576	-18320	-2250	8057	11772	-9308	3608	-19448	-8786	11569	2648	-16336	-5284	19280	405	-3525	1729	122	124	1
-10296	-4736	15512	4567	18155	10176	-20120	4780	-2988	9193	19979	5263	-20036	-4436	1808	-2391	246	-691	-23040	-12648	14616	-12904	9314	-11994	-22428	-3228	3456	-16434	15985	1280	-13552	2148	6656	-1423	2585	5195	130	121	1
-8184	-4916	16896	4710	22492	12676	-23828	6204	-2212	7108	20981	4806	-21840	-3240	3684	-6357	-4062	426	9108	32767	32767	-7701	13779	-20648	-32768	-13104	19952	-22446	1383	6577	-22256	-4968	5776	-12421	7149	5242	119	124	1
-8024	-5204	17928	5451	32767	17993	-28628	8812	640	2733	22110	5120	-25724	-892	11880	-8563	-9641	950	-20508	-30652	4736	-14456	21750	-11950	-3088	-19716	-15264	-25340	9422	1832	-9460	-5152	3696	-15609	15584	1660	118	134	1
-4332	-4032	18020	7449	32767	21033	-29120	15084	6184	-5028	22642	4679	-21456	10388	18612	-792	-17552	3489	-19096	1088	19764	-4794	23648	-3719	-29076	-8712	-5064	-7374	15784	4265	-21788	-20556	-5008	-11981	8989	555	123	125	1
-10784	-6916	17792	10199	32767	18305	-27628	12868	13748	-12498	26062	3346	-22460	16308	9216	-16407	-15844	9219	-26788	4388	16260	-447	18207	-9700	-22500	-3084	-6696	-6375	16115	7749	-16952	-6012	-312	5637	8034	526	118	143	1
-32768	-3212	11108	1511	32767	20836	-24392	1772	-13180	-13393	32373	2622	-20972	5260	4824	-31175	-22926	8570	-25716	5664	14320	-574	17443	-8882	-19040	4592	-3732	-6608	14952	7680	-16960	-1500	-2512	8424	9122	1004	118	127	1
-32768	-7592	12452	1424	32767	23006	-31544	908	-7628	-6347	28610	5279	-25324	-11404	-14600	-32768	-19106	4475	-14720	5596	11408	-8055	5339	-6278	-19796	8804	-6960	-13993	9870	6120	-17432	14152	-8984	-4306	8735	7287	118	132	1
-29756	-11028	23896	-4462	32767	22376	-23408	256	-2180	-10152	24072	5663	-27624	-15636	-16340	-12950	-21278	-4022	-15188	2384	12096	-6173	3298	-4714	-17688	-3504	-6200	-11829	7479	3932	-17152	2540	-6324	-9519	8858	7358	132	135	1
-30860	-5288	17016	-8192	29225	22526	-16228	996	-14728	1319	15585	4359	-27188	-9568	-8716	9220	-25864	-3827	-12852	2584	12940	-4385	2438	-3340	-16440	-3468	-4064	580	8758	4287	-16940	1504	-5896	-8884	8705	6916	137	121	1
-21240	-19592	21784	-11833	-23114	1198	-9748	-3236	-6856	-5595	5127	4218	-25792	-2524	-3024	14525	-26882	-3067	-12316	3008	12648	-2471	1249	-2768	-18248	-2176	-4048	9045	9351	4442	-13584	2516	-4304	67	10940	5407	135	130	1
2052	-17020	14704	-9735	-32768	-4885	-9860	-32	3400	-10955	-2457	-1863	-22432	-3072	-4260	7347	-23573	-5074	-11968	2900	12848	-1691	527	-2111	-17520	-1240	-2560	8589	8253	4021	-16744	-484	-2700	-1735	11350	4524	132	128	1
3512	-10880	9872	-5562	-32100	-7051	-6764	-816	1736	-7899	-11436	-5051	-20012	-4308	-6512	3917	-20771	-6641	-11472	2932	12720	-407	370	-1443	-16948	-1940	-1760	4470	6259	3118	-15016	-2716	-264	-2486	11246	4001	123	129	1
-2372	-8616	8452	-3308	-30662	-9954	-5828	-1404	-1560	-2714	-20037	-6240	-16700	-2896	-8068	7272	-17712	-6098	-11172	3148	12028	716	439	-800	-16952	-1960	-532	975	4984	3037	-15276	-1376	272	-434	11494	4037	128	128	1
-6260	-7544	8792	-3583	-32768	-14900	-6588	324	-3664	882	-27920	-7080	-12948	-1336	-8076	11359	-15707	-5204	-10440	5068	11116	554	256	-1956	-16588	-156	1076	-685	4326	2808	-15720	1176	460	1689	12301	5569	133	134	1
-8708	-6804	9912	-4656	-32768	-20089	-8684	2912	-5352	-1735	-32768	-7762	-11924	-3384	-6860	12463	-14282	-4703	-10284	5948	10980	-576	96	-3874	-15776	-1116	852	84	4195	2923	-15708	1280	688	2835	14038	6068	127	132	1
-13340	-4924	10688	-6677	-32768	-24599	-10836	3108	-5720	-4837	-32768	-8191	-11328	-4560	-8856	15883	-11702	-4404	-11116	3860	11628	-1194	240	-4737	-16492	-2044	128	4020	5569	3182	-15100	-292	2696	3727	12882	5604	119	131	1
-17668	-4428	9824	-9338	-32768	-25522	-10816	3168	-5876	-4007	-32768	-10811	-10140	-776	-10760	22965	-11141	-3803	-10984	3560	11956	-1773	1091	-4111	-16544	-1764	-1472	3732	6536	3058	-16472	-932	2112	6005	13316	5954	124	133	1
-17632	-4076	10508	-11310	-32768	-24169	-13396	5520	-5576	-7083	-32768	-12953	-7620	3080	-9928	23587	-11154	-1541	-11244	2920	12752	-781	2035	-2510	-17448	-3776	-1044	4923	7581	2965	-16104	-1968	340	8302	15431	6203	122	131	1
-18724	-6536	12548	-11058	-32768	-24872	-14500	5612	-5792	-7422	-32768	-13248	-7004	3000	-9260	15207	-8017	-1378	-11872	3316	12144	-482	2940	-2276	-17148	-1344	-1968	3763	7902	2861	-16504	-504	236	6525	18358	6435	126	132	1
-24800	-5496	18064	-11412	-32768	-28543	-21628	8992	-9748	-5188	-32768	-14125	-8372	3068	-6340	6270	-3940	-1404	-12176	2740	11860	58	2806	-2259	-17120	-1492	-2436	5145	8799	2830	-15872	1412	-1376	2434	19439	6983	128	132	1
-32768	-3496	22000	-16190	-32768	-32283	-26940	11500	-12964	-9804	-32768	-14615	-8340	4052	-4152	444	-528	-2254	-11888	2884	11960	241	2670	-2315	-16620	-1144	-1280	8138	10720	3075	-16324	728	-720	1541	16623	7294	127	131	1
-32768	-3348	19772	-19053	-32768	-31698	-29104	8836	-17228	-14714	-32768	-15859	-10008	4220	-1800	-501	861	-3596	-12180	3500	11508	114	2858	-2300	-16336	-1200	968	6814	11702	2942	-17304	-412	3644	2285	14237	6344	126	133	1
-32768	-1688	11056	-16256	-32768	-28712	-28372	8720	-18536	-12553	-32768	-14879	-14168	-2512	4576	-6007	2181	-5241	-12264	4232	11580	-660	3108	-3453	-16776	1164	2340	3413	13650	2496	-18628	-1060	6232	1649	11426	5670	128	132	1
-32768	5776	-1724	-10941	-32296	-24723	-23952	11712	-21444	-10733	-31432	-13358	-23028	-3944	21292	955	-5681	-7638	-12568	3940	12416	-1293	4416	-4042	-18260	264	156	972	15804	1474	-18276	-1252	4480	1737	9458	5493	124	130	1
-32768	17508	-17128	-10950	-21115	-19462	-12972	9288	-26784	-5533	-19453	-12138	-19588	-572	32484	2311	-650	-8721	-10412	2224	14836	-2503	6594	-3667	-19176	-4648	-1976	104	17978	995	-18344	-612	1400	5077	9104	4488	117	128	1
-32768	32767	-29576	-16387	-4242	-13335	-828	5968	-24992	-278	1622	-5544	-14700	4008	32400	-7803	-2783	-414	-12492	2956	14084	-4347	10072	-3448	-18436	-1904	-2000	-5234	18954	455	-19544	2520	-148	6338	6514	2205	119	127	1
-32768	12772	-20556	2016	12924	-1427	-7204	4020	-21968	8256	16228	2200	-14568	-4504	19956	-1026	-5763	34	-12116	5232	14524	-6066	14289	-5367	-21300	-884	-1600	-10881	18854	-199	-19808	4312	432	2934	2923	232	115	124	1
13640	-6844	32767	27509	-188	-1792	-24996	7316	29092	-11186	21204	7746	-11384	-9068	-908	-1361	3997	-1717	-10100	5588	16220	-7843	20494	-7379	-23124	-3268	-3088	-10453	19150	307	-22076	2520	2520	2801	127	-338	123	124	1
32767	-16052	13248	7644	18754	7784	-32768	-3516	31872	19805	3570	-5840	-18540	324	-4168	-1255	12853	-398	-8896	4408	17300	-6360	30376	-11273	-26800	-8760	-492	-5103	21125	884	-25572	-2836	7224	5868	-5018	-1018	140	123	1
-30004	26460	15880	12346	21655	19461	6748	27096	-16800	28131	7082	2150	-16492	-180	5652	11758	-3582	1387	-8400	4420	19388	-5960	32767	-13391	-28924	-15776	10088	4925	25078	2565	-20920	-15048	14700	1381	-16903	-6786	124	126	1
-11800	-3488	17512	1458	26323	6631	-27096	10120	-1984	3476	17128	6694	-20468	5432	13496	19108	7705	208	-11800	11832	19776	-10336	32767	-21414	-30736	-13724	15436	10288	27876	4935	-20664	-24884	15512	4858	-17107	-13770	125	127	1
-20460	-2376	15868	-5241	18892	12683	-20464	7408	-3940	2102	17822	3146	-18560	10444	2456	-178	11665	2487	-32768	5132	12108	-8932	32767	-29246	-27804	-2004	-5128	5538	29448	5368	-17556	-8692	13256	14327	-18045	-14667	131	127	1
-20376	-18548	10576	1577	12348	7359	-22132	168	-7020	5594	17570	888	-19696	-3940	-3612	-12692	10342	1774	-32768	3188	5864	-6383	32767	-29116	-30440	3664	-9856	-687	30275	3606	-23492	7000	-4316	32767	-8810	-13151	136	128	1
-10808	-6308	15536	3696	9530	5523	-16696	2536	-5344	7395	13844	1842	-13396	-12744	-8952	-9600	10402	-4317	-32768	5012	17216	-2143	32767	-29862	-23104	1236	-8196	-7442	20298	4789	-32272	6208	-18260	32220	-14347	-3114	123	132	1
-11556	-3048	12488	9480	6022	7316	-16136	716	-6632	6910	10903	195	-14516	-9620	-8420	-5997	9677	-2717	-23500	11000	28096	9033	30872	-19654	-20152	1540	-7832	-6094	18340	664	-32768	5796	-16840	8695	-26718	5708	135	139	1
-14640	-6092	12072	7366	3008	6516	-16952	4556	-6892	2041	9254	562	-15680	-6124	-4168	3483	12677	-2617	-32768	10812	20240	6265	3337	-12660	-12784	332	-8420	-1131	9793	-302	-28080	2512	-2172	-1288	-32768	1190	138	135	1
-12608	-3364	13452	3956	1608	4054	-17652	7172	-4640	-846	8007	674	-17252	-2520	-3496	4917	15081	-708	-11976	12004	18424	4972	-32394	526	-7556	3924	-1036	5246	1191	-2363	-26560	-448	-1836	1249	-29333	1092	136	128	1
-11288	-4236	12632	1591	1652	1480	-17604	5464	-3764	-2047	7215	34	-16112	-1416	-1820	3358	13743	1122	716	11756	12936	4300	-32768	4731	-7724	468	1804	3950	-8411	-1974	-23160	1772	-7252	5093	-19762	3167	123	124	1
-10288	-4600	11980	-519	1174	-372	-16444	4184	-2336	-1817	6026	-347	-16112	-680	-764	4050	15707	167	556	8048	9248	5239	-32768	6152	-6128	828	-544	3703	-16292	-3668	-18804	3448	-8296	2303	-18585	4104	117	123	1
-9888	-5248	11160	-1147	1005	-729	-16812	2368	-1756	746	4233	-698	-15932	-720	-916	3966	16143	-56	-5320	6560	7868	6887	-32633	8579	-6308	3000	-2564	3380	-22443	-5351	-15300	3596	-8708	-3399	-18502	4006	122	120	1
-9128	-5804	10816	-1057	969	-429	-16728	2348	-1560	987	4027	-636	-14552	-1856	-864	-1383	16582	-2076	-9856	6744	7640	10188	-32768	12097	-6844	2724	-3280	3876	-28169	-6258	-12924	3116	-9276	-8678	-18085	2714	129	117	1
-9124	-5984	10632	-630	1005	150	-15644	2028	-348	-3874	4866	-251	-15348	-1664	1824	-3566	16806	-2002	-13364	6668	7840	11471	-32768	15097	-8236	1700	-4164	6277	-32768	-6015	-10920	2280	-8960	-10767	-16068	2431	127	118	1
-9644	-5912	10624	292	1008	740	-15880	1896	-416	-6814	6449	-189	-14916	-1240	3752	-6329	17213	-1641	-14116	4072	8140	14086	-32768	18321	-9916	120	-3896	8586	-32768	-6102	-9252	2900	-9728	-13999	-13709	1641	127	122	1
-9600	-6268	10832	1114	1194	1289	-16760	652	304	-3628	6242	171	-15336	-2752	3004	-7706	18744	-1842	-12824	3044	7736	18750	-32768	22213	-12332	-1092	-2560	7590	-32768	-5907	-6876	3432	-10768	-19442	-12829	784	125	122	1
-9988	-5604	10916	1384	1330	1633	-16044	2376	-772	-819	6000	831	-16096	-2772	1696	-4758	18200	-2665	-15732	4264	9224	21661	-32768	24089	-16844	-1012	-6632	4114	-32768	-3491	-5124	3248	-11376	-23720	-12130	-185	125	125	1
-10484	-5208	11128	1215	1338	1711	-16160	3180	-1852	-1804	7199	817	-15432	-1592	-156	-2357	17485	-3118	-24300	5356	12948	19077	-30502	25686	-19720	1068	-10988	3197	-32768	-5006	-7004	-924	-7512	-21346	-11440	-1486	127	124	1
-10144	-4912	11472	951	1365	1681	-15780	2404	-1868	-2071	8841	805	-15696	-1708	60	-3202	16557	-2401	-32768	4092	19944	17268	-28229	29780	-26748	-3496	-13736	3368	-32768	-4687	-9484	-6724	-4752	-11271	-9392	-2600	124	125	1
-10832	-5264	11328	696	1591	1417	-15632	2084	-272	-2301	10473	1641	-17964	-3600	1140	-3871	14290	-1818	-32768	-1400	21328	15879	-32768	32767	-27288	-3840	-17788	8024	-32768	-5587	-11788	-5652	1080	-6220	-9839	-2047	121	126	1
-10492	-5856	11380	451	2003	1602	-16268	40	688	481	11718	2232	-18040	-3480	3892	-2272	11370	-3177	-32768	-9476	15452	17589	-32768	32767	-26012	-1804	-17020	16727	-32768	-5591	-10568	476	2504	2624	79	6374	122	127	1
-10400	-5444	11956	-190	2824	1871	-17560	1136	852	2371	13011	3578	-18560	-2468	5884	-1512	11232	-3294	-32768	-7328	6972	12321	-32768	29940	-28172	2984	-17768	9540	-32768	-3886	-13780	396	4000	8145	5205	10027	122	127	1
-10600	-7608	11524	-709	3684	3397	-17676	-1432	176	4018	15166	3862	-17888	-2668	4824	-4261	10478	-2570	-32768	-16960	-7236	8842	-28014	20952	-22764	-892	-21164	5976	-31616	18	-19736	-8180	13988	-704	-881	5054	122	124	1
-9240	-5040	15000	136	7339	5918	-18660	3904	-944	4450	16227	4989	-19664	-2896	3940	-4074	7202	-3324	-32768	-28236	-19656	12552	-13717	14046	-12844	1656	-26232	6018	-18315	5043	-18540	-9280	28588	-3800	-588	3874	123	115	1
-11320	-4736	13908	91	10696	6481	-18460	4996	-1348	7260	17750	5821	-18576	-4528	992	-5842	3167	-1994	-32768	-32768	-24152	16460	-2000	7636	-5532	3692	-24092	6060	1133	6254	-13244	-10640	27584	2583	-952	2318	122	116	1
-11044	-4068	15516	188	16922	6565	-19212	6196	-3448	10085	19120	6346	-19304	-5052	1084	-5296	1732	136	-32768	-23740	-17760	-204	7899	-2140	-9056	4484	-22600	-1731	16058	4450	-14964	164	17256	3982	-2848	3392	123	128	1
-8676	-4148	15332	-321	24098	7322	-21596	8332	-3824	7560	19942	6322	-19948	-2064	484	-6132	402	1099	32767	2752	32767	-7803	6178	-22469	-32768	-21612	32767	-5252	11570	-2465	-14788	1576	-3748	1203	10542	6988	127	122	1
-7764	-5716	16176	-371	31536	9366	-24552	7472	-1296	2682	21390	6142	-23404	-568	5272	-7987	-3540	2090	3496	-48	-2476	-22105	18606	-32768	-11712	-5308	-7772	-24692	704	10979	-31764	-7512	5272	-653	11636	2373	126	121	1
-7788	-7320	16044	243	32767	12394	-28812	8896	4940	683	21465	6770	-24988	1780	20968	-6049	-19256	2989	-20732	-17656	21648	-895	32369	3494	-13864	-27272	-2416	-12228	14392	-5252	-12912	-12380	10824	-27070	3342	-7154	121	131	1
-7468	-13788	15496	210	32767	17253	-29468	10436	13576	-7324	24923	6291	-22144	13120	20876	-4383	-18701	5635	-15480	-20700	19800	1990	18440	-14249	-25264	-5864	-4636	-2440	17855	5919	-20256	-25396	-648	-8743	9250	-1257	121	128	1
-26616	-7096	12768	-3324	32767	24634	-26604	4920	1740	-11288	29790	4578	-21664	9044	14560	-15612	-20154	8616	-25248	24312	9492	706	16623	-5999	-21348	3580	-3592	-2727	17702	7478	-14920	8600	-5280	23066	15761	-1568	121	121	1
-32768	-9288	7160	-2740	32767	27139	-32768	96	-14516	-3709	31738	7088	-24464	-8132	-9084	-32768	-19412	8155	-12108	-4328	15004	-9417	6567	-8210	-18248	9436	-6016	-11852	13840	6289	-17340	28644	-9612	10472	11550	7552	120	135	1
-32768	-13448	20464	-5924	32767	25911	-27612	4048	-5900	1875	24727	9385	-28732	-15120	-18904	-27296	-20541	-576	-15088	8448	10176	-7284	3848	-6161	-17056	2828	-4988	-11327	10549	3000	-17448	7688	-7564	-12284	8772	7207	125	139	1
-15196	-21040	27716	-8770	29112	21672	-22744	-340	-5396	2582	20750	10481	-27476	-14320	-12424	7152	-25350	-4895	-15764	960	12672	-5530	1568	-6049	-16956	-2548	-5300	-4315	9701	2142	-21108	-1016	-1020	-10616	7390	3724	141	136	1
-32768	-16768	25284	-930	6403	18630	-11916	2808	-10860	6372	8719	7646	-26552	-7160	-5932	13208	-26491	-3514	-12404	1832	12668	-3390	958	-4021	-17420	-3480	-4624	-2617	9936	2123	-15888	-424	-3124	-6061	12135	4278	136	132	1
-7424	-14516	21828	1093	-32768	419	-8836	-2536	1424	-2583	-152	6729	-24556	-2204	-2592	11915	-24395	-4997	-12220	2048	12480	-1976	627	-3009	-17056	-1100	-3560	6203	9241	2667	-16088	-124	-4080	-2959	11627	3377	135	125	1
5512	-11892	14448	-1046	-32768	-2121	-9272	-1976	3196	-5076	-7968	64	-21940	-3988	-5516	6951	-21704	-6933	-12064	2072	12740	-506	251	-1382	-17812	-1312	-2588	1618	7247	1634	-16776	-536	-1036	-4454	11119	1771	130	128	1
2776	-10528	10012	-1350	-32768	-2050	-6796	-984	572	-4133	-17329	-2224	-17960	-3268	-7208	7830	-19220	-6607	-11180	3536	11628	-178	457	-679	-16556	-2152	-1772	-1877	5561	1419	-14956	-1700	-1508	-3755	12176	4338	130	130	1
-3356	-9120	9152	-1890	-32768	-5201	-6348	-1084	-2520	-2186	-24652	-3865	-15292	-2784	-7412	11417	-16977	-6009	-11452	3644	11428	-13	484	-534	-16120	-1964	332	597	6054	1838	-14588	-1464	1380	-658	10876	5338	140	123	1
-9660	-10380	9384	-3153	-32768	-12322	-8800	1620	-6196	-4123	-31996	-4127	-14296	-3584	-6452	14244	-15028	-4870	-10276	6356	10612	-401	616	-2164	-16176	376	2560	1556	6500	1951	-16516	364	3048	2637	11924	5025	123	128	1
-11704	-10020	8516	-3390	-32768	-18324	-11640	1552	-4740	-7355	-32768	-5254	-13116	-4432	-8132	18227	-12709	-4406	-9728	6168	11112	-1790	1022	-4463	-16540	-856	768	3514	6853	2198	-14716	1788	1332	4435	14594	5721	119	130	1
-13540	-8256	6916	-4701	-32768	-21290	-10324	3220	-4152	-6911	-32768	-8008	-10676	-1148	-10088	23775	-11968	-3575	-10772	4068	12232	-2398	545	-6017	-17032	-1160	-588	3063	6690	2239	-13824	284	-832	5304	16358	5836	119	133	1
-15700	-7980	8596	-6722	-32768	-22176	-12268	3868	-5160	-9875	-32768	-10977	-7132	3804	-9580	24608	-12263	-890	-11980	2156	12048	-2641	485	-5432	-16668	-1352	-2372	-243	6029	1918	-15720	-1456	-496	6193	16292	5333	125	133	1
-19520	-8936	11400	-7150	-32768	-24189	-15676	3808	-7328	-8517	-32768	-13905	-5356	4708	-8996	17595	-10771	975	-11132	3128	12060	-2638	866	-3607	-16988	-3168	-1036	-876	6498	1313	-17484	-320	-492	5320	18442	6234	128	132	1
-21008	-4196	16364	-10034	-32768	-28061	-20748	7448	-10356	-5483	-32768	-14808	-6424	2208	-5236	9594	-7888	937	-12132	2164	12108	-2185	1314	-3632	-16504	-2720	-1456	3723	8345	2127	-16316	-924	896	1320	19574	6956	128	134	1
-26004	1940	19004	-21853	-32768	-29412	-24956	14176	-10108	-10690	-32768	-13592	-8188	1148	-4416	3040	-5595	-1205	-12656	2704	11872	-2285	717	-3929	-17252	-544	-780	7483	10662	3147	-15464	-1456	2236	2248	19167	8716	128	134	1
-32768	-8368	17152	-23561	-32768	-23375	-26336	6580	-16224	-19604	-32768	-17208	-12060	4496	572	1322	-4229	-3604	-12324	3436	12124	-3585	1	-3777	-16028	988	1744	4540	12348	2595	-16108	-1120	3744	1167	15145	7969	128	134	1
-32768	-4532	9316	-11360	-32768	-17139	-27444	8124	-19436	-12447	-32768	-16695	-14368	1164	7848	-3152	-6203	-4435	-11596	4156	12616	-3435	1391	-3715	-17340	688	1960	-60	14040	1628	-19528	672	4584	-279	10186	5975	130	133	1
-32768	3444	2012	-5706	-28907	-16555	-22428	10220	-21976	-4639	-32768	-13765	-16056	-3316	10860	-8202	-4322	-5103	-12736	4324	13304	-3956	3082	-4712	-18424	-740	-476	-1310	16322	1457	-19372	864	3144	511	8445	5499	131	131	1
-32768	11664	-6612	-5057	-23805	-22642	-16616	9628	-26496	-2885	-23344	-9517	-16028	-1824	17268	-2895	-4884	-5581	-10852	1152	16336	-4314	6857	-6957	-20904	-5052	-1628	-1217	18538	660	-20476	-1104	2304	4204	7756	5330	127	130	1
-32768	13600	-16560	-1265	-16314	-22219	-12680	8700	-23096	3669	-12711	-6597	-14280	-3592	17976	-3137	1098	-3788	-11564	1760	16192	-6207	11774	-7307	-20336	-3768	-1596	-4371	19825	596	-20576	-1120	2232	7201	6162	2705	122	128	1
-32768	19472	-20796	7082	-1699	-12550	-9204	7380	-21952	8155	-73	-3160	-13072	-3344	17328	-2062	1446	-2128	-10192	2644	16964	-7965	16875	-9120	-21656	-3908	-868	-8334	20671	219	-21324	456	4100	5436	2646	336	127	125	1
-32768	22204	-21248	16931	18763	2635	-10876	6296	-15564	10593	12154	1551	-16088	-7108	15280	2830	1130	-1542	-10576	3736	17252	-10809	22718	-10884	-23424	-4716	-4	-8939	22237	791	-21564	2132	7892	4776	-2147	-901	117	125	1
2096	11060	32767	7030	25236	17133	-32768	16200	18800	21645	6134	1394	-27432	-572	14644	6137	5260	-1934	-8984	5412	19048	-12411	31959	-14792	-29660	-6760	3224	-7307	23894	608	-25828	-628	13588	2921	-10386	-2445	122	125	1
-9152	8980	11620	-419	29770	9020	-2140	25868	-1524	13493	15526	6821	-14896	8228	16892	15519	4307	278	-5360	6892	21464	-14028	32767	-20189	-32768	-18036	11884	906	26051	3160	-22172	-15716	9488	1108	-16584	-10001	121	125	1
-26052	-2132	16232	-7548	24096	11359	-21440	10160	-3780	-3484	23640	1607	-13496	15692	3664	13370	13416	7839	-14748	4956	18916	-15455	32767	-23698	-29184	-18436	13488	15347	29809	6014	-23448	-19776	8996	4402	-18833	-16811	133	130	1
-22044	-25908	8040	-1756	18373	10341	-25988	-8852	-5708	-1571	23478	-1361	-18756	-2700	12	-17133	9503	4512	-32768	-7120	7136	-6836	32767	-26821	-27224	4896	-11396	12804	32767	6133	-16988	-1148	3620	23598	-15114	-13967	125	131	1
-17544	-2540	7476	13382	5730	12651	-21076	-8804	-11192	18261	14370	93	-14320	-18504	-6816	-23420	6023	-5504	-32768	9080	11320	-10711	32767	-32548	-29908	7852	-9572	-1866	27448	2964	-26380	9432	-10008	32767	-10280	-9479	136	129	1
-15108	-552	13992	13239	4912	12157	-14672	6144	-6844	15266	10766	2041	-14620	-11188	-10980	-8096	8394	-8715	-30244	12320	28712	-3628	32767	-31006	-22240	2696	-2600	-12629	17801	569	-32768	3428	-17724	18830	-18002	5971	132	134	1
-13588	-2068	13364	5362	-88	6978	-14316	6880	-8156	2403	11431	1960	-16688	-6912	-5736	2983	10006	-4409	-32088	3360	14284	-9998	20219	-19549	-15104	1300	-12508	-11007	10310	737	-30784	6452	-11708	3722	-32768	2753	132	142	1
-11128	-2432	12836	3034	-208	3348	-18496	9080	-5844	-6756	12791	1422	-17680	-4900	-1212	7696	13371	-855	-20660	11572	22612	-1162	-22682	5509	-9760	1264	-3580	-21	3435	-3408	-26428	272	-752	-944	-32768	-608	134	128	1
-10724	-3128	12208	2093	154	1635	-16792	5756	-4316	-7890	11600	-92	-16008	460	-1452	9659	14737	-741	-3944	12216	16812	993	-31474	13729	-10492	424	1292	1365	-6211	-2221	-25964	52	-5128	3226	-25393	1433	134	127	1
-10524	-3684	12080	1190	354	722	-17868	2796	-3800	-2320	8437	-708	-16636	-48	-2128	5309	15403	-62	1112	8744	12800	1774	-32768	13625	-6924	880	404	1209	-15038	-3025	-20700	476	-8328	4680	-20230	2219	126	122	1
-10072	-3808	11948	592	498	154	-17008	2640	-3392	8348	3208	-748	-16300	508	-1488	4113	15874	-889	-3316	5248	10644	4023	-32563	12534	-6120	1700	-1600	677	-22442	-4926	-17216	1644	-9440	852	-19107	2318	120	121	1
-9764	-4068	11716	199	294	-451	-16060	6356	-2780	9990	1305	-929	-16264	780	-1520	1910	16660	-1446	-7604	2828	10092	10227	-32768	12998	-6912	988	-3184	2134	-28664	-5980	-13952	3572	-9936	-4154	-18384	2327	121	120	1
-9836	-4544	11512	-29	755	-516	-15472	4820	-1768	1769	4335	-1693	-15624	524	952	-3144	15965	-1261	-11736	3372	9656	14669	-32768	14552	-7560	96	-4156	6257	-32768	-6951	-10888	4080	-9296	-7976	-16544	1389	122	122	1
-9560	-5280	11312	-367	1037	-342	-14804	2392	-1300	-5584	7943	-1871	-15356	-1844	2200	-9770	15212	-287	-12992	2988	9552	17294	-32768	17287	-9768	-476	-3876	9293	-32768	-7558	-8300	3532	-9492	-11182	-13339	904	128	120	1
-10052	-4888	11408	-380	1120	49	-17212	1032	-2472	-6846	8520	-1009	-15016	-5308	20	-11611	18380	-592	-14244	3612	10208	18634	-32768	20693	-12392	-276	-4508	8266	-32768	-8126	-7324	4312	-10788	-17275	-11133	666	129	125	1
-10264	-3840	11752	-434	907	148	-16680	3444	-2336	-2726	6186	-512	-15212	-3044	-1136	-7081	20974	-1779	-17268	2156	12008	20466	-32768	24196	-16236	-1484	-6688	5376	-32768	-7696	-5868	4916	-11680	-23141	-10750	-640	124	124	1
-9928	-4088	11672	-724	1001	-67	-16380	2916	-2112	-1629	5436	-167	-15660	-2476	-412	-2061	21177	-1217	-24132	1696	13748	23022	-32768	25247	-18500	-1600	-9936	9510	-32768	-7436	-5844	1892	-9716	-23194	-11049	-1436	123	123	1
-9836	-4784	11772	-1014	1403	219	-16220	3240	-1736	-2505	5455	-136	-15960	-1364	2096	-179	20945	-1014	-31448	1436	17648	24628	-32768	25642	-25784	-848	-12504	10815	-32768	-5514	-6992	-3908	-7420	-15528	-10426	-3829	124	122	1
-10128	-4792	11312	-914	1616	709	-16492	1896	-1964	-2981	6371	-303	-15848	-3420	2676	1326	20768	-2451	-32768	-48	19776	21754	-32768	27484	-27956	-2808	-17656	10665	-32768	-5911	-10548	-7780	-68	-9967	-12541	-5086	119	123	1
-10480	-4632	11284	-532	1583	1225	-15584	276	292	-3344	8004	600	-17200	-3164	5156	1890	17465	-4700	-32768	-9612	14068	21927	-32768	32767	-26132	-4180	-17608	18212	-32768	-5235	-10028	-2916	5092	2197	-5075	1286	121	126	1
-10040	-6072	10856	320	1597	2052	-14956	-2976	3084	1454	10556	1805	-19876	-3964	7288	-4141	9620	-3217	-32768	-9520	6372	16255	-32768	30074	-25892	2384	-17928	14098	-32768	-3042	-14196	-764	7572	8199	1710	6849	122	129	1
-10320	-6460	11716	1199	1097	4250	-17724	-1396	716	6307	12203	3243	-18504	-2240	8984	-7003	9147	-3541	-32768	-16252	-5984	8841	-28929	23737	-23076	520	-20412	6104	-31136	-1247	-17348	-6132	14976	480	-1401	4609	123	124	1
-10404	-5616	13636	1714	4385	6181	-18640	3664	-1176	4718	14604	4029	-18904	-2404	4564	-7880	8833	-3839	-32768	-25528	-18944	6981	-16034	18371	-13636	2496	-24540	840	-18644	2483	-18272	-8300	25532	-2540	-1661	3567	124	120	1
-11184	-4032	14376	2249	9551	5940	-18820	4208	-748	4853	17610	4958	-20172	-4512	3268	-6317	5700	-2822	-32768	-32768	-23736	11337	-1432	12653	-8028	2352	-24360	540	-362	4192	-13896	-11988	25716	1116	-899	1599	123	121	1
-11216	-4784	15872	2743	13975	7460	-19760	4336	-2300	10004	18808	5379	-19964	-4620	1744	-2776	2677	-1398	-32768	-21676	-17656	-705	10254	3736	-10080	4876	-20940	-3933	14725	3930	-17392	-2188	19928	3833	-6426	1590	120	116	1
-10192	-6572	16696	3797	20077	9984	-22620	5892	-3992	10129	19488	5257	-20504	-4792	-1436	-3400	665	-491	-32768	-19780	-5280	-15319	15921	-8485	-15528	3228	-21456	-15035	23411	3520	-16400	2340	9288	-520	-2045	3206	123	123	1
-8152	-5148	16104	4594	25291	12603	-22364	5856	-2840	7091	20200	4019	-20408	-1428	1764	-7865	-1444	21	32767	32767	32767	-221	2178	-13507	-32768	-32768	32767	-5130	12802	-3469	-964	7096	-2560	-25235	22134	7368	120	127	1
-8236	-4608	17772	5597	32767	17705	-25956	6456	-164	3696	21549	4020	-25044	-956	8540	-9152	-7773	342	15616	-8900	-9848	-22438	14555	-26505	456	7412	-12064	-29245	-1468	12384	-29804	-5556	-9504	6800	22549	3785	136	131	1
-4096	-4428	17572	7138	32767	21406	-29528	11432	4228	-388	22216	4445	-22360	2488	18420	-10413	-22447	1240	-30044	-6408	17868	-1418	28980	12238	-26452	-16004	-2228	-12052	12660	-6543	-16676	80	7908	-16929	-2044	-326	113	128	1
-8900	-8448	17024	6606	32767	17488	-25972	17684	12912	-14729	26396	2389	-18636	17240	10144	-14966	-13862	7737	-11344	-19076	20032	-2222	19553	-8607	-20308	-11048	-6652	-17570	11348	5489	-18176	-17372	9032	-16480	11974	4171	119	123	1
-32768	-3308	8140	-2213	32767	18832	-22332	3056	-8588	-22322	32767	1358	-21768	6124	7420	-31400	-17913	10456	-23084	8556	12072	342	17043	-7666	-19896	-1424	-2928	-4087	15411	6630	-15264	-10928	-2048	1851	12737	41	117	139	1
-32768	-7528	11024	-635	32767	24767	-32768	-2944	-8216	-8684	30502	3964	-24596	-11780	-15320	-32768	-18948	7687	-32768	20732	8592	-7191	10659	-6312	-21592	12932	-5556	-1807	14092	9395	-19096	13344	-5216	9010	8651	3046	125	130	1
-27288	-12316	24380	-2447	32767	26931	-26928	-336	3196	-11791	23258	6101	-26940	-18312	-15916	-15549	-21711	-4599	-14352	1384	12688	-8557	6076	-7200	-19224	1364	-4652	-10538	10061	5861	-20316	13380	-5740	-1815	11783	7943	124	129	1
5220	-9596	24280	-13290	32767	23233	-16900	160	-7776	6236	15632	7941	-25748	-12380	-9756	9175	-25103	-5385	-14900	4360	12116	-8625	4323	-6389	-16232	980	-4156	-4881	9174	4074	-16584	6024	-5252	-6185	10102	6408	135	145	1
-32768	-18440	24404	-15714	-7579	5846	-10228	824	-19164	-679	5871	6009	-25316	-3440	-3992	13719	-26334	-3057	-14004	1152	13180	-4894	1729	-4570	-17044	-3872	-5396	4656	9718	3550	-15884	1204	-4940	-4251	10091	4969	136	133	1
-5792	-22688	16844	-10395	-32768	-3557	-9716	-860	3632	-12254	50	1979	-24652	-2724	-3708	9586	-23708	-4774	-12776	2360	13052	-2263	868	-3041	-18488	-1768	-4616	9556	9545	3683	-16860	-1020	-3208	-3666	10239	4176	131	128	1
4252	-12800	9972	-3691	-32768	-5071	-9116	176	3196	-11838	-9036	-4448	-21672	-3880	-6116	6258	-21470	-6992	-11580	1880	12928	-664	1056	-1537	-18084	-1376	-3620	5652	7561	3291	-17780	-1176	-3108	-3632	10240	4125	123	126	1
1480	-7488	8244	-3882	-29579	-12237	-6504	944	-244	-6645	-18497	-4767	-17260	-3704	-7392	7863	-17726	-6863	-11856	1836	12940	-346	1077	-1346	-17220	-1172	-1576	-625	5455	2363	-15484	-708	-2108	-1384	11606	5569	130	129	1
-5796	-7452	8140	-7533	-29833	-21769	-6244	168	-5432	-964	-26328	-5076	-14144	-3604	-7820	11449	-15597	-5948	-11900	3536	11388	140	1408	-396	-16084	-2560	-1788	-2742	4119	2290	-15360	-860	-1288	-178	14072	6640	133	132	1
-9492	-8320	9036	-7581	-32768	-28251	-8712	1024	-6120	-4726	-32768	-5421	-12900	-4288	-7360	14267	-13209	-5086	-10968	4468	11332	483	1707	-570	-16252	-2476	584	2014	5330	2481	-15908	-1052	1204	3227	13894	6794	124	127	1
-18352	-9600	7280	-4975	-32768	-29884	-10272	-164	-5424	-2917	-32768	-7310	-12792	-3456	-8140	18849	-11754	-4487	-11224	4788	11176	252	1973	-1901	-16896	-88	1120	5632	6790	3369	-16448	-1452	3864	8466	13863	6776	119	130	1
-20948	-9612	7508	322	-32768	-27202	-11456	800	-7196	-1359	-32768	-11110	-10008	528	-7972	22412	-11729	-3564	-11616	4004	11328	-70	1613	-3092	-16204	-408	300	3641	7154	2822	-14780	-540	4328	12096	15330	6850	114	133	1
-17448	-4336	7644	-775	-32768	-25811	-14416	4148	-4600	865	-32768	-12170	-8168	2196	-8760	22397	-11625	-2405	-11312	5132	11164	-247	1692	-4176	-16740	104	832	2044	7648	2557	-17296	-352	3404	10771	17154	6496	126	126	1
-17520	-6020	10084	-4152	-32768	-25994	-15860	6588	-6328	738	-32768	-12733	-7872	1888	-8336	18135	-10170	-1757	-11700	5108	11324	-1205	1680	-5903	-17280	648	-520	776	7499	2546	-13684	3360	600	786	17994	5881	125	133	1
-23556	-7664	15056	-5360	-32768	-28277	-20404	8028	-10512	-392	-32768	-12718	-8812	2604	-6588	11625	-6832	-1878	-12724	2404	10768	-2049	1112	-7397	-15996	-1204	-3240	1070	8296	2765	-15192	2012	-4128	3095	17157	7380	125	132	1
-24896	-6984	16100	-5658	-32768	-28737	-24684	10916	-10008	-7862	-32768	-12793	-9704	3512	-5456	4513	-3121	-3276	-12340	2644	11332	-2187	16	-6180	-15556	-1744	-3112	4396	9896	3017	-14960	1352	-1912	1737	13878	6323	127	132	1
-32768	-5736	16008	-12901	-32768	-26474	-28272	8656	-14300	-12323	-32768	-14749	-11648	4844	-1252	5644	-2341	-4291	-13016	1760	12608	-2268	585	-3965	-17828	-1288	-3716	3363	10893	2715	-17488	152	-1204	-463	13299	5974	122	131	1
-32768	-5664	15644	-12722	-32768	-25396	-27976	6072	-21444	-8765	-32768	-15997	-13740	-848	2844	4235	-3594	-5402	-13140	1100	12800	-2097	2241	-2808	-18104	-2264	-832	2566	12482	2678	-19016	-1044	2328	-712	13587	6265	122	129	1
-32768	15048	-3916	-8255	-31887	-16668	-19612	12576	-27704	109	-32768	-14223	-18080	-76	12072	3430	-3964	-3874	-11476	2548	14332	-3904	4570	-2894	-19040	-1404	252	975	14594	2570	-19348	-252	3380	1312	11746	5627	121	127	1
-32768	11688	-9720	-12517	-24740	-24427	-20684	10540	-25720	-8321	-21471	-9609	-16700	2612	20612	621	-3619	-4304	-11832	1456	14584	-3969	7753	-3858	-18808	-3192	-1132	-2748	16736	1643	-19888	-3828	3388	2742	7748	5388	118	127	1
-32768	17248	-20436	-3578	-15188	-18372	-8952	7220	-25384	-2084	-9736	-7446	-16336	232	20824	-7476	1205	-3262	-12260	3244	14844	-4948	12246	-4358	-20120	-2780	-1704	-5599	17955	1166	-18432	-368	3456	4231	7752	2726	117	125	1
-32768	25620	-21940	-641	-772	-8757	-7464	6556	-23752	2166	4600	-2672	-12628	-2616	18936	-8790	-620	-1952	-11216	4500	15324	-6868	16788	-6686	-21536	-668	-192	-8403	18896	1119	-20580	2636	2812	3362	4162	1244	112	122	1
-392	19976	-14468	19705	12131	13354	-9296	3840	-24412	6349	15426	-419	-15768	-7484	15224	-4801	-1684	-1299	-10988	4160	16096	-9220	22439	-9824	-23264	-3128	516	-9505	20312	1338	-22372	1896	6568	5483	-2753	316	119	123	1
16548	-3648	32767	2877	20568	15250	-32768	13580	32767	13001	5620	4651	-24108	-344	3148	-2251	11372	-1887	-8484	4904	19540	-10041	32562	-13015	-29456	-8416	1808	-6201	22434	1662	-26456	-3500	12924	5672	-10951	-1142	113	124	1
-12756	12924	8968	525	27056	7313	2360	25452	-5912	16221	13186	3561	-20684	6016	17572	8133	-1151	3898	-8148	7920	20772	-10959	32767	-16388	-31536	-18872	12072	4786	25798	4371	-23464	-16600	12348	4215	-16718	-8277	120	123	1
-25680	256	19432	-7828	23448	5946	-23592	9780	-5260	-653	20557	4542	-10572	9292	6840	16385	13632	7284	-12560	4416	18876	-13115	32767	-23250	-30668	-18268	12904	14515	28998	6913	-23404	-22932	12240	7702	-19012	-17008	121	122	1
-22584	-23740	6236	-6833	17252	10628	-25536	-5364	-5932	-5660	22943	-131	-19328	4080	956	-6599	11462	4491	-32768	-2740	6832	-4363	32767	-25472	-28096	820	-10936	10094	32562	7592	-18340	-3672	4272	22819	-16552	-15840	137	127	1
-16688	-9864	10808	3314	12633	7763	-19504	-3612	-6232	13137	14748	1070	-14324	-15016	-7940	-17456	10533	-611	-32768	12176	11984	-3550	32767	-28002	-31132	5568	-8976	376	27777	4596	-25216	6696	-10012	32767	-9896	-11612	123	127	1
-15024	-8660	12524	10504	5684	8596	-16520	-488	-7216	13861	10707	1657	-16332	-13768	-12048	-7781	9624	-6107	-32768	12092	25820	4790	32767	-30241	-24184	3512	-2440	-7261	19051	4590	-32768	3432	-16272	25765	-17327	2339	106	134	1
-16456	-6312	11464	8532	3028	8385	-15308	5700	-8168	6829	9449	2063	-20504	-5776	240	379	9108	-4887	-10340	16776	18884	1588	23201	-24200	-18776	3312	-9972	-7185	11967	2610	-32432	5856	-13344	6742	-31315	5817	128	132	1
-13140	-3148	13484	6402	713	6454	-17124	7448	-5248	-1280	9418	661	-15312	-4736	-4020	6618	15663	-942	-27420	15148	21688	7676	-19680	-2782	-9896	1756	-6212	3660	5094	-1129	-27596	836	-1068	-1290	-32768	-415	131	130	1
-11476	-3236	12824	3496	472	3812	-17872	5096	-3272	-3303	8946	11	-16324	-4500	-3280	8153	14767	457	-2896	14056	17280	7923	-32768	8024	-10752	-1708	1780	5933	-5378	-1064	-27292	68	-4304	3530	-27031	1464	120	126	1
-10980	-4408	11456	1951	421	2305	-17616	1616	-2492	2097	6373	83	-16120	-2724	-348	10608	15093	635	2368	10740	11396	5710	-32188	10934	-6272	-188	512	4953	-13716	-2161	-21292	940	-8636	6700	-19933	2418	122	122	1
-10648	-3484	12148	1578	-90	1230	-16172	4804	-2012	9620	2606	86	-16272	1820	508	10874	17373	-1931	-3224	6752	9468	5079	-30934	11730	-5984	2148	-1936	5178	-21053	-3815	-17552	3032	-9656	2874	-18423	2944	112	119	1
-10128	-4476	11428	553	438	29	-16584	5064	-1832	10045	2301	-37	-15472	2200	628	4837	15990	-2826	-8044	3352	9244	9507	-32768	13086	-5908	1768	-3496	5103	-27611	-4460	-13496	2708	-10572	-2727	-17818	2408	119	116	1
-9356	-5276	11160	87	522	87	-14988	3892	-348	816	5244	-933	-14956	1148	2232	-908	15861	-3185	-10828	2592	9224	14975	-32768	15040	-6952	56	-3840	8836	-32524	-4935	-10612	2232	-9836	-5902	-16448	1446	129	118	1
-8628	-6028	10696	20	858	1285	-14884	2048	380	-6972	8044	-1358	-15004	-796	4528	-5816	16368	-2327	-14128	2012	9448	19681	-32768	17174	-7956	8	-4592	12509	-32768	-4768	-8188	3424	-9664	-8715	-13765	938	125	119	1
-10004	-5936	10592	1128	781	2763	-15148	1756	320	-7919	8317	-1407	-16104	-4072	2892	-9462	18487	-1951	-15424	1908	9796	23135	-32768	20028	-10704	-840	-4208	13638	-32768	-4034	-5652	3704	-10236	-13232	-11113	-122	125	119	1
-10972	-4348	11100	1954	213	2937	-17076	-128	-708	-5711	8293	-1128	-14724	-2952	-1984	-6361	19725	-3087	-13892	2112	9968	26222	-32768	22683	-15512	-2360	-3828	11260	-32768	-2540	-4644	5364	-12308	-20842	-10020	-999	124	122	1
-10660	-3272	12028	1694	-64	2185	-15076	4800	-2252	1339	8064	554	-15420	-356	-1760	-924	15751	-2375	-20796	1876	12560	28101	-32768	23559	-16316	-2496	-4552	10261	-32768	-2222	-5340	2668	-12156	-24091	-9399	-1679	122	120	1
-10344	-3652	11820	946	499	1472	-16056	4108	-1672	-1782	9235	217	-14764	-192	1384	-2293	17239	-2859	-29588	3952	17464	24431	-30743	26255	-23192	-2056	-14244	5717	-32768	-2638	-7280	-4244	-7564	-17550	-10044	-3418	122	122	1
-10676	-4088	11468	587	1216	1220	-16120	2516	-1620	-3145	10093	257	-15780	-264	2324	-1988	19777	-3795	-32768	-4080	22208	21241	-30758	31337	-29108	-7052	-15160	10146	-32768	-3934	-10256	-6104	-3152	-10465	-10354	-4304	119	120	1
-10432	-4992	11388	518	1369	1565	-16872	-348	908	-3216	11035	1157	-17976	-3068	2988	-1179	15887	-4769	-32768	-7216	16696	19803	-32768	32767	-26404	-2476	-19232	17173	-32768	-3552	-11980	-1808	5788	4784	-5708	1373	120	123	1
-10388	-5144	11624	480	1450	1632	-16080	404	1268	739	12109	2840	-18568	-3744	3644	-1305	14791	-4964	-32768	-11596	7184	13173	-32768	32767	-27524	3080	-19720	10488	-32768	-3419	-15512	336	8328	9692	1659	8262	124	126	1
-10440	-5008	12844	102	2727	2575	-18184	1272	468	2552	14270	3933	-18404	-2932	7852	-7420	9072	-3288	-32768	-16612	-8064	8462	-29127	29007	-23380	600	-20592	4274	-31746	-1423	-17508	-5032	15556	2352	1293	6128	121	124	1
-10508	-4948	14320	939	6487	4083	-19164	788	764	3505	16743	4798	-19768	-2836	5516	-8013	7030	-3055	-32768	-25472	-22216	5920	-15123	20370	-13948	2544	-25424	246	-18390	3818	-18408	-6284	24028	-5703	2179	3478	122	116	1
-11032	-6016	14808	1807	10997	6178	-19316	2920	412	7773	18511	6081	-21548	-5764	6116	-6003	3205	-2719	-32768	-32768	-24996	9964	2134	13245	-6220	3124	-24592	-971	-236	4928	-15136	-10912	29264	-1691	-816	718	120	125	1
-11168	-5696	16604	2771	16774	8713	-21540	5324	-2392	11327	20256	6267	-19464	-5636	2804	-3078	1154	-1566	-32768	-32768	-24116	9554	4321	12599	-16612	740	-14784	-8436	11846	1940	-18112	-1688	16748	410	-4108	1979	119	125	1
-8276	-6308	17448	4386	24120	11501	-23820	6988	-2656	10413	21364	5841	-20588	-5112	444	-4954	-502	398	5772	30444	32767	-12808	22794	-11905	-32768	-13896	32767	-16320	3693	-984	-21932	-500	-64	-3100	8500	5227	121	120	1
-9156	-5952	17728	5505	31523	14818	-26432	5860	-900	7818	21745	5964	-24308	-3976	7312	-6153	-5689	1473	-17536	-32768	-2160	-22802	12116	-24304	-4748	-14544	-14492	-32768	6588	5098	-20128	-5464	13248	-13307	5212	3544	118	127	1
-4980	-4188	18864	6066	32767	19470	-29128	11144	4612	3907	22176	6928	-22608	1308	15728	-5497	-21033	1551	-24384	-4908	23640	-3636	28258	-5130	-23432	-17852	-4236	-13691	16630	500	-10156	-12648	5280	-26766	15293	-2564	114	131	1
-6936	-12504	17900	7511	32767	21319	-30908	15068	16912	-10091	26279	4411	-24736	15764	8028	-9212	-16523	7084	-23612	528	15216	-590	17482	-13886	-24308	24	-5676	-3687	20152	7013	-14084	-19344	-3068	484	9939	-340	109	122	1
-32768	-6816	12596	2638	32767	23980	-26600	5616	-2924	-17663	32059	1483	-22668	11064	10340	-24073	-22939	9810	-21408	22164	13812	-6408	12382	-6946	-20404	9320	584	-7793	14049	7810	-15988	15648	-12492	20117	8762	640	117	122	1
-32768	-4588	6980	824	32767	27541	-32768	-1604	-12048	-9327	32767	5646	-22672	-5580	-10636	-32768	-24720	6975	-15812	-1624	14696	-9802	1982	-9870	-19252	5020	-5448	-22181	9064	4992	-19976	25944	-9840	-2877	9367	9309	125	140	1
-32768	-14776	24904	-2172	32767	25804	-26460	1324	-1720	-6940	24818	6402	-28960	-15428	-18932	-24900	-21928	-3612	-14748	1916	13232	-7344	598	-7571	-15768	-2636	-5528	-15535	8065	3151	-18428	424	-7076	-17029	9007	7915	129	139	1
17260	-20592	25952	-8223	29343	21036	-18456	-160	-9636	3103	16957	5704	-29008	-14132	-8812	8001	-26881	-5348	-12692	2072	13448	-4419	238	-4387	-17248	-5236	-4020	-4609	9351	3055	-18856	-3656	-1912	-10222	8503	3903	130	127	1
-27328	-21776	24936	-8659	-12104	3712	-9336	-2056	-16296	-854	6226	2846	-25408	-4456	-2984	15054	-26800	-3960	-11880	1948	12964	-2405	194	-3186	-17116	-3880	-3356	5168	10370	4253	-16664	-936	-2940	-5181	11048	4221	131	134	1
-492	-19188	17804	-8657	-32768	-8834	-10188	-968	4804	-10978	-1819	972	-24784	-2300	-3104	6965	-23524	-5780	-11280	1776	12548	-1281	420	-2222	-17464	-1644	-2572	6744	9407	3930	-16044	872	-1776	-3471	11903	3258	135	129	1
6248	-12068	10380	-4081	-32768	-8608	-8296	-1268	3224	-8964	-12230	-5983	-20956	-4520	-6940	2943	-21493	-6934	-11752	2692	12332	-1166	458	-1866	-17944	1888	-2296	-455	6601	2808	-15432	1504	-976	-5477	10912	3466	131	124	1
5516	-11276	10260	-3761	-32768	-8852	-5476	-720	-1628	-2944	-20731	-6938	-16368	-2116	-8268	6269	-18551	-6204	-11580	2500	12084	-1119	344	-1547	-16828	-2020	-1836	-6304	4158	1835	-15928	244	-2068	-6458	11820	4173	135	126	1
-5804	-7024	8572	-5202	-32768	-16994	-6560	596	-3152	1297	-29277	-7305	-12788	-1488	-8452	9417	-15781	-5491	-11268	1856	12428	-642	407	-1205	-15732	-4056	-2160	-2559	4452	2194	-15220	-3552	-892	-5609	12394	5505	129	127	1
-8252	-7528	10092	-4757	-32768	-21774	-8648	3188	-4572	-560	-32768	-8214	-11472	-4088	-8564	12152	-13857	-4501	-10872	2096	12328	307	352	-618	-15472	-4496	-556	3401	6013	2832	-14964	-4708	1548	340	12554	4962	125	127	1
-13764	-6236	10804	-3849	-32768	-25002	-10852	3512	-4920	-4422	-32768	-9082	-10480	-5052	-8352	15086	-11517	-3596	-9792	4248	11724	588	734	-849	-16080	-2176	992	7786	7435	3581	-15224	-2160	2216	6248	13361	5338	127	129	1
-16184	-3004	10996	-4775	-32768	-26912	-11928	4208	-5016	-2724	-32768	-10216	-8120	-2028	-10004	22350	-10324	-2559	-9108	4144	11880	-638	1448	-1785	-15740	-1876	504	7951	7525	3699	-15196	-460	1540	7473	15238	5960	125	133	1
-17600	-2368	12184	-8666	-32768	-27500	-13424	6196	-5780	-3954	-32768	-10819	-6048	1656	-10268	25967	-9435	-1646	-10460	3732	11744	-1750	1501	-2401	-16804	-1560	624	5657	7270	3239	-15108	80	192	7037	16445	5957	121	131	1
-20308	-4532	14464	-10035	-32768	-27315	-17576	6892	-7588	-5068	-32768	-11520	-6164	1992	-10384	25409	-9248	-1526	-11248	3676	11968	-3549	1088	-3938	-16956	312	-600	2607	6682	3915	-15276	1004	-108	6777	18167	6461	126	134	1
-24976	-3688	17480	-11512	-32768	-27415	-22416	10288	-9564	-7388	-32768	-10982	-6512	2900	-6500	10208	-4446	-1326	-12324	1448	11808	-3250	610	-3156	-16220	-1020	-1600	3507	7903	2703	-15860	1736	1708	4526	16657	6493	128	134	1
-32768	-4588	20568	-13285	-32768	-24974	-26580	11140	-14360	-13356	-32768	-12985	-8864	5988	-2848	7332	-2837	-1930	-12400	2844	12360	-2558	207	-3289	-17168	-1244	752	6004	10386	2734	-17724	12	3016	2077	14698	8405	130	138	1
-32768	-2944	15540	-13804	-32768	-24995	-27264	10448	-16268	-13977	-32768	-13537	-11072	3460	2796	3795	-3101	-1905	-12344	2324	12648	-2612	699	-3472	-16516	-272	2124	5109	13136	2803	-17492	-4472	8284	2201	12741	10135	127	137	1
-32768	408	3800	-11467	-32768	-25195	-25372	9676	-20092	-8236	-32768	-12100	-16408	-924	9724	-5331	2617	-2754	-11824	3388	12924	-3193	1507	-3507	-16840	8	2804	2252	16633	2068	-17708	-3500	10108	5535	12693	8600	126	133	1
-32768	7228	-6516	-7844	-28837	-23146	-21868	9080	-23660	-6100	-28116	-11182	-19140	2540	20016	-3061	-2418	-2619	-11776	4328	14136	-3558	3538	-5879	-19072	392	1080	394	19777	1590	-19472	-1064	3324	6451	9702	6472	121	132	1
-32768	17148	-18924	-4527	-17343	-17688	-11248	7704	-25776	-367	-17079	-8283	-19204	-3760	27344	-2636	612	-4397	-11396	668	16272	-6015	6589	-9068	-20668	-3952	-2792	-2918	20876	1436	-19920	1204	2088	4964	5855	4891	121	128	1
-32768	29132	-24916	-9343	-1559	-9718	-4548	6676	-24368	-749	1825	-3272	-15384	672	27012	-8138	-2785	-1328	-12732	1852	17272	-6883	13124	-8617	-21840	-6352	-4496	-4813	21759	1021	-19736	1332	1852	4904	5524	4470	130	126	1
-32768	14676	-16980	-1411	10464	779	-9000	4404	-22764	3058	17048	2622	-17004	-5060	19200	-4085	-4830	460	-10792	1928	18548	-9219	18956	-9865	-23004	-5368	-3728	-8407	21167	1136	-21572	424	1504	6796	1190	-505	110	125	1
-32768	12972	-15404	1157	11892	2809	-28804	11516	32200	-15238	20892	9437	-14984	-4880	240	-4236	7075	-934	-9152	3764	19220	-10865	25626	-11342	-26092	-6436	-1664	-7469	21605	1917	-23164	-1792	6972	5146	-4264	-2330	117	124	1
16964	-6984	9080	4093	21205	18595	-21040	1696	11700	21659	5807	-5438	-19740	3444	948	-5243	14567	2975	-7824	5916	18844	-13438	32767	-17001	-30820	-7848	6940	-3721	23055	2475	-24532	-5612	15816	-461	-14647	-5925	118	133	1
-21800	19528	14828	3960	21202	7211	-4028	24000	-7948	12235	13869	7367	-10820	-112	3920	14403	2324	387	-5996	9792	22468	-17651	32767	-26153	-32768	-18048	17544	6297	26196	5480	-18944	-18240	18304	2088	-14644	-12234	128	119	1
-19544	3332	17776	-2101	24861	7416	-26640	10916	-4764	3565	16721	2755	-20664	8800	4996	10422	13295	400	-15028	4564	19260	-20075	32767	-28155	-29416	-12760	12448	15659	30031	6194	-20124	-17792	14320	2748	-20028	-15970	131	129	1
-17884	-7828	14400	-6325	18161	12040	-20084	4124	-2936	3493	17140	2789	-18092	7472	512	-1061	10146	2006	-32768	-4408	4524	-10250	32767	-27948	-25900	5700	-12384	11564	32767	6019	-17908	476	976	32767	-9401	-14026	118	127	1
-19180	-15032	11772	1160	12920	7598	-22404	252	-7372	8273	15269	-532	-20340	-10036	-5260	-11203	11181	436	-32768	5228	16592	-8838	32767	-31840	-26812	6832	-5560	2507	24569	3365	-30668	6568	-14032	32767	-13248	-6998	135	130	1
-9896	-6356	11964	1573	11422	7736	-16160	2968	-4048	8068	12485	741	-13004	-11092	-7516	-7429	9640	-3309	-28040	14972	29808	965	32767	-27987	-20180	3424	-5028	-10452	16399	1400	-32768	5748	-19336	15596	-23096	7714	119	139	1
-14820	-9936	11308	11743	6031	8468	-17480	-4600	-7348	6428	9876	-913	-12040	-13788	-7216	-4559	13317	-2539	-32768	2564	19840	-4415	9348	-11248	-12216	2148	-11536	-4226	8347	1551	-29524	5688	-4456	874	-32768	1603	142	141	1
-14256	-7940	11456	6999	2259	5916	-17308	7524	-5300	1783	8884	1506	-17600	-6456	-3696	6894	15021	-2414	-16468	15768	22320	-585	-28639	10910	-8320	952	-452	1766	-1190	-3790	-26512	-96	-1824	172	-28969	1651	134	127	1
-12192	-2396	13440	4417	1619	4199	-17864	6276	-4028	-1498	8864	1134	-15936	-1624	-2804	7844	14025	-586	-656	11108	14900	-19	-32768	18727	-8432	888	1688	2527	-11266	-1887	-23620	436	-6932	6550	-19818	3088	131	124	1
-11420	-3956	12332	2584	1343	2355	-16724	3892	-2432	-697	7743	298	-15856	280	-696	6823	14093	-1091	288	4904	11304	3501	-32768	17585	-7068	996	284	661	-19732	-3186	-18388	904	-9512	4420	-17186	3515	123	123	1
-10736	-3444	12072	639	883	589	-15852	5648	-1604	1343	6099	-14	-16052	1952	812	3624	14772	-1006	-4616	2148	9748	9122	-32768	15164	-6560	424	-2012	2298	-26217	-3906	-14184	1888	-9500	-809	-16583	2733	124	124	1
-8908	-5664	10956	252	1187	-39	-16968	2580	-328	2145	5643	-776	-15400	108	704	-1667	14678	-2068	-9640	1472	9928	16502	-32768	13893	-7356	1336	-3204	5414	-31769	-4512	-11216	2700	-9504	-7692	-16434	1980	129	120	1
-8816	-6324	10568	296	1443	961	-15408	2116	-1300	2273	4820	-752	-14380	-3124	-800	-4919	17427	-2738	-15176	1280	9268	21731	-32768	14859	-8952	-152	-4480	8991	-32768	-4368	-8336	3056	-8500	-10407	-14566	1524	126	124	1
-9372	-6080	10644	391	1117	2218	-15168	2712	-1668	-3219	5926	-376	-15008	-2664	276	-3350	17493	-2324	-14380	2032	8980	24159	-32768	16915	-11500	-1652	-4308	10553	-32768	-4366	-7672	3840	-9224	-15258	-11926	964	127	123	1
-10848	-5592	10900	1715	911	2787	-16668	3012	-1536	-6779	7490	-844	-15144	-2172	364	-5227	18055	-2361	-14968	420	9536	25909	-32768	20967	-14324	-2680	-4152	7972	-32768	-4503	-7204	4568	-10576	-20207	-10914	-488	131	119	1
-10452	-3976	11464	1775	871	2129	-16232	3332	-1180	-2673	6430	-409	-15088	-1172	672	-5076	20219	-2383	-16828	2660	11544	26178	-32520	24288	-18744	-4064	-8284	9098	-32768	-3339	-6280	3108	-10216	-22755	-12098	-715	127	119	1
-10340	-3940	11812	1034	1072	1194	-15848	3428	-1340	-385	6587	-20	-15260	716	1432	-2070	19452	-2486	-26720	2068	15444	22467	-25383	25206	-21168	-480	-11444	11529	-32768	-2758	-7736	-1524	-6016	-18060	-13086	-2062	126	125	1
-10568	-4872	11124	776	1253	966	-15584	2160	-1096	-2011	8853	526	-16528	-8	3284	-2103	18882	-3949	-32768	-1744	19776	20852	-27602	27622	-28168	-2348	-17584	8063	-32768	-2699	-10872	-6748	1216	-11783	-15103	-4083	125	124	1
-10688	-5508	11016	932	1123	1237	-15516	600	392	-3726	11293	1160	-17692	-4688	2872	-4437	15216	-3742	-32768	-11920	16352	22960	-31694	32767	-25112	-3492	-15624	13757	-32768	-3609	-10828	-5692	3324	-3606	-7490	-900	123	125	1
-10880	-4708	11776	716	1575	1669	-15708	540	696	-3567	11581	1252	-18676	-3168	5076	-3739	12180	-4085	-32768	-8612	9524	20084	-32768	32767	-24180	3616	-17444	14592	-32768	-1483	-12796	-2108	6040	15405	1214	6191	124	128	1
-10480	-5236	12072	474	2318	1963	-17236	-32	1312	3019	14335	3432	-17304	-2028	6244	-4406	12004	-3222	-32768	-13208	792	12444	-32768	29416	-25652	-1888	-18736	5613	-32768	-1891	-15252	-1440	10472	12415	3473	7034	126	126	1
-10616	-5456	12472	48	3305	3020	-17420	676	-748	3792	15891	4814	-18080	-3336	4316	-5548	9832	-3067	-32768	-20044	-12352	9910	-22942	24603	-18068	1984	-21016	4571	-23761	2157	-16484	-432	16048	-1426	166	6486	125	125	1
-10496	-5304	14884	-599	6641	4342	-18952	2804	-1068	3929	17809	5466	-19992	-4568	3400	-4911	6398	-3413	-32768	-29032	-21772	10200	-7110	16174	-10664	1168	-23444	1965	-9656	5174	-16500	-7536	25012	-4169	542	4027	126	120	1
-11444	-5096	14612	516	12438	6390	-20524	5048	-1180	7777	19313	6023	-20484	-5076	132	-5308	2180	-1735	-32768	-28728	-19308	7454	6285	9821	-7340	4268	-22524	-1918	6125	5625	-14656	-6148	23932	-622	-3050	2634	122	127	1
-10192	-5340	16304	1214	18815	7415	-20592	5844	-2836	11137	20181	6611	-19536	-3860	1772	-5953	811	-12	-22912	1516	1908	-13333	8681	4851	-16104	3372	-3092	-6570	16317	2970	-18088	304	12332	-3031	-3031	3806	121	119	1
-7764	-5624	16396	1507	25766	10062	-22624	8060	-3020	9494	20443	6566	-20528	-1532	3068	-7986	-689	1094	2804	27112	32767	-15032	16114	-11411	-21072	-2788	1476	-12518	14370	1421	-20304	-40	-2148	-6939	10058	6870	120	119	1
-7972	-7104	17084	1846	32767	13494	-27440	7660	-260	5345	21528	6652	-25608	-2156	10220	-9210	-6716	2056	-11236	-25904	-676	-26144	16001	-17737	-4524	-14632	-17548	-32768	4186	3878	-22344	-1120	12216	-21586	7419	5534	125	130	1
-5716	-6692	19264	2889	32767	15704	-31368	11024	10580	-894	22719	7337	-21356	2368	14944	-8713	-21680	2032	-22964	-10324	25668	-5042	27263	-1003	-24780	-17072	-7172	-20108	14124	1003	-14244	-13892	3456	-32768	15151	-1625	124	122	1
-9200	-11640	16272	4168	32767	23584	-29340	11748	15948	-10601	27648	4710	-23776	12444	11232	-12916	-17535	7762	-25384	1620	16496	1063	18335	-12502	-24912	1136	-6592	-8510	18563	7294	-14072	-24428	1288	-3371	9811	-2402	120	122	1
-32768	-6336	9428	-1932	32767	28180	-26756	2056	-10356	-13261	32767	3660	-21616	4304	9400	-25688	-21656	7616	-17620	18040	12576	-6981	13543	-5183	-20024	5232	-928	-6394	14988	8641	-15952	14808	-10304	22647	9521	503	127	127	1
-32768	-5972	8712	-540	32767	30601	-32768	-500	-8064	-1992	29503	7812	-25360	-9892	-17296	-32768	-21077	5844	-15368	1372	13272	-9002	5525	-8508	-17452	4548	-5200	-12250	11385	6047	-20148	19172	-10124	3898	8610	9026	127	127	1
-28040	-16916	26276	-5723	32767	26444	-24232	2388	-832	-5047	24094	8058	-29120	-14708	-16828	-15027	-20722	-4834	-14180	3164	12540	-7614	3264	-7828	-16640	-596	-5368	-7899	9945	3670	-16980	4016	-5516	-6025	9847	10599	135	134	1
-16492	-14784	19820	-7373	29876	27209	-16056	-1368	-13984	4375	15308	5819	-27676	-11308	-7964	11190	-26004	-4629	-13536	1308	13260	-4665	1871	-6224	-17904	-4052	-4784	2200	10814	3606	-16424	1644	-4552	-1022	9789	4953	135	133	1
-20828	-21128	23704	-4454	-21333	3204	-10396	-2460	-8304	-1961	4560	4782	-27424	-10356	-7172	12495	-26137	-3851	-11808	1380	12184	-3490	1438	-4879	-17232	-2856	-3860	8747	10851	4450	-14972	568	-1568	-3542	11919	4493	134	130	1
2140	-17164	17644	-4007	-32768	-6949	-10624	-700	3984	-9732	-3910	575	-24568	-4408	-3704	6751	-22971	-6694	-11296	2688	12548	-3246	866	-3763	-18360	472	-2856	5564	8842	3646	-16900	1908	-2464	-3191	12874	3498	130	127	1
3416	-10768	11460	-2972	-32768	-7266	-7896	-1556	2020	-8368	-12830	-4542	-19640	-3160	-7124	5009	-20709	-7080	-11672	2680	12784	-2794	879	-2846	-18072	1124	-2800	-3024	5414	2905	-15580	748	-1920	-7049	11529	3434	127	130	1
-1272	-8132	8852	-3325	-32768	-10171	-6956	-284	-728	-3576	-22217	-5686	-16048	-2328	-7688	8977	-18245	-6058	-12064	840	12564	-892	1034	-2271	-16684	-4600	-2464	-4131	4397	1914	-16100	-2292	-1012	-7796	12032	3830	133	132	1
-5784	-9296	8480	-3110	-32768	-14269	-7436	152	-3452	202	-30611	-6610	-13152	-1544	-7552	12626	-15821	-5258	-11244	2764	11544	-127	1152	-1523	-15608	-3268	168	2469	6317	2535	-14908	-3620	1932	-2722	11750	5826	132	130	1
-12504	-8880	9836	-2278	-32768	-19038	-8488	2548	-6232	-2012	-32768	-7210	-12256	-2932	-7760	14885	-13725	-4241	-10784	4400	11804	-861	1416	-2345	-15868	-1848	2036	7504	7705	3417	-15248	-2016	3560	4809	11611	5857	122	134	1
-14696	-5324	8804	-3351	-32768	-22970	-11804	3532	-4536	-4891	-32768	-8671	-12300	-4216	-9200	20162	-12635	-3980	-11168	5156	11436	-2554	1346	-3674	-17412	2256	248	4629	7730	3160	-16604	2360	2324	9036	14019	5629	124	133	1
-14340	-4424	9248	-6602	-32768	-24591	-12812	5256	-4676	-5275	-32768	-10608	-9300	20	-9172	24353	-12557	-2675	-12280	1368	12040	-3034	551	-3797	-16696	-1572	-3072	673	7328	2161	-14356	292	632	7290	17526	6635	125	134	1
-17524	-6732	10800	-7956	-32768	-24546	-15000	5212	-6592	-6090	-32768	-12594	-7628	3608	-9744	22011	-11463	-1186	-12368	1516	12200	-2836	496	-1899	-16776	-3540	-3932	2970	8098	2415	-15276	-1404	-3428	6057	19451	6295	127	132	1
-21044	-7676	14856	-6916	-32768	-25370	-18816	6092	-8352	-4463	-32768	-13628	-7204	3720	-7956	13386	-7925	-550	-12004	2960	12352	-1814	432	-1420	-17068	-1380	-2864	6494	9026	3365	-16408	-148	-4000	4771	18791	6909	126	130	1
-27876	-3040	17964	-11592	-32768	-28452	-22844	10172	-10764	-7174	-32768	-13309	-7744	3972	-6140	4992	-5769	-611	-12240	2740	12136	-1841	792	-1444	-16504	-1320	-1208	5890	9832	3485	-16944	1368	-900	5435	16115	6422	127	129	1
-32768	-3196	17928	-17076	-32768	-27677	-27124	10176	-15760	-12397	-32768	-15001	-9624	4316	-2532	5654	-4744	-2125	-12060	1528	12000	-1388	1351	-1820	-16224	244	468	4359	10699	3079	-17304	1136	4072	2468	13017	6625	127	131	1
-32768	-880	11868	-15813	-32768	-25286	-27780	9044	-22680	-9810	-32768	-14389	-11908	-2104	4096	390	-5898	-4222	-12020	1964	12224	-1367	2118	-2813	-16996	-228	852	2635	12385	2068	-16820	-864	6916	2289	12035	6545	125	130	1
-32768	2576	996	-8920	-32768	-24221	-21520	11192	-25744	-5902	-32768	-11913	-15612	-1680	9416	-3009	-428	-5160	-12228	2752	13136	-1863	3793	-4056	-18668	-180	168	2168	14344	1679	-19028	-1444	4956	4267	11735	6571	126	129	1
-32768	9860	-10396	-3665	-26281	-22523	-19612	7660	-26340	-6671	-25043	-10172	-17144	1720	15856	-494	-1531	-4422	-12384	2128	14156	-2797	7665	-5662	-20432	-2248	-196	756	16332	1098	-20572	-768	4392	4038	10533	5904	120	128	1
-32768	17856	-19436	-1975	-17540	-16571	-11436	7504	-26832	919	-13726	-7618	-17676	-1420	21020	-4287	2010	-2728	-11912	1988	14868	-4896	11405	-7247	-19588	-1720	-1672	-4355	17237	933	-19416	-1040	2400	4866	7429	3608	119	127	1
-32768	23936	-21252	-2885	-4449	-6928	-7052	7380	-25360	3338	1087	-3420	-12620	-1436	20828	-6207	-1188	-1092	-11088	1968	15828	-6553	15557	-8407	-20488	-3772	-2180	-7125	18476	560	-19332	752	2612	5188	3555	1524	112	126	1
-32768	20280	-15512	2809	7053	3918	-7184	9028	-23552	5557	14098	1630	-13872	-5848	15948	-1312	-1579	-714	-10940	3036	15956	-8287	20085	-9797	-22196	-4116	-2012	-6977	19727	1172	-20148	1784	3480	6347	949	83	121	124	1
-11260	-32768	32767	10326	-2549	7038	-32768	12040	26656	-11356	17655	7234	-14204	-5524	15272	-300	-1029	-1083	-9420	2752	17960	-9979	26476	-12021	-25988	-5580	-248	-4717	20791	2119	-24176	-884	7896	6769	-5113	-1970	121	122	1
10324	-1684	6580	97	22060	10336	-32768	13348	32767	-16703	12035	9898	-23704	7216	3368	-659	16989	5990	-8624	7332	18664	-11231	32767	-16008	-30588	-11084	9504	-687	23454	2659	-23116	-8256	13340	3248	-14691	-4932	124	128	1
-22960	8412	13556	-5028	30605	-4347	-13252	13620	-2776	3001	15749	8976	-13848	2812	10388	15820	4702	2908	-7780	2140	21696	-15734	32767	-22512	-30872	-18020	15312	7836	26762	5062	-17372	-20300	16488	2515	-17285	-13493	126	123	1
-21144	6756	19172	-6199	19809	9567	-23832	9804	-4568	3916	15203	1014	-21592	5404	7864	6257	11643	793	-25988	1548	15264	-12425	32767	-26584	-27028	-8748	-1444	13376	30377	5845	-18600	-15488	12188	7975	-17803	-15385	130	130	1
-19728	-21292	8156	-5298	15591	9471	-22360	-1864	-4892	2463	17340	1555	-19240	7332	1376	-7088	10516	677	-32768	2896	6244	-6159	32767	-26337	-31628	6684	-11660	8404	32455	5015	-21568	948	-3132	32767	-8452	-13728	124	132	1
-15928	-6508	12468	1451	11898	7071	-18188	2632	-5840	9413	13858	315	-16988	-11680	-6400	-16093	11125	-1596	-32768	4552	20592	-4957	32767	-32169	-25848	3520	-3324	-166	21544	5086	-31064	5996	-15904	32767	-12795	-5122	121	133	1
-18400	-18640	3872	7540	8846	5767	-19236	-3452	-8780	2560	14164	-268	-16772	-10996	-6016	-8346	7894	-3046	-24720	13532	27200	6674	32767	-25571	-20240	1020	-6684	-8102	15822	1943	-32768	8372	-16936	13282	-24384	6538	141	139	1
-14588	-7068	10736	6912	4320	6402	-16244	4460	-6700	2048	10618	1238	-11600	-9128	-3876	-995	11624	-3618	-32768	5084	21696	6082	4391	-9052	-12028	2852	-12140	-142	9345	1527	-28128	3672	-4528	-189	-32768	1263	132	133	1
-12312	-3852	12628	6930	2717	5549	-16884	4196	-5072	284	8870	471	-16660	-5848	-4176	5474	14455	-1693	-15000	18608	20776	5215	-31847	7944	-10824	1672	928	6221	-763	-1846	-26596	-448	-1680	1259	-30094	994	135	132	1
-11512	-4868	12548	4495	1837	3395	-18316	4744	-3628	1488	7051	903	-16148	-4052	-2712	8203	13146	529	1296	12432	13148	2302	-32768	14276	-7968	524	2220	3160	-10906	-989	-23108	1476	-7268	6721	-20525	2995	126	124	1
-10528	-4268	12256	2139	1299	1388	-16432	5596	-2180	2656	5534	416	-16628	256	-500	8705	14572	-704	-1036	6260	10212	3307	-32768	15251	-7048	1744	-296	1625	-19263	-2751	-17940	2196	-8632	4549	-17875	3889	122	123	1
-10040	-4808	11844	573	1532	363	-16088	5488	-1516	855	5498	-384	-15848	1716	-972	4754	15940	-1202	-5096	2076	9144	8181	-32768	15782	-6248	1500	-2588	1124	-25519	-3856	-14000	3712	-9288	-1758	-17310	3659	120	121	1
-9120	-5744	11068	-147	1578	34	-16260	2552	-740	237	5174	-496	-15336	1644	584	-1331	15521	-1836	-9696	3260	8868	14513	-32768	17232	-7520	1580	-3116	4286	-30773	-5021	-11316	3748	-9588	-7591	-16946	3115	129	121	1
-8344	-6896	10240	353	1674	1067	-15160	2200	-280	-3352	5888	-13	-15128	-1776	1864	-6558	16574	-2146	-13144	3388	9360	17090	-32768	16940	-9864	580	-4112	7186	-32768	-4843	-9804	3952	-8660	-10603	-15387	2927	128	123	1
-8532	-6944	10044	507	1685	1336	-16564	1204	-760	-4717	6598	-285	-14944	-3688	1920	-6329	18284	-2312	-15740	1076	10456	20512	-32768	18694	-11484	-536	-4876	8140	-32768	-4929	-8696	3876	-9448	-15886	-12721	1958	127	121	1
-10348	-6008	10960	2507	1026	2760	-16092	2396	-816	-1678	6047	127	-15280	-2176	668	-5398	18182	-1904	-15216	304	9560	25886	-32768	21734	-14972	-2808	-3888	8692	-32768	-4585	-7820	4484	-10556	-21232	-11860	512	130	122	1
-10364	-5340	11216	2601	1118	2668	-16388	3632	-1584	-622	6138	145	-15860	-2152	488	-4186	17448	-1736	-15592	2764	10956	27924	-32768	21618	-18312	-3468	-7420	11257	-32768	-2229	-6568	2752	-11400	-25147	-12164	-304	126	121	1
-11208	-4304	11636	1846	1501	2102	-15916	3664	-3136	-1353	7172	349	-16112	-1512	444	-1650	17780	-2273	-25840	1992	15588	25261	-25623	21920	-21104	96	-11952	10239	-32768	-1905	-6804	-2312	-7756	-20247	-12403	-1945	127	123	1
-10524	-4872	11268	733	1449	1342	-15604	2924	-1040	-3495	9565	1100	-15312	-228	1984	-2525	18075	-3287	-32768	624	19216	24318	-26176	25493	-28316	-4676	-17692	10925	-32768	-1031	-8260	-9264	-1008	-12437	-14089	-4801	127	124	1
-10144	-5520	11500	306	1508	1214	-15468	908	1652	-2791	11144	1575	-17436	-452	3636	-2726	16095	-3459	-32768	-8700	14708	25155	-28770	32767	-24804	-3188	-18196	16952	-32768	401	-10600	-8164	2276	-2017	-6368	-1283	127	125	1
-10224	-6044	11532	228	2030	1892	-17340	-16	2680	2248	11921	2789	-20224	-3236	4296	-4308	11755	-3146	-32768	-10508	10376	20987	-31109	32767	-24800	3584	-20452	15408	-32768	1818	-14084	-2016	6684	16959	1831	5597	121	128	1
-10396	-6444	11760	147	2560	3828	-17792	448	900	3958	13648	3577	-18560	-4028	6136	-4471	11088	-3711	-32768	-20776	2752	15871	-30094	32767	-24740	-4396	-20176	7696	-32768	386	-15872	868	12500	14349	1381	7908	122	132	1
-10420	-5488	13212	-176	4718	4981	-17200	1172	-224	5088	15531	4578	-18276	-2312	5924	-5223	9456	-3087	-32768	-20684	-11644	8184	-21640	26211	-17992	2988	-21536	3060	-22401	2589	-18244	2352	15992	-545	-471	9526	123	129	1
-10360	-5260	14124	57	9058	5808	-18724	5108	792	5337	17540	5656	-20076	-2268	4880	-5599	6600	-2032	-32768	-30856	-21380	2143	-8449	15654	-9856	1268	-25048	-5645	-10048	4554	-15556	-7260	24340	-4613	2708	6274	125	122	1
-10696	-4944	14984	-240	13807	5896	-19360	5276	-540	8810	19533	6292	-19716	-3916	2612	-4515	2255	-977	-32768	-32768	-19528	3363	6179	9512	-6404	864	-23572	-8020	6468	4224	-13356	-6604	23916	-3123	-2324	2022	125	120	1
-10760	-5448	15984	17	20952	7631	-21588	6404	-3240	11014	20338	6540	-19684	-3740	804	-4809	-166	337	-32768	-21788	-9580	-9555	14790	2348	-11684	1252	-22388	-13374	18680	2701	-18156	-1700	14716	-4397	-2792	2593	118	131	1
-7376	-6308	15632	714	28284	11194	-22776	7232	-2332	8901	20904	6197	-20332	-1452	3424	-7851	-1917	1473	24524	32767	32767	-5364	169	-9133	-32768	-23268	32767	-4429	8242	-3006	-15444	-2960	-2780	-12251	9196	4255	119	124	1
-7204	-6080	17136	1054	32767	14220	-27892	7680	48	4534	21450	6638	-25932	-1924	16620	-2993	-13249	1934	-7640	-22024	-364	-29352	10302	-32768	40	-2324	-16908	-32768	1468	8591	-20428	-6404	5276	-8478	16918	2019	139	123	1
-7672	-8952	16096	2816	32767	18434	-30236	9368	10336	-671	22848	7023	-21704	7896	20572	-827	-18170	4124	-17272	-4964	21780	-245	26777	5865	-25452	-22912	-2736	-8850	15938	-5193	-15636	-8836	8280	-22170	6812	-3079	120	129	1
-11388	-10860	15276	4567	32767	25026	-29652	9444	13072	-2253	23498	6842	-20768	14232	15512	-8891	-17425	7436	-18628	-9396	19956	391	21961	-10413	-20600	-6268	-4720	-5872	17338	5517	-16880	-24016	5000	-2820	10495	-1195	122	121	1
-32768	-7164	9036	-989	32767	28215	-26684	3276	-10388	-10854	32467	5090	-21204	888	3828	-32353	-20560	7682	-19424	10348	11236	24	17019	-6163	-20480	1240	-4776	-3012	17269	7042	-16272	6364	-9396	20494	11682	-1065	118	127	1
-32768	-8868	10788	-1463	32767	26711	-30660	1864	-9456	-531	28808	8412	-25436	-8840	-17132	-32768	-20243	4283	-12916	3796	10912	-8961	7442	-6596	-19352	11720	-6472	-8641	13911	6615	-18520	21708	-8328	8766	10059	7015	137	138	1
-28288	-17292	24764	-5682	32767	25101	-24864	1312	-4428	-6060	24957	8481	-28772	-16048	-16156	-9921	-22829	-5363	-15520	7404	10596	-6926	4603	-5555	-17588	3140	-5360	-9628	10876	2898	-19384	7208	-5088	-6962	9374	7983	135	149	1
-24396	-19360	26060	-6718	32767	24649	-15600	-512	-15520	4674	14979	7117	-28172	-12072	-6588	9811	-25633	-3747	-13488	2944	12168	-5345	2274	-5096	-16568	-2252	-3916	-3530	10079	2152	-14960	3292	-4388	-6000	10514	4510	140	141	1
-16516	-19080	22860	-1416	-27952	1733	-10068	-2684	-6756	-1709	3646	6276	-25996	-4228	-3388	14636	-24624	-3599	-12288	2448	12596	-4002	1312	-4561	-17320	-2692	-3532	4489	10444	2757	-16316	2336	-2652	-3978	10533	3504	133	128	1
5184	-14220	17704	-2784	-32768	-5638	-11164	-1148	3820	-7905	-4543	2151	-24876	-5680	-4220	8680	-22897	-6066	-12524	3140	12440	-2692	767	-3545	-17808	352	-3460	4869	9721	2256	-17268	852	-1188	-4909	10193	2923	133	127	1
4256	-11060	11092	-2077	-32768	-3612	-8736	-2472	2000	-6888	-14121	-2549	-20140	-5436	-7312	8160	-19626	-6634	-11092	3132	12672	-1726	839	-2301	-17504	-2032	-2720	-734	7274	1643	-15128	-1632	-1640	-5984	11357	3934	125	129	1
-3536	-10024	8440	-1693	-32768	-6224	-6316	-2116	-2676	-1203	-22849	-3326	-15816	-3388	-7764	11695	-16919	-6367	-11664	2436	11792	-422	1221	-1531	-16956	-1956	-2804	-1942	6047	1491	-14948	-1956	-2688	-3854	11153	4802	138	125	1
-7684	-11388	7484	-917	-32768	-12049	-7952	-592	-5404	2314	-31403	-3868	-13660	-2844	-7648	14527	-14630	-5505	-10916	4140	11864	69	1412	-1677	-16104	-2324	-1560	1387	6019	1969	-15872	-1516	-1432	-851	13345	4996	132	134	1
-9760	-10160	8800	-537	-32768	-17344	-9996	1476	-5564	-2873	-32768	-4245	-12944	-4124	-7532	16957	-12952	-4901	-10916	4736	11104	-310	1458	-2122	-16600	-1212	-1388	5377	6064	2179	-15516	484	-1140	5731	15001	5231	126	129	1
-16068	-7392	7940	-3512	-32768	-22335	-11056	1652	-5196	-3614	-32768	-5662	-12772	-4328	-7964	17105	-12587	-4817	-10528	4984	11256	-521	1701	-2828	-17256	-1360	-296	6038	5861	2665	-16400	1612	-732	6433	15917	6182	127	132	1
-17628	-9588	8300	-4952	-32768	-24064	-12072	2320	-5828	-7780	-32768	-8313	-8116	-256	-9152	24298	-10376	-3312	-11328	3960	11684	-1555	1735	-3669	-16748	-376	-1200	3108	5067	2326	-15072	-216	120	8230	17780	7123	127	135	1
-17184	-9392	9020	-4518	-32768	-22738	-15828	2656	-5936	-8472	-32768	-11607	-6908	2628	-9520	23030	-10317	-2214	-11848	5372	10840	-2598	1233	-4099	-17296	496	-164	1479	5391	2282	-16964	528	1216	10199	19891	7952	131	131	1
-19984	-9472	12656	-5896	-32768	-24319	-18344	3928	-8048	-4670	-32768	-13288	-6636	3004	-8648	15749	-7114	-1404	-12208	3128	11772	-3668	682	-4475	-16632	-2144	-2300	3094	6962	2224	-17440	404	1076	5139	20658	7650	131	134	1
-28108	-9328	17808	-9591	-32768	-29511	-23052	7252	-10852	-4468	-32768	-13326	-8372	4036	-6652	7282	-4029	-1354	-13080	1252	12236	-1676	651	-3318	-17204	-4808	-2856	9774	9775	2944	-15452	-2544	152	2948	21339	8136	133	135	1
-32768	-11096	20436	-12752	-32768	-31276	-28724	8468	-13240	-7961	-32768	-15980	-8904	6292	-4224	2608	-1151	-1838	-12244	3228	11964	-806	1425	-2138	-16524	-196	456	10142	12010	3900	-15680	-1732	1072	1216	17832	7895	130	134	1
-32768	-1524	16256	-15859	-32768	-31833	-27760	9128	-17296	-11228	-32768	-17429	-10568	2560	-372	2879	-872	-2798	-12084	3808	11728	-883	3005	-1901	-16300	1800	3224	2413	12139	2295	-19680	716	3700	508	11178	5508	127	133	1
-32768	-600	8496	-17023	-32768	-31049	-27756	9344	-20512	-9444	-32768	-14978	-14196	-5344	5196	-3005	645	-5466	-12424	4772	11912	-1967	4120	-4794	-17412	2012	2332	-2911	13067	1719	-19772	1852	5360	776	7597	4681	130	133	1
-32768	4036	-2636	-8519	-27680	-25997	-24100	9928	-24564	-7958	-30263	-12749	-21180	-1012	22476	4465	-9140	-8277	-12476	5040	12776	-5072	6141	-6084	-19436	360	432	-6064	15284	690	-19852	620	5948	1531	6017	5786	126	132	1
-32768	18136	-17996	-3998	-20707	-17056	-11004	8584	-28840	-2981	-18329	-11383	-18772	-4	32000	-1865	1215	-9393	-12464	3776	14892	-5405	9867	-8084	-19080	-3052	-1540	-6826	17714	688	-19524	196	4336	4691	6238	4234	119	131	1
-32768	32767	-28416	-15252	-5374	-8171	-2548	7952	-25940	520	2412	-4687	-13112	2024	30032	-9552	-2996	-328	-11072	1684	16112	-6452	14384	-9387	-21052	-4452	-4060	-7413	19157	851	-20320	1640	-824	4820	5796	2556	120	129	1
-32768	13204	-19328	-717	12026	2207	-6844	7260	-24232	5163	18319	2639	-14344	-6296	18408	-2230	-5817	1150	-11492	1572	15676	-8492	19624	-9355	-21612	-3888	-2644	-8052	19989	1109	-20752	1248	-1296	4691	2274	881	121	127	1
-32768	-32768	32767	14665	-4592	5326	-31356	12908	32767	-16689	21762	9582	-12936	-5936	-2712	-3766	8217	-39	-9564	2036	17436	-9010	26075	-10704	-24008	-5940	-1328	-7196	20803	1703	-21492	-1348	5200	7192	-3632	-1045	134	125	1
17016	-872	2316	6686	24745	18224	-18224	1628	7084	27746	4819	-5705	-26052	2260	5016	-4371	7457	2616	-8656	4740	18564	-9561	32767	-13425	-28784	-10220	4232	-2204	22749	2291	-25460	-6500	13760	5943	-14458	-3514	134	126	1
-26220	23212	17736	531	25096	5604	-6328	24016	-5000	12382	13576	10432	-8512	-860	6484	22970	-2214	856	-8916	5948	19416	-10972	32767	-15306	-31152	-18320	13868	10080	26930	4633	-18572	-23372	15436	3898	-18067	-12960	125	127	1
-22848	3704	18516	-4586	25816	7783	-28880	13436	-6332	1754	18438	3377	-23404	14980	7428	14087	13455	349	-24840	2772	16524	-10432	32767	-24837	-29224	-7916	3112	14774	31227	6217	-20792	-16052	13792	9458	-19696	-16647	129	129	1
-17692	-11112	13344	-5536	19081	11734	-20100	1700	-4028	2473	19688	2386	-17108	6068	-2856	-9411	10338	3434	-32768	3204	9260	-2931	32767	-24531	-31940	4456	-6888	5908	32767	4806	-20280	3632	-1460	32767	-12299	-14470	134	132	1
-17736	-12008	11760	1423	13274	7979	-20300	-256	-7228	8256	16146	893	-16928	-12816	-6388	-13864	9087	-345	-32768	6548	16060	-4277	32767	-30908	-26400	3392	-6304	-4070	22615	4615	-29580	6304	-13244	32767	-10718	-7712	126	129	1
-8944	-20220	17736	5682	11354	6814	-17608	-2612	-7440	5812	14058	1837	-15232	-10500	-7000	-7469	7816	-4501	-32768	5312	18800	-2153	32767	-30514	-21204	2504	-3648	-8930	18152	1653	-32768	5224	-16660	16660	-22136	5391	114	137	1
-14128	300	13896	11153	4360	9983	-18404	-5056	-11832	5672	14080	963	-15732	-12908	-7716	-3884	9448	-4036	-32768	4868	18860	4153	11666	-15419	-14912	3272	-12952	-2547	11208	1581	-30468	6528	-8208	3722	-32482	1924	122	139	1
-14568	-6112	13020	8418	1823	7191	-17592	6436	-6440	1901	9006	1502	-15604	-7764	-6472	6637	15695	-2327	-16348	17196	21940	3874	-31244	2606	-11496	2824	-460	4963	1705	-2490	-28808	720	-1368	627	-32704	312	138	128	1
-12516	-4456	12560	5122	982	5193	-17580	5928	-4484	-274	8009	1308	-16904	-1376	-2216	9986	15879	-307	648	12376	14344	1177	-32768	7836	-9036	556	1812	3124	-8426	-1125	-25652	1852	-6900	4283	-23733	2120	131	125	1
-11188	-3044	12980	2133	1377	2159	-16980	7184	-2892	524	6539	576	-16176	1568	-1212	9371	14497	26	724	6332	10764	2202	-32768	9008	-6648	156	-848	1474	-16612	-3073	-19684	1328	-9084	3444	-19629	2759	130	125	1
-10656	-3344	12812	1643	1192	1780	-16544	5352	-2116	1526	5453	-897	-16136	2388	-1332	7453	15637	-830	-5872	4952	8748	5846	-32768	11479	-5312	1928	-3044	1536	-23214	-5249	-14876	1852	-9420	-225	-18258	3117	122	123	1
-9952	-4408	11780	-106	1219	-89	-16208	4660	-1820	4236	3478	-1565	-15880	1996	-1428	2939	16824	-1609	-9016	4904	8424	9893	-32768	13840	-7432	832	-3324	4514	-28878	-6205	-13408	2716	-10204	-5832	-18459	2376	119	121	1
-8860	-5852	11080	-666	1251	44	-15500	2632	-224	998	4035	-947	-14860	544	1272	-3443	15716	-1778	-12248	2552	9368	13802	-32768	15752	-8436	152	-4952	8610	-32768	-6508	-10828	3540	-8604	-8157	-16944	2169	127	121	1
-9288	-6476	10340	103	1260	1177	-15508	2188	-964	-5470	6432	-1118	-15432	-2800	2140	-8115	16400	-2016	-13192	-24	8300	20277	-32768	18501	-11084	-1172	-4484	10693	-32768	-6438	-9592	3920	-9228	-13643	-14310	781	125	124	1
-10204	-6068	10784	1230	1097	2076	-16928	1112	-1236	-4757	6503	-891	-14752	-3448	1496	-9930	20241	-2480	-13196	2376	9668	23063	-32768	19450	-13540	-2056	-5052	9515	-32768	-6020	-7644	3064	-9700	-21603	-14269	-1173	132	121	1
-9768	-5612	11388	1664	1111	2346	-17000	3112	-692	-1690	5920	-339	-15012	-2156	1792	-8023	23110	-3380	-20632	1996	11260	22653	-32768	20107	-16260	-1584	-7392	10883	-32768	-4550	-5532	2120	-10236	-23163	-14200	-1883	126	121	1
-10708	-4660	11596	1547	803	2113	-15828	2472	-2352	-494	6758	227	-15904	-1452	1228	-3272	21367	-2579	-23336	2876	12884	21764	-32768	20563	-18764	-528	-10276	11535	-32768	-2761	-5348	-636	-6772	-19271	-12999	-2791	129	123	1
-10592	-4760	10860	1840	544	2024	-14916	2024	-1596	-1859	8519	678	-15796	-2568	-104	-3987	18388	-2018	-27596	-432	17748	23321	-28291	23573	-24424	-3484	-14180	8447	-32768	-2976	-8040	-5836	-3832	-10089	-10686	-4360	126	125	1
-10280	-5640	10768	2010	26	2570	-14784	-32	1444	-1293	10017	784	-17256	-3600	3564	-2208	14298	-2880	-32768	-1088	19280	21894	-30830	29568	-25388	-4040	-13752	13480	-32768	-3336	-9808	-5684	-2532	-4800	-7545	-2817	123	126	1
-10372	-4520	12152	1218	909	2177	-16736	1332	336	1738	10851	2446	-19492	-3716	6592	-181	12799	-3728	-32768	-7856	13588	20263	-32768	32767	-24692	-1512	-18080	18011	-32768	-2487	-10112	-56	2984	8900	-1515	3720	121	129	1
-10288	-4904	12296	1028	1090	2012	-19020	1688	360	2057	12897	3311	-18976	-3016	5624	-505	13725	-3805	-32768	-8468	6240	14224	-32768	32201	-26816	2888	-19628	9184	-32768	-2625	-14348	2748	5460	11203	3311	7867	123	131	1
-11176	-5836	12568	-445	3123	3459	-17744	884	396	2563	14858	4351	-18884	-2376	4120	-2742	10789	-3342	-32768	-16900	-6184	7103	-29359	27195	-23324	-16	-21672	2438	-30999	-984	-18216	-3204	12180	-1407	91	6557	121	126	1
-9248	-4944	15636	920	7635	4982	-19412	3276	1996	4844	16655	5024	-20440	-572	3700	-5515	5871	-2772	-32768	-23688	-19576	5521	-17132	21497	-14444	3140	-25000	-1549	-18974	2682	-20688	-5928	24604	-5384	278	4727	125	122	1
-11248	-5912	14716	2038	11516	7296	-19244	1936	864	11243	17950	6332	-20076	-5132	6300	-7641	1996	-2407	-32768	-32768	-24016	7588	-1962	12432	-8812	2872	-24264	-3310	-1922	4698	-15504	-10976	27176	-3452	-396	2586	124	119	1
-10884	-6620	16636	2824	17523	9308	-21068	5092	-2536	13707	19540	6848	-20396	-6712	4944	-5698	714	-675	-32768	-26248	-17312	-2147	8798	1550	-9780	4036	-22676	-7714	14011	4400	-16536	-2740	19028	-1296	-3335	1932	122	122	1
-7740	-6476	17320	3977	24366	13158	-24752	8272	-2768	8813	21059	5812	-21312	-3580	504	-5836	224	551	-8292	-8620	32767	-15618	6311	-12695	-23012	-11108	17008	-13458	17820	-467	-11180	1580	2908	-1903	6832	5465	121	116	1
-9892	-6328	17300	4279	32003	16788	-24680	9012	-524	4544	21992	4974	-23256	88	5680	-8604	-4692	2504	32692	32767	32588	-3510	5437	-16992	-29880	-13856	19668	-10408	1159	9122	-17988	-3740	-3584	-6957	23814	5155	123	127	1
-4912	-3132	18880	6407	32767	18557	-30536	10796	5508	1347	22497	6599	-26536	-536	25048	3138	-26299	2303	-26528	-32768	7300	-10237	21847	-4413	-2756	-26296	-11624	-15771	11038	-2608	-14476	-7160	3028	-2899	7146	-3815	118	130	1
-6464	-10192	16612	7033	32767	21075	-27912	15660	14488	-6079	24904	4713	-21656	20356	19444	-3155	-18283	7031	-14256	896	18028	-3330	18175	-6513	-28912	-6120	-6504	-10881	14706	5341	-21280	-21372	6500	-18381	6690	-835	121	128	1
-32768	-6896	10436	-1565	32767	19820	-22224	6000	-5192	-18855	32767	2004	-19240	14056	15660	-18301	-20741	9923	-25796	11688	12812	3376	21938	-7305	-20652	-1796	-3764	-1575	17194	5887	-14256	-10196	-3532	8843	13730	-747	125	130	1
-32768	-4912	4436	-861	32767	26467	-32768	-2740	-11192	-10308	32763	5934	-22864	-6256	-14684	-32768	-20715	10135	-16792	15404	11876	-1762	15683	-4837	-21576	2720	-3304	-659	17340	6313	-17384	19456	-9340	17091	12105	1290	122	112	1
-32768	-17208	25556	-3791	32767	25402	-26012	-764	-7012	-5066	26717	7198	-28920	-19156	-20232	-27569	-19589	-3444	-14636	2476	13596	-9566	7618	-7792	-18840	7316	-3372	-11838	11046	4398	-19664	20456	-6004	928	9552	8155	133	131	1
15740	-20412	26980	-4779	23457	20867	-20332	-912	-11480	4313	17641	7362	-28620	-19252	-9728	12591	-25215	-5996	-14924	5956	11160	-8626	2923	-7285	-16456	1232	-4540	-9095	9342	1557	-14148	7824	-6056	-9616	10012	6206	138	133	1
-20748	-22668	24096	-5971	-17807	6472	-12204	-3164	-10180	-270	6489	5410	-27344	-6884	-4468	17254	-25734	-4024	-13768	4616	11480	-8731	2572	-7481	-16716	-4916	-4316	-803	9597	1673	-16916	-1556	-2868	-10144	9602	3402	137	126	1
2424	-18228	17648	-7315	-32768	-2875	-11060	-2452	3816	-6821	-2632	2840	-25616	-2732	-3532	11413	-22995	-6051	-10996	3272	12588	-3191	677	-5363	-17836	-2604	-3136	6411	10602	2320	-15796	-1488	-1108	-5728	9228	2788	131	131	1
4532	-14488	9820	-3689	-32768	-3205	-7872	-1572	1676	-6055	-12684	-2786	-20740	-3524	-6812	7085	-21084	-7290	-9952	2948	12688	-3059	1742	-3806	-17508	-2840	-2616	3389	8902	2556	-16876	-1200	-1384	-5706	10695	3126	119	129	1
-2692	-11876	7920	-737	-32351	-7433	-6440	-1348	-2272	-2651	-20980	-4226	-17352	-1848	-7464	9375	-18005	-6820	-11980	2636	12576	-2215	2303	-2635	-17836	-940	-3528	-2855	6369	1746	-14912	-688	-3260	-2440	11827	3928	133	126	1
-7184	-10324	7516	-1037	-32768	-15089	-6736	-616	-4524	887	-28306	-5043	-13812	-980	-7868	11638	-15772	-6389	-12872	2984	12152	-795	1846	-1729	-16536	-2864	-3316	-1976	5509	1129	-16232	-876	-3124	-3042	12951	4621	135	134	1
-9508	-10168	8220	-1247	-32768	-22412	-8864	1288	-6044	-2048	-32768	-6371	-13244	-2664	-7492	13095	-13943	-5323	-12308	2396	11824	-29	1421	-1252	-14912	-3692	-2884	3493	5951	1720	-15068	-1608	-2040	-229	14886	5415	128	127	1
-13740	-7176	8948	-3041	-32768	-26504	-10916	1096	-4212	-4629	-32768	-7991	-12084	-3132	-8972	15014	-11176	-4780	-10624	5272	11328	850	1391	-1246	-17740	-428	108	7947	6445	2477	-15456	-296	228	6254	15295	5226	127	127	1
-17548	-6804	9204	-5631	-32768	-26865	-11140	1972	-5972	-3646	-32768	-11155	-9388	-872	-10568	20588	-10268	-4243	-9716	6108	11476	-638	1831	-3030	-17544	316	-4	3509	5164	2283	-14484	1516	-1424	9826	17415	6114	126	128	1
-17448	-6228	10972	-7382	-32768	-24908	-14844	4300	-5868	-4410	-32768	-13472	-6456	1816	-10096	22098	-9659	-2544	-11420	4080	11348	-1669	1960	-3927	-16612	-1336	612	821	4637	1663	-15444	40	-448	9223	19470	6315	126	126	1
-19960	-5132	14568	-10155	-32768	-25479	-19180	6748	-7868	-3371	-32768	-14362	-6048	2168	-9560	17582	-6762	-1713	-11944	7916	10672	-3384	645	-7215	-17108	1488	-256	2102	5169	3115	-16172	2100	1508	5527	21329	8416	129	130	1
-24380	-1820	18428	-15652	-32768	-27579	-22804	12496	-9244	-6509	-32768	-13308	-7472	1604	-6392	12286	-5224	-1395	-12624	900	11536	-4567	-1635	-6369	-15448	-1504	-780	4638	7545	2590	-15216	960	2748	940	18319	8373	130	133	1
-32768	-3308	21192	-20548	-32768	-26050	-26216	11888	-12220	-16383	-32768	-15001	-9380	5384	-3392	6797	-4587	-2550	-11912	1092	12344	-4244	-1776	-5189	-16720	-1544	612	4695	10023	2606	-16496	-1904	3840	-1716	15399	7510	129	135	1
-32768	-4212	15928	-15935	-32768	-22606	-29296	9148	-18100	-15954	-32768	-17097	-13020	6204	3512	6841	-7310	-2655	-12128	1984	12436	-3091	-19	-4219	-16324	-1284	1632	1175	12377	2409	-19224	-2024	5164	-1269	12646	5737	127	134	1
-32768	3152	6320	-10649	-32608	-22597	-23084	9384	-23540	-6380	-32768	-14021	-15716	-3864	10388	-5358	-3936	-4155	-12512	2396	13424	-2666	2189	-3691	-17432	-1568	896	-1318	14966	1695	-20288	-2028	6124	-2734	10801	6287	127	133	1
-32768	9736	-4692	-7782	-30595	-26666	-20780	11132	-24728	-4929	-28568	-10231	-15868	2836	15408	-4692	-3126	-4583	-10424	3068	15572	-3396	5106	-5179	-20276	-3220	-912	-1444	17244	1312	-19428	-2000	2212	1635	10806	6404	126	133	1
-32768	14544	-16792	-2523	-20980	-23519	-13756	9236	-25672	750	-17685	-8385	-16864	-476	21620	-1770	601	-5081	-12472	2068	14628	-4371	9505	-5365	-19304	-2516	-608	-4199	18911	648	-19620	-600	1092	5873	7394	4434	123	131	1
-32768	28124	-23220	-3218	-6914	-13863	-7092	8120	-24580	3157	-2470	-4423	-15312	876	23108	-7233	96	-2054	-11892	4136	15504	-6768	13653	-6793	-20604	-1104	-1396	-9215	19369	90	-19584	2996	2060	4723	3214	1022	120	130	1
-32768	23656	-17232	-493	6642	2082	-6820	6136	-23672	3498	12043	311	-13732	-5004	18976	-5499	-3200	-117	-10228	4056	16728	-7728	18814	-9947	-23132	-3888	-2616	-9347	20076	292	-19832	4296	1884	3692	2174	-79	117	129	1
15108	-7700	23540	13030	731	10822	-21036	6904	8284	-11903	21151	5613	-13040	-5660	18192	-4524	-3020	-442	-10444	3700	16624	-9453	24894	-12025	-23480	-5108	-952	-6858	21075	1449	-21460	1052	3680	7008	404	-1999	119	127	1
32767	-21160	32040	793	16046	12951	-32768	2128	32767	5645	5289	-1826	-18636	4300	-3904	-4913	17319	2482	-7276	3224	18612	-11152	32767	-14740	-27784	-7852	3160	-3922	22932	1269	-25540	-4288	12980	4808	-11626	-2686	135	127	1
-23512	19936	7040	2480	23596	15426	3992	27080	-13288	9256	11311	3410	-19380	5428	6120	4090	4265	5428	-6748	5876	19992	-12610	32767	-17068	-29676	-19856	12592	4880	26114	3468	-18460	-21972	13260	-755	-18104	-11113	125	129	1
-23172	-9836	17124	-6917	23626	2372	-31704	1116	-3664	-6124	18773	5869	-21524	1660	12172	10805	8418	3600	-14616	1856	19156	-12591	32767	-21643	-27500	-15264	11852	17041	31081	5207	-18556	-21472	15760	3388	-19434	-16983	130	131	1
-18988	-12560	13460	-7079	15882	11877	-22824	4320	-4188	2103	17514	3060	-20468	7260	2868	-4973	11819	1678	-32768	-884	8016	-4704	32767	-25108	-30344	5924	-8932	10681	32767	4810	-18564	3524	1656	32083	-10852	-15005	142	134	1
-16636	-12392	12044	1725	11843	6381	-20332	228	-6136	8477	15536	818	-16612	-8932	-5300	-15181	13258	-778	-32768	11452	13104	-9838	32767	-32768	-28956	8200	-5360	-3859	25428	2130	-29608	10420	-12268	32767	-8153	-9910	127	129	1
-8756	-5456	11464	735	11075	6628	-15108	4360	-4804	5265	13165	2020	-12008	-11492	-10500	-9294	11447	-2984	-30076	13344	27284	-548	32767	-31944	-22408	3316	-1180	-14163	16647	469	-32768	6044	-17712	13520	-20133	5245	128	135	1
-15564	-8592	12268	9711	8504	7379	-18500	-3832	-8480	2584	10762	19	-13996	-14788	-13052	-10128	13146	-148	-32768	4928	17656	-1641	19632	-21710	-17036	5540	-13524	-10557	10401	133	-28672	8264	-9396	-1474	-32768	2065	137	140	1
-15476	-7364	12736	5160	2506	4262	-17796	6864	-6284	-1400	8623	2022	-18104	-6176	-4372	4715	14289	-2987	-25064	18824	22696	4680	-30609	3200	-11416	4896	-1180	794	2361	-4782	-29076	-592	-112	-2843	-32768	-139	152	130	1
-11228	-3952	13324	1786	1318	1380	-17948	6508	-2916	-2920	7871	1564	-16140	-1720	-2232	7582	14886	597	-1332	15680	15424	586	-32768	8861	-11424	364	3044	-1091	-9062	-2700	-26584	892	-6260	3722	-24649	3003	127	132	1
-9272	-6084	11588	464	1205	-73	-16944	2780	-1084	-1166	6720	474	-16196	-100	-336	5312	15103	1749	1896	8440	10580	-327	-32768	10666	-6756	-1252	1032	-926	-16797	-4684	-19860	3068	-8860	4099	-19809	3313	121	123	1
-8452	-6500	10824	387	1282	-23	-16132	2156	244	2704	4867	-38	-14924	-512	-136	1864	16956	-230	-6296	5064	8424	3192	-32768	11906	-5988	1928	-2240	2378	-22527	-6741	-14372	2440	-8780	-824	-18635	3562	114	121	1
-8296	-7084	10048	1044	2112	833	-16456	1892	-276	4241	3872	118	-15244	-764	388	-910	16395	-1684	-8052	4440	8108	10606	-32768	14679	-7672	2216	-2552	5277	-27908	-7630	-12492	3248	-9868	-6805	-18117	2648	122	118	1
-9580	-7108	10396	2212	2343	2135	-15000	1784	-1512	-1638	5399	293	-15132	-2740	2136	-3949	16915	-1660	-12308	5276	8404	14871	-32768	15922	-8800	1656	-3804	8963	-32768	-7362	-10572	3352	-9352	-9424	-16553	2505	127	121	1
-9656	-6396	10748	1988	1509	2529	-16392	2012	-676	-5658	6811	566	-14616	-3108	2456	-4175	17873	-3041	-16160	3772	9276	18618	-32768	17826	-10860	1576	-4560	11134	-32768	-7001	-8972	3760	-9780	-12990	-13919	2121	127	122	1
-9752	-5320	11428	1758	1366	2095	-16320	3056	436	-2810	6587	926	-15580	-288	1736	-3698	17839	-2345	-14768	4332	8992	21694	-32768	19996	-13904	-96	-3380	11392	-32768	-6414	-7760	4472	-10532	-18723	-12640	771	131	123	1
-9852	-6044	10976	1710	1643	1866	-16100	2292	-736	-410	6465	1030	-15004	-1416	1704	-4170	18277	-1567	-15296	4152	11092	24792	-32768	20344	-17564	-1264	-5780	10333	-32768	-3300	-6248	3992	-12696	-24562	-12245	-380	123	121	1
-10176	-6408	10648	2036	1426	2189	-16108	2048	-872	-1628	7459	1274	-16848	-2404	1780	-1505	18285	-2826	-24732	4644	14152	25142	-29697	20476	-21164	2292	-11660	9625	-32768	-2414	-6592	-1556	-10208	-22451	-12097	-1869	124	119	1
-10276	-5864	10984	2219	1617	2703	-15056	2360	-1068	-2280	8902	1168	-17568	-2148	812	-2277	13515	-2878	-32768	2308	19748	25821	-27663	25282	-27416	-3692	-17356	7460	-32768	-2439	-9072	-7584	-4088	-13092	-13275	-5099	122	121	1
-10720	-5328	11588	1965	2041	2670	-16832	2044	-192	-910	10467	1711	-16444	-540	3652	-4260	12607	-3037	-32768	-8736	17208	26784	-30951	32767	-24668	-6052	-18416	17253	-32768	-1417	-9832	-5324	-1144	-4424	-7942	-1398	120	121	1
-10660	-5564	12204	834	2898	2310	-17044	2100	760	692	13177	2952	-16616	-464	4084	-4390	12866	-3083	-32768	-7856	13112	23003	-32768	32767	-27536	3036	-21444	19350	-32768	790	-11740	820	4112	12876	-1318	5775	120	125	1
-10468	-6092	11988	270	3890	2503	-16684	520	1100	1590	15603	3834	-17836	-2644	5712	-5269	13956	-3050	-32768	-17364	4264	14703	-32768	32767	-26592	-1632	-21452	7645	-32768	-533	-15532	-564	10840	11555	1577	8658	121	127	1
-10416	-7896	12484	-513	5406	3312	-17912	-968	20	4649	17392	5022	-18612	-2844	5852	-4065	11008	-3117	-32768	-22556	-11692	10482	-25282	27986	-20416	2624	-23012	4110	-26654	1887	-19744	-2112	19868	1528	-2438	6900	119	123	1
-8352	-7560	14828	-91	9819	6106	-20480	3568	456	6412	19031	5436	-20388	-5464	2340	-5047	6456	-2178	-32768	-32768	-23572	8326	-10629	15744	-10336	1784	-25912	-391	-11965	5660	-15740	-9180	27832	-4806	2306	5829	120	111	1
-11968	-4328	14940	-274	15264	7519	-19368	6968	-2152	9877	19623	6376	-20072	-5572	-812	-5600	2534	-892	-32768	-32768	-22440	9627	5138	6476	-5412	2996	-24276	-1878	7559	5826	-14220	-7280	26788	1519	-2062	2702	118	111	1
-8896	-4492	16080	-544	22841	7276	-21128	7952	-3244	9592	20204	6917	-20228	-2084	848	-5370	997	1174	-32768	-20876	-12144	-7627	14740	-2880	-11788	3140	-23776	-9790	20469	3677	-16720	-620	15408	-677	-3286	3116	118	124	1
-7800	-6112	15544	-1132	30124	9202	-22856	7788	-924	7937	20337	6644	-21236	1320	3176	-8121	-1282	2439	32767	21964	32767	-9063	789	-13227	-32768	-28332	32767	-3772	13313	-3860	-14892	1792	676	-7382	8384	7229	126	119	1
-6628	-6172	16892	-907	32767	11872	-27068	7896	1732	3950	21101	6680	-25732	-104	14936	-7716	-11309	3495	6348	-10572	-2596	-31396	13379	-26233	-2108	2104	-13920	-32768	-959	10560	-22600	-104	4340	-12570	18088	4838	127	126	1
-8756	-10300	17528	-489	32767	16370	-32524	8568	16236	-4173	24130	7547	-19888	7052	16624	-8987	-22758	2265	-3812	-17076	-3016	-31161	16117	-28004	-22008	-20332	-1852	-17748	13882	-6025	-13964	-3876	4808	-27124	5491	-3216	113	131	1
-19912	-12760	13008	-3853	32767	25315	-26436	5224	9320	-10205	30136	4792	-18248	12052	15012	-15205	-17532	7261	-12216	-21564	22104	-2128	19707	-14848	-18744	-6048	-5468	-18458	13946	5387	-15456	-21660	3956	-13673	8982	644	116	135	1
-32768	-12120	7908	-3419	32767	30083	-30548	1280	-15040	-6388	32767	6221	-23084	-2904	32	-32768	-19838	8064	-26720	19720	9384	-1905	15660	-13125	-22408	3652	-5296	-6893	16195	7381	-16836	760	-5764	10942	9930	-2115	117	121	1
-32768	-14624	19200	-5689	32767	28715	-32376	2472	-3576	-43	28179	8697	-27844	-14256	-22040	-32768	-19592	4324	-30320	8828	8476	-11455	6902	-11243	-21504	15804	-7548	-9277	13548	8249	-22708	20908	-8696	8530	8456	5767	120	122	1
-19252	-18624	26044	-10071	32767	25024	-25136	504	-3396	-2714	24977	9687	-29112	-17352	-13192	-2521	-23495	-6583	-15828	3484	11884	-9104	4013	-10123	-18100	2420	-5720	-12127	9848	3789	-17992	11032	-5860	-7088	9917	11435	129	130	1
-32768	-18824	25128	-4700	16174	23314	-12764	588	-10900	4854	12787	8076	-27448	-11228	-7380	14512	-26395	-4626	-13916	-460	12996	-7046	2023	-8500	-16760	-3268	-5416	-5900	9371	2376	-15696	1440	-3556	-9551	10776	6090	137	136	1
-12424	-21232	23976	1281	-32091	1829	-11704	-5160	-1760	-3153	2043	6926	-27900	-2124	-2248	15313	-26039	-4949	-12332	240	13692	-4245	1310	-5830	-17948	-5816	-5588	3379	10381	3310	-15588	-3204	-3648	-5971	11673	4716	128	134	1
4704	-16020	16492	3520	-32768	-4133	-9672	-1460	2208	-2992	-7477	459	-25192	-4148	-5448	6581	-23599	-7356	-13140	728	12916	-1881	969	-3294	-17392	-1864	-4692	5887	10238	3820	-16444	-1680	-2696	-3063	11423	4244	120	123	1
560	-10164	10816	3212	-32768	-5331	-6900	-1024	-364	-3579	-16538	-2431	-19692	-4232	-7892	6061	-20252	-7334	-10728	2240	11752	-1240	1338	-1659	-17636	-1484	-3028	415	7277	3645	-15440	252	-2692	-3071	13154	4659	131	126	1
-2344	-7496	8804	-163	-32768	-8141	-7060	-416	-2204	-2923	-25232	-4107	-16360	-2824	-8132	11032	-17894	-6309	-10816	3112	11756	-1265	1921	-1503	-17388	-104	-2664	-2871	4903	3123	-15452	1648	-2520	-4361	12501	5814	133	128	1
-6692	-7268	8644	-4682	-32768	-13549	-7204	1196	-5372	-4268	-32768	-4733	-13684	-1700	-7788	14217	-15060	-5152	-10956	3588	12172	-774	2007	-1266	-16140	-2932	-532	935	5340	2998	-17260	-304	-932	-6564	14268	6010	126	129	1
-9912	-8664	7356	-7275	-32768	-18262	-9228	2020	-4080	-7988	-32768	-6032	-12240	-2144	-8312	16072	-13104	-4302	-10388	4284	11816	-482	2363	-1766	-16028	-3756	1200	7442	6740	3922	-15380	-2904	648	-428	14406	6371	117	129	1
-15624	-10548	7040	-5973	-32768	-21350	-9544	2136	-3796	-8288	-32768	-6464	-9776	-1072	-9168	18948	-12186	-3268	-11572	3316	11580	-964	2508	-2662	-16932	-792	500	8888	7742	4275	-15880	-2860	2132	6640	14341	6585	120	133	1
-18456	-9708	8496	-3681	-32768	-22490	-13268	3224	-6020	-9785	-32768	-12154	-6516	1636	-9572	21769	-11933	-972	-12188	2988	11816	-1831	2491	-2948	-17152	256	-1892	4211	7359	3451	-15944	-480	680	13493	16921	8307	124	137	1
-17084	-7388	10920	-3594	-32768	-23624	-16292	4112	-6516	-5763	-32768	-14233	-6164	2232	-9204	19142	-11044	-664	-12868	1844	12236	-2316	1873	-2211	-16944	-1364	-2660	3413	8033	2742	-15504	-1028	-736	14586	19681	8897	126	134	1
-20324	-7308	16008	-6279	-32768	-27463	-20588	6304	-9240	-1665	-32768	-14071	-7684	1448	-7532	10617	-7445	-1345	-12144	4244	11852	-2078	1416	-1969	-17544	-1000	-1968	7995	9671	3433	-18728	696	1624	7223	21422	8933	124	136	1
-29952	-7184	20440	-10471	-32768	-31453	-24052	8836	-12452	-2240	-32768	-13010	-8600	2420	-6620	1523	-3430	-2339	-12400	3884	11508	-2286	1099	-2900	-17360	528	-2040	8955	10329	4308	-14432	7144	-3832	5821	21751	8785	125	135	1
-32768	-8396	21176	-12637	-32768	-32332	-27324	10812	-16040	-9718	-32768	-13719	-9620	2736	-4572	1973	-1315	-4089	-12756	2096	11780	-2242	2004	-2162	-16148	1124	-632	6198	10953	3177	-15852	6548	-4216	7234	20743	8927	122	136	1
-32768	-4996	14904	-11831	-32768	-30279	-28608	8284	-19728	-15176	-32768	-13716	-9944	-2792	-1456	-352	25	-4810	-10604	1352	14304	-1961	3496	-2890	-17640	-2108	1464	2996	12352	2164	-19512	-376	6104	827	9911	5736	124	132	1
-32768	-180	3008	-8784	-32768	-24374	-27644	10336	-22288	-10890	-32768	-13361	-15796	-4864	9176	1610	-115	-5929	-12112	2876	13872	-2183	6474	-2942	-19004	-1584	2372	235	15340	1173	-20156	-4736	8712	1900	10135	6364	128	131	1
-32768	9148	-11024	-8587	-31626	-18924	-20960	9496	-29116	-9008	-26925	-13202	-24156	864	25548	6829	-4038	-7487	-12580	5628	14172	-3435	10481	-5530	-20560	-1364	1776	-1349	17671	1474	-20428	-3492	6136	4937	8985	5162	120	131	1
-32768	29592	-26704	-16341	-18030	-11651	-7448	12156	-30712	-4703	-11110	-9851	-17592	5180	32767	-4661	2510	-2562	-10996	2952	15420	-6237	14458	-7881	-19992	-2388	-520	-4960	19436	1357	-20864	48	3704	6020	6060	3791	115	129	1
-32768	26448	-29080	-15312	3699	-6888	-1580	6324	-27320	-1920	11363	-593	-12516	388	26752	-7111	-5641	1709	-11396	2492	15940	-8328	19208	-9100	-21988	-3900	-1760	-8012	20401	795	-20772	4648	1084	5638	3875	1573	115	128	1
-940	-24684	8596	16051	11051	3553	-18316	2080	-2820	-7581	23071	5725	-13620	-7160	9692	-5026	-1172	153	-10688	3832	15920	-9674	25612	-10584	-22352	-4064	-1808	-8285	20540	816	-21100	2972	2896	7228	114	-909	116	126	1
32767	-16228	32767	10122	21558	5689	-32768	-11580	32767	2985	7708	1369	-20204	-2040	-5744	-3950	17905	677	-8816	3740	17864	-11277	32767	-14536	-27512	-6828	3636	-4056	22748	1930	-24980	-1468	11504	6872	-9828	-3017	123	124	1
-32768	22780	11664	16166	23420	25127	9648	27280	-18936	32767	3534	296	-21052	-3752	10292	7483	1820	-1944	-11348	6980	19172	-11945	32767	-17161	-30164	-17300	14656	7058	26755	2995	-18976	-16772	13852	-273	-19078	-9694	128	127	1
-8988	-5992	18644	-514	28797	3095	-26344	13448	-224	5402	17593	9758	-14968	7960	13804	30689	8422	516	-25608	4416	17272	-12256	32767	-27072	-28932	-10412	6048	14434	30924	6597	-20908	-21692	15784	6340	-18480	-15163	127	121	1
-19936	-256	18440	-3864	20224	15003	-30372	11896	-3968	4934	18441	6680	-20220	17648	1024	3711	12797	2539	-32768	852	13816	-4985	32767	-25665	-32768	928	-5904	6292	32767	4485	-20628	-592	6104	19517	-18242	-14692	138	129	1
-19980	-21804	11084	2938	14321	9506	-22596	-3780	-8968	8875	18228	843	-18596	-9236	-7140	-14796	9546	2198	-32768	7732	19316	-4788	32767	-29956	-30980	760	-6916	-4888	25832	3044	-28120	7144	-11992	32767	-9321	-8953	127	128	1
-12560	-2728	13052	5072	8743	8971	-16184	2908	-6644	13124	13112	1536	-12300	-17284	-11588	-8497	11621	-4895	-30572	13988	26880	3178	32767	-29279	-24256	3464	-908	-10625	18768	1733	-32768	4848	-14564	21570	-19426	3443	147	129	1
-12212	-14624	8004	11688	5415	8819	-16464	-2364	-7604	6656	11480	572	-15100	-8628	-8480	-2084	8959	-4881	-32768	-288	11780	-8509	18896	-25092	-17564	5416	-16928	-10765	11321	1518	-31760	6680	-11736	3657	-32768	3777	125	137	1
-12684	-3388	13328	8889	1050	8726	-16164	7512	-6240	2795	8655	1712	-16756	-7048	-5716	3703	14143	-5147	-23252	15324	22820	545	-32204	4160	-14004	-1632	-244	1132	3321	-3495	-30784	0	-1444	-281	-32768	-609	133	133	1
-11288	-2064	13976	5682	1678	5423	-18492	8344	-3724	338	8162	901	-16828	-132	-1400	6064	16038	-1616	1604	11664	17268	152	-32768	11230	-9900	-756	1792	187	-7462	-2193	-28096	-1516	-5496	2600	-28587	1507	136	122	1
-10928	-3704	13132	2330	1921	2056	-16808	7352	-2884	-749	7684	-257	-16652	356	-808	5880	16131	-1201	-1800	5712	12328	3724	-32768	13850	-8604	-620	1212	27	-8797	-2281	-19844	60	-8660	4956	-22171	2136	130	122	1
-9516	-3972	12444	-345	1180	153	-16932	4768	-936	253	6597	-947	-16148	1312	124	1549	16333	362	-5904	4036	10024	6555	-32768	15828	-6612	1992	-2884	2556	-22054	-5098	-17180	1588	-9148	1791	-20595	2431	119	120	1
-8960	-5300	11532	-945	1410	-203	-16104	2236	-428	2703	5369	-1441	-15976	-1020	1176	-189	16313	-370	-8124	3880	9456	10410	-32768	16286	-7540	2108	-3264	2243	-29417	-7338	-14320	6124	-9372	-4186	-20336	2196	122	121	1
-8236	-5820	11192	-1039	1486	413	-15500	1172	448	532	5612	-541	-14128	-2196	1784	-1702	15944	-1087	-11116	2364	8264	14056	-32768	17029	-9200	-72	-4436	5124	-32768	-8293	-12360	5592	-8876	-9494	-19417	1998	124	122	1
-8252	-6656	10480	309	1598	1760	-14628	1476	-128	-5982	8103	-433	-14260	-2892	2792	-4748	14437	-1407	-11864	664	8592	18389	-32768	18259	-11544	-1100	-5524	6818	-32768	-8415	-10904	5164	-10200	-17914	-17327	41	126	121	1
-9700	-5652	11344	2101	1080	2976	-16892	392	-564	-6072	8620	-104	-15320	-3788	1900	-6165	15792	-2220	-12372	636	9168	20816	-32768	18663	-12600	-2456	-5784	7264	-32768	-8718	-7424	1992	-10660	-23668	-17341	-2678	130	123	1
-10336	-4488	11852	2969	796	3177	-16408	2716	-1044	7	7300	563	-15972	-2276	764	-5377	17163	-2434	-16756	968	11056	21268	-32768	18775	-14868	-2232	-7360	8629	-32768	-8163	-5844	652	-10552	-23230	-15626	-4071	130	121	1
-9888	-4436	12264	2492	708	2725	-16416	3868	-1908	947	7884	815	-15256	-540	-64	-4315	17997	-1485	-22204	1192	13784	19638	-32399	19810	-17592	-1792	-10952	12305	-32768	-6531	-4780	-104	-7248	-18713	-13417	-4841	125	123	1
-9932	-5264	11656	2334	775	3158	-16416	1984	-2624	756	9694	361	-14304	-1708	-1216	-4499	20112	-1960	-26672	748	17648	20535	-30676	22740	-22484	-888	-13832	11889	-32768	-6368	-6896	-3392	-3468	-10424	-11783	-5633	125	127	1
-10440	-3600	12220	2036	660	3360	-16328	2092	-2560	38	9696	956	-16500	-3108	32	-1945	19049	-4122	-32164	-1112	17452	19147	-29595	25130	-23288	-1096	-14504	11347	-32768	-6329	-8928	-4312	-1996	-6250	-8088	-3828	121	128	1
