#Activity	walking 
#ActivityID	1 
#Date 09-27-16-09
acc_rf_x	acc_rf_y	acc_rf_z	gyro_rf_x	gyro_rf_y	gyro_rf_z	acc_rs_x	acc_rs_y	acc_rs_z	gyro_rs_x	gyro_rs_y	gyro_rs_z	acc_rt_x	acc_rt_y	acc_rt_z	gyro_rt_x	gyro_rt_y	gyro_rt_z	acc_lf_x	acc_lf_y	acc_lf_z	gyro_lf_x	gyro_lf_y	gyro_lf_z	acc_ls_x	acc_ls_y	acc_ls_z	gyro_ls_x	gyro_ls_y	gyro_ls_z	acc_lt_x	acc_lt_y	acc_lt_z	gyro_lt_x	gyro_lt_y	gyro_lt_z	EMG_r	EMG_l	act
-11060	-11888	9408	3923	-32768	-18609	-7072	-1804	-4224	2610	-32768	-8257	-10896	280	-8480	8985	-8118	-4181	-7856	5980	12872	2936	3772	-1440	-17392	-420	-2396	7709	5762	-34	-16776	3652	-80	8323	12148	-4972	130	121	1
-13960	-7328	9600	4078	-32768	-19978	-10096	380	-6492	10399	-32768	-8749	-10908	1968	-8088	13068	-7217	-2830	-8412	5956	12532	2553	4240	-1177	-16620	996	-3760	5519	5662	-884	-15448	5936	376	4858	13122	-4680	127	124	1
-17036	-9572	11600	70	-32768	-19998	-14448	1244	-7168	9884	-32768	-9225	-10192	3400	-8528	15213	-5340	-2199	-8228	5888	12116	2376	4218	-1401	-15716	1172	-1868	1385	5894	-1443	-15168	4160	84	2427	13009	-4454	138	146	1
-18152	-12824	14048	3555	-32768	-19877	-18040	1456	-9752	8007	-32768	-10601	-8500	2544	-7340	15923	-2370	-1987	-8584	7124	11780	1028	4066	-2649	-15448	2888	-3216	-2006	6461	-1145	-15284	4876	444	-550	11714	-3036	136	128	1
-22340	-12288	17832	6012	-32768	-19699	-25256	1556	-10436	9455	-32768	-12003	-7364	3660	-3836	13619	414	-2475	-8876	6752	11796	610	3501	-3167	-15064	1740	-3064	-4974	7635	-1524	-14748	3632	3412	-3994	10581	-1981	129	121	1
-26400	-15604	17976	9244	-29907	-17289	-25956	-1144	-10720	13410	-32768	-12432	-8648	616	-3876	9150	1968	-2227	-8368	6760	12528	600	3573	-3587	-15824	-652	-1544	-3237	9185	-1553	-14896	3768	3516	-4346	10646	-1999	128	123	1
-32768	-72	22276	1762	-27095	-20458	-25196	6912	-15620	11483	-32768	-8511	-10756	-3348	-1744	5973	3102	-4249	-8252	6768	12328	1076	5175	-4430	-17916	-408	-1896	-2477	10862	-1286	-17532	816	4828	985	10808	-2040	119	128	1
-32768	-6468	18912	-1845	-32768	-17585	-25952	6524	-20828	-9163	-32768	-7845	-17428	-6360	10884	-863	166	-4228	-9020	5108	12660	1613	7653	-4248	-17560	-3604	-2108	-935	12937	-1865	-17548	444	4168	3558	9716	-2235	116	128	1
-32768	188	-1808	3371	-28810	-14559	-23716	-3468	-17220	-4549	-29858	-5406	-18128	-5728	29588	-3879	-6285	-4282	-8908	4696	13564	2226	11165	-3120	-18340	-3816	-2508	239	14757	-2460	-17608	1224	5544	5847	9003	-2777	120	128	1
-32768	4828	-20752	-1470	-21177	-4045	-6356	4436	-20712	-1878	-14460	-4489	-19624	2460	30300	2562	-4545	-3374	-8780	5684	13400	2845	15378	-2258	-19304	-2904	-1016	-546	16655	-2892	-18692	1120	6752	6010	6652	-3499	116	126	1
-32768	6096	-23824	-4344	-19972	-1762	-7392	3868	-17116	-10369	4508	-6106	-18248	-228	24264	-5925	-5582	1111	-8568	6264	13672	2833	20941	-2182	-20356	-1064	-1688	-1750	19019	-3043	-19524	4312	7772	6919	2994	-3804	117	125	1
-32768	-2688	-24756	8986	17978	13103	-12708	1036	-14908	-2304	17421	-724	-14108	-3196	12524	-12092	-2841	476	-8332	7956	13492	3772	28656	-3343	-23348	-2456	92	-414	21136	-1957	-21460	1224	13656	5412	-3330	-3927	130	126	1
-4452	7376	12664	7117	32767	9681	-31148	5360	29588	7738	19485	8115	-14200	-6508	2228	-7194	-3294	-10	-7884	8988	16116	5531	32767	-5943	-28264	-4532	5476	7537	23336	-742	-26464	4252	32676	5490	-21460	-4301	137	127	1
-32768	-2384	32644	9009	28986	8648	-18620	1956	-18840	26020	22605	5267	-26184	-8992	32767	6701	-6881	-3565	-6572	10444	17756	9784	32767	-12366	-32768	924	10880	11689	24073	-1015	-15636	5556	24432	8477	-21322	-3277	116	128	1
-3956	-1892	4924	-2	3951	4221	-24732	12912	-13576	14051	23959	2450	-17068	-6812	-32768	-573	16406	391	-11412	12948	17856	13775	32767	-21517	-32768	4488	10432	13636	23395	-129	-19136	3344	3548	18623	-10353	-4227	114	139	1
-11560	-2968	14960	6434	3376	7392	-13376	-18368	-10908	17318	20702	1397	-14672	-3364	-15532	11132	9184	-1133	-32768	8772	22732	13995	32767	-23058	-25452	3700	-12140	10323	25489	97	-25372	8928	-9532	21427	-10066	-287	108	140	1
-11920	-5584	13712	5610	366	5171	-7856	820	-13528	25335	13150	2289	-6476	-3176	-10164	1524	923	-2601	-32768	25232	23416	7761	32767	-20608	-25964	576	-21504	2069	21762	-4449	-30584	2548	-11728	1728	-17131	7451	98	132	1
-11332	-1260	14404	3451	-80	3662	-23136	13192	-11092	-504	11336	1492	-21992	-428	-8064	-2504	12075	-6655	-16000	19468	32767	-1272	3978	-8902	-19080	-3308	-13652	-3236	20197	-7546	-30344	-3736	-3508	-11811	-17904	10369	137	107	1
-9064	-1456	14952	999	-312	1201	-20204	2640	-6612	-6856	11051	-603	-22980	1468	-1700	-5428	10372	800	2076	11396	28128	-3245	-13343	-8472	-16436	4716	2548	9171	7598	-3035	-31032	-4500	-6732	-9710	-19322	9089	126	98	1
-8580	-1672	14312	-488	773	-204	-15288	1156	-8348	10594	7526	-1038	-17880	-1768	-2748	-33	15775	3638	9820	8496	20384	149	-24166	-2400	-8012	696	4704	9847	-2366	-1349	-23004	-3872	-4684	-7049	-18379	7617	108	117	1
-8268	-1908	14408	-2141	1708	-1228	-16924	4596	-6440	5277	5546	-1019	-17128	1536	-2296	-99	15154	4886	8568	8488	12808	-2383	-25720	-1225	-6080	3488	2272	6660	-9913	2761	-18908	-100	-5444	-3376	-14891	6728	158	117	1
-8320	-4588	13572	-3675	2973	-1655	-17348	3472	-5692	-9497	5616	-2343	-17748	-1248	-292	-6955	13893	4098	1040	7432	13624	-1781	-28697	-1332	-4868	3808	-2856	3520	-17493	4198	-15604	-236	-7168	-4013	-13469	7829	124	125	1
-8700	-3532	14412	-4311	3288	-1852	-18032	-96	-3820	-16410	4871	-2380	-16708	-1656	124	-12385	13184	4167	-3800	8548	12996	1005	-32768	2037	-4336	1984	-4788	-515	-22252	5310	-11892	1128	-7956	-4915	-12093	7669	122	136	1
-8048	-4760	14360	-2461	2760	-817	-16620	-5280	-824	-5606	4859	-1852	-15316	-4848	120	-12006	12531	3711	-4384	8864	9988	2066	-32768	6905	-6864	1112	-3256	-2464	-28108	5751	-13560	1356	-8676	-5306	-10599	6690	122	127	1
-8660	-5348	13464	-798	2314	804	-15208	-6180	-3824	429	4238	-860	-14848	-10008	372	-10167	13524	2528	-6660	11900	8908	-472	-32768	12145	-9488	-828	-4200	-4743	-32743	5820	-13584	276	-8916	-8801	-10677	5605	126	135	1
-9036	-4176	13368	-520	2206	1346	-15352	-888	-3864	334	4297	235	-13624	-8288	2388	-6745	14149	2456	-9148	11556	10624	-4630	-32768	18067	-12444	-2048	-6464	-3366	-32768	5233	-11348	-2428	-8740	-11380	-11212	4597	126	125	1
-9236	-3784	13348	-526	1972	1406	-14456	148	-2584	-2725	4901	229	-15000	-4428	2940	-4147	14091	3092	-14392	10908	12784	-4142	-32768	23318	-13848	-1828	-7412	-2725	-32768	5811	-9904	-3020	-9412	-12326	-10348	4113	127	131	1
-9028	-3948	13216	-384	1522	1401	-14736	-624	-2604	-2442	5996	557	-13656	-3868	2944	-4965	13610	3246	-17200	12608	14492	-4464	-32768	25481	-17000	272	-8140	-4065	-32768	6895	-7352	-2552	-7624	-14430	-10283	4193	121	116	1
-9224	-3748	13324	-688	1551	1199	-14668	-192	-3464	-311	6912	691	-14820	-3436	2480	-3869	14347	2785	-20684	13568	18016	-6931	-32768	25028	-23068	556	-9436	-7423	-32768	9087	-6192	-2540	-5392	-14621	-8022	4533	124	131	1
-9476	-3128	13496	-715	1513	1012	-14732	992	-2408	-1123	8333	502	-15332	-2812	612	-1968	14463	2231	-22640	13292	20480	-7644	-32768	23260	-25272	-996	-11048	-9676	-32768	8144	-7240	-2632	-1644	-13143	-3556	5168	119	120	1
-9292	-3920	13464	-378	1855	1423	-15680	-1368	-4016	500	8823	686	-15916	-3752	-276	289	13410	1929	-26680	11392	22236	-5817	-32768	21862	-24132	-4024	-12268	-5880	-32768	7957	-11292	-1584	1768	-9823	-2482	5281	127	113	1
-9036	-3900	13844	-396	2713	1885	-16656	-348	-3344	1747	9837	811	-16784	-3528	1384	659	12173	1749	-32080	3808	20260	36	-32768	19689	-25520	-6792	-12904	3409	-32768	6941	-13984	764	2340	838	-1478	5449	120	127	1
-9100	-3404	14876	95	4351	2554	-18168	1232	-2392	1574	11351	704	-18904	-2348	2944	-1676	10953	1985	-32768	5040	13128	-1585	-30972	13574	-25180	-2192	-18816	9351	-32768	7004	-16348	3860	18348	-417	-3174	6910	118	134	1
-9228	-3072	13952	-1109	7878	3163	-17664	1392	-4868	-568	13316	688	-17528	-2544	3564	-4101	9228	2107	-32768	1860	-5408	-1232	-25702	4331	-26064	-832	-18448	8842	-32768	6770	-14344	2288	32767	-2912	-576	6288	119	127	1
-9008	-3468	14508	-1009	11584	3182	-18660	1176	-2648	-577	14867	1324	-18536	-2348	5040	-4062	7911	1526	-32768	-6644	-28028	10837	-17603	-4982	-3540	-7068	-21240	5194	-4579	5726	-21412	568	32767	-2030	-5405	2300	116	124	1
-9132	-3092	14460	-1174	16059	3270	-18972	1988	-1996	-421	17365	1658	-18748	-2436	7448	-5394	4616	1345	-32768	3756	-25040	4684	4183	-4606	-7964	-5208	-21580	6313	14892	-942	-17316	-1296	15988	8146	-4668	-3985	115	116	1
-9252	-4356	14252	-1377	21787	3792	-21420	1512	-604	-1484	20091	1539	-20696	-2696	10080	-7351	-10	1408	-32768	2108	-4360	-10231	22978	-7795	-18792	-2600	-18372	-1384	21278	-3287	-11340	484	2120	10006	-1319	-3471	118	119	1
-8380	-5992	14780	-1805	30500	6054	-24820	2836	1352	-4045	23218	-209	-23916	-916	19004	-8813	-10010	1270	-12996	8812	26716	-9087	21247	-7388	-23784	-2676	18892	-10755	19229	-4397	-6780	4232	1440	-3857	6261	-4144	121	115	1
-9920	-4088	17332	-3563	32767	7986	-30268	5672	960	-10851	25904	-1693	-18680	-1928	32767	-4957	-32768	4195	-5904	1112	10600	9287	32767	-897	-26184	-11100	-7164	1333	15982	-1788	-32116	3200	10608	4568	7149	1057	132	120	1
-9848	-9044	19928	-6357	32767	12302	-32768	4240	9688	-24909	25314	-1710	-21796	-3492	12804	-16131	-16082	4052	-23616	-476	25076	9394	25344	-3615	-27668	-852	-3680	-12256	24904	-5041	-16828	-3212	-4128	-1708	8196	-3456	121	155	1
-30892	-10312	22084	-7963	32767	18712	-30404	-4680	-5436	-26895	29014	605	-22408	-4336	-316	-18279	-14816	4287	-26876	32767	9292	-8855	9148	-11132	-17236	17096	-21628	-11481	18833	1060	-15600	-1996	-7944	8496	6902	1504	127	138	1
-32768	-7804	28944	-10153	32767	16291	-31200	-4772	-10552	-18880	27231	4682	-30476	-12184	-13708	-14227	-15836	1139	-8544	-2472	17280	-3995	1397	-9256	-13736	-9896	-11792	-11117	17766	-1901	-15560	4664	-10832	11320	7943	501	127	127	1
-32768	-12324	29872	-5026	32767	24559	-18276	-2760	-17740	-6275	22251	4277	-31440	-4540	-10804	2026	-18390	-5370	-10360	3536	14276	-2782	3878	-5069	-16500	-4804	-9556	7624	11692	-486	-12488	-300	-11592	14139	10813	1476	137	174	1
-32768	-24096	32767	-8919	9259	19191	-13652	-1204	-16648	-4349	14178	4261	-30940	-2096	-2880	10144	-23419	-6800	-11996	6628	13372	-1577	3922	-1790	-19316	-2216	-7444	11269	9437	491	-21972	5860	-5324	6511	12412	-3024	144	142	1
-9076	-16308	32767	-10894	-24346	14719	-12668	848	-3644	-12609	3631	231	-30712	-264	-7540	7538	-19941	-6797	-8648	4612	13660	1249	2772	-971	-19012	-156	-7652	-5930	6566	-652	-19172	-1432	-2788	-3248	15016	-4882	124	156	1
12000	-11240	10328	-6878	-28959	9143	-7908	-1612	4492	-12374	-4542	-2165	-24312	-244	-5900	2803	-19115	-8767	-9328	5216	14012	1187	2905	-691	-18708	-3328	-3200	-4631	5271	-799	-18580	-1512	-308	-1101	13973	-6418	146	131	1
7820	-11884	8868	-2762	-24566	2857	-1728	-2184	272	-1105	-12314	-4745	-17200	-788	-6576	450	-15937	-8335	-6572	7320	13176	3540	3546	-1198	-18000	-460	-2856	8500	5043	872	-17420	1560	-1264	4398	13423	-5882	130	123	1
1672	-10448	11164	-2657	-24703	-5044	-2760	1496	-2924	4095	-18935	-6552	-14512	-2584	-7928	1413	-13410	-8005	-7784	6832	13116	2660	3825	-1638	-17452	1680	-3500	8979	4769	570	-17224	3048	264	3738	13432	-4992	123	119	1
-5884	-10332	15008	-5077	-30205	-14261	-3776	1220	-6772	2751	-25052	-7181	-13328	-3536	-9152	2682	-12472	-7114	-8480	6860	12828	2764	4079	-2069	-17116	912	-3556	4698	4511	-178	-17008	2720	712	2928	13443	-5007	131	135	1
-8604	-9560	14484	-3590	-32768	-21420	-4800	-72	-6232	2906	-30016	-8831	-12016	-2332	-9420	4878	-10850	-6140	-8376	4548	13192	2932	4756	-1597	-17800	-3524	-1900	5664	4461	-924	-16168	804	3136	5337	12787	-5530	131	129	1
-9516	-6428	11984	-1473	-32768	-25293	-7092	-208	-4536	5576	-32768	-10058	-10876	-604	-8748	6928	-9790	-5571	-8900	5424	12612	3090	5249	-1067	-16152	-732	-3220	5873	4872	-1222	-16028	1148	3556	6239	12510	-5228	124	131	1
-11980	-5228	12884	-1253	-32768	-25480	-8876	196	-5456	11473	-32768	-10463	-9436	1500	-8472	9513	-8056	-4466	-8652	6292	11988	2916	5297	-942	-16028	716	-1992	2944	5443	-1665	-15916	3584	1728	6897	13726	-5314	141	128	1
-17708	-6360	15916	-359	-32768	-24285	-11216	1204	-6608	11618	-32768	-10389	-8264	3684	-12284	13479	-3474	-3286	-8736	7408	11408	1877	5018	-1976	-15588	2412	-2920	779	5947	-1705	-15196	6084	1388	3943	13055	-4032	141	115	1
-20256	-5604	17056	-190	-32768	-23501	-14500	2796	-8932	10715	-32768	-11040	-5160	3224	-11556	17905	-217	-2808	-9168	7308	10968	1631	4281	-3011	-14300	1600	-2756	-834	7135	-1615	-14264	3992	1272	-1144	11715	-2904	133	132	1
-23092	-7864	19872	1020	-32768	-22403	-24740	2680	-9096	7885	-32768	-12172	-4112	3476	-7748	18695	2209	-2372	-9472	6440	11096	44	3185	-3864	-13604	356	-2576	-2045	8201	-1506	-12988	2184	2072	-2031	10870	-2602	125	129	1
-29060	-11620	22876	4545	-32768	-20145	-30232	4604	-15120	12562	-32768	-12809	-7736	360	-4544	13372	931	-2035	-9180	6068	11900	-201	3113	-4037	-15332	508	-2508	-3615	9504	-1977	-15048	2116	3676	-1163	10271	-2328	113	103	1
-32768	-2708	25044	226	-32768	-21567	-28112	5192	-17900	6578	-32768	-8479	-10124	-3892	-2788	7466	3326	-5271	-9108	6268	12316	319	4660	-4172	-18388	-2320	-2212	-3488	10972	-2268	-18352	900	3612	155	10897	-2952	120	127	1
-32768	-2052	16280	2728	-32768	-15616	-27704	3384	-19952	-1644	-32768	-7206	-20704	-7276	15552	2602	-3264	-6695	-9100	5804	12528	661	7422	-4374	-18780	-2552	-2076	-1959	12458	-2409	-18756	660	5068	2546	9407	-3027	117	130	1
-32768	1776	-4304	4884	-31081	-12583	-19000	3384	-19860	289	-31526	-3735	-18220	-3512	32767	3383	-5031	-4350	-9324	6084	12644	885	10700	-4452	-17752	-1808	-448	-1685	14890	-2905	-17132	1636	8600	4249	7283	-2318	110	135	1
-32768	13312	-31916	-6807	-20934	-2121	-1948	8972	-23208	-3594	-11317	-5217	-21020	6400	32767	12226	-6984	-846	-8880	6264	12812	529	14131	-4580	-17304	-856	-32	-3591	17972	-3414	-15672	2280	9804	5602	5451	-2364	109	127	1
-32768	12484	-32768	-21666	-3377	921	-7132	4100	-18736	-10687	10629	-2089	-21608	6104	32767	11759	-6918	14	-8852	6784	13524	335	20013	-5408	-21604	-288	-1840	-5512	20514	-3939	-19756	5388	9012	5427	4785	-2158	119	123	1
-32768	-1380	-21056	19455	24679	13957	-14144	-3144	-20400	-792	22047	2699	-14444	-1300	7648	-14174	-3060	1587	-8220	7836	14128	194	28148	-8272	-25864	-1496	724	-4570	21978	-2624	-23084	3328	14616	4497	-3448	-2960	142	121	1
-772	-6180	32767	-1269	26532	9947	-30708	4368	32767	717	18455	5911	-14156	-3428	1896	-8641	-3049	247	-7624	8292	16768	1728	32767	-12312	-30988	-4304	4672	2693	24207	-954	-27924	8084	32767	5511	-26444	-1203	140	121	1
-32768	-632	13172	-1416	31393	6571	-25508	4808	-19528	19912	25961	5567	-25556	124	29552	3705	2237	3919	-5484	12080	17816	4774	32767	-19161	-32768	-416	12512	13367	24232	-690	-14360	3960	21152	5101	-18139	-2855	122	127	1
-32768	-10916	32767	5087	12479	6025	-17084	-944	-9488	-7418	24484	1668	-22916	2268	-19160	-8432	7590	-280	-16312	11020	18884	8573	32767	-28585	-32768	1928	11368	22156	25997	2714	-21552	-1640	1468	19686	-8424	-5219	127	136	1
-13488	-12736	15888	7236	10442	3313	-14572	-10728	-13676	9813	20757	-784	-21112	4784	-14852	-7826	8408	-2256	-32768	3064	18784	8621	32767	-26943	-22436	5188	-14808	16261	24263	22	-29040	11672	-14060	29088	-9688	-2574	123	127	1
-11300	-7608	14344	1873	2030	3335	-11448	5384	-13924	15387	14482	2337	-9448	-2872	-10348	-3637	6776	-2853	-32768	27776	24876	8041	32767	-22312	-25008	-348	-25636	7820	21774	-3405	-28136	1356	-9436	-1714	-17291	7587	99	131	1
-11436	668	16020	1613	2140	2193	-19588	7928	-11072	-593	10908	953	-23420	-2832	-11296	-4002	11361	-1386	-22472	16656	32767	4435	-2419	-12972	-20584	304	-11156	-687	19921	-6978	-32768	24	-5656	-11385	-18044	10452	123	129	1
-9296	-2800	14844	-115	1521	241	-20712	960	-8228	-9711	9922	-11	-22348	-2760	-4744	-6524	12759	1938	1492	11944	28308	6363	-19593	-11258	-17028	4840	4588	15264	7335	-3579	-32668	152	-7980	-9059	-18860	9191	111	106	1
-9380	-3444	14540	-965	1566	-348	-17752	-204	-7660	-1511	7245	-525	-17332	-4432	-3756	-4170	15779	4826	4964	13804	19872	2526	-27642	-4143	-7860	4008	2856	9506	-3909	-837	-24472	-2176	-5268	-10538	-17522	9062	133	110	1
-9096	-4000	13964	-1577	1549	-787	-16720	-908	-6480	2791	4780	253	-16144	-2796	-2880	-861	16827	5290	6392	13024	12940	-5561	-28443	726	-5660	3420	1128	-229	-11065	2013	-24276	-2436	-5076	-9364	-16827	8694	125	126	1
-8612	-4924	13976	-1626	1560	-677	-16728	580	-3732	-1517	4247	326	-16988	-2164	-2476	-1088	16850	5249	2916	8188	11700	-4726	-29803	5848	-5676	1244	-840	-5203	-18340	3085	-15760	980	-6828	-5064	-12472	9817	140	122	1
-8324	-5440	13468	-1495	1881	8	-17596	-196	-3172	-8314	4842	-732	-16548	-4428	736	-6408	15910	4534	-2512	8548	11600	47	-32768	11788	-5684	-124	-3564	-5750	-23581	3928	-13220	-400	-7912	-7193	-11184	9929	134	129	1
-8916	-4248	13804	-1652	2135	286	-16836	-740	-2816	-8010	4487	39	-15596	-3324	1736	-6514	15019	4367	-4764	10316	10004	-294	-32768	17770	-6368	1232	-4092	-7592	-29128	4632	-12004	-700	-8152	-6829	-10871	8713	126	136	1
-8556	-4508	13440	-2369	2653	462	-15812	-1168	-2356	-4992	4565	312	-15360	-2336	2816	-6559	13709	4948	-7236	9688	10312	-3831	-32768	22637	-8140	228	-3892	-9640	-32768	4919	-11272	-356	-8148	-8298	-9907	7547	131	130	1
-8808	-5092	13036	-1696	3579	750	-15672	-984	-3392	-2854	5079	560	-14104	-3388	2924	-8109	14073	5380	-10992	9996	12368	-6043	-32768	25983	-10504	24	-5736	-10708	-32768	4209	-9924	-1636	-9140	-10874	-10253	6120	109	132	1
-9384	-4832	12700	-1446	3139	809	-14336	-1292	-3528	-3595	5516	1094	-14236	-3180	3056	-8432	14239	5597	-14188	11964	12048	-9515	-32768	27307	-11792	3092	-8204	-12339	-32768	4264	-8200	-3436	-10548	-16128	-10008	5755	121	103	1
-8444	-9192	11432	-372	2699	1636	-14148	-6008	-3184	-6235	5832	1633	-14212	-5012	1204	-8096	16867	3614	-15156	10344	15352	-6780	-32768	27428	-16024	-2180	-6340	-9823	-32768	5385	-6532	-5752	-9592	-17394	-9020	5209	131	115	1
-9772	-6160	11884	1	1950	2162	-13984	-1836	-3248	1375	5595	1497	-13688	-5476	-176	-4438	15241	2258	-19420	12668	20544	-7928	-32768	26086	-23384	-180	-8828	-9623	-32768	6631	-5564	-5340	-9152	-18415	-9033	5003	123	125	1
-9588	-5300	12740	-168	1249	2838	-14076	-516	-2200	-1915	8457	1962	-13896	-3464	2264	-1826	12034	1330	-23984	11904	25068	-6833	-32768	24626	-27676	-3256	-9988	-6426	-32768	6939	-7396	-4312	-3916	-15864	-823	4267	123	117	1
-9128	-4700	13488	177	1698	3259	-16524	-588	-2744	2432	9402	1872	-14228	-3284	2400	-1508	11735	1319	-30672	12676	26716	-4467	-32768	20760	-27888	-2796	-12312	3314	-32768	8622	-10052	-2812	188	-11004	-1531	5308	121	111	1
-9492	-4340	13580	-12	3444	3816	-18256	1544	-3512	3028	10980	1975	-18488	-2560	1672	591	13170	2082	-32768	-1120	23452	491	-32768	16577	-29192	-3580	-11864	5483	-32768	9238	-17684	3508	15844	-2538	-4335	6952	118	130	1
-9680	-3740	13416	-642	5849	3495	-18092	2624	-2736	2082	12506	2174	-18740	-2100	2612	-1988	11595	2427	-32768	8992	8432	4009	-32768	9073	-32768	-1480	-22404	10283	-32768	8507	-15744	3720	31780	-3813	-4584	10977	119	135	1
-9492	-3904	13560	-674	6347	3426	-18632	1004	-1900	1617	14867	3018	-19028	-2844	6224	-2300	8614	2106	-32768	-4932	-28108	4161	-32229	-5632	-4488	-448	-27312	7488	-18208	10855	-18744	-3788	32767	-5508	-6557	3935	119	127	1
-9372	-4120	13928	-1742	14399	3514	-19704	2180	-1596	2732	17543	3615	-19460	-1736	8504	-3708	6413	1534	-32768	-6796	-32768	22250	-9845	-8549	-2536	-6668	-24156	11499	11269	3626	-23060	-1280	28616	10251	-4806	-2721	122	131	1
-10100	-3844	13972	-1962	20916	3711	-22024	1696	-1060	1691	20548	4112	-21900	-3104	10384	-5317	1879	2091	-32768	15556	-17860	-21992	25097	-10378	-3912	-4344	-25544	9908	14816	2373	-14340	-628	4448	14642	-3932	-3096	126	96	1
-9120	-6180	14784	-3171	30254	5676	-25412	2884	2484	-1700	23772	2666	-25052	-1492	19112	-6693	-9746	2325	-8248	1540	30616	-10340	25807	-3778	-29544	-12324	26696	-15799	16121	-8429	-3944	1120	1572	5691	4611	-4433	126	129	1
-10152	-8820	18436	-4712	32767	9639	-32768	-200	7516	-10841	26849	961	-19264	-6912	32767	-5325	-32768	3860	-24552	-716	17736	6166	32767	-997	-25008	-14976	-19852	3221	20885	-694	-23852	3184	5148	5982	9616	896	127	120	1
-10396	-12540	20128	-5528	32767	18067	-32768	-4116	11576	-17542	27903	1193	-21532	-5324	14376	-15273	-15904	2572	-16956	-3316	30912	13769	21026	-5622	-31784	-10696	-1768	-10248	29078	-6843	-22020	-13796	-15092	2398	6193	-7461	119	163	1
-32768	-11204	23560	-8723	32767	26764	-30988	-2756	-8956	-21547	30077	1582	-19644	-5440	-1012	-17079	-14743	3738	-19772	32767	-28	-7973	14313	-7075	-15608	24476	-29736	-5895	18727	4461	-15972	2444	-14300	18571	7573	624	143	143	1
-32768	-8272	25396	-10717	32767	24049	-27988	-4892	-9704	-19179	27296	6705	-29352	-13224	-16388	-15601	-13316	-13	-8584	3796	17300	-2901	-307	-9002	-14468	-9672	-10984	-9829	16204	-3304	-12388	6136	-15508	15359	13428	1821	137	155	1
-32768	-18544	32767	-13013	32767	25652	-19520	668	-24296	-5816	21431	7470	-31572	-4600	-11644	8202	-20313	-7623	-11672	-2976	17196	-2617	3259	-3433	-18368	-6172	-8684	9801	10585	-2091	-21144	6736	-10632	13935	14032	540	138	164	1
-19192	-21348	32767	-8433	-7661	16316	-17468	-1776	-14824	-7095	13337	5146	-31512	-2624	-6520	11153	-22963	-8288	-8976	5060	13948	-2078	1995	-2034	-19940	1352	-5960	11008	8550	-604	-21996	4308	-3048	2458	13320	-2179	128	116	1
3276	-18744	32767	1261	-25603	9327	-11260	-2308	1400	-7691	1762	1514	-31512	-144	-7996	10070	-18300	-9036	-7864	4932	13748	161	1807	-1520	-17660	-964	-5036	-9351	6541	-1634	-18460	-1940	-2048	-4297	16821	-4774	122	174	1
13040	-9756	12136	4510	-25145	3811	-6232	-2124	5216	609	-7797	-989	-23428	1280	-7804	2502	-18024	-10112	-7480	4436	13888	2383	2720	-707	-17972	-3372	-4840	-10360	4788	-1695	-17000	-1316	-1124	-3992	15200	-6280	129	134	1
7060	-8828	13400	1417	-24375	-2589	-2536	984	-560	8042	-15564	-3349	-16560	-1172	-7924	5486	-15664	-12078	-8012	6804	13144	2792	2841	-997	-17544	-2568	-3104	3139	5028	-216	-17768	1444	-1612	-34	15059	-6141	132	130	1
-1176	-9260	15880	-1596	-28573	-10369	-2892	3036	-3564	6419	-22413	-4626	-14348	-360	-8820	5303	-14142	-9206	-8016	5976	13004	2495	2747	-560	-16640	-560	-3988	9026	3997	157	-15952	980	-232	1999	14886	-5301	120	109	1
-7196	-8352	17460	-2100	-32768	-18252	-3732	3288	-6328	2470	-28738	-6074	-12140	-1368	-9284	2810	-13510	-6827	-7388	6060	13180	2021	2890	-903	-16732	1776	-1948	3136	4033	-412	-16104	-676	1324	1711	13311	-5083	134	120	1
-9472	-6644	14832	-1099	-32768	-24091	-5948	1340	-4928	151	-32768	-7457	-11168	-2672	-9688	5974	-10969	-6014	-7852	6908	12544	1837	2724	-1812	-16708	2008	-2276	2402	4070	-531	-15084	1276	2316	4332	11788	-4159	143	121	1
-9996	-5480	11412	850	-32768	-25078	-7080	-984	-3880	4234	-32768	-8785	-9468	192	-9312	9436	-10016	-4820	-8648	5916	12520	1404	2640	-2161	-17220	-864	-2020	2790	4314	-923	-14892	2080	4116	3813	17453	-3609	131	130	1
-13036	-5784	13424	2430	-32768	-22278	-10008	200	-5924	11464	-32768	-9746	-8580	2396	-9336	12531	-8994	-3085	-7924	6220	12756	642	2655	-2550	-17180	-1232	-1748	3094	4358	-874	-15092	3312	2152	4728	19775	-2714	137	155	1
-20160	-6108	16200	3013	-32768	-20006	-12812	1992	-5668	12647	-32768	-9707	-7968	3988	-13064	16600	-3960	-2429	-8488	6180	12200	420	2327	-2785	-13960	2096	-1480	-902	5673	-1228	-16992	6288	2556	3481	15924	-2281	131	132	1
-20168	-8616	17328	2738	-32768	-19101	-19540	2824	-8472	8903	-32768	-10195	-4828	3344	-11604	21897	-495	-1648	-8684	6000	12328	295	2282	-3192	-14660	104	-1004	-2500	7424	-1616	-18964	3316	2244	-396	10484	-2029	131	122	1
-23432	-11436	21844	5926	-32768	-18890	-28552	1828	-11664	8648	-32768	-11005	-5220	3220	-11312	22439	-27	-1936	-8952	5484	12252	476	2605	-3531	-15840	-356	-2308	-2622	9061	-1177	-15576	2604	4456	-4167	9078	-941	126	112	1
-31880	-14596	22980	9880	-32768	-16773	-32768	2956	-14576	14856	-32768	-11148	-7616	-780	-5208	15011	2635	-1888	-8196	5552	13272	766	3809	-3347	-17076	-596	-1056	-1935	10706	-1899	-15756	2984	5436	-924	10061	-2078	118	125	1
-32768	-5312	25348	2135	-32390	-18909	-30724	4392	-19872	4387	-32768	-6748	-12816	-2884	-4268	6945	5113	-5115	-8524	5536	13132	1053	5924	-3812	-17940	-1492	-1408	-1908	12553	-1994	-17324	1492	6200	2171	11407	-3189	115	124	1
-32768	-5224	12940	1902	-32768	-16168	-25808	4820	-28896	611	-32768	-7237	-28012	-8372	29244	491	-13452	-4857	-8224	5760	13832	1405	9221	-4104	-19460	-1560	-1188	-1209	14826	-2523	-18936	1720	6636	4669	9796	-2739	118	127	1
-32768	4704	-19224	-4328	-32768	-12793	-8800	8960	-23540	-8880	-24210	-6106	-16308	11596	32767	4785	-8990	-2359	-8436	5976	13652	1173	13045	-4650	-18520	-1028	40	-2349	17353	-3304	-18560	2640	7940	5063	6513	-1866	97	124	1
-32768	30660	-32768	-32768	-21553	-1310	-1396	7060	-22140	-25357	1929	-6111	-20688	2384	32767	-9375	-6874	2843	-8516	5104	14328	523	17837	-5199	-19256	-1148	-1416	-4475	20409	-4047	-18448	4580	7728	5239	2119	-2342	108	125	1
-32768	-5516	-31700	-12721	5159	9839	-12672	-3136	-19420	-14950	18893	1996	-14888	-3292	10836	-22519	-4595	2917	-8176	7472	14396	-378	24582	-6520	-23296	-740	-1672	-4824	22142	-3540	-20300	2712	9924	5661	-1938	-2767	134	125	1
-28608	10564	-2512	19269	27203	25670	-15380	-6312	-17960	-13998	20268	2586	-9008	-6720	-840	-13356	1659	-1533	-8220	7476	14444	-208	32767	-10139	-25500	-3644	1444	-865	24105	-946	-22124	580	21508	5780	-12816	-3710	137	127	1
25444	-18544	32767	-5068	32767	4929	-32768	25812	26084	30391	16133	5436	-16664	1972	10068	-232	-5321	4499	-7292	7664	18520	2119	32767	-14301	-32768	-3672	8200	10467	26016	-490	-17168	7512	17000	15109	-23310	-1640	121	125	1
-32768	-3096	32767	3293	32767	823	-19484	4964	-20452	9181	23644	7312	-18776	-668	6996	693	2365	6930	-5836	10824	17520	5603	32767	-23527	-32768	1100	12628	20237	24769	1186	-20136	-24	13552	15726	-11911	-3198	114	130	1
-6456	-18580	2168	5374	8726	5071	-23436	-2464	-10876	913	24914	733	-21928	-3992	-28612	-6444	11885	-2775	-32768	12992	20952	8659	32767	-29855	-32768	2836	12788	21806	24600	1002	-27460	2780	-9124	25389	-7767	-5123	113	140	1
-27808	16692	27608	4999	6240	4677	-8436	-464	-16584	17435	19085	3566	-9144	-4824	-13388	192	5334	-805	-32768	12384	18028	4107	32767	-28100	-20172	4388	-21132	11023	23923	-782	-28792	4452	-9564	18316	-12500	2052	108	127	1
-6672	-12016	12664	2210	2969	2226	-12256	5708	-12860	4777	13052	1814	-10868	-24	-11188	-2787	10604	769	-32768	19124	32767	6684	19244	-21609	-20604	-9284	-26036	6970	21081	-4427	-27544	480	-5124	-2464	-19929	8693	99	111	1
-9896	-4196	14164	1046	1250	1215	-21444	4904	-9980	-6233	9764	1515	-24148	-5536	-9584	-3185	11682	152	-1048	4716	32767	12668	-20170	-13379	-23852	2256	2164	15561	14644	-2385	-32768	616	-9464	-7548	-18156	8581	127	101	1
-9484	-5288	14016	998	1339	1102	-19352	-280	-7160	-5271	8562	1436	-21252	-3620	-3024	-2133	14279	2541	5020	17260	23244	9099	-21535	-10062	-12264	6584	1604	20105	529	1026	-27536	-2312	-6456	-7091	-19317	9026	127	100	1
-8900	-4092	14156	-291	746	-202	-16768	-20	-6524	1917	6129	1002	-16884	-3076	-3308	-1559	16817	5446	8212	13916	13572	1573	-24451	-3825	-6312	3132	1544	6133	-6757	2615	-21216	-916	-4968	-4339	-16263	8525	126	117	1
-8792	-4012	14024	-652	718	-489	-16472	1184	-4752	3731	4575	1204	-15864	-1544	-2116	112	17622	5180	3936	10840	12092	-946	-25798	3669	-5416	2672	-624	-2224	-13724	4525	-16392	2656	-6080	-5228	-13756	9322	123	124	1
-7656	-5516	13724	401	644	406	-16660	-728	-2096	791	4486	666	-16568	-2956	-204	-4416	16715	3901	752	9884	11228	1209	-26920	10811	-6180	840	-1484	-5625	-19810	5060	-14696	1524	-6948	-7268	-12030	10309	120	132	1
-7552	-5904	13284	1348	550	1752	-16500	-3360	-1396	-2645	4947	467	-14952	-5844	1132	-4720	16808	2540	-4168	10796	12392	539	-30356	18590	-6476	204	-4284	-10293	-25274	5283	-13376	-288	-7492	-8067	-10525	9483	140	130	1
-8064	-5888	13324	2413	222	3180	-14952	-4088	-1872	933	4747	1379	-13372	-6672	2220	-3523	15765	1955	-6364	9076	11840	-2536	-32768	25399	-7728	-1144	-3244	-12346	-30581	5526	-12648	-988	-7936	-7958	-9657	7474	131	136	1
-7952	-5420	13360	2841	-154	4077	-14628	-2372	-2336	6225	5083	1615	-13220	-3932	4560	-310	14616	2126	-7900	7332	12756	-4793	-32768	29711	-9100	-936	-3936	-13841	-32768	5043	-10956	-2664	-8460	-9632	-10576	5964	133	136	1
-8764	-4616	13428	2757	5	4204	-15364	924	-3024	4967	6019	1656	-12896	-1728	6968	-561	15562	2002	-11472	6676	14584	-5959	-32768	31175	-11188	-1228	-4868	-14187	-32768	4396	-9136	-3504	-9292	-10952	-9942	5008	120	115	1
-7268	-4292	13676	1124	-445	3408	-18160	7072	-1576	-3289	6992	3470	-15344	-3488	3204	-5285	18871	2118	-18084	7156	15344	-11120	-32768	30985	-13900	-3788	-5428	-16678	-32768	1469	-6924	-4104	-9956	-15371	-9630	5329	119	105	1
-9572	-3100	14272	1657	-899	4889	-16636	4936	-2792	5980	5987	10027	-17932	-5172	-772	-3817	16827	1863	-15012	10124	17972	-8469	-32768	26831	-18684	1164	-8884	-12744	-32768	4274	-4632	-4232	-9800	-18035	-6765	4342	128	120	1
-9640	-3572	13596	1588	405	3459	-14588	3772	-4504	6753	11001	2789	-16900	-3344	-1180	1698	11066	1787	-20728	10980	22824	-10026	-32768	23761	-24608	-268	-9260	-8452	-32768	5305	-7060	-4284	-7780	-18396	-2514	4132	124	117	1
-9588	-3856	13968	842	1512	2312	-13648	5004	-7368	3473	12165	3412	-15332	-1868	844	4705	10959	1526	-29156	12480	29108	-8756	-32768	20692	-29924	-3820	-10264	-4186	-32768	5478	-9452	-4648	-2548	-11990	-393	5174	126	112	1
-9348	-2920	14396	-262	3026	2168	-17128	1920	-6184	1163	10611	1641	-16508	-828	68	1717	12836	2453	-32768	14924	26792	-5644	-32768	16870	-29872	-1280	-12964	5680	-32768	7836	-13628	-2368	1344	-8586	-2851	7534	122	123	1
-8688	-3404	14260	-639	5495	2299	-18176	2004	-4348	2411	11171	1528	-17892	-980	1028	-570	12319	3090	-32768	788	18252	2651	-32768	14012	-32768	-6832	-21424	5487	-32768	9551	-21884	4552	18228	-2511	-10534	10140	119	136	1
-8732	-2992	14704	-1290	8593	2315	-18332	2300	-2856	-1054	13256	1978	-19240	-2588	3984	-1961	9781	2545	-32768	7308	-10872	9599	-32768	5550	-12732	-2416	-28472	13648	-28819	11500	-16516	-2416	32767	-12719	-4004	6938	118	129	1
-9156	-3616	14456	-1532	12959	2282	-19380	1096	-2392	60	15436	2542	-19172	-3148	7352	-2703	8325	1851	-32768	-17988	-32768	26921	-24707	-2558	1360	-7168	-22636	19925	66	7194	-18700	-988	32767	11676	-5485	-441	116	128	1
-8276	-2444	15020	-1443	18282	2298	-20280	1844	-1356	-279	18166	3267	-20008	-2684	9336	-4412	5937	1640	-32768	14288	-32768	-3350	11102	-8019	-9408	4208	-27960	5350	20365	-2371	-16864	2020	10880	21549	-3436	-3114	122	106	1
-8568	-5596	14792	-1506	25181	3772	-22488	688	284	-1052	21306	3004	-22428	-1832	11744	-8061	-480	2136	-32768	4008	-2824	-14669	25848	-10470	-17636	-5296	-25344	-14813	26910	-5345	-7716	4124	-3988	9820	297	-4689	124	129	1
-7556	-6652	14504	-2455	32767	7184	-25148	4072	1856	-6082	24941	625	-24968	948	24280	-8041	-15677	2177	7596	2092	32767	-5222	25044	-2445	-26652	-13748	32767	-20078	10888	-7816	2440	2008	-3548	-16736	11333	-3248	121	119	1
-11040	-5152	17864	-5548	32767	9057	-32768	7104	4552	-20809	26446	-419	-10828	5544	17528	-12314	-20295	4769	-26904	4848	10972	14535	32767	-4224	-20816	-13276	-18528	12427	20544	118	-32768	-4420	27352	-3477	-3746	-595	124	108	1
-10384	-10324	20108	-5288	32767	17647	-32768	-3588	14728	-32768	28229	216	-24736	-2656	8324	-19501	-11623	5813	-32768	32767	32767	-850	7980	-10951	-32768	18552	-7456	1348	30589	-1247	-27556	-7252	-4056	4497	7202	-4815	130	188	1
-32768	-5156	29072	-3263	32767	23847	-27056	-9952	-9660	-23556	28213	3895	-25884	-13960	-9432	-27482	-13482	3935	-17492	-13808	32767	-5549	7623	-7541	-20252	2848	-7448	-12387	13665	-1973	-16200	-1644	-13684	19150	8746	3871	142	153	1
-32768	-12084	20280	-1674	32767	27319	-28308	-5612	-14680	-9058	25675	6824	-30256	-10304	-10660	-3273	-18490	-4182	-9864	27624	4760	-3435	3536	-4140	-7900	-7340	-11264	-778	17607	-2980	-5340	2076	-15596	15612	13666	-1366	136	146	1
-32768	-15112	32767	-4505	21495	22981	-15816	-212	-20596	2800	20554	7952	-31680	-2320	-3280	13520	-21896	-7864	-9112	7648	13332	-1353	1878	-2484	-18148	-7016	-10412	13422	10883	-1240	-24824	8100	-11728	13896	13555	-1416	135	177	1
1028	-12476	29376	-5023	-13233	18147	-17908	-428	-1804	-8585	8538	1532	-32768	-3212	-7672	12840	-20963	-6589	-8688	3388	15360	-297	2291	-852	-23476	3016	-7948	6491	7456	-217	-23508	2080	-3252	-1637	14829	-2667	123	140	1
9160	-12860	21500	-6033	-21109	10512	-9648	-952	3184	-9468	-265	-1097	-27588	5696	-4996	5010	-20699	-6085	-7592	3112	14688	1769	2531	-340	-18312	-3712	-4948	-9675	5485	-2053	-19944	-4356	-1292	-3654	16587	-5917	125	154	1
9548	-13480	13376	-3100	-19765	2863	-5196	-936	956	-1501	-9262	-4652	-20780	364	-6280	-3144	-19006	-7565	-6860	6708	12908	3278	3083	-2	-17184	-2260	-2880	-3863	4370	-1270	-15848	-296	-316	-130	14537	-7485	124	132	1
3936	-11780	12688	-3648	-21107	-6183	-3976	1772	-1636	657	-16078	-6515	-15924	-1792	-6908	-1441	-15666	-9102	-7092	7900	12448	2929	3203	-817	-17052	488	-1972	8475	5099	340	-16068	3632	-908	2599	13622	-6387	143	119	1
-3648	-10800	15860	-5757	-25946	-15253	-3880	1072	-5232	1061	-22335	-7726	-13532	-1660	-8852	1204	-14513	-8576	-7344	7276	12928	1961	2971	-1539	-16224	3252	-2096	6980	4550	-149	-17128	4096	748	774	12788	-5261	128	123	1
-6756	-9576	15132	-4728	-32768	-23498	-4716	528	-4880	3049	-27734	-9112	-12488	-2552	-9228	2979	-12597	-7421	-6944	7804	12728	1086	2971	-2831	-16824	3148	-2392	-1107	4792	-1244	-15004	1480	3892	-1366	12527	-4020	137	115	1
-8168	-6768	13532	-1683	-32768	-28681	-6412	164	-4184	6054	-32711	-10189	-11216	-2268	-9932	4418	-10759	-6241	-8124	6684	12228	838	2905	-3306	-16952	-928	-2768	-1073	5202	-1266	-15232	244	4296	1463	9899	-2931	135	100	1
-10944	-5084	14792	998	-32768	-29859	-7908	-24	-5304	11622	-32768	-10501	-9340	652	-9552	5898	-9810	-4664	-8212	5936	12608	859	3388	-2918	-16700	-1888	-2312	1832	5768	-1200	-14856	1436	5144	4709	16405	-3609	128	111	1
-14492	-4292	17044	2106	-32768	-27518	-11320	1872	-6772	13980	-32768	-10483	-8464	2296	-9480	10005	-8205	-3238	-8720	6300	12096	475	3294	-2637	-15824	436	-3680	681	6308	-1355	-15852	3460	1844	5233	19412	-4159	137	148	1
-18516	-5284	18684	1885	-32768	-24198	-14652	3252	-6652	11338	-32768	-10703	-6884	2632	-11588	14922	-4151	-2546	-8456	6740	12064	532	3154	-2747	-15704	448	-3340	-2652	6837	-1705	-17324	4540	-980	1819	16429	-2766	135	137	1
-20820	-6944	19072	3850	-32768	-22087	-21484	2396	-7980	9941	-32768	-10910	-3680	3240	-11000	19066	908	-2154	-8736	5972	12296	601	3376	-2932	-15348	-1436	-3492	-3119	7580	-1514	-15756	912	-1188	-2732	12805	-1619	127	132	1
-24100	-8576	24040	5057	-32768	-20307	-26700	1960	-10612	7604	-32768	-9942	-5892	1480	-6940	16585	1121	-1410	-9060	5396	12532	950	4256	-2727	-16364	-2576	-3712	-2065	8227	-1297	-15968	72	1236	-4388	11041	-1721	127	115	1
-32768	-3008	26620	5451	-32768	-18184	-32768	3880	-12920	5225	-32768	-9029	-6980	-4508	-3108	11499	292	-3833	-8656	5832	12316	1630	5514	-2363	-17284	-2272	-2648	-88	9133	-1345	-16728	1068	3692	-354	10598	-3103	123	120	1
-32768	-9320	27580	2638	-32768	-11516	-31860	1228	-22036	-10488	-32768	-8314	-11248	-4748	-2740	5189	3897	-7465	-8492	5796	12688	2131	7369	-2137	-17520	-1224	-1280	112	11014	-1967	-16976	3068	6440	1495	11268	-3525	121	126	1
-32768	-636	9652	-99	-32768	-7372	-26776	-1432	-26456	-4031	-32768	-7989	-28168	-11040	31896	151	-12767	-6817	-8404	7116	12876	2459	10301	-2671	-19420	-196	-948	-706	13427	-2518	-19184	2096	7764	2644	11146	-1911	123	125	1
-32768	2156	-29488	-12658	-32768	-3121	-3744	10952	-25344	-12687	-18584	-8464	-18528	14500	32767	7426	-13519	-3053	-8208	6616	13548	2263	14651	-3538	-19732	-2244	-84	-1697	15790	-2997	-19236	1000	8160	5451	8058	-2178	102	127	1
-32768	17792	-32768	-32768	-14463	-4624	-2796	5676	-21860	-23106	6855	-4909	-21696	2080	30544	-11955	-5669	5928	-8284	5456	13976	2023	20698	-3347	-21088	-2376	-828	-2062	18499	-3595	-20472	3024	7700	7266	3788	-3329	113	125	1
-32768	-16944	-30404	12326	21490	5436	-16820	-7964	-20428	-8529	22691	1937	-13184	-3456	8204	-20429	-1154	249	-8356	7952	13448	2631	28524	-4448	-23384	-416	260	-2346	20655	-3122	-21776	2604	11800	8718	-3107	-3733	128	121	1
-30804	2532	25688	22799	26883	10925	-13944	-2924	-10588	11302	26973	5632	-6320	-9916	-6168	-12286	3086	-2082	-7884	9108	14008	3253	32767	-8585	-26080	-2488	3848	1884	23437	-1152	-22368	2944	23796	7277	-15521	-3183	130	120	1
15216	24248	15088	3013	32767	-3297	-32768	25876	13796	32767	15023	7188	-13740	-7300	2552	10777	-5078	1205	-4808	10724	18492	7874	32767	-14141	-32768	-836	11632	12882	24933	-1442	-16660	11512	26476	15772	-22927	-535	133	125	1
-32768	13528	32767	-607	29412	12011	-12180	9804	-18564	20209	21120	8955	-22300	4688	10584	18837	-1238	5883	-11868	13160	18560	11362	32767	-25635	-32768	3896	9204	18730	24756	531	-21188	1064	10900	20747	-10507	-4227	112	136	1
7844	-30808	-5732	8208	11569	7409	-27008	-9060	-12412	6999	22429	-1444	-20760	932	-27180	4871	16696	297	-32768	15608	20752	9602	32767	-29311	-27916	4752	-12628	16181	25011	2870	-29020	9116	-10384	28408	-5416	-3598	158	130	1
-20376	15904	16484	5218	3830	7653	-26516	-12176	-5216	9043	22057	-453	-10344	-2948	-14772	6984	6643	-5902	-32768	16832	25724	8043	32767	-25008	-24788	1164	-22424	3802	25344	-4688	-30352	6744	-6544	6346	-17938	7386	103	131	1
-7360	-1204	15624	4597	3113	3957	-14496	8668	-12708	62	12546	1996	-13948	4908	-8984	-5815	11303	-1151	-28876	17092	32767	1118	9609	-16750	-19660	-6148	-21444	-3273	19989	-7102	-31764	-2052	-3716	-13642	-20557	11275	89	116	1
-9464	-1376	15220	1884	1122	1502	-21028	6388	-8508	-12474	10179	632	-23168	-2036	-8200	-8132	12015	-675	3328	9532	29192	4663	-16345	-14102	-18764	2556	4240	12149	10066	-3765	-32768	-4088	-8812	-10601	-19355	9140	118	72	1
-9480	-2960	14616	161	994	262	-18552	-1848	-6432	17	8526	225	-21324	-4008	-4128	-5102	14407	2384	1648	11160	27892	7039	-16562	-13156	-9136	3456	4344	14043	-344	-82	-27368	-1284	-6904	-8818	-20315	6981	127	101	1
-8556	-3096	14180	-640	1095	-387	-16572	-1096	-5480	8740	5650	560	-16776	-4348	-3604	-820	17943	4585	7348	12512	14448	-1105	-26250	-5011	-6388	3984	1452	7327	-8789	3953	-20412	-2764	-5196	-1678	-16602	7612	143	115	1
-8196	-4664	13812	-447	831	-182	-16024	320	-4844	7828	4715	1044	-16004	-2440	-2256	810	18161	4117	3132	9452	13176	-2346	-28536	-9	-5424	2272	-884	338	-15673	5233	-16792	2260	-7000	-1323	-14172	9471	134	118	1
-7972	-5464	13596	-200	1057	504	-16624	1032	-3312	-3395	4779	-219	-16096	-4056	-224	-2564	16707	2796	-1352	8420	12320	2068	-32416	7076	-5776	-244	-2932	-2035	-21208	5498	-14684	1556	-7824	-5572	-12549	10304	127	125	1
-8404	-4276	13684	-26	938	994	-16976	-1192	-2572	-5980	4513	-349	-14700	-3380	824	-2473	16492	2309	-3464	10508	10744	2048	-32768	14354	-6792	752	-3360	-4157	-26768	6122	-13504	64	-8380	-6413	-11341	9052	126	128	1
-8600	-3588	13928	-448	1482	702	-14832	-1116	-2276	-1250	4061	559	-13928	-2464	3160	-1111	14592	3531	-4740	9616	9428	-2567	-32768	19970	-7872	-68	-2452	-7038	-31976	6787	-11796	-824	-8804	-7680	-10020	8089	133	135	1
-8240	-4644	13680	141	1524	1119	-15920	-1268	-2316	2141	4804	210	-16012	-212	3732	-3143	14166	3570	-9088	8696	12232	-4555	-32768	24432	-9024	-760	-5080	-10294	-32768	6450	-10376	-1944	-9496	-9329	-11139	6420	121	135	1
-8944	-3980	13388	250	961	2113	-14832	-264	-3432	-900	5233	-151	-13136	-1860	5252	-7200	17370	2376	-12740	10172	14216	-6428	-32768	27763	-11752	-1004	-5928	-11792	-32768	6161	-7772	-3896	-10008	-13077	-11071	5066	123	111	1
-8720	832	15276	-1267	1191	-952	-11336	2792	-6804	-11507	9698	2876	-15548	-5428	1784	-9472	20008	1305	-15376	10384	18840	-10726	-32768	30478	-16576	-5988	-5788	-14308	-32768	2942	-7760	-3948	-9388	-17521	-11523	5096	118	115	1
-6444	-1576	14524	907	-157	2715	-12752	-4812	-1204	3235	7505	2157	-16224	-7472	-1428	-7645	16152	2221	-21728	10896	20232	-7076	-32768	29367	-22596	-1932	-7676	-8510	-32768	7567	-6416	-4996	-8608	-20537	-9400	4370	127	118	1
-8524	-3344	13868	802	565	2587	-16064	-1912	-2328	5222	5920	805	-15852	-4940	-1036	321	12585	989	-23840	10984	21876	-6605	-32768	26570	-24740	-2200	-9612	-5991	-32768	7638	-7132	-5240	-5904	-16413	-3809	3746	127	111	1
-8964	-3312	14116	25	1407	2541	-17504	896	-3172	1182	9855	847	-16636	-1152	584	2082	11547	1795	-28608	12512	24484	-7177	-32768	22221	-27424	-2360	-11148	528	-32768	8839	-9148	-3428	-908	-14107	-2113	5056	126	121	1
-8756	-3276	14684	-418	3034	2128	-17168	1600	-3360	1832	10202	1012	-17372	-1176	1644	-1539	11838	2905	-32768	11708	23600	-5837	-32768	15222	-29356	-948	-14788	1348	-32768	10622	-13696	1168	-644	-5813	397	5969	121	135	1
-8828	-2864	15900	-508	4967	1975	-18132	2192	-2804	-232	12044	1428	-18520	-2968	3872	-3248	10856	2382	-32768	1148	15888	4683	-32768	12620	-32768	-9712	-20608	6386	-32768	7959	-17840	4528	21492	-2273	-8041	9566	117	131	1
-8468	-3684	14256	-1783	8740	2697	-18812	-808	-1312	-353	14178	1846	-18832	-3280	4156	-3609	10588	2325	-32768	8448	-14900	-3031	-32435	2521	-14024	1192	-26896	9897	-27824	9991	-15072	-1288	32767	-6471	-2968	6477	118	146	1
-8660	-4008	14476	-1818	13345	3329	-19772	1360	-2108	285	16332	2658	-19292	-1664	6336	-5249	8854	620	-32768	-15704	-32768	18612	-17265	-8049	-616	-10184	-23560	9836	1160	5214	-22200	-408	32767	2849	-6519	-1198	119	137	1
-8496	-2240	15172	-1509	19081	3243	-20096	2712	-2100	-617	18998	3551	-20480	-3620	6160	-6287	4589	1513	-32768	12400	-26480	-65	12693	-6730	-10480	292	-28772	3776	21539	-2752	-16900	-944	11152	13535	-4462	-4142	122	109	1
-8636	-2600	14964	-1466	20036	3146	-22724	1628	-400	-2135	21492	3534	-22132	-3020	9080	-10333	-1024	2156	-32768	4208	-2380	-12352	26948	-9019	-15412	-2948	-26476	-8854	28197	-4093	-9760	1088	-2164	10494	16	-3248	125	115	1
-9508	-6904	15136	-2804	32767	6107	-25032	3720	1772	-5839	24311	1711	-22696	-1972	10336	-10729	-2123	2060	18152	-472	32767	-7144	29235	-594	-31332	-15744	32767	-16398	9261	-8291	-6508	2100	1824	-4596	6831	-3928	118	126	1
-12336	-5732	17956	-4983	32767	7800	-32768	3536	8132	-17082	26102	1230	-17932	-4764	32767	-5823	-32768	5061	-25100	808	7928	7964	32767	-53	-18328	-11120	-20872	904	20208	-2926	-25868	-148	13300	-4605	5003	1910	126	123	1
-9792	-11812	18676	-4966	32767	17098	-32768	-1984	11444	-24841	26892	607	-15020	-1992	18648	-10947	-28514	4379	-10860	13616	31964	11811	20440	-9970	-30116	3436	-3116	-6909	24547	-3768	-22084	-13520	-3744	1261	7912	-5559	121	166	1
-32768	-9468	27896	-6125	32767	22739	-28364	-4296	-11788	-21429	28688	3012	-22216	-9684	-3272	-23691	-13646	3802	-22860	17568	11008	-4198	9411	-8186	-18792	14392	-24156	-11049	18506	2450	-18404	1316	-14216	17676	9890	2349	141	136	1
-32768	-8864	25680	-3924	32767	24671	-28824	-6720	-7768	-13430	26606	7036	-29404	-12684	-18456	-7171	-17077	-1265	-11964	20108	7324	-3904	1848	-8406	-14596	-11652	-11112	-1678	17218	-3463	-11328	1696	-13420	17748	13778	1810	138	154	1
-32768	-15392	32767	-5104	32767	25616	-17256	-2828	-28108	236	20798	5827	-29668	-2508	-3672	11098	-21149	-7545	-10708	-1364	17068	-2502	2325	-4260	-17340	-5372	-9044	12586	9770	-1041	-19592	8308	-11432	16539	14855	-987	133	179	1
-8436	-14412	32767	-6457	-12051	17571	-19276	856	-6588	-6796	10603	3099	-32768	-1188	-7472	12140	-20645	-6790	-7848	2572	15424	-1122	2203	-1869	-20392	1252	-6992	4433	8228	-649	-22700	4104	-3992	-1376	15075	-2145	120	130	1
5680	-14748	28572	-5812	-24364	10957	-11004	-1568	5348	-12889	1145	-851	-28724	2612	-5440	6893	-21569	-5620	-8172	2628	14604	888	2196	-620	-18436	-2732	-5856	-12020	5332	-1813	-19792	-4580	-2432	-8337	18093	-5054	127	169	1
9724	-13308	14160	-3265	-22962	4346	-6292	-2484	2816	-5469	-7679	-3701	-21560	1716	-5756	-549	-19539	-7745	-7056	5376	13424	2439	2807	70	-18052	-3380	-2568	-6792	4555	-1361	-16832	-1476	-720	-3851	15277	-6633	134	132	1
5024	-11680	13872	-3262	-24604	-3355	-3024	84	-1340	1625	-15279	-6230	-15364	-1128	-6444	-1441	-16203	-9320	-7212	7668	12856	2528	2702	-1287	-17076	1076	-2628	7812	5063	796	-16512	3516	-1400	2373	13989	-5885	132	119	1
-1628	-10592	14564	-4794	-28491	-11659	-4084	876	-3568	1961	-21821	-7547	-14104	-2140	-9104	164	-14391	-8818	-7068	6392	13192	2101	2962	-1759	-17340	1980	-2712	5627	4762	3	-17076	3368	3240	-736	12782	-4103	129	123	1
-6464	-9928	15276	-5139	-32768	-19449	-4356	284	-5892	2007	-27857	-8915	-11944	-3592	-9872	1973	-13303	-8036	-7676	6832	12772	2180	3062	-2614	-17328	492	-1380	733	4941	-866	-15468	-144	5216	195	13070	-4875	133	89	1
-7820	-7328	13304	-3670	-32768	-25183	-5908	484	-4520	3317	-32351	-10194	-11060	-2756	-10312	5009	-10597	-7053	-8664	5384	12636	1478	2990	-2983	-17460	-1244	-3220	1533	5358	-708	-17148	-520	5444	571	12570	-4397	136	125	1
-10728	-6188	12988	-2139	-32768	-27387	-7372	-336	-5132	8175	-32768	-10737	-9012	524	-9504	7511	-9662	-5272	-8308	5824	12748	1620	3701	-2419	-16968	-1756	-2344	2625	5978	-797	-15024	1820	3424	6893	17254	-3418	139	138	1
-14556	-6064	15712	-142	-32768	-25972	-10404	952	-6084	11235	-32768	-11388	-9552	1400	-10588	10466	-7873	-3754	-8300	6172	12224	1479	3986	-2716	-15624	680	-2632	830	6514	-995	-16700	4044	1228	6522	16407	-3385	126	155	1
-15264	-6132	16012	174	-32768	-25531	-14264	2444	-6512	10586	-32768	-11794	-7328	2804	-13608	14735	-3466	-3263	-9044	6416	12252	1396	4389	-3290	-15376	4	-2960	-1115	7644	-1112	-17008	5184	1340	3742	14037	-2633	131	136	1
-20644	-8620	18328	2635	-32768	-23216	-20512	2408	-8748	10766	-32768	-12072	-4520	3688	-12412	21492	861	-2915	-8972	5240	12252	1338	4737	-3118	-15100	-1076	-2244	-1268	8736	-1169	-15220	2964	2384	-2109	11867	-1787	131	119	1
-25392	-11896	24116	5882	-32768	-22825	-29080	1800	-11564	10937	-32768	-12246	-5520	2940	-7776	20550	1422	-2050	-8984	5988	12192	1102	5315	-3174	-15544	456	-2708	-2142	10258	-1294	-14548	1852	3936	-1578	10376	-1941	132	118	1
-32768	-8532	25268	10827	-32768	-21118	-32696	-296	-17416	12745	-32768	-11373	-8088	-2356	-3240	15336	740	-4157	-8544	6564	12580	1172	6692	-3839	-17240	476	-2036	-2532	11693	-1850	-17340	3940	5576	-129	10115	-2633	122	109	1
-32768	-7552	24940	1925	-32768	-19530	-28380	7304	-24208	-147	-32768	-7842	-15200	-2504	-560	6147	2976	-7470	-8240	6296	13020	1044	9179	-4966	-19148	-1100	-2244	-1746	13805	-2068	-18764	1596	5196	2802	9000	-2831	119	125	1
-32768	2576	2312	1936	-32768	-16452	-27520	1884	-22944	-2292	-32768	-5949	-24212	-8564	30784	2338	-11632	-5944	-8520	6260	13180	1080	9650	-5065	-20920	-2884	-2120	-773	15341	-2220	-19176	8	6596	4711	8875	-2213	114	136	1
-32768	7360	-32692	-2741	-27674	-6051	-5264	5236	-26700	-6080	-19194	-6860	-16888	13284	32767	7327	-10938	-3352	-9100	5104	13480	440	17794	-5572	-20856	-3116	-1864	-698	15534	-2210	-17660	2360	8796	6966	5575	-2557	105	125	1
-32768	24284	-32768	-28457	-8873	3753	-660	6504	-22952	-14603	8299	-4005	-21528	1984	31756	-9160	-6296	4406	-9288	4452	14360	-352	23716	-4888	-20124	-1500	100	-3120	20380	-3773	-18400	6160	11612	7161	2173	-2927	118	128	1
-32768	-11440	-26492	17513	22484	13796	-15012	-3288	-22940	-4159	24362	2322	-15160	736	8096	-20281	-2469	1083	-8644	8748	13564	509	32489	-7332	-24524	756	2520	-3743	22840	-2566	-20892	4116	18416	5105	-4709	-2459	139	130	1
-13964	-300	32767	3442	26149	9569	-27748	1236	32392	-4869	20860	6758	-10124	-4136	-2616	-13151	2453	-1061	-8164	7872	16860	2662	32767	-12215	-30424	-3656	5388	3842	25124	-607	-25828	7056	32767	6901	-29552	-2097	127	127	1
-32768	9916	6836	70	32767	3651	-26712	8784	-15424	26368	26046	6659	-12004	-1868	11560	-2405	9467	1321	-5052	12660	17628	7275	32767	-19516	-32768	-916	15044	19851	25583	261	-15640	-508	19640	16354	-16359	-5978	125	117	1
-32768	-1524	32767	7661	13346	11541	-16004	-6220	-20080	-5802	26213	1923	-27512	-3420	-3388	3544	83	1058	-20800	9112	19552	8937	32767	-29928	-32768	1944	7020	28610	28031	4328	-24288	3100	-3436	29666	-8215	-5507	105	133	1
-5624	-13948	21992	7930	10539	3882	-22772	-10400	-10160	17471	21587	775	-23104	-5660	-16480	-2913	8096	-3395	-32768	11316	18180	12331	32767	-25660	-24752	4748	-15888	17193	24733	-740	-30640	8700	-13764	22999	-9998	726	117	129	1
-10700	-10220	11568	2190	2641	4377	-8064	6660	-16480	23888	14941	4738	-8396	-1644	-14688	3629	9441	-1525	-32768	28560	32767	8765	32767	-22198	-22528	-2580	-29784	6998	22210	-4118	-29916	-1348	-8116	-2553	-19123	9839	109	123	1
-12316	-1852	14400	1912	1529	2729	-16920	11076	-12420	-1598	11413	1328	-22416	-20	-13684	-1009	11418	-914	-13068	19752	32767	8842	-13486	-10455	-19524	-6396	-32204	5286	21295	-4972	-32768	-1536	-8032	-11279	-20837	11017	137	99	1
-10364	-2780	14636	571	835	479	-23300	2544	-9244	-13650	9849	313	-23072	-1044	-6560	-6632	13812	1427	4804	15940	30136	11527	-22755	-10405	-12328	4548	4420	18516	3396	6	-29036	-6084	-4368	-4610	-20624	7374	109	108	1
-9336	-3268	14136	-589	955	-537	-17824	312	-7480	-2441	7078	-160	-18432	-2356	-4240	-4406	16545	4139	9784	14164	17592	4462	-28258	-5315	-8184	3732	3676	10174	-7094	4370	-23640	-3120	-6244	-5105	-17880	8175	135	115	1
-9144	-3580	14204	-1391	985	-1001	-15852	-796	-6280	5084	4579	275	-16104	-3504	-3500	-903	17498	5075	6292	10456	13224	-175	-29959	1033	-5636	3700	504	-810	-15244	7124	-18484	-1400	-7488	-676	-15793	8832	126	112	1
-8484	-4868	13896	-1446	1011	-1034	-16464	344	-3568	3453	3944	581	-16296	-2352	-1388	-1687	18097	4464	568	8356	12972	3157	-31994	8323	-4692	-548	-1300	-2875	-21210	7554	-13572	1400	-8264	-2245	-13287	10205	123	121	1
-7924	-5300	13528	-735	841	-168	-16416	592	-1272	-3493	3912	-441	-16336	-1924	832	-4977	17021	3976	-5060	9660	12868	4839	-32768	15817	-4668	-664	-1948	-2687	-21923	7624	-11376	1732	-8536	-3826	-10955	9709	146	145	1
-8496	-4876	13308	-1	802	572	-15752	-1772	-2192	-6062	4256	-607	-14540	-3444	1532	-6558	15856	2686	-6464	8876	10544	2029	-32768	22082	-7316	316	-3196	-6777	-32473	8336	-10892	588	-8572	-6527	-9451	7743	130	131	1
-8888	-3920	13528	113	592	591	-14528	-2036	-2828	-1871	4254	338	-12884	-3012	3592	-5619	14883	3053	-9540	7568	11516	-1161	-32768	25723	-9080	-700	-3416	-9535	-32768	8179	-9308	-1136	-8704	-9711	-10896	6511	128	135	1
-8352	-4548	13472	319	291	663	-14804	-1268	-2340	904	4941	614	-12520	-3764	4940	-5386	15765	2900	-13728	8376	13828	-3101	-32768	28059	-11664	-1276	-5880	-10556	-32768	7634	-8416	-2116	-9520	-13260	-10945	5943	115	120	1
-7320	-2804	13844	-321	327	-253	-14900	6344	-3612	-7686	4965	4402	-13536	-3272	2736	-6484	20113	1874	-16176	7616	16080	-7722	-32768	29434	-16080	-4516	-5640	-13549	-32768	5066	-7216	-3164	-11348	-18035	-11315	6266	127	115	1
-7720	-312	14720	541	-158	2028	-15368	-2576	-2852	326	6809	1810	-15256	-4804	196	-7068	21583	1889	-19116	9816	17556	-6138	-32768	29447	-20420	-1524	-7172	-9216	-32768	8538	-5160	-2528	-9368	-21064	-10528	6711	125	118	1
-8600	-3416	13896	210	312	1958	-13764	64	-996	-2537	6547	782	-17624	-4932	-432	-4279	15811	2236	-19956	10648	17876	-5944	-32768	29180	-23312	-1300	-9028	-9319	-32768	9071	-6712	-3136	-6096	-20289	-6373	6537	127	114	1
-7928	-4556	14064	-165	481	2118	-15896	-752	-692	-2373	9085	1140	-17928	-3476	1920	-537	9505	2013	-27572	14760	23640	-5598	-32768	24279	-28444	-1904	-12120	-4944	-32768	9318	-8940	-4500	512	-19059	-4286	7044	126	118	1
-9352	-4608	13776	-193	1403	2353	-17788	-1188	-3088	3444	10262	1368	-16292	-3956	3732	906	9945	1584	-32768	2436	25024	-5775	-32768	22161	-27288	-4632	-13600	-1457	-32768	9568	-9568	-3784	1916	-19226	-4387	7306	122	131	1
-8500	-3316	14732	-929	3820	2508	-19436	2780	-3124	1161	11739	1816	-18820	-2784	3328	-1401	12923	1417	-32768	8988	14904	-1511	-32768	16662	-29008	-2900	-22540	3219	-32768	8049	-19548	5048	20088	-682	-6884	7780	118	127	1
-8408	-3292	14776	-1944	6714	2230	-18836	2084	-1608	-1473	13944	2216	-19428	-1952	4380	-3884	10653	1737	-32768	7116	-7784	-4729	-31353	6687	-25164	-1560	-25308	2214	-28932	8334	-15380	-5216	32767	-4521	-1864	5884	117	129	1
-8172	-3648	14684	-2947	11649	2476	-20508	1328	-1024	-575	16595	3000	-20632	-2292	6164	-5826	7158	1938	-32768	-8380	-32768	15199	-21517	-6829	-3788	-7520	-28356	6164	-4849	9166	-21632	-1740	32767	2096	-4612	1825	119	141	1
-8324	-2968	15452	-3381	17971	3189	-20896	2280	-1944	459	19313	3984	-20456	-3164	7292	-6610	3602	2093	-32768	6416	-32768	10938	4497	-3989	-6836	-3304	-26748	8471	17611	1088	-18292	1520	21040	12971	-3084	-1829	119	126	1
-7864	-5192	15772	-4026	25854	4088	-24048	2124	-648	-1017	21726	4219	-23412	-2424	9624	-8912	-1127	2177	-32768	4592	-8864	-15539	28370	-3204	-19680	-1920	-21916	-4501	26052	-4695	-11692	1544	3204	10605	-1410	-1664	120	120	1
-8068	-6268	14404	-4584	32767	6887	-25804	3876	1744	-4568	24555	2530	-24892	-780	21744	-9406	-14106	2438	5692	-2916	32767	-13212	25571	1956	-30288	-14780	32767	-16234	11445	-8334	-5204	584	2200	-382	7731	-4115	117	139	1
-7020	-10676	18164	-4394	32767	10119	-32768	660	9780	-13499	27227	1546	-16360	-6092	31560	-9701	-32768	3723	-16328	-17312	9308	9743	32767	4047	-17232	-12824	-15076	1135	19252	-3494	-24280	3596	10668	4792	7693	701	129	128	1
-9540	-12308	20556	-5627	32767	18924	-32768	-2460	13872	-20268	27822	1378	-22568	-980	13616	-16215	-14676	4840	-23204	140	32767	11772	21861	-8462	-16536	-10744	-21984	-1	21185	-4362	-22396	-13284	-2560	-3028	7772	-4946	128	163	1
-32768	-9832	28124	-9346	32767	24827	-26260	-3432	-11144	-21831	29207	2528	-20628	-9784	-2408	-21975	-13713	3479	-22624	30472	14676	-4960	8890	-8334	-20296	17304	-25044	-10329	19348	3395	-19520	180	-12096	12905	9739	1229	138	137	1
-32768	-8332	22248	-6202	32767	25994	-31560	-6892	-6024	-14053	25643	8016	-31692	-15800	-20208	-6913	-15710	-1377	-4760	11388	14096	-4170	53	-9316	-13908	-8916	-9288	-4676	17966	-3659	-11540	4092	-13536	17112	12287	1686	143	162	1
-32768	-17776	32767	-9474	32767	25590	-16228	-2836	-27384	-2080	20489	7832	-29588	-3936	-5100	13256	-20709	-7513	-10740	-3008	18068	-3773	3047	-5071	-15720	-5156	-10744	7919	11018	-1801	-17260	7124	-11000	16168	14352	912	132	170	1
-10408	-18848	32767	-547	-12464	17254	-18920	-1308	-8868	-4729	9992	3425	-32768	-4124	-8532	15601	-21408	-7851	-10092	4404	14284	-2373	2042	-2143	-20040	-1604	-7692	8297	9147	-730	-19288	8548	-9664	13931	14484	803	136	148	1
6060	-13764	28580	195	-27223	9068	-11764	-1520	4760	-7939	351	1064	-31024	1988	-6000	11255	-21394	-7247	-7364	3528	14584	175	1805	-1072	-18232	-1188	-6108	-10002	5995	-1161	-20604	-5172	-2208	-8824	18826	-4296	124	146	1
10408	-11636	12668	387	-25440	2607	-6580	-1656	2440	-1859	-8830	-1321	-22352	2196	-6436	2438	-19376	-8774	-6740	4304	13888	2311	2996	-79	-17528	-3752	-4168	-10603	5054	-1321	-17240	-2988	-140	-2951	16090	-7118	130	147	1
5068	-10468	12436	315	-25896	-3795	-2416	116	-1620	3940	-16372	-4087	-16012	-836	-7404	-533	-16057	-9719	-7560	6712	13332	3237	3130	-552	-17788	-2628	-2324	5786	5545	634	-15440	1268	-380	3880	15043	-6743	132	142	1
-1296	-9828	13964	-1668	-29088	-10584	-3188	1116	-3840	3379	-22851	-5691	-13604	-1332	-8832	335	-14752	-9091	-7336	6376	13380	2510	2991	-1363	-16948	2264	-3192	8447	5125	940	-16544	3756	160	3780	14256	-5282	127	103	1
-7052	-9716	15260	-3203	-32768	-17690	-3872	504	-6392	2071	-29031	-6997	-10372	-908	-9816	2102	-12851	-8031	-6900	5952	13816	2332	3407	-1856	-17148	2184	-2496	1925	4876	-396	-17256	472	2832	1559	11737	-3663	135	108	1
-8276	-8336	12708	-1818	-32768	-23283	-5728	380	-4904	2621	-32768	-8658	-11228	-3344	-10068	4932	-10432	-6378	-7964	5724	13112	1968	3453	-3001	-17840	-640	-2824	1528	5091	-601	-15704	612	3444	4878	11773	-3275	138	108	1
-11000	-7092	12596	638	-32768	-25184	-7476	-692	-5316	6463	-32768	-9598	-9124	288	-9332	8831	-9524	-4757	-8408	4648	13268	2032	4026	-2291	-16628	-1788	-3432	3507	5510	-1248	-14404	1276	4844	6698	15832	-3142	132	146	1
-14216	-6696	14672	1557	-32768	-23764	-10424	688	-6268	10184	-32768	-10759	-8564	2404	-9660	11797	-7994	-3379	-8372	5476	12528	2251	4505	-1649	-16204	-1040	-2832	4024	6220	-1006	-15348	1832	2924	10467	19524	-2875	132	127	1
-20664	-6720	16328	1067	-32768	-22118	-13336	2276	-5800	10445	-32768	-11230	-7400	3872	-12212	14782	-3755	-2370	-8152	6800	12240	2068	4363	-2190	-15004	2508	-2196	1377	7165	-1173	-17488	6724	192	6877	14410	-4355	130	116	1
-21104	-10160	17588	1473	-32768	-20525	-20284	1888	-8784	8126	-32768	-12432	-5264	4028	-10908	21567	-1143	-1992	-8244	6640	12176	1896	4641	-3281	-15820	544	-2576	-1114	8510	-1131	-16624	4172	1544	1018	12358	-2194	136	112	1
-25452	-13468	21724	5241	-32768	-19347	-29368	1216	-11464	9237	-32768	-13543	-5784	3508	-6880	18901	492	-910	-9004	5804	12444	1689	5002	-3641	-15768	-1332	-2648	-250	9522	-1146	-15372	2076	2620	-1004	10389	-1535	130	114	1
-32768	-13824	20908	8355	-32768	-17577	-30800	1440	-18776	13087	-32768	-13506	-8556	-2236	-2988	16208	1724	-3040	-8316	6172	12828	1707	6564	-4025	-17316	332	-1824	-420	11145	-1397	-16516	4180	5628	789	10410	-2694	120	124	1
-32768	-7388	24908	-2315	-32768	-20674	-28840	7752	-24868	1359	-32768	-8516	-16272	-3096	-188	7385	3964	-6879	-8452	5604	12972	1984	8861	-4633	-18192	-1884	-704	-1172	13359	-2076	-17960	2972	8292	3432	10679	-3052	111	144	1
-32768	3224	5344	1511	-32768	-18973	-25572	2280	-24524	-4476	-32768	-6151	-24412	-9952	30264	927	-12670	-6676	-8240	6560	13200	1873	12763	-5097	-19504	-824	-708	-1069	15904	-2596	-18048	2264	8344	5476	9827	-2315	128	138	1
-32768	5576	-29388	2021	-28097	-8693	-7340	3280	-23996	-3455	-19455	-5645	-15416	12548	32767	1297	-7954	-4419	-8592	6048	13336	1473	17419	-5665	-19620	-692	-716	-1292	16276	-2648	-19240	2048	8812	6676	6268	-2293	109	126	1
-32768	27132	-32768	-21381	-9929	4909	-1284	9700	-23216	-9135	4891	-4481	-20484	1080	29832	-3009	-5658	2449	-8688	5320	14188	579	23319	-5904	-20808	-2380	-584	-3563	20818	-3585	-19048	4324	10176	6108	1213	-2639	112	121	1
-32768	-15444	-30768	10664	21021	11630	-15036	-2384	-20304	-4061	21940	1520	-14816	-324	11548	-16707	-4184	2475	-7460	7624	14224	379	31810	-7572	-24536	-872	1328	-4037	22984	-2695	-20888	3680	16240	5244	-5045	-2105	135	124	1
-14452	7436	32052	3926	23821	11601	-24956	-3076	24644	-8364	23349	6380	-11156	-2672	-500	-13239	982	18	-8048	7580	16476	1894	32767	-11977	-28828	-3264	4444	1499	25645	-452	-25468	7008	32767	8093	-28058	-2368	137	130	1
-27380	5380	6488	-766	32767	3396	-31440	13136	-11968	19309	25743	5465	-14936	192	16256	-5533	9233	3069	-4872	13392	17440	6085	32767	-19108	-32768	276	13300	15516	26412	414	-14456	4544	21372	11783	-18267	-4824	119	123	1
-21396	6328	32767	-1716	23711	2406	-14936	6784	-10532	-4715	25338	6656	-26464	3232	-11644	1257	5094	2193	-17764	9844	17552	10747	32767	-29127	-32768	2372	10016	27248	27786	5194	-19564	56	-1740	23285	-7926	-4699	127	135	1
-8488	-29988	3484	7699	11408	5676	-21052	-13492	-16860	10701	22423	175	-19664	-8324	-21920	-7662	7135	-3716	-32768	4280	17304	13022	32767	-26274	-22272	4268	-13212	20980	24701	1034	-30008	10152	-12372	26214	-10420	-1810	125	125	1
-12392	-3164	14068	3596	743	7452	-11604	1688	-16860	26078	16109	4529	-5212	-7620	-13764	349	8262	-2534	-32768	28736	32767	17543	32767	-17023	-24104	-6328	-29464	8695	24666	-4773	-30504	-136	-7068	-4055	-19711	8447	116	131	1
-14488	3852	16912	4945	1207	5078	-14168	7460	-12964	9998	11282	2494	-22188	-2796	-11704	2904	12355	-3110	-15736	22660	32767	10117	-8285	-9300	-25612	3180	-2224	3173	19709	-6017	-32768	-696	-7208	-11641	-19743	10263	125	127	1
-11048	-1984	15280	3424	207	2750	-21560	5552	-9048	-6521	10060	1343	-23336	-2084	-6564	-917	14511	-450	1456	14224	27144	7074	-17880	-8795	-15388	5524	3628	18388	4770	-1392	-32768	-532	-5600	-5343	-19946	8653	106	109	1
-9444	-2096	14604	1770	155	1296	-18120	1304	-7924	-716	7830	390	-18612	-2264	-3988	528	17927	1838	9004	14168	19208	219	-26660	-2133	-8292	3148	2836	8361	-5211	1201	-26452	-1872	-4680	-7099	-18184	8640	125	113	1
-8760	-2964	14156	352	562	160	-17464	1080	-7232	528	7646	436	-16460	-668	-3348	1296	18353	4754	6208	9824	14772	-5891	-28698	3272	-6376	2936	848	-3691	-12901	4386	-19404	-3776	-6204	-3965	-15081	9583	131	100	1
-8524	-3140	14060	-607	1343	-159	-16512	1656	-4232	9400	4554	585	-17204	-288	-404	1066	18674	5052	2148	5776	12928	-2573	-31510	7908	-4784	-296	-368	-7344	-20039	5051	-15476	1092	-8028	-4578	-13276	10723	123	115	1
-8180	-4100	13956	-864	1613	296	-16824	2680	-2732	-102	4671	-357	-18076	-36	1308	-3279	17162	3272	-2528	6680	12444	1134	-32768	12343	-4888	-784	-904	-7220	-20980	5119	-12040	396	-8428	-6066	-12024	10675	146	148	1
-8464	-4760	13596	-644	1553	858	-17112	-812	-2736	-7334	5677	-1060	-15208	-2352	1284	-7773	15822	1814	-5492	6784	11388	929	-32768	16640	-5564	-812	-3024	-6062	-31275	6600	-10500	-600	-9124	-7180	-9921	7626	139	141	1
-8880	-3504	13772	-569	2040	1030	-15104	-1256	-2584	-4494	5157	-287	-13792	-2572	3140	-7957	14216	2132	-8120	7988	12140	-1952	-32768	20220	-7376	-632	-3576	-7407	-32768	6863	-10028	-812	-8932	-9016	-10236	5420	127	128	1
-9116	-4432	13300	-1128	1970	1408	-15284	-1476	-3092	-1603	5530	-517	-14568	-1624	3404	-8621	13734	3138	-12136	8320	14228	-4783	-32768	23567	-10788	-1828	-5700	-8285	-32768	6323	-8228	-1868	-10012	-11284	-10340	3674	128	123	1
-9812	-1508	14080	-998	2508	1150	-15412	-1908	-5152	-3044	7823	-1749	-15068	-3980	4440	-9893	16986	2720	-14168	9892	13188	-6792	-32768	26054	-14020	-2956	-5520	-9523	-32768	4755	-7224	-3356	-10948	-15782	-10367	4130	129	101	1
-8968	-2532	13652	-721	2266	1312	-16400	-2304	-4068	-4015	6924	889	-13984	-5408	32	-9276	20517	2010	-16840	9984	15876	-5278	-32768	26567	-19792	-2496	-6412	-5744	-32768	7974	-5148	-4036	-10616	-19810	-9577	4641	121	116	1
-9228	-3460	13192	-979	1867	1339	-13072	124	-2108	-4353	7965	710	-14648	-4236	-268	-6878	16417	2322	-20596	10208	18928	-4258	-32768	24755	-24536	-1504	-8432	-7246	-32768	9230	-6072	-4224	-6464	-20360	-6293	4713	121	123	1
-9696	-3304	13952	-1252	2070	1259	-14416	-512	-3260	-2619	9159	847	-15060	-4508	504	-2569	10927	2592	-29092	15684	24612	-5636	-32768	21127	-28088	-1168	-14012	-3907	-32768	10350	-8688	-4592	1296	-21469	-6549	6242	117	117	1
-9344	-4112	13724	-1381	3395	1706	-17768	-4	-4752	-73	10160	1209	-16664	-4164	1868	-424	11416	2435	-32768	10572	24180	-5129	-32768	20185	-29784	-3368	-16544	-1631	-32768	10097	-11800	2580	2784	-13480	-4580	7227	119	117	1
-9172	-3732	14172	-1616	5641	2360	-18856	1324	-3260	-375	11515	1385	-18820	-2860	2748	-2747	12361	2669	-32768	9228	14624	-1244	-32768	16650	-26040	-2000	-20128	3770	-32768	7969	-18456	5444	17672	-684	-6296	5387	118	120	1
-8792	-3592	14172	-1935	8849	2768	-18428	1484	-1852	-1317	13587	1960	-18868	-3584	4996	-4310	9767	2658	-32768	6360	-5032	-4210	-31065	8010	-29068	-1236	-22980	2890	-29771	7704	-13176	-1580	32767	-4259	-1532	5745	117	134	1
-8988	-3960	14260	-2053	13690	2969	-20176	1252	-1284	-997	16082	2864	-19664	-3204	7516	-5140	8525	2145	-32768	-4276	-32768	8194	-21381	-5949	-1584	-3160	-29588	4739	-9405	8629	-23732	-5344	32767	-389	-4722	3241	116	131	1
-8564	-3380	14552	-2127	19475	3369	-20352	2652	-236	-501	18818	3519	-20276	-2008	9368	-6145	4615	2598	-32768	3260	-32768	13600	460	-4578	-5220	-5028	-26008	8916	15358	1419	-18656	524	21556	13791	-2969	-1981	118	117	1
-8876	-4392	14768	-2275	26963	3915	-23132	1920	880	-993	21853	3768	-22704	-3172	12700	-7531	-1191	2837	-32768	11508	-13272	-15374	27036	-4849	-14696	1080	-27956	109	25460	-3589	-11860	1156	3464	12383	-1294	-1063	124	118	1
-9444	-7972	15112	-1637	32767	6603	-26728	2284	3856	-4076	25194	2059	-25184	-1792	23868	-7730	-14320	2095	2452	-952	32767	-12462	32712	425	-14272	-1020	-28408	-3425	26716	-4276	-6692	3636	-48	7084	4047	-2446	119	121	1
-11632	-7772	17856	-4121	32767	10088	-32768	996	8484	-15548	27268	1477	-14148	-5052	19928	-12929	-27975	4655	-28036	3324	9840	3984	32767	47	-21096	-11300	-22788	-576	21383	-3046	-23264	2180	12376	-1767	9385	3098	130	111	1
-12756	-9424	22380	-5837	32767	20139	-32768	-1668	12580	-25038	28714	1140	-23232	-3280	11136	-14384	-14167	4556	-9464	-1208	32767	11722	22487	-8275	-30268	-10608	2032	-12292	27200	-6444	-20412	-17588	-7332	-1887	9442	-6026	138	164	1
-32768	-4788	29532	-4891	32767	24764	-32768	-3568	10212	-25695	29510	1690	-23204	-12364	-10124	-22278	-13718	3575	-10852	25996	9352	-2923	9203	-6198	-20696	20396	-31480	-7809	21981	3790	-17968	-376	-17784	18640	6996	1161	139	111	1
-29244	-13028	18568	-6789	32767	25722	-31820	-5160	-3020	-12540	23458	8341	-32768	-9000	-11316	1350	-19038	-3887	-14488	21864	7332	-2544	3160	-6423	-12932	-10096	-13832	-4249	19426	-2693	-10888	4384	-13632	17657	12266	992	132	166	1
-32768	-17160	32767	-9034	32767	24257	-12624	-1876	-27876	443	18688	7731	-29592	1524	-3024	11317	-21827	-6584	-10864	-836	16428	-628	2591	-2529	-17360	-10452	-12240	13831	11795	-1921	-20156	7772	-14092	19067	14928	-434	138	194	1
-12052	-16780	32767	-4099	-18974	13422	-17688	1072	-9496	-8280	8837	1965	-32768	-5252	-8676	8960	-20155	-6553	-9044	2840	14888	558	2633	-495	-20500	4020	-10060	5833	8924	410	-23968	2924	-5148	-376	14954	-2489	141	149	1
8724	-13776	24044	-1613	-31751	7189	-11292	-3460	6104	-11513	-963	-440	-31104	1796	-6140	5166	-20389	-6931	-8484	2680	14988	1988	2751	-171	-19304	-4620	-6204	-10377	5621	-1259	-22896	-5336	-2396	-4733	18250	-5713	132	168	1
8436	-11372	12016	-1072	-27878	1371	-6172	-2320	1656	-1576	-10397	-2713	-22380	624	-7444	-772	-18566	-10173	-6792	6476	13720	3703	3844	63	-19028	-1476	-3272	-3965	5800	-404	-17644	-440	-2220	552	15071	-6886	129	142	1
3068	-10992	11992	-1214	-28571	-5287	-2556	204	-2464	5493	-17945	-5480	-15124	-544	-8020	785	-15381	-10690	-7620	5860	13512	3623	4166	-712	-17884	-1992	-3704	9543	4699	1312	-16668	3288	-1180	5952	14895	-6065	141	114	1
-4108	-10848	14456	-2057	-32334	-12816	-4008	1208	-5496	4414	-24322	-6874	-14208	-3364	-9836	1064	-13415	-9598	-7480	7912	12544	3912	4662	-1838	-17804	1892	-3060	8585	4662	1403	-18024	2424	712	3035	13950	-5206	120	88	1
-7392	-9640	14052	-2228	-32768	-20460	-4184	816	-5976	3700	-30474	-7944	-11208	-1988	-10512	1716	-11638	-7752	-7916	5384	13016	3674	5417	-1894	-18292	-572	-2388	5860	3729	264	-17532	1744	2948	3919	12840	-5024	136	120	1
-9708	-7580	12904	-694	-32768	-26086	-6380	112	-5296	4225	-32768	-9137	-10420	-2600	-11028	6030	-8727	-7017	-8220	5596	12540	3129	6045	-1769	-16564	-592	-2836	3661	4017	-530	-15188	1196	4844	2362	11961	-3970	136	102	1
-11884	-6236	13288	1404	-32768	-27461	-7716	-436	-5620	9190	-32768	-10045	-8736	1120	-10324	10161	-7846	-5426	-8644	6164	11908	3153	6115	-1591	-15696	380	-2760	2272	4949	-1169	-13312	2284	3832	6150	14677	-4552	136	115	1
-16112	-6136	15856	1869	-32768	-25557	-11540	1104	-6932	11927	-32768	-10352	-7428	2692	-11016	14033	-6310	-4072	-9440	7464	11288	2648	5769	-2149	-14868	1608	-3440	1888	5729	-1373	-14136	4128	2860	8745	15817	-4643	130	120	1
-21812	-7760	17736	2603	-32768	-23398	-15048	2280	-6760	10915	-32768	-10703	-4948	4504	-14692	17511	-943	-3148	-8988	6924	10996	2031	5330	-2790	-14600	872	-1752	2812	7044	-1273	-14872	5936	2388	5739	14461	-3477	134	156	1
-23352	-9244	19544	3261	-32768	-21962	-21196	3208	-11364	10218	-32768	-11371	-4468	5372	-10276	21928	-478	-1573	-9024	7008	11052	1320	4824	-3702	-13776	1776	-2432	615	8652	-1285	-14824	3800	3564	2806	12355	-1910	133	143	1
-30364	-13032	23516	4224	-32768	-20479	-30384	2932	-12732	8598	-32768	-12579	-4916	4008	-5788	20698	-119	-728	-9388	6264	11592	994	4778	-3904	-15224	-312	-2460	-2102	10353	-1857	-15280	3280	3976	-778	11292	-1741	127	115	1
-32768	-7168	23144	3474	-32768	-20661	-29840	740	-17952	7632	-32768	-12217	-8568	-1716	-3436	15943	1423	-3359	-9224	6184	12232	1231	6461	-3882	-17936	-1764	-2384	-2312	11748	-2171	-17160	3132	4164	-1057	10051	-2527	124	129	1
-32768	-9524	19164	-4584	-32768	-20816	-27268	6064	-23504	-6251	-32768	-10305	-22892	-5980	11204	4716	-3059	-6280	-9136	5496	12556	1750	9031	-3689	-18420	-2716	-1220	-2208	13615	-2606	-16608	2220	6348	1306	9266	-2918	119	127	1
-32768	3776	-4864	-197	-32768	-19853	-21512	3340	-17800	-7321	-32768	-5912	-19288	-3804	32767	2949	-10750	-5448	-9172	6292	12716	1651	12901	-3556	-19276	-1044	-1364	-3420	15691	-3297	-17844	2076	9148	2178	9824	-2433	114	119	1
-32768	16004	-32768	-10868	-21937	-2915	676	4520	-25464	-9625	-8169	-7793	-16996	7952	32767	9581	-10642	-3001	-9244	5896	13148	1738	18013	-3850	-19464	-2428	92	-4940	18163	-3617	-18384	2768	10608	3657	6277	-3033	106	122	1
-32768	3148	-32768	-10474	6278	5975	-8740	16	-19996	-9335	12941	-3326	-20204	2484	21388	-20746	-5128	3814	-9016	6528	13736	2031	25550	-3783	-22452	-1980	320	-3288	20880	-3789	-20708	4072	12148	5599	1277	-3177	127	127	1
-32768	6516	-20972	21596	32767	15146	-16520	3120	-14644	6532	24466	4396	-15080	-3696	4032	-18635	-2476	-2331	-9024	6720	13876	2265	26849	-3995	-26336	-1244	3448	-55	23415	-2207	-23404	3564	22904	5421	-11844	-3042	143	123	1
-13100	-1340	32767	3151	32767	8898	-32768	18712	-2288	27697	22574	6278	-19360	-5668	4204	-4844	-4764	-1148	-5996	10308	17348	7271	32767	-12032	-32768	288	8788	8594	25323	-1618	-17536	8404	26364	9641	-23861	-1722	128	127	1
-32588	11020	32767	-3028	27406	3671	-12236	28888	-23244	14863	26906	7829	-5868	6296	-1364	8785	11099	4792	-7544	12320	19348	13763	32767	-21886	-32768	2040	12520	17501	25218	686	-22768	788	14340	17869	-11211	-4777	133	129	1
-24624	-32768	4864	3260	8402	9483	-21808	-17936	-19888	-15086	25538	-1356	-3540	1272	-30180	-2549	12046	4838	-32768	9664	17608	11842	32767	-26825	-32768	1908	-7192	17939	24742	3076	-23692	8732	-5788	29427	-5879	-4443	112	118	1
-16940	18360	25520	7445	4998	8395	-13268	-11432	-14292	27345	19183	3486	-11892	-17464	-19336	5993	-657	-3512	-32768	18452	25220	13616	32767	-22606	-26340	264	-18408	8080	23174	-2729	-32152	3244	-14492	8680	-13235	4809	79	131	1
-9384	-8676	14648	6884	1845	7281	-8772	5312	-14860	26678	11850	4701	-13076	-1616	-11504	9061	13749	-6735	-32768	17636	28324	12677	32767	-22239	-18824	-6904	-28680	-270	19038	-6695	-31152	584	-2712	-6044	-19882	10015	105	141	1
-11420	-3116	14192	5190	429	3938	-22016	16508	-10708	1951	9993	3814	-26640	2388	-6640	4186	11884	-3705	1084	2576	32767	5764	-20240	-9521	-23096	532	10912	6490	14277	-4800	-32768	-1904	-8436	-10069	-20033	10061	126	117	1
-10752	-724	14912	2014	384	1021	-19988	4628	-7260	-9132	9864	46	-21604	1964	-2340	-1226	15849	2563	4592	11964	29084	8266	-25941	-7308	-12188	2248	3736	16115	319	-762	-27948	-4564	-5004	-7910	-20191	8417	111	107	1
-8900	-2620	14132	-148	898	-397	-16284	260	-6572	2788	7348	-453	-16200	1800	-3324	-437	17436	4509	6676	11332	16580	2062	-29882	-3901	-7564	3048	2484	9523	-9111	3374	-22976	-3092	-5220	-5944	-17519	8135	146	117	1
-8084	-3632	13980	-589	1092	-395	-16936	-2316	-5688	11859	5036	127	-15600	-2508	-2652	-1792	17199	4709	2908	7768	13416	-2642	-32768	32	-4828	2508	-376	890	-15697	5588	-17292	1676	-6872	-1970	-14790	8877	128	114	1
-8872	-4284	13688	-547	1176	28	-15460	1128	-5204	7754	4708	370	-17512	-3200	-904	-3217	17614	3480	-796	6132	12080	449	-32768	4820	-4924	-24	-1664	-1983	-21692	5841	-14140	348	-7288	-4299	-12403	10226	126	128	1
-8596	-4896	13480	-278	900	807	-16960	1764	-3688	-6899	5350	-879	-16716	-3964	-216	-7179	15869	2016	-4492	8012	11240	1861	-32768	10167	-5588	-760	-3300	-3208	-27062	6385	-11684	312	-8392	-2442	-11113	8204	134	117	1
-8644	-3572	14016	-124	576	1137	-16124	-1320	-3132	-7218	4941	-974	-15104	-3092	484	-6521	15607	2945	-6428	8900	10224	-433	-32768	15332	-7552	-80	-3332	-5273	-32383	7094	-10912	1108	-8464	-5729	-10408	6239	125	151	1
-9256	-3724	13832	-516	1155	1137	-15000	-2908	-3168	55	4345	-278	-14672	-2448	2476	-5296	14442	3096	-10448	9252	11900	-3348	-32768	19539	-9300	-1528	-4872	-6549	-32768	7204	-9560	-1276	-8464	-11843	-11184	4527	131	127	1
-9148	-3860	13600	-716	1228	1475	-16076	-200	-3860	515	4578	-311	-14672	-3724	3944	-6125	14996	3447	-13652	8524	12772	-3039	-32768	23614	-11764	-2760	-5004	-6429	-32768	6864	-8828	-3240	-9228	-14431	-11583	3359	120	105	1
-8768	-2244	13744	-766	1143	1412	-14048	-520	-4028	-4658	5566	-1053	-14152	-3048	3556	-6322	18444	2581	-15756	10088	13552	-3644	-32768	25649	-15228	-2160	-5896	-4861	-32768	7803	-7420	-4120	-10152	-16912	-11345	3200	130	104	1
-9544	-3780	13128	-361	751	1369	-14924	-20	-2352	-5179	6244	177	-13440	-4772	2580	-8586	20346	1720	-18200	11784	16164	-5850	-32768	26016	-20616	-292	-7564	-5644	-32768	10152	-6176	-2976	-7600	-17253	-9583	3943	127	125	1
-8780	-3832	13424	-284	475	1487	-13212	-2140	-1744	-1953	7854	519	-14552	-5316	1804	-4910	16709	1656	-20424	10996	18548	-4623	-32768	23348	-25760	-1904	-9900	-5579	-32768	10961	-7272	-3756	-3420	-17383	-6142	4787	126	117	1
-8472	-3264	13864	-655	1337	1821	-16848	-492	-3352	625	8909	771	-17256	-4596	672	-179	14233	1266	-30520	14384	22288	-2352	-32768	21254	-25864	-2572	-15316	-1849	-32768	12053	-8772	-2256	712	-17252	-4732	6412	119	122	1
-8932	-2896	14384	-1190	3243	1990	-18400	2336	-3284	-938	10106	802	-19436	-2012	312	-721	11538	2226	-32768	8804	20384	-1978	-32768	20943	-26436	-3248	-17248	-965	-32768	12453	-12704	2564	148	-7031	-1368	4794	121	120	1
-9192	-2656	13372	-833	4976	1846	-17716	1744	-1748	-1718	12109	996	-18724	-3000	3688	-4675	9100	3393	-32768	8896	11868	-748	-32768	18547	-26160	-4256	-18548	5694	-32768	8013	-17892	6548	22432	-184	-6103	5254	119	133	1
-8564	-3628	14288	-1825	8390	1994	-17856	-1120	-2320	-1549	14731	1943	-17036	-4816	7984	-5453	8316	1953	-32768	7188	-8960	-8630	-27187	9642	-28324	536	-23980	772	-27009	6796	-13228	144	32767	-975	1654	7763	117	127	1
-8880	-4176	14680	-1777	13187	3144	-20312	208	-1796	-370	16866	2601	-19092	-2424	8276	-6298	8392	806	-32768	-4880	-32768	2726	-16859	-4814	-2996	-5212	-26924	-2287	-6673	7125	-24192	-2948	32767	-1403	-3458	5138	117	127	1
-8360	-3136	15220	-1686	19030	4181	-20548	3332	-1416	-1771	19725	2832	-20756	-1904	7316	-7189	3479	1813	-32768	6732	-28892	8829	6173	-1792	-1948	-8460	-26296	-2264	-2456	6441	-17260	-304	19836	8275	-4119	-2726	117	112	1
-8572	-3852	15508	-1738	26296	4517	-23400	2164	56	-2914	22445	3120	-22548	-4088	10620	-8305	-2623	1960	-32768	3168	-13176	-10517	29525	-5814	-15728	-2984	-23744	-3095	24822	-6066	-12692	1696	2504	10388	-952	-2522	122	120	1
-7648	-6464	15172	-1012	32767	7378	-26808	2968	2764	-3468	25199	1598	-23872	-2500	22676	-7745	-16499	2828	28216	-18756	32767	1695	32767	-2930	-32768	-21352	27048	-18727	10717	-7045	-22424	3720	17728	4184	-3440	-1943	127	118	1
-10668	-9212	18192	-1983	32767	11138	-32768	-1652	9420	-14231	26271	1331	-16860	-7488	15584	-13254	-24522	2750	-32768	-13456	20864	4538	26789	-9763	-15548	-15828	-25368	-14348	28928	-6840	-14396	-4644	12700	-13733	10658	44	134	130	1
-13228	-10012	22184	-2455	32767	22227	-32768	-3036	11588	-22444	26803	802	-22784	-128	7976	-8953	-13999	3717	-9472	26020	21620	5014	8514	-13809	-20516	4508	-5216	496	25499	-516	-19344	-15064	-10844	2927	6394	-2892	120	127	1
-32768	-4284	29048	-1880	32767	25103	-24108	-4084	-14452	-22348	30148	807	-23504	-10656	-4648	-19386	-14052	3629	-15420	-1052	17764	-2603	6854	-5834	-12196	7936	-14464	-9261	17693	627	-11576	6760	-17176	21773	8768	-1372	135	155	1
-30084	-18508	22008	-5207	32767	23446	-30228	-2740	-860	-17975	22842	6109	-32768	-6844	-13860	-1315	-17958	-2553	-6148	21340	8336	-2814	3769	-6137	-16472	-4104	-10912	-2577	16620	-2853	-14180	3864	-11928	15208	14147	2868	133	166	1
-32768	-15088	32767	-7518	32767	23574	-13552	-2324	-28948	-4668	18287	4682	-29176	2732	-2120	8270	-22489	-5927	-11720	1548	15164	-1204	3467	-3735	-20860	-10824	-11076	12284	8782	-1221	-25248	10380	-9252	8535	13952	1677	135	192	1
-13052	-12332	32767	-6320	-15360	14241	-16104	1768	-7716	-9171	9839	-32	-31820	-2160	-7868	4294	-20969	-6192	-8672	2456	15412	526	2406	-1435	-19072	2980	-8776	-3198	8399	-959	-22252	-1232	-3000	-6394	16373	-4065	116	129	1
6832	-13116	22732	-7174	-30035	5925	-10744	-1464	6064	-13430	290	-2091	-28624	1116	-5048	1805	-21215	-6596	-8292	2604	14476	2232	2235	-761	-17848	-6644	-5088	-10236	5810	-1652	-19384	-4240	-1000	-6361	16726	-5956	140	157	1
9440	-12492	11000	-3279	-24655	-1138	-5760	-956	2096	-4473	-8602	-4464	-20980	1084	-6668	-2352	-18493	-8781	-6420	6484	13356	2923	2897	-528	-17572	-860	-1776	-1812	5872	-260	-16036	276	-1036	-1071	14999	-6471	142	128	1
3840	-9788	12384	-2069	-24423	-8754	-3352	708	-1552	4864	-16088	-6860	-16752	-2200	-7816	-1037	-15869	-9974	-7544	6208	13456	1735	2781	-1415	-17464	848	-3776	4810	5330	461	-17556	2724	-924	3349	13938	-4700	126	126	1
-2832	-8620	15140	-2759	-28317	-16324	-4484	1756	-4544	6152	-22547	-7803	-14796	-2672	-9468	1603	-14008	-9180	-7680	7192	12656	1711	3229	-2247	-17920	2360	-3276	1306	4866	-274	-16128	2672	1952	2380	13412	-3821	126	106	1
-7916	-7024	16356	-2893	-32768	-22900	-4244	1880	-6096	5389	-28788	-8587	-12324	-1208	-10148	2935	-12375	-7647	-8468	5500	13152	1571	3683	-2678	-17216	-832	-2940	132	4588	-821	-16576	1424	3780	1397	13117	-3689	134	109	1
-9240	-4724	14008	-1537	-32768	-27308	-5888	1240	-4908	5857	-32768	-9571	-10252	-964	-10584	4747	-10047	-5894	-8184	5556	12940	1851	4504	-2598	-17432	-2076	-3192	1580	4855	-664	-15508	-876	5200	2361	12410	-3760	134	119	1
-11176	-3796	13392	380	-32768	-27935	-7140	444	-4404	9687	-32768	-9929	-8876	128	-10816	7831	-8361	-4660	-8576	5224	12512	1938	5080	-2384	-16824	-1548	-3264	1537	5446	-689	-14828	688	4020	6021	13978	-4337	153	125	1
-14724	-3588	16024	1408	-32768	-25451	-10400	1344	-6516	12604	-32768	-10129	-7716	2508	-11112	12012	-6265	-3208	-9116	6212	12056	1829	5062	-2569	-15716	680	-3792	470	5992	-1159	-14784	3608	1676	7990	16660	-4225	127	127	1
-19976	-5144	19372	1936	-32768	-22321	-15112	2996	-7640	11902	-32768	-10031	-5804	3140	-12760	16926	-1631	-2239	-8900	6248	11812	1365	4964	-2914	-14248	188	-2964	-339	6936	-1282	-15688	5068	584	4724	14682	-3047	132	125	1
-22812	-7260	21048	3048	-32768	-20787	-22936	3016	-9556	9886	-32768	-10379	-3420	4936	-10444	21195	2493	-1228	-8948	5612	11968	1225	4747	-3175	-14600	-212	-2784	-97	8071	-1112	-15048	2368	2032	952	11440	-1895	126	127	1
-28284	-9780	23428	2903	-32768	-19223	-29252	4916	-10756	8813	-32768	-10473	-6292	1752	-6868	19509	2386	-751	-8696	5544	12360	1179	5249	-3300	-15644	-676	-2856	5	9392	-1388	-15604	2596	3612	-1329	10076	-1868	127	111	1
-32768	-5236	25508	-374	-32768	-19404	-32180	5604	-17200	1275	-32768	-8665	-5648	-3348	-5000	15339	1572	-3867	-8796	5644	12620	1434	6650	-3531	-17444	-1300	-2108	63	10787	-1562	-16880	2848	5536	242	10254	-2219	124	106	1
-32768	-9544	18844	1843	-32768	-13800	-28556	140	-22576	-4336	-32768	-8776	-20912	-6560	8608	5252	-3366	-7014	-8740	5200	12816	1529	8737	-3325	-17776	-2060	-1148	297	12945	-2157	-17028	3672	6860	2868	8920	-3245	121	138	1
-32768	356	-584	406	-32768	-13620	-22248	3356	-22332	-2579	-32768	-4889	-22128	-5976	32767	2088	-11575	-4966	-8972	6132	13172	1463	12259	-3521	-19464	-876	-1616	-1220	14997	-2898	-18328	2160	8320	3736	9052	-2647	128	152	1
-32768	7904	-32768	-11759	-26233	-4847	-1520	6252	-25096	-9755	-13210	-7362	-13780	11840	32767	7521	-10832	-2287	-8800	5312	13416	1379	17114	-3928	-19464	-3256	-896	-2745	17107	-3292	-18792	1052	9308	4844	6329	-2925	96	130	1
-32768	10924	-32768	-26019	-5051	-3955	-7072	3240	-19648	-14008	9831	-2744	-19892	2800	24080	-15599	-4031	5453	-9264	5644	13992	1336	23534	-3689	-21524	-2080	-288	-2382	19490	-3543	-18612	1668	9456	4844	5458	-3161	123	129	1
-32768	-8444	-15124	7406	16587	3747	-13340	-3964	-20496	-3615	21917	2955	-13540	-1452	5708	-19228	-2640	-9	-8512	8404	13632	1998	31772	-6553	-24248	100	2292	-1736	22018	-2304	-20816	3684	19200	5355	-6796	-2775	128	120	1
-7516	1544	10440	13763	22373	4842	-14568	708	-14632	8835	26386	4363	-5368	-7032	-4896	-14987	4685	-2802	-8576	8520	14608	3894	32767	-11378	-27452	-2160	4976	3807	24851	-966	-16796	5152	32767	5180	-26259	-2544	131	127	1
28652	5552	30192	1840	32767	-2360	-32768	22568	32767	26624	13639	5323	-2344	-9136	-8832	862	9872	160	-6028	11000	18300	8674	32767	-18242	-32768	-540	12252	15656	26413	-327	-18108	6972	18832	20621	-15248	-6068	125	133	1
-32768	13884	29564	-6750	32767	7588	-16836	1416	-21296	23226	21407	10519	-30512	-4768	17396	15269	-5134	3520	-18236	8572	16712	9697	32767	-28766	-32768	2716	3972	25420	26250	4121	-20576	1296	1332	22751	-7635	-4502	97	151	1
-19436	-32768	-13116	11206	9079	13292	-26112	-16308	-16048	13084	23767	-2293	-23092	-4232	-19964	6319	11663	-2572	-32768	9516	17676	9418	32767	-27961	-23220	4940	-18596	16951	24280	31	-30480	12412	-8904	20906	-9162	1742	125	131	1
-3792	-29300	-1984	12065	13818	10180	-12788	13160	-17504	29307	19742	4054	-9560	-2212	-12628	6274	7964	-7190	-32768	14800	32767	4292	32767	-18814	-22256	-5068	-27548	-764	23778	-6098	-28620	-716	-4976	-3739	-16997	8766	71	128	1
-11088	2064	17120	3815	2350	3809	-10268	8384	-14544	-978	15057	1188	-12316	5980	-9412	-3272	8676	434	-14708	11084	32767	4988	-3502	-17795	-25464	-1496	444	2081	18967	-6320	-32768	-1152	-10024	-12900	-20468	9979	128	123	1
-10624	-2144	14780	1563	1247	1275	-19852	6308	-12832	-14494	10764	-98	-23144	-2480	-10560	-12842	9655	1403	1116	8560	27180	8231	-16067	-19459	-13184	5068	2132	16395	5300	-1941	-30020	-4748	-5096	-8973	-18978	8440	101	97	1
-9496	-4216	14248	62	1040	47	-21208	-2180	-8848	-3352	8911	245	-24084	-4672	-5628	-10432	12343	3282	5568	13588	21948	5716	-28184	-12177	-11496	4360	276	15802	3654	-1553	-24552	-7316	-4908	-575	-17332	6826	102	115	1
-8572	-3984	13904	-1068	1228	-774	-17468	24	-6708	3420	5888	554	-19444	-5616	-3828	-3928	16892	4946	5520	12804	14664	1347	-31878	-3490	-6920	1424	1156	5213	-13452	4336	-20448	-1116	-7100	1416	-15007	8091	126	111	1
-8388	-4324	14248	-1836	1548	-987	-16048	1532	-5336	4184	4032	592	-17180	-1376	-1572	-140	17992	5394	1464	9652	12692	2705	-32768	5772	-5888	-172	-1996	3055	-20529	5632	-17164	2272	-7720	-4062	-12256	9592	145	115	1
-8088	-5368	13748	-1835	1792	-542	-17224	1604	-2924	-1872	4202	-106	-17404	-1400	624	-4158	16432	5202	-5464	9688	12444	4213	-32768	14733	-5288	-28	-4568	-977	-26186	6833	-12592	-500	-7836	-6531	-10610	9471	152	124	1
-8236	-5164	13548	-1568	2143	294	-17660	-480	-2512	-7298	4816	-998	-16488	-3880	700	-5668	15104	3905	-6664	8472	10560	2711	-32768	20770	-6440	1140	-3424	-5614	-31387	7648	-11540	-272	-8156	-7289	-9677	7765	135	136	1
-9052	-5088	13524	-1837	2494	1183	-16284	-2864	-2512	-3058	4310	-211	-15300	-3780	2880	-5912	13869	4511	-9924	7580	10900	714	-32768	24129	-8904	0	-3556	-10179	-32768	8322	-10648	-2248	-7296	-10115	-10248	6359	131	135	1
-9328	-4672	13404	-1588	3557	1271	-15664	-1372	-2740	-511	4718	435	-14032	-4628	3572	-4821	12961	3920	-13992	8348	12864	-1777	-32768	26302	-12016	-2548	-5256	-11883	-32768	7960	-9864	-4788	-8640	-13015	-11236	5087	117	117	1
-9256	-4608	12892	-797	3283	1592	-14708	-388	-3016	-42	5482	791	-14568	-4320	3840	-4725	13696	3514	-16164	8428	14288	-4289	-32768	27709	-14964	-2656	-6428	-9916	-32768	8118	-8632	-4984	-9356	-13996	-11833	4405	119	105	1
-9356	-5436	12600	-98	2889	1933	-14232	-2208	-4108	-500	6463	818	-14024	-4660	3072	-7001	15789	3727	-18660	8692	16560	-5403	-32768	28224	-19444	-2436	-6748	-7852	-32768	9140	-6608	-3340	-7908	-15740	-10137	4475	121	115	1
-9928	-4824	12212	-27	1876	2065	-13624	-1000	-3796	-327	7438	1399	-13476	-4284	1080	-3983	15544	2394	-20044	8740	19896	-4513	-32768	26533	-24608	-1644	-9068	-6470	-32768	10562	-6448	-3564	-4732	-16362	-7890	4719	128	138	1
-9344	-5180	12560	440	1057	2384	-13544	-1688	-4028	867	8485	1599	-12312	-4640	484	-710	13661	1545	-26256	14872	22156	-7010	-32768	22425	-25732	-192	-12436	-5256	-32768	11751	-8168	-4076	-552	-18080	-6005	5653	127	129	1
-9428	-4848	13388	150	1674	2731	-16424	496	-5076	2772	8739	1699	-15316	-2556	940	984	13862	1798	-32768	480	22356	-6082	-32768	23338	-22992	-5340	-11260	-6386	-32768	10125	-10224	1708	-772	-12753	-2137	5470	129	126	1
-9428	-4196	13744	-356	3398	3099	-19056	2896	-4420	612	9581	1454	-19860	-1288	1388	-679	15411	2127	-32768	8124	16452	-684	-32768	20967	-30640	-5628	-15620	1008	-32768	8531	-16892	4844	13456	-3359	-5976	7009	122	140	1
-9780	-3312	13664	-882	5550	2868	-17076	2196	-1788	-835	11560	1706	-18212	-2732	3584	-2507	12144	2201	-32768	5168	4572	-7606	-29758	14302	-27656	1968	-20728	-781	-32768	6580	-13052	4112	27664	-5494	-324	7428	119	129	1
-9260	-4464	13812	-1088	8837	2564	-17324	-144	-1156	857	14122	2673	-17584	-4568	7528	-842	8443	1883	-32768	12	-18328	1433	-26132	-959	-9816	-3644	-25564	2174	-18239	8118	-16928	-5788	32767	-6738	-2868	4393	118	122	1
-8672	-4796	14020	-1163	13329	3316	-19332	1464	-2092	2618	16549	3099	-18312	-1536	8520	-3070	6714	1860	-32768	-5416	-32768	22691	-12868	-5375	-2524	-8456	-21948	10192	5099	5292	-19520	-1388	27556	5180	-4348	-1389	118	133	1
-9408	-4128	14388	-1285	19233	4010	-22180	2692	-2400	182	18987	3253	-21620	-2192	7568	-5476	3853	2106	-32768	10076	-19960	-5339	12998	-4396	-12328	28	-24688	8560	19047	-2569	-14224	3168	9136	10385	-3970	-2498	119	112	1
-8896	-6008	14708	-1658	27213	5379	-24208	3168	516	-2753	21450	2515	-24068	-1644	13132	-7734	-3101	2040	-24700	2192	3684	-4505	21606	-4344	-17932	-5156	-20708	-6744	23413	-4451	-6196	2312	-2744	8670	1010	-2096	119	119	1
-9104	-6088	15060	-1664	28598	5786	-27084	2284	4480	-7352	24627	775	-24696	-880	32767	-1112	-29268	4924	9440	1112	32636	-8541	23708	2188	-27828	-6280	32767	-15240	10718	-6322	56	6888	-15688	-2250	18174	-402	121	115	1
-11500	-8600	17148	-4328	32767	12691	-32768	-864	10552	-14954	27030	437	-14192	2132	32408	-7497	-18484	4850	-8516	-1808	6224	9933	32767	4951	-19696	-9116	-11088	-2573	16786	-3270	-32768	488	24416	1179	3942	3107	130	115	1
-14884	-9236	19256	-7296	32767	21216	-32768	-4752	9316	-21527	28581	1055	-20396	-7580	8680	-15421	-13465	4309	-22064	-4248	28384	12266	27225	-7697	-31600	-184	-2148	-14943	24748	-4583	-17316	-11868	5880	-4228	7577	-2697	132	181	1
-32768	-7988	26112	-5900	32767	25762	-27504	-7444	-15196	-21719	28224	2680	-27416	-12688	-8200	-21220	-13845	4200	-28436	21976	-11744	-862	6614	-12506	-19424	8640	-23384	-10499	23316	1389	-16096	-3692	-14420	15688	7698	562	138	135	1
-24596	-12720	17228	-8663	32767	24943	-31600	-3796	-96	-13801	21895	7130	-32768	-8320	-13912	1127	-14347	-3539	-6500	4868	17920	-2159	1854	-8700	-13512	-9180	-9468	3257	20063	-1457	-12536	4272	-15636	24739	8363	-2005	138	181	1
-32768	-15088	32767	-10682	32767	25975	-12840	-1168	-27236	-4267	18117	6532	-28644	888	-5588	10827	-21056	-5525	-10232	2408	15404	-2326	4632	-4078	-14084	-80	-11288	10552	12276	432	-15160	11016	-14656	22758	12927	-802	137	156	1
-9172	-11316	32767	-5830	-13875	17700	-14520	-688	-14696	-9911	10569	1733	-31948	-4896	-6828	6870	-21673	-6947	-9616	3128	14820	-1367	2830	-2856	-20260	2788	-9788	3578	9822	-998	-23772	9280	-6116	1180	14625	-548	138	170	1
3908	-15820	28228	-5421	-31426	10024	-11080	-2628	2032	-13147	-522	-155	-30596	-228	-6864	4763	-20040	-7153	-8688	3624	14560	-60	1860	-1950	-20164	-3912	-6608	-10852	6227	-1858	-23168	-3872	-3292	-8009	16827	-3422	127	151	1
7764	-12032	10624	-2452	-29544	4032	-6436	-1884	2104	-4519	-9544	-2594	-23328	1368	-6512	-322	-18402	-9542	-7452	5484	13528	1696	2364	-1232	-17832	-3572	-3240	-6966	5458	-865	-17584	-1604	-1520	-2930	15969	-6589	132	150	1
3712	-11820	10536	-925	-29211	-3143	-1816	-556	-1904	3347	-16791	-5287	-16272	-308	-7672	616	-14805	-10705	-7332	6388	13272	1573	2801	-1654	-17204	88	-4188	2011	5335	436	-17120	1604	-1924	1515	15563	-5737	129	123	1
-1872	-10656	12276	-1711	-31717	-11158	-2460	1948	-4236	5790	-23146	-6902	-14124	-292	-9604	2726	-13637	-9835	-8136	5604	13300	1243	2808	-1865	-18036	264	-4716	1741	4061	375	-18876	3156	-1740	-1660	14321	-4474	120	108	1
-6328	-9596	13092	-2620	-32768	-18833	-3148	1496	-5868	4174	-29167	-8559	-12356	-1932	-10172	2576	-11395	-8618	-8928	6024	12672	1976	3011	-2437	-17164	452	-4540	-399	3868	258	-16576	-1444	2048	-2746	13928	-3425	137	129	1
-8564	-6708	12844	-2890	-32768	-24868	-3620	1476	-5936	4049	-30089	-8764	-10836	-1672	-10532	4564	-9226	-6736	-8244	4644	13120	1868	3862	-2203	-16932	-2484	-3244	2000	3570	238	-15596	-1040	4904	1388	12389	-2916	144	96	1
-12116	-5108	13320	-3414	-32768	-27303	-6640	664	-5132	6343	-32768	-11267	-8264	1384	-9628	6028	-7851	-4343	-8348	4968	12608	2534	4717	-1431	-16656	-2432	-2608	4154	4322	-64	-15500	148	5356	3749	14757	-2914	144	112	1
-15472	-4768	15820	-3820	-32768	-25997	-10240	1580	-6628	8777	-32768	-12789	-8020	2452	-9500	10320	-6890	-2675	-8516	5956	12260	2736	5126	-1201	-15500	3124	-6960	2579	6982	846	-14644	3084	3916	7949	16069	-2739	130	116	1
-22532	-5300	17364	-3996	-32768	-24273	-13532	3548	-5708	8127	-32768	-13283	-6868	4176	-13376	14328	-1150	-1965	-8544	6860	12052	2244	5126	-1521	-14156	1344	-1656	892	6363	-944	-15416	5432	3004	7529	13464	-3004	130	129	1
-23428	-8420	19168	-2465	-32768	-22860	-21688	2692	-10564	6042	-32768	-14210	-4476	4764	-10316	21507	204	-1713	-8648	6140	11800	2005	5014	-1960	-14912	860	-2292	-347	8011	-915	-15972	4444	2932	1798	11534	-1563	120	120	1
-29176	-11068	21356	548	-32768	-21920	-30636	3740	-11212	5435	-32768	-15110	-6172	2868	-5540	18605	421	-1974	-8736	6236	11852	1992	5024	-2070	-15652	-100	-2652	-21	9440	-766	-15080	3020	2660	-313	9914	-994	127	76	1
-32768	-14096	21468	3563	-32768	-21015	-31272	4172	-18264	10100	-32768	-15408	-9796	-1516	-2872	14796	-431	-4024	-9060	5980	12340	1747	5858	-3001	-16656	-292	-2416	206	10763	-814	-15680	3856	4808	1258	10348	-2176	130	135	1
-32768	-7588	21360	-3122	-32768	-24539	-27700	6580	-22932	2552	-32768	-10225	-16256	-4552	1896	5681	1408	-7117	-9256	5324	12388	2071	7744	-3111	-17316	-1420	-1960	-633	12507	-1390	-16816	3012	6292	3706	9363	-2365	123	137	1
-32768	-1360	4800	1749	-32768	-22621	-27500	4752	-22204	2112	-32768	-7582	-23560	-10128	30428	-1100	-11350	-5996	-8812	5936	13144	2051	11173	-3274	-19640	-1100	-1972	-1096	14405	-2015	-18948	2384	6152	4353	8300	-2274	120	135	1
-32768	1696	-25644	6544	-22046	-16261	-7860	4084	-22212	4964	-19241	-3516	-13736	7072	32767	5248	-5031	-5806	-8972	5980	13016	2008	15547	-3822	-19996	-2344	-1516	-2191	16110	-2196	-18912	712	8044	5084	5762	-1732	105	115	1
-32768	25560	-32768	-19535	-7449	-3760	-1920	12004	-22236	-5801	4401	-3720	-18524	2340	26856	5668	-4868	3361	-9280	4832	13472	1863	20792	-3470	-19348	-3264	-816	-1545	18549	-2331	-17796	2984	9728	6195	2085	-2778	111	122	1
-30048	-15292	-19268	1330	17888	1842	-15496	-3756	-18652	-8380	19679	2648	-14280	2492	10572	-14099	-3132	2750	-9100	8052	13568	2303	28368	-4350	-22416	-272	448	-1269	20864	-2001	-19104	4376	14156	7346	-2122	-2381	130	124	1
-18016	11980	11616	13811	24364	12550	-17048	-6188	-17000	-4739	20491	2368	-10672	-6424	-2652	-13891	1437	-1067	-8116	8260	14604	3750	32767	-8120	-26376	-1980	2692	2146	23459	-471	-21448	3760	32767	5434	-22221	-2891	127	132	1
13624	5664	23052	1555	32767	4136	-32768	23212	11000	25309	16483	4875	-22088	-5616	16100	-2329	-7138	4174	-5348	9664	18060	9299	32767	-12217	-32768	-2712	11196	14641	24793	-350	-16156	5260	23660	14027	-17649	-4586	129	129	1
-32768	8148	32767	375	29485	6257	-12932	8164	-14148	14892	22138	8862	-15464	-1496	-1676	5073	6155	1541	-11772	10444	18664	15107	32767	-21035	-32768	-476	13272	28083	26349	2875	-18944	-1360	5020	23067	-10193	-5106	100	133	1
-17108	-28356	-1896	9604	10574	11987	-21864	-14580	-12652	9281	23147	234	-14788	-6208	-20756	6242	13352	-2508	-32768	9620	18776	12726	32767	-22230	-25636	6032	-11040	20879	22916	1432	-27944	9064	-7736	28884	-6642	-3516	133	133	1
-17220	11696	16132	7438	3514	11107	-11304	708	-14832	32656	17748	4107	-11636	-6636	-12696	8777	5091	-5766	-32768	18060	24660	11934	32767	-18046	-23624	-640	-24836	4936	22181	-3771	-29948	1460	-8100	4719	-16281	6497	104	130	1
-14232	996	16928	7944	2365	6981	-12364	8564	-14412	14804	13327	2899	-14120	1524	-6912	4846	9983	-4829	-28600	13316	32767	6837	742	-12901	-22548	-9440	-19564	-1192	21334	-8238	-32768	1560	-4968	-8025	-19292	9700	107	118	1
-11832	-708	14572	4129	295	2985	-21048	10908	-10964	-3060	11567	2224	-24612	1532	-8100	-434	10898	-1547	7160	5384	24580	11236	-19757	-14377	-18788	4140	8768	17922	9451	-2468	-32768	-3064	-6580	-7839	-19093	7910	123	77	1
-9760	-1728	14568	1474	310	771	-18792	2724	-7900	-6032	10083	373	-21548	-504	-4384	-3707	13173	2098	5200	13740	21376	6175	-24396	-9139	-9112	4980	1660	16797	-1793	1310	-26300	-5864	-4032	-4131	-18797	6526	117	125	1
-8700	-2784	14576	-309	824	-426	-16912	96	-7256	3989	7414	-118	-17028	-1968	-4680	-2483	16250	4744	5560	11608	15712	-3788	-27384	-5269	-6820	2444	532	5699	-9729	5298	-21460	-1276	-5320	1218	-15403	7422	138	106	1
-8116	-3312	14296	-1427	1460	-619	-17060	780	-6564	8644	5001	267	-17032	-1680	-2760	-792	17093	3903	3008	5516	13160	-1620	-30364	-457	-5032	660	88	-656	-16623	6218	-16524	2216	-7076	-2376	-12769	9313	131	113	1
-8476	-3396	14024	-1789	1578	-560	-15984	3044	-4568	1327	4600	-92	-17596	-824	-392	-2550	16761	3419	-2616	7072	12868	3456	-32768	4660	-5024	-304	-3672	-877	-21816	6993	-13708	968	-7616	-3574	-11047	9058	137	141	1
-8556	-3676	14164	-1863	1603	-519	-16876	1324	-2544	-7419	4756	-1437	-16736	-3032	104	-5875	16020	2624	-4484	8284	11308	1884	-32768	8997	-6172	248	-3736	-2061	-27398	8219	-12504	388	-7784	-3390	-9987	7564	139	123	1
-8488	-3872	13940	-252	1440	296	-16552	-3492	-1376	-4625	4671	-910	-14368	-4548	316	-6125	14843	2885	-6356	6940	10240	369	-32768	12419	-6532	508	-3364	-2726	-28471	8346	-11732	-112	-8948	-6150	-9631	5550	133	134	1
-8604	-4124	13980	-112	1487	1140	-14360	-3920	-3116	3311	4281	61	-13652	-5056	2464	-3374	13568	2571	-9404	7672	11648	-680	-32768	15509	-9864	-1872	-3908	-4772	-32768	9312	-9636	-2612	-9016	-9660	-10695	4310	137	124	1
-9356	-4056	13240	-75	1177	1750	-15688	572	-4296	2674	4886	-148	-14892	-4260	3376	-3061	14073	1547	-13836	8648	14664	-1192	-32768	18526	-12596	-2484	-6016	-3627	-32768	10052	-8352	-3268	-10452	-10964	-10455	3470	115	104	1
-9360	-3920	13840	1	855	1785	-16504	2452	-3392	-2627	5470	185	-13908	-2420	5720	-3913	17963	633	-17124	10136	16736	-1790	-32768	21754	-12300	-256	-6396	-4039	-32768	10228	-6288	-3168	-8632	-15048	-10292	4478	125	105	1
-9392	-3600	13204	-145	616	1490	-14476	-544	-3040	-3522	6885	261	-13136	-3888	2004	-7483	19727	1379	-22160	11388	19980	-2830	-32768	24671	-22200	-1716	-8448	-4788	-32768	11978	-5852	-3176	-7944	-17630	-8454	5322	124	124	1
-8844	-3932	13612	-104	527	1825	-13736	-1372	-2784	-1010	7680	470	-15140	-5352	-856	-5506	15651	2370	-25080	14672	19964	-5634	-32768	26812	-25928	-1264	-9532	-6215	-32768	12123	-6996	-3400	-5952	-15093	-2286	5885	126	129	1
-8852	-3296	13880	-317	1280	2020	-16312	60	-4284	440	8521	727	-17708	-4436	-1556	-1102	11202	1835	-29232	13176	21840	-7625	-32768	27982	-26632	-2012	-11200	-6963	-32768	12010	-10328	-572	-1176	-13995	-1123	7252	122	127	1
-8732	-3232	14112	-591	2503	2197	-17268	1760	-4192	-151	9583	695	-17696	-3944	-1088	-864	10783	1768	-32768	15436	22348	-7257	-32768	25657	-30344	-2540	-13312	-7691	-32768	12568	-15520	500	-388	-6317	-1000	6600	121	123	1
-8684	-512	14868	-952	4580	2038	-17512	1304	-2484	-2836	11140	805	-17380	-2888	4048	-3841	9284	2850	-32768	-1640	14444	206	-32430	26151	-32768	-9008	-18092	-6024	-32768	6728	-18464	8112	24124	-8075	-5197	9776	119	132	1
-8792	-3432	14364	-1160	7252	2443	-18288	-668	-3884	-1377	13037	1536	-17896	-4848	6712	-3037	9407	1456	-32768	9624	-17852	-5630	-29022	11727	-10252	2592	-26404	-696	-25784	9282	-15164	-3596	32767	-13920	-1474	7999	116	130	1
-8424	-4312	14812	-1161	11394	3724	-19180	660	-1860	574	15581	1904	-18648	-2428	6824	-4328	8334	1011	-32768	-21256	-32768	23053	-16547	-1364	148	-13660	-18908	6884	2582	4629	-20428	548	32767	-1559	-6755	-1316	118	128	1
-8608	-2528	15252	-856	16887	4176	-20652	1540	-2972	-250	18232	2780	-20124	-4040	6256	-5127	4776	1418	-32768	13992	-23456	-3203	13666	-4405	-13212	1304	-26184	1380	22188	-3900	-17292	1932	9260	8454	-5896	-2198	120	128	1
-8256	-4532	14788	-530	23499	5268	-22436	1464	-1104	-1192	20620	2747	-22340	-3516	9228	-7788	-452	1152	-32768	-5408	492	-8567	23118	-8926	-16268	-8176	-24268	-11874	26175	-7726	-8620	1496	-44	7089	-1652	-2738	124	113	1
-7292	-5240	14852	-258	32302	8303	-24880	3556	1048	-4664	23770	843	-24544	-492	22076	-8746	-14257	1775	22956	-4152	32767	1960	30959	-6836	-32768	-14216	32767	-12014	5988	-7209	-14360	-4872	9872	-9000	255	-3969	120	127	1
-7928	-5324	14908	-423	32767	8793	-32768	3520	3188	-15541	25772	-13	-19504	-4548	25124	-10223	-27044	3628	-32768	4556	13020	8155	27668	-5938	-20840	-14340	-26472	5380	25760	-4072	-25780	-8848	11444	-5949	8710	-2886	129	105	1
-11060	-8836	17496	-3954	32767	18161	-32768	368	13296	-25307	26183	-213	-22328	2516	12740	-12930	-13521	4777	-976	12248	18236	11033	17127	-8909	-22728	4188	-2932	-685	23837	-2408	-19344	-15352	-11384	10906	6875	-3967	128	146	1
-32560	-7396	23316	-5000	32767	24180	-26120	-3664	-5392	-24723	27941	1277	-17992	-5468	-1256	-22902	-13080	5006	-28548	28392	11056	-6631	11647	-6415	-10024	11724	-21872	-3678	17305	1861	-12888	8852	-14504	26026	8823	-365	126	129	1
-32768	-6060	24076	-1922	32767	25338	-24384	-7864	-10756	-15217	26163	4109	-27568	-10680	-16236	-12606	-15516	994	-8888	7700	13476	-1690	481	-7060	-17540	-6440	-10912	-4288	16552	-2970	-14564	10220	-12340	14299	13001	912	138	160	1
-32768	-12688	32767	-1954	32767	28560	-19376	-4472	-25988	-7101	20173	3035	-31324	-5084	-4240	4427	-20360	-5292	-9100	1988	15132	-2649	3019	-4203	-19564	-1940	-6864	5591	8577	-1567	-22728	11360	-9364	7074	13327	277	135	178	1
-10012	-10660	32767	-7980	-7455	21345	-20392	-72	-5316	-7884	10526	2199	-32768	-2876	-7324	7586	-20222	-6453	-7380	6808	13800	-2855	3138	-3449	-18136	2316	-6912	-37	8845	-1896	-18768	3844	-2452	-4970	14398	-1714	131	164	1
2148	-15804	27320	-8358	-19941	12399	-11492	-680	3092	-10576	1283	-1217	-29080	616	-6428	6651	-21028	-7039	-9616	4416	13808	-652	2884	-1712	-17116	-5664	-6400	-11023	6081	-2941	-17280	-4268	-1816	-7848	15488	-3990	117	175	1
9268	-16580	12600	-1729	-18687	1524	-6700	-1192	2412	-4387	-6916	-3641	-23152	480	-5752	1374	-18610	-8561	-7824	4020	14512	1903	2963	-375	-18408	-6644	-4984	-4018	4964	-1385	-18384	-3680	-512	-3100	16047	-6565	133	129	1
4436	-12052	13308	-890	-18371	-9792	-5056	1152	-1680	4154	-14619	-5374	-17032	-1452	-6624	-49	-16292	-10466	-7624	6328	13504	2837	2687	-361	-17724	-1000	-3456	5639	4706	248	-17120	28	-136	2289	15041	-6075	143	141	1
-4132	-10228	17004	-3205	-23392	-19881	-4308	1992	-5304	4800	-21008	-5946	-14892	-2200	-7628	2124	-14126	-10092	-7200	6596	12820	2320	2477	-837	-17016	1316	-3152	5061	4121	-96	-16016	2220	856	3474	14211	-5048	132	86	1
-8380	-8080	17748	-2806	-32236	-27234	-4668	772	-6532	5295	-26937	-7223	-13760	-3228	-9088	1908	-13145	-8515	-7220	6296	12884	2089	2628	-1353	-16472	872	-2300	1645	4155	-694	-15412	1312	3060	2235	13395	-4275	135	92	1
-9736	-5096	14936	-993	-32768	-31075	-7092	516	-5068	6465	-31693	-8330	-11900	-2368	-8732	4991	-11105	-7849	-8108	6844	12856	1561	2843	-1736	-16880	-1184	-1924	1752	4384	-660	-16756	1536	3716	3124	12037	-4180	130	134	1
-11616	-3384	13840	478	-32768	-30923	-7944	-180	-4968	10866	-32768	-8679	-9660	-1576	-8176	9220	-10128	-6672	-8080	6136	12744	1847	3316	-2042	-17312	-1012	-3268	3427	4977	-577	-16228	2028	3684	3278	12487	-4391	124	105	1
-13948	-3668	14512	1938	-32768	-27305	-10920	1412	-6308	14157	-32768	-8873	-8788	1696	-8320	14238	-8493	-4793	-8632	5620	12872	1996	4027	-1588	-16976	-2164	-2832	3784	5256	-1363	-15596	3140	2836	3268	15606	-4303	126	105	1
-18460	-4380	16264	2773	-32768	-23392	-13712	2512	-5464	11817	-32768	-8597	-8020	3588	-12396	16991	-3537	-3546	-8660	5908	12116	1817	3717	-1428	-15608	-736	-2232	2229	6193	-1550	-14792	2944	1240	5799	16670	-3980	140	130	1
-20860	-5760	18512	3585	-32768	-20593	-19744	2808	-9296	8546	-32768	-9018	-5532	2512	-9652	20572	-1232	-2724	-8532	7040	11904	960	3242	-2051	-14732	1948	-2868	166	6875	-1737	-15912	4156	1116	3446	13196	-3553	136	136	1
-21164	-6300	19048	3984	-32768	-20104	-26048	1728	-9724	6159	-32768	-9325	-7004	2784	-5880	19061	-170	-2075	-8460	7396	11460	-75	2277	-3179	-14480	2172	-1920	-1830	8504	-1876	-15204	4444	4092	-217	9581	-1585	127	119	1
-27464	-6052	21704	6285	-32768	-14862	-29916	1588	-10940	6522	-32768	-8825	-8412	-1572	-3516	13747	180	-4110	-8784	7236	11524	-194	2071	-3346	-14576	1200	-1884	-2525	10256	-2300	-13664	4384	4268	-794	9551	-1271	134	117	1
-29024	-5840	22284	5780	-32441	-14377	-30840	1392	-17380	2937	-32768	-7656	-11040	-3144	-2020	7306	2378	-5568	-8348	6396	12920	564	3661	-4506	-18252	-1420	-3900	-3071	11733	-2732	-17256	1892	2656	1202	12141	-2581	129	112	1
-32768	-5876	15068	2952	-30579	-7646	-28516	5296	-22440	-90	-32768	-7719	-23548	-6348	21868	1968	-9025	-4906	-8628	5540	13480	992	6502	-4712	-20064	-4508	-2744	-1185	12281	-2877	-19972	-8	2796	3395	10217	-3376	127	133	1
-32768	-1108	-2568	-6323	-32147	-11022	-12616	9396	-23992	-9821	-29042	-5787	-14928	7624	32767	5682	-8123	-1204	-8784	5008	13404	1825	10666	-4637	-18672	-3908	-1276	-1281	14390	-3349	-18664	888	8268	3549	7640	-2904	115	132	1
-32768	19092	-32768	-24721	-28864	-6141	-2800	7236	-21792	-23862	-4989	-7376	-18472	4024	32767	1683	-8296	2020	-8556	4948	14052	1641	15458	-4107	-18488	-2576	-668	-3563	17463	-4461	-18328	2864	9520	4337	5006	-3011	111	129	1
-30984	1428	-32768	-18577	414	-2103	-11176	-2408	-14908	-14912	12916	-394	-18936	-2940	19148	-17123	-6282	2864	-8212	6620	14248	1401	21706	-4454	-22164	-920	-2052	-5270	19944	-4901	-20148	3952	9576	5757	2545	-2397	118	119	1
-32768	6508	-15376	24924	28544	20091	-11652	-2408	-19644	9246	23364	4111	-12048	-7500	5696	-12599	-2225	-1315	-8052	8344	14192	1847	29980	-6872	-25400	-2716	-4	-3180	21797	-3295	-22020	644	15488	5112	-3495	-2533	137	127	1
6504	-8352	32767	-1613	25230	11421	-32112	5272	32767	5852	16394	4561	-10744	-4320	1336	-1138	-46	-1808	-7460	7752	17084	3039	32767	-11138	-29340	-3512	3212	4470	23842	-1562	-23872	8452	31788	7862	-21621	-4133	132	134	1
-32768	4824	11116	-2944	32767	6463	-24128	8880	-26344	20074	25743	6972	-15852	1836	17728	5317	6786	1296	-5364	12164	17544	6315	32767	-17950	-32768	1644	10824	11974	24611	-1925	-15048	4400	18288	9625	-16794	-3368	125	126	1
-32768	-9960	10788	6833	6336	9516	-20852	-8440	-17768	-1837	25419	-1324	-25776	-7480	-19684	-12399	7006	1593	-16892	14076	20544	11127	32767	-27341	-32768	4160	9420	19980	24944	143	-19692	-836	1492	18882	-7391	-3283	140	141	1
-13148	3016	21704	6165	7922	6988	-14484	-6144	-12368	13787	20759	2368	-16692	-5000	-9740	-3512	8662	-3403	-32768	8704	22960	10399	32767	-27884	-23528	6996	-13836	14398	25055	-330	-27892	7308	-9936	23172	-9128	-3022	119	140	1
-8348	-6648	15112	3163	3119	4003	-7812	6176	-12708	16318	14024	3136	-8288	-796	-8324	-318	5923	48	-32768	16168	32767	6614	32767	-27184	-21904	-1292	-25508	6022	22731	-3377	-28472	-16	-5112	1445	-18768	7465	90	136	1
-13288	-1344	14892	1561	1933	2137	-20252	11580	-12640	-2661	10779	1009	-23728	64	-10228	-3437	12292	-1229	-21776	18124	32767	7613	-4400	-12633	-23640	-7240	-11156	3052	18600	-6126	-32768	-2992	-6300	-5378	-18620	8932	125	113	1
-9912	-3488	14500	-348	1362	-81	-21684	-120	-7136	-8028	9898	359	-23732	80	-4228	-5955	12047	1810	6232	10004	20036	10773	-16814	-12148	-16328	3960	4768	19570	5630	-1186	-30596	-4000	-5432	-2939	-18577	8311	124	60	1
-9176	-3804	14204	-1146	1289	-690	-16832	-1080	-7504	326	7348	-562	-17200	-6144	-3532	-4285	15677	4639	5416	11828	16784	5094	-22468	-7927	-7428	2896	1384	15283	-2606	1834	-23256	-3380	-5784	-3040	-17942	7288	120	130	1
-8696	-4252	13852	-1480	1084	-974	-15800	-1056	-5392	3344	5025	674	-15544	-4100	-2352	719	16715	5258	5468	9804	12280	-362	-23663	-2454	-4928	1936	-16	4622	-9946	5068	-18860	-208	-6012	-2239	-15003	8185	130	114	1
-8128	-5260	13888	-1509	1341	-430	-17252	740	-3116	-3043	4972	167	-17816	-2812	348	-2462	15787	4142	1468	7984	10796	1180	-25552	3573	-4932	848	-1296	-601	-15605	5850	-16248	2600	-7376	-5748	-13866	9007	126	108	1
-8604	-5068	13752	-1400	1593	119	-17912	-264	-3180	-8519	4882	-659	-16836	-3016	720	-5536	15772	3693	-2260	9324	11044	1849	-28960	10226	-5932	656	-4536	-5026	-21250	6798	-14016	-484	-7592	-5745	-11490	9741	138	143	1
-8000	-4180	13876	-1703	1968	215	-16308	-920	-2452	-7611	4424	-10	-15548	-3012	2916	-4738	14325	3493	-4508	8720	10740	-596	-32488	16736	-5992	-532	-3564	-7714	-26428	7226	-12268	256	-8496	-5587	-10655	8438	145	124	1
-8776	-4676	13440	-1868	2536	192	-15608	-1496	-2928	-4474	4518	219	-14692	-3284	2704	-5255	12946	3946	-7704	7928	11092	-2817	-32768	21746	-7456	-772	-3312	-9557	-31096	7368	-10572	-612	-8072	-6808	-10660	7664	136	132	1
-9268	-4512	13244	-1919	2870	-1	-15092	320	-3052	-4916	5038	844	-14400	-3460	4024	-6608	12461	4116	-10496	8928	12140	-4817	-32768	25204	-10564	-704	-5612	-11486	-32768	6819	-10748	-1224	-8452	-11124	-11470	8022	127	120	1
-9088	-4688	12784	-1661	2610	8	-15740	1192	-2724	-5363	5216	1277	-13436	-3664	2968	-10000	14421	5047	-15004	9204	14200	-7833	-32768	27208	-13384	-1008	-6112	-12006	-32768	6548	-10460	-4488	-10196	-13193	-11517	7788	115	125	1
-8304	-4440	13876	-1842	1984	-538	-15772	-2796	-884	-14311	5115	-4555	-14184	-4640	1716	-9448	15161	4648	-14520	6960	14528	-10230	-32768	29504	-17108	-5352	-6136	-16200	-32768	3717	-7968	-2732	-8820	-17166	-9835	7575	123	95	1
-8212	-3668	13064	-666	1660	1356	-11424	-8948	-3620	2799	9042	5348	-14768	-5948	532	-4796	14503	3083	-18104	13516	17664	-9736	-32768	29571	-20148	-1804	-9232	-9782	-32768	7868	-6540	-3428	-6780	-18152	-7607	6406	115	113	1
-8516	-3944	13184	-28	2279	1634	-17192	-1756	-3348	5518	5879	2691	-14416	-4540	56	-1633	14722	1762	-21952	12044	21564	-11132	-32768	28296	-24276	-660	-9548	-8632	-32768	6789	-7580	-3364	-4328	-17541	-2545	5576	125	117	1
-8824	-4988	13224	302	2148	2620	-18500	-1092	-2220	-2401	8688	2736	-15760	-3120	424	-1207	13949	1625	-24852	11776	23332	-9278	-32768	25080	-27384	-3464	-9228	-4260	-32768	8002	-10176	-2824	312	-13854	-38	5313	122	137	1
-9336	-4632	13140	-171	2817	2771	-15624	-416	-2676	2131	9482	2452	-16480	-3636	1280	-676	12830	1801	-29988	12244	23476	-6750	-32768	17567	-27924	-296	-12392	1439	-32768	10786	-14652	-1808	5256	-8250	-2666	5661	118	132	1
-9240	-4520	13756	-448	4391	3277	-17364	832	-2684	1346	10560	2465	-17448	-3424	2300	-1932	11403	2244	-32256	824	10232	2653	-31799	11351	-30472	-5888	-18824	5600	-32768	12059	-19488	6908	20332	-4840	-5899	7918	118	143	1
-9112	-4040	13948	-1236	6916	3297	-18644	1504	-2628	330	12495	2993	-18052	-2432	3588	-3158	9938	2995	-32768	8936	-4184	2944	-32654	-191	-16108	-780	-25728	12087	-26636	11479	-12784	-928	32767	-7283	-1235	7641	116	128	1
-9744	-3696	14020	-2019	10609	3152	-18324	2224	-1964	1603	14367	3841	-19144	-632	5840	-2127	8607	2029	-32768	-8996	-31548	17917	-24342	-9119	-4856	-9780	-19604	15174	-3917	8690	-19336	676	32767	457	-7429	1904	120	127	1
-9788	-3284	13860	-2560	15604	3116	-19768	2080	-2376	1549	16774	4328	-19436	-1060	6624	-4328	5596	2140	-32768	9464	-32684	1874	6089	-9704	-8768	-276	-23980	9725	13581	1227	-18464	2064	17440	12110	-4721	-644	121	117	1
-9180	-5376	14240	-3081	21553	3635	-21896	2340	-1636	223	19033	4396	-21928	-2080	8436	-7615	1642	2978	-32768	4188	-8564	-11247	24444	-7978	-15104	-3524	-20676	-6822	21825	-5826	-13176	2120	3812	9070	-2853	-1865	123	113	1
-9556	-5464	14300	-4424	29972	5409	-23684	3532	1060	-4567	21675	3152	-23108	-1296	16996	-9576	-8158	2871	-152	-5844	28792	-4058	32767	21	-32768	-20336	23268	-20735	11783	-10830	-18060	2444	6344	-1097	-5391	-997	121	112	1
-11084	-6800	16720	-5710	32767	7061	-32592	-3304	6584	-12292	24165	4066	-23224	-10076	32767	-4106	-30441	3865	-32768	-16036	24680	3254	28449	-3428	-21368	-17644	-19556	-16482	25719	-5616	-7976	-5624	3168	-21748	15519	2269	136	103	1
-11068	-11872	18460	-6349	32767	15713	-32768	-4360	10124	-11702	25306	4150	-22396	-4764	14384	-10531	-14941	2685	-10888	17512	32767	3914	9798	-13392	-19228	-2676	-4540	-1845	24790	-1693	-16844	-16588	-10952	3260	8326	-9789	125	137	1
-32004	-10780	24492	-8853	32767	23510	-26928	-1964	-5692	-16621	27794	4068	-19148	-4644	1620	-13561	-11764	2294	-4416	11532	18976	-4780	6883	-4672	-16332	22768	-17324	-5551	16097	3224	-15040	10540	-17676	17392	7593	580	128	112	1
-32768	-13820	24888	-8727	32767	21892	-29000	-3776	-10120	-16498	24781	6766	-29192	-11816	-17848	-9841	-12831	707	-11956	24932	5592	-5060	2006	-7606	-14676	-3708	-12304	-7307	15881	-4637	-14544	3948	-10972	12863	15176	4640	132	173	1
-32768	-18556	32767	-5599	32767	27034	-20588	-720	-22688	-2665	21780	7383	-31392	-3776	-5756	4454	-19921	-6139	-13444	1044	15004	-3237	1315	-4660	-20848	-12336	-10256	6492	10955	-4271	-20524	7024	-9324	11532	14539	4156	134	211	1
-21904	-22236	32767	-5745	-3063	14653	-19028	976	-10616	-1259	12956	5699	-31388	-532	-4368	11311	-19696	-7025	-8108	2184	15524	-723	1197	-1420	-18524	-1000	-6008	606	8181	-621	-22480	-1000	-364	-6942	15927	-2333	132	141	1
-1192	-16980	32767	-2047	-20738	7013	-13524	956	2176	-8299	2676	959	-29976	1832	-6516	7714	-19886	-6400	-7784	2824	14600	1042	2126	-26	-16620	-3816	-5076	-12276	6314	-1936	-21816	-3512	-196	-8974	16644	-3311	145	179	1
11400	-8748	14556	-783	-24233	1051	-8216	-984	4656	-6555	-5098	-1305	-29036	2584	-5208	7187	-20086	-6540	-7088	5220	13980	2455	2922	366	-18992	-3020	-3132	-5611	5956	-848	-16060	-776	-1720	-1103	14980	-6413	146	123	1
5324	-9752	15248	-2915	-23490	-4610	-3900	92	-588	229	-12363	-4450	-18168	-648	-5932	-3618	-16827	-7593	-7672	6332	13124	1733	2161	-945	-16756	692	-4152	6195	5509	962	-15868	3964	-2332	4834	14413	-4760	123	136	1
-1420	-11572	16616	-5936	-28273	-13529	-4660	2896	-4308	-538	-18886	-6090	-15084	-2640	-7276	-18	-14531	-7827	-7204	5476	13456	1355	1947	-1111	-16656	2692	-3588	3137	4459	-121	-16080	2344	1312	2522	13319	-3226	132	100	1
-4040	-11312	13636	-5068	-32768	-24875	-5028	1184	-3948	-1359	-25700	-7262	-13640	-1504	-8920	1739	-13468	-5924	-7536	5676	13412	1091	2206	-1951	-17440	-864	-2844	-1591	4403	-765	-16248	944	4032	1737	12356	-3693	131	136	1
-6680	-10084	11116	-284	-32768	-31028	-5208	-824	-3708	1125	-30352	-9504	-11904	-1408	-9868	4258	-11022	-5342	-8064	5344	13312	1616	3032	-2139	-17764	-2136	-3168	2144	4754	86	-16184	-4	5848	2504	13203	-3997	135	121	1
-9784	-7328	12592	5454	-32768	-30472	-6688	-2588	-5032	6133	-32768	-11260	-9512	-1224	-9424	5447	-9785	-4507	-7836	4676	13492	1885	3964	-1998	-17168	-1240	-2892	4508	5197	101	-15436	1044	4532	6588	14619	-4225	128	127	1
-13392	-5112	16268	6295	-32768	-26615	-10932	-800	-6756	11370	-32768	-11792	-9380	-1456	-9568	8641	-8422	-4258	-8388	5380	12852	1990	4730	-1865	-16680	-12	-3084	3364	5666	-682	-16080	4528	1940	6378	16849	-3448	132	136	1
-18692	-8500	18756	6006	-32768	-22291	-16288	1048	-7544	12747	-32768	-11340	-8960	448	-11556	14094	-4992	-4289	-7848	4736	12484	1861	4975	-1979	-14976	112	-1620	1044	6277	-1364	-16740	5432	1092	4731	15394	-2986	131	109	1
-23688	-14300	18044	7764	-32768	-18364	-20236	2668	-9284	9734	-32768	-11627	-6780	2304	-10896	19053	451	-3465	-8404	5988	12308	1594	5182	-2836	-15740	648	-3284	-694	7561	-1216	-17024	4784	1196	1326	12673	-2532	129	129	1
-18120	-7308	17788	7118	-32768	-15846	-24832	3208	-8044	4306	-32768	-11121	-7420	2420	-7160	19069	983	-2193	-8768	5624	12308	1491	5581	-3310	-15672	-820	-2764	-197	8755	-1160	-15016	1416	2360	777	10734	-1610	130	119	1
-23192	-15180	20672	8138	-32768	-11394	-32768	728	-12128	2126	-32768	-13001	-9120	1292	-1848	13706	-2092	-2611	-8764	5420	12320	1584	6338	-3374	-15344	-964	-2916	843	9983	-1287	-14780	2620	3196	1496	9778	-2380	128	108	1
-32064	-10596	21076	10415	-26202	-6781	-28508	-2464	-14376	4864	-32768	-12733	-12144	-4180	-1668	7628	1416	-5240	-8632	5676	12684	2166	8025	-3081	-18168	-1548	-3652	849	11267	-1744	-17096	2388	3728	2986	10397	-2901	129	122	1
-32768	1824	18432	-3041	-31694	-5677	-27224	10232	-28548	679	-32768	-10462	-25552	-11236	20796	1838	-13226	-7509	-8944	4724	13488	2268	10578	-2820	-18596	-2844	-2476	821	12649	-2406	-17812	588	4844	4552	10155	-2734	127	141	1
-32768	-9416	-5448	-11480	-32768	-14456	-12864	7304	-22620	-15785	-25752	-6323	-13496	4532	32767	5394	-9577	-2677	-8764	5216	13092	1994	13993	-2747	-18488	-2012	-1596	96	14403	-2867	-18624	1304	6960	5102	8109	-2775	113	137	1
-32768	17520	-32768	-18277	-23213	-4097	-2280	7812	-21244	-22037	-3600	-8485	-17556	5552	32767	621	-8995	1623	-8912	4868	13568	1826	18476	-2699	-19488	-2400	-744	-1791	16797	-3359	-18484	3600	8804	4915	4522	-3408	113	123	1
-32768	-1552	-32768	-16570	2173	2994	-9516	-2552	-18352	-12747	13462	-1369	-16436	-812	16188	-21205	-3361	2424	-8872	6812	13548	1853	24843	-3097	-21312	-864	-296	-2549	19288	-3314	-19136	3812	11664	5685	-506	-3349	125	129	1
-32768	-3632	-15908	27710	27308	16151	-11644	1028	-18216	10767	22407	3527	-11412	-8256	1868	-13583	-278	-3356	-9272	6948	12988	3166	32767	-5500	-23596	-2732	1044	541	22332	-2012	-20700	228	21036	6145	-9273	-3106	130	129	1
-1500	-1160	32767	11485	27028	5651	-24400	5432	32767	5665	17893	5850	-5000	-11476	-6868	-770	4647	-2625	-8952	6728	16872	6959	32767	-7978	-28760	-7760	6088	11033	24677	-743	-18880	5020	32767	9057	-25531	-4396	135	132	1
-27516	20208	9300	-4429	32767	3575	-30264	10620	-18268	32767	22677	10302	-27004	-6960	19252	12357	1501	-3073	-4068	10996	18016	11724	32767	-15153	-32768	1788	10168	22837	25260	-495	-21316	3664	14992	24344	-12275	-6684	121	130	1
-32768	-26292	15208	8449	4418	14164	-20936	-6364	-22412	5409	25363	-888	-22916	896	-8200	1653	8834	6058	-25944	12264	17740	10249	32767	-23961	-32768	5824	-1100	19460	24245	1010	-24252	2344	9612	22814	-9311	-5340	151	135	1
-8016	-3596	20888	16167	13426	10896	-23756	-4364	-16820	5422	24779	-1623	-20760	1776	-8848	-270	10948	-7109	-32768	17820	16912	11792	32767	-22787	-32768	5464	-4760	16838	22876	2026	-28364	9068	-10776	18740	-9545	2125	100	140	1
-32768	5256	32348	12521	10713	8804	-6392	8732	-14092	8948	15319	3706	-4516	-460	-13244	-8293	2586	1095	-32768	25880	32767	466	27191	-21094	-25632	3304	-21300	3005	25246	-4209	-30144	64	-7300	-5609	-17010	10277	86	119	1
-11312	-2932	14240	2291	1424	2665	-18992	7616	-12768	-7093	11471	1213	-21332	-4228	-13588	-9517	10335	-1379	-12016	10852	32767	7548	-9264	-12192	-24160	-4256	380	3292	17013	-5794	-32768	-416	-8664	-11867	-18727	10108	148	111	1
-9564	-3480	14772	62	1138	138	-23820	-424	-7772	-8048	9715	1852	-26672	-2472	-6348	-9103	12075	2522	-360	14120	24180	13206	-17975	-13508	-13228	4316	76	17327	5197	-1553	-29920	-5132	-5616	-8496	-19308	6914	106	92	1
-9700	-3440	14056	-841	974	-644	-17888	-68	-8788	3720	6842	849	-19292	-4868	-4236	-2336	16781	5303	5528	12572	15444	3593	-24187	-10383	-8684	3324	1060	12653	-3254	1799	-24708	-5000	-4160	-3127	-17354	7598	123	132	1
-9724	-3412	14080	-906	916	-692	-15776	1116	-6348	6086	4148	1256	-17084	-2132	-3268	3680	18476	5525	3976	10028	11968	-2976	-25409	-6072	-5256	2712	-788	4304	-11240	5037	-19344	-1084	-6024	-1678	-14081	8421	137	92	1
-8068	-5248	13748	-1520	856	-1219	-16340	1244	-3060	-1574	3989	915	-16704	-1436	360	189	17110	4850	-36	7756	11732	389	-29048	255	-4360	-300	-2008	574	-16720	5573	-16156	2060	-7288	-5468	-12940	10301	129	121	1
-8044	-5760	13468	-1535	1428	-398	-17812	-344	-2388	-8609	4210	-560	-16416	-3220	1552	-3664	15420	4072	-2220	9236	10504	3590	-32768	7455	-5368	-112	-3192	-1394	-22078	6888	-13656	-92	-7304	-6055	-11725	9395	154	137	1
-8468	-4416	13484	-1018	1751	66	-16820	-1476	-888	-5369	4310	373	-15980	-2736	2572	-4332	14041	3682	-3228	9304	9104	1493	-32768	13896	-7188	304	-2524	-3958	-27065	8018	-11592	-1116	-8108	-5526	-10471	8577	124	128	1
-8228	-5676	13268	-645	2413	892	-15256	-3216	-2532	-661	4412	851	-14144	-3284	3376	-4393	12154	4082	-7228	8384	11224	-882	-32768	19071	-7636	-724	-3692	-6958	-31608	8677	-10984	-712	-7972	-7121	-11319	7138	139	129	1
-9004	-5120	12924	-711	2863	1294	-14936	-440	-2820	-1912	5195	1258	-13780	-3124	5232	-6783	10998	3750	-10892	8656	13256	-2107	-32768	23605	-10296	-1624	-5516	-9562	-32768	8341	-9808	-2324	-7908	-9889	-11713	6832	120	119	1
-8880	-5120	12960	-647	2339	1464	-14448	-344	-2508	-5598	6270	1292	-13888	-4040	5816	-10710	12486	3983	-12992	8880	13128	-3490	-32768	26277	-12492	-1912	-5064	-9958	-32768	8498	-9420	-4928	-8708	-11429	-10921	5755	120	94	1
-8828	-6928	13020	-205	1990	2117	-14780	-2936	-2416	-6706	7246	1442	-14844	-6096	2616	-11915	13795	4245	-15708	8468	15220	-6233	-32768	27514	-15668	-2336	-5916	-10522	-32768	9666	-6948	-4592	-8880	-15442	-10448	5352	138	109	1
-9484	-6284	12468	769	1344	3016	-14128	-2808	-3260	2129	8365	2633	-13744	-6556	392	-5611	13582	2620	-18972	9880	18896	-6720	-32768	27690	-20464	-1808	-7352	-10685	-32768	10365	-5472	-3692	-8244	-15380	-7449	4425	125	125	1
-9560	-4832	12940	864	934	3298	-13660	-336	-4848	3738	8920	2665	-14196	-2908	-512	303	13053	1110	-21836	10100	22708	-7138	-32768	26680	-24716	-2812	-9220	-9216	-32768	9739	-6496	-3408	-4004	-13247	-3066	3883	129	127	1
-9420	-3884	13616	353	1168	3319	-15716	2900	-5320	2541	9460	2427	-15352	-392	-844	1003	12510	1690	-27948	9876	26984	-5981	-32768	23433	-25796	-3944	-11352	-2536	-32768	9846	-9000	-1184	264	-12139	-1030	5186	127	123	1
-9812	-3408	13792	-293	2594	2863	-17756	3032	-5260	1268	9901	2111	-17740	-664	-736	-720	12360	2819	-32768	1420	25604	-2345	-32768	19492	-28408	-4448	-10664	2622	-32768	10500	-13528	4072	3232	-5269	-379	6651	123	132	1
-8956	-3968	13808	-1045	4747	2905	-18600	1848	-4308	1260	10635	2147	-18720	-2156	1232	-1306	12471	3327	-32768	3932	14956	-455	-32768	11067	-32080	-1048	-18316	8513	-32768	9638	-16456	5744	19172	-2185	-5181	10018	121	139	1
-8796	-4212	13724	-1629	7926	3111	-17788	1228	-2676	1832	12381	2665	-18240	-3980	4168	364	10622	2448	-32768	3684	-9832	-2118	-31493	-1603	-17044	-2620	-23500	5256	-27410	9335	-14700	-684	32767	-9145	-1165	6430	122	124	1
-9028	-4328	13644	-1687	8457	3012	-18492	1792	-2472	2869	14424	3197	-18112	-1808	6732	-222	9655	1542	-32768	-12332	-32768	23131	-20861	-9299	344	-13844	-23200	10994	-1321	7604	-21964	-2796	32767	-1031	-7197	-552	119	136	1
-9056	-3796	14248	-954	16782	3312	-19836	2168	-2004	1842	16936	3677	-19312	-1476	8640	-1990	6514	1922	-32768	13992	-27196	779	9871	-5095	-10104	852	-25612	10476	18831	-2021	-17952	1572	13980	13678	-4333	-3109	121	116	1
-9188	-5012	14200	-1044	23540	3818	-22748	2212	-676	396	19656	3615	-22436	-2152	11372	-6178	331	2809	-32768	-212	-4112	-12682	26258	-10574	-17052	-2924	-23456	-8370	25324	-5618	-11040	2932	-1812	11808	-632	-2817	127	111	1
-9064	-6668	14808	-2398	32767	6411	-25892	2664	2080	-4920	22939	1818	-24692	-2316	24236	-7197	-14795	3293	28924	-17088	32767	1494	32767	-1327	-32768	-21156	32767	-19219	5846	-10190	-18388	2516	15588	-7797	-1479	-2374	120	118	1
-10412	-8760	17544	-4217	32767	10017	-32768	-3372	7956	-15470	25441	2613	-16376	-7364	19216	-12631	-21958	2289	-32768	-11416	19776	3997	30365	-4439	-16792	-16680	-25900	-17950	26221	-6472	-19840	-6008	12356	-10960	7243	-2606	128	118	1
-14856	-9908	19516	-9537	32767	20987	-32768	-2424	8872	-18247	27267	2462	-26172	-1084	12980	-9185	-14397	3961	-5644	15156	26064	4945	15736	-14031	-21364	6044	-5304	-1871	22409	-1308	-21596	-16160	-8168	1775	6159	-2842	129	186	1
-32768	-5308	27760	-4222	32767	28552	-29212	-3500	-9236	-17195	28694	1818	-21864	-12008	-2540	-23854	-13405	3418	-15436	-4948	21372	-2436	8473	-4410	-15304	5128	-16052	-7709	17440	614	-15208	4148	-18984	22936	8164	-1025	144	101	1
-30676	-12772	22964	-5365	32767	27211	-30744	-5140	2552	-14023	22128	7963	-32768	-9712	-16796	-2929	-14824	-3845	-9240	20076	8104	-2404	2448	-5318	-17120	-4956	-12124	2052	16478	-3125	-14212	3160	-12320	17719	13450	421	136	164	1
-32768	-20260	32767	-7032	30429	24627	-12592	-4036	-30644	-2815	17867	6804	-27884	-2996	-1484	11932	-22344	-9018	-8808	3308	15080	-2117	2998	-2810	-19492	-5684	-8356	15329	8348	-893	-21884	10644	-9504	14719	13260	1166	141	198	1
-3728	-15864	32767	1421	-17686	15154	-19844	-868	-5492	-3699	7575	2782	-32768	-2940	-8716	10342	-19765	-8298	-7296	3156	15168	-646	2109	-1481	-19092	3292	-6900	315	7608	-1083	-20528	4512	-2216	-3143	14499	-2626	130	134	1
7248	-13632	22004	206	-25652	5726	-9924	-1116	3808	-5944	-1014	1538	-27760	1412	-5488	8567	-19965	-8408	-7596	3876	14292	1299	2091	-688	-18748	3008	-6980	-3198	7128	-1395	-18852	-4116	-1036	-6898	16566	-4712	138	172	1
9064	-12208	11216	2213	-22612	-1481	-5728	-1032	1432	744	-8981	-752	-20452	1992	-6072	1300	-17222	-8975	-6864	5636	13720	2854	2840	-375	-18412	-3688	-2624	-3245	4930	-1038	-17600	-2116	784	-1277	15300	-6849	127	122	1
3692	-10072	12084	3381	-22219	-8465	-3652	1484	-2124	6177	-16462	-3330	-17072	-624	-7972	2297	-15953	-11590	-7416	7104	13016	2251	2439	-911	-18168	-3160	-2408	-838	5074	-673	-15868	2296	-348	5400	13767	-5883	134	122	1
-3172	-8680	15264	1566	-26525	-15894	-4644	1852	-5084	5703	-22754	-4287	-15284	-932	-9008	5503	-14330	-10724	-7704	6272	13004	1768	2384	-1175	-16212	2064	-3248	4659	4494	-350	-15480	2932	-504	5930	13209	-5734	130	101	1
-7052	-7632	15472	1174	-32768	-22563	-4700	1508	-6124	5167	-28898	-5099	-13136	-772	-9820	3781	-13114	-8122	-6944	6928	12912	1801	2680	-1760	-17456	1268	-2408	213	4020	-1081	-15372	4000	1816	50	13373	-4225	131	109	1
