#Activity	walking 
#ActivityID	1 
#Date 10-06-18-24
acc_rf_x	acc_rf_y	acc_rf_z	gyro_rf_x	gyro_rf_y	gyro_rf_z	acc_rs_x	acc_rs_y	acc_rs_z	gyro_rs_x	gyro_rs_y	gyro_rs_z	acc_rt_x	acc_rt_y	acc_rt_z	gyro_rt_x	gyro_rt_y	gyro_rt_z	acc_lf_x	acc_lf_y	acc_lf_z	gyro_lf_x	gyro_lf_y	gyro_lf_z	acc_ls_x	acc_ls_y	acc_ls_z	gyro_ls_x	gyro_ls_y	gyro_ls_z	acc_lt_x	acc_lt_y	acc_lt_z	gyro_lt_x	gyro_lt_y	gyro_lt_z	EMG_r	EMG_l	act
-10744	-4176	11572	-84	751	-155	-16984	-1232	-792	-4163	7951	-1280	-15532	-6756	-484	-3161	12366	-727	-32768	1528	16012	4482	6421	-11691	-12360	-2080	-6312	1670	10553	2670	-24976	468	-3948	8922	-29246	214	132	134	1
-10128	-4516	11308	115	522	11	-16868	-372	-628	5134	3838	-385	-15728	-6140	388	1338	11758	495	-13224	11096	18428	8603	-21115	-997	-8140	944	-2216	8448	4522	1870	-23664	3616	-2712	10134	-24384	83	129	132	1
-10024	-4324	11416	45	343	21	-16612	2544	-792	6511	2514	210	-15828	-4940	1544	3213	11700	325	-224	11956	12364	7813	-24674	4819	-9348	-296	1436	10040	-2825	1206	-22708	4828	-6632	8741	-19331	2726	126	126	1
-9936	-4440	11420	82	330	61	-16076	2544	-216	1352	4249	559	-16052	-3804	4668	3755	12183	-1913	772	9228	9688	5263	-22016	6353	-6696	2036	-340	4371	-11356	-213	-18588	5568	-8460	3904	-17791	3117	129	123	1
-9728	-5084	11004	444	221	675	-15484	1148	324	-4727	6602	743	-15244	-2200	6284	1184	12736	-2576	-4840	7204	8864	3207	-22833	9042	-5552	2640	-2748	-1427	-18737	-2272	-16576	3748	-9172	-3371	-18339	2937	130	115	1
-9668	-5224	10868	1176	309	1581	-16264	648	164	-6919	7970	991	-14652	80	5340	-3667	12624	-2539	-7408	5920	9188	4526	-27079	12797	-6840	756	-3672	-2374	-25085	-3716	-14504	3444	-8572	-7494	-18622	1519	131	121	1
-9756	-4028	11764	1426	281	1858	-16044	2660	644	-3192	7530	1438	-14820	1108	2908	-6456	13367	-1627	-10060	4288	9300	6875	-31570	16783	-7408	-684	-4096	1033	-29551	-4427	-12268	3436	-8744	-9418	-16892	550	126	126	1
-10304	-3244	11980	1268	215	1359	-15764	3056	-872	-571	8557	1396	-16248	28	1500	-6430	13194	-299	-12476	2716	10316	10275	-32768	20721	-8912	-16	-4724	3307	-32768	-5214	-10328	4016	-9204	-12920	-15028	-340	128	133	1
-10324	-3740	11772	1014	188	867	-16136	2956	-800	-1013	9387	1782	-16232	-2408	692	-4411	13533	-1468	-13836	2092	11232	14313	-32768	24437	-10980	40	-4584	3862	-32768	-6209	-8508	4016	-9904	-18159	-13014	-688	130	128	1
-10316	-4092	11480	922	92	905	-16000	2204	-1656	-1572	9497	1764	-15168	-3688	-536	232	14955	-4098	-15824	808	11088	20439	-32768	27425	-14692	-1628	-4432	1249	-32768	-6098	-7392	5184	-10768	-22477	-10400	-701	126	127	1
-10124	-3964	11816	922	180	1379	-16368	2524	-2256	-751	8488	1992	-16048	-3296	-2644	1927	14373	-4082	-15228	816	12024	24420	-32768	27040	-19788	-3080	-7992	4714	-32768	-7120	-9404	2420	-9264	-23528	-9936	-1411	128	123	1
-10420	-3724	11892	655	591	1540	-16412	3576	-2856	-196	7767	1992	-15852	-3376	-3056	554	12556	-2277	-27984	5952	16632	21402	-26979	22856	-22968	-276	-10388	8388	-32768	-5720	-10312	-3884	-7432	-15989	-9040	-2274	127	124	1
-10600	-2824	11840	154	994	1382	-15604	3884	-3164	-683	7844	1827	-15772	-2204	-1996	506	11709	-1033	-32768	688	19044	18602	-31176	22014	-29156	-3372	-17592	9244	-32768	-5296	-11204	-10456	1620	-9823	-12549	-4009	132	124	1
-10572	-3440	11828	-68	1502	1039	-15860	2384	-2208	-449	8397	2004	-16324	-2212	564	592	10556	-859	-32768	-6884	15680	19976	-32768	29763	-27348	-2756	-13560	18992	-32768	-3975	-10864	-4452	5656	2145	-7521	-1050	135	127	1
-10692	-3600	12044	-28	1724	1157	-16660	1384	-1812	806	9228	2807	-17544	-2804	2708	-435	9266	-1945	-32768	-6068	8152	17853	-32768	30155	-23724	4356	-17264	19128	-32768	-1280	-12928	28	5712	12966	1092	6816	128	124	1
-10416	-4300	12352	343	2624	1879	-16764	1504	-1416	990	10634	3560	-17152	-1716	4192	-2830	8721	-2844	-32768	-15620	728	14627	-28422	24924	-24284	-2644	-17288	11232	-32400	-578	-15648	-1620	11636	4487	-239	7331	128	126	1
-9796	-4384	13608	1157	4398	3652	-18384	1836	-992	1466	12496	4380	-18880	-820	4280	-6905	7741	-2736	-32768	-19072	-10924	11152	-18646	17821	-16076	2192	-19148	8499	-21327	2968	-17048	-4188	18920	-1040	-2021	7724	131	116	1
-10972	-4252	13252	1448	6928	5310	-17712	2744	-336	2364	14485	5150	-19256	-2172	4228	-8918	4408	-2085	-32564	-29340	-18124	7713	-6393	7413	-10092	1124	-21376	3252	-9561	4781	-12740	-8332	25168	-911	-253	5121	133	118	1
-10956	-4648	14228	2599	10293	6731	-18216	2916	-1196	6479	15896	5907	-18660	-4476	4436	-8923	1860	-936	-32324	-30704	-16236	5449	1105	741	-6332	1784	-20956	-2448	5131	3911	-12264	-3520	21688	2610	-2755	763	130	126	1
-11248	-4620	15028	3426	14866	8362	-19900	4688	-3032	7682	17309	6681	-18772	-4760	2988	-7346	597	-13	-17572	-7756	4888	-17379	1508	-2146	-16028	-616	-5220	-9406	13950	1093	-11996	-4	9320	-638	1852	1424	127	122	1
-10432	-5300	15452	4372	19857	11513	-20940	6096	-3968	6212	18516	6314	-19752	-3960	4440	-6911	-1650	1146	12988	32767	32767	-4071	11478	-11187	-32768	-22644	28044	-12428	2942	355	-13036	-2212	-3556	-18435	21874	2298	134	119	1
-9276	-4392	16968	4237	25022	14587	-25052	6436	-1644	3151	19408	6889	-23060	-3936	12052	-6244	-9251	2131	-6228	-23812	-1904	-14234	21359	-8946	-5500	-17788	-10036	-16143	8944	1663	-25136	-13392	1788	-8240	9301	-5919	115	130	1
-6332	-4348	17432	5884	32767	19175	-26632	8040	5048	-1413	22497	7922	-18472	5396	15336	-6762	-16932	2026	-25472	-7092	23756	-3390	27341	-7231	-25548	-8256	-4132	-9266	13549	1629	-20016	-9656	6700	-19168	1498	-5030	128	123	1
-6132	-8120	17680	8926	32767	23662	-27060	10680	10888	-5960	25467	7261	-20856	12908	8680	-11169	-11044	6024	-28432	16020	17128	955	17872	-3244	-24468	-1720	-328	-320	16013	4022	-19328	-6588	1204	-126	10176	-1860	122	108	1
-15344	-6188	14728	10752	32767	23687	-27752	10840	5796	-15064	26073	5608	-23796	9656	1520	-25773	-13868	8994	-11956	-6068	15928	-12699	5258	-11034	-18836	7664	-3344	-12539	12907	6752	-17592	18952	-6952	13367	13840	6002	124	112	1
-32768	-3444	4392	5621	32767	28218	-20664	-2472	-13376	-12897	28454	6082	-23300	-3240	-12972	-32768	-14160	8838	-15560	11360	9216	-9009	3079	-7665	-16064	3268	-4636	-8669	10190	3392	-14212	11548	-8092	-5704	9069	9075	129	134	1
-32768	-13912	14320	5274	32767	28188	-26128	1800	-23648	818	23331	6576	-26808	-13804	-14504	-26070	-18925	-633	-13252	1052	12416	-6593	332	-7436	-16932	-2920	-5416	-5347	8377	2219	-20576	-1164	-5864	-5783	8021	5855	127	139	1
-32768	-8156	17996	-5124	23152	18013	-17332	5852	-14688	-1641	19556	8231	-25204	-13428	-13772	928	-20431	-3733	-13700	-180	13592	-3523	-124	-4425	-18672	-5068	-4348	3370	9099	2436	-16424	664	-1648	-1341	7726	5629	134	134	1
-27844	-3400	13768	-101	-4623	8589	-11008	1468	-5760	-5375	10740	4710	-25064	-4788	-5868	9644	-23381	-4687	-11464	3412	12444	-1255	416	-1842	-17664	-1652	-2120	8740	9716	2576	-17552	2680	-1916	1164	9713	4120	115	130	1
-6552	-6284	14512	-5374	-19548	-66	-5924	-1936	-3452	-5341	3736	1398	-21464	-2940	-4408	4678	-21141	-4703	-11848	3772	11720	-1316	225	-1422	-17448	2548	-2388	3090	7109	1570	-15540	3820	-1764	-650	8312	2107	126	126	1
980	-9936	9452	-7430	-20493	-3135	-10284	100	584	-5062	-3987	-2267	-19244	-5820	-6252	4537	-18162	-6269	-11896	2736	12132	-1225	177	-923	-17364	-1580	-2648	-4029	4173	98	-16804	1472	-1888	-7941	7951	1284	125	135	1
1508	-9760	6032	-5001	-17977	-5034	-6368	-912	-588	-820	-10976	-2597	-17648	-5004	-6524	8638	-16954	-6812	-11592	3016	12048	-577	227	-23	-16644	-3964	-1808	-2425	3931	332	-16200	-2128	-1032	-8643	8392	3016	126	129	1
-4832	-9172	6624	-1276	-19167	-8739	-4000	-1072	-3624	5091	-17729	-4080	-14988	-3456	-7132	12249	-15092	-6540	-11576	2916	11736	649	264	619	-16024	-2884	-1040	1891	4596	957	-15800	-4708	76	-1519	8382	4960	127	128	1
-8244	-8220	7408	1243	-25370	-14920	-5248	1308	-5048	4545	-22782	-4491	-13772	-2460	-7660	14660	-13929	-5586	-10796	4188	11716	1039	445	622	-16152	-2544	596	5417	5210	1337	-14900	-3040	1972	5248	9331	4986	123	128	1
-7272	-6908	7804	1487	-31109	-20801	-7564	1968	-3960	2703	-28181	-5606	-12796	-3508	-7268	15027	-12991	-5064	-11344	4012	11212	997	206	-5	-16224	-1044	428	6257	5689	1644	-14872	-1812	3064	10157	10137	5013	126	129	1
-9180	-4976	9676	-1138	-32768	-25004	-10512	2520	-5912	465	-32768	-7152	-12788	-4248	-6780	17130	-12587	-4328	-11448	3880	11528	1242	359	-176	-16136	-1020	-24	4320	5756	1192	-15252	-944	2764	12099	11311	5092	121	137	1
-12952	-3732	9984	-5682	-32768	-26625	-10844	2296	-5940	127	-32768	-7289	-11492	-3372	-8008	21627	-10956	-4384	-11096	4180	11476	825	493	-215	-16704	-1824	60	2503	6010	1096	-15584	556	2152	12667	11710	4474	121	130	1
-15972	-5340	9748	-8370	-32768	-24665	-12284	2404	-5528	1038	-32768	-8947	-9988	-336	-8348	25599	-9706	-5246	-10872	4692	11248	423	856	-361	-16812	-1060	124	1857	6335	1195	-16240	1612	688	8228	12244	3682	118	130	1
-20268	-8896	10648	-7374	-32768	-23067	-15572	3024	-7512	-367	-32768	-10044	-9360	2436	-8772	21694	-7706	-4235	-11164	4956	11468	-195	1127	-2161	-16956	-900	-1512	1821	6173	1217	-16048	1940	-1300	5163	14176	4646	116	128	1
-22432	-10288	12708	-4410	-32768	-24803	-18860	5064	-7196	-780	-32768	-11222	-8472	3604	-6496	12222	-4555	-3318	-11584	4068	11268	-365	1064	-2715	-16760	-2096	-1824	2620	6508	1363	-16536	1776	-648	548	14491	5347	124	134	1
-23436	-7128	16560	-6256	-32448	-28586	-25324	9148	-7564	-3509	-32768	-12684	-9280	5404	-4412	2493	-722	-2802	-11968	2784	11580	-545	1030	-2548	-15720	-2192	-2584	2630	7049	1862	-16036	872	-576	-1158	14115	4839	124	134	1
-32768	-6660	21160	-11810	-27492	-30836	-30704	7904	-13300	-6098	-32768	-14131	-9752	7156	1416	431	649	-1399	-11284	3628	11548	-885	1136	-1675	-16300	-1728	-280	2342	8142	1460	-15592	-956	1512	-2592	11017	5167	121	134	1
-32768	424	18164	-12078	-31027	-27711	-29152	8328	-14500	-6267	-32768	-14919	-13764	540	6220	1791	-1461	-2853	-11384	4604	11380	-985	1606	-1992	-16516	-460	1724	2023	9725	1399	-17468	-1272	4144	-751	8265	6405	119	134	1
-32768	7128	9624	-14294	-31935	-23589	-23612	7872	-15916	-10995	-32768	-12458	-15888	-8400	12320	1354	-1438	-6969	-11892	5248	11232	-1742	1246	-3931	-16564	952	2088	1477	11783	1648	-16740	-756	7208	862	11572	7211	123	132	1
-32768	9380	-2892	-10176	-30975	-18658	-19416	8720	-20432	-8533	-28557	-11150	-20956	2780	20492	12566	-5327	-12234	-11896	4640	11392	-2193	200	-5561	-16788	2112	980	-803	13814	1334	-16208	-232	5728	3955	12489	6979	121	130	1
-32768	23400	-17424	-11236	-23148	-12189	-9212	9708	-20740	-12373	-13720	-10038	-14560	6324	31712	-4536	12	-7061	-12904	3444	12220	-3587	937	-5932	-16608	-644	-2068	-3794	15330	536	-17156	-1100	1172	4609	8994	5643	117	130	1
-32768	32200	-25616	-17866	-6876	-3126	-3376	4640	-18056	-9220	5763	-4068	-13688	3232	26988	-14250	-7394	3618	-12916	3676	13824	-4355	3551	-4654	-18912	-3088	-4800	-3591	17609	-480	-18224	2620	-1312	3841	6371	3394	121	130	1
-29752	11124	-14356	782	9761	6914	-8952	6280	-17580	2787	15516	2578	-14080	-4892	15312	-8662	-9519	2946	-12232	1120	15108	-4915	7728	-6377	-20432	-4016	-5752	-6048	17247	-791	-20220	4224	-2604	2961	4886	2258	128	128	1
13508	-2884	32767	22542	21895	17079	-30344	6000	27396	-8209	15581	6877	-14660	-4056	-2300	-9767	4738	1428	-11452	1312	16684	-5311	12905	-7203	-21940	-4100	-5452	-6087	17686	-1028	-21624	2836	-684	5373	1533	-47	120	126	1
-8068	11216	9596	11310	18769	17632	-7888	11716	-2420	23569	5941	-812	-22016	-1884	8180	-2472	3276	1231	-10972	3692	17252	-5775	19601	-8542	-23392	-5604	-2808	-6137	18364	-1311	-23792	-1484	5880	4098	-4732	-707	128	130	1
-11228	9252	18016	1203	25855	2806	-17704	17932	1652	11527	13154	11070	-13668	-944	2912	21913	1588	3082	-10524	4148	17484	-5480	20898	-8954	-26700	-8308	1608	-1780	20988	-739	-21304	-6936	12232	-4314	-14952	-2548	128	133	1
-21516	4240	18516	-1764	21274	12497	-24404	10912	-6100	6127	15702	1347	-19008	8468	7796	16757	5205	3634	-8540	9932	18348	-6596	32767	-15064	-29392	-12060	5964	1193	23030	1043	-19940	-18548	13164	-2961	-12335	-9275	124	134	1
-25500	-23712	9692	1163	13435	7862	-24252	-4464	-6504	5468	16166	1117	-19952	-4024	-1276	772	10776	3960	-8384	10472	20860	-11672	32767	-20848	-32500	-15852	13624	8965	26682	1679	-24244	-13712	12128	9547	-13717	-15228	122	132	1
-9760	1488	10612	10127	3293	8665	-17252	-4160	-7768	15606	10341	-703	-16340	-13864	-8052	-8710	14265	-3173	-24872	8884	14492	-12233	32767	-32768	-25476	1288	-872	6162	25792	1925	-20796	-3276	7840	13022	-12268	-14863	129	133	1
-13776	-7220	11192	6440	1736	6879	-13812	6044	-5380	10304	7645	1597	-14272	-2408	-7552	3702	12794	-6328	-32768	7352	-300	-7235	32767	-31219	-26356	5212	-14168	-2301	26796	935	-20944	6884	-6820	32767	-5597	-12145	136	127	1
-12564	-692	13748	2533	772	3827	-16408	11060	-4944	-752	8772	1470	-18628	4088	-2476	519	9483	-2087	-32768	11328	17592	-6712	32767	-32768	-24000	2768	-8688	-9899	17409	1875	-22832	7288	-9736	32767	-5402	-10823	135	137	1
-11020	-2652	12640	911	705	1157	-17992	6960	-2916	-9362	11133	-1073	-17220	1264	-736	-7752	9898	-2254	-22544	11220	23092	510	25718	-27118	-17540	984	-9288	-9111	15333	1236	-30536	320	-12368	12932	-25570	4643	135	130	1
-10696	-4264	11676	389	536	281	-16752	-240	-1680	-7196	9614	-1446	-15032	-6208	-60	-8394	11497	-1484	-30988	1924	17444	759	573	-11600	-11612	-1768	-4828	-2542	8488	894	-24956	3712	-3052	6965	-31339	1564	134	134	1
-10332	-4876	11348	500	417	276	-17288	-924	-1320	2935	5007	-420	-15836	-8524	-988	-2781	11322	294	-14112	10156	17192	7487	-23868	-559	-4112	356	-1544	5751	2210	510	-23508	3160	-3368	7326	-24332	139	131	133	1
-10492	-4500	11560	719	225	186	-17004	2304	-2108	8465	2050	100	-16328	-6892	-884	4984	12200	80	588	13788	11988	7901	-27471	5425	-8012	-84	1908	9254	-5311	-612	-21480	4412	-7824	6834	-18190	1790	128	120	1
-10132	-4472	11544	543	166	-39	-16660	3832	-2232	6064	2045	-47	-15872	-3100	12	7885	13792	-879	780	10860	9344	5575	-25982	6648	-5884	1884	492	5592	-13752	-2020	-17628	5432	-9064	2025	-17491	2765	125	125	1
-9716	-4464	11576	358	462	-302	-15600	4064	-1408	873	3332	-125	-15864	-228	1996	3204	14307	-1288	-4456	8868	8556	3141	-26858	8552	-6000	3964	-2012	1651	-20958	-3426	-15240	4572	-9168	-5104	-18044	2598	128	119	1
-9488	-4928	11224	275	639	-266	-15680	2364	-684	-5611	5384	-404	-15264	364	3556	-2947	13559	-1697	-6368	5728	8008	4690	-30129	12061	-6816	1300	-3472	-294	-27465	-4813	-13548	4368	-8912	-8053	-16378	2097	129	123	1
-9676	-4844	11044	668	520	341	-16352	648	-84	-6194	6487	-449	-14968	-1104	4056	-6602	13122	-1847	-11016	3492	9056	9452	-32189	17763	-7560	-180	-4972	2594	-32003	-5627	-11488	4440	-9592	-11456	-14907	986	128	125	1
-9940	-4020	11624	769	260	706	-15640	772	580	-1661	6404	231	-15204	-892	4040	-5980	14002	-2071	-14872	3752	9920	13913	-32768	22873	-9196	180	-5192	6180	-32768	-6083	-9288	4108	-10092	-15843	-13154	-45	122	129	1
-9744	-3968	11488	515	130	704	-15536	2240	516	41	7523	671	-15608	-8	5384	-3235	14525	-3317	-14968	2820	10392	17789	-32768	26434	-12508	76	-3904	5624	-32768	-6051	-7948	4388	-10584	-20261	-11326	-161	131	126	1
-9776	-5032	11164	508	1	985	-16356	1616	-52	-886	8231	677	-15088	-2932	3360	-1856	15163	-3691	-14540	1148	8912	23749	-32768	29281	-17392	-2836	-6148	1906	-32768	-4483	-8220	4384	-10620	-23548	-10190	77	127	126	1
-10516	-4188	11648	606	-47	1185	-16044	1508	-1956	-871	8040	1082	-17680	-5336	-2296	-1482	12755	-3613	-22660	3756	10916	23923	-26862	29358	-19084	-480	-11132	4527	-32768	-6574	-9896	-20	-8292	-22963	-10467	-419	127	122	1
-10288	-3612	11964	519	291	1257	-16636	3640	-2680	-951	7462	1292	-17224	-3408	-1952	-1123	10841	-2270	-32768	10556	17024	12482	-27504	27631	-28316	-1544	-12924	1491	-32768	-4707	-10424	-7224	-3884	-14850	-10947	-2696	130	123	1
-10396	-3688	11952	142	682	979	-16180	3416	-2212	-2798	8055	1120	-15240	-2572	1264	-2253	11983	-1365	-32768	-1820	16840	8915	-31820	32682	-27984	-3392	-16456	3792	-32768	-5061	-12108	-8096	4220	-9919	-13266	-3750	131	124	1
-10120	-4724	11840	146	941	1043	-15776	452	-716	-1048	8466	1482	-15740	-3928	1552	-1636	10822	-1465	-32768	-5676	12108	10208	-32768	32767	-25732	-136	-15360	10192	-32768	-5859	-11160	-1572	5628	1207	-2945	4106	134	125	1
-10472	-4208	11796	128	1041	1462	-16216	1208	-1424	967	9258	2345	-17268	-3532	2876	666	8857	-2703	-32768	-8148	5868	7998	-32204	31028	-25384	988	-14540	5761	-32768	-4413	-14656	-492	8332	5964	1370	8097	132	123	1
-10540	-4176	12084	244	1717	1584	-16380	1328	-1524	1096	10661	2949	-16628	-3064	3924	-1832	8541	-2767	-32768	-9092	4740	7793	-31317	29710	-21976	-976	-16576	6848	-29257	-1281	-17884	-6048	13224	-2373	-704	5673	127	122	1
-10104	-4440	12448	228	2788	2256	-17484	1732	-1524	979	12234	3853	-17528	-1776	3240	-5321	6986	-2194	-32768	-18824	-15000	9362	-12472	14664	-13820	1068	-19720	7804	-17676	4210	-16968	-8280	23392	-7958	-1838	5552	130	120	1
-10748	-4956	13356	865	5067	3389	-18488	1712	-1504	1627	13919	4271	-18576	-2744	2160	-6703	4460	-2165	-31128	-28364	-19144	13567	791	8430	-8868	1196	-19340	8119	-3057	6016	-12368	-12224	24460	1071	-2511	2365	131	115	1
-10636	-4200	14576	1564	9275	4723	-20296	4136	-3032	3309	14483	4940	-18768	-2932	2076	-6996	4082	-2148	-31640	-19996	-14572	6240	9042	2420	-8664	4912	-18224	902	9723	5255	-12504	-4220	18740	6038	-4431	1178	131	124	1
-11200	-4312	14468	1875	12708	5963	-18920	5176	-3784	4244	15950	5347	-18652	-3028	608	-9100	2127	-196	-9720	-11172	11984	-17157	7955	-9830	-19240	-3848	2132	-10732	13734	1682	-11584	1260	11656	1162	-2791	4205	130	131	1
-10800	-4356	15156	2005	17198	7324	-18636	4924	-3048	3865	17409	5490	-18492	-3092	3356	-9954	-934	1056	10232	21176	32767	-10754	9835	-9163	-30828	-18600	24236	-14557	2527	1684	-12376	2084	-3024	-10825	20426	5945	129	124	1
-9568	-6176	15136	3015	22002	10664	-21908	3408	-2028	4821	18633	6076	-20492	-3524	6076	-8694	-4577	936	-8284	-18068	1104	-18760	19937	-10287	-6460	-15704	-13132	-31028	4324	1597	-23992	-5240	1856	-9069	9308	1471	130	119	1
-9072	-5988	15832	2963	26342	14736	-23520	6840	-1548	3749	19032	5439	-21100	-736	14620	-8254	-12163	2932	-22496	-3628	19784	-3717	27511	4915	-22064	-14208	-2464	-11799	11474	244	-17244	-12100	2880	-24218	3778	-2586	138	127	1
-6068	-3712	18116	4659	32767	17125	-27532	10664	2432	-2345	21271	6085	-19204	4496	15300	-9282	-15249	3281	-24864	-8940	17012	1063	19082	-11550	-23176	-6784	-8644	-4866	13138	5265	-17464	-17452	3792	-9650	7475	-3876	128	108	1
-8396	-12612	15716	6566	32767	20247	-26820	9856	11932	-10561	24748	5503	-19676	5524	15368	-7796	-13861	3637	-27164	21436	480	-4697	2807	-1905	-26692	15876	-5944	1484	15093	8402	-24156	9648	-972	9901	11550	638	118	123	1
-20384	-5764	12940	7796	32767	24254	-24592	6336	1908	-13757	25533	2941	-20524	9212	4572	-20349	-13870	7598	-13556	-676	11068	-3577	2407	-3460	-17600	2512	-4936	-15090	9036	4651	-16520	18148	-7724	-3698	12719	10693	127	137	1
-32768	-2408	2912	1601	32767	26037	-20868	160	-15480	-9525	26552	4825	-22232	-2852	-11724	-32768	-13674	8332	-12192	3292	12196	-5562	1197	-3831	-14848	-1284	-3300	-10317	7123	3286	-14388	-2684	-3396	-12816	7417	6931	125	139	1
-32768	-8548	14772	367	32767	24618	-23772	2140	-15168	-3719	23602	6016	-27828	-12336	-14720	-23645	-17758	-131	-13520	2992	12124	-3362	1068	-2581	-17452	-6356	-2416	-1496	8463	3423	-16084	-4208	-624	-3733	7924	4681	131	132	1
-28972	-10164	18244	-7430	25818	17893	-16868	3208	-11492	-2819	19181	6109	-24316	-9804	-12800	3199	-23400	-4095	-11824	3860	11852	-1356	734	-1611	-17616	-1088	-912	5493	9816	4379	-16616	456	996	3436	8495	5989	127	134	1
-32768	-6388	17772	-5725	-2401	11977	-9932	1168	-7900	-5669	10895	3447	-24036	-3832	-2948	8956	-23966	-2492	-10612	6028	11216	-1686	908	-2184	-17500	1840	-708	4422	8728	3604	-15664	5836	-784	6476	8941	5145	116	124	1
-6212	-8724	16260	-10848	-22558	915	-6128	-2360	-1836	-8618	3670	-134	-22188	-1920	-3016	3953	-20876	-3366	-11500	4980	11108	-2763	622	-2992	-17308	1520	-2400	-2051	5801	1686	-16068	6092	-3264	-926	8186	3244	120	127	1
2628	-12192	11280	-12248	-26950	-2112	-8844	-1252	1828	-10611	-3465	-4435	-18588	-4324	-5692	493	-17738	-5351	-12516	2160	12316	-1873	-200	-2536	-16816	-3500	-3816	-3995	3965	872	-17244	2232	-2136	-9722	7902	2907	129	130	1
2576	-10684	7404	-9407	-24106	-3964	-6868	-1568	1532	-5989	-11469	-5420	-16168	-5004	-6220	4333	-15421	-5891	-11484	2696	12148	-338	-55	-481	-16888	-4696	-2688	760	4607	1233	-16768	-4248	-780	-8670	8172	4638	122	128	1
-4568	-9440	7324	-5615	-24553	-8317	-4668	-912	-2988	869	-19122	-6725	-14280	-3236	-7064	9440	-13523	-5405	-10920	3896	11808	57	352	152	-15808	-3812	-1000	4628	5280	1927	-15832	-5040	496	-2054	9533	5242	119	131	1
-6580	-8552	7560	-3608	-29776	-14645	-5912	1624	-3836	990	-24857	-7653	-12608	-3208	-7144	12463	-12792	-4809	-10544	4680	11272	-28	583	-347	-16344	-2016	492	6926	5551	2782	-14204	-2452	1560	5008	10333	5174	123	127	1
-6736	-4656	9412	-4897	-32269	-20710	-9588	3768	-4436	-2866	-30732	-8281	-12516	-4224	-6520	14188	-12121	-4168	-10584	4816	11296	-775	727	-1284	-16872	-536	-336	5257	5108	2967	-14740	-376	904	8840	10886	4933	127	130	1
-11160	-3240	10040	-9723	-32768	-24476	-10924	2780	-4060	-3575	-32768	-9646	-12472	-3416	-7288	18863	-10667	-4367	-11560	3452	11760	-326	606	-1168	-16612	-1936	-556	3271	5172	2009	-16368	-304	1580	10460	10998	5068	119	132	1
-14980	-5520	10364	-11282	-32768	-24345	-11624	2728	-4836	-2406	-32768	-11654	-10924	724	-7724	22976	-9586	-4080	-11588	3980	11432	-151	472	-1081	-16396	-2108	-32	3157	6114	2018	-17120	-1156	3016	8728	11170	5374	120	134	1
-17116	-7576	11108	-8690	-32768	-22964	-15464	3880	-5800	-2418	-32768	-13103	-9680	2504	-8176	18533	-8145	-3568	-10876	5420	11144	-243	407	-1433	-16844	-484	532	3845	7050	2257	-15460	-4	2336	5873	13100	5886	121	133	1
-20432	-7084	13772	-7123	-32768	-24796	-18424	5364	-7148	-1705	-32768	-13815	-8804	1852	-6928	8845	-5767	-3295	-10884	5880	11092	-872	295	-3465	-17056	432	-132	2402	6964	2530	-14112	1256	-668	4812	14028	6293	123	131	1
-22080	-5912	17060	-8787	-30944	-28538	-24040	8944	-7468	-1782	-32768	-14607	-9288	2492	-4320	1977	-2917	-3106	-12148	3352	11228	-1884	-270	-4053	-15560	-584	-2580	-777	6978	2069	-16756	3568	-1964	1613	12738	5192	125	127	1
-31820	-6300	21836	-11901	-26310	-30831	-29828	9156	-12336	-2248	-32768	-14948	-11440	4528	456	1340	-2306	-2525	-11848	1968	12108	-2109	-275	-2287	-16004	-2840	-2784	-28	8173	2063	-17856	1612	-444	-3559	11062	4361	123	133	1
-32768	-2160	18584	-10196	-27498	-29403	-28624	9884	-13924	-2879	-32768	-13824	-13880	1036	3428	1872	-1154	-3915	-11844	3660	12064	-1558	317	-1559	-17212	-700	-904	622	9379	2235	-16500	-16	1624	-4682	9309	5413	123	131	1
-32768	2036	11660	-8305	-28349	-25592	-24864	8140	-17396	-6994	-32768	-11826	-15972	-7764	7520	1497	-361	-6853	-11392	4160	12044	-1367	827	-1928	-16596	-364	-784	-330	10117	1733	-16796	-984	3448	-1121	9403	6226	124	131	1
-32768	7388	656	-5613	-29165	-21543	-21224	8776	-18092	-5783	-31017	-11044	-20176	-1360	16572	13108	-3322	-10235	-11796	3056	12700	-868	1910	-2013	-16600	-532	-864	-511	10202	1577	-17352	-2212	3428	3233	11035	6545	124	131	1
-32768	15428	-12152	-7863	-23558	-17384	-14384	8836	-19912	-6922	-19604	-10564	-14060	5024	27060	5763	1026	-7005	-12948	2764	13000	-431	4069	-2096	-17124	-2636	-1256	1098	14161	1049	-17888	-2832	4328	6141	11604	6450	121	131	1
-32768	29420	-22560	-16382	-10688	-11115	-5096	7884	-18668	-6230	-2269	-6529	-13156	4920	28472	-7883	-3431	2175	-11544	3036	13288	-744	6869	-1848	-17588	-1392	-980	-905	16035	455	-17288	-616	1700	7199	6965	2953	125	131	1
-30588	16496	-18988	-4882	5916	-5039	-6544	3340	-16144	3542	10716	289	-14744	-3332	20344	-3211	-8542	1240	-11164	5460	15112	-1430	10265	-3903	-21660	-916	-2360	-5231	16243	-246	-20396	2420	-668	4676	3082	2010	127	129	1
-108	-248	-2376	27237	12631	10985	-21984	4628	180	8466	12043	5353	-14540	-5672	8700	-5565	-2782	-128	-12672	3884	14624	-1842	14928	-6092	-20300	-4188	-4564	-5423	16783	-57	-20276	3168	336	5024	1420	563	128	129	1
-2048	-9940	31696	12661	18163	14942	-27388	2024	20036	13585	6562	836	-20844	-1284	11336	-705	1151	261	-11184	5016	15228	-2598	19706	-7366	-21888	-3884	-3776	-3808	17605	-20	-21676	1472	2748	4501	-859	-329	124	128	1
-14528	14072	10992	9977	19437	11079	-6096	18084	-3344	21044	9437	3139	-12036	-2176	5852	10092	6047	3161	-9108	3276	16292	-2571	25555	-8608	-23028	-5956	-1712	-2054	18525	228	-21536	-3612	8840	1638	-9783	-2038	123	129	1
-16320	1704	19384	1279	21703	8033	-24192	14268	-4364	11241	14912	8039	-16692	2824	2128	18187	5429	966	-9248	7812	16660	-2789	32767	-10859	-27544	-8828	5104	1095	21899	-163	-18692	-11076	10896	2519	-12615	-5081	128	133	1
-25468	-9756	13864	1730	13260	12496	-21788	3904	-8584	3328	17225	649	-20960	3452	1492	15177	8245	3396	-9104	9932	17432	-4651	32767	-18381	-31512	-10616	10228	5422	24604	947	-21072	-15340	12560	6829	-14500	-11634	123	134	1
-28164	-15464	10364	8379	4613	7993	-22720	-6708	-12200	8592	13444	-1390	-19944	-7044	-5888	-1766	13007	788	-17424	12928	15568	-8349	32767	-31384	-29944	-4508	7320	6795	25585	2161	-22908	-9152	9088	13198	-15680	-13936	127	134	1
-19976	-5840	8928	8276	1228	9035	-16024	6320	-7024	15777	5924	244	-14288	-5688	-9580	942	15348	-6408	-32768	744	4372	-7037	32767	-32768	-24888	3888	-16460	-2064	25123	3040	-21048	1048	2408	21335	-12032	-12161	141	135	1
-11992	52	14360	2926	13	3625	-15408	8996	-5840	6560	6524	-154	-18312	536	-5756	1857	12831	-2308	-32768	6544	6532	-9001	32767	-32768	-24964	-1552	-8964	-4368	21780	2124	-26944	3620	-11196	31614	-7879	-6823	135	137	1
-11008	-2376	12904	666	242	1190	-17372	8140	-3712	-2846	7471	-939	-18648	2268	-4228	-2772	11464	-2515	-31584	5852	16592	-1580	32767	-27833	-17604	-196	-8544	-6521	16972	3621	-30920	348	-14184	21205	-16639	2040	134	135	1
-10312	-4044	12232	36	563	-220	-16844	3564	-1836	-6481	7422	-2392	-15676	-2752	-1256	-5033	13412	-2267	-2036	7792	20648	8295	17678	-18153	-13768	2640	-8624	-2394	13453	2076	-25480	-456	-8956	11691	-26754	2459	128	135	1
-10144	-4760	11620	-137	670	-439	-16768	176	-644	-2661	5250	-2002	-15524	-4796	320	-4346	13282	389	-25880	12580	14240	10572	-5186	-6516	-13136	-2944	-7068	5152	5896	1916	-24224	-112	-2004	9264	-27177	305	128	129	1
-10224	-4040	12008	-327	468	-640	-16900	1180	-460	3930	2488	-1062	-16260	-5576	1244	-45	12979	1141	-6576	8976	15264	12307	-31110	3113	-5200	1256	-396	11702	-75	2275	-21540	1748	-5712	10742	-20802	892	124	121	1
-9768	-4396	11872	-362	389	-727	-17072	1568	-660	4754	2014	-429	-16312	-5884	2256	3194	13708	-1026	3520	10744	9260	10528	-30545	3672	-7432	352	1400	9686	-8728	1835	-20132	3752	-7880	7909	-17155	2102	127	121	1
-9604	-4864	11612	-143	379	-426	-16008	1056	-24	2707	2623	74	-15556	-3644	3956	2879	14489	-2977	252	8608	7816	8372	-25366	4588	-5164	924	-588	3225	-17378	852	-14480	1924	-8728	2636	-16186	3354	129	118	1
-9424	-5068	11392	196	294	97	-15472	1360	452	-1989	4327	493	-14388	-1524	5572	1345	14907	-4066	-7240	6336	8764	7013	-25362	8161	-5572	1664	-3896	-541	-23541	-609	-13984	3604	-8324	-3786	-16969	924	129	120	1
-9160	-5380	11264	696	177	887	-15456	1432	964	-5321	6034	413	-13952	140	6488	-120	15802	-4267	-10288	3992	10184	8218	-31255	13709	-7516	-1244	-4756	1480	-28203	-1956	-13312	3948	-7532	-7165	-15899	213	127	125	1
-9232	-4548	11716	1282	131	1479	-15820	1552	1000	-3956	7031	483	-16212	-372	4512	-2703	14219	-2453	-10568	3756	10344	8750	-32768	14580	-9688	-2176	-3824	5267	-32216	-3228	-11640	4620	-7836	-11451	-14921	-744	130	121	1
-9336	-3988	12148	1503	128	1490	-15908	1888	1020	656	7443	551	-17392	-2048	2012	-3058	12202	-1961	-11396	2560	10692	13940	-32768	23647	-10472	-1204	-3480	6344	-32768	-3874	-9608	4880	-8956	-16618	-13381	-1096	130	128	1
-9896	-3920	12128	1202	125	1089	-15612	2616	-412	2191	8463	1055	-17420	-2148	392	-411	9774	-2524	-14520	2660	12012	17124	-32768	26504	-13868	52	-4284	3059	-32768	-4155	-8520	4744	-9508	-21353	-11587	-954	129	125	1
-9836	-3840	11828	786	299	604	-15744	3652	-1620	-1397	9562	1241	-15560	-3136	-64	-531	9133	-2803	-13552	-380	13904	21424	-32768	27533	-19064	-3648	-8196	1716	-32768	-4746	-9200	3972	-9060	-22275	-10239	-447	128	123	1
-9924	-3760	12356	593	458	533	-16632	2236	-1560	-2900	9839	1223	-15700	-3984	-1084	-1197	10009	-2629	-26748	1224	13784	25701	-25793	27095	-19688	-1372	-10680	6945	-32768	-5805	-10532	-1776	-7328	-18097	-8526	-952	127	121	1
-9616	-3704	12236	380	633	651	-16324	2428	-1824	-1125	8832	1684	-15772	-2900	-984	-1378	10005	-1386	-32768	6724	17432	19500	-29009	23671	-28248	-3660	-14460	9609	-32768	-3723	-11696	-9244	-684	-12568	-10344	-2273	126	121	1
-9932	-4140	12064	344	831	931	-16164	1984	-1772	47	8595	1966	-16092	-3140	-528	-385	9093	-1391	-32768	-4640	15396	16872	-31706	29137	-27460	-2160	-15464	15906	-32768	-3103	-10180	-5532	5648	1899	-8016	-1632	130	122	1
-9900	-4008	12292	141	1182	1209	-16464	1976	-2308	1078	8842	2254	-16588	-2968	788	194	8443	-2066	-32768	-3980	8888	16531	-31712	32758	-25952	2000	-15984	18655	-32768	-2162	-11452	-1664	7840	14291	381	4771	129	125	1
-10128	-3932	12348	-33	1841	1361	-16116	2696	-2140	466	9799	2730	-16116	-1916	1940	-1897	8193	-2514	-32768	-10372	2004	12519	-28598	26939	-24052	-428	-14620	10223	-32768	-508	-15156	-1232	13968	6727	1499	7166	125	124	1
-10112	-4052	12556	-83	2731	1782	-16552	1780	-2092	394	11001	3351	-16536	-1328	2012	-5237	6940	-2177	-32768	-16064	-7308	10687	-19206	20221	-18328	1224	-15716	9123	-23072	1758	-17288	-4320	17432	2525	-3174	8202	123	119	1
-10032	-4448	12892	131	4024	2441	-17024	2456	-2436	196	12552	3830	-17580	-2140	1572	-7023	5035	-2134	-31364	-20364	-14980	5790	-9226	9779	-11716	1912	-18212	4039	-12324	4571	-14300	-5456	22356	-2888	752	9458	126	119	1
-9944	-3540	13964	1261	6679	4114	-18380	3364	-2764	1432	13548	3945	-18452	-3296	708	-7740	3917	-1803	-29344	-25992	-15828	5769	-339	3722	-8060	708	-17756	-240	255	4925	-10788	-6364	21408	-172	-2087	3939	126	118	1
-10984	-5644	13464	1964	9739	4786	-18576	3200	-3612	5328	14687	4622	-18652	-3956	-496	-8407	3017	-933	-27820	-20136	-9668	281	6201	-1031	-10392	336	-17236	-5564	11352	4060	-14760	-1232	15992	-2615	-4896	1022	127	129	1
-10980	-4980	14432	3202	12776	6722	-18724	4000	-4668	6216	14693	5005	-18428	-3616	-292	-7153	1597	-407	-28048	-15336	-1200	-8664	11330	-4449	-13084	-1764	-14788	-12377	19216	2616	-11532	-3448	12888	-19503	-2470	425	125	121	1
-10892	-5420	14592	3389	16589	9098	-19296	5576	-4684	5001	15042	4607	-18636	-2224	1196	-7922	512	264	32767	20332	32767	-6660	1211	-10387	-32768	-20732	32767	-9947	9204	-436	-2836	1712	-10844	-9896	30242	3379	125	117	1
-9388	-3904	15492	4041	20499	10682	-21932	5036	-4156	2811	15616	4828	-21180	-4272	3072	-8059	-1813	301	1092	-12324	-3956	-19706	11206	-8510	-6968	-3652	-6560	-16243	231	6807	-32768	-11804	-8160	4889	10102	-3400	121	123	1
-9584	-4700	14344	4045	25749	14664	-21724	6164	-1724	2294	16540	4755	-20084	-248	9792	-9380	-7454	1795	-1148	-16728	-7120	-19395	17565	-7508	-20672	-14312	-1580	-11738	8122	-2710	-16140	-1512	12544	-16652	-836	-1308	118	122	1
-7888	-2100	15584	5631	32767	16875	-22120	8588	928	-2541	19027	4715	-17568	2496	14408	-12347	-14422	3141	-18316	-20104	20412	-2260	20741	-7459	-22844	-7756	-6992	-3956	10277	2145	-19924	-16596	8192	-14064	6536	-1568	124	111	1
-7980	-3788	14980	6296	32767	15020	-25996	11104	9092	-11829	22452	6690	-18932	7388	9540	-17246	-11093	5883	-30412	21260	-4508	-4057	4138	-238	-28416	12996	-9548	5141	14930	6216	-24068	-6304	1208	6987	14884	299	114	112	1
-15700	-8148	12572	7182	32767	18790	-22764	5460	3688	-16664	25187	3033	-20904	10188	5812	-16624	-14809	8104	-11564	-3280	13332	-3890	5366	-2731	-26792	12584	-7880	1633	14575	7315	-21488	13652	-5112	3918	16028	8512	119	122	1
-32768	-5076	5708	274	32767	22903	-21336	-32	-13784	-13052	26309	3198	-20956	628	-3908	-32768	-12124	8050	-13660	6532	10540	-5001	4072	-2315	-14860	1816	-1612	-677	9542	3573	-11556	2692	-3460	-6344	12120	7695	119	127	1
-28672	-4812	5744	-2001	32767	24586	-23300	2676	-10452	-5458	22963	5420	-24652	-9412	-13360	-32768	-13171	3531	-14164	5164	11252	-3621	2267	-1970	-18384	-1052	-2308	222	8860	2901	-16416	544	-2324	-4511	8098	2281	121	127	1
-32768	-6296	13632	-10002	32273	18702	-18296	5500	-14036	-4313	21668	6402	-23668	-11708	-11620	-6769	-18805	-2418	-12144	4512	11800	-1750	940	-1229	-17648	-712	-1036	2228	8472	2632	-17884	3456	-784	514	9608	5007	123	124	1
8036	-15352	21228	-10539	7993	13229	-14900	2408	-10892	-6553	16435	5230	-22140	-6456	-6876	5553	-20662	-2209	-11000	6856	10796	-1653	780	-1247	-17244	1760	-744	691	7015	1464	-16116	3808	-2476	-913	6699	3219	118	118	1
-18992	-16556	16500	-6991	-3155	5976	-11056	-3612	-7448	-5501	9214	1205	-21636	-2972	-3232	4187	-20543	-2645	-11104	5148	11756	-1487	524	-1713	-16948	-2192	-1284	-1503	5200	967	-16360	2200	-956	-7441	6741	2511	121	121	1
-9840	-14140	14432	-5944	-7645	5099	-9352	-2180	-880	-7816	2570	-122	-19940	-5392	-4960	675	-17808	-5040	-11808	3800	11692	554	-409	-498	-16992	-2752	-860	-338	5285	731	-17128	-1720	-680	-6818	6787	3646	118	117	1
-624	-9504	6292	-720	-18578	-350	-8936	-1728	156	-1765	-5696	-2449	-17828	-7404	-5960	3328	-16004	-7132	-11276	5956	11456	-85	362	-571	-16620	-1724	-1768	-143	4919	841	-16828	-1268	-608	-4020	8035	4121	117	124	1
-2116	-7188	5420	2236	-18260	-2059	-5720	-1264	-1468	6356	-13166	-2583	-15744	-6824	-6576	8630	-14260	-7318	-11204	4676	11912	454	574	4	-17084	-2880	-1952	2768	4955	1007	-14996	-2560	-1172	-344	9366	5088	116	124	1
-6540	-7492	6388	1888	-20642	-8332	-5268	772	-4584	9123	-18622	-1867	-15592	-4488	-7428	14104	-13300	-7080	-10576	4556	12280	1305	608	992	-16412	-3012	-560	4917	5035	1103	-13848	-2992	-800	5551	9554	4860	110	123	1
-8420	-8776	7200	1791	-27529	-15314	-6860	1964	-5276	5442	-23384	-2685	-15120	-3204	-7016	17526	-13329	-6066	-11068	5288	10764	1447	643	867	-16032	-608	-452	5419	5128	1264	-15508	-1652	1096	11674	8694	4642	123	127	1
-7916	-6996	8064	371	-32767	-20728	-9656	2284	-5200	2189	-28744	-4744	-14796	-4496	-5676	18558	-13434	-4772	-10596	6676	10880	985	525	29	-16360	-652	868	4476	5491	1057	-16732	-356	2676	12652	8104	5110	128	127	1
-9868	-4528	9668	-3473	-32768	-24164	-11584	1160	-5384	-89	-32768	-5934	-13984	-6140	-6736	21570	-12110	-5313	-10408	7140	10624	122	727	-781	-16768	-268	1572	4241	6442	1033	-18204	-160	4376	11017	8321	4749	119	127	1
-14408	-6044	9284	-6540	-32768	-24466	-11944	1008	-6236	287	-32768	-6529	-12644	-2724	-6892	27397	-10446	-6149	-10040	7660	10812	-1404	1281	-2454	-17328	104	-104	2345	6656	1064	-14820	1524	2284	10724	11552	5129	113	127	1
-17668	-9036	8840	-5078	-32768	-22093	-14696	1184	-6384	692	-32768	-8106	-11976	1932	-6284	25573	-9105	-5888	-11704	4820	11736	-1634	1939	-2532	-16788	-2936	-2004	2455	7181	643	-15556	-904	-1456	9555	11939	4385	112	128	1
-18948	-10564	9932	-1372	-32768	-21882	-17640	3272	-7516	3571	-32768	-9156	-10904	4520	-5852	16913	-6255	-5389	-11764	4804	11432	-1227	2361	-1871	-16200	-2620	-3024	4250	7761	1385	-16232	392	-2728	6858	12118	3625	114	129	1
-21248	-9712	13776	-404	-31797	-24737	-21272	6656	-8156	2472	-32768	-10504	-10744	5328	-4860	5755	-2874	-3890	-12068	4748	10884	-923	2238	-1476	-16152	-748	-2708	2965	8046	1389	-16240	3328	-2752	2622	11532	3921	118	127	1
-25352	-6560	18160	-5284	-28310	-28890	-24984	8292	-9168	-1382	-32768	-12078	-10668	6372	-3636	-273	-346	-3131	-10892	6156	11020	-833	2030	-1635	-16720	-28	-912	1348	8040	838	-16952	2244	-2204	-1501	9224	4542	118	130	1
-32768	-8732	19524	-9264	-27643	-29366	-29236	5780	-12060	-4051	-32768	-14096	-10376	6568	-3300	-410	-225	-3032	-10216	8084	11036	-1171	2353	-4462	-18752	2176	-372	-866	7029	1040	-15872	1680	-2480	-971	9422	5212	116	128	1
-32768	2304	15920	-11348	-31138	-25938	-26608	7768	-14856	-6301	-32768	-14487	-12620	-2580	4364	4220	323	-5303	-11340	7940	9792	-1913	1133	-8135	-16500	3328	-220	-4471	6716	1496	-17196	2556	1284	-1942	7498	5951	115	129	1
-32768	9320	8200	-15091	-30414	-23563	-24960	10816	-16932	-9164	-32768	-11883	-16844	-6820	12164	11459	-2624	-8620	-12020	6624	9952	-2511	-1584	-10603	-14660	2596	0	-5249	7949	1471	-15424	1984	5848	-2073	6590	6477	117	127	1
-32768	9468	-3296	-9230	-27228	-19627	-17452	8188	-20104	-8172	-26164	-9815	-20576	3316	20484	12765	-4165	-12877	-12904	4824	11508	-3837	-949	-8168	-15344	-2212	-296	-4969	10808	854	-16536	-2528	6156	224	5813	6733	126	130	1
-32768	21548	-17824	-6943	-20472	-12494	-8316	8724	-20432	-8715	-13362	-8664	-10096	4948	27028	-6153	2166	-5154	-12124	-20	12692	-2453	1693	-8676	-17544	-3156	-2540	-5711	13062	841	-17368	-2532	4040	5163	6971	5754	119	129	1
-32672	31280	-22676	-16708	-4291	-4131	-5704	6676	-18328	-6296	3933	-4394	-13512	1436	24196	-8206	-7093	5225	-13436	2040	13636	-3022	7101	-8971	-19260	-4224	-4464	-8691	14424	-102	-19144	-940	1136	4133	7043	4112	119	126	1
-24924	-8432	-5856	1367	7563	1810	-5860	5912	-17972	-4775	6099	-3460	-14548	-5644	14144	-2310	-8568	2340	-12740	3408	14644	-4002	10527	-7825	-19188	-3468	-4736	-9645	16060	-584	-19636	1192	8	967	4363	2196	115	124	1
-80	-7384	32767	18179	19328	10197	-26148	4488	32767	-5105	11806	8443	-16288	-4180	568	-4733	2825	389	-12384	1892	15340	-4291	14920	-7303	-21124	-5036	-5564	-9083	17239	-27	-21776	1648	404	-429	403	961	117	125	1
-9260	8856	7688	10738	18954	18281	-7656	10236	-888	21373	5589	-1813	-20380	-1276	8996	4963	2733	2847	-10872	3584	15620	-4301	20331	-7398	-22128	-6320	-4196	-6896	18195	1015	-21312	-36	2312	-1030	-3405	-461	123	124	1
-16816	9680	18512	2162	23759	4570	-15320	15792	948	12368	12161	9350	-8140	-904	756	20879	5929	1757	-9952	4748	16596	-3703	26752	-9078	-24596	-5884	-1736	-4406	19170	2093	-20344	-6264	8544	-3789	-11649	-3189	119	126	1
-25156	-2956	15940	1121	18907	11088	-27316	8180	-7164	6440	15215	1914	-23020	7336	5640	20436	4289	2959	-8656	7804	17664	-4070	32767	-12279	-29088	-9352	5636	-780	21640	2167	-19900	-11812	11164	2799	-12876	-8322	122	131	1
-32768	-32768	13036	7864	11045	5076	-27664	-7268	-11356	10110	13362	460	-24056	-3856	968	2523	9206	1444	-8344	7828	17604	-4582	32767	-13275	-31912	-10952	11368	5626	24855	2894	-23136	-11472	13380	8178	-14527	-12302	120	130	1
-12252	7504	17972	6240	1272	7493	-14080	8008	-7184	16219	7944	628	-16216	-7684	-8524	-7355	16690	-5204	-18916	12176	14588	-11078	32767	-31679	-27616	-1900	2640	3193	23905	3195	-22144	-5372	7048	11909	-13513	-12542	130	131	1
-12100	-1644	13660	3228	-259	4034	-13996	6140	-4720	3576	9098	-119	-13404	2412	-5164	-1918	14059	-4185	-32768	512	-612	-9056	32767	-31516	-23748	3628	-15176	-1742	23891	4645	-20208	-2948	4108	14913	-11115	-11844	135	130	1
-11832	-3928	12400	77	886	1100	-17216	7396	-3368	-7319	10613	449	-17248	-36	-2800	-9097	9346	892	-31908	3112	12656	-9706	32767	-32768	-24708	496	-9492	-4072	18924	4598	-28608	2120	-12808	31705	-11199	-3771	149	132	1
-10424	-4144	12032	-816	1122	82	-17264	2792	-796	-10783	11131	-1143	-17376	-2924	232	-10051	7404	-1932	-29416	1072	17148	2215	32767	-20309	-16524	344	-10276	-6615	16358	1688	-30104	1492	-12040	17194	-20849	3909	127	133	1
-10460	-4780	11440	-181	686	147	-16716	-2164	-964	-3976	7956	-346	-13912	-6600	1152	-6306	9859	-2388	-15624	8040	17068	8231	14343	-12338	-11264	1748	-8124	-242	11724	880	-24200	4360	-5436	8598	-26199	1849	129	131	1
-10200	-4884	11640	24	471	187	-16648	904	-992	4648	3891	678	-15316	-7348	1008	-2307	9668	758	-16320	13432	15084	7783	-11094	-2777	-10360	1324	-7704	983	10711	719	-23484	4280	-2428	7383	-23835	132	128	136	1
-10224	-4748	11568	125	205	26	-16248	2792	-888	3711	3810	993	-16256	-6108	2212	2571	9235	1076	-5632	9484	15416	5988	-27216	2272	-7704	2124	-28	6582	-2067	-320	-21072	5940	-5856	6176	-18981	1868	127	124	1
-9696	-4916	11676	285	241	169	-16016	2448	-684	-50	5212	1023	-15980	-3992	3832	4725	10163	-65	1900	9020	10624	4631	-28540	3560	-8080	-704	1208	4050	-9047	-3221	-19340	6968	-7180	764	-17567	3107	122	121	1
-9604	-5456	11296	633	88	542	-16256	1440	-1208	-2906	5892	1301	-15112	-1244	2504	152	11771	-898	-3536	8256	9280	2162	-26851	4663	-6944	2776	-1148	-269	-16707	-4796	-17192	4668	-8392	-6226	-18356	2254	127	117	1
-9828	-4884	11172	1294	-171	958	-16104	2352	-1412	-3422	5801	1515	-14768	100	1520	-5448	12365	-1189	-6660	6060	9484	1392	-29952	6705	-6324	1104	-2924	-2815	-23086	-6149	-14436	3432	-7788	-11565	-18787	646	130	122	1
-9808	-4096	11576	1689	-270	1097	-15960	3084	-1092	-1750	5385	1126	-15040	-52	836	-7754	12406	-910	-8528	3848	10092	4999	-32768	11557	-8060	-944	-3364	34	-27953	-7648	-13236	2856	-7584	-14043	-17818	-603	127	126	1
-9820	-3992	11840	1722	-333	994	-15964	2996	-1084	-1333	5366	1066	-15472	-1712	1036	-6585	12021	339	-12372	3920	9752	9370	-32768	16803	-8712	-980	-4468	4763	-31523	-8196	-10896	2392	-7980	-17300	-15589	-1662	125	125	1
-9712	-4180	11644	1540	-461	993	-15768	2032	-672	2300	6176	388	-16124	-2920	1080	-4418	12574	25	-13276	3560	9992	12517	-32768	20980	-10868	-1120	-3432	5926	-32768	-8625	-8620	1684	-8544	-20571	-12926	-2448	125	126	1
-9388	-4552	11576	1269	-681	1120	-15804	1844	-508	2151	6816	876	-15284	-2696	2292	-1564	14101	-2203	-11940	2588	9544	16255	-32768	24091	-15520	-1708	-3192	3088	-32768	-8344	-8196	2268	-8860	-21796	-10663	-2042	127	125	1
-9620	-3812	11772	1134	-566	1426	-15788	3388	-1088	-1215	7559	903	-13652	-892	3580	3513	17069	-4471	-16052	2964	12188	18874	-30764	24108	-19544	-932	-8208	1886	-32768	-8602	-9676	1008	-7180	-20029	-9549	-2084	128	123	1
-9760	-4052	11864	990	-209	1316	-16016	2512	-940	-761	7331	1272	-16284	-2084	2464	3083	16912	-3567	-30472	7156	14144	16690	-29035	24552	-20052	-536	-9428	4912	-32768	-8101	-10460	-3544	-5304	-13861	-8772	-2952	131	125	1
-9628	-3360	12236	795	-248	1279	-15900	3796	-1416	862	7233	1036	-18212	-2256	-2604	-950	12790	-1551	-32768	3504	17816	11336	-30337	24459	-27308	-1464	-13248	3677	-32768	-7552	-10328	-7060	608	-7894	-10456	-3851	131	125	1
-9856	-3892	12036	565	364	1226	-16680	3044	-1880	289	7755	1304	-16544	-2652	612	1190	10761	-849	-32768	-1632	15752	9539	-32768	31225	-26712	-1788	-14996	6822	-32768	-8157	-12008	-3016	9128	-1487	-11621	-3094	131	124	1
-9784	-4704	11896	596	678	1684	-16144	960	-1492	817	8417	1505	-15740	-3636	1708	1072	11411	-2512	-32768	-5912	10000	6074	-32768	32767	-26292	1704	-13244	7336	-32768	-9443	-12112	916	10784	2923	-4463	4345	130	124	1
-10188	-4088	12168	585	874	2237	-16056	1068	-1448	1855	9199	2402	-16848	-2448	3412	552	9978	-2862	-32768	-8824	1296	1499	-30083	27149	-24396	180	-14808	2210	-31760	-9110	-15212	356	11868	-1619	-2283	7130	128	128	1
-10172	-4620	12540	844	1490	2991	-16336	360	-1172	2454	11047	3135	-17608	-4300	3472	-2084	7946	-2368	-32768	-12728	-13052	-2450	-20435	15152	-15128	5076	-18000	-490	-23358	-5296	-18068	-8808	15604	-6397	-3232	6298	128	120	1
-9912	-4608	13160	1269	2455	4129	-17684	1120	-1648	3220	12744	4250	-18292	-3508	3564	-4764	5848	-2627	-32768	-21320	-16548	5982	-15104	7762	-14348	2368	-18832	210	-12763	-823	-11288	-10700	21108	-7102	-3437	3241	132	128	1
-10368	-4904	14592	2136	5871	6749	-19192	3584	-3004	3388	14233	4451	-19148	-2372	2632	-7196	4239	-1961	-28852	-20140	-17628	10215	-4316	653	-10448	2164	-17692	6336	1476	4435	-10960	-8948	17956	-441	-3683	58	133	116	1
-11224	-4368	15184	2514	10756	6794	-20976	5876	-4056	3700	15061	5105	-21008	-2548	812	-8359	3064	-1147	-24944	-15960	-17328	-9394	11183	-8761	-11820	1264	-19488	-1884	10735	5399	-13332	-4352	15916	2982	-4569	-739	132	123	1
-11092	-3388	16360	3152	15463	8431	-20744	6364	-3556	3622	16376	5397	-20916	-3008	1180	-8335	1210	200	-8604	-4772	32767	-3714	19985	-8715	-25656	-22420	14644	-11352	9947	-1618	-7184	2192	7240	-9799	15572	4527	131	127	1
-10652	-5268	16588	4606	21296	10328	-22352	4784	-3212	4843	16861	5731	-21876	-3996	3104	-7183	-1114	657	-2844	5052	32767	-1823	19669	-7975	-12108	-5044	-6188	-11466	9204	2922	-24128	-4556	-3512	-1680	19401	2016	131	124	1
-7500	-4788	16348	5486	26187	13402	-22308	4628	-3072	5047	17002	5831	-21088	-2516	7456	-7739	-5912	1744	-16760	-544	15596	3025	21178	-1324	-19840	-12008	-5432	-9965	12020	2058	-17596	-6052	-3060	-9726	8020	-1433	128	127	1
-7356	-2200	16772	6181	32211	18794	-24020	7832	-1672	2750	18952	5926	-22148	-1300	21964	-1830	-20769	3128	-15500	2452	14000	1220	19931	-1316	-18844	-9228	-6092	-3748	11554	5947	-16708	-11028	1228	-8435	9809	78	123	127	1
-5916	-8088	16888	8519	32767	20215	-28544	11272	10052	-6966	22272	7607	-18356	8696	11392	-7601	-12775	4544	-15252	-2820	14040	6504	18197	-155	-19288	-2332	-2920	4399	13436	6027	-16236	-156	1112	6159	11945	363	124	121	1
-11696	-7928	13432	9799	32767	21807	-24640	8628	7616	-14083	25517	2910	-21456	13340	7884	-10996	-16520	9910	-10316	12976	8488	-5943	3849	-3344	-22472	14352	-1852	-2067	10678	8251	-20448	10904	-2944	9018	13063	5036	117	145	1
-32768	-5972	6752	4566	32767	24470	-21336	484	-11264	-18220	29300	1569	-18616	6300	3720	-22105	-17336	8734	-12916	8536	9368	-4132	2408	-4772	-15460	-1408	-2428	-7497	7015	4582	-16268	8872	-3436	852	12162	9478	129	136	1
-32768	1556	8332	874	32767	25466	-22916	-3196	-18112	-6126	28836	4184	-23880	-4244	-14764	-32768	-12062	6724	-14064	580	12688	-3724	-545	-4807	-17272	-1416	-3716	-3725	6603	3348	-16524	2892	-1448	-3296	9421	6425	130	131	1
-32768	-12384	21292	-9382	28557	17971	-24676	5064	-15756	-2993	24416	6155	-29916	-12620	-15056	-24459	-18587	-3453	-12704	3396	11868	-2014	-561	-3014	-18000	-3140	-1548	1589	7479	3353	-17560	-464	556	-3060	9897	4896	123	128	1
-15196	-7192	19812	-6278	5332	17515	-15740	2000	-8312	-7548	16093	2049	-25392	-10980	-8756	5722	-25436	-4177	-12348	3628	11880	-1196	-67	-1941	-17360	-808	-2060	3164	7444	3264	-16256	1604	1432	-210	9029	4718	121	127	1
-4220	-13684	18636	-10184	-14930	4814	-10000	-2892	468	-9394	7543	-1264	-23656	-2076	-2744	8543	-24432	-2965	-11852	4244	11424	-790	481	-918	-18132	660	-2136	1104	6654	2131	-16452	3704	76	-1513	8127	2747	128	123	1
5284	-14372	13452	-11654	-18628	-584	-8424	-728	4100	-9985	-1226	-4562	-20584	-1136	-4576	-380	-19855	-5460	-11564	4616	11480	-1195	410	-1014	-17196	-1204	-1432	-3495	4858	1240	-17332	3196	-1120	-8057	8358	2348	122	129	1
3200	-13116	9772	-9370	-17239	-5242	-6360	-1432	1732	-4817	-10055	-6759	-17236	-3712	-6580	-965	-17013	-6233	-12072	3392	11520	-770	174	-750	-16404	-2688	-3108	-3367	3939	912	-15880	-632	-1352	-9608	9480	3417	123	123	1
-4440	-11064	10084	-7239	-20197	-12176	-5208	-312	-2520	837	-18387	-8361	-14596	-3724	-7672	3600	-14909	-6006	-11384	4100	11460	-264	205	-173	-16588	-3528	-2424	936	4196	1298	-15560	-3032	-1296	-4451	10198	4531	127	129	1
-7520	-9116	10032	-6096	-28122	-21152	-6804	1136	-3168	795	-24771	-9718	-13044	-4252	-7636	8254	-13821	-5904	-11684	3652	11460	-130	200	-96	-15784	-3244	-2520	3794	4080	1823	-15440	-4116	-736	1269	11117	5738	130	125	1
-7040	-5908	10664	-5880	-32169	-26586	-9976	2960	-4012	-1517	-31088	-11136	-12244	-5616	-7520	11347	-12439	-5418	-11492	3532	11268	334	45	480	-16288	-2908	-1252	6201	4649	2200	-14648	-1824	848	5956	11519	5416	128	129	1
-7412	-5452	10672	-6143	-32498	-27177	-13216	2316	-3148	-624	-32768	-11848	-12600	-5484	-7272	16893	-11380	-4953	-10800	5012	11044	-93	199	264	-16568	-1584	52	5256	4675	2544	-14868	-1292	940	6663	11640	5425	125	133	1
-15412	-4308	11740	-10700	-31669	-27668	-13112	2888	-4844	4361	-32768	-11787	-11940	-2328	-8420	24466	-10958	-6063	-11124	4668	11404	-4	605	-591	-16572	-1152	-332	2004	3803	2457	-16040	284	-52	7459	13803	5755	124	131	1
-22184	-8428	12952	-7484	-32768	-26170	-16192	4300	-8152	2883	-32768	-11727	-10872	744	-9180	25663	-11089	-5653	-11856	3704	11476	451	717	-552	-16664	-2480	-1436	1260	4157	2135	-16812	-280	340	6568	14194	5659	122	134	1
-22096	-7188	13956	-4381	-32768	-27268	-18060	6028	-7400	1138	-32768	-12410	-8676	2524	-7196	17594	-9334	-4254	-11120	4480	11188	217	949	-539	-16492	-2708	-724	2704	5119	2479	-15528	-636	556	7346	15266	6504	122	132	1
-21520	-4884	16160	-6233	-32282	-30274	-22236	9300	-6724	-1930	-32768	-13018	-7748	2516	-3520	8423	-6162	-3618	-11284	4460	11560	-135	1388	-304	-16076	-2588	-864	4700	6587	2928	-16064	-1392	1784	4900	15569	6909	127	133	1
-28436	-4160	21388	-10267	-27639	-31089	-27524	8396	-9844	-5072	-32768	-13661	-8740	5564	212	2057	-3723	-2916	-11404	4448	11400	-363	1736	52	-16368	-1844	-364	5318	8291	3055	-15284	-1160	2868	-3696	16891	8830	126	132	1
-32768	-2908	21492	-11647	-30148	-26454	-29972	7864	-12676	-6192	-32768	-13916	-11264	2780	5332	1193	-2768	-2536	-11840	4828	11132	-1204	2126	-40	-16432	296	604	3438	9882	2887	-18776	804	2224	-4366	14986	8568	120	136	1
-32768	4268	16280	-13493	-31890	-21396	-24884	9172	-15396	-10782	-32768	-11798	-13264	-3132	8488	-1681	-1001	-5092	-11656	5128	11088	-1631	2403	-691	-15568	-172	1840	935	11562	2358	-19184	816	2936	-572	9448	4937	124	134	1
-32768	3888	3672	-13189	-32768	-20150	-20512	7800	-17588	-12321	-32164	-10969	-17292	-2864	15492	2742	-2447	-10014	-11780	6276	11056	-1569	2632	-2486	-16424	2088	1312	-1076	12617	2428	-17148	-260	4876	1020	7066	4652	125	133	1
-32768	11816	-9484	-11574	-29137	-16333	-15992	9892	-18332	-12937	-21741	-11976	-16384	4812	21012	5122	-703	-8533	-12100	5052	11296	-1607	2271	-4084	-16896	240	-576	-2724	14227	1426	-16172	-8	3720	2965	7678	5043	122	131	1
-32768	27640	-19948	-19342	-13869	-10455	-7304	6728	-19044	-10896	-6167	-9060	-14644	4772	30728	-7772	-4474	-41	-11756	6516	12092	-1133	2625	-5767	-17780	1048	-380	-3480	15843	1255	-16436	1884	736	4160	6412	4905	126	132	1
-32768	17628	-19676	-7353	-108	-3114	-5700	1960	-17080	-3	8346	-1368	-14584	3660	30120	-8777	-5622	1127	-13636	4044	12744	-1683	4388	-8596	-19148	28	-4428	-6841	16241	613	-17872	4220	-604	4324	4046	4016	123	131	1
-29032	11728	-10312	16516	13223	7918	-10408	7580	-16496	11961	14843	4010	-14052	-6900	12496	-1735	-4747	-1310	-10588	5508	16432	-2839	9878	-6207	-21760	-7060	-5408	-4286	17800	-821	-19624	1900	-3232	4059	4751	2926	130	129	1
-32768	-24728	32767	19267	-592	-2306	-32768	17036	32767	-5208	14241	14766	-11236	-5044	-3448	917	3921	-720	-12564	2628	16272	-3566	16058	-9053	-21572	-5900	-6604	-4521	17664	511	-21728	664	-2952	6748	2472	651	125	126	1
9400	8976	6100	16291	17706	17066	-13420	3144	2744	29264	1500	-7054	-22056	-860	676	4499	8983	3174	-10220	5376	16808	-4296	23776	-8705	-24004	-5880	-3076	-7438	17283	-447	-23936	-1252	1672	5759	-1522	392	125	129	1
-23556	23220	16164	6469	26055	3860	-9248	18276	-5168	16987	10175	10979	-16732	-2580	11180	22471	-695	1399	-7884	3548	17492	-3794	31500	-11139	-24832	-7492	-924	-5623	18167	726	-21452	-4980	12768	-194	-10720	-2020	125	132	1
-18744	7752	19192	2185	20625	11072	-27352	16940	-5300	7824	14398	2979	-17072	7180	11112	27461	10016	723	-9356	7056	16880	-4627	32767	-13728	-29468	-12352	7608	1499	21680	96	-20396	-10812	12520	227	-13485	-6528	129	135	1
-27644	-12836	14728	-1095	14234	12660	-24356	17956	-5804	6656	14746	925	-19576	11028	2364	3723	12119	5203	-11624	11400	16956	-7496	32767	-23176	-29988	-11888	14976	9563	25369	1739	-21072	-12448	12388	7331	-12985	-12894	131	135	1
-20356	-12388	5960	8062	4337	6070	-21716	-7360	-8276	6472	14937	-1404	-19972	-8624	-6268	-19853	13795	-212	-32768	8152	11168	-7238	32767	-32768	-27648	2588	-6076	4127	26128	3604	-19040	-5080	8960	12152	-14752	-14507	132	126	1
-11140	-3548	11512	5119	2217	6673	-13160	5524	-4900	9760	9332	2044	-12792	-9596	-7020	-9208	14818	-8776	-32768	8364	8188	-7417	32767	-31689	-30252	592	-10280	-3549	26529	1372	-23524	5156	-2556	22377	-11475	-11798	138	136	1
-11296	-1280	13572	4955	1591	5497	-16356	5424	-4868	4053	8606	1182	-16392	-3540	-4096	-2129	11196	-2863	-32768	6260	17056	-6289	32767	-31003	-23568	-2148	-5640	-7745	17337	1946	-29340	-140	-14212	27946	-12163	-3443	133	139	1
-11208	-2976	13092	3294	1848	3312	-17852	7140	-3432	-2536	9311	-172	-17640	260	-2776	-2827	11131	-1766	-25696	5956	22380	6673	29513	-19550	-15628	880	-8544	-8327	15902	2331	-29812	-1172	-11516	15582	-23020	1821	139	132	1
-11084	-3700	12676	1716	1061	1660	-16828	2840	-2288	-3559	8391	-769	-16408	-4680	-664	-844	12970	-1710	-32768	8408	17744	5037	3279	-14017	-13392	-1728	-8300	-141	9688	912	-25096	1316	-4096	7917	-28873	-138	136	134	1
-10552	-4192	12080	868	658	661	-16968	1512	-1084	946	5676	-467	-15296	-4536	632	2121	12807	804	-19032	9520	19244	7872	-30652	51	-5588	2424	-908	10866	3444	104	-23984	2864	-2864	8033	-25599	-858	134	131	1
-10088	-4348	11868	129	384	77	-16484	1740	-952	4103	4255	-172	-16196	-3652	2092	5065	11529	747	1976	11548	13408	10547	-32768	4227	-9448	1164	2628	11396	-5013	1113	-23868	5140	-7556	7175	-19635	1898	137	124	1
-9908	-4780	11856	119	399	-78	-16468	2180	-772	3880	4084	94	-16184	-3144	3420	4702	12332	-679	2808	8620	9088	10827	-30590	4395	-7136	188	1128	6639	-13674	-1918	-18220	4440	-8476	3724	-18004	2618	123	120	1
-9948	-4592	11588	68	341	79	-16076	2116	-1220	1174	4773	422	-15520	-2204	2836	618	13996	-2161	-2588	8796	7608	7683	-26256	5985	-6252	2760	-1964	227	-21612	-2608	-15816	4732	-9172	-1739	-16863	2120	129	115	1
-8928	-5064	11180	196	464	293	-15908	2212	-648	-3133	5978	659	-14468	-964	3776	-3544	13916	-2836	-9456	8600	8568	5163	-28954	9755	-6912	1400	-4276	-1886	-27488	-4182	-13108	3956	-9372	-6073	-18026	1063	130	122	1
-9056	-5072	11232	824	521	1153	-15384	2288	36	-6085	7248	232	-14332	-548	3484	-5856	13042	-2144	-11020	8092	8572	4924	-29655	10416	-9356	420	-5556	1526	-31840	-5343	-12472	4568	-8508	-8345	-17275	390	129	124	1
-9584	-4132	11776	1275	499	1509	-16440	2052	-252	-3933	7536	-124	-15520	-952	2572	-7760	13056	-595	-15268	3704	9864	9966	-32768	22205	-10112	40	-5404	5481	-32768	-6199	-10004	5068	-8628	-12576	-15845	-366	128	129	1
-9232	-4220	11504	1524	445	1433	-15780	1784	-52	511	7473	141	-15940	-2076	2216	-7119	14303	-999	-12624	3532	8988	14427	-32768	26025	-12408	40	-2740	7119	-32768	-6326	-8400	5204	-9576	-18944	-14007	-954	130	128	1
-10000	-4448	11992	1633	121	1258	-15640	1412	-1252	1448	9175	666	-15384	-2476	2260	-1626	16185	-3423	-13812	2804	10612	18439	-32768	25967	-16516	-1064	-4576	2303	-32768	-5159	-7528	5268	-11312	-23645	-11335	-844	128	128	1
-10028	-4272	11720	1552	70	1248	-15808	2020	-2220	-291	10191	932	-13968	-3108	1480	3215	17323	-5326	-23276	1584	12732	22781	-32357	25319	-20120	-420	-10212	7412	-32768	-5928	-8612	508	-8480	-22115	-10768	-1783	129	125	1
-9688	-3968	12204	1282	80	1392	-16892	3096	-2288	-454	9673	964	-15920	-3324	-2876	2620	17636	-5129	-31628	8012	16552	21087	-30655	24983	-25808	-1804	-11092	9116	-32768	-5019	-10488	-5568	-6080	-14176	-10269	-3327	131	123	1
-10172	-3072	12576	567	978	1127	-16568	4132	-3244	-1040	8905	1313	-17792	-2804	-2828	80	14008	-2436	-32768	3760	17628	15828	-32167	26846	-28292	-2908	-16232	11264	-32768	-4222	-11152	-5960	-588	-9681	-12206	-3587	134	123	1
-10216	-4228	12120	112	1594	1167	-16440	1444	-1680	-1948	9522	1699	-17368	-3632	1388	-2214	10186	-1956	-32768	-3172	12204	17102	-32768	32767	-26976	-468	-17264	18223	-32768	-3125	-9460	-948	5408	5310	-3997	3221	135	123	1
-10184	-4448	12100	194	2017	1808	-16252	-188	-1020	66	10329	2452	-16616	-2236	4572	-2724	8636	-3546	-32768	-6576	5344	14091	-29335	31869	-27812	2612	-17304	12346	-32768	-2031	-14440	-372	10192	9135	478	7706	131	127	1
-10196	-4792	13064	518	3361	2728	-17868	932	-1520	825	11829	3439	-17816	-1744	4684	-5454	8293	-3507	-32768	-14624	-5912	11673	-22461	28332	-21836	508	-18800	9196	-29696	219	-17884	-5980	16752	3895	-2233	7419	129	123	1
-10020	-4080	13996	1433	5784	4152	-17960	2984	-1180	215	14066	4184	-19292	-2760	4824	-8993	6779	-3111	-32768	-17588	-18204	6673	-14908	21026	-13632	3236	-21412	5073	-17452	4641	-16680	-5664	22504	-681	-1523	8979	131	118	1
-10244	-5428	15128	1545	9702	4649	-19560	3484	-572	2673	15616	4945	-20316	-3032	4000	-9610	4464	-2382	-32768	-29756	-21736	7220	-3659	11739	-8584	2424	-21236	822	-3646	5777	-11804	-6448	23344	-573	-215	5763	134	124	1
-10960	-3724	15656	2254	13766	6186	-20092	4952	-3048	5611	16984	5545	-19884	-3760	2816	-8761	2881	-1086	-29916	-23720	-17164	5052	8466	4417	-9108	2140	-19812	-4229	9884	4984	-13748	428	19084	-2178	-5274	3350	133	131	1
-11068	-5844	15728	2942	19443	8431	-21272	4900	-3592	6703	18125	5416	-19692	-3012	532	-8667	2245	-115	-11260	11404	11876	-16275	12063	1390	-16880	1136	520	-10679	16469	2962	-14100	1468	6472	-3126	88	3814	130	123	1
-8020	-4400	15596	3543	24107	11801	-20580	5900	-3384	5499	18497	5092	-19740	-2876	560	-8613	1999	66	-10932	-4932	24240	-19861	9433	-6855	-32768	-21860	32588	-12275	4078	653	-9676	756	-2252	-18333	20928	4897	129	126	1
-9016	-4340	16024	3837	29569	13378	-23484	6184	-948	3510	19531	5466	-22452	-1904	9908	-9535	-7485	1816	-8300	-21064	508	-20938	17490	-10875	-5052	-13540	-15312	-32768	2919	3456	-24632	-7168	5208	-11344	12820	-596	131	129	1
-5964	-1940	16424	4892	32767	14925	-25676	9928	2264	-397	21199	6317	-20392	2572	20688	-8758	-22789	3427	-18468	-4664	22600	-2644	30271	6472	-25316	-16628	-2868	-14661	12031	-463	-17784	-13504	5052	-29942	6366	-5542	120	128	1
-7840	-8936	14944	3266	32767	14451	-28036	15408	12904	-13425	25618	5525	-19708	14152	12548	-16166	-11846	6943	-25260	-8112	17748	3997	20566	-13019	-23688	-6000	-5388	-5885	15945	4365	-19304	-18156	4648	-28173	6243	-4745	120	132	1
-29452	-6452	10156	639	32767	20604	-23464	3316	-2276	-21925	31182	2228	-19772	10272	7764	-22479	-16186	8667	-28036	28344	-2580	-9800	6258	-4880	-26416	19260	-4988	-3538	16232	9506	-22660	8052	-1824	13048	10692	2112	125	117	1
-32768	-8596	8860	-1134	32767	24548	-28928	-4344	-11624	-13062	30940	5046	-24660	-5476	-13692	-32768	-13566	9623	-14316	2724	10028	-4718	3963	-7111	-16972	1016	-6260	-12806	11306	4589	-15416	20008	-9592	173	11912	11380	134	135	1
-32768	-13484	18560	-3489	32767	24203	-22464	3836	-9696	-2310	26101	7139	-28336	-13316	-17032	-29185	-17161	-1467	-12496	1544	12780	-9008	1969	-7876	-15900	388	-4744	-9292	9166	3219	-15788	304	-4436	-6667	7561	8622	123	137	1
-23348	-14076	21904	-8044	25670	18607	-18380	1192	-10676	1694	18802	6217	-25720	-12088	-11428	3790	-23942	-4464	-14416	2304	12552	-6663	730	-6110	-17688	-5036	-3880	936	10414	3128	-20204	-1032	-1172	-2429	6707	4961	132	140	1
-32768	-17584	24572	-6708	-10404	10067	-12252	1408	-6724	-3979	8992	2713	-25652	-4160	-4072	9319	-24313	-2539	-12152	3604	12200	-4095	792	-4295	-17572	-1588	-3412	6865	10807	3476	-16080	1584	-2256	1401	10037	5348	126	131	1
-3508	-11056	17268	-10596	-28603	1834	-6128	-180	876	-9741	1465	-838	-22652	-2272	-4020	4252	-20803	-3952	-11936	3292	12448	-2948	176	-3539	-17572	160	-2820	5443	9277	2644	-15800	2704	-1988	1573	9684	3833	115	124	1
4736	-10320	10336	-12948	-27560	691	-8984	368	2880	-10842	-6293	-5678	-18964	-3984	-6068	1044	-17463	-5236	-11484	3756	12060	-2249	201	-2742	-17580	-148	-2796	-700	6579	1533	-15848	2488	-2040	-3695	8824	2031	126	130	1
1420	-10348	7324	-10147	-23256	-2292	-6484	-728	-240	-6723	-13546	-6164	-15812	-4248	-6984	5826	-16088	-5759	-11920	2900	12148	-1974	194	-1879	-16868	-3168	-3008	-3466	4768	968	-16816	252	-2528	-7572	9514	2782	124	130	1
-5836	-10200	8100	-6851	-25760	-9294	-5148	388	-3860	-1109	-20929	-6942	-13872	-2460	-7224	10121	-14590	-5286	-11504	3228	11892	-763	201	-1297	-16076	-3932	-1280	79	5008	1278	-16072	-2636	-532	-5453	9464	5118	137	130	1
-7616	-8836	9008	-4039	-30118	-17113	-8412	3000	-3608	-1736	-26834	-8066	-13524	-2608	-6532	12425	-13774	-5076	-10156	4624	11840	151	421	-1534	-15704	-3596	436	4102	5915	2254	-14704	-4064	1728	2159	9690	6224	125	129	1
-10448	-5776	10540	-4534	-32559	-24047	-12260	3956	-5064	-3582	-31873	-9463	-13524	-5160	-6008	15102	-13472	-4473	-10824	4808	11456	-334	806	-2430	-16724	-268	252	4500	6303	2507	-14680	-1624	2968	9866	10055	5517	123	131	1
-13908	-3696	10936	-8000	-32768	-27279	-13428	2588	-4020	-2434	-32768	-10364	-13332	-3444	-7440	22344	-13020	-3928	-11432	4424	11612	-1718	772	-2735	-16404	-952	-920	700	6010	2053	-14780	280	1476	14176	12494	6175	122	133	1
-16656	-4812	11724	-9238	-32768	-25570	-13592	3240	-5376	1067	-32768	-12061	-11880	836	-7536	27448	-13742	-4108	-11656	4272	11212	-1870	582	-2838	-16456	-952	-872	43	6704	1761	-16108	1256	504	12996	14344	7300	120	132	1
-18368	-6352	12768	-7110	-32768	-23643	-16236	5384	-6792	2229	-32768	-12632	-9824	2972	-7636	20539	-12890	-3752	-11424	4596	11908	-2558	459	-3048	-17096	-1908	-700	717	7786	2136	-16404	596	1168	5278	15028	7841	120	132	1
-18672	-6236	14736	-5471	-32768	-24600	-18692	7148	-6624	942	-32768	-13051	-8184	2476	-6144	10005	-8930	-1818	-11564	3824	12172	-2731	300	-3610	-17348	-1252	-2444	1374	8434	2740	-15892	-520	2000	-1715	16959	8081	119	130	1
-22240	-3512	19096	-8044	-29913	-28075	-22776	10908	-8308	-2162	-32768	-12995	-8584	3088	-4372	2892	-5203	-1137	-12352	1640	12072	-2110	726	-2298	-15964	-3116	-4712	299	8790	2543	-15868	2004	-2904	-2826	19157	6367	121	129	1
-32768	-1364	23144	-13781	-29477	-29741	-26652	9672	-12452	-9108	-32768	-13163	-9736	4552	-1556	-1312	-1546	-853	-11844	1784	11984	-911	1039	-1471	-15696	-2308	-3636	1807	9203	2746	-18252	3192	-4104	-792	15376	4522	123	130	1
-32768	-496	21780	-15286	-32768	-24664	-29556	8896	-14988	-13176	-32768	-13652	-11972	1120	2120	-1910	-2468	-2055	-11568	3912	12288	-598	1743	-1194	-16972	-1108	-864	2068	9792	2639	-18820	928	1620	-1389	11235	4137	125	130	1
-32768	4200	11220	-15595	-32768	-19809	-24904	9000	-17480	-14475	-32768	-12503	-14588	-6340	7764	-4464	-4357	-5140	-11884	4304	11964	-877	2542	-2314	-16784	48	164	-226	10572	1998	-16972	-740	4576	-1070	8967	4237	121	130	1
-32768	5472	-2604	-12187	-31713	-16764	-19876	8524	-20164	-11362	-30271	-11943	-17812	-1852	14520	6139	-3410	-9101	-11760	4348	13176	-1351	3977	-4097	-18252	-492	-1308	-900	12112	1616	-17380	-1264	3544	711	9154	4935	120	131	1
-32768	15520	-14704	-10758	-23535	-16743	-13704	8416	-24104	-7656	-18602	-10757	-15420	4236	26744	2631	-1994	-6176	-12412	3068	13536	-1888	7684	-4841	-18704	-1436	-1260	-975	12375	1483	-19684	-2676	1996	3373	7862	5051	120	131	1
-32768	27624	-24468	-12133	-9466	-14762	-5440	7208	-22760	-708	-2820	-5193	-14452	4284	28760	473	-1370	-5570	-12292	3272	14096	-3048	11458	-5871	-18920	-1764	-1904	-4445	15622	756	-18488	704	2852	6569	6261	2735	121	130	1
-32768	16712	-21004	3904	7391	-5273	-7528	3584	-20976	9334	10480	991	-13628	-6792	17228	-3650	-5099	1168	-11648	3808	14760	-5042	15194	-6737	-20340	-1984	-2736	-8463	16462	-184	-20252	3672	2640	6039	4870	1308	116	130	1
7456	-8204	17980	23764	12126	7373	-28684	1160	11288	7070	11551	4969	-12348	-8412	1292	-1095	5048	-1196	-10400	3784	16744	-5937	20034	-7956	-23548	-3752	-3332	-6320	17877	-36	-22276	3612	2392	5246	2606	204	123	129	1
-1816	9092	17688	11359	21959	14893	-20408	11388	5928	27833	1693	-1989	-24524	-1928	5384	932	9516	310	-10036	6228	16292	-5621	27080	-10330	-25404	-6528	-1036	-3991	18937	697	-24576	-668	6456	5780	-2860	-1010	136	131	1
-18084	15608	15472	5026	28248	2282	-9712	19472	-2500	14690	12368	8848	-18116	2312	12048	22447	1634	3196	-7548	3592	17536	-6525	32767	-13123	-27144	-11328	5824	2796	21920	1200	-21820	-7736	14540	-2511	-14622	-4990	119	134	1
-20480	8060	19276	-130	20758	8879	-15432	17116	1064	12180	13786	11276	-14144	11708	6956	24179	12804	3948	-11240	11740	18372	-9386	32767	-16364	-29788	-13636	16028	9491	25502	1817	-18824	-20704	14940	1128	-14626	-12822	127	134	1
-22196	-10200	13892	-3838	15129	10967	-22172	2572	-5828	2897	17787	1940	-19752	8044	-540	5207	11786	3129	-21696	7252	14960	-9282	32767	-27313	-28948	-3332	6692	8186	27043	2985	-19552	-11072	13152	9728	-17389	-15170	127	128	1
-14252	-12756	9380	3761	11972	7614	-19780	-4392	-3792	9465	14080	-1408	-15772	-9668	-7128	-13617	13846	-1074	-32768	196	4380	-3666	32767	-30589	-27908	3512	-14116	-1021	29491	2412	-17776	3500	1564	21498	-12105	-12999	132	132	1
-14860	-8524	11316	8925	4801	8805	-15388	-1168	-6644	14273	8490	-265	-14984	-12468	-7156	-6933	10906	-4907	-32768	10024	14792	-5963	32767	-32768	-27144	820	-7624	-6083	22360	2683	-27684	3920	-13404	32767	-6702	-6700	137	135	1
-13252	-3276	13360	7535	1528	7248	-16608	7588	-6144	7219	7766	1107	-18080	-3524	-7328	-977	10803	-5065	-27888	9864	23924	3568	32767	-28942	-20108	28	-4792	-8285	17092	2814	-32768	292	-14392	19531	-18852	2226	129	134	1
-12336	-1072	13852	3318	1164	3219	-17100	9356	-4688	-3137	9103	128	-16992	468	-3964	-2941	12255	-3830	-29348	1944	15660	4226	19660	-21032	-14976	1592	-9536	-4099	11055	1766	-27936	2000	-8708	6917	-30414	1652	131	131	1
-11276	-2624	13008	1514	559	600	-17292	5944	-2100	-7608	9429	-974	-16488	-2008	-344	-2560	13324	-802	-18468	15060	20104	9497	-22914	-1968	-9240	1848	-4016	8531	4779	333	-26040	-352	-1808	5013	-30235	-791	132	133	1
-10312	-4240	11972	345	669	-164	-17860	160	-420	-3853	7737	-990	-15956	-4944	1464	-1530	13249	1084	-2692	14168	16012	8752	-32146	5209	-9356	-1076	2520	12193	-4397	1425	-23768	548	-5768	7583	-21808	847	129	127	1
-9796	-4620	11452	203	349	-176	-16776	-140	-236	4421	4587	-402	-15648	-5476	2172	1287	12823	299	2532	9852	11508	8630	-30877	7264	-7024	-620	1264	9074	-12962	226	-19468	2652	-8544	7408	-17970	1577	126	121	1
-9664	-4724	11500	-76	185	-103	-16756	136	-60	5445	4102	-278	-15900	-3144	3020	3998	12667	-1103	-4500	6692	10128	9541	-29087	9209	-7064	2144	-1632	6093	-20491	-915	-15836	3644	-8688	2231	-17511	1997	126	122	1
-9568	-4568	11312	-144	171	-9	-15064	3556	-256	2501	4668	542	-15408	-112	3844	2481	13474	-2502	-7208	5696	9632	12065	-31932	12664	-7660	772	-2880	4281	-26869	-1892	-13452	4480	-9188	-4824	-18159	1449	127	123	1
-8648	-4836	11052	-307	419	432	-14560	2988	420	-5999	7558	291	-14580	456	4564	-3055	13475	-2901	-11452	5544	9940	13087	-32768	16315	-8936	-724	-4052	6176	-32155	-2440	-12100	3852	-9132	-7512	-16735	771	127	126	1
-9100	-5840	10728	201	511	1715	-15636	1496	508	-11066	9854	-356	-14020	-1648	4616	-6827	13154	-2822	-15744	3200	10772	15134	-32768	20240	-10116	-1020	-5564	8661	-32768	-2341	-9544	4020	-9920	-10792	-14684	140	127	125	1
-9988	-4048	11656	1143	539	2322	-16788	520	-192	-2844	8525	-14	-14952	-2208	884	-6962	16345	-1967	-15380	1680	11432	18512	-32768	25271	-12536	-1836	-4640	8468	-32768	-3296	-8452	5108	-10092	-15091	-13023	-182	127	126	1
-10412	-3248	12004	1309	56	1934	-16068	3452	-2272	3111	7322	1149	-15704	-656	-1824	-4039	17253	-2012	-15836	2716	12076	22708	-32768	28331	-16772	-1984	-4792	5198	-32768	-2580	-7296	5816	-11720	-20618	-11687	-381	126	128	1
-10352	-3784	11768	913	110	1133	-15724	5000	-2572	-72	9224	864	-15464	-1036	-1996	287	16337	-3038	-21452	816	14664	25230	-32768	29268	-20736	-2396	-10016	5655	-32768	-2359	-7528	2924	-10728	-22268	-11062	-1046	129	124	1
-10348	-3572	11836	619	584	832	-15896	3448	-1668	-4238	10125	385	-15272	-1912	-488	1941	16201	-4802	-32768	3732	17460	23997	-30432	31539	-24244	-1856	-13068	2851	-32768	-4480	-9272	-3516	-4988	-16874	-13056	-2565	135	121	1
-10460	-4216	11600	578	534	866	-16072	696	-144	-2520	9643	1001	-16828	-3020	2252	-535	14078	-3891	-32768	212	21556	17980	-32449	31644	-29336	-7076	-15284	9339	-32768	-4897	-9924	-5484	-1720	-13219	-11944	-2618	131	125	1
-10096	-4608	11900	596	487	1513	-16024	544	4	-1977	9659	1093	-18460	-4840	4180	-1767	10635	-2786	-32768	-7152	14800	17958	-32768	32767	-26096	-3228	-18468	17071	-32768	-4563	-10528	-1296	5744	1756	-7168	2585	130	126	1
-10188	-4920	11960	658	751	2465	-16836	-84	196	1778	11357	3104	-18504	-3964	6560	-1434	8907	-4193	-32768	-6200	4316	11467	-32768	32767	-26520	3492	-17900	11574	-32768	-3077	-14588	-2240	6612	7821	902	8176	131	122	1
-10404	-4848	12608	638	2214	3442	-17056	664	-136	1318	13711	4002	-17176	-1876	7760	-5115	8691	-3794	-32768	-15376	-8092	9644	-23901	29097	-23348	-1204	-19024	8082	-30634	471	-15652	-9100	16620	2671	388	3161	131	126	1
-10192	-6640	13848	1111	4575	5141	-18904	920	-576	3130	15400	4433	-18912	-636	3724	-9196	6661	-2701	-32768	-21352	-18724	12587	-8062	24019	-13156	1356	-23204	7628	-17057	5287	-18252	-9156	25052	-2196	-1237	1311	129	124	1
-10240	-1540	15956	2322	8294	7085	-18444	6120	-1896	3781	17484	5287	-19572	-3512	2300	-8788	3828	-2968	-32768	-29004	-21272	10723	3436	18794	-7076	5176	-21960	1529	-1306	4797	-14020	-7992	27424	1621	-4677	1239	129	112	1
-12416	-3900	15164	2957	13228	7493	-20204	5944	-2796	6493	19142	5801	-19876	-3632	2044	-8490	3538	-2967	-32768	-19748	-17392	-3667	8046	8887	-9532	4420	-18996	-7098	12412	2959	-15600	2036	19076	559	-3874	2564	128	119	1
-10996	-4928	16836	3822	19255	9744	-21288	6012	-3784	8004	19814	5986	-20236	-3432	2040	-7805	486	647	-19084	32767	24364	-19547	9440	-14765	-23032	-11208	5124	-17331	13145	517	-14796	1960	5632	-2820	2209	5176	127	125	1
-9252	-5364	17368	4886	25441	12365	-23592	6452	-3888	6552	20035	5407	-21492	-3268	3516	-7396	-2045	1501	7068	29576	27028	-19657	17890	-22001	-23040	-5580	10492	-26983	-673	7764	-20712	-448	-1172	-12530	19206	4998	124	118	1
-7040	-3256	17408	5402	31960	16627	-25104	7680	-1724	5507	20493	6154	-23792	-3092	18424	-4169	-14706	2291	-15960	-29176	10928	-16647	26624	-4757	-5260	-27788	-13312	-32768	7730	-4368	-16740	-4100	4584	-24666	8456	2010	125	120	1
-5956	-6872	17332	6325	32767	20414	-29000	11756	10356	-2256	23638	6882	-17368	11932	17568	-6624	-13350	3310	-22480	-2824	19816	-8820	24460	-6647	-26100	-9856	-5584	-15303	13073	4653	-18328	-20644	-1280	-24439	7656	-1506	121	114	1
-6232	-9568	17868	7977	32767	23301	-28252	12844	12040	-13423	27358	3037	-23620	16904	14124	-8724	-14712	9269	-28056	-2216	15396	3956	17488	-9867	-21988	-4820	-6328	-8591	16003	4777	-17008	-7660	-2696	580	10377	-2212	120	124	1
-11096	-5444	16280	8521	32767	22626	-23624	784	-10816	-19022	31954	2101	-20276	7324	-2476	-32768	-14672	9217	-11804	14564	5048	-12681	3492	-9726	-23000	17116	-6212	-12345	13361	9151	-20516	21104	-4052	6901	11725	5716	121	127	1
-32768	-4760	8240	1515	32767	26253	-26768	-2912	-8308	-7782	29773	6119	-27564	-10064	-16644	-32768	-16093	6163	-15496	10108	9196	-8280	1983	-9178	-16424	1348	-4344	-18592	8160	3688	-15064	11956	-8088	-12385	8702	9424	125	133	1
-32768	-12636	21596	-2790	32767	24894	-21508	904	-6452	-4291	22188	5190	-26340	-15968	-17676	-13538	-22234	-4882	-13864	-640	13644	-8664	-665	-10181	-16536	-1712	-4444	-12184	7276	3004	-16936	-320	-3692	-12142	6616	7234	137	140	1
-24468	-7612	20124	-3363	8392	23080	-14768	-1232	-12804	328	13235	2362	-26172	-7888	-6520	9086	-24638	-4281	-14732	1112	13500	-8205	-1157	-9711	-17948	-4708	-3404	-2865	8186	3144	-17316	440	-2904	-4429	7883	7037	128	128	1
-8128	-12692	21092	-8605	-25913	1471	-6392	-2416	-456	-5929	2878	578	-26012	-1456	-4264	6953	-22700	-4785	-12676	800	12548	-3970	-1713	-4345	-17112	-3936	-2436	3649	9453	3162	-17124	-404	-196	-1924	8456	6467	115	130	1
5020	-14296	13760	-12774	-28498	-4547	-9864	1368	5532	-10436	-5108	-5458	-21124	-1844	-6144	480	-19815	-7273	-11616	84	11796	-2846	-866	-3002	-17396	-692	-2712	2598	8786	2606	-15164	-256	572	-1439	9168	4825	115	125	1
3536	-11256	9264	-12186	-25611	-7910	-7240	-772	992	-8803	-12635	-7327	-18012	-1912	-6460	2781	-18264	-6834	-11064	2324	12352	-2179	130	-1717	-16904	-2804	-1780	-2285	7088	1852	-15272	-1076	-992	-3491	9224	2454	126	130	1
-4308	-9792	8984	-10415	-25900	-12937	-5036	-276	-2364	-2134	-20940	-9742	-15220	-232	-7408	6103	-16116	-5939	-11012	1804	12332	-1754	395	-1452	-15680	-3968	-2076	-3262	5943	2022	-15596	-2464	-1356	-4821	9373	3281	127	130	1
-7284	-8092	9672	-9274	-30222	-19473	-7440	2620	-3224	-2804	-27279	-11096	-12816	-1928	-7140	8748	-14576	-5262	-11128	2728	12320	-1238	406	-1022	-16072	-3916	-1604	552	6508	2646	-15308	-3160	-432	-2070	9707	5012	122	121	1
-11348	-4932	11560	-9739	-32768	-24611	-10604	3500	-4432	-5967	-31805	-12603	-11872	-4312	-6856	11171	-12966	-4574	-10712	3204	12252	-1123	251	-1085	-15776	-3496	-1416	3682	6744	3083	-14480	-3080	-864	3036	11544	5910	120	126	1
-12964	-3072	11816	-11556	-32768	-26884	-12868	4032	-3332	-3787	-32768	-14223	-11080	-3200	-7880	18190	-11661	-4333	-10660	2480	12108	-1264	297	-1187	-16120	-3288	-1576	6606	7008	3514	-14568	-1060	-1336	8322	12961	5966	119	132	1
-15192	-3060	13428	-12213	-32768	-26655	-13680	5364	-4264	-16	-32768	-15029	-10092	652	-8948	24323	-11669	-4016	-11660	2936	12124	-1353	221	-1255	-16936	-1044	-1856	6002	6815	3654	-16016	2304	-1360	10529	14683	6339	116	129	1
-18908	-3960	15932	-11025	-32768	-26525	-16664	7252	-6224	-133	-32768	-15234	-8524	2240	-8808	19624	-10417	-3436	-11196	2988	11868	-1076	-53	-1615	-17164	-208	-1168	4	5445	3090	-16356	2936	-1996	6527	15831	6143	118	127	1
-19344	-3800	16268	-10783	-32768	-26649	-19964	10560	-6836	-3132	-32768	-14905	-6616	944	-5852	10892	-7852	-2789	-10340	3296	12664	-1249	167	-2342	-16764	-2940	-1304	-1391	4788	2971	-16316	1356	-508	2528	16653	5146	116	132	1
-27516	28	23016	-14997	-32768	-31427	-23012	12764	-8048	-7679	-32768	-13539	-6236	1648	-2504	4112	-3569	-1680	-10628	2732	13004	-1198	815	-2531	-17388	-2032	-1996	1322	5515	3056	-16708	548	960	209	18644	6544	120	131	1
-32768	-3404	25816	-12897	-32768	-30317	-29252	10492	-11060	-10183	-32768	-13240	-8928	2704	2484	753	-2666	-1774	-12124	1452	12108	-958	623	-2104	-16204	-2524	-1048	5973	8291	3637	-14692	-2392	4628	-3037	18999	9160	122	132	1
-32768	3100	21072	-9037	-32768	-28170	-30032	10568	-13836	-8175	-32768	-9956	-14280	-900	7460	2359	-4256	-3761	-11684	2348	11564	-1532	239	-2043	-15160	1332	4076	5214	11145	3663	-17800	-2716	5868	-270	11333	9385	120	134	1
-32768	-2524	2952	-3447	-32768	-24629	-22716	6232	-16636	-4890	-32768	-8403	-17088	-4840	9960	121	-608	-7283	-11108	4152	12576	-1854	229	-4230	-16400	1308	4216	-544	12845	2018	-20196	-1804	8448	3082	6584	6747	121	131	1
-32768	10544	-9996	-3080	-29715	-17576	-17776	10568	-22568	-569	-29019	-11330	-18180	4352	22296	11518	-674	-2966	-11176	2272	13424	-1915	2607	-4322	-18540	-1624	-532	434	16470	1748	-19300	-1856	5812	5296	6960	6166	121	132	1
-32768	29068	-19908	-18598	-13615	-17184	-8832	11024	-24348	-5472	-11563	-7438	-16424	7556	32767	4821	-4645	2153	-12316	3536	13912	-2949	4966	-6699	-18776	-348	-2268	-715	17762	1368	-17736	552	1804	6179	7335	6212	115	131	1
-32768	18184	-23824	-9411	1400	-11786	-3868	2720	-22240	-1019	6420	-199	-15252	1520	23180	-8847	-7417	2742	-10496	576	16872	-4729	8555	-7519	-20312	-3936	-3204	-2134	18902	41	-19176	2844	252	8724	5740	4528	119	129	1
-32768	5892	-9260	14646	13776	6071	-15992	416	-8540	1724	15409	4522	-11732	-7124	10332	-8303	-3904	1124	-11424	2920	16972	-5976	13320	-9084	-21532	-4620	-3280	-4000	19678	417	-21132	2472	644	9430	2363	1512	115	128	1
-4408	-32768	32767	16531	26457	17864	-32768	-4352	32767	3250	9669	5876	-16120	-8216	-3892	-3763	6138	104	-10732	1732	18588	-8868	18677	-10533	-24748	-3980	-2620	-7110	20093	-226	-23160	3356	3920	6345	-2640	-462	121	129	1
-23844	13080	3124	15185	20908	20970	1848	13652	-14128	26256	7684	-1447	-24584	-6304	9376	4786	-1310	-2190	-11980	6328	20324	-11005	24705	-11763	-25000	-7056	-192	-7441	20870	966	-22528	-1892	10724	3182	-7698	-1638	120	132	1
-8540	596	21364	8042	25117	4959	-25700	14632	5216	8669	15761	9957	-11804	720	8084	22363	3116	1123	-7576	4132	19656	-10667	32767	-16396	-29012	-9948	3276	-2010	22840	2471	-22192	-3068	12612	1742	-9795	-2071	121	132	1
-19812	9976	18336	2803	23823	6045	-18240	14304	-4532	14274	15500	3172	-17944	10240	2672	13210	11891	590	-5368	8804	21844	-14275	32767	-23015	-31068	-19196	13076	6754	25103	3740	-19876	-18592	10288	6867	-10726	-12426	121	130	1
-24560	-7048	13872	818	12958	13830	-20780	7280	-5612	3496	18812	1800	-18600	8040	-1028	8368	11147	2463	-18420	6564	17064	-16704	32767	-25202	-26948	-8568	6964	14290	27607	5377	-19340	-10124	8520	9114	-14463	-14907	124	128	1
-31372	-19552	11640	9275	7293	9830	-20676	-10176	-10992	4958	17036	-2362	-16920	-5480	432	-5274	8435	-1526	-32768	-2036	5612	-7999	32767	-27607	-27448	7136	-12376	11466	31008	5400	-18328	4080	48	32767	-7621	-13627	129	128	1
-14216	-640	14720	6498	-687	8157	-16676	3620	-6100	14766	10295	-504	-14604	-13452	-3624	-6837	9753	-5484	-32768	8484	15644	-9249	32767	-32768	-26704	7436	-7264	-2321	20627	4189	-29684	7528	-11692	32767	-10030	-5277	128	133	1
-12160	-2168	13072	5383	-21	5480	-16188	4024	-5544	7093	11389	446	-16412	-3720	-2672	-2652	8957	-5986	-30024	10440	26384	1419	29947	-25728	-18896	3280	-7396	-10156	15735	2059	-32768	4152	-13728	15800	-20464	5574	124	130	1
-11144	-2848	12632	2687	126	3215	-15828	4084	-5628	5813	11463	830	-16368	-1688	-2732	-4996	9804	-4626	-32768	668	17684	-620	3379	-10305	-13388	-860	-8608	-3437	8763	2133	-26808	2932	-5908	5586	-30926	1319	128	126	1
-10768	-2628	12176	1645	133	1523	-16676	6440	-4184	-5936	11237	428	-15828	-3876	-1604	-6046	12392	-2047	-10664	12860	20080	7497	-24959	6388	-8460	-1104	1356	5714	1524	-538	-23428	2256	-2536	4664	-25805	107	129	128	1
-9972	-3544	11832	883	526	878	-16700	4352	-2532	-7518	10605	-823	-15212	-5556	-796	-1402	13032	-31	3028	14168	13736	6850	-25734	11956	-8092	-476	2864	7472	-7062	197	-22352	2652	-6816	6268	-19814	2105	136	116	1
-9920	-3736	11620	829	702	1018	-16948	1088	-1804	195	7817	-2076	-15464	-3876	-732	3446	13321	-43	-240	8100	10584	6615	-23561	13028	-6192	3092	204	3777	-15555	-880	-16720	2680	-8880	3450	-16741	2164	128	119	1
-10404	-3712	11736	1259	135	908	-17288	664	-2964	11031	3472	-554	-16360	-2620	60	6254	14144	-274	-5516	6248	9472	8307	-27068	14840	-4868	1836	-1988	2270	-22366	-2134	-14688	2880	-8492	-1733	-15649	2256	131	117	1
-10116	-3364	11720	1251	-432	422	-15056	4464	-2260	9279	3692	500	-16532	-580	1760	5427	14585	-2003	-7060	4736	9188	11335	-30331	16442	-7260	344	-2128	3759	-28134	-2980	-12700	3464	-9124	-5926	-15156	2258	128	125	1
-9536	-4160	11540	809	140	428	-15488	4812	-2164	-584	8671	-591	-15668	-56	1944	216	15356	-3673	-10800	4164	9792	13625	-31992	18421	-8480	56	-4000	5576	-32755	-3144	-10216	3720	-8732	-7728	-14093	2197	126	124	1
-10056	-3680	11832	629	779	808	-16236	2276	-2604	-2620	8855	-1177	-15368	-456	280	-6348	17422	-3378	-16572	2936	11192	15915	-32768	22434	-11056	1296	-5880	6739	-32768	-3634	-8828	4704	-8980	-11049	-12024	1972	128	127	1
-10236	-2744	12340	310	958	621	-16768	3448	-2332	-344	7440	-621	-15352	-688	-104	-7995	18309	-1704	-15336	2684	11308	19029	-32768	26040	-14772	-412	-4528	6191	-32768	-4471	-9344	6332	-9520	-18070	-11180	2225	127	127	1
-10544	-3196	12020	-6	1419	277	-16488	3220	-3212	689	6153	-111	-16340	-2076	376	-4866	18147	-1426	-14748	2616	12604	22333	-32768	26486	-18156	-3124	-5972	5408	-32768	-3387	-9248	4872	-10960	-22616	-10543	1715	128	122	1
-10548	-3848	11552	-128	1603	667	-15680	2384	-3424	-1075	6507	-56	-15188	-3548	1164	-2658	18626	-2766	-23696	3416	14512	22409	-27186	24626	-21184	-240	-10424	7321	-32768	-2988	-9300	-532	-10304	-21073	-8577	443	127	120	1
-10460	-3892	11768	-279	1846	1216	-16468	2244	-2596	-2381	7299	-356	-16344	-1968	876	456	17733	-4229	-32768	4224	19360	20581	-28851	24654	-25740	-2932	-13776	7267	-32768	-2787	-9724	-5388	-5984	-15088	-11575	-1607	128	119	1
-10560	-3648	11980	-350	2226	1644	-16328	1472	-1892	-1676	8081	69	-16388	-1516	3116	-1826	15120	-4556	-32768	-4136	17604	19743	-32592	31586	-27140	-4168	-12532	8568	-32768	-2625	-9224	-4560	528	-7988	-8871	369	130	119	1
-10240	-4592	12096	270	3176	2607	-17344	944	-1216	23	8915	661	-18060	-1984	4040	-4760	13388	-4057	-32768	-8084	11428	18731	-31048	32767	-28316	-136	-19324	16235	-32768	-983	-13368	676	7900	7175	-5100	5074	131	127	1
-10800	-3232	12192	567	4090	3180	-16224	1760	-368	-778	11466	1420	-18284	-3140	7404	-5736	10828	-4776	-32768	-14376	956	14116	-29889	32767	-24808	-408	-19824	8011	-32768	423	-18608	-2652	12020	1838	-1265	8351	131	129	1
-9988	-5680	14464	1373	6604	3584	-18336	332	1784	774	13854	2407	-19488	-2844	8100	-6776	7608	-5026	-32768	-19700	-12620	10606	-21058	29544	-17896	1892	-21048	2809	-25357	2399	-16192	-7096	18728	819	-1342	5643	132	112	1
-10988	-4000	14392	1964	9729	5730	-19276	2896	-156	3384	16202	3222	-20232	-2660	7228	-8595	4379	-3537	-32768	-26584	-21364	7303	-7309	19220	-10156	1036	-23788	-1177	-11330	5669	-14488	-9804	27108	-3467	-364	3208	130	117	1
-11204	-4336	14524	2109	10468	5977	-19784	4192	-1656	4769	18460	3414	-19928	-4364	5840	-8130	2422	-2296	-32768	-32428	-19764	4277	4690	13119	-6600	1700	-22428	-7894	4544	4046	-12972	-1352	22244	-3710	-4496	2763	129	119	1
-10588	-4656	16064	3607	19756	9718	-21552	5360	-3120	4768	20108	3595	-20460	-3892	3948	-6901	409	-1048	-24216	-6272	3856	-18575	8481	8636	-15448	188	-4500	-14505	13897	879	-12840	3676	8800	-4745	860	4567	126	122	1
-8152	-2812	17140	3845	24467	12013	-22376	6940	-2040	4073	20860	3326	-21552	-2664	8588	-8027	-5040	922	2508	24216	32767	-13456	19021	-5074	-32768	-18544	32767	-19734	2765	-1045	-16992	-3312	-864	-15254	12176	4404	132	119	1
-7852	-1668	18400	4267	32767	14599	-27700	8416	1436	809	22290	4965	-20536	-2080	17944	-4772	-21002	-1141	-12396	-29388	-324	-20445	19598	-12335	-3972	-16500	-16644	-32768	5037	1647	-23648	-9924	9604	-23107	10828	-2596	128	126	1
-6112	-9856	17840	5531	32767	18985	-28320	12304	10796	-6127	25838	3753	-21872	15624	8164	-12199	-12205	5444	-26320	-6172	25776	-3992	26705	-6120	-26700	-15080	-6500	-16063	14396	1145	-20156	-16744	1732	-25415	10579	-5380	127	132	1
-11556	-3668	18392	5266	32767	17636	-28156	17196	8360	-18335	28958	1372	-23848	17484	8920	-26535	-14429	9534	-25756	9596	13244	1108	18428	-9667	-22272	-2168	-4748	-7326	18267	5905	-13248	-13464	308	-2877	10934	-1911	113	106	1
-32768	2968	7148	-6429	32767	16396	-21524	2680	-16436	-18982	32767	2160	-23148	3144	-9732	-32768	-17529	10948	-15552	6504	7052	-13832	5312	-11360	-21128	15944	-8328	-9421	15414	8969	-19408	19004	-4404	14252	7797	1992	136	124	1
-32768	-12840	13648	-3400	32767	20624	-29624	-1904	-10128	-12003	27367	3710	-27852	-14060	-18176	-32768	-19841	3450	-16036	9284	9400	-8556	1511	-9606	-19740	4596	-6236	-14471	10911	3818	-16352	17640	-9476	-7425	7114	9200	124	133	1
-32768	-11324	21840	-12448	32767	20196	-18568	1340	-8872	-6486	23598	5260	-27252	-20380	-13136	-6538	-23084	-5405	-14080	-812	13532	-7276	-477	-8379	-16044	-3788	-6816	-11644	8833	1771	-18384	680	-6308	-9281	6972	8334	138	126	1
-32768	-5676	17228	-7985	3302	14352	-13004	-1832	-12776	-4000	12621	3815	-26536	-9220	-5020	11453	-24846	-3500	-12048	1824	13452	-4373	-819	-5242	-17560	-5212	-3984	812	10079	2019	-19116	-2388	-3484	-5511	6961	4272	111	137	1
-6576	-12700	20160	-10250	-28983	1274	-7756	-3808	864	-6525	1345	148	-25048	-1728	-3784	10084	-22922	-3428	-12176	2176	12260	-3567	-1043	-4513	-16888	-2652	-3640	7914	9933	3015	-15524	-196	-2536	-2365	9983	4157	120	129	1
3216	-12772	13572	-9348	-31178	-2108	-8480	1676	3720	-5984	-7180	-6139	-20784	-1120	-6100	5332	-19617	-5054	-10768	3084	12596	-3031	208	-2877	-17632	-2752	-2252	6294	8333	2639	-16084	-432	-1476	-3535	9203	1987	127	128	1
2968	-8212	9524	-7439	-30708	-5870	-5252	3072	1916	-3574	-14819	-6399	-17536	148	-5936	5488	-17810	-4511	-11524	1332	12560	-1873	508	-2328	-17000	-2424	-4660	1130	6003	2604	-15968	-2340	-3372	-5603	9587	1702	129	133	1
-1116	-4020	9748	-5198	-29280	-12941	-4976	3508	1200	-3021	-16107	-6625	-14216	1928	-7488	7347	-16318	-3565	-11664	900	13092	-227	1249	-498	-16444	-5128	-2976	-2113	4562	1571	-16236	-5472	-1828	-5170	10114	3235	124	128	1
-3604	-1348	11760	-4539	-31550	-20632	-5108	9832	-1688	-2193	-28873	-7254	-11464	2348	-7140	8762	-15183	-1766	-11532	3268	11764	692	1630	305	-14932	-3800	-144	4018	6261	2575	-14708	-4768	1844	1037	10013	4847	119	128	1
-7796	2700	13904	-6056	-32768	-25838	-7548	9188	-2256	-8601	-32328	-8013	-10624	-304	-6436	7126	-13557	-546	-10512	4692	10980	721	1357	-290	-16272	-812	1928	6980	6861	3276	-15144	-1428	3060	8044	11036	4288	115	135	1
-12520	4748	15300	-9090	-32768	-26814	-8020	8932	-2544	-8933	-32768	-8158	-10436	-3200	-5960	11181	-12469	69	-11172	6508	10632	-546	785	-3653	-16804	2048	128	2881	5536	3469	-15508	4416	616	11568	15655	5268	118	131	1
-15644	3152	16680	-10688	-32768	-23033	-14768	7116	-3792	-4069	-32768	-8646	-10820	-2116	-7104	20846	-11524	212	-11836	1344	11648	-2271	220	-3567	-17056	364	-2968	-1782	4778	2077	-15612	5128	-1140	7234	17221	6767	121	131	1
-20628	-732	17796	-8529	-32768	-20873	-17364	10652	-6776	-57	-32768	-6699	-10680	-132	-8128	21227	-10659	-208	-11832	2736	11768	-2009	-442	-3151	-16536	-1748	-2672	-1099	5395	1593	-17876	1944	-2124	2219	14921	6568	121	132	1
-22152	-2856	17812	-4863	-32768	-23263	-19632	12548	-8140	-3638	-32768	-4776	-10256	-1160	-5424	16782	-7825	403	-11548	3528	11396	-2882	-1522	-2530	-15840	-588	-1628	102	6525	2084	-15892	2628	1112	-826	12870	4662	119	129	1
-24928	-2464	18396	-4241	-32768	-26606	-22568	12988	-9688	-8846	-32768	-4090	-10876	1756	-1260	13286	-5537	1446	-10676	3560	12628	-2485	-1198	-2989	-17704	-708	140	-443	7472	1827	-16660	-736	4020	-2579	12437	4856	122	127	1
-31996	-6284	19388	-4482	-32768	-24153	-28876	9284	-14632	-10936	-32768	-6366	-11332	5880	3348	12547	-4730	3100	-11460	2260	12612	-2847	-375	-3557	-17432	-2080	-740	-2038	8260	1378	-17468	-1084	2576	-4965	12197	4502	124	131	1
-32768	-4492	11560	-4915	-32768	-25065	-26012	6440	-17472	-6824	-32768	-5378	-13228	1548	3608	3369	-1990	1797	-11692	2616	12480	-2271	565	-3513	-16804	-1668	-220	-258	10397	1357	-17148	-2252	3844	-1695	11045	5838	114	138	1
-32768	-9744	-1736	517	-32186	-25362	-21072	2472	-18384	523	-32768	-5728	-16528	-2560	8192	4409	-1368	-905	-11972	3684	12952	-2212	1539	-4386	-17412	576	436	488	12466	1166	-17736	164	4600	1770	9162	5704	118	136	1
-32768	2496	-10180	2609	-24361	-27159	-21036	8376	-23408	6172	-29822	-4772	-12824	3712	14252	17614	-2186	-549	-12240	2920	13884	-3577	3358	-6770	-19588	-1540	-1864	-946	13290	459	-18580	-88	2420	5218	8588	5404	120	137	1
-32768	7740	-20584	-251	-11114	-28476	-11236	4168	-24048	7518	-17951	-3228	-14268	6376	22636	15136	-665	-3291	-12408	1224	15004	-4356	7128	-7542	-20296	-4636	-2784	-811	14885	-229	-20928	-1412	1748	8517	8961	5152	124	136	1
-32768	11412	-24512	-393	1709	-21600	-5976	1188	-24884	8836	-3881	-1831	-15096	8968	22456	-115	-2943	188	-12016	2196	15544	-5575	10564	-8865	-19524	-2916	-1116	-3913	16028	-289	-19712	-1724	3964	7165	5798	2876	141	133	1
-32768	12280	-19752	2094	7595	-11409	-8448	316	-23560	7653	11262	306	-12616	-48	15776	-8579	-1919	2091	-11036	1588	15528	-7835	13956	-10497	-19812	-2888	-1316	-6244	17700	-691	-19588	-36	5216	5949	2289	752	109	131	1
1796	-17264	13520	2584	6190	5022	-24984	6080	7288	-1421	17118	3513	-6452	2028	10484	2335	6832	2420	-10820	2388	16484	-9365	17691	-12541	-22292	-3112	-764	-5474	19523	-412	-19892	560	7560	4678	-881	-558	123	130	1
8724	2396	19284	-3428	23140	5621	-21016	11116	15088	13633	5925	-713	-18124	-1220	-3908	-13001	20983	1386	-9348	1440	15964	-10763	23090	-18449	-24988	-4696	-188	-4498	20753	435	-22224	-3756	10784	3648	-6609	-1283	129	128	1
-21668	372	11588	-3046	26715	1281	-8236	15324	-5884	7327	12770	3980	-22412	6236	4280	1144	1521	1857	-7676	6008	17812	-11885	32514	-24135	-25904	-8632	4972	2635	23015	2114	-17648	-12044	9264	3449	-11225	-6756	126	130	1
-16992	-1456	16076	-5255	25505	6825	-24652	12640	-1796	1973	15714	-1013	-18224	7284	9316	9261	8074	-1792	-10596	9436	17572	-16005	32767	-29148	-28416	-10456	11868	9992	24693	4688	-21340	-14624	7964	11244	-12894	-10787	118	133	1
-22868	-8328	13124	-5953	15137	9432	-19360	7452	-4136	5650	15900	-1370	-18644	3652	6104	2357	8589	257	-24084	5016	13616	-17898	32767	-32586	-25692	-3636	236	13078	26044	6388	-17428	-8716	3072	18249	-13207	-11687	119	130	1
-11344	-10416	9740	-2762	14579	7215	-18028	996	-2624	6831	15103	-1475	-15688	-7864	-3360	-2931	12422	-527	-32768	-2764	6448	-3724	32767	-31194	-26088	4980	-10492	12380	29485	6950	-19816	-1184	-5624	32767	-9618	-10367	125	128	1
-15920	-17184	6740	9935	5580	9335	-21576	-6088	-7744	13427	10727	-2551	-16416	-15140	-6704	-1039	8459	-3693	-32768	11180	16928	707	32767	-30962	-24192	5480	-7772	7066	21455	9437	-29392	-1072	-12108	32767	-14563	-2866	135	130	1
-15856	-9100	10136	9293	1339	8957	-17356	3260	-6296	14562	7964	127	-15392	-12804	-4956	8944	9319	-5388	-20120	12692	21160	8532	20293	-22722	-17948	204	-8424	3780	15453	8834	-32768	-3368	-13640	21881	-18605	5129	136	130	1
-11772	-3696	12692	10419	-863	9989	-15308	4572	-6488	10587	6284	940	-17224	-4380	-3696	14597	12197	-5990	-31440	10480	17632	8359	2292	-1349	-10152	-5688	-8584	9504	9259	9497	-26128	-3320	-9008	15642	-24976	3022	131	127	1
-10932	-1856	13292	6469	-1114	6284	-15056	11076	-4192	5871	5127	440	-16072	1840	-1884	13397	13122	-4383	-6684	17128	15244	13925	-11180	17643	-9372	-2604	896	16155	1856	7993	-20912	-4296	-7848	12594	-22336	3629	132	120	1
-10104	-1472	11848	4484	-1154	4331	-16064	9984	-1712	67	6534	-1044	-16964	4184	124	8202	12424	-2670	1772	12000	12240	7642	-12967	21295	-5916	228	1172	8870	-8996	10708	-16816	-3048	-7800	14018	-18666	3556	130	126	1
-9776	-2492	12912	2344	-17	2313	-15768	6196	-1388	2828	5805	-1660	-16404	3768	452	5620	11863	-2035	-964	1536	12812	9968	-12005	23411	-5056	-384	-932	-138	-17904	10367	-13728	-424	-8628	11892	-14339	4015	128	120	1
-9384	-3776	12432	1239	-162	1838	-15096	5272	-768	6072	4797	-1019	-15780	2184	2004	4269	11396	-404	-5236	-2008	15004	15995	-16279	22097	-7028	-3628	-3036	-489	-25045	9686	-14220	2868	-8116	6557	-13554	3888	132	126	1
-9864	-4204	11840	934	-64	1584	-15072	4868	-1424	2694	6960	-623	-15640	36	2448	3725	11254	-1257	-8740	-4216	15904	20684	-22297	20768	-8772	-6088	-3940	4048	-28362	8937	-11584	2992	-6908	1919	-13619	3976	126	129	1
-10072	-4312	11912	1012	67	2139	-16016	4380	-1980	-242	7444	-401	-15968	-480	684	1263	12605	-2749	-8552	-5028	16432	23393	-25985	19737	-10696	-8072	-5224	5451	-32654	7674	-11288	3924	-6660	-4475	-12705	2587	127	127	1
-10528	-2968	12128	1199	365	2373	-15088	6612	-2284	187	7435	-844	-16136	1584	-512	-1878	14724	-3337	-9348	-7052	17932	25790	-27048	20442	-11680	-9136	-5340	5801	-32768	5328	-10988	2748	-7844	-12891	-12035	1339	129	126	1
-10320	-2596	12360	815	934	1392	-16288	5336	-3276	1317	6606	-350	-15316	1824	-960	-6435	16662	-1748	-13064	-5732	19968	26505	-28357	20085	-13528	-9596	-6144	7445	-32768	3180	-10824	2912	-7576	-16610	-12017	462	132	124	1
-10312	-4040	11716	692	1055	1536	-16296	4220	-3148	906	6168	233	-15392	-1588	-748	-8180	18390	-185	-15644	-5316	20960	25718	-30015	20183	-17704	-10144	-6900	10750	-32768	1851	-9968	3348	-7244	-17229	-11744	-904	134	125	1
-10120	-3920	11836	699	872	2292	-15588	3412	-2596	518	6035	6	-15956	-4452	-1272	-2029	18859	-1239	-17456	-5708	21708	24088	-27554	19445	-21652	-7944	-8056	13174	-32768	228	-10112	1044	-4668	-14041	-11788	-1895	132	123	1
-10424	-3948	12204	1078	1335	2977	-16804	3676	-2996	1087	5503	834	-15284	-3728	1344	4711	19120	-3006	-24544	-6736	23172	24797	-23717	17858	-24352	-8428	-10204	11867	-32768	-951	-9748	-4432	-1604	-8519	-9184	-1352	130	125	1
-10440	-1884	12016	1014	1956	2959	-14372	5528	-2180	374	6246	1199	-16316	-860	1996	4827	19975	-3175	-31732	-5416	22096	22983	-24999	17780	-26360	-8452	-12744	14433	-32768	-596	-10548	-8164	724	-1499	-4720	-362	132	124	1
-10168	-3804	12356	1287	2392	3216	-15992	2640	-872	2932	7056	1691	-18952	-928	164	3814	15006	-1925	-32768	-11908	18736	20765	-25431	21537	-25784	-5360	-14036	17343	-32768	-642	-11752	-5668	11536	14861	-3483	333	128	125	1
-10144	-3384	13564	1823	4247	4493	-17932	4752	-800	4915	7857	2793	-21220	-812	2820	5342	11372	-2295	-32768	-16212	8520	16605	-27236	20897	-23712	-1572	-14576	10456	-32768	-922	-17160	-3504	13124	10767	-1992	2612	124	126	1
-10448	-3068	14064	1966	7192	5112	-18552	5584	-784	3912	9847	3742	-20600	964	5356	2834	10192	-2802	-31396	-23824	-5220	12956	-23834	18512	-16328	-2976	-18008	5415	-24367	108	-14248	-8228	15320	-1102	235	6409	127	121	1
-10864	-3784	13804	2499	10251	6236	-17796	4656	984	5446	11983	4529	-20156	984	7280	-507	7796	-2215	-29556	-30100	-15220	9863	-14014	12801	-10832	-1004	-19036	5951	-10446	2624	-12352	-11908	26292	4508	-2511	3685	127	123	1
-11112	-3464	14556	4057	13608	7696	-17768	4872	-40	8409	14042	5436	-20192	-100	6040	-1208	3319	-695	-24572	-32768	-16844	5656	-3428	-712	-6812	1172	-19320	174	2805	2138	-14488	-8420	22600	6903	-3773	3172	128	127	1
-11008	-3512	14764	4442	14130	7935	-20304	5116	-1380	9831	15757	6600	-20264	-772	5736	-1286	2869	-434	-27044	-27900	-9564	-4021	3539	-9619	-7796	-1500	-20340	-5427	14509	169	-15704	-456	12980	6798	-1966	1594	125	120	1
-9996	-4124	15152	6248	18187	9621	-21368	7368	-2052	7616	17040	6928	-20804	-3252	4208	-3797	-142	2066	-26328	236	32767	-716	-2904	-15112	-24328	-10948	11780	-5265	19273	-3952	-6652	-3800	3768	-12490	7298	-1404	139	128	1
-8776	-668	16648	6985	28004	18076	-22352	9996	-120	2936	18739	7226	-22968	-2872	14556	-325	-11757	4005	8968	32767	29948	-849	-1556	-24188	-17660	-11060	9284	-9409	2274	8079	-15376	-6060	-9352	4244	27365	-2794	114	123	1
-6676	-5700	18016	10819	32767	20631	-28324	8296	8652	-263	20227	9571	-17420	5344	16252	5484	-17575	-801	-8344	-22776	-92	-1492	22068	4380	-17600	-10952	-4356	-173	12928	-2771	-21660	-5664	3032	-1776	-1272	-7898	124	118	1
-9728	-6804	15844	14692	32767	22442	-24568	8772	14180	-3557	23401	9919	-18308	10096	9868	-6954	-9223	5162	-23484	-8948	18536	-6954	16109	-20668	-26540	2844	-7056	-11718	11147	4337	-27212	-6344	9132	-10688	5429	-2025	125	128	1
-32720	-9396	11640	15206	32767	25803	-26028	1732	-1608	-6850	26343	8174	-19352	3308	9020	-19441	-11294	7851	-32768	32767	15028	-9562	6472	-5979	-24556	9536	-3812	-5597	13874	4104	-19120	508	856	7026	13558	3910	126	145	1
-32768	-2044	7968	17542	32767	32767	-29560	-2064	-8512	149	27431	10611	-24084	-9808	-12652	-32768	-14937	8171	-12864	-2676	15364	-6562	6024	-7171	-15756	-584	-4808	-7712	11195	3293	-14012	18452	-10112	6396	14273	7247	115	125	1
-32768	-18680	17352	19038	32767	30634	-27748	1308	-14180	8559	22061	10877	-27752	-16856	-15096	-17569	-19342	-2913	-14640	1604	12456	-5638	3739	-5726	-17952	1280	-6308	-5186	8737	2560	-16840	2196	-7756	-1625	7819	6348	125	132	1
-14892	-15168	21656	16049	17956	20994	-17328	1392	-13540	13477	15796	10871	-24040	-14544	-12416	9720	-21764	-6453	-14008	1372	12656	-2814	1847	-3707	-18152	-4036	-5076	2198	8448	2395	-16368	24	-3764	2265	7645	5205	145	126	1
-30136	-16364	24188	14041	-13054	-2280	-12180	-3940	-11680	12493	4174	8519	-26056	-8460	-6004	17603	-23314	-6544	-12312	3140	12204	-984	1110	-2190	-17892	-652	-2264	7214	8483	3064	-17416	2852	-2028	5496	9333	4018	126	135	1
-2096	-12112	16496	5061	-29447	-13365	-12300	-780	2204	7048	-3332	8908	-25156	-5464	-5164	11485	-20843	-7969	-11464	4612	11724	-1167	823	-1607	-17376	1980	-1004	3418	6528	2103	-15836	4628	-940	4151	10230	3186	119	129	1
4524	-11072	9372	4245	-27460	-13107	-9784	-164	1292	4928	-11837	4122	-20672	-5800	-6848	10179	-18534	-9366	-11796	3288	11888	-778	567	-1093	-17360	-172	-1068	415	5176	1301	-16388	3824	-216	-1363	9977	1900	116	132	1
-56	-10468	7252	5531	-23497	-11321	-7556	-2740	-1456	5538	-19084	2562	-17800	-5272	-7860	14173	-16827	-8505	-11176	3628	11728	-504	628	-797	-16636	-868	-540	1232	4878	1164	-16180	876	12	-3904	9798	2495	126	131	1
-6476	-8944	7468	4225	-25554	-13377	-6188	-2244	-5248	7392	-25821	2044	-15216	-3284	-8684	17811	-15044	-8321	-10692	4056	11480	-54	755	-1091	-16152	-2036	288	4828	5431	1553	-15692	-2264	560	671	9995	3987	115	133	1
-10032	-8564	8224	1921	-31485	-18150	-7436	312	-6956	3349	-31159	1161	-13816	-2648	-8464	19108	-13409	-6885	-11440	3672	11456	147	685	-1618	-16040	-1076	240	7837	6257	2020	-14384	-3264	2392	8595	9706	4662	125	133	1
-12632	-8660	9028	-983	-32768	-21422	-10648	404	-6712	-1725	-32768	-552	-13584	-3032	-8596	20810	-12627	-5481	-11412	4060	11244	43	544	-1710	-16624	772	692	7096	6546	1740	-15216	228	2740	14467	10205	4793	132	129	1
-16344	-8420	8816	-4265	-32768	-23194	-11980	188	-6316	-4154	-32768	-2535	-13100	-2672	-8920	23818	-11874	-5064	-10960	4576	11072	-514	760	-2228	-16800	-212	1196	4241	6422	1450	-15768	1996	1392	15225	12265	5754	124	132	1
-18064	-7600	9224	-8455	-32768	-22149	-14344	1296	-6312	-7707	-32768	-5853	-11732	-340	-9148	28839	-11781	-4470	-11292	4600	11436	-1343	1181	-3042	-16972	-256	492	3505	6693	1409	-15912	16	2512	11927	12871	6590	120	138	1
-20272	-9468	9280	-11108	-32768	-19921	-17144	2304	-7024	-11122	-32768	-9401	-10020	3152	-9284	27584	-10782	-3588	-12004	4324	11276	-1706	978	-3104	-17212	168	-504	4948	8088	1668	-15280	1176	4376	3356	15173	7772	119	134	1
-22024	-11460	11216	-11708	-32768	-20557	-17296	2192	-7136	-11197	-32768	-10107	-8916	4152	-7004	19571	-7341	-2840	-12352	3936	11400	-2512	559	-2895	-16744	36	-1256	5769	9195	1907	-16788	2536	276	3116	18327	7692	119	135	1
-27192	-9804	15048	-13935	-31557	-26121	-24388	8080	-8404	-7370	-32768	-14801	-9068	6528	-4212	9185	-3833	-2703	-12224	2640	11680	-2414	-78	-2540	-15960	-704	-1352	5116	10094	2232	-18232	3180	-2380	5111	14052	4900	127	137	1
-32768	-11304	18900	-15875	-27976	-31911	-30352	7388	-12868	-7264	-32768	-17881	-9332	10876	1040	3562	-2516	-926	-12248	3072	11748	-2344	-78	-2166	-16716	-8	-860	2726	10013	2243	-17216	2304	-16	2718	11072	3768	122	133	1
-32768	-6500	16716	-12339	-29382	-32768	-29536	8676	-14488	-612	-32768	-18189	-12896	5200	6632	1565	-4241	-236	-12216	3904	11796	-2073	634	-2473	-17204	920	-1028	2217	10933	1814	-16768	3400	1544	69	9038	3596	117	131	1
-32768	2388	10380	-10059	-28328	-32768	-25004	6840	-16700	-1064	-32768	-13248	-15804	-6352	7264	-7449	-2205	-5173	-12192	3904	11832	-1494	1529	-3343	-17092	172	-1232	2484	12162	1435	-16812	2504	2364	724	9281	4944	121	131	1
-32768	5412	-1008	-984	-28004	-30491	-21760	8836	-19732	1046	-32768	-10580	-18620	-4372	15292	5516	-8318	-10249	-12332	3404	12672	-1560	3485	-3482	-18564	224	-1172	2252	13537	1059	-17692	20	2388	4061	9042	5245	122	130	1
-32768	17488	-15208	-1108	-22474	-23939	-12796	8656	-23612	-2234	-20888	-9816	-15816	244	25916	6910	-2128	-11225	-12080	1436	13912	-2922	7097	-5132	-19292	-3136	-1700	-504	14638	387	-20052	-2580	2312	7041	7222	4774	122	130	1
-32768	32767	-25356	-16771	-9062	-14018	-5424	7604	-23104	-4965	-1977	-7127	-13528	4716	27460	-3913	-3575	-308	-11996	2140	14776	-3347	10785	-5376	-19148	-1876	-2280	-3580	16189	339	-19056	-284	2428	8182	4224	1977	119	128	1
-32768	15496	-20064	-10965	8082	-6039	-8356	5192	-20896	1379	12296	-94	-13544	-4072	18088	-5225	-7884	2227	-12156	3412	15180	-4461	14805	-6804	-21096	-2132	-2660	-6104	17082	165	-19936	2980	2184	8424	3769	1179	126	128	1
-12800	-12752	14092	15751	11510	4783	-19672	3900	-1308	-3933	19372	4073	-12336	-8268	5352	-4904	-257	-318	-11452	5276	15864	-6203	19115	-8131	-22956	-2568	-3160	-5617	17525	977	-20612	3092	1688	8209	3378	577	119	129	1
12188	-21372	32767	11716	19941	4631	-32768	-3680	32767	3650	9628	2862	-18576	-2996	1288	1185	5237	-705	-9960	4216	16244	-6606	24406	-9430	-24912	-5540	-780	-3133	18839	1415	-23960	696	3828	8642	-882	-560	121	127	1
-22900	6632	6340	13238	21733	9527	-1740	13248	-12492	32767	5383	846	-20148	-548	3284	9102	11475	1841	-7468	4284	16768	-8122	32528	-12562	-23884	-9108	2476	-1180	20432	2572	-23076	-4864	14780	5410	-12258	-2887	127	130	1
-7700	176	17200	2086	26898	-7956	-21776	17668	112	15799	11853	8747	-13308	1072	2500	27906	7854	-376	-6872	3252	19012	-8345	32767	-11974	-30168	-17236	9776	8245	23334	3153	-18488	-22932	12924	-1448	-16607	-12560	121	131	1
-18696	14288	21652	721	20630	9095	-17136	15216	-3632	12851	12146	-1149	-17732	11288	2880	18669	13059	-337	-17656	9260	16860	-7772	32767	-19375	-27024	-9568	12556	19082	27950	7042	-20604	-20252	11480	15507	-14181	-17135	125	125	1
-19932	-13568	11580	-2969	13164	8945	-19896	5612	-4896	2035	15711	-33	-20440	7908	-1132	4149	12360	2789	-32768	536	3692	-806	32767	-25083	-27376	7152	-11576	11545	30427	7858	-17288	-988	5036	26296	-13059	-14516	133	125	1
-14512	-7068	12160	2284	11694	6100	-19716	-1212	-4824	6085	12912	-1535	-17812	-7432	-3624	-9393	11910	-2969	-32768	5608	9200	-3543	32767	-32111	-29124	3516	-10408	-1679	25826	5331	-26632	7280	-11756	32767	-5991	-9774	127	127	1
-13332	-6764	13152	7506	4743	5593	-17692	2244	-4048	11353	8469	-269	-15224	-10308	-6460	-7587	11200	-6579	-32740	7468	20380	7895	32767	-27266	-22304	-700	-3872	-4481	17866	5151	-32768	3832	-15916	27141	-16261	2850	128	133	1
-13500	-6104	12176	5516	569	4902	-15420	4948	-4588	4424	8480	-408	-16036	-4736	-3516	-1834	10158	-5246	-7080	15888	21868	17988	26919	-19131	-21420	-76	-4792	-5174	17548	4590	-32768	3980	-15860	22038	-20105	4321	129	131	1
-11072	-4380	12172	3971	376	4010	-17020	4860	-2972	334	7774	-464	-16660	-4076	-2196	179	11754	-3454	-28892	17588	18264	15620	-13537	-3656	-11548	388	-5796	9893	6828	3564	-26488	-1320	-2500	5088	-32607	-1649	130	131	1
-10832	-4504	11976	3053	547	3057	-17180	3948	-1724	1790	6272	-914	-16172	-4404	-536	3683	13139	-1317	-4664	13984	15928	9934	-31287	2904	-8776	-796	1152	12860	-2435	4564	-25324	-288	-5820	9144	-24040	51	125	117	1
-10132	-4556	11892	2349	263	2571	-16768	3736	-1476	2086	6113	-923	-16040	-2816	1840	6814	12737	-905	4832	9532	9884	8295	-29924	6153	-5968	-1696	1032	11130	-10454	3043	-19652	1940	-9408	9989	-18933	1560	123	116	1
-11032	-3060	12340	1442	684	882	-16096	4968	-1320	4308	4486	-964	-15656	396	2556	7295	12050	-829	-296	5036	8440	9645	-24780	8354	-4888	1748	-1336	6852	-18563	1310	-17168	5348	-9264	4594	-17112	1500	127	115	1
-9680	-4448	11744	-353	833	-394	-15964	4960	-908	1228	5368	-541	-16208	1096	2144	4827	12007	-1772	-5080	4404	8788	12324	-25828	12109	-5440	1552	-3228	3751	-25305	109	-12772	4424	-9748	-733	-16846	1972	127	118	1
-9680	-4868	11528	-707	738	-190	-15320	3456	-548	-2683	6506	-685	-15772	528	2896	-385	13268	-2862	-11188	4780	10068	12937	-29563	15267	-7240	296	-4440	4175	-31431	-463	-12948	4816	-9596	-1705	-16226	1727	128	123	1
-8856	-5312	11248	-397	780	198	-15744	2092	376	-5684	7767	-341	-14676	-888	3684	-4740	14015	-3331	-14644	1368	10640	15577	-32768	20123	-8652	-824	-5324	7132	-32768	-886	-9132	3804	-9056	-6779	-14008	1310	124	127	1
-8936	-5492	11064	564	785	1128	-15940	1440	976	-5139	8379	-181	-14960	-1156	3444	-6448	14665	-3608	-12744	340	11236	19824	-32768	24479	-10720	-2036	-3884	8544	-32768	-1771	-8132	4740	-9660	-12179	-11234	884	128	128	1
-8976	-4512	11332	1426	669	1772	-15740	2552	644	-355	7710	-27	-14664	-128	3012	-6293	16422	-4025	-15096	68	12416	24249	-32768	26020	-13980	-1312	-4412	7501	-32768	-1173	-6820	6396	-10844	-19470	-9863	491	128	127	1
-9708	-4824	11552	1616	937	1731	-15644	2760	432	215	7593	106	-14604	388	4188	-4064	17710	-3742	-14388	-1500	14056	28022	-32768	26255	-19576	-4484	-7624	4567	-32768	-1090	-7132	5716	-10720	-23445	-9784	240	131	119	1
-10720	-3816	11840	1755	817	1692	-15948	3456	-3036	313	9872	391	-15220	-1312	484	-1897	19039	-4634	-25700	-1000	15812	28236	-25771	25235	-20368	-3040	-9452	8844	-32768	-3909	-8680	844	-7668	-20312	-10610	-890	131	116	1
-9832	-4536	11800	1207	1123	1166	-16144	4092	-2280	-1584	10928	681	-16760	-3268	-3720	-558	18047	-4658	-32768	1920	21648	22233	-28039	22639	-29908	-5292	-13576	10156	-32768	-2432	-10536	-6100	832	-14732	-14502	-2449	129	117	1
-10444	-4260	11932	797	1115	1110	-16148	3024	-2024	-1085	11050	704	-16492	-4012	-2184	-1525	14202	-2906	-32768	-7896	19048	20834	-31745	28359	-28848	-5792	-14304	17044	-32768	-2918	-10028	-7140	9104	-2115	-12048	-1690	128	123	1
-10380	-4316	11764	490	1414	934	-15768	2060	-1004	491	10839	1627	-16440	-3104	1712	-3263	11657	-2028	-32768	-7184	12204	18248	-31743	31207	-24140	1796	-15224	20114	-32768	-1845	-11972	-2792	10560	13940	-2155	3988	131	126	1
-10324	-5260	11772	287	1826	1592	-16332	740	-28	2157	11518	2043	-17608	-2184	3548	-2078	10356	-3005	-32768	-11484	1692	10404	-32768	25325	-24488	-1044	-14280	6849	-32768	-1001	-15676	-2920	13140	10079	905	6942	128	121	1
-10548	-5076	12424	265	2691	2776	-17184	1212	-1108	3957	12999	3010	-18412	-2976	4284	-2663	8594	-3842	-32716	-19456	-11688	9417	-21930	21984	-16572	-1600	-17676	5766	-22072	2863	-16916	-5136	18192	-3320	768	5366	127	125	1
-10304	-5468	13340	-2	4794	3741	-18376	2472	-1140	4193	15036	3740	-18592	-2580	4320	-6153	6918	-3612	-30452	-26844	-19092	8480	-7581	15390	-10304	396	-19988	2449	-8682	5358	-14344	-8984	25256	-6028	-752	2408	132	116	1
-9664	-4144	16580	876	10386	5397	-21144	5876	-1664	5449	15993	4397	-21144	-2324	2980	-7196	4914	-2504	-31168	-28280	-16104	2034	4426	10307	-8428	2220	-20068	-7489	4219	2526	-14604	-5284	22600	-2965	-6054	1811	129	118	1
-10976	-4636	16320	761	15051	6507	-21268	7116	-2476	5980	18042	5449	-21036	-3696	1960	-8165	2394	-772	-29796	-19844	-9464	-13210	10866	2893	-11888	676	-19516	-15322	14857	728	-15920	712	13492	-3455	-3374	3441	126	119	1
-10020	-5372	16488	1379	22719	8186	-22468	7216	-3500	6235	18892	5509	-21780	-2324	2384	-9031	428	952	-15312	29072	32767	-16774	8918	-6704	-31112	-18008	27840	-14427	12992	-3018	-14484	-668	2384	-17767	5463	2325	123	123	1
-7240	-4180	17288	1421	29802	11025	-23840	7712	-2020	4165	19814	5741	-23392	-1440	6476	-8906	-5104	2024	1056	15508	19760	-19142	19008	-24583	-14236	-1788	-2384	-27799	-1066	9392	-18136	-3452	-5452	-7757	23500	3704	116	116	1
-5924	-6544	16840	2075	32767	14536	-28096	10232	2556	1147	20153	6227	-24352	-64	23904	-1202	-20548	2405	-9916	-20864	15192	-6656	25851	5480	-17004	-26436	-4652	-18736	11041	-5615	-18468	-5996	3488	-18893	4561	-3350	124	128	1
-6628	-9740	16024	4189	32767	17938	-29424	9396	11896	-6924	23644	7063	-19804	10356	21612	-4128	-13219	4427	-28932	-15292	21536	-6416	18565	-14212	-25132	-4172	-7404	-7767	14436	5130	-22232	-21376	4084	-18036	7995	-3813	129	122	1
-18368	-12104	14676	5348	32767	23683	-27960	4604	9348	-13479	27322	4615	-21660	9768	12796	-12835	-15745	8992	-22028	23372	10712	1059	12637	-4398	-21696	-444	668	-1266	15994	5853	-16312	-2148	-2804	8854	14828	628	118	117	1
-32768	-5892	7968	1895	32767	30060	-26408	-1596	-15156	-5836	30744	6197	-21592	-796	-5732	-32768	-16026	8658	-9352	-5756	15536	-8734	5925	-8428	-17432	8620	-4484	-11218	12511	6318	-16780	22908	-6268	10987	13980	6674	123	129	1
-32768	-12444	14736	-1068	32767	26858	-24612	3568	-8588	3189	25164	8584	-27716	-9220	-15908	-32768	-16208	2343	-14636	9808	10156	-6881	3424	-5778	-17180	1296	-3644	-9724	10213	2901	-15972	6208	-5560	-6171	9365	8208	124	137	1
-32768	-15032	18240	-2008	32767	26452	-19172	2588	-5388	-1441	20447	6643	-25936	-11764	-14776	-5461	-21130	-5041	-13872	2228	12860	-6130	2031	-6247	-16732	-2488	-3572	-3963	9779	2251	-16232	700	-2408	-2088	7857	6427	134	143	1
-32768	-9076	21996	-4403	2687	14728	-11320	2920	-4188	-1729	10645	5849	-25436	-8368	-7068	9717	-23643	-3794	-12244	2268	13020	-3278	728	-4448	-18152	-2720	-3812	4492	10808	2511	-17164	3128	-3564	3616	10133	5274	126	128	1
-7572	-12928	22176	-3756	-27769	-1597	-5552	-4080	-844	-6530	2103	2494	-22928	-2464	-3516	9685	-22649	-4338	-11944	2796	12428	-1816	305	-3103	-17220	-1632	-3428	7428	10215	2131	-16152	800	-2356	4148	10717	4794	114	129	1
5640	-12676	14432	-5902	-32053	-5422	-5692	-3676	828	-8222	1106	2138	-19624	-3508	-6068	5366	-19266	-6112	-11492	3040	12572	-1244	117	-2128	-17516	-1312	-2508	4452	8370	1486	-15224	560	-992	3040	10665	2420	120	125	1
1664	-9908	10404	-5801	-31114	-5597	-7512	-1992	924	-4706	-14733	-4513	-17104	-4148	-6592	7403	-17275	-6237	-11288	3316	12248	-621	124	-1538	-17032	-1256	-1636	270	6647	1282	-15644	1464	-364	-1528	10964	1743	121	128	1
-5992	-10228	9324	-4157	-32768	-7772	-6948	-1772	-2412	636	-23538	-6155	-14344	-2684	-6980	10976	-16327	-5625	-10672	4320	11800	-529	282	-1559	-16108	-2020	40	-2274	5486	1196	-15680	548	-632	-4409	11347	3036	128	131	1
-10200	-9268	10128	-3617	-32768	-13465	-9304	2692	-5068	-759	-29606	-6424	-13912	-3052	-6220	14978	-15352	-5221	-10832	4276	11476	-505	431	-2340	-15636	-2200	-148	-461	5516	1551	-15408	-1160	188	-2087	11845	4461	123	128	1
-11644	-6732	10280	-5411	-32768	-19624	-12800	4568	-4152	-4914	-32768	-7577	-13520	-4240	-6064	18191	-14456	-4182	-10696	4532	11456	-818	480	-3233	-16564	-1808	-96	3569	6346	2140	-14520	-1572	1460	2885	12548	5602	120	131	1
-11684	-5976	9928	-5903	-32768	-20450	-12464	4116	-3404	-5795	-32768	-9428	-13128	-1296	-8040	22974	-13448	-3842	-11328	4040	11940	-1563	443	-3258	-16796	-488	-1184	2885	6257	2213	-15588	660	900	7186	14106	5931	119	131	1
-14928	-6120	10860	-10354	-32768	-22597	-13312	4760	-4236	-8330	-32768	-12208	-12564	-480	-7968	23712	-13573	-3906	-11072	3024	11900	-949	431	-3252	-16404	-1908	-672	-205	6278	1400	-16748	704	1388	5425	14487	6243	124	132	1
-17736	-7472	12712	-9807	-32768	-21901	-16632	4576	-5652	-7138	-32768	-14662	-7944	3836	-8792	16108	-12098	-1272	-10456	4156	12192	-1496	1043	-3556	-16596	-2452	972	582	7085	1795	-16180	-176	2048	4069	14408	5358	117	128	1
-19148	-7500	15068	-9101	-32768	-23758	-20668	6188	-6300	-4199	-32768	-15664	-6800	2420	-6980	7514	-9008	-1175	-11728	3608	11856	-2402	994	-3766	-16636	-224	-1124	857	7988	2043	-15600	-472	2356	3833	16261	5873	116	131	1
-25292	-4584	21320	-12618	-29874	-26531	-25324	10528	-9244	-4901	-32768	-15519	-8204	3124	-3492	1775	-6068	-1056	-12044	1232	11904	-2606	593	-3693	-17060	-1180	-1808	1870	9405	2125	-15408	-528	3932	-3678	19625	8482	121	128	1
-32768	-4112	24404	-17483	-31801	-28424	-29948	11200	-14104	-8726	-32768	-15881	-8736	3576	-2572	1109	-5842	-977	-12536	2220	12220	-3093	343	-3088	-16196	-1832	-1096	3130	11741	2493	-18408	316	1348	-2550	18952	9582	122	131	1
-32768	3408	18912	-17430	-32768	-25521	-26628	10520	-16640	-13928	-32768	-14451	-12968	356	4232	-814	-5036	-3171	-11888	1924	12776	-2879	1175	-2729	-16768	-432	176	2146	13775	1926	-19052	2764	1476	1580	11607	4659	122	128	1
-32768	4368	8128	-13855	-32768	-21080	-23452	8900	-19444	-13737	-32768	-11852	-14824	-7056	8828	-8035	-3850	-7995	-11716	3400	12876	-2926	2717	-3369	-17788	12	-928	-24	15100	1499	-18464	1532	2828	1869	8360	4191	122	129	1
-32768	7508	-6000	-7974	-29709	-16684	-18548	9588	-22844	-11281	-26802	-12301	-16916	268	17488	486	-3313	-8630	-11648	2472	14744	-4465	5092	-4726	-19264	-2308	-1652	-1763	16731	387	-17872	-960	3884	2604	8620	4487	128	128	1
-32768	21936	-18216	-11416	-18736	-13028	-10868	8252	-24904	-6757	-14431	-10933	-13820	820	27836	-1472	-827	-4116	-12084	2360	14860	-4783	9619	-5752	-19372	-3756	-2012	-3859	18156	-14	-19448	-2292	2216	4655	6999	3588	119	129	1
-32768	27680	-25128	-12820	-2677	-10415	-4880	7352	-23416	1478	2425	-3372	-15596	-520	24788	-4762	-5917	1172	-12252	1592	15888	-6165	14191	-8061	-21220	-3016	-3344	-7185	18568	-285	-19700	368	1800	5176	5047	1172	128	128	1
-32768	12716	-17488	8043	12518	-2642	-8560	6256	-22572	10104	14578	2623	-14332	-6404	15528	-1009	-3809	-508	-10976	3492	16740	-8463	19377	-9574	-22372	-4184	-3452	-7892	19105	-276	-21096	1688	2052	4808	3751	344	120	129	1
32767	-12708	32767	22493	14700	8379	-32768	508	24608	840	12953	5980	-13624	-4076	-2236	389	8275	-824	-9776	3416	17792	-9244	24891	-10936	-25240	-4624	-1748	-5378	20208	345	-23432	1848	8976	4834	-2828	-1348	121	128	1
-12176	14516	8036	11783	23512	15597	-10644	9648	-4048	32767	2920	-2552	-24272	-1812	5620	2933	11878	1941	-8504	2600	17076	-10830	32767	-16129	-28344	-8016	6108	-1971	23012	16	-23092	-4028	14236	-2499	-12538	-3377	127	134	1
-14092	10792	19968	4156	27963	1151	-15740	18104	1348	15645	13553	12140	-12484	-388	4784	28237	5314	1965	-7260	9736	21044	-13035	32767	-24000	-31684	-15132	15024	6463	26252	2472	-19600	-22248	15840	411	-13870	-12968	120	132	1
-19872	10628	19900	-650	20982	11296	-24192	17800	-5528	8107	16451	821	-21256	16068	2524	22075	12552	1413	-19692	8040	19664	-15929	32767	-30506	-32768	-9020	13356	12247	29805	2903	-20232	-15080	15812	4160	-19995	-16265	125	131	1
-20548	5736	20636	-1176	20335	13482	-21228	-84	-6348	7317	17003	-287	-20292	3440	-4024	-4294	12587	2115	-32768	-952	6320	-10066	32767	-32768	-29512	6732	-12692	5258	32387	3390	-18584	4996	1312	29343	-10178	-14219	131	130	1
-32768	-13360	15428	8928	7690	10632	-20588	-7528	-12444	10212	13468	-2506	-16264	-13140	-6492	-12770	12323	-5210	-32768	12628	18032	-11238	32767	-32768	-28960	5808	-4376	-4926	22446	1785	-29452	8196	-11348	32767	-8405	-9088	138	133	1
-14128	-3332	13148	7535	2314	7816	-17216	5060	-7608	12250	8151	406	-16408	-10048	-10816	-4655	11258	-6435	-25660	17596	28516	404	30670	-30267	-21756	3768	-5392	-11475	16875	1623	-32768	3072	-15936	16355	-19317	5001	131	135	1
-13324	-1796	13872	4673	1250	3900	-15820	7800	-6656	627	8847	419	-18032	-908	-5028	-1388	10004	-4543	-32768	2400	18280	-4973	8896	-15180	-14708	764	-12524	-6165	9514	2037	-30648	5456	-8868	3148	-32768	3208	131	128	1
-10980	-3180	13164	1822	949	1117	-17884	7656	-2700	-6141	9544	-323	-16552	-1512	-444	-1501	13718	-3005	-15332	15372	20948	1438	-29465	6750	-9772	740	-852	1389	1118	-2342	-27352	1880	-1868	414	-32717	1134	133	129	1
-10092	-3884	12192	368	889	0	-17344	2388	-656	-5090	8767	-1002	-15548	-3044	2096	-2821	13976	476	-10304	14628	19452	2076	-30143	8848	-8336	-716	1716	3776	-7708	-1755	-24624	2236	-6432	4402	-23033	3029	134	123	1
-9392	-5240	11400	176	882	49	-16620	-60	788	1071	6400	-761	-15272	-4264	3180	-1699	12789	538	1048	7508	9760	2448	-28616	14446	-6220	1528	-32	2174	-15870	-2870	-18484	3432	-9940	3706	-19278	3309	126	123	1
-9244	-5268	11388	504	706	442	-16292	960	472	5929	4550	-152	-15452	-3248	4980	404	12139	-973	-6640	5044	8464	5065	-30386	14748	-5240	3308	-3244	57	-22673	-4363	-15976	5356	-9852	-649	-18096	3421	129	119	1
-9236	-5240	11168	892	718	832	-15512	2644	-560	3913	5190	245	-14656	-1480	2892	-1099	14191	-2047	-7668	4432	8332	9258	-32768	16400	-6216	1568	-3088	846	-28660	-5854	-12716	4104	-10464	-7069	-18634	3124	134	119	1
-9632	-5128	11352	940	782	893	-14960	3496	-1116	-3149	7519	326	-14472	256	2268	-5173	14308	-2574	-9964	4040	8672	11699	-32768	17475	-7596	-520	-3648	3283	-32768	-6011	-10796	3560	-9468	-9305	-17197	1667	129	128	1
-9368	-5212	11372	1374	946	1761	-15892	2684	-1040	-9094	9388	-83	-14480	-2052	1972	-9454	14193	-1691	-14436	2000	9820	15199	-32768	20317	-9204	-156	-5336	6332	-32768	-5882	-8332	3116	-10424	-13477	-15184	669	130	127	1
-9504	-4288	11600	1396	827	2171	-16492	2320	-588	-8748	9834	46	-14888	-2436	1848	-9755	15517	-1242	-15360	1092	10364	19583	-32768	24053	-11464	-992	-4432	7252	-32768	-6345	-6772	4076	-10804	-18621	-12977	-374	133	129	1
-9660	-3412	12172	691	672	1757	-16008	2400	-120	-2091	9095	459	-15032	-1140	976	-6525	17093	-1558	-15656	1224	11648	24363	-32768	26545	-15420	-2024	-5516	4926	-32768	-5087	-5488	4876	-12352	-24369	-10962	-550	128	125	1
-9436	-3984	11928	66	624	1335	-15484	3188	296	844	9685	936	-15052	380	2556	-806	17255	-2424	-20436	1248	13808	26206	-32768	27105	-19408	-1492	-9808	7156	-32768	-5527	-6376	1800	-10632	-26098	-11399	-1643	130	121	1
-10460	-5252	11552	204	662	1668	-16272	1468	-1124	-817	10625	668	-15268	-2220	2584	3282	18317	-4429	-29936	3896	18304	23053	-29788	27137	-24852	-2764	-12432	6481	-32768	-5345	-8448	-4224	-7760	-19034	-11065	-3748	131	121	1
-10168	-4272	11572	621	453	1874	-16272	1788	-980	-2115	11034	1382	-16708	-5652	1704	2484	17415	-5710	-32768	-2168	21796	20472	-31779	28606	-28548	-5304	-17940	11725	-32768	-4987	-10620	-8084	-772	-15224	-13442	-4540	131	120	1
-10276	-4924	12060	975	787	2581	-16860	336	-676	1053	11238	2146	-17500	-5496	1496	67	13749	-3445	-32768	-9052	15804	23141	-32382	32767	-25756	-3100	-18140	20792	-32768	-4426	-9300	-3920	6340	3490	-5092	2388	132	123	1
-10108	-4584	12512	970	1154	3188	-16760	528	-316	3030	12275	3299	-18000	-2096	5340	-1669	10554	-2993	-32768	-7548	6868	15736	-32482	31614	-27008	5320	-17748	13290	-32768	-2767	-14420	-2636	8160	15525	1643	7527	134	128	1
-9680	-5580	13148	712	2679	3834	-16916	16	936	3350	14801	3969	-18004	-668	8404	-5473	8803	-3176	-32768	-17504	-5704	9448	-26783	23842	-23812	-1132	-20080	7123	-31066	-243	-17000	-5320	16316	6229	332	5712	129	127	1
-10596	-5892	14200	2079	5641	6502	-19488	1336	-860	5188	17091	4639	-19248	-2044	5768	-9421	6344	-3558	-32768	-25172	-18160	9811	-13838	17605	-13052	1636	-23984	5722	-17863	4782	-16544	-5684	24824	-3036	64	5539	130	113	1
-11772	-4148	15244	3025	11505	7870	-20484	6292	-2608	6041	18837	5593	-20692	-2660	2764	-10179	4150	-3164	-32768	-32768	-21672	12148	-2398	10655	-6720	3692	-23188	1740	-633	5206	-14460	-10296	27752	-176	-1595	3156	131	123	1
-11052	-3940	16776	3606	17095	9509	-20924	6284	-3960	7143	20941	5661	-19776	-3540	1780	-8638	2143	-991	-32280	-22300	-14992	-1899	5173	2796	-9452	3708	-20612	-7458	13373	3048	-15056	-916	18236	654	-3322	3716	129	128	1
-10452	-5520	17692	4921	23491	11726	-22572	6468	-3544	8216	21209	5654	-20764	-4348	2144	-7443	1543	651	-30760	5112	29692	-11908	4403	-14079	-26720	-14360	7640	-16183	13783	-2030	-12128	3620	-216	-1368	8498	5526	123	134	1
-6408	-2988	18100	5665	29288	14348	-24236	6864	-2508	7199	21341	5179	-22584	-4208	7168	-7299	-2602	1984	2800	17872	21640	-20049	11182	-27631	-20352	-7800	5268	-24884	-1240	10060	-23872	-5380	3180	-10123	17043	2467	134	123	1
-5648	-4052	17192	7395	32767	20970	-27804	10080	0	4533	21998	6178	-24228	-2208	25464	-1367	-24143	1688	-5040	-32768	14520	-8581	29891	-5285	-9580	-30036	-6128	-19202	12185	-5723	-14504	-7184	8836	-27038	9403	-5900	130	131	1
-5040	-11064	17368	7785	32767	21219	-29652	14828	13612	-8967	25936	4406	-21688	16240	15720	-9831	-12128	7338	-22156	-13664	19752	-3051	19627	-16325	-27044	-3408	-5556	-5419	17763	5948	-22204	-23664	888	-14094	7695	-5139	120	122	1
-23324	-6480	13456	4164	32767	18057	-27112	11128	4936	-22693	31526	2060	-23112	15632	12196	-19186	-14741	10218	-26988	18876	10552	-1718	16771	-11184	-21756	984	-4480	-4232	18457	7163	-15256	-1048	-4144	16871	15034	329	119	158	1
-32768	-1360	12040	-2653	32767	23033	-28244	-1324	-12964	-17060	32767	5531	-23384	-3768	-12628	-32768	-16532	10833	-19812	2664	7636	-14558	6029	-12753	-20320	16724	-8920	-8824	15183	7646	-17236	28228	-5844	13779	10715	8176	132	123	1
-32768	-17232	23828	1911	32767	25575	-26848	-1176	-8092	-6773	25605	5829	-28428	-19004	-18516	-31457	-19261	-102	-14128	6988	9964	-10774	3477	-10047	-18696	3044	-5956	-14518	9884	2896	-17216	10148	-7692	-10273	9253	10602	133	143	1
-5580	-17856	26420	-2126	25357	17896	-18692	-784	-14844	6529	18607	7958	-28144	-15684	-10872	6169	-23461	-5516	-14668	-2164	13836	-8213	1261	-8068	-16668	-5144	-6068	-6922	9514	2125	-17032	1144	-4376	-9779	7263	6998	129	132	1
-26132	-23424	27812	-1583	-11440	5282	-16388	-592	-7740	2777	6149	4435	-27596	-5124	-3468	13648	-24964	-3407	-13268	-72	13700	-3542	-63	-4251	-17972	-5944	-3948	4847	11568	2737	-17668	-1752	-2940	-5042	9068	4376	119	133	1
1660	-16676	19696	-6779	-27166	-4458	-9880	716	1980	-5672	-1112	2202	-24896	-1740	-4332	8023	-21678	-4759	-11864	2276	12240	-2156	-80	-2906	-17020	-1280	-1888	8878	11717	3359	-15260	-452	-708	-1454	9866	4479	116	123	1
4592	-10732	10944	-7800	-26562	-5714	-10076	912	2520	-6275	-2243	769	-19760	-2124	-5880	5313	-19776	-6009	-10312	4780	11856	-2273	190	-3187	-17076	-164	-44	5722	9758	2936	-15096	2208	-888	367	11090	4179	124	131	1
-744	-9460	8572	-6222	-24879	-6979	-5452	-1196	-932	-3690	-17464	-5429	-16120	-1492	-7120	7476	-17457	-4914	-12136	3308	11680	-3441	176	-3173	-17036	744	-1792	-2339	6710	1588	-15604	2248	-1724	-2290	11539	4012	125	134	1
-5700	-7356	8300	-6287	-28923	-11347	-4424	240	-3200	-1053	-24460	-6127	-12856	-376	-8252	10306	-15254	-4674	-11548	1548	12036	-3341	191	-3452	-16652	-3180	-1980	-4766	5331	1314	-15880	-836	-1844	-5165	11392	4068	129	129	1
-8372	-6900	8612	-6604	-32768	-17163	-5728	2420	-4152	-4444	-28705	-7140	-11464	-652	-8516	11091	-13695	-3861	-11204	1784	12340	-2688	230	-2387	-15332	-4480	-1108	524	6675	2075	-16364	-3840	404	-162	11781	6192	123	131	1
-10164	-5668	10600	-6972	-32768	-21146	-9644	3820	-5124	-8932	-32768	-9288	-11440	-2656	-7672	10298	-12556	-3560	-11584	1396	12008	-1921	455	-2101	-16852	-2312	-1476	5601	8102	3028	-14880	-3524	1464	8848	13550	7144	120	136	1
-12684	-3420	11644	-9913	-32768	-23530	-13096	3624	-3868	-9675	-32768	-10604	-11668	-4008	-8812	13675	-10718	-3878	-11956	1784	12560	-1651	499	-1685	-17412	-392	-2896	4448	8095	2710	-14708	4	-532	17556	17412	7857	123	134	1
-17356	-3480	12728	-13292	-32768	-23100	-12608	4452	-5628	-8676	-32768	-12398	-9904	-460	-10604	20829	-9800	-3920	-12180	1256	12208	-1328	671	-1363	-16932	-1960	-3204	2002	7939	2160	-14828	1588	-2004	12472	20486	7980	122	131	1
-20676	-6084	13964	-14803	-32768	-22145	-16428	5280	-6520	-11177	-32768	-14970	-8584	2252	-11644	19961	-9192	-3942	-11948	1012	11648	-706	748	-844	-15756	-2704	-2280	4745	9408	2524	-16200	1960	876	-143	18987	7642	121	131	1
-22204	-8160	15128	-13908	-32768	-24285	-20744	6756	-6992	-7852	-32768	-16726	-7212	2484	-9092	13831	-7312	-3762	-11572	2624	11604	-368	769	-735	-15908	-728	84	5766	10035	2862	-15476	2712	1620	-3432	18354	6370	123	132	1
-28404	-8004	20104	-13642	-32768	-28179	-25700	10804	-10340	-6321	-32768	-17569	-7716	5864	-3636	6144	-5345	-1118	-11528	1736	11856	-589	960	-2413	-16624	204	-2220	1365	8661	2164	-16804	1924	-1644	-2323	15795	4913	126	130	1
-32768	-3376	23564	-16118	-32768	-32458	-30812	11672	-13220	-6114	-32768	-17490	-9292	5612	-416	3672	-3469	178	-11716	1732	12436	-445	1668	-2310	-16776	-2480	-636	2786	10034	1939	-19628	1580	2388	960	12896	4028	123	132	1
