#Activity	walking 
#ActivityID	1 
#Date 08-22-13-51
acc_rf_x	acc_rf_y	acc_rf_z	gyro_rf_x	gyro_rf_y	gyro_rf_z	acc_rs_x	acc_rs_y	acc_rs_z	gyro_rs_x	gyro_rs_y	gyro_rs_z	acc_rt_x	acc_rt_y	acc_rt_z	gyro_rt_x	gyro_rt_y	gyro_rt_z	acc_lf_x	acc_lf_y	acc_lf_z	gyro_lf_x	gyro_lf_y	gyro_lf_z	acc_ls_x	acc_ls_y	acc_ls_z	gyro_ls_x	gyro_ls_y	gyro_ls_z	acc_lt_x	acc_lt_y	acc_lt_z	gyro_lt_x	gyro_lt_y	gyro_lt_z	EMG_r	EMG_l	act
-18172	-5432	13076	8138	4869	10802	-14848	-1228	-11804	-1148	11735	-8854	-19304	-664	-7976	-957	1428	-499	-32768	32767	16212	15391	-15153	-11712	-16272	1240	-21968	-1472	1547	-1542	-32768	-11208	-8136	-1229	-3333	552	137	126	1
-11576	-4944	12520	3755	1680	2963	-15544	4284	-10144	-22400	12323	-7519	-18336	328	-4616	-718	1582	223	1488	32767	11148	-4472	-32768	7653	-14512	-248	488	965	-656	-85	-32768	-9200	-5848	297	-3574	403	132	160	1
-11128	-2848	12976	1546	2495	882	-18180	-5960	-8596	-20391	9589	-5483	-18248	-2952	-3224	-488	2224	304	12360	20604	7468	-11322	-32768	6604	-7752	-2072	-1840	1553	-1866	741	-29136	-2600	-5840	1332	-3443	678	131	139	1
-11152	-4908	11924	-546	2343	229	-17476	-5136	-7376	442	5822	-5189	-18064	-1496	-1512	134	2373	307	3968	6956	7992	-1725	-28957	14149	-4696	-960	-5208	407	-2602	1282	-19224	-624	-8056	1873	-2992	944	131	129	1
-10956	-3456	12212	-1037	2083	-409	-18308	724	-6396	4003	2405	-4082	-16312	-1680	-1320	683	2638	291	-1964	8880	6852	12333	-28082	27313	-5304	-328	-6688	-342	-3169	1642	-16304	2216	-8496	1294	-2693	996	135	129	1
-11004	-5432	11620	-425	2467	-631	-16908	852	-3924	-6665	1670	-2621	-16720	-264	-976	755	2562	381	-4880	12088	6264	15566	-28398	32767	-5280	280	-6360	-665	-3802	2087	-11656	-760	-10536	743	-2263	944	127	129	1
-11044	-5896	11588	-270	2369	-45	-15292	640	-1368	-19993	3739	-3359	-16400	-1720	-1984	348	2374	203	-7764	13328	6584	11013	-27660	32767	-4624	1592	-5128	-1136	-4130	2474	-9704	-104	-10816	652	-1715	568	133	137	1
-11152	-6368	11220	-506	2011	793	-16372	-2908	-1568	-23195	4952	-3410	-15720	-4112	-2352	-212	2587	-176	-11344	11392	8344	7076	-28350	32767	-6424	4912	-5528	-2048	-4271	2640	-5400	1056	-11152	363	-1098	777	127	133	1
-11592	-4276	11196	-622	1664	1238	-14996	-3968	-3924	-7662	4058	-2487	-15168	-120	3696	-22	2326	-455	-14584	11688	10056	7530	-28704	32767	-8504	5976	-7072	-3336	-4385	2577	-4584	1256	-12320	-652	-703	865	139	126	1
-11236	-2992	11864	-1062	1583	568	-16068	3884	-3400	-7218	3614	-2369	-8952	5288	10832	691	2242	-425	-15264	12144	10328	7802	-28742	32767	-12344	4488	-10032	-4528	-4550	2470	-4536	512	-14320	-2031	-506	1036	128	128	1
-11304	-4636	10496	-1003	1537	227	-15912	648	-1396	-15224	5394	-2848	-16064	2848	11984	-128	4014	-168	-21536	17612	12700	7750	-26558	32767	-16304	3280	-9616	-4838	-4835	2328	-3544	-2776	-14320	-2828	-430	769	122	130	1
-10952	-5192	11160	-386	1336	987	-14628	-2744	1008	-11563	6560	-3029	-18176	-8184	1344	-2103	4016	122	-25932	19568	15636	9238	-22026	32767	-21088	2536	-10456	-4209	-5379	2274	-2944	-6488	-14208	-2952	-430	470	63	129	1
-11168	-4996	11900	-64	1915	1385	-16076	-2024	408	-4079	8167	-2665	-23496	-6688	-4264	243	2201	-34	-32768	28320	19328	11089	-19293	32767	-27160	7848	-16904	-3984	-5684	2612	-4720	-6248	-9512	-2864	-1027	114	120	129	1
-11320	-4740	12140	-384	3041	2190	-17404	1112	-1732	-6093	9890	-2972	-16152	-4528	8832	1545	1875	-307	-32768	27640	20356	14007	-19746	32767	-32768	7776	-16888	-3486	-5870	2920	-7904	-5192	352	-2519	-1992	-442	140	135	1
-11844	-5368	11868	-879	4167	2473	-17192	-1040	-176	-8665	11898	-1957	-13336	1040	10848	-1056	2359	192	-32768	-4888	22184	25025	-20540	32767	-28472	1504	-17808	-581	-6360	2837	-16504	3320	14536	-2907	-3095	-358	124	168	1
-11744	-5728	12156	-359	5546	3927	-16108	-3988	3548	-7063	14966	-917	-17720	448	4304	-860	1864	-184	-32768	2948	5012	32718	-19127	32767	-18056	4768	-18952	2320	-5504	2925	-27568	9120	28112	-2600	-2997	929	120	109	1
-11840	-6400	13732	717	8057	5489	-17420	-4500	2164	-1053	18456	-256	-19600	-5136	8896	-769	1408	-580	-32768	-22404	-12712	15059	-23148	28110	-3144	14184	-18104	1625	-2963	2373	1008	-840	32767	170	-824	384	127	158	1
-12284	-4968	15376	755	12610	7817	-20248	1240	-108	-279	21405	-62	-18776	-5896	5560	-1232	1264	-28	-32768	-32768	-19752	18703	-14674	2754	-720	6656	-8880	426	1201	216	-18088	-5528	32767	1196	-694	879	126	127	1
-12016	-3544	16920	-72	18944	8047	-22384	584	-1012	2888	23949	1366	-21272	-6248	4320	-774	965	172	-32768	1292	-7736	-21520	872	-24174	-13680	2080	-24360	-2265	4020	-1280	-23056	9480	11448	1774	-1655	982	123	123	1
-11324	-6824	17436	-834	26289	10444	-23616	992	-876	5604	26312	1578	-22176	-1488	6768	-639	362	35	-32768	-15176	11580	-32768	11286	-14098	-18256	-10552	-30568	-2711	5422	-2052	-5344	10672	-4208	914	-39	635	131	151	1
-10708	-7912	18316	-1731	32767	15536	-23680	1744	-820	5499	26671	1262	-22648	2640	9848	-1014	133	26	-5508	23220	26968	-17508	28844	-8517	-32768	-4736	32767	1665	3068	-1021	12960	-8496	3336	-3470	3112	731	122	138	1
-8724	-9556	20816	-960	32767	23608	-32112	8388	744	-3059	29142	-1485	-28952	4656	15056	-1629	2	104	30812	-32768	23368	-28262	32767	-32768	-24256	4224	-15128	3626	2384	-215	-32768	5640	23320	297	-2324	-322	135	152	1
-16052	-12964	18792	-6338	32767	26255	-32768	15216	9948	-15943	30205	-2416	-29536	8272	29528	-1965	-2605	942	-32768	18820	32767	-9331	32767	-28106	-32768	5880	-10080	-3139	4990	-2540	-20912	-18744	11904	-4169	1186	-308	127	140	1
-32768	-4024	17528	-22925	32767	25524	-32768	4664	5672	-17884	32767	-3839	-29744	3336	31768	-4207	-5373	1640	-32768	32767	-348	-16135	20918	-23155	-6552	-1072	-32720	-1746	3837	-1214	-8824	-22040	-11032	2959	571	912	141	138	1
-32768	-18260	18204	-32768	32767	14704	-32768	-11736	-2132	-13118	32767	3980	-30536	-11616	-12016	-4477	-1940	137	-16244	-5156	17672	-10370	1433	-15757	-15528	-4192	-18800	1449	2266	730	-18536	15432	-18272	3995	801	-791	121	108	1
-32768	-32768	18140	-29674	32767	23761	-24384	-14708	-1824	3266	32767	5539	-32768	-22472	-18896	416	-3299	-1041	-10588	-3508	18180	-5832	2808	-5258	-19824	2608	-15336	1288	1870	-186	-27176	13800	-10360	475	1575	-813	112	113	1
-32768	-26960	15684	-409	16993	31424	-19096	-3972	-25156	11645	19371	4738	-32768	2208	-6104	1911	-3443	-1298	-8904	11120	9352	-2025	2731	-2645	-16424	664	-11432	1393	1546	-311	-22552	-2824	-6768	-556	1904	-30	120	132	1
-16960	-31252	24084	9060	-24248	5730	-18408	392	-13348	10552	7307	3795	-32768	8960	-6968	1562	-3328	-970	-9668	6720	12280	-1142	2565	-1910	-16392	-920	-12016	1780	1379	-274	-17680	-768	-3024	81	2129	542	147	114	1
5688	-20184	18848	19532	-30743	6164	-9968	1056	-4500	8095	-6592	3894	-32768	4320	-5968	267	-3379	-1642	-10384	8276	10416	501	2584	-1510	-15232	7968	-9792	984	767	-87	-18112	-1064	-3104	223	2263	131	141	131	1
4808	-9100	14520	15995	-28482	2057	-5676	-356	-7276	9659	-15395	2564	-27808	-1040	-6728	-146	-2953	-1252	-9816	8488	10544	777	2454	-1081	-15640	7488	-9920	-583	878	-255	-19560	2816	-3184	254	2089	-655	136	121	1
-4332	-4448	12724	4026	-31475	-11037	-2716	904	-9500	9355	-22631	3314	-20736	1992	-9224	48	-2859	-1158	-9116	10320	10580	1293	2748	-256	-16968	2704	-8024	-707	529	-72	-18376	3776	-1304	-450	2269	-531	151	125	1
-7712	-10272	10036	-2062	-32768	-22167	-2768	2056	-9036	-787	-29460	4409	-17712	2952	-9336	206	-2686	-1003	-9696	9252	9992	2056	2716	66	-16160	2680	-5984	539	257	72	-16296	872	456	-640	2388	-609	141	126	1
-10412	-11316	8972	1230	-32768	-25421	-4252	-132	-7680	-5125	-32768	4602	-13960	4176	-9680	-331	-2754	-995	-9764	9844	9216	2215	2133	-336	-14456	7848	-3872	1471	-43	242	-15192	1768	1504	-442	2329	-111	124	127	1
-11676	-7988	9032	5462	-32768	-26052	-5584	-364	-6452	-6457	-32768	2509	-10416	2232	-9992	-254	-2138	-941	-9704	9300	9384	1816	1611	-1027	-13384	9808	-2976	819	210	92	-14928	3344	1600	-328	2252	-39	133	112	1
-13316	-4524	10720	4024	-32768	-27160	-7972	-1252	-5988	-762	-32768	3334	-8096	1424	-10288	151	-1443	-746	-9700	8728	9488	1317	1638	-1315	-13552	8240	-1952	-132	605	-110	-15088	3424	720	-108	2207	-45	130	128	1
-16664	-4860	13236	-363	-32768	-29153	-11424	-2072	-7984	7397	-32768	3968	-5696	768	-11672	871	-1186	-757	-9744	8912	8580	152	1638	-1596	-13288	5984	-3040	-211	755	-202	-14096	2992	576	253	2426	1	129	130	1
-21312	-8856	15052	-2001	-32768	-29527	-9880	-84	-9208	9243	-32768	7936	-3736	1912	-13424	1887	-1043	-754	-9932	9540	8032	-2131	1193	-2098	-11968	6968	-7280	-108	746	-140	-10152	2792	7376	-696	2852	339	123	131	1
-22056	-9436	15568	-1942	-32768	-29392	-12432	768	-10376	4380	-32768	8428	-2456	4048	-15112	3102	-643	-704	-9084	9380	8560	-4774	909	-2380	-12728	6368	-3528	-119	714	-142	-8296	1688	6808	-1322	3924	377	118	127	1
-28580	-10260	20744	-2485	-32768	-31130	-17320	1256	-11188	907	-32768	10097	-1296	5264	-12840	3283	-266	-421	-9460	8880	9120	-5978	967	-1958	-14528	2880	-4088	-35	872	-170	-15832	-8	-2144	603	3623	25	117	127	1
-32424	-13144	24308	-2510	-32768	-32768	-23200	776	-11724	483	-32768	11320	-296	3152	-10176	3074	-112	-189	-9680	8520	11152	-3588	1593	-2419	-18976	1912	-3168	966	762	98	-23744	-3336	-7280	702	1833	-87	122	129	1
-32768	-20740	28144	281	-32768	-32768	-31388	-64	-15088	1593	-32768	12116	-480	2832	-10184	3068	-89	-161	-10580	6896	12408	-389	2881	-2749	-19376	4640	-6024	1087	753	94	-17872	16	6104	-1130	1873	-255	124	132	1
-32768	-7624	19328	3132	-32768	-31691	-32768	692	-16276	-3410	-32768	11516	-7744	-4288	9224	1771	-532	167	-6572	7156	10636	-460	907	-767	-17816	8104	-4000	1086	876	-7	-14880	1520	9080	528	2896	-81	113	137	1
-32768	-10228	-776	-955	-32768	-32768	-26308	3012	-19304	-13127	-32768	8359	-31328	-4192	25304	2283	-4224	-606	-10168	10836	11020	397	5907	-4447	-12632	12336	2200	1723	1032	-188	-18552	7312	9488	1222	2279	126	118	130	1
-32768	32767	-32768	-13855	-32768	-21855	-14380	-3192	-28556	-32768	-27670	-8512	-32768	21952	32767	2795	985	-841	-10192	11400	13232	-1058	8969	-7699	-18504	12416	1048	922	1822	-627	-22176	9528	10072	355	1879	332	57	133	1
-32768	32767	-32768	-32768	-8906	-11042	8832	-10336	-13484	-20133	4268	2566	792	19960	32767	-1540	-823	1578	-10824	7604	18360	70	14469	-10514	-21584	11824	-2224	559	2367	-1104	-23600	9824	7400	756	1440	-183	143	126	1
-32768	416	-32768	2079	6835	30261	-8844	-10736	-22492	-4396	26861	-2729	-27976	-1152	8344	-3137	-2208	889	-10768	14096	16608	1828	20622	-16397	-24880	11104	-2320	896	2486	-1322	-25520	2104	6856	727	652	-78	130	136	1
5604	2056	23240	23487	14180	32767	-21304	-9692	-15356	9575	32767	-5366	-8464	-3976	2712	-3427	-479	-48	-9684	16172	16732	3220	26168	-24071	-26856	8224	-464	1715	2520	-1281	-22920	-1280	13464	1586	367	175	125	132	1
-664	-32768	25300	17954	13699	16320	-32768	12120	24076	32767	18940	1397	-11368	5656	7936	-2654	1832	-204	-8888	17384	17992	2999	32767	-32257	-32768	10272	4896	2331	2496	-1268	-30672	2168	21016	1737	-263	355	137	137	1
-26640	26532	-3968	10633	32767	-11524	-32768	12500	15876	32767	14026	2539	-32768	-32768	1072	3463	200	-1646	-7912	22884	20840	1143	32767	-32768	-32768	13080	14192	3365	2380	-1179	-32768	3400	32767	1784	-2600	-108	133	132	1
-32768	30060	32767	-1403	23718	22160	-25216	9536	-24672	24267	28386	-3755	-14928	14592	15504	-32	729	-28	-32768	29460	20112	11599	32767	-32768	-32768	31760	7768	4679	2810	-1165	-22328	-3832	12368	-267	-3567	-1690	159	114	1
-30820	-32768	5696	560	29684	9680	-9260	-10164	216	-3267	20740	-11276	-12176	26336	-1984	381	1689	856	-32768	32767	22864	14069	32767	-32768	-29784	28656	-1664	2733	2906	-1927	-27536	11352	-10320	1706	-2587	-847	121	140	1
-13676	22296	17360	13473	5371	19409	-14992	-20992	-19748	13130	16291	-18354	-13880	-23576	-20192	-2780	254	624	-31072	32767	23704	4648	32767	-32768	-22720	11312	-5224	1758	2950	-1853	-32768	11616	-10360	195	-3970	1025	136	131	1
-17336	-8180	11340	8532	1631	9607	-18388	4404	-14664	3539	12637	-2481	-25424	-8208	-8656	253	2074	-210	-32768	9980	10884	6691	32767	-32768	-17736	5008	-20360	-706	2241	-1433	-32768	-2968	-7040	-1354	-3545	593	69	129	1
-13696	-3608	12436	3850	-1279	2732	-18024	784	-10884	-11132	12472	-6896	-22080	1664	-8288	-19	1744	-245	-25000	32767	16912	11491	-32768	8013	-14776	2720	-11736	-105	476	-687	-32768	-14584	-7712	-26	-3553	547	145	135	1
-11596	-4308	11968	1822	-173	1133	-15332	2544	-9904	-26207	12702	-6003	-17344	2944	-3400	-728	2285	440	11784	32767	9272	-7877	-32768	11951	-12016	-688	768	1898	-1760	651	-32768	-6080	-6848	987	-3893	675	131	134	1
-10640	-3744	12500	137	1557	-11	-19088	-4660	-8380	-18501	7870	-5523	-17544	-1256	-4992	-312	2434	263	8376	12680	8828	-7172	-32768	11832	-5152	-872	-3952	1294	-2557	1378	-25944	-520	-8184	1988	-3427	859	121	178	1
-11096	-4272	11848	-1313	2192	-623	-17992	-6648	-6264	5716	4558	-3203	-19336	-3216	-2456	445	2592	412	-320	6472	7452	9086	-32768	23462	-4336	-176	-5984	-243	-3048	1864	-17104	368	-10176	1606	-3038	1329	125	124	1
-10868	-5120	11588	-1177	1958	-764	-17448	1752	-4056	3744	1633	-2228	-15432	-2576	-1528	902	2667	262	-3656	11308	6696	17845	-32768	32767	-6432	-56	-6040	-683	-3730	2242	-17616	1432	-12048	1497	-3228	1227	103	128	1
-10888	-5988	11408	46	2260	-184	-15208	2664	-1700	-12341	3141	-1528	-15712	-1512	-304	1097	2640	389	-7256	13744	6944	14562	-32768	32767	-4848	-408	-5064	-904	-4268	2745	-9752	-2152	-10392	980	-1782	895	136	127	1
-11124	-6076	11184	-137	1779	393	-15440	760	-1632	-23309	5027	-2765	-16040	-664	-2704	403	2570	246	-9164	10952	8844	9942	-32037	32767	-6840	2168	-4512	-1568	-4421	3037	-6168	-640	-11040	814	-1223	886	129	116	1
-11208	-6112	11180	-111	1322	1390	-16248	-1960	-2900	-23479	5345	-3442	-15936	16	1352	-445	2476	-148	-11948	7928	11780	12307	-29611	32767	-8320	3136	-4800	-2549	-4555	3068	-3664	224	-12664	-24	-837	782	146	132	1
-11488	-3308	11512	-184	983	1257	-15800	-1940	-3976	-9416	3726	-2490	-11776	3072	7976	20	2210	-461	-15644	11472	13788	16230	-27999	32767	-11168	2080	-7984	-3626	-4679	3052	-1704	-1448	-14456	-1300	-557	785	132	128	1
-11408	-3644	11172	-658	1170	482	-16256	3284	-3200	-6799	3634	-989	-7504	4680	11688	870	4225	-63	-18900	15248	16260	15582	-26432	32767	-14904	1440	-8504	-4153	-4952	2978	-464	-3136	-14184	-2076	-497	670	124	127	1
-11124	-5364	10444	-611	425	1097	-15120	1784	-392	-16202	5618	-2648	-14296	-5240	3720	-2020	4657	100	-24628	17764	20500	15558	-24066	32767	-19584	1176	-10176	-3944	-5414	2813	-304	-5392	-13928	-2327	-359	479	109	127	1
-11108	-4280	11004	-293	-22	1973	-14632	996	240	-16599	5899	-2851	-19912	-1632	-4360	-1044	2818	164	-32768	26128	23316	13705	-23254	32767	-27128	5624	-13136	-3882	-5743	2801	-2424	-3528	-9704	-3081	-633	314	125	129	1
-10516	-5852	11388	-148	722	2364	-15804	-296	2512	-7532	10118	-2754	-18144	-4440	7056	1517	1580	-512	-32768	28552	22872	6240	-22021	32767	-32600	3392	-19872	-5190	-5580	2816	-3864	-432	-5040	-3250	-1475	-180	101	132	1
-11084	-4172	12380	392	2268	2525	-17680	-2776	1544	-2623	12447	-1399	-14624	-5352	16568	-555	2171	-42	-32768	7968	20348	11192	-15071	32767	-32768	3480	-20736	-2723	-5593	2187	-17464	5480	17392	-3178	-2671	37	134	135	1
-11208	-6652	12812	108	4130	2936	-17120	-2912	4524	-2462	15536	-76	-19056	-1648	5752	-875	2200	211	-32768	5732	-3384	3365	-15698	32767	-22400	-640	-10288	-986	-4770	1939	-32768	9112	32767	-3802	-6043	1813	113	151	1
-10908	-6360	13920	324	6791	4396	-17912	-4628	4740	166	19519	686	-20048	-4120	9344	-216	1445	-474	-32768	-32768	-16852	13327	-15087	30718	-2032	5440	-32512	-901	-2097	1796	-1000	-5224	32767	-2634	591	-457	148	200	1
-11420	-7744	15152	1334	10566	7942	-18840	1616	380	2728	23022	13	-17104	-2264	8016	-1010	1058	-301	-32768	-32768	-22360	30063	-6034	2811	-5648	6600	-21496	1284	1171	272	-9168	-13080	32767	881	-963	-1234	121	132	1
-13864	-2796	19324	1965	17793	8912	-24128	-548	-2888	5805	25808	1496	-24600	-8000	2120	-876	1072	131	-32768	960	-9956	-18780	-5725	-31563	-14352	3576	-21504	920	3091	-1089	-25920	5192	48	3090	-1744	691	122	119	1
-11648	-7984	19868	-256	26075	12739	-27724	3000	-2132	5871	27773	1631	-25504	-2272	3336	-561	256	57	-32768	-8432	5636	-26695	2794	-30944	-17024	-1120	-30248	-462	4963	-1632	-8592	6440	-1976	1985	-213	810	126	140	1
-9868	-6224	20492	-1666	32767	16885	-26988	6408	-1248	3072	29591	947	-23712	464	11520	-931	-32	101	10676	32767	14124	-19975	2690	-17992	-32768	1784	32767	2224	2276	-355	9816	-192	-8376	574	2643	-810	124	183	1
-7788	-8652	22784	-2336	32767	24770	-32768	7952	372	3094	29806	397	-31080	3536	18696	-1031	-177	61	-25500	-32768	18136	-13290	32767	-25012	-26928	8304	-32768	1199	3331	-2073	-32768	12088	12256	-1250	-1195	966	133	111	1
-9304	-17524	23104	-2526	32767	29267	-32768	17628	20864	-16681	31624	-1103	-27464	9528	32767	-2093	-3429	1122	-23472	-9144	32767	-1805	19428	-30181	-25680	-10224	-19448	-2511	4505	-1833	-22808	-30376	-14464	1345	2996	-742	127	120	1
-32768	-2368	20596	-19547	32767	32767	-32768	-684	5112	-14181	32767	-603	-26648	11208	32767	-2647	-3802	1328	-32768	32767	-12896	-11485	17365	-17145	-4944	8416	-31928	638	3210	-1227	-800	-8312	-4936	3201	178	1240	132	124	1
-32768	-23404	16436	-32768	32767	21054	-32768	-7728	284	-20860	32767	6965	-32768	-15832	-11968	-3230	-2705	-191	-14760	-10120	21168	-8181	2978	-14615	-17888	160	-19632	1626	1755	858	-28744	27712	-19936	2449	1134	-1928	127	113	1
-32768	-32768	19000	-26338	32767	27996	-19336	-21656	-11460	-370	32767	5426	-32768	-18576	-19768	376	-3421	-795	-9824	7116	13292	-4626	2837	-5124	-19032	4824	-13160	686	1771	-196	-27512	4008	-10464	-919	2271	-421	120	106	1
-12964	-32768	25084	-19881	32767	32767	-20088	-4108	-29132	15869	15098	5689	-32768	1888	-3520	1957	-3471	-1313	-10408	9484	10500	-1543	2513	-2339	-17104	-480	-9408	2066	864	-54	-17128	-3456	-1656	-371	2158	-192	121	110	1
-12772	-32768	25756	18402	-31574	-2037	-17044	-208	-8000	17325	-24	4251	-32768	4336	-4592	2046	-3463	-1232	-9744	6196	12324	-135	2505	-1987	-15584	9848	-7936	3075	328	56	-16080	432	-1736	439	2227	438	145	118	1
7832	-17048	19672	26416	-32768	-416	-7132	-132	-1284	15906	-13721	1997	-32768	6808	-4320	219	-3629	-1755	-9432	10356	9612	932	2173	-1744	-14768	12264	-7840	925	581	-60	-18128	3592	-1680	444	2332	208	137	125	1
5796	-5128	15548	15692	-32768	-6517	-5180	2708	-6036	13423	-21778	1973	-24872	3720	-7488	-699	-3113	-1019	-9636	10548	9028	746	1746	-1732	-15592	8016	-6752	-927	794	-371	-17752	4368	-1712	103	2210	-585	125	135	1
-5516	-3668	13012	-1353	-32768	-18687	-1944	3348	-9348	7411	-27328	4041	-17992	4176	-9800	-579	-2933	-1231	-9328	10488	9360	605	1795	-1790	-16280	3376	-5776	-1041	614	-219	-16752	2040	272	-591	2273	-652	151	134	1
-10092	-10568	10244	-6837	-32768	-26736	-2488	1900	-8164	-7410	-32768	3277	-13384	3520	-10624	-533	-2983	-1039	-9900	9468	9440	363	2076	-1734	-15544	3232	-4816	529	218	-17	-15536	-48	936	-638	2356	-422	137	125	1
-10852	-10012	8876	-2045	-32768	-28361	-3840	464	-6216	-14051	-32768	2779	-9000	2904	-11032	-723	-2413	-1025	-9776	9684	9020	37	1465	-2081	-13696	8496	-3792	1300	1	101	-15328	2992	-304	-283	2324	-189	130	125	1
-11528	-5640	8728	1678	-32768	-28599	-4628	264	-5752	-10562	-32768	-355	-5632	1976	-12032	-374	-1622	-741	-9872	8684	9360	-679	1109	-2089	-12656	9608	-3896	335	319	-130	-14672	4760	-800	176	2435	-137	133	98	1
-14728	-3620	11784	2	-32768	-29427	-7500	-3240	-7140	-1874	-32768	954	-3728	1448	-13352	164	-1094	-628	-10048	7532	9380	-1766	709	-1651	-12584	6248	-4792	-715	715	-353	-12560	2976	976	150	2858	76	143	129	1
-20464	-4812	14612	-4164	-32768	-31816	-7752	-3332	-9088	9250	-32768	4785	-2816	-712	-14744	1514	-836	-702	-9644	8900	8988	-2617	451	-1210	-15152	2992	-4624	-363	643	-247	-10568	-344	9328	-1489	3366	568	131	134	1
-25772	-8616	16784	-6351	-32768	-32768	-11104	560	-10260	7408	-32768	6008	-232	2552	-18344	3304	-338	-724	-9064	9852	9500	-2789	579	-1918	-17432	2832	-968	804	428	-1	-12992	-3584	5600	-1493	4365	116	128	132	1
-28652	-11084	19816	-6310	-32768	-32768	-14984	1196	-11272	4534	-32768	7941	-192	4848	-17104	3489	126	-579	-9904	6344	11012	-1964	970	-2641	-16008	3704	568	1238	560	74	-16464	-4632	2224	909	3333	158	126	131	1
-32768	-14640	25052	-5458	-32768	-32768	-24276	-372	-13172	4994	-32768	9848	-768	3496	-15200	3630	468	-321	-9740	6876	11060	-1641	2942	-2010	-13528	6320	608	724	989	-74	-19912	-800	3568	-744	1932	-181	126	131	1
-32768	-26980	27780	523	-32768	-32768	-32768	152	-16772	10987	-32768	11885	-2464	-168	-7232	3622	442	44	-9688	8204	11316	288	4546	-2247	-16272	9480	-3072	99	1483	-235	-18192	6000	10664	-869	2130	-60	134	138	1
-32768	-2328	17708	3783	-32768	-32768	-32768	3500	-21156	-4848	-32768	13253	-12536	-5536	13280	2063	-685	95	-10304	11268	10064	1101	5529	-3628	-16080	9616	792	920	1509	-337	-17264	5752	10792	826	2426	-233	128	132	1
-32768	-16996	-9636	3966	-32768	-32768	-22760	-1284	-19376	-10507	-32768	8874	-32768	552	29288	1602	-5469	-1027	-10396	12228	10868	-896	7235	-6401	-13616	15008	1608	1600	1714	-589	-18672	5440	10840	1075	1883	254	91	134	1
-32768	32767	-32768	-12108	-32768	-12532	-15440	-6984	-30612	-20919	-26440	-9726	-12744	9208	32767	889	2896	-536	-10232	12872	13652	-2867	10910	-12253	-19760	8872	120	1160	2348	-920	-20752	5200	8640	1207	1340	347	0	124	1
-32768	32767	-32768	-32768	-8267	-6437	7292	-7320	-13240	-12136	6758	1235	-11536	17144	32767	-420	-748	1740	-10888	6996	19948	-687	16873	-14438	-24168	10712	-4040	785	2791	-1397	-22808	11088	5624	1432	1117	-148	87	133	1
-32768	-4748	-29040	11460	7013	32266	-8776	-5772	-20308	-353	27935	-1528	-30008	-4400	6256	-2068	-2064	444	-9596	15860	17852	1736	23850	-21332	-28784	7624	-1008	1126	2889	-1488	-25520	1344	7552	891	307	23	128	127	1
-32768	9780	-5072	18988	13529	29774	-17528	-5808	-29776	21519	32767	-6087	-2824	1752	11968	-2212	-222	-398	-8364	15240	18244	2713	32767	-29889	-29984	5000	728	1988	2883	-1350	-24752	-3768	15776	1041	-339	-206	144	130	1
32767	-32768	32767	12062	10370	9466	-32768	14644	32767	32767	13469	4912	10536	19984	-26272	-217	3148	494	-4768	19120	21960	3230	32767	-32768	-32768	8536	4312	2421	2736	-1201	-29024	-1840	27184	1486	-1356	-391	115	128	1
8544	32767	-6100	12018	32767	13181	-16780	-4832	-20684	32767	23856	-4901	-32768	-32768	23856	2559	-818	427	-18852	21280	22536	6707	32767	-32768	-32768	15336	12000	4764	2119	-1248	-28400	1264	32767	2665	-3082	-816	140	126	1
-32768	9132	31744	6745	28712	25404	-32768	4444	-24668	31751	28053	-28	-22304	25400	9712	1142	1324	-1159	-32768	32460	19516	19787	32767	-32768	-31864	32767	-64	4679	2541	-1428	-25872	11656	-680	3498	-2245	-1471	133	130	1
-25916	-27336	12324	3407	30200	13690	-3696	-1064	-12328	-4221	24274	-14590	-2672	32368	-15424	-2971	359	-1079	-32768	32767	18004	971	32767	-32768	-23440	24784	928	2102	2975	-2322	-32768	21008	-22408	1302	-2706	217	141	133	1
-14640	-1656	11272	9623	6383	14186	-11192	-15576	-18504	-15758	23286	-20203	-16208	-27160	-22280	-3968	-1153	1405	-13468	32767	29568	10751	32767	-32768	-21232	8960	-20224	-726	3006	-1825	-32768	7896	-4024	-2159	-3722	670	122	132	1
-17476	-4296	12764	7244	3608	9450	-19412	-4356	-13852	2165	12687	-5033	-25712	-14064	-13008	179	2380	146	-32768	32767	19780	23410	-11171	-15812	-18168	120	-27128	-2060	1620	-1664	-32768	-15336	-7872	-1044	-3242	763	139	135	1
-13724	-7972	11128	5017	201	4752	-15680	-3904	-8580	-12638	12604	-5342	-20872	32	-8752	308	1912	-76	-1704	32767	11692	1296	-32768	8133	-14080	1720	-1568	456	-527	-57	-32768	-13248	-6528	653	-3680	620	126	137	1
-12320	-3472	12480	3131	1630	3036	-17804	-2572	-9020	-14265	11750	-6180	-19120	512	-2608	-362	2137	350	9808	24376	7612	-10824	-32768	7999	-8416	-1480	-2968	1169	-1990	879	-32360	-1360	-7272	1756	-3496	1066	132	120	1
-11164	-3840	12576	451	2986	1107	-20060	-1992	-7448	-6124	7942	-3408	-16600	-2744	-624	-25	2287	497	900	9064	7684	-4127	-32768	16315	-4768	-1696	-7224	471	-2935	1438	-30952	-112	-8392	1962	-3411	1062	134	159	1
-11452	-5248	11660	-733	2555	997	-17816	-2096	-5740	-3540	5734	-3564	-17200	-2536	-816	495	2510	466	-3628	8988	6624	9907	-32768	30396	-5232	-960	-7072	137	-3707	1837	-15136	3008	-9984	1093	-2518	1267	122	131	1
-11272	-5664	11308	-489	2293	646	-17132	284	-3492	-6182	4114	-2257	-15952	-1144	184	877	2569	254	-5456	11588	6464	14042	-32768	32767	-5528	456	-6320	-491	-4278	2361	-11672	-2440	-11016	645	-2064	1008	139	131	1
-11328	-5468	11268	-573	2306	937	-15432	-92	-1544	-14430	5121	-2142	-15720	-696	-600	722	2379	261	-7712	12904	7228	10425	-32768	32767	-5888	1056	-4208	-1343	-4460	2768	-10104	-3768	-11624	710	-1628	912	131	130	1
-11428	-6628	10832	152	2200	1983	-15184	-1996	-1944	-16189	6504	-2488	-15432	-2376	-2632	550	2365	17	-11356	10128	10764	9563	-31743	32767	-8912	2616	-5256	-2310	-4587	2979	-6072	-1928	-11304	241	-922	1001	145	133	1
-11600	-5160	10940	1247	1567	2576	-14460	-3304	-4032	-9283	6240	-1644	-14800	-1568	-4080	399	2797	26	-15228	10052	13600	14144	-29753	32767	-10768	2976	-6248	-3420	-4743	3025	-3280	-1928	-13360	-894	-602	976	148	133	1
-11820	-3996	10620	2023	992	2654	-14156	-1736	-8752	-528	4803	-958	-11792	1976	6152	1009	3020	-255	-18384	14652	15504	16358	-28442	32767	-13856	1776	-8432	-4395	-4832	3030	-360	-4296	-14256	-1927	-582	824	131	131	1
-11364	-3320	10844	1322	485	1901	-15792	6076	-6592	-7870	3810	-1129	-17288	7904	9728	962	4418	-456	-21176	16240	18796	15878	-25201	32767	-18216	360	-8008	-4387	-5293	2909	-16	-5816	-12608	-2126	-599	577	111	126	1
-11576	-4244	10732	816	416	1870	-15956	1856	-3808	-16969	4914	-2967	-14616	3400	-696	-1947	4092	157	-27716	20528	23296	15004	-21595	32767	-23048	2624	-10224	-3835	-5790	2832	-704	-6160	-11608	-2318	-498	168	151	128	1
-11224	-4456	10976	-616	590	2446	-13352	1244	-692	-13529	6043	-3294	-19736	2016	-15376	-90	2238	160	-32768	29680	27412	11585	-21040	32767	-32752	6712	-13936	-3943	-5923	2859	-1904	-2208	-6344	-2567	-895	-47	135	126	1
-11668	-2324	11568	-607	1581	1954	-15592	-248	-2092	-8328	7868	-2869	-15704	-4416	12328	803	2020	-559	-32768	16184	29916	7345	-21944	32767	-32256	5864	-15744	-3980	-5983	2708	-5488	3232	-344	-3146	-1984	-1	125	129	1
-11688	-4988	12516	-894	3044	1409	-19268	-1748	-668	-4659	9303	-2092	-14632	-4152	11216	-1087	2622	-26	-32768	7616	14900	11430	-18529	32767	-27120	8000	-24096	-1949	-5625	2111	-24056	9296	23360	-3788	-4607	990	123	131	1
-11928	-7092	12564	-797	5150	3568	-18116	-2700	4288	-5886	12310	-1495	-24184	-5000	3072	-649	2513	291	-32768	-15360	-14336	-1487	-19349	32767	-23704	8352	-23096	-2234	-5404	2097	-32768	-8400	32767	-6566	-3940	1089	122	124	1
-12240	-6908	13620	83	8070	6039	-18720	-3464	4816	-2204	16698	-313	-19408	-3976	11040	-341	1454	-609	-32768	-32768	-14860	32538	-6920	18230	-3584	5440	-14176	460	-648	110	-2120	-9960	32767	753	-55	-1960	124	171	1
-11872	-1440	17156	726	12840	7249	-19516	-164	1832	519	20581	102	-21416	-5880	9168	-1004	1516	-54	-32768	-6604	-19512	2188	-8704	-15114	-5184	9656	-29448	954	2253	-697	-22248	-4320	20192	2799	-2171	-501	122	153	1
-11824	-6592	18508	-274	19978	7672	-27416	-1476	2000	4338	23665	2924	-28368	-6360	5096	-891	1036	182	-32768	-11452	-2156	-31199	-5273	-32768	-14496	1304	-28368	77	4217	-1635	-21016	7104	-2664	2229	-1003	1113	119	134	1
-11440	-9284	18692	-1837	28985	13742	-27760	2036	2032	2346	26676	1926	-27200	-272	10928	-933	173	-177	10288	7060	32767	-19119	12286	-31962	-30584	-1256	11648	1625	3974	-1455	3656	-5448	-6920	2846	-368	126	115	132	1
-9332	-7120	21804	-3074	32767	21963	-30300	5244	3792	-1444	29561	843	-27312	-64	16976	-1527	-81	-38	32767	32767	25816	-15977	19469	-22726	-32768	-9944	19360	5190	1693	100	-19512	4352	-4648	2566	1476	-485	127	131	1
-6160	-15824	20948	-531	32767	30447	-32768	12004	9588	-2090	30281	1083	-32424	712	24736	-1655	-600	268	-32768	-5620	32272	-4393	32767	-16265	-15608	8912	-19272	-1862	4461	-3326	-32768	12160	10512	-5445	-75	471	132	115	1
-27236	-13676	18460	-10179	32767	32767	-32768	15680	20020	-23708	32767	-2413	-25216	5904	31728	-2807	-4083	1299	-14908	12948	9328	4379	15670	-31129	-20808	-5528	-14672	-2265	3925	-1713	-9624	-32768	-26944	2224	3478	-395	129	145	1
-32768	4156	25692	-32768	32767	20836	-32768	-14240	5688	-20997	32767	-826	-19920	-3128	-11920	-4240	-3723	1417	-19260	364	11164	-15929	7603	-18187	-7784	8248	-22112	1242	2184	-32	-6448	12624	-17704	3909	884	755	123	105	1
-32768	-32768	10180	-32768	32767	25407	-32768	-10776	-3136	2158	32767	8426	-32768	-12976	-22384	-1275	-3266	-722	-20044	9884	9912	-9206	1197	-8991	-19160	-1072	-18200	453	2069	-75	-29392	20880	-14816	537	1337	-1581	125	106	1
-22860	-32768	17440	-9209	32767	32767	-20984	-13912	-29252	15634	27938	5178	-32768	-9640	-13112	1102	-3780	-1375	-11344	8784	11992	-4969	1706	-4854	-17664	2152	-12680	803	1606	-247	-24064	-3696	-6784	-792	2187	-238	97	123	1
-26208	-32768	25276	14524	-12075	11885	-24640	3360	-15788	21169	12439	2095	-32768	13320	-6392	1228	-3424	-1394	-10520	8108	10720	-3021	1518	-3694	-17936	1384	-11920	3462	599	2	-16368	-2520	-2696	414	2424	420	142	120	1
-4	-25344	23992	23881	-30700	-966	-11884	4976	-4692	19655	-4939	2368	-32768	8272	-9872	622	-3602	-1625	-9332	8244	11840	-746	2068	-2266	-16208	9648	-7576	1593	659	-27	-17864	648	-1496	387	2475	478	130	122	1
6472	-8384	18780	18570	-31542	-5891	-4244	2388	-3372	10363	-14783	1353	-28168	5440	-8768	-821	-3797	-1688	-9804	8376	10668	12	1521	-2214	-15512	7824	-7800	-812	934	-365	-18664	2480	-2944	100	2411	-294	114	123	1
1176	-5048	14836	5266	-31260	-14414	-3616	2572	-6160	5517	-22546	3471	-20960	3192	-9456	-215	-3110	-1044	-9812	8944	10624	-271	2022	-2068	-16792	4448	-6808	-1390	707	-274	-18008	2912	-960	-583	2261	-735	188	137	1
-8284	-7708	11432	-3499	-32768	-22495	-1368	160	-8660	-2045	-28599	2322	-14288	4144	-9808	74	-3043	-982	-9648	9268	10224	-415	2125	-2165	-16232	2512	-4848	-317	469	-75	-15944	80	624	-1008	2369	-552	142	129	1
-10228	-9252	9748	-1829	-32768	-25786	-3260	1656	-7280	-8820	-32768	2867	-12368	3656	-9632	-124	-2824	-834	-9476	9412	9604	-914	2359	-2368	-14184	6200	-3496	988	195	115	-15456	1960	536	-804	2306	-217	137	124	1
-9908	-6852	8560	3177	-32768	-25948	-3668	1440	-6048	-11076	-32768	1455	-8088	3504	-11368	-567	-2224	-985	-9668	8956	9576	-1780	2462	-2820	-13504	7952	-3328	638	314	0	-14776	2680	888	-471	2224	-26	116	121	1
-11632	-2408	9492	2982	-32768	-27281	-5928	452	-6332	-6376	-32768	423	-5072	2704	-12392	-898	-1956	-998	-9948	6844	10228	-1602	2268	-3559	-13016	7440	-4440	-479	675	-248	-13440	1872	-240	67	2431	110	143	119	1
-15944	-2508	12624	-976	-32768	-30297	-6512	-2680	-8212	3010	-32768	3115	-3552	-64	-13656	174	-1290	-681	-10024	8124	9676	-1178	1599	-3364	-14760	1760	-5960	-882	838	-271	-13120	1568	-152	102	2519	162	133	127	1
-21692	-5860	14824	-3708	-32768	-32377	-7768	-1176	-9760	8882	-32768	5730	-2704	8	-16328	2130	-1023	-736	-9816	7304	10244	-1167	1165	-3308	-17112	-184	-4952	414	505	49	-12088	-4024	7440	-1604	3990	326	135	127	1
-25064	-8048	16688	-3811	-32768	-32117	-10400	1084	-10576	6357	-32768	7038	-32	4048	-18392	3431	-455	-616	-9788	7888	10112	-629	1403	-3616	-18224	4936	-2680	1337	318	221	-15696	-1008	4072	52	4887	-181	130	142	1
-29964	-9400	20936	-3584	-32768	-32768	-15012	296	-11768	7140	-32768	9758	872	4880	-16680	3416	44	-354	-9728	6156	10868	846	1861	-3310	-14792	4744	1488	1276	548	87	-16120	-2944	408	868	3297	70	127	132	1
-32768	-14364	26788	-3037	-32768	-32768	-24260	-812	-15604	10111	-32768	12152	568	3152	-15536	3622	584	-41	-9740	8088	10932	246	3101	-2143	-12632	8592	1760	1052	981	-41	-22312	3824	5952	-1215	1790	142	134	126	1
-32768	-19876	30416	2541	-32768	-32768	-32768	3140	-16052	6098	-32768	15920	16	2520	-14880	3720	653	16	-10256	7896	11756	-527	4770	-2038	-16208	10584	-720	448	1503	-250	-16480	5888	13832	142	2247	26	125	127	1
-32768	-4296	15552	3273	-32768	-32768	-32768	-788	-19908	-13008	-32768	15598	-19168	-6896	15160	1620	-952	58	-10172	11516	10628	-1499	6513	-3657	-15288	11840	1568	965	1711	-527	-18792	5904	10152	1174	2284	-80	140	136	1
-32768	-7952	-21256	8706	-32768	-28804	-19476	1900	-18028	-11298	-32768	5301	-32768	-880	32767	4423	-9045	-2034	-14744	11184	9772	-4189	5424	-6168	-16168	14288	560	1425	1957	-772	-21112	7216	6760	938	1379	446	114	138	1
-32768	32767	-32768	-23360	-22605	-10886	-9004	-10752	-26996	-22474	-19677	-8547	5032	-6888	32767	-2775	1940	516	-10768	9392	15268	-2595	11623	-14506	-19920	5640	-2240	1276	2381	-1045	-18576	5272	7248	1315	1069	57	116	131	1
-32768	21836	-32768	-24239	-230	4751	-6472	-10176	-20184	-5651	13649	1662	-17232	21416	32767	-1627	-1613	1983	-10548	8692	20260	-870	18673	-17274	-26352	8672	-3296	857	2766	-1438	-24368	6456	3056	1089	763	-203	110	130	1
-32768	816	-23532	16390	10890	32767	-11284	-1084	-23856	-3887	32767	-3535	-22856	-3392	2944	-3035	-1431	958	-10308	14864	17672	596	26570	-25137	-28624	6744	-1592	1263	2853	-1457	-24832	256	11784	780	103	3	133	134	1
10492	-32768	29536	13982	14813	32767	-32768	-1332	32767	16356	30156	-8870	-5296	3512	13384	-3230	553	-205	-10228	16440	19268	1726	32767	-32768	-32768	8960	2480	2047	2781	-1345	-27176	1416	18400	1358	-51	-18	118	130	1
29492	15600	15764	9877	32767	17240	-32768	6392	-21456	32767	21488	119	-20888	-6032	15904	511	1430	207	-4892	22880	20432	2247	32767	-32768	-32768	11656	10544	2972	2533	-1183	-27832	-2128	32767	84	-2579	-408	144	132	1
-4856	20540	4320	15487	32767	9858	-32768	1896	-18396	32767	30292	-3682	-32768	-9488	-2672	1908	360	-1744	-31780	22224	20408	9007	32767	-32768	-32768	25224	10968	5076	2320	-1277	-29656	-712	12208	2242	-2910	-1712	107	127	1
-6856	-25656	4688	-559	23572	14185	-2764	15048	-23232	6855	22864	-14349	-12992	32767	-30352	-232	2847	-238	-32768	32767	20388	15727	32767	-32768	-29848	32767	472	4167	2469	-1721	-25680	12800	-12776	2318	-2350	-1125	102	134	1
-23212	11132	11580	10564	4797	16257	-7908	-23912	-27900	-4228	19428	-18751	-3496	-22104	-19592	-4025	-1094	549	-32768	32767	17056	-620	32767	-32768	-21680	17336	-5208	2120	2743	-1871	-32768	12120	-8632	1130	-3553	683	116	132	1
-18768	-6260	12652	5512	1087	7279	-28052	440	-15632	6319	12918	-7430	-32768	-18760	-14056	831	1648	981	-18504	28020	20764	7063	27490	-32768	-15504	12072	-19952	-1312	2591	-1387	-32768	1032	-5384	-1312	-3486	895	139	130	1
-12528	-6304	12048	2004	754	1737	-16328	-5240	-9308	-10761	12071	-6911	-19768	5160	-7200	659	2138	-189	-32768	32767	11440	18071	-26150	3963	-16256	2328	-18960	-1490	1087	-866	-32768	-13424	-7632	-514	-3491	820	131	131	1
-11128	-4776	12072	1697	2265	1566	-14148	-1884	-9368	-21222	13619	-6559	-17608	1288	-3872	-663	1973	146	4084	32767	6412	-6028	-32768	14990	-12288	-1592	-1304	978	-1315	620	-32768	-8032	-6880	818	-3698	943	117	178	1
-10676	-3792	12724	262	2678	262	-19600	-3372	-7432	-13210	8626	-5654	-17496	-2312	-1424	-453	2191	615	6180	15520	6856	-11560	-32768	16395	-7024	-1672	-5112	987	-2291	1367	-27128	-1992	-7704	2119	-3361	1210	127	138	1
-11240	-5568	11560	-541	2626	66	-18632	-4628	-6516	-4403	4907	-3636	-19320	-5736	-2632	219	2523	468	-1804	5236	7476	2454	-29143	29036	-5224	-1264	-6336	30	-2892	1789	-19040	1640	-10592	1950	-3078	1649	128	125	1
-11328	-4976	11896	-160	2078	57	-17160	-744	-4164	-8514	3428	-1904	-16104	-3320	-776	896	2684	405	-5356	9560	6724	15132	-29021	32767	-5824	712	-7280	-440	-3556	2146	-13104	216	-10464	997	-2376	1320	136	135	1
-11316	-4964	11956	-922	2239	249	-15448	1436	-2944	-13936	4634	-1239	-15816	288	128	1353	2628	362	-7368	13236	7792	14143	-29417	32767	-5272	360	-5736	-1164	-4021	2658	-13344	-2648	-10784	847	-1847	1152	143	132	1
-11044	-5496	11660	-1522	2452	982	-16104	644	-2204	-19547	5566	-2308	-15472	440	-1192	818	2518	309	-9056	11200	9360	9644	-29377	32767	-7000	1464	-3872	-1798	-4251	3009	-7224	-2360	-11112	640	-1347	1074	131	135	1
-11204	-5196	11480	-2026	2958	1691	-16316	-3768	-2684	-11338	5484	-1676	-15880	-2560	-2736	-5	2807	80	-12432	7228	12148	12564	-28660	32767	-8104	2576	-4840	-2674	-4489	3134	-3856	-1216	-12360	-94	-893	1092	139	128	1
-11580	-4068	10756	-2861	5206	2571	-14756	-3276	-5576	1551	3972	-47	-14952	-584	2944	-60	2466	-104	-16508	11176	13864	16891	-28686	32767	-10136	1088	-7072	-3771	-4614	3184	-384	-2264	-14552	-1355	-575	1006	132	121	1
-11212	-4700	11264	-2343	3699	2728	-16252	2988	-4772	-1856	3213	-762	-7000	4296	11000	1016	3137	-94	-19608	14108	16180	16653	-28951	32767	-13200	-248	-8104	-4391	-4815	3169	744	-4808	-14768	-2115	-507	782	117	133	1
-11740	-5180	9584	-546	2038	3182	-15988	2912	-4548	-3781	3363	-1056	-14624	472	5992	-113	4565	-158	-23076	15444	20060	16616	-26984	32767	-18160	-1080	-8216	-4042	-5348	3021	840	-8088	-15376	-2032	-291	446	94	134	1
-11224	-5184	10244	816	1072	3939	-14612	1524	-80	-13805	5604	-2783	-17088	-3912	1120	-1764	4132	380	-29756	21032	24448	16953	-24483	32767	-25120	1792	-10992	-3726	-5790	2995	-168	-6568	-11792	-2648	-293	-12	127	132	1
-11864	-3568	10652	833	794	3116	-13204	2804	2076	-14541	8927	-3233	-21544	912	-3320	605	1837	-250	-32768	28668	27352	12466	-23367	32767	-32768	5376	-14232	-4042	-5974	3053	-1664	-4272	-3848	-3560	-934	-183	144	127	1
-11964	-2928	11152	1404	787	2690	-14904	-840	1296	-6581	11127	-2322	-14280	-1320	19664	1058	2105	-581	-32768	11408	28596	8739	-19421	32767	-32768	9976	-14784	-3223	-5863	2660	-10848	2144	6704	-3960	-1702	-65	127	131	1
-11900	-5184	12604	1388	1995	2053	-18952	-1348	1344	-2477	13800	-849	-15248	1776	9464	-1667	2393	116	-32768	9220	3612	-3740	-17423	32767	-22952	3792	-15368	-3118	-4645	1969	-32768	8312	32767	-4840	-6299	2221	123	173	1
-12200	-7124	13328	1319	4869	3622	-18504	-2004	4576	-4463	17617	-445	-22240	-4784	4272	-873	2127	-5	-32768	-32768	-18272	9457	-14470	26054	-2632	208	-24224	-978	-1776	1824	-12672	3752	32767	-6042	-749	-541	123	141	1
-12524	-5832	15336	1801	9484	6168	-19240	-1128	1928	2048	21556	235	-18520	-6296	8184	-417	1226	-546	-32768	-32404	-18200	23619	1318	-1635	-5584	9160	-23592	443	1334	-732	-14648	-27528	32767	72	-28	-2124	136	146	1
-12864	-1900	18992	1678	16390	6482	-22680	-1372	-1868	5162	24711	1490	-22592	-11264	5424	-703	1279	343	-32768	-12172	-6252	-22697	-9338	-32768	-15400	24	-26472	361	3469	-1399	-26224	-9432	5864	3435	-2540	488	122	150	1
-11964	-10180	19240	-669	25296	9500	-29856	1148	88	4808	26822	2646	-27968	-4304	4432	-320	656	325	-32768	4980	10468	-32599	13566	-32768	-25656	3488	-1776	2178	4494	-1206	-25384	-120	0	3491	-2427	937	111	135	1
-10924	-8568	20844	-1583	32767	15783	-28664	5060	1852	1524	29440	1529	-26288	1032	14104	-599	51	-74	24580	32767	32224	-19783	21823	-21557	-32768	-7888	22104	3389	2791	-429	8952	1928	-23360	4614	3937	-1776	130	148	1
-5008	-6420	24824	-2081	32767	27951	-32768	8992	4540	4121	31367	1539	-30752	664	24672	-755	-147	130	-32768	-6932	18748	-10389	32767	-13491	-8944	7840	-23288	-145	4073	-3221	-32768	21248	-10776	-509	683	1984	126	121	1
-11468	-18628	22780	-3687	32767	31152	-32768	20520	18848	-12620	32180	-153	-29280	11976	32767	-1861	-3627	1302	-12992	-17700	29064	2068	14142	-32768	-22728	-11096	-18872	-1894	3940	-1644	-22224	-26704	-25800	888	1400	-647	132	145	1
-32768	-484	22172	-21549	32767	32767	-32768	768	2996	-16820	32767	251	-27304	5336	17936	-3616	-5573	1665	-32768	27544	-7300	-17152	9827	-19476	-7184	19592	-26888	2158	2487	-166	-4552	48	-16360	2213	1372	556	116	119	1
-32768	-28520	13580	-32768	32767	19496	-32768	-11396	-1100	-18793	32767	9222	-32768	-17136	-14288	-4149	-2793	-190	-25444	2824	11340	-8507	3311	-6916	-20096	-4312	-21984	498	2146	-242	-32768	17248	-14056	532	1077	-1622	125	114	1
-29680	-32768	24648	-16927	32767	32767	-21240	-21024	-20364	2409	32767	5947	-32768	-21520	-19224	-691	-3443	-770	-11984	6088	13256	-3087	3562	-3099	-16624	2680	-15232	732	1675	-200	-21384	-3032	-7288	-342	2153	-522	117	116	1
-32768	-32768	30424	9088	447	25356	-22364	-2364	-29088	18749	14325	5699	-32768	5328	-5584	1919	-3620	-1691	-9492	11128	9260	-1384	2809	-2384	-18264	552	-12024	3564	679	59	-17840	872	-4424	359	2173	-100	140	129	1
-9412	-32356	27360	17285	-31793	-86	-13684	620	-9192	23620	-681	6181	-32768	7504	-10992	2006	-3420	-1403	-9696	8092	11192	19	2906	-1620	-14944	11024	-8056	1586	626	-91	-19192	3432	-2024	-165	2446	404	136	115	1
8100	-18796	19028	21991	-32768	-1209	-5796	-332	-752	18559	-15067	3623	-30240	6704	-6456	-89	-3450	-1673	-10080	8300	10300	373	2293	-1474	-15664	7536	-8456	-825	798	-282	-18488	1888	-2640	-625	2605	143	112	119	1
6944	-7248	13312	13324	-32768	-5229	-3096	2880	-5352	11074	-22186	3228	-23864	3000	-9584	-249	-2933	-1027	-10032	8508	10844	492	2395	-1126	-16312	4728	-8032	-1278	628	-248	-18936	1344	-744	-923	2447	-500	137	125	1
-3176	-4076	11316	-1959	-32768	-15302	-1460	1968	-7524	4928	-27911	4760	-16280	3056	-10864	-34	-2953	-1349	-10012	9044	10400	1292	2655	-839	-17096	1952	-5744	-406	444	-31	-16920	-1064	1568	-1016	2444	-717	157	127	1
-11488	-9828	8688	-8956	-32768	-25423	-1740	-312	-8840	-8570	-32768	4578	-11784	3424	-10952	-283	-2961	-1036	-9852	9412	9656	1585	2414	-1073	-15440	5016	-4088	1004	95	208	-15160	696	1584	-781	2538	-212	124	133	1
-9264	-11412	7116	-4346	-32768	-28600	-3440	180	-5520	-16025	-32768	4195	-7328	2784	-10952	-259	-2241	-1028	-9820	8944	9568	1065	1785	-1556	-13504	8912	-3648	1061	60	181	-15160	2920	-48	-344	2488	-136	127	128	1
-9416	-7052	7568	-604	-32768	-28330	-5032	368	-5488	-14945	-32768	-30	-5784	2992	-12432	30	-1706	-680	-9920	7744	9376	46	1315	-1753	-12128	9616	-4120	106	380	-60	-14000	5696	-2848	381	2485	-75	137	119	1
-14732	-4536	10620	-2798	-32768	-30006	-6200	-3252	-7124	-6776	-32768	488	-4680	1248	-12824	367	-1222	-645	-9856	8752	8904	-1357	1157	-1702	-12688	6992	-3904	-784	719	-241	-13864	5680	2368	515	2861	287	140	142	1
-20752	-7412	12980	-6571	-32768	-32714	-7584	-4812	-8388	3282	-32768	3174	-2720	-592	-15552	1732	-998	-689	-10628	7596	8880	-2511	516	-1936	-14696	3280	-5840	-383	603	-176	-9336	328	8864	-1957	3607	937	132	126	1
-25128	-11076	15408	-7129	-32768	-32768	-12104	-2012	-10024	5928	-32768	3435	-624	2592	-17432	3026	-482	-657	-9404	9652	8744	-4209	681	-2339	-15912	2840	-2296	893	343	119	-13112	-3120	5976	-1085	4580	268	126	140	1
-28584	-12236	18768	-6874	-32768	-32768	-16084	0	-11060	5595	-32768	5026	-1328	4392	-15864	3311	2	-617	-9940	5448	11288	-2354	1337	-2544	-16048	3752	-800	1065	529	140	-14416	-5552	2336	1172	3514	-13	122	132	1
-32768	-15156	23380	-6808	-32768	-32768	-24072	620	-12356	7002	-32768	6398	-1064	3600	-14936	3539	380	-432	-9844	6352	11644	-154	3107	-1775	-15176	5992	-320	811	875	14	-22264	-1896	2800	-347	1978	-97	127	139	1
-32768	-26856	26068	-2392	-32768	-32768	-26016	168	-12968	7956	-32768	6716	-1984	2672	-6328	3184	332	-60	-10236	7944	11004	1001	4649	-1917	-16208	7888	-2728	541	1240	-93	-17296	6192	11472	-739	2334	54	127	136	1
-32768	1692	19928	5993	-32768	-32768	-32768	7600	-11804	-3071	-32768	10438	-10152	-5088	12880	2209	-841	199	-10336	9760	11012	1342	6200	-2866	-16728	10584	504	1074	1411	-283	-18344	6824	10592	1304	2427	-150	125	128	1
-32768	-8432	-5972	347	-30425	-32768	-24716	-988	-18872	-14727	-32768	8471	-32768	-3536	21456	833	-5498	-1066	-11868	8624	8744	-3089	4448	-3181	-15928	11152	1328	1273	1405	-303	-19824	8688	9984	1056	1815	191	107	133	1
-32768	27832	-32768	-2813	-32438	-21453	-18884	-11720	-29452	-22012	-27162	-8719	-28920	25704	32767	3868	1381	-1054	-10732	12996	13476	-1247	10902	-11257	-20680	8656	1104	1165	2268	-935	-21928	4320	9280	1052	1343	308	139	134	1
-32768	32767	-32768	-32768	-12690	-5643	10844	-7096	-14776	-11453	5864	-283	-2304	19136	32767	-1621	-324	1244	-10640	6616	19772	225	17263	-14480	-22344	9416	-3328	1019	2697	-1318	-22232	8656	5704	1409	1078	-269	130	128	1
-32768	-40	-32768	106	6205	31343	-8980	-6456	-22836	2715	27794	-2212	-29392	208	7024	-2510	-1970	552	-10660	14820	17592	1895	23840	-18738	-28136	8224	-2192	969	2923	-1471	-24904	528	6648	980	452	42	139	128	1
-7164	300	19020	23086	8489	32767	-18480	-5160	-16824	9542	32767	-7922	-5104	-3784	5144	-3078	-413	-129	-7900	15844	17944	3282	31777	-27524	-29720	4216	-632	1840	2818	-1350	-24760	-3448	13040	1396	-172	-32	120	127	1
14412	-32768	23816	21805	7353	16612	-32768	12396	32767	32767	12298	4017	-1568	14112	-2408	-180	2978	24	-5428	20288	20712	5250	32767	-32768	-32768	8040	5224	2555	2598	-1129	-31640	584	27528	1595	-1443	-166	147	126	1
-32768	32767	-8704	11692	32767	-9450	-10576	7440	-32768	32767	31481	1859	-32768	-32768	19984	4089	-1504	-685	-14228	24200	22544	4230	32767	-32768	-32768	16352	14408	5202	1981	-1037	-29616	1192	32767	3023	-3502	-909	128	122	1
-32768	22676	30672	-725	20544	26830	-30796	10772	-26240	22923	31177	-5048	-14928	32767	-12768	896	3156	-322	-32768	31780	20256	17927	32767	-32768	-31784	32767	-2152	4691	2779	-1251	-25696	8800	1648	4001	-2535	-1759	148	135	1
-32768	-32768	1180	9162	28248	12364	-4084	-21244	-6828	-12569	25965	-11605	-1632	19416	-12416	-4911	-500	-592	-32768	32767	18428	16089	32767	-32768	-23472	22304	-2240	1535	3314	-2344	-31704	21632	-23432	1741	-2662	160	130	136	1
-12136	-340	14056	8673	6112	15552	-11488	-10988	-17888	9984	14676	-16721	-12304	-26136	-17080	-3542	-702	736	-4316	29444	30832	14285	32767	-32768	-21928	6928	-14968	-240	2978	-1821	-31112	9920	-6840	-1703	-3714	923	115	134	1
-13528	4004	15372	6089	3420	7522	-17852	876	-13840	-10674	15986	-8086	-27760	-11152	-11536	18	2026	67	-32768	27240	18336	27619	-4574	-21575	-17728	-2552	-30624	-1243	1700	-1762	-32768	-9952	-7736	-1517	-3156	637	115	138	1
-11092	-9296	10664	4756	500	4662	-14536	-5176	-8060	-22181	16620	-7292	-22448	-968	-8752	-488	1636	-239	-4580	32767	11120	4189	-32768	7631	-13488	3488	-1912	981	-312	-322	-32768	-11272	-5880	133	-3623	498	136	122	1
-12428	-3728	12356	3440	1814	3004	-17712	-5564	-10448	-15878	12462	-5181	-16656	-4312	-4056	-679	2375	536	10824	26356	5812	-14177	-32768	6068	-8288	-8	-1768	1360	-1731	663	-31944	-1368	-6792	1190	-3527	806	118	131	1
-12424	-4092	11916	1440	2207	1257	-19448	-6792	-9824	825	8509	-3132	-18872	-3904	-3856	245	2263	523	1500	8900	7144	-10323	-32768	12950	-4720	-560	-7200	226	-2519	1132	-24592	328	-9672	1877	-3178	1149	122	127	1
-11508	-4600	11664	586	1262	1013	-17172	-52	-8156	3567	4835	-3076	-18584	-864	-1960	1065	2823	418	-1164	8792	6428	5033	-32768	26670	-6224	-872	-7336	-300	-3284	1498	-18096	2552	-10104	1149	-2653	1275	136	132	1
-11392	-4768	11692	819	981	499	-16092	2208	-5536	-7248	3616	-1656	-17048	2616	248	1194	2702	60	-4216	11416	6324	11932	-32768	32767	-5992	192	-7280	-818	-4000	1956	-15376	-560	-10992	570	-2168	1098	140	136	1
-11396	-5152	11756	715	926	571	-15328	1164	-4052	-17659	5077	-2728	-15544	1648	592	782	2438	242	-7456	13388	6816	9955	-32768	32767	-5344	176	-5616	-1482	-4329	2392	-12720	-2584	-11800	542	-1965	905	155	135	1
-11508	-5392	11144	-177	698	644	-16260	-1496	-2940	-20647	5544	-2795	-15352	-2432	-472	492	2460	146	-9648	11624	9516	7878	-31631	32767	-8328	2336	-5008	-2147	-4621	2695	-8192	-2024	-11272	135	-1240	953	132	133	1
-11280	-5300	11196	85	621	891	-15284	-4104	-2728	-12166	5362	-2045	-15152	-2744	-3168	428	2727	90	-14996	10368	12088	11191	-30258	32767	-9120	3392	-6672	-3122	-4800	2787	-4448	-2104	-11824	-433	-886	914	132	135	1
-11316	-4316	11484	612	761	1147	-15756	-2900	-4196	114	4762	-954	-15080	-2488	-4176	142	3337	86	-17508	13464	13408	13924	-30051	32767	-11552	2336	-8400	-4127	-4932	2842	-736	-3448	-12760	-1667	-657	781	123	129	1
-11220	-4656	11020	890	923	1629	-16288	836	-7916	3383	3356	-654	-18952	6672	11896	961	3101	-138	-19276	16180	15860	13602	-27646	32767	-15776	1312	-8424	-4464	-5253	2792	144	-5368	-13104	-2345	-586	554	123	132	1
-10868	-5224	11524	58	965	1450	-17364	5484	-4592	-11646	3647	-1496	-6160	4808	10000	302	4657	-295	-23240	17984	19888	13779	-22961	32767	-20336	1704	-9408	-4074	-5720	2757	-320	-7056	-12872	-2067	-410	252	108	128	1
-10884	-4280	10952	-754	1107	2069	-12684	3016	-844	-19033	5665	-2798	-17720	3720	-7232	-2520	3192	466	-32768	25676	25188	13858	-19689	32767	-27832	5688	-13504	-3782	-6013	2814	-2184	-6264	-9968	-2304	-387	-161	106	130	1
-11008	-3464	11664	-529	1557	1911	-13692	-1368	324	-11982	8057	-4291	-20648	-6544	-5112	1055	1877	-325	-32768	31796	24824	9122	-23583	32767	-32768	5504	-14664	-4472	-5891	2929	-4864	-1928	-632	-2801	-1454	-87	135	132	1
-11248	-4492	12656	-390	3154	1223	-19776	-1564	-1248	-2186	8885	-1167	-17320	-8104	21904	266	2219	-658	-32768	-5244	20904	17198	-23705	32767	-32768	24	-19080	-1538	-6130	2353	-17448	8432	17600	-3266	-3010	436	131	133	1
-11548	-7068	12532	-861	5327	1997	-18948	-88	4340	-7239	12128	-678	-17272	-3016	4824	-1085	2568	457	-32768	1564	-2664	16560	-17443	32767	-20896	-288	-13800	-4	-5090	2224	-31072	6520	32767	-3481	-5909	1990	119	134	1
-11660	-7480	13796	80	8085	4278	-17768	-7324	8412	-4004	17183	89	-25264	-8088	13672	-204	1774	-184	-32768	-32768	-18920	14423	-16795	30351	432	9808	-30824	-216	-2086	1852	-2480	-2688	32767	-2193	396	-501	124	208	1
-12496	-5448	15636	1265	12290	7900	-19096	528	3028	4449	21515	114	-17888	-2704	12936	-462	1067	-363	-32768	-32768	-22628	18008	-13601	-6003	-5224	11424	-26320	585	1725	53	-12280	-9296	32767	1679	-1092	-709	125	140	1
-12952	-3268	18880	622	19214	7812	-24584	688	-1816	4751	25678	1285	-24128	-5320	4752	-1090	1127	286	-32768	-8192	-5888	-18032	-14477	-32768	-14080	-2056	-25720	-12	3695	-1324	-25304	2112	1360	2573	-1331	1308	120	132	1
-11200	-8732	19136	-1238	27938	11335	-28248	968	16	4520	27526	1793	-26160	256	5904	-924	302	-23	-2508	14448	8920	-32768	6873	-32768	-32768	-4176	12552	2834	3566	-1007	-11640	-7040	-304	2483	-773	416	113	153	1
-9348	-8132	21360	-2310	32767	17951	-29316	5316	152	1607	29696	539	-25880	776	12240	-1240	-75	-122	14368	11620	26764	-14417	29385	-24822	-32768	-11152	1984	3112	2991	-636	-3936	7216	25184	576	1536	-1167	114	154	1
-7572	-9852	23284	-2046	32767	28496	-32768	11756	3704	-890	30500	-119	-31768	184	20712	-1466	-426	284	15044	-17256	22296	-11023	32767	-25588	-11992	5056	-20128	-474	4710	-3078	-31360	-1768	-16608	-1181	1361	442	137	127	1
-20384	-16516	19764	-8772	32767	32631	-32768	15768	18500	-21952	32767	-1999	-28072	11800	32767	-2801	-4280	1396	-944	508	10984	6525	17061	-31081	-15112	-10048	-13640	-2065	3894	-1915	-19984	-32768	-32768	2554	1902	382	137	101	1
-32768	3288	23408	-31130	32767	25931	-32768	-6260	2108	-21715	32767	-1408	-17584	928	-3216	-4300	-2837	1327	-32768	32767	-13100	-21231	15742	-24144	-3400	19128	-28896	2479	1870	-4	-2128	8400	-11840	1992	1350	301	132	127	1
-32768	-30532	11128	-32768	32767	24648	-32768	-9036	-96	-22100	32767	6118	-18240	200	-2976	-5188	-2074	1075	-17236	-4252	18748	-9511	3199	-11830	-26880	-6120	-21536	-880	2476	-404	-32768	20600	-14528	1	1114	-1419	119	111	1
-10708	-32768	26924	-17242	32767	32767	-17740	-18944	-24984	9383	31828	6488	-32768	-17200	-18128	187	-3335	-1187	-10416	4684	14460	-6191	2404	-6398	-15000	376	-14448	1203	1560	-156	-22912	-5840	-5624	-406	2108	-476	118	120	1
-32768	-32768	27288	7331	-5428	21976	-22084	-176	-26448	15962	12059	3732	-32768	792	-4216	2279	-3572	-1239	-10124	9204	10672	-2847	2132	-2852	-20504	-4424	-10592	3588	564	-109	-13656	-3504	-2848	164	2346	133	149	119	1
-9944	-31168	25772	17562	-32768	-2504	-15224	1352	-4908	18191	-2401	5051	-32768	6408	-8416	1415	-3427	-1232	-9936	5592	12376	-342	3175	-1322	-14936	11112	-6976	2495	351	125	-18328	-416	-1640	172	2419	407	127	116	1
7944	-13868	18184	21614	-32768	-412	-6168	-1692	-1004	15600	-15597	2731	-29584	6480	-6272	51	-3725	-1811	-9740	9480	9864	898	2549	-1395	-13816	12400	-8720	-807	935	-293	-19472	3336	-3176	-14	2538	119	109	123	1
4436	-4792	13988	11624	-32768	-6828	-5200	2828	-6640	14148	-23151	3582	-22760	2616	-8000	-549	-2971	-1183	-9944	9584	9836	1136	2514	-1232	-16744	4920	-7624	-2136	1006	-384	-18344	4376	-1488	-436	2346	-699	127	129	1
-5760	-4744	11448	-1832	-32768	-17073	-1808	2116	-8736	6823	-28562	5639	-21616	2760	-8696	-559	-2925	-1254	-9812	9548	10124	1348	2840	-1164	-17808	824	-6408	-655	410	-126	-16064	2072	848	-904	2416	-715	144	135	1
-10664	-10304	9352	-5193	-32768	-23505	-2276	1840	-8004	-7090	-32768	5703	-11784	3176	-11680	-498	-2883	-1077	-9740	10216	9244	1421	2569	-1526	-15296	4656	-4464	1507	-114	208	-15928	408	920	-857	2484	-238	133	127	1
-10248	-8376	7568	-1508	-32768	-25509	-3672	868	-5796	-13361	-32768	4895	-7424	2104	-10752	-86	-2151	-995	-9864	9432	9216	924	2025	-1929	-13712	9352	-2376	1616	-70	213	-15560	1232	392	-303	2359	-129	143	119	1
-11256	-5448	8416	-257	-32768	-26525	-5536	804	-5784	-12158	-32768	1900	-5128	3376	-11600	321	-1481	-682	-9716	8420	9556	169	1799	-1987	-12096	10512	-1704	218	417	-66	-14544	2624	-1024	649	2370	-197	143	144	1
-16316	-4908	11032	-2476	-32768	-28170	-7268	-2576	-7012	-4887	-32768	2935	-4152	1728	-12096	797	-1101	-586	-9884	8208	9184	-1245	1677	-2076	-12936	6592	-5960	-1331	1051	-366	-11896	4328	5368	62	2444	129	129	132	1
-20940	-7044	13356	-5280	-32768	-29712	-8988	-2964	-8184	3771	-32768	4533	-2304	1240	-14752	2153	-920	-701	-9936	8988	8920	-1952	1371	-1992	-15544	1648	-3656	-428	803	-261	-8824	464	9576	-1853	3277	628	123	123	1
-24784	-9328	15724	-6231	-32768	-29928	-12540	-188	-9600	4941	-32768	4853	-40	4888	-14912	3087	-344	-520	-9240	9516	8312	-4146	1394	-2520	-13976	3264	-1320	1204	461	54	-14168	-256	5976	-737	4270	227	116	128	1
-27388	-10764	19504	-6497	-32768	-31135	-17600	804	-10544	4030	-32768	5307	-40	5064	-14872	3080	-284	-481	-9876	6556	10420	-3818	1967	-2471	-14232	6560	-376	1156	758	-4	-15928	-2128	2704	1429	3224	-51	115	139	1
-32500	-13300	24068	-6634	-32768	-32768	-25496	620	-12048	6113	-32768	6855	-1912	3592	-12296	3159	245	-114	-10256	7316	11020	-1628	3170	-2570	-15336	7120	-712	424	1241	-223	-21640	-504	2464	-253	1528	-26	121	135	1
-32768	-22840	26400	-2849	-32768	-32768	-32768	-488	-14612	8240	-32768	8830	-2848	2112	-4296	2928	137	163	-10588	8808	10948	-450	4427	-3665	-16888	7984	-4472	521	1461	-253	-15240	5976	11152	-1083	2143	57	123	133	1
-32768	3548	19456	2444	-32534	-32768	-32768	6040	-17000	-2716	-32768	10369	-14616	-6048	14232	1676	-1343	277	-10576	10092	10904	-311	5990	-5191	-17280	8696	-1936	1206	1427	-373	-15256	3872	6728	1320	2659	-177	131	130	1
-32768	-10500	-7048	413	-32669	-32768	-22932	-1948	-20036	-15282	-32768	7833	-32768	-6096	25456	1242	-5232	-1194	-12112	10504	11432	-1687	7770	-6748	-13712	14040	8	1670	1640	-663	-18072	7880	7736	1025	1916	143	108	129	1
-32768	32767	-32768	-8782	-32768	-18496	-14988	-10460	-29412	-31904	-22323	-11397	-1360	10736	32767	160	2598	-875	-10568	11512	14324	-1602	11632	-12191	-22056	7384	-144	910	2326	-1041	-22424	4280	9976	613	1541	267	1	129	1
-32768	32767	-32768	-32768	-11104	-3611	5768	-10616	-14468	-8955	8443	-582	-13480	17608	32767	-1779	-1120	1297	-10320	8024	20256	-606	18638	-15474	-24880	9704	-2976	766	2750	-1443	-23688	7688	7536	1099	1087	-191	117	128	1
-32768	-5564	-28488	2336	6239	32605	-9308	-7480	-23724	8059	29260	-3661	-29032	-6520	4800	-3432	-2096	274	-10872	16844	17100	1249	25687	-22246	-27464	9384	-152	1206	2848	-1431	-24648	1432	9704	781	322	-80	148	128	1
-16960	-15616	32767	27362	9697	32767	-24000	-1572	11392	22130	32358	-6451	-2560	-1168	6232	-3140	401	-82	-9336	17996	17156	1963	32767	-31961	-30032	8928	152	1820	2881	-1358	-25736	-1880	18360	1159	-441	-106	158	126	1
28840	-4288	32767	13595	23754	25429	-32768	18456	-4536	32767	19100	1967	-15464	104	1264	1755	1835	-115	-9044	18560	17512	2211	32767	-32768	-32768	12952	8336	2835	2525	-1172	-32280	4944	32767	1914	-1954	-36	151	130	1
-32768	12396	32767	14097	32767	119	-32768	7084	-24748	32767	31168	1493	-32768	-13944	5288	3319	-45	-45	-30592	26144	22444	5655	32767	-32768	-32768	24184	11728	5034	2189	-1277	-26040	-5160	23608	246	-3179	-1352	160	126	1
-56	656	11548	-3647	20106	19576	-3988	19140	-26308	8089	30315	-19588	-15536	32767	-32768	2327	4596	-841	-32768	32767	21112	14803	32767	-32768	-32104	32767	-448	3747	2802	-1798	-28984	12360	-2368	1717	-2466	-1070	124	139	1
-32768	-15620	4868	10637	16871	16384	1936	18912	-24020	4157	26665	-18108	5288	-4552	-13448	-4372	-1371	698	-32768	32767	17468	-1341	32767	-32768	-30456	32767	-1992	3372	2762	-1940	-32768	14760	-17616	385	-3469	707	155	137	1
-15400	-10088	14300	9436	3180	13616	-23628	80	-14276	14942	12226	-13253	-32768	-25752	-20752	-133	1009	999	26820	32767	28236	13509	32767	-32768	-15240	8384	-25856	-1670	2941	-1624	-32768	792	-2840	-1776	-3459	882	67	128	1
-13228	-3172	12772	4045	1987	4741	-15192	-9108	-11024	-8549	12828	-6995	-23576	-4112	-10696	254	2148	-318	-32768	32767	15724	14764	-23471	3993	-18352	576	-26392	-2493	1520	-1336	-32768	-12664	-7752	-618	-3465	678	140	141	1
-11448	-3720	12740	3710	708	3294	-15276	-1200	-9464	-14933	13253	-6406	-18472	1360	-4696	-242	2055	-34	5016	32767	11040	-11230	-32768	19348	-13952	-2888	528	879	-1307	192	-32768	-7552	-6496	688	-3865	693	127	148	1
-10548	-3208	12848	1927	1587	1382	-17900	-72	-9800	-20992	9973	-5670	-13592	-456	-2248	-49	2368	637	10192	14752	8584	-15271	-32768	16711	-6696	-2416	-2672	1317	-2406	1063	-29872	-1720	-8248	1787	-3597	938	122	129	1
-9816	-5880	12276	601	2063	827	-18732	-5400	-6368	-5122	6038	-3646	-19536	-2072	-504	466	2792	462	-556	4880	8604	983	-32768	26327	-4832	-464	-6792	61	-3097	1552	-19184	392	-10272	1911	-3204	1143	121	156	1
-10812	-4320	11776	507	2032	1024	-17320	-568	-5128	-1132	3130	-2650	-17064	-976	-48	660	2745	386	-4076	9772	7716	14006	-32768	32767	-5048	376	-6936	-507	-3824	1963	-13024	592	-10312	1052	-2469	1296	141	112	1
-11272	-4924	12056	397	2112	434	-16428	1736	-2276	-10431	2802	-1567	-15056	-472	1016	1121	2733	189	-6044	11656	7388	14955	-32768	32767	-4728	-792	-5064	-923	-4505	2548	-12464	-296	-11288	819	-2317	1241	142	132	1
-11144	-5156	11712	112	2167	469	-15200	620	-2056	-19026	5188	-2235	-15168	104	-1024	918	2563	295	-7176	10208	8676	11696	-32768	32767	-6184	704	-2824	-1406	-4688	2900	-5808	-2248	-11688	530	-1308	790	138	181	1
-10996	-6200	11464	58	1747	954	-16092	-1508	-2024	-21367	6179	-2224	-15896	-1984	-3680	140	2779	257	-7608	9760	9064	11502	-32768	32767	-7528	2040	-4096	-2123	-4881	3042	-2728	-1928	-12064	36	-831	792	144	111	1
-11120	-5424	11408	773	1677	2051	-15460	-4120	-4856	-10132	5452	-2867	-15568	-152	3528	-5	2594	-83	-14932	10704	13236	16930	-32476	32767	-9768	1208	-6472	-3240	-4957	3110	-64	-2680	-14312	-1237	-537	702	122	125	1
-11096	-2684	11876	249	1583	1441	-16500	2264	-4660	-1495	4018	-818	-9048	6224	11520	1622	2849	-352	-17476	13980	15856	17326	-30010	32767	-13904	400	-7384	-3958	-5116	3137	1240	-5312	-13816	-2045	-495	488	127	127	1
-10988	-4516	10916	-456	1632	1446	-15308	4436	-2824	-12490	5511	-2281	-13608	2208	6952	260	4418	-108	-21164	15840	20108	18182	-25135	32767	-19208	88	-8688	-3744	-5564	3035	1312	-6800	-12832	-1850	-344	203	107	129	1
-10704	-4312	11136	-618	1837	2063	-14808	468	-384	-16127	7286	-3462	-17984	-2288	840	-2804	3979	511	-30796	21968	24556	18898	-20659	32767	-25504	3960	-11272	-3322	-5898	3028	-1144	-5128	-11216	-2437	-367	-75	128	126	1
-11112	-3260	12260	-1131	2798	2183	-15132	2796	796	-12033	10030	-4123	-21640	552	-6496	638	1924	-363	-32768	32388	25784	13847	-20596	32767	-32768	11480	-13312	-3962	-5869	3076	-1792	-4400	-9840	-2587	-461	-109	139	125	1
-11584	-3880	12228	-1226	4282	1161	-16412	-824	-328	-4614	11522	-1979	-15296	-4784	17112	1069	2250	-577	-32768	7000	24172	9370	-18358	32767	-32768	5216	-12624	-3451	-5787	2617	-11472	5376	7800	-2982	-2199	-202	126	125	1
-11628	-5536	12780	-1258	6616	894	-17088	-1972	-96	-4553	11905	-1953	-15416	-2144	9536	-1453	2448	217	-32768	5024	5628	9209	-12444	32767	-19664	9480	-14784	-1184	-5333	1995	-31496	10744	32767	-3340	-5984	1426	126	130	1
-11816	-6696	13228	-891	9004	2962	-16756	-4392	4652	-1423	18004	58	-21848	-8208	5792	-305	2168	-71	-32768	-32768	-20812	12307	-13582	32767	-7424	5320	-32768	-890	-2180	1734	-21008	-13016	32767	-3528	80	129	118	143	1
-11900	-7160	15532	490	12875	5926	-20280	-484	1908	4511	22098	530	-19496	-5000	9344	-151	1254	-340	-32768	-32768	-23560	32767	-4764	11988	-4680	6008	-17824	2238	306	424	-4280	-17608	32767	2568	212	-1138	127	155	1
-13272	-2184	19620	543	19306	6697	-23284	-948	-2016	5929	25351	1986	-23648	-6608	4544	-727	1177	230	-32768	8960	-15780	-10109	-8555	-25163	-12248	10392	-22328	1389	2779	-878	-27960	7432	2296	3982	-2168	912	121	115	1
-11336	-9224	18284	-1617	27625	9188	-28408	428	-12	5388	27194	3028	-25760	-1904	5528	-766	584	125	-32768	7288	9880	-32768	3679	-32768	-18984	2336	-7624	-159	4372	-1385	-12464	13192	-1008	1704	-99	1306	121	140	1
-10120	-9900	19488	-2534	32767	15902	-26756	3524	1452	1531	29403	1720	-24656	-80	12072	-1074	43	-51	32767	32767	32767	-29742	5921	-32768	-32768	-728	32767	1254	2898	-482	-11152	8576	23784	-132	799	1232	116	168	1
-7652	-10560	23136	-2583	32767	27337	-32768	9600	3128	-2021	30684	600	-32672	296	20352	-1424	-333	99	32767	20356	32767	-28777	23152	-32768	-32768	-200	-32768	-741	4713	-3163	-27736	12168	7216	-3272	1905	-114	117	143	1
-15696	-20668	21540	-5063	32767	32767	-32768	16036	20112	-19887	32737	-440	-29320	8968	32736	-2208	-3590	1199	-3424	13396	10860	2946	13989	-28252	-15384	-4864	-20232	-665	4371	-2024	-32768	-32768	-32768	2135	3677	-1846	129	156	1
-32768	9916	23796	-21439	32767	32767	-32768	-5420	3688	-17472	32767	363	-23376	-2592	-2880	-4212	-5519	1601	-32768	11124	504	-19314	8523	-23799	7024	11704	-28864	2608	2494	-47	13752	11424	-11600	4505	-100	1280	128	84	1
-32768	-31108	11624	-32768	32767	26429	-32768	-5876	-5188	-31875	32767	9808	-32768	-7712	-10440	-2794	-2952	-580	-16396	11520	13840	-11785	2185	-11137	-24800	-2184	-19992	-727	2363	-488	-32768	25752	-19800	-276	903	-1417	116	131	1
-30648	-32768	18256	-24834	32767	32767	-19408	-20728	5568	12402	28372	8375	-32768	-16272	-17928	370	-3266	-1362	-11852	10276	10680	-5307	1782	-3692	-18960	-2208	-12080	111	2007	-634	-32768	-12120	-8216	-1346	2322	202	105	123	1
-32768	-32768	20328	9207	26828	28716	-15884	-320	-32768	23588	11545	4514	-32768	8032	-4912	1639	-3476	-1028	-10016	7216	11668	-2297	1409	-2888	-19512	-7072	-12976	3344	687	33	-16592	-10480	-4016	443	2343	-371	146	124	1
-24508	-32768	25732	20556	-32768	-16350	-19188	5544	-8036	9862	240	1319	-32768	7368	-7600	1041	-3441	-1115	-9600	5932	12828	344	1758	-1005	-16088	7048	-9488	2852	355	261	-15000	-1120	-2888	482	2385	474	147	132	1
6104	-20388	20492	32628	-32768	-8741	-8372	272	768	8299	-15129	2372	-29568	3016	-4856	-46	-3625	-1774	-9672	8756	10500	1644	2284	-675	-14592	11160	-9328	-18	642	8	-22880	3528	-4968	201	2602	-268	137	121	1
9204	196	17316	19950	-32768	-6438	-1984	-1112	-1152	10989	-22540	-720	-22592	2440	-7392	-484	-3064	-1013	-9568	8940	10372	1673	3182	-285	-16680	7008	-8016	-1680	703	-193	-19032	7056	-3056	-325	2432	-988	160	134	1
-5220	2860	13608	-2625	-32768	-14990	-4036	-588	-7336	14838	-29448	1680	-16536	2640	-10112	-309	-2783	-997	-9596	9656	10044	2184	2893	-237	-16928	2680	-6200	-656	332	-86	-16240	5184	336	-1090	2550	-951	147	134	1
-9052	-9868	11756	-9917	-32768	-19323	-2532	3792	-6396	935	-32768	1482	-12368	3584	-10272	-271	-2770	-831	-9380	10320	9420	2292	2270	-685	-15304	5240	-3488	1408	-135	199	-15720	896	1424	-1126	2582	-365	126	133	1
-11496	-9536	9748	-5446	-32768	-19205	-5620	2792	-6516	-9313	-32768	3350	-7584	2440	-11304	-375	-2410	-822	-9508	9696	9252	1591	1520	-1501	-13816	10096	-2312	1623	-139	227	-15928	1656	-16	-255	2420	-103	113	113	1
-11792	-4772	9720	-2016	-32768	-22577	-6016	2072	-6392	-9017	-32768	2393	-5656	2024	-11680	-31	-1486	-640	-9708	8352	9584	472	1210	-1871	-11976	10240	-1968	229	317	-93	-14560	4024	-360	927	2381	-179	148	144	1
-14008	-3900	12488	-2654	-32768	-27259	-8420	1156	-7580	-6049	-32768	3570	-3840	840	-12664	519	-1158	-643	-9628	8264	9484	277	1289	-1971	-13000	5528	-5424	-1033	815	-292	-10112	3904	5936	-559	2637	353	140	128	1
-20852	-5892	15300	-4207	-32768	-30553	-9320	-2484	-8548	-112	-32768	6912	-2696	-760	-14992	1774	-933	-748	-9512	8932	8744	-2671	960	-1930	-14712	3072	-2024	-207	645	-251	-8544	3024	9768	-2074	3428	574	130	123	1
-25868	-8560	17572	-4338	-32768	-31362	-13056	-1140	-9744	2908	-32768	7615	320	2752	-18008	3174	-146	-692	-8800	10116	8296	-4855	896	-2922	-12704	4616	-424	742	603	-52	-13952	-64	7120	-186	4214	136	128	123	1
-29364	-10708	21124	-3418	-32768	-31875	-18240	356	-10896	2687	-32768	8721	-1024	4192	-15592	3231	260	-491	-9588	6136	11368	-3805	1532	-2447	-15200	5064	344	623	932	-158	-17960	-5240	4120	1359	2889	-20	126	132	1
-32768	-16356	25528	-2597	-32768	-32768	-27096	-732	-14116	8142	-32768	9925	-1360	2360	-13520	3632	403	-276	-9932	7752	11296	-1586	2547	-2747	-16728	5152	-1392	582	1223	-187	-22464	-2512	7248	-922	1916	-64	127	122	1
-32768	-23760	23624	3893	-32768	-32768	-32768	2412	-19320	16263	-32768	11184	-1472	848	-5240	3383	159	137	-10256	8360	11888	63	4299	-3384	-18000	8416	-3776	771	1418	-239	-14224	4088	8296	142	2453	-112	121	138	1
-32768	3180	12316	3717	-32768	-32768	-32768	3564	-22308	-2725	-32768	12114	-15816	-2064	14328	2250	-2004	365	-10500	10124	10744	303	5802	-5114	-15192	8960	-1552	1287	1453	-369	-16584	4592	5104	1489	2334	-176	130	133	1
-32768	-6276	-17064	567	-32768	-32768	-18676	3772	-21344	-14810	-32768	6481	-32768	984	32767	3049	-8010	-1374	-8332	14288	15112	-992	5722	-5922	-13480	14552	-1016	1437	1756	-650	-17224	7952	6680	857	1809	275	130	126	1
-32768	32767	-32768	-15938	-31642	-21742	-11304	-15724	-25888	-32709	-19271	-9137	3848	-3008	32767	-3268	1660	769	-10572	10616	14496	-1795	10329	-13202	-21152	6144	-2184	1096	2262	-928	-20136	6368	6792	1025	1603	122	124	133	1
-32768	32767	-32768	-26036	-10046	8636	-2072	-16064	-17864	-3685	10712	682	-13472	13104	32767	-2043	-1736	1190	-10852	8492	20268	-281	17074	-15271	-26216	9808	-2592	1016	2552	-1333	-25904	9232	4816	918	1102	-265	111	125	1
-32768	1576	-25192	7204	1856	32767	-10256	-996	-25264	1779	30420	-3814	-24976	-5472	2000	-3042	-1819	528	-10772	15720	17772	1048	24454	-23019	-28512	9792	-1088	1300	2735	-1385	-26488	-152	11040	732	333	-71	129	132	1
-22760	-14192	21364	18461	13142	32767	-24096	-7024	2320	15213	32482	-5366	704	9016	7728	-4304	898	603	-9924	17352	18376	2251	32327	-32326	-31312	8800	224	1890	2770	-1365	-26152	-2128	18696	1450	-49	-97	103	133	1
13032	-19252	32767	7201	18898	16759	-32768	21956	-572	32767	16024	4404	-14440	3088	-18296	808	2152	-326	-6280	23620	19684	3064	32767	-32768	-32768	11800	7560	2894	2516	-1126	-32768	4512	32767	1892	-1572	-43	163	136	1
-32768	21280	29144	10864	32767	-6777	-32768	-1548	-25440	32767	30133	530	-32768	-32768	18176	4050	-781	-909	-23960	26128	23268	5629	32767	-32768	-32768	12960	8216	3143	2467	-1106	-29960	2256	32767	-229	-4548	-750	135	121	1
-18876	8100	19468	-4508	21327	20057	-17064	11600	-29240	25227	25125	-12376	-13528	32767	-32768	3479	4374	-342	-32768	32767	24284	20196	32767	-32768	-32768	32767	720	4520	2504	-1733	-32464	15456	-5512	1551	-2079	-1531	126	130	1
-28020	-2864	6308	13388	8913	19779	-10148	-30296	-16688	-10870	21405	-18201	-3416	2344	-26032	-5580	-573	145	-32768	32767	14012	1831	32767	-32768	-21528	23224	2296	3077	2624	-2410	-32768	14768	-21496	163	-3598	661	88	133	1
-23968	-8220	10316	8233	-1028	10644	-18380	-2848	-18564	7488	10859	-12498	-24704	-25336	-19832	-1860	686	1472	25312	32767	23800	-118	28548	-32768	-16064	11720	-22856	-2754	3363	-1941	-32768	-792	-2512	-1555	-3525	1156	144	135	1
-14408	-3748	12168	2603	-9	2322	-19884	-532	-12172	-15590	12820	-8982	-27088	-3760	-10440	139	2218	-285	-32768	32767	20000	6931	-25193	-1838	-19544	-784	-24728	-4203	1994	-1494	-32768	-13856	-8432	-331	-3378	1101	125	140	1
-11092	-6944	11880	1571	378	783	-15856	-3796	-6996	-28101	13183	-6353	-19984	-1888	-4000	-661	1905	-141	9828	32767	11028	-9655	-32768	14622	-15176	-4856	808	-469	-1344	48	-32768	-7040	-7984	475	-4018	960	127	146	1
-11076	-3968	11928	806	1220	657	-17760	-2100	-7952	-27675	10236	-5216	-12768	-5224	-2224	-379	2673	525	10540	14964	9540	-8880	-32264	15315	-6448	-5656	-3952	1171	-2646	1011	-28768	-2008	-9464	1658	-3636	1089	136	136	1
-10788	-5792	11844	-149	2109	4	-18920	-9072	-5260	-2668	6592	-3294	-17784	-4528	-1168	666	2803	280	-3448	7336	8064	6609	-30431	28618	-4128	-1616	-7680	694	-3421	1599	-17080	752	-10416	1338	-3202	1347	130	138	1
-11040	-4900	11552	15	1674	49	-17172	792	-4552	2780	3984	-2450	-15072	224	-1352	1196	2929	442	-5536	11424	7048	16065	-32768	32767	-4008	536	-5960	444	-4269	2022	-9368	-2056	-9720	516	-2506	1316	126	122	1
-10840	-4916	12080	-141	1829	149	-15300	3740	-3260	-6015	4022	55	-16120	496	-1016	1567	2839	74	-5980	11992	6900	14323	-32768	32767	-3520	496	-3952	-237	-4579	2585	-9528	-3032	-10904	529	-2131	927	157	129	1
-11016	-5080	11604	-467	1990	157	-14312	2544	-2816	-16855	5700	-2039	-16288	1672	-2304	887	2417	-5	-7788	9748	8352	9900	-31363	32767	-5904	1976	-2160	-1124	-4621	2929	-4928	-3336	-11344	278	-1433	800	150	134	1
-11092	-5792	11336	-413	1547	1051	-16760	-1420	-3888	-19999	5459	-2341	-15184	672	-904	-221	2314	-19	-11284	8572	11240	10593	-29409	32767	-7816	2576	-3992	-2340	-4596	3076	-2544	-984	-12088	-146	-1011	807	121	133	1
-11312	-3964	11352	-286	1323	1475	-15156	-2600	-3840	-10528	4796	-2545	-11784	2088	7672	-6	2263	80	-15368	10724	13932	14606	-28838	32767	-10248	1712	-7312	-3706	-4685	3118	-872	-2304	-14008	-1137	-720	770	129	128	1
-11252	-3672	11340	-586	1322	1204	-16304	2204	-3412	-4029	3760	-1142	-6432	5968	11984	1019	4327	-922	-19160	13992	16472	16383	-27820	32767	-14448	-32	-7920	-4407	-4976	3129	512	-4648	-14376	-1922	-629	602	111	132	1
-11088	-5512	10724	-541	1178	1540	-16340	2764	-1380	-14531	5820	-2721	-20368	-4496	4712	-2114	4628	251	-23728	16380	19620	17668	-25005	32767	-18560	56	-8824	-4152	-5447	2985	120	-6304	-14112	-2022	-459	251	124	129	1
-10880	-3908	10760	-489	917	2374	-13192	-88	1904	-12967	7811	-2603	-19160	-4784	5056	-2410	4663	313	-32768	24688	23316	16091	-22585	32767	-25304	3856	-11536	-3882	-5790	2905	-568	-6328	-12736	-2699	-316	-106	144	127	1
-10916	-4792	11492	-96	1450	2696	-12644	-556	2768	-8588	10779	-3551	-18808	-1232	3504	1575	1791	-735	-32768	32767	24032	5944	-23595	32767	-32768	9384	-14624	-4766	-5763	2917	-4408	-3928	-1416	-3207	-1102	-240	127	128	1
-11460	-3696	12964	-101	3033	1782	-18828	-1920	-236	-993	13056	-1503	-14368	-6960	17208	-735	2200	-209	-32768	1740	24760	2897	-18797	32767	-32768	4512	-12576	-3507	-5816	2218	-12968	3256	5384	-3543	-1798	-222	131	130	1
-11880	-7224	12608	-618	5538	2459	-18276	-1092	2612	-3509	15535	-462	-18624	-3072	3176	-1081	2320	294	-32768	7776	1336	-1117	-13045	32767	-20408	6568	-16256	-2047	-5061	1780	-32768	8304	32767	-4516	-6246	2122	115	130	1
-11404	-7916	14096	-33	8359	4865	-18052	-5740	4220	-1491	19716	265	-20488	-5704	9184	-217	1528	-532	-32768	-32768	-18420	11073	-13663	32767	-3824	3968	-32768	-872	-2157	2039	-5816	-3016	32767	-4588	-39	-580	127	195	1
-12504	-6768	15368	1041	12674	8412	-19980	2316	-232	3083	23005	-125	-16824	-1456	7720	-1011	1053	-356	-32768	-32768	-24512	32767	-1067	11788	-6600	6616	-21240	1424	804	40	-6232	-19344	32767	394	-631	-2233	124	138	1
-12684	-1804	19844	936	19668	8120	-23452	-660	-2464	5150	26366	1735	-25544	-10072	3328	-949	1276	206	-32768	6012	-15684	-15077	-9117	-31007	-11792	6880	-22488	2031	2840	-997	-25312	-592	1120	3915	-1606	591	117	139	1
-11808	-9656	19380	-497	28243	12137	-28476	1632	-536	5856	28140	2649	-26192	-416	4888	-618	174	38	-32768	-8616	672	-21949	-2933	-32768	-14456	-5192	-32768	434	4772	-1400	-6240	2896	-4824	3429	-66	718	123	138	1
-10764	-9284	19684	-1448	32767	18938	-27500	4716	-232	2239	30343	638	-22904	2072	14704	-1273	-153	-9	3156	32767	11044	-17246	6015	-16975	-32768	544	32767	3506	2077	-366	14672	8792	-14528	2908	2754	-1019	131	152	1
-6584	-12112	22944	-2799	32767	31717	-32768	8240	4084	-3753	30986	-1140	-31128	3376	20912	-1692	-330	119	-32768	-32768	15636	-15102	32767	-32013	-27616	22464	-32768	1221	3147	-2393	-32768	28024	11064	-3713	-899	2364	126	103	1
-22504	-18548	20352	-4424	32767	32767	-32768	11840	17156	-17551	32767	-2538	-28464	6248	32767	-2590	-3392	1143	-21544	-2732	28396	-387	16832	-32768	-22328	-10664	-24472	-3465	5143	-2327	-23792	-32768	-21200	1507	4007	-1769	139	141	1
-32768	3484	26752	-25721	32767	30029	-32768	-3800	4304	-9301	32767	-1354	-21360	-6248	-5648	-4529	-2819	1253	-28696	27076	-3580	-19290	12257	-21170	1336	19352	-30248	-580	4623	-616	7064	6912	-19736	3688	380	1860	124	112	1
-32768	-31604	18532	-32768	32767	21402	-32768	-7320	-496	-8247	32767	7308	-32184	-15880	-21104	-1985	-2948	-362	-18888	9004	10036	-13521	-737	-13413	-12784	-224	-20672	988	1848	192	-25528	28272	-17248	543	1153	-2171	126	117	1
20892	-32768	32184	-17054	32767	32767	-17900	-17004	-32768	5020	30290	5643	-32768	-11864	-12648	1181	-3558	-1263	-13000	4464	13928	-7666	417	-6105	-23136	1232	-15864	924	1885	-342	-30728	-2536	-10768	-1444	2327	384	110	130	1
-32768	-32768	24568	11206	-7825	14628	-25884	740	-18384	14696	12061	2097	-32768	10336	-6296	1997	-3454	-1221	-9420	10496	9892	-5571	-244	-4297	-17312	-624	-10184	3224	721	-73	-16008	-6456	-920	-61	2324	427	146	126	1
-2548	-28824	23060	25781	-32495	224	-11976	540	-3980	14628	-3457	4223	-32768	8808	-7576	822	-3753	-1440	-9936	5876	12276	-3531	64	-2869	-16224	5704	-6976	2538	501	-101	-15640	-2336	-1632	261	2421	821	130	118	1
7496	-10984	17428	24671	-31856	-612	-6912	492	-5212	13412	-14052	2034	-30960	7440	-5952	-739	-3691	-1754	-9684	7792	10948	-1413	411	-2088	-14456	10560	-9216	-173	878	-186	-19952	760	-3552	87	2415	174	130	122	1
732	-3268	13752	9444	-32105	-9526	-3696	5048	-7796	9599	-22997	2839	-22968	4880	-8288	-479	-3170	-1159	-9592	8404	10960	-667	1454	-1579	-17432	4408	-7760	-2229	1064	-362	-19536	1984	-2328	-266	2305	-602	147	122	1
-7040	-6080	11504	-4158	-32768	-20707	-1060	2524	-9520	-595	-28755	3458	-15648	5936	-8848	-167	-3119	-923	-8764	9040	10368	922	2244	-1302	-17496	-320	-6152	-1245	644	-11	-17040	544	832	-979	2445	-532	139	129	1
-10656	-8744	10072	-5542	-32768	-26479	-2800	3368	-8144	-8982	-32768	1334	-11680	4808	-9520	-322	-2597	-720	-9480	9140	10300	910	2742	-1047	-15944	2512	-4896	897	166	257	-15688	-1600	1448	-756	2516	-308	129	132	1
-10676	-8384	9600	-4696	-32768	-27168	-3652	1696	-5700	-10765	-32768	256	-10760	3960	-10408	-569	-2113	-680	-9304	9444	10000	716	2593	-1195	-14336	8184	-2864	1628	-26	375	-15360	1832	200	-173	2453	-2	137	127	1
-10652	-2784	10872	1006	-32768	-29994	-6064	-140	-5972	-3993	-32768	-477	-6112	3520	-11960	-1109	-1987	-1024	-9420	8304	10340	-289	2588	-1327	-12992	10040	-2864	403	397	84	-15608	4008	-824	375	2489	45	152	137	1
-16576	-1980	14244	-1726	-32768	-32509	-7492	-2792	-7784	8120	-32768	2250	-2736	-176	-13592	-150	-1408	-801	-9628	7252	10272	-627	2487	-1411	-13928	6552	-4184	-995	889	-199	-13912	3536	1232	422	3007	145	135	119	1
-21724	-5980	16076	-3071	-32768	-32768	-7996	-956	-9816	13951	-32768	6350	-2328	-720	-16112	2063	-1093	-697	-11768	5924	10196	-153	2396	-1274	-16344	1224	-7232	-553	735	-109	-11592	-1000	8056	-1653	3651	532	133	127	1
-23876	-7124	17908	-2524	-32768	-32768	-11232	1352	-10616	10014	-32768	9320	-616	2448	-18216	3780	-530	-666	-9884	8872	9428	-919	2281	-1662	-16560	1240	-3888	1520	177	320	-11984	-4728	4960	-479	4518	-87	129	140	1
-27924	-9236	22284	-2840	-32768	-32768	-17436	992	-11972	6372	-32768	13200	-1096	2160	-16968	3745	-161	-545	-9732	7424	10168	-151	2141	-2571	-13224	7984	-280	2164	208	396	-14840	88	1360	1613	3035	33	122	136	1
-32768	-15572	27360	-2003	-32768	-32768	-26304	304	-15348	4936	-32768	16361	-2416	168	-12360	4209	281	-374	-9384	8396	11212	433	3025	-2817	-13832	10528	448	1089	773	44	-25544	6904	1416	-224	1113	-26	122	106	1
-32768	-16036	28000	1643	-32768	-32768	-27992	320	-15716	4504	-32768	16788	-3512	-2984	-3480	3554	31	-97	-10400	8960	11644	1326	4344	-3576	-19056	8248	-2320	665	1174	-102	-15024	6896	16440	-615	2209	189	125	127	1
-32768	-8224	11692	-3830	-32768	-32768	-31340	-3624	-21020	-17822	-32768	13783	-16856	-6016	14976	879	-2046	-203	-10220	9928	11144	358	6258	-5381	-13880	9960	2576	1635	1260	-269	-17040	3640	10856	1602	2468	-681	132	138	1
-32768	-15704	-17720	948	-32768	-27533	-23368	-1740	-18256	-14459	-32768	2375	-32768	3656	32767	2500	-6623	-958	-11024	11188	12000	-1023	8471	-8270	-15208	16152	2088	1404	1761	-732	-18184	4776	9832	763	1643	471	146	118	1
-32768	32767	-30460	-17933	-28552	-10939	-14348	-8736	-26168	-24536	-24153	-8161	-2280	-1880	32767	-4106	1781	688	-10864	9200	15196	-459	12313	-12942	-21408	6120	-1664	902	2388	-1059	-20456	4632	9208	1487	1751	197	123	130	1
-32768	28760	-32768	-29892	-4276	-3154	-6244	-7420	-20000	-10871	6750	-634	-18296	4376	32767	-1946	-2043	1183	-12120	8188	18704	766	19000	-13708	-25504	8872	-1920	985	2689	-1366	-23728	4816	4288	1454	1341	-107	105	141	1
-32768	-1180	-27968	1517	8217	25055	-9564	-3024	-23704	-8722	28492	-5548	-16592	-7032	8720	-3089	-1052	804	-9824	13572	18348	2103	26654	-22907	-27120	7384	-2016	1227	2755	-1460	-27360	4392	7120	778	158	-4	147	130	1
-32768	-13124	8800	23390	8887	20151	-19392	-12000	-8880	7531	32767	-9359	-704	-4896	16896	-1475	1009	-256	-8180	18000	17848	3362	32767	-30272	-32512	8280	1376	1847	2768	-1352	-25744	1520	16400	1287	-64	-191	130	128	1
12840	-32768	24372	22895	5964	25363	-32768	6508	32767	32767	8279	4218	-5328	-4456	-22608	-239	3128	-480	-4852	23084	20464	2021	32767	-32768	-32768	11768	9160	2766	2438	-1146	-30168	-984	32767	842	-2054	-112	150	135	1
-32768	32767	17348	9230	32767	7857	-17096	15136	-32768	32767	28763	2450	-32768	-32768	10520	4898	-901	330	-29984	20528	17960	8749	32767	-32768	-32768	22496	13776	5128	2117	-1121	-31208	-4072	21200	1295	-2876	-1421	155	129	1
-17856	8968	24508	4725	19690	26837	-24608	4228	-25620	20806	26233	-9572	-11280	32767	-19400	2883	4245	-1479	-32768	32767	21212	19248	32767	-32768	-31392	32767	944	3933	2717	-1432	-27656	13680	-5592	2899	-2193	-1193	148	121	1
-19388	-18572	11272	6078	27924	10419	-8088	-5856	-13260	-8655	22220	-12424	-4104	10680	-11520	-4640	-1037	-219	-32768	32767	20764	1120	32767	-32768	-23944	16944	-1472	1759	2867	-1904	-31856	14968	-12592	1331	-3486	624	89	130	1
-19324	-6736	8824	6090	6075	11605	-17256	-14876	-25868	-932	15598	-15481	-22824	-24984	-22464	-2162	47	1103	30432	32767	22960	18255	28508	-32768	-16824	11000	-19496	-931	2656	-1360	-32768	2240	-5048	-1532	-3404	1008	128	132	1
-17980	-1496	13264	4302	6453	7612	-18184	-4200	-13512	-5996	13061	-7063	-23480	-4624	-10360	235	2226	-85	-32768	32767	14380	20210	-27976	601	-16296	2744	-16296	-939	1091	-954	-32768	-15464	-8128	-578	-3365	786	123	131	1
-12076	-7032	11652	4639	1821	4748	-16060	-6676	-7428	-12256	12442	-6106	-18952	-1144	-5432	-374	2243	186	7404	32767	9592	-4540	-32768	10890	-13672	-440	1192	1314	-1307	554	-32768	-9424	-7576	973	-3659	657	109	147	1
-11332	-3744	12444	3106	2065	2862	-18300	-1160	-8168	-12229	9101	-5099	-17416	-2480	-3672	-365	2283	706	8020	17496	8820	-9335	-32768	12473	-7856	-2944	-3584	1275	-2256	1309	-26960	-1464	-7640	2098	-3400	919	143	128	1
-11140	-4156	12284	1321	3020	1828	-19216	-2528	-6524	-9189	6744	-3427	-16984	-2672	-1920	128	2664	567	-868	7040	9044	4697	-32768	25847	-5280	-1024	-6128	562	-3066	1870	-18384	1864	-9408	1991	-2947	1373	130	131	1
-11640	-5368	11472	552	2314	1501	-17268	-2672	-5300	-6688	4856	-2604	-16400	-3152	-1728	741	2834	464	-4920	10544	8408	15578	-32768	32767	-6560	1640	-6880	-164	-3739	2282	-13048	512	-9824	979	-2371	1106	191	131	1
-11584	-5228	11288	610	1770	1325	-16288	-396	-2840	-8875	3949	-1833	-17216	-1024	-1520	1033	2587	339	-6932	12080	8580	14761	-32768	32767	-5376	408	-4632	-1180	-4080	2708	-10776	-2616	-10952	763	-1854	993	122	132	1
-11204	-5476	11416	735	1506	1630	-16104	-956	-1308	-12558	4598	-1640	-14456	-2240	-2560	888	2683	68	-8616	10616	9760	10564	-31888	32767	-7592	1760	-3472	-2016	-4215	2977	-6768	-2144	-10424	601	-1229	1051	127	194	1
-11164	-6428	11064	1710	1290	2777	-15244	-1984	-3316	-12024	5441	-1536	-15568	-2408	136	655	2783	78	-12128	8516	12464	11782	-30122	32767	-9656	2568	-4336	-3018	-4403	3036	-4784	-2216	-11424	47	-822	1021	135	127	1
-11568	-3964	11088	1832	812	2919	-15076	352	-3960	-9737	4845	-1109	-11704	1712	5416	1117	2256	-25	-16620	11108	14664	15390	-29078	32767	-11912	1104	-7336	-4086	-4501	3077	-1776	-4320	-13320	-1008	-577	926	123	126	1
-11356	-3572	11436	1563	812	2736	-15464	3728	-4248	-10254	5067	-1918	-10728	8160	9312	1035	3513	-871	-20004	14368	17772	16451	-28076	32767	-16376	-72	-8176	-4333	-4882	3075	40	-5792	-12312	-1667	-684	750	122	126	1
-11156	-3228	11572	580	878	2189	-16016	4764	-2364	-16322	6529	-3050	-19272	-616	5312	-917	4286	-9	-22888	15892	21348	17439	-25526	32767	-21168	464	-8952	-3657	-5452	2992	-744	-6560	-10920	-1834	-646	392	93	129	1
-11044	-3732	11024	-88	1293	2009	-15244	-848	752	-14585	7775	-2215	-15464	1272	3328	-2398	3760	375	-31140	21904	25172	17577	-22455	32767	-27008	4232	-10768	-3120	-5845	3055	-2944	-4816	-8144	-2525	-793	76	136	133	1
-11268	-4668	11672	-335	2111	1927	-13656	660	2200	-6829	10429	-2146	-20688	2664	-4816	1324	1803	-345	-32768	27452	25768	12847	-22041	32767	-32008	4992	-14936	-3792	-5731	3186	-5432	-2352	120	-3211	-1844	25	134	131	1
-11368	-3304	12708	109	3188	1690	-15028	-980	-780	-3372	13084	-2220	-14272	-6896	15776	285	2178	-521	-32768	-952	26976	18962	-17094	32767	-32768	2760	-13744	-2294	-5623	2628	-15120	5416	9072	-3467	-2733	73	124	130	1
-11988	-5656	12336	-159	5182	1513	-18328	-1424	840	-4325	15083	-560	-14904	-2736	5248	-1706	2196	311	-32768	7168	10784	14037	-12580	32767	-21328	7288	-15032	-1362	-4937	1944	-32768	8344	32767	-3554	-5153	1620	121	129	1
-11988	-6704	13324	528	7407	4009	-17544	-5020	2648	-3069	18375	188	-21640	-5968	2816	-340	1831	-148	-32768	-26944	-11272	3891	-16212	32767	-8784	4912	-25376	-1754	-2136	1357	-5392	280	32767	-2982	-1244	-334	122	142	1
-12148	-7356	15928	1397	11584	7669	-21052	920	164	1285	21552	204	-19720	-2984	8208	-605	1060	-351	-32768	-32768	-16152	30205	-8559	11366	-7464	3016	-18744	1132	49	417	-6680	-13560	32767	-601	-662	-1822	128	141	1
-12416	-1676	19388	947	18231	8561	-23580	2364	-1784	2221	24606	1583	-24400	-4328	6224	-1058	1169	123	-32768	-1944	-11416	-4806	-6716	-18949	-11272	6824	-22072	982	2236	-766	-23048	512	10048	2245	-1770	300	118	140	1
-11964	-7344	19716	-315	26897	11065	-28256	2148	-200	4424	26728	2627	-27088	-704	5808	-827	498	99	-32768	-6704	576	-24153	-297	-26305	-12720	5056	-22488	855	2427	-867	-8536	4576	-1904	1691	-712	946	150	142	1
-10760	-8404	19472	-1288	32767	16526	-28260	4032	1408	2601	29098	1808	-24032	200	13136	-1064	-54	32	5752	27784	3392	-23871	16971	-21663	-28664	-1544	7864	1469	3641	-1540	12064	-8704	19952	-1144	3508	-66	119	125	1
-7860	-12012	22620	-2577	32767	28331	-32768	9440	3812	-2625	30372	-217	-27632	2128	20672	-1828	-161	277	32767	12312	32767	-23270	32767	-32768	-32768	16288	-3776	2663	2748	278	-32768	15672	26088	552	-2283	1997	115	109	1
-12912	-10856	21260	-3417	32767	29946	-32768	10296	4880	-3450	30398	-532	-31792	3536	32767	-1753	-2661	1153	-32768	5776	32767	-10422	32767	-18535	-23544	4912	-24008	-4058	5840	-3910	-19296	-8424	5248	-3530	2524	-1664	131	145	1
-32768	-1880	18644	-25419	32767	29552	-32768	1968	7276	-20384	32767	1664	-31096	-9368	18448	-5093	-5342	1765	-12360	28744	-2252	463	17492	-24277	-5472	-13584	-19496	-2889	4168	-1638	-1912	-32768	-24072	2420	934	1328	144	121	1
-32768	-27764	16888	-32768	32767	23226	-32768	-17320	3064	-10324	32767	9083	-32720	-14208	-14304	-2808	-2476	-217	-11232	-12344	20188	-13019	4879	-16763	-9376	-1072	-22952	3390	1877	1449	-8800	20352	-23272	5128	966	-1305	122	138	1
-25588	-32768	17844	-18592	32767	32767	-19420	-17464	-22036	9619	32767	7628	-32768	-11176	-15024	1130	-3554	-1091	-12492	8504	12508	-6974	3477	-6950	-23352	8600	-15440	1966	1737	167	-32768	19056	-16200	174	1695	-1082	116	95	1
-32768	-32768	27152	9537	667	25974	-23912	-764	-30252	21788	14217	5415	-32768	10152	-4320	2133	-3404	-1640	-10668	10452	9620	-3731	2670	-4273	-13240	3456	-11136	1240	1373	-340	-20080	-864	-5296	-963	1986	-14	153	97	1
-8484	-32768	23156	18282	-27622	3153	-16248	1080	-7960	17450	1351	4594	-32768	9368	-10464	990	-3244	-1210	-10276	7548	10860	-2643	1996	-3960	-17480	6712	-10112	2760	570	-109	-16376	-1480	-4080	-78	2400	153	131	124	1
5112	-16676	17848	21294	-32331	2662	-6416	668	-4088	10703	-11118	2121	-32768	3032	-6704	-587	-3415	-1808	-9684	8264	10924	-815	2088	-2720	-16424	8800	-9976	964	605	-101	-18928	120	-2504	-67	2495	425	135	122	1
3844	-7612	13948	11684	-31070	-5541	-4832	2272	-7700	3487	-19612	2526	-25648	-1432	-9840	-201	-2871	-1190	-9388	10168	10032	38	1915	-1884	-16368	6696	-8760	-778	660	-361	-20248	3456	-2664	-240	2385	-235	129	126	1
-5756	-6124	11640	-701	-32768	-17454	-1812	312	-9480	1192	-26019	3119	-18136	3016	-9760	256	-2980	-1212	-9884	9332	11236	457	2458	-1331	-16880	3000	-6240	-995	433	-170	-16704	176	688	-740	2334	-688	158	134	1
-11200	-10192	9160	-4435	-32768	-26641	-2204	104	-9040	-4759	-32687	3919	-14920	5352	-10456	19	-2847	-1072	-9640	9392	10128	1779	2479	-1019	-16496	2352	-5016	265	232	74	-15840	-1936	1544	-476	2412	-419	139	140	1
-11168	-10308	8092	716	-32768	-30921	-3240	884	-6748	-10516	-32768	2300	-10008	5536	-10960	-255	-2365	-1058	-9576	9984	9264	1820	2157	-1307	-14368	6824	-3096	1440	-75	236	-15088	1896	1224	-36	2300	-102	133	138	1
-11296	-6332	7716	5293	-32768	-31228	-4152	1188	-5508	-7679	-32768	264	-6384	4000	-11688	-399	-1905	-1108	-9572	9276	9216	1342	1704	-1706	-12760	10168	-2736	931	182	57	-14824	3648	-104	425	2230	-64	154	118	1
-13700	-3940	10444	4237	-32768	-31386	-7524	-2568	-6692	1100	-32768	808	-3744	2536	-12584	165	-1317	-857	-9824	7812	9052	106	1366	-1800	-11736	8136	-3072	-231	573	-235	-13408	4744	-592	1033	2546	63	134	126	1
-17640	-3956	12988	358	-32768	-32049	-7936	-2584	-7888	11320	-32768	3569	-2960	-800	-13488	1390	-1167	-813	-9668	7968	8708	-1605	634	-1816	-12400	6072	-6968	-463	687	-238	-9208	2792	6456	-562	3074	616	133	131	1
-23700	-6616	15504	-3578	-32768	-32043	-8968	196	-9944	12148	-32768	6198	-128	2272	-16712	2822	-800	-753	-9188	10920	7820	-3260	-78	-2219	-14592	4248	-3104	308	484	-32	-9512	584	7216	-1194	4235	421	129	119	1
-27504	-9876	18036	-4041	-32768	-32655	-12924	1468	-11088	6301	-32768	8590	-288	4936	-15808	3343	-295	-579	-9252	8420	9872	-3855	-442	-2821	-15672	2368	-1576	1073	440	73	-16664	-1624	1856	1010	4290	-93	125	127	1
-30780	-12208	22572	-2579	-32768	-32768	-20580	1200	-12196	4749	-32768	9881	-656	4840	-13864	3742	115	-310	-9624	6076	11968	-3343	112	-2947	-16936	3984	-40	1439	530	98	-18688	-3896	-112	924	2392	-18	123	123	1
-32768	-17216	27984	-1634	-32768	-32768	-30000	328	-15576	7455	-32768	12558	-1816	1912	-9576	3957	302	-104	-9632	7720	11572	-1534	2813	-2327	-15408	8560	-1040	689	980	-67	-21080	4424	7448	-1349	1828	-216	118	129	1
-32768	-21512	19308	16283	-32768	-32768	-31424	404	-16348	8156	-32768	12940	-4088	-4304	4256	2479	32	-17	-9956	9064	11312	43	4546	-2976	-17488	10232	-776	313	1388	-320	-16648	7608	13296	-122	2472	-67	114	152	1
-32768	-972	7148	2087	-32768	-32768	-27416	-5428	-19780	-15039	-32768	10990	-29168	-7352	19904	982	-3955	-656	-9624	11032	10860	-201	6421	-4843	-13056	13264	2056	1004	1600	-489	-18288	6928	11896	928	2322	-210	133	132	1
-32768	7380	-23380	1129	-32768	-22984	-21160	1456	-22352	-17601	-32768	-2720	-32768	23696	32767	5394	-3893	-1578	-10568	13128	12612	-1836	9037	-8926	-18016	13344	1040	855	2108	-856	-21256	3912	7728	794	1765	373	161	130	1
-32768	32767	-32768	-32768	-17563	-12672	5156	-11060	-13756	-23990	-7408	-5594	6928	16376	32767	-3407	178	1909	-10712	7528	18244	-814	13893	-12920	-22568	6120	-1336	1000	2495	-1128	-22504	5960	7680	1081	1268	30	127	128	1
-32768	11844	-32768	-15775	1085	11537	-8068	-10148	-22216	-7469	17764	50	-26432	4832	21544	-2557	-1607	1256	-11756	9716	19712	389	21070	-14057	-27600	9320	-1232	842	2797	-1423	-25960	5560	6232	1069	863	-319	104	130	1
-32768	-9732	-16244	25427	16217	32767	-20392	-8468	-12364	-2032	32767	-8046	-14648	-3768	4864	-2871	-1048	-160	-9116	16424	18724	2454	30185	-24783	-29248	8320	64	1290	2903	-1488	-25232	1976	12496	825	257	-99	127	130	1
-2404	-32768	32767	18086	19089	32545	-32768	5256	32767	32767	25894	-2458	-16376	1464	7528	-2676	888	-511	-6424	18320	19916	2977	32767	-32768	-32768	10952	4768	1853	2856	-1471	-29808	4264	22296	847	-454	-12	124	135	1
-32032	23152	5600	17771	32767	-2726	-25356	6236	-32768	32767	28314	3149	-27368	-20792	32767	3890	1684	-1897	-5112	25332	22412	-1115	32767	-32768	-32768	17584	15880	3204	2420	-1265	-32768	4952	32767	1133	-2843	-301	144	132	1
-32768	30692	32767	1580	24594	20212	-21036	13812	-23668	18618	31204	-8767	-25384	23272	-6536	953	628	-219	-32768	25236	16736	8416	32767	-32768	-32768	32767	5656	4241	2888	-1377	-24360	-3096	9136	-377	-2684	-1628	105	123	1
-25064	-32768	9160	-2599	30421	10155	-3132	-10748	3040	-15219	26199	-8277	-2200	32664	-12696	-61	1082	663	-32768	32767	19668	7660	32767	-32768	-27456	32000	-1584	2610	2900	-2011	-30624	12168	-16384	1003	-2516	-557	108	143	1
-13940	18364	18892	13673	4502	18986	-14880	-24084	-21720	11434	15652	-20336	-12728	-27152	-24400	-2737	-69	1114	-30568	32767	27264	3913	32767	-32768	-22896	10136	-6696	1037	3022	-1767	-32768	10048	-7920	-158	-3977	837	130	140	1
-14608	-6416	12336	7911	450	7978	-20736	3660	-12104	1999	12741	-2987	-30592	-10440	-10592	679	2356	101	-32768	2332	16372	17251	20350	-32768	-23040	10248	-8752	604	2937	-1643	-32768	-5448	-6672	-836	-3249	638	52	131	1
-12224	-5244	12044	4463	-1324	3827	-16104	-244	-7288	-14270	13109	-7044	-19272	1728	-6208	-233	2066	-162	-15388	32767	14944	12836	-32768	10388	-14032	2344	-5768	373	36	-389	-32768	-16784	-7560	392	-3450	546	153	141	1
-11132	-4784	11892	2574	-561	2416	-15656	1836	-9236	-30192	13968	-6610	-16104	-152	-3016	-948	2103	394	-7800	32767	14448	7256	-32768	12017	-8912	-1728	2952	1966	-1964	885	-32768	-4448	-7648	1268	-3764	753	128	125	1
-10712	-3720	12720	931	1304	1131	-19240	-7736	-6196	-13627	9595	-5544	-14344	-4304	-1120	-53	2839	336	3668	10040	9100	-4852	-32768	14964	-5392	-2104	-6032	1300	-2770	1484	-24904	-1752	-9872	2205	-3430	966	126	135	1
-11180	-4784	11732	206	1781	939	-17900	-4772	-6260	3860	5962	-2958	-17592	-3464	-1576	542	2625	465	-3516	6680	7892	11273	-32768	29419	-3912	-264	-6496	327	-3336	2006	-15184	1136	-10880	1890	-2921	1163	128	138	1
-11208	-4548	12080	322	1463	688	-17176	2280	-3716	-405	4277	-1494	-15568	-2128	-624	1238	2721	270	-3792	9836	7592	17783	-32768	32767	-6648	576	-4880	-136	-4000	2414	-11384	-480	-10776	1097	-2423	1094	136	135	1
-11200	-4692	11876	-23	2137	608	-14352	2904	-2660	-10190	6129	-1239	-16208	728	168	1384	2563	78	-5148	11092	8108	14485	-32768	32767	-5528	184	-2896	-807	-4274	2782	-8688	-2080	-10984	994	-1575	788	136	138	1
-11160	-5784	11416	-154	2170	1119	-15700	768	-2080	-18390	7296	-2515	-15176	984	-1800	746	2439	230	-8124	10828	10176	8822	-30605	32767	-7704	2016	-3696	-2011	-4265	2951	-6720	-464	-11432	723	-1166	923	147	137	1
-11372	-4640	11308	442	2020	1862	-15908	-2696	-4060	-13849	7348	-2877	-15136	-1144	-24	144	2602	4	-13492	8544	13540	10368	-29052	32767	-9616	896	-5712	-3156	-4447	2962	-4224	-3064	-12584	-271	-862	953	149	135	1
-11664	-2308	11208	662	1797	1834	-14340	-1516	-5048	246	5815	-1258	-12152	1976	4848	252	2552	-250	-17876	10484	15552	15367	-29607	32767	-12792	-888	-7192	-3937	-4656	3047	-1672	-5944	-12800	-1238	-1031	722	122	126	1
-11284	-3848	11528	549	2181	1335	-14520	112	-5120	845	5720	-973	-15224	8048	11328	693	3730	-310	-19524	13788	18184	18367	-28619	32767	-16368	-1232	-7488	-3732	-5111	3111	-776	-6464	-11800	-1561	-1069	320	112	146	1
-11408	-4752	10552	-9	1930	1844	-16036	1212	-3560	-8949	6727	-2114	-18112	-3104	2224	-1976	4327	277	-23648	17164	21776	19445	-25277	32767	-20968	752	-8456	-3239	-5648	3127	-1016	-6640	-11640	-1782	-811	-115	149	121	1
-11308	-3984	11660	-462	1903	2751	-14836	900	-2144	-12894	8189	-3842	-16880	-1096	-8024	-1601	3117	96	-32768	25928	24896	17790	-23602	32767	-27200	5816	-11824	-3252	-5886	3159	-1680	-3056	-6920	-2673	-852	-342	121	125	1
-11664	-4184	11716	-972	2900	2530	-16412	1580	-736	-9741	9486	-2487	-16792	-496	1656	1517	2187	-557	-32768	23672	28108	11146	-23261	32767	-32544	7488	-16688	-4191	-5759	3013	-3888	3448	-2976	-3742	-1286	-285	126	129	1
-11732	-2380	13200	-981	4667	1834	-17140	-1260	44	-6009	11724	-1534	-14232	-4752	17584	-368	2618	-222	-32768	10588	19828	9646	-16230	32767	-32768	8536	-13792	-3964	-5788	2924	-19640	11400	17592	-3633	-2869	774	127	130	1
-11872	-5896	13044	-603	6891	2602	-17560	-1200	712	-5784	12082	-1165	-20360	-3920	7264	-1121	2528	388	-32768	5068	-10064	-6934	-13581	32767	-20272	-2424	-16584	-2523	-3881	1637	-29624	6856	32767	-4070	-5473	2463	118	126	1
-12464	-7964	14368	586	10336	5750	-20444	-4348	4664	-448	19379	397	-22736	-5488	9616	-195	1803	-240	-32768	-32768	-19176	18281	-11034	25802	-1632	-2320	-27024	-406	-1591	1444	-3984	-9080	32767	-2778	-307	-1771	121	125	1
-12676	-3272	17284	761	16049	9292	-21144	3584	404	-684	23403	193	-20832	-3008	8800	-912	1325	-79	-32768	-22020	-24732	30202	-2850	2036	-5280	9616	-27496	932	1625	-60	-19192	-20632	32767	2298	-731	-454	127	131	1
-12396	-2716	19792	514	23959	9978	-26084	1628	-652	2763	26666	2316	-25736	-6280	5536	-1151	1101	288	-32768	1772	-11972	-19536	-660	-28927	-13592	2496	-25816	1168	3350	-1123	-19808	3864	-1688	3725	-1456	1219	120	127	1
-11268	-8580	19240	-479	32767	12518	-27904	2064	1256	5198	28507	2817	-25048	-344	8672	-830	435	0	8260	17696	32767	-24760	13266	-32768	-27104	3792	16840	1956	4137	-1189	-8464	6376	6608	3666	-306	974	136	123	1
-8060	-9044	21140	-1155	32767	24013	-29176	4928	2964	1835	30592	951	-25480	-1896	16136	-1369	20	126	32767	32767	32767	-19618	24185	-32768	-32768	2656	-136	2235	3244	-23	-21248	25536	17576	2240	1193	388	131	138	1
-7972	-16472	21368	-794	32767	31462	-32768	10920	10096	-7657	30803	182	-32664	1600	29808	-1464	-2092	643	-32768	3580	32767	-6573	32767	-16612	-20384	5008	-23968	-3182	5728	-4488	-32576	9936	-9216	-5877	937	-597	122	144	1
-32768	-15356	19340	-10272	32767	32767	-32768	6396	14236	-20913	32767	-2285	-32768	7912	32767	-2190	-6220	1299	-11600	32767	-9796	-3155	15029	-24597	-7416	2056	-24672	-1959	4201	-1761	-16424	-32768	-32448	281	2167	-14	130	84	1
-32768	248	25036	-30578	32767	24049	-32768	-14648	2640	-6007	32767	1596	-30024	-4024	-14936	-3675	-2520	435	-12468	-19764	24340	-19267	-742	-23758	-5376	-2000	-19472	527	2461	110	1264	14712	-18448	3902	780	1053	134	84	1
-32768	-32768	16852	-32768	32767	23465	-29224	-10388	-412	3295	32767	7431	-32768	-16064	-19056	-1014	-3291	-655	-13912	3016	15800	-14466	322	-11336	-24520	-3088	-17456	372	2297	-308	-32768	22728	-15344	48	1380	-1491	110	102	1
-32768	-24716	13344	121	32767	32767	-20216	-10892	-22476	10924	20264	5260	-32768	720	-6664	891	-3324	-1748	-9532	9088	11756	-7090	952	-4638	-17568	456	-13088	1657	1507	-340	-27440	-5320	-6920	-1127	2201	-14	111	105	1
-22188	-32256	21484	11976	-24794	731	-23340	2120	-14776	9589	7873	601	-32768	9952	-9680	1563	-3261	-1282	-9572	6928	11860	-4598	436	-3362	-17928	-504	-10184	2917	729	-284	-13904	-6072	-2488	-44	2569	528	148	136	1
2440	-23924	20484	24016	-32768	-2062	-9732	1380	-5068	10946	-9213	1914	-32768	7336	-7560	200	-3553	-1627	-9656	6408	12228	-2122	1037	-2042	-16112	8496	-9008	1919	589	8	-17480	-1336	-3104	-120	2549	719	159	117	1
6280	-8952	14756	19215	-32768	-4408	-6404	1180	-6268	9170	-17566	-274	-27032	2816	-5136	-842	-3623	-1811	-9092	8648	11136	-249	2007	-1435	-15536	9200	-10440	-1386	1054	-382	-22144	2296	-4368	-343	2492	-140	142	125	1
-4368	-2300	13136	2544	-32768	-14293	-2728	3316	-8732	7861	-25244	724	-19560	7176	-8560	-472	-3067	-1098	-9088	8628	11168	227	2863	-965	-18656	-32	-7624	-2223	843	-333	-19088	1296	-1400	-947	2355	-853	156	133	1
-9432	-6816	11012	-8140	-32768	-24443	-2784	4136	-9024	-3840	-32097	-535	-14464	7208	-8664	-456	-2921	-874	-9192	8604	11148	1257	3194	-836	-17664	-336	-6016	-112	273	48	-16040	-1408	1536	-1196	2503	-605	138	148	1
-10316	-6936	9900	-6147	-32768	-29282	-3780	3452	-7268	-10920	-32768	-1300	-11704	5160	-9664	-1035	-2461	-740	-9356	9756	10004	1635	3213	-962	-15328	5880	-3104	1704	-138	387	-15224	-144	1616	-676	2541	-185	109	134	1
-9384	-3708	10760	-709	-32768	-30465	-5188	1612	-5808	-9439	-32768	-2959	-7448	3144	-10280	-1601	-1990	-1020	-9248	9172	10108	1431	2945	-1557	-14032	10304	-1984	1285	76	242	-15888	1632	440	98	2465	114	141	112	1
-12132	-80	13584	341	-32768	-31377	-8700	-1668	-6536	234	-32768	-1524	-4456	-416	-12256	-1070	-1444	-971	-9184	7988	10604	1129	2903	-1795	-12728	8816	-1392	-249	612	-75	-14880	2464	-784	909	2528	61	137	119	1
-19368	-1736	16140	-1226	-32768	-32016	-8500	-2892	-8864	13238	-32768	3596	-3336	-3040	-14200	855	-955	-907	-9320	8384	10056	524	3076	-1845	-15040	3480	-6304	-1024	1043	-242	-11760	2440	8016	-383	2711	292	143	130	1
-23556	-4776	17520	-1060	-32768	-30147	-9712	872	-10076	14057	-32768	7224	-1512	296	-18376	3227	-743	-1020	-9944	7760	9428	163	2457	-1699	-15936	344	-3776	361	522	-58	-9248	-1440	8944	-1924	3772	505	128	131	1
-25160	-5056	19704	-911	-32768	-28640	-12940	3068	-10960	7863	-32768	11010	-648	2752	-16272	3936	-444	-872	-9168	9220	9112	-1680	2388	-1876	-13184	5496	-2288	1494	362	168	-14704	1736	3032	632	4456	-148	124	132	1
-27608	-7540	23288	-992	-32768	-28993	-19528	2516	-11804	2424	-32768	13657	-584	2376	-14616	4157	-117	-689	-9624	8580	10276	-2411	2868	-2498	-14672	8112	-1608	929	738	75	-16408	-1008	-584	1433	3152	-114	126	125	1
-32768	-14124	28000	-778	-32768	-29588	-29400	1548	-16780	1771	-32768	15351	-320	736	-9232	4326	122	-265	-9864	7740	11648	-1479	3639	-3257	-15424	6024	-2240	602	1068	-77	-21912	1536	1936	-1017	1653	326	128	131	1
-32768	-4620	24572	-568	-32768	-32768	-32768	4332	-17304	-11740	-32768	14792	-3320	-624	2280	2875	-288	150	-10424	7488	12380	-383	5088	-3938	-17968	7592	-2192	869	1228	-172	-16184	5728	13856	-364	2279	49	118	134	1
-32768	-11376	764	-3695	-32768	-32768	-28816	-6600	-18780	-19382	-32768	9265	-28912	632	22160	186	-3999	223	-10216	10192	11804	-711	6836	-5731	-14424	12928	1288	1415	1433	-364	-16104	4296	11312	1694	2393	-192	111	129	1
-32768	12112	-29696	-3444	-32768	-20498	-19192	-2264	-24632	-23221	-32768	-6362	-32768	28368	32767	4219	-3120	-896	-11252	11892	13420	-1501	9290	-9472	-18968	13368	368	1156	1962	-750	-23432	5720	7120	882	1845	433	155	130	1
-32768	32767	-32768	-32768	-19848	-18939	3840	-9612	-13356	-26971	-6427	-2699	10096	17056	32767	-3595	28	1699	-9724	7564	18644	222	14517	-13746	-22880	7088	-368	1140	2360	-1097	-23448	6760	10224	1122	1361	4	194	126	1
-32768	13260	-32768	-20464	-809	8066	-7200	-11416	-22576	-1143	16649	-499	-27624	-2456	20144	-2310	-1980	1076	-9948	11376	19280	1707	22388	-17591	-26968	9104	-288	1104	2713	-1399	-25768	4272	7608	1082	737	-204	113	134	1
-32768	2748	-18004	13075	7328	32767	-14016	-9296	-26156	9365	32767	-8416	-9968	-6696	9656	-2538	-663	-109	-9388	15076	18448	2290	30754	-25191	-28456	8232	-272	1348	2897	-1498	-22720	608	12672	976	126	-91	128	127	1
12116	-32768	32767	23813	12093	27018	-32768	-2056	22928	32767	30061	-1221	7632	5704	-1352	259	3130	-32	-6440	20380	18668	3521	32767	-32768	-32768	10400	4312	2010	2785	-1363	-27904	648	22000	1297	-701	-70	130	116	1
32767	26348	18972	7291	32767	4100	-29912	8856	-18112	32767	20856	566	-32768	-27560	10288	1654	551	-407	-10024	21972	21768	2810	32767	-32768	-32768	14688	15464	3753	2224	-1210	-29184	3488	32767	2212	-2920	-339	142	125	1
-32768	15672	32767	6562	32767	15357	-27560	5572	-22252	32767	28729	-1015	-23296	7792	18800	2178	979	263	-32768	27572	19224	15934	32767	-32768	-32768	32767	6096	5171	2559	-1184	-27496	3408	6120	2238	-2311	-1823	160	124	1
-27612	-22932	14432	-714	27726	13026	-6676	10056	-11864	-1259	22358	-17750	-12688	32767	-16720	-1078	1801	-1110	-32768	32767	18384	8135	32767	-32768	-25896	31640	1104	2716	2852	-2008	-29336	17872	-18696	2337	-2401	-491	119	138	1
-9024	15008	19160	11851	6469	15557	-16128	-15648	-19272	-3721	19404	-18328	-13536	-20016	-24064	-4739	-106	1116	-26484	32767	27096	4327	32767	-32768	-23008	11752	-6712	672	2970	-1726	-32768	11048	-7544	-174	-3707	938	125	135	1
-12480	-6124	13688	6999	2067	7881	-15976	636	-14132	-8249	13715	-6118	-25760	-15232	-14640	-472	1931	-7	-32768	8724	16936	11296	12772	-32768	-22224	9312	-10536	169	2974	-1668	-32768	-3224	-8464	-1418	-3097	860	109	136	1
-11936	-9040	11192	3095	235	2744	-15112	-3916	-9224	-25528	13891	-6743	-20696	-2528	-10456	-91	2227	205	-13048	32767	14088	11389	-32768	8805	-15256	2712	-5456	201	-12	-371	-32768	-14392	-7672	78	-3392	534	123	139	1
-11244	-4296	12568	1528	1330	1180	-19156	-5736	-8704	-17283	11394	-6017	-19688	-3056	-3232	-282	2637	539	13176	30220	8364	-9070	-32768	9419	-9520	-896	1424	1517	-1807	829	-31176	-4872	-7384	1190	-3633	806	141	159	1
-11080	-4400	12036	-59	2840	257	-19876	-5600	-6884	-2668	7095	-3377	-15768	-3536	-3040	191	2474	428	2692	11192	9032	-7438	-32557	13928	-6416	-1904	-6096	737	-2542	1297	-25184	-1568	-9336	2114	-3260	1128	133	139	1
-11052	-5320	12144	-290	2714	355	-18120	-2372	-4324	2575	4518	-2141	-15440	-2672	-3320	400	2630	417	-3640	7456	8276	7744	-31913	29954	-4824	-992	-6920	-18	-3267	1716	-14392	1704	-9992	1572	-2749	1370	135	135	1
-10864	-7668	11024	-718	2395	613	-15912	2352	-1636	-7447	4175	79	-16784	-1752	-1168	1314	2784	-55	-5824	10964	7472	14386	-32587	32767	-6312	568	-5672	-429	-3889	2150	-11688	-304	-10352	739	-2232	1219	144	120	1
-11072	-6696	11456	120	2211	2318	-16332	-100	-1808	-18933	5819	-3085	-15064	-1104	-3112	988	2761	114	-7164	12412	8012	10457	-31467	32767	-5488	872	-3656	-1242	-4174	2544	-10152	-2528	-10416	626	-1740	983	132	135	1
-10992	-6376	11224	852	2059	3329	-15704	-3184	-4188	-16241	6051	-2394	-15832	-1976	488	534	2690	-87	-10616	11148	9968	5217	-30782	32767	-7992	2576	-4680	-2369	-4280	2723	-6336	-1576	-11520	454	-1103	1113	139	135	1
-11636	-3936	11320	1144	1683	3301	-14868	-612	-3944	-5914	4887	-1429	-15696	-1184	1064	512	2591	-85	-14468	8716	13512	6957	-30428	32767	-10512	2488	-5480	-3475	-4505	2742	-6376	-1416	-11592	376	-988	1131	133	133	1
-11444	-3976	11208	1045	2008	2937	-15476	3060	-3828	-6207	4596	-1147	-7048	5856	11256	1470	3334	-105	-18404	11544	15296	11906	-30296	32767	-13808	744	-8288	-4444	-4644	2788	-3000	-4424	-13440	-1761	-784	944	122	126	1
-11208	-4872	10892	1235	2182	2995	-15064	1628	-2004	-10953	6232	-2543	-17632	-2264	1720	-1246	4014	150	-19072	15652	17876	13714	-29568	32767	-17472	-152	-8208	-4440	-5130	2760	-2224	-6992	-12360	-2088	-834	639	99	132	1
-11424	-4016	11020	884	2307	2816	-15156	404	-1752	-7080	7294	-2525	-16304	-1656	384	-1680	3625	289	-24344	17644	21116	13831	-26566	32767	-22520	536	-9176	-3638	-5783	2776	-1824	-8464	-11032	-2297	-741	194	122	128	1
-11592	-4116	11776	310	3326	2512	-16164	744	-1988	-5525	8954	-2342	-20344	3464	-5456	667	2183	-335	-32768	24896	24180	11971	-23251	32767	-28768	6832	-11272	-3220	-6060	2889	-2080	-6040	-6392	-2927	-936	-192	131	127	1
-11916	-3920	12292	-119	4461	3131	-16484	956	-1144	-8267	10758	-2737	-14680	-2672	9720	772	2367	-511	-32768	28320	21484	5026	-22815	32767	-32168	3440	-24848	-5134	-5412	2906	-4704	-1320	-104	-3587	-1713	-384	114	130	1
-12064	-4032	12520	68	6050	2990	-16984	-1960	2252	-7215	13266	-1045	-16440	-2488	10568	-1536	2320	112	-32768	-2072	17008	16828	-19544	32767	-32768	-368	-24632	-3042	-5167	2149	-23584	8344	24736	-4171	-4371	573	123	127	1
-11788	-6540	13468	247	8641	4645	-17456	-3852	4512	-2964	17066	-467	-22464	-3304	7128	-727	1818	-222	-32768	-7288	-7048	12538	-14451	32767	-21088	-7064	-17272	-1418	-4095	1806	-31168	5464	32767	-4113	-4488	1505	118	119	1
-12436	-6968	14648	-127	12974	7109	-21568	176	1180	-909	20768	29	-20176	-4832	8360	-808	1473	-287	-32768	-32768	-18204	20259	-9315	31235	-2568	1920	-22656	361	-1778	1263	-552	-9600	32767	-958	-456	-1775	131	133	1
-12136	-1448	16836	-460	18342	9255	-20024	2176	-1580	-2035	23771	258	-19592	-5760	3352	-1169	958	81	-32768	-27088	-22952	19117	-10294	-3910	-2144	11672	-28264	1594	1535	-46	-21536	-13664	30408	2843	-1082	-89	119	151	1
-11464	-5512	17876	-1017	26018	8300	-25796	508	-128	3402	25877	2982	-23624	-4576	6296	-1033	698	156	-32768	-7952	-7912	-16753	-11037	-32768	-12280	-1136	-28632	683	3421	-1227	-17968	3824	-4144	3264	-760	1362	102	134	1
-10256	-9500	17956	-2281	32767	15545	-27332	2244	2604	3390	27781	2042	-25504	680	13640	-1144	38	-5	-32768	22320	16216	-24668	7681	-32768	-32768	10216	32767	3901	2868	-441	-3688	-5032	2552	3908	-1609	722	115	135	1
-9040	-11492	20156	-2516	32767	26248	-32684	8072	5712	-3907	29878	413	-28192	-216	21896	-2031	-425	87	-32768	-24512	21980	-21617	32767	-32768	-32768	9336	-32768	2490	3516	-1698	-32768	32720	15160	-128	1390	722	122	140	1
-18156	-20032	19672	-4898	32767	32767	-32768	15700	16788	-17637	31582	-648	-25080	7688	24688	-698	-3762	1493	-25144	2940	31216	-3573	20014	-32531	-12856	-5880	-20760	-1788	5101	-2110	-31520	-28384	-14280	969	1893	-2041	132	147	1
-32768	-64	19952	-21556	32767	29774	-32768	-1912	5200	-9413	32767	-121	-31528	-384	2168	-4930	-2763	1201	-32768	32767	-18224	-20014	12483	-21938	9696	22568	-24704	384	4409	-746	14576	6376	-16328	5933	-653	1034	136	97	1
-32768	-28864	16968	-32768	32767	20903	-32768	-9460	-452	-6048	32767	6229	-31480	-14688	-17432	-2813	-3157	9	-22100	7804	2672	-19914	4221	-21594	-17976	-3920	-21992	-82	2416	-310	-23176	27424	-19864	537	854	-1527	124	149	1
-32768	-32768	26404	-15133	32767	31906	-19552	-14884	-19880	5152	32767	2786	-32768	-14744	-7960	-552	-3345	-689	-12372	9848	10428	-6668	1986	-3976	-22768	-1488	-15416	1058	2171	-576	-32768	-5528	-11216	-1125	2296	-299	115	113	1
-32768	-32768	27952	6177	-3477	18665	-23360	-552	-22388	15342	13159	2975	-32768	2952	-7736	2010	-3056	-1230	-11452	6280	11608	-4320	1508	-3635	-17200	1024	-13280	3886	625	144	-17864	-4056	-5336	469	2103	-180	111	114	1
-9272	-29388	24532	12370	-29520	-474	-15952	968	-6612	11493	1287	3369	-32768	10288	-9416	1104	-3394	-1121	-9896	6684	12248	-1476	1838	-2173	-14248	8552	-10688	1603	725	-282	-14944	1272	-2192	207	2434	620	140	127	1
3884	-16420	16908	17762	-30070	-50	-8592	1456	-4384	7822	-9957	1038	-32744	5480	-6296	-354	-3531	-1608	-9312	8180	11448	-237	1771	-1762	-15208	8904	-8960	-1194	1223	-425	-20264	3256	-3696	-544	2573	-76	138	125	1
-1764	-8896	12568	12266	-30444	-5768	-5396	1688	-9736	6709	-18030	1847	-25920	3744	-7824	-599	-2997	-942	-9692	8648	11028	655	2467	-1213	-18000	2704	-9728	-2224	1036	-470	-20624	672	-2792	-1054	2516	-419	189	134	1
-7456	-6076	10892	1925	-32768	-16457	-2704	2692	-10488	-759	-24601	702	-19192	7656	-8104	-370	-2913	-1059	-9588	8984	10604	1135	2603	-1035	-17456	-616	-6632	-288	531	-96	-17896	-224	-120	-963	2443	-674	144	119	1
-7728	-5892	9784	-2968	-32768	-24447	-4272	4272	-8888	-8427	-31391	1099	-16744	6288	-9176	-620	-2912	-1028	-9916	8676	9904	1129	2019	-1445	-15600	5000	-4560	1458	-33	223	-15040	968	960	-753	2580	-301	123	144	1
-8324	-5084	9700	-1308	-32768	-27865	-4088	2600	-6800	-10312	-32768	-639	-11088	4072	-9504	-1333	-2608	-1009	-9608	8980	9952	542	1683	-2021	-14288	8944	-3288	1326	-7	212	-15096	1176	680	-487	2529	-210	138	118	1
-10116	-2300	11500	1275	-32768	-28623	-6296	564	-6232	-6278	-32768	-1401	-7384	1488	-10640	-1134	-1827	-758	-9700	7820	10160	-339	1989	-2661	-12784	9616	-2576	-36	443	-83	-15240	1768	-2024	98	2461	-126	143	131	1
-14676	68	14448	577	-32768	-29444	-8600	-2588	-7444	5169	-32768	906	-4872	-104	-11968	-518	-1274	-748	-9484	7844	9660	-1239	2147	-2549	-13320	6112	-2776	-956	879	-319	-14592	3064	-824	786	2753	-13	136	108	1
-18960	-1736	16076	-516	-32768	-29418	-7840	-1008	-8840	13887	-32768	5537	-4168	-2208	-14152	1176	-1122	-940	-9876	8416	9048	-2495	1588	-2494	-14016	3352	-12784	-771	830	-244	-9544	2800	8960	-1647	3047	516	136	120	1
-21884	-3920	17440	-172	-32768	-27684	-10096	1596	-9840	12801	-32768	8895	-1896	536	-17600	3298	-775	-920	-11076	6756	9212	-2206	1598	-2419	-16240	2496	-1536	724	329	-7	-10984	-1088	7088	-1433	4359	192	128	140	1
-24312	-5936	20220	940	-32768	-26711	-14420	2876	-11028	6954	-32768	13372	-1184	2672	-15224	4022	-380	-834	-9884	7808	9860	-3683	1694	-3795	-15000	5720	-616	1435	350	143	-15504	-1464	1704	1295	4127	-193	122	150	1
-28372	-8332	24060	1559	-32768	-27637	-20528	2048	-12328	4300	-32768	15637	-1328	2616	-13856	4318	25	-553	-10008	6352	11252	-1343	2197	-4064	-15320	6448	232	1168	677	-38	-21000	-3176	328	497	1977	66	128	134	1
-32768	-16484	26540	1943	-32768	-29319	-29432	744	-16012	2559	-32768	17201	-1448	1848	-7984	4276	230	-133	-10024	7460	12420	44	3926	-3638	-15808	6920	-1280	667	1106	-181	-19528	4712	10584	-1519	1753	-4	126	120	1
-32768	-6068	19516	3583	-32768	-32768	-32700	2728	-16960	-8052	-32768	14358	-6608	776	5200	3355	-398	215	-10416	8388	11796	249	5679	-5007	-17096	9616	-504	750	1407	-380	-15464	4392	12368	851	2389	-89	131	134	1
-32768	-8036	-5252	-678	-32768	-32768	-25836	-3156	-18436	-15658	-32768	9054	-31448	1600	25872	1874	-4637	106	-10788	10796	10836	-926	7032	-7611	-13088	13312	224	1396	1544	-569	-17856	6720	8784	1459	2046	-146	116	129	1
-32768	-6332	-9108	-90	-32768	-32517	-16996	-3000	-23440	-21565	-30636	-5038	-32768	32767	32767	3640	-1709	-50	-11136	12156	12768	-2198	9108	-11749	-19064	11504	-520	1080	2029	-927	-20256	5056	5808	809	1653	479	149	135	1
-32768	32767	-32768	-32325	-16310	-12752	2436	-8412	-13576	-13761	-6845	1873	12512	17952	32767	-3019	-388	1334	-11144	6824	18368	-1354	13575	-15368	-22000	6768	-2560	1098	2341	-1163	-21392	6136	7264	1299	1229	-167	161	126	1
-32768	11620	-32768	-14856	-3264	14593	-4416	-9232	-20652	-11050	17913	-2861	-24696	-3912	14136	-2832	-1689	1419	-10776	11124	18060	-186	20921	-19510	-26152	8160	-1520	1170	2588	-1423	-25080	3440	5728	941	643	-238	124	128	1
-32768	-16728	-24580	22395	14857	32767	-15336	-11624	-12552	9643	32345	-9123	-9368	-4784	11576	-2820	-801	-248	-15552	9596	16908	-203	27920	-20523	-26312	7912	-1528	1603	2670	-1448	-21080	1208	12768	1072	70	-115	99	131	1
12848	-13560	32767	3897	21667	21090	-32768	14204	26244	32767	22268	9476	-14552	3752	25864	-400	1093	-323	-8676	18996	18424	1397	32767	-32768	-32768	10168	3280	2103	2574	-1400	-29032	5672	24976	1250	-850	5	143	130	1
-32768	22032	8464	15475	32767	-655	-28168	-828	-32768	32767	32767	3000	-32768	-24432	-9288	992	1111	-947	-9608	23516	21992	4241	32767	-32768	-32768	16408	16072	3661	2272	-1312	-30248	6232	32767	2227	-3023	-382	144	130	1
-17228	13584	24520	-3133	20326	20644	-7864	13128	-21132	9379	32767	-16141	-15776	32767	-32768	-349	2326	-519	-32768	21800	21520	14792	32767	-32768	-32768	31608	1080	4599	2667	-1550	-27624	1632	10160	2438	-2959	-1854	174	111	1
-32768	-32768	-2844	13118	23112	16491	-14144	-30064	-19464	-11813	14651	-20359	1408	3512	-12640	-3317	-437	202	-32768	32767	16596	9000	32767	-32768	-26120	30016	-448	3377	2575	-2256	-32768	14648	-18776	1611	-2207	-290	127	139	1
-21144	460	14348	9322	1	13949	-18568	-10844	-19836	18046	10379	-17629	-25952	-21032	-20808	-931	844	1210	-28304	32767	17612	3593	29734	-32768	-19872	10776	-14840	672	3069	-1771	-32520	7240	-6112	-756	-3553	1032	78	137	1
-12772	-5012	12656	4618	-444	4774	-19140	3056	-10484	-18453	13020	-7012	-30976	-408	-9128	-340	1984	-365	-32768	19644	12864	-2485	6820	-32768	-20472	288	-25728	-1930	2358	-1560	-32768	-6448	-5824	-1182	-3125	846	141	135	1
-11356	-4472	11940	4116	-2466	4600	-13560	-3172	-9104	-32768	16298	-9950	-20528	-5328	-3208	-1135	1660	-225	-12380	32767	12396	2709	-29585	5308	-15432	1264	-7416	-473	341	-558	-32768	-10312	-7048	118	-3422	685	138	122	1
-11004	-2980	13052	1942	1012	2128	-20236	-4500	-8756	-18691	11199	-5779	-12904	-5032	-64	-439	2267	564	11664	25868	6424	-9577	-28534	9065	-9720	-3064	-864	1078	-1360	557	-32768	-3176	-6936	1011	-3597	1031	126	180	1
-11236	-6052	11256	1056	2069	1424	-17784	-8976	-6812	979	7428	-3420	-17784	-4808	-2072	276	2947	585	2524	12432	6716	-8971	-21995	13764	-6552	-1904	-6656	522	-2059	1040	-24472	-2120	-8752	1746	-3329	1422	131	112	1
-11796	-3636	12228	1046	1395	1786	-18796	-172	-7364	2443	4374	-2995	-19384	-3728	-1512	682	2518	524	-3048	7152	7704	2785	-21911	28031	-4840	-2480	-7432	-505	-2709	1359	-17784	-256	-9008	1290	-2902	1385	123	125	1
-11144	-4900	12312	182	1958	887	-16256	2588	-5636	-2002	3933	88	-16824	-944	-392	1369	2421	-94	-4600	8928	8108	9828	-23360	32767	-5824	-3568	-5944	-810	-3419	1772	-14128	-2736	-9312	880	-2404	1229	127	135	1
-11292	-5040	11596	-315	2411	978	-14528	2120	-3976	-12857	4930	-1041	-15504	2072	648	1328	2367	354	-6888	10412	8908	7996	-24695	32767	-4696	-2696	-4600	-958	-3907	2179	-11880	-4352	-9552	904	-2171	1058	132	135	1
-11288	-5616	11272	-177	2545	1582	-16756	72	-2700	-16397	5388	-2248	-15720	48	-496	1063	2283	215	-8668	9104	10244	3307	-26808	32767	-5752	-328	-4024	-1591	-4155	2485	-8232	-3144	-10472	660	-1491	1008	137	131	1
-11580	-3852	11804	178	2472	2036	-15384	-3640	-2664	-5568	4952	-2194	-15448	-1080	-2040	1040	2510	3	-11396	6148	12580	4882	-28904	32767	-7192	1504	-5072	-2751	-4362	2599	-4488	-1992	-12328	148	-1073	1002	144	129	1
-11300	-3604	11612	-54	2776	1267	-14576	752	-4828	6949	4403	83	-15672	472	-536	690	2813	-303	-13940	8656	13540	9203	-30301	32767	-8936	480	-6728	-3790	-4589	2583	-2400	-1616	-13608	-978	-807	891	137	123	1
-11792	-3072	10724	-545	2619	817	-15040	2972	-7392	3416	4008	-964	-12712	4544	8016	555	2706	-254	-17268	12296	14164	10654	-31643	32767	-11576	56	-7664	-4257	-4939	2613	-1584	-3392	-15376	-2057	-525	601	125	128	1
-11500	-4152	11196	-1408	2430	644	-16204	4020	-4740	-10456	4351	-2333	-11928	4344	11464	419	3995	166	-20108	13716	16444	12756	-30644	32767	-16344	-272	-9152	-4132	-5451	2509	-944	-6064	-15080	-2618	-124	363	110	128	1
-11600	-3788	11080	-1584	2695	808	-16008	-760	-2596	-11801	5799	-2704	-13304	4104	144	-2268	3736	-28	-27864	21808	19752	14813	-27092	32767	-23608	2200	-12768	-3649	-6005	2504	-2992	-7392	-11184	-2930	-133	51	81	127	1
-11760	-4556	11144	-1784	3195	848	-15152	172	-1304	-8793	6942	-2759	-21464	-1168	-8752	-268	2478	-85	-32768	31624	21156	11001	-24879	32767	-31560	8088	-18072	-4101	-6130	2583	-3768	-6120	-2784	-3081	-862	-325	131	128	1
-11848	-4268	11052	-1823	3169	937	-14392	-456	-924	-8874	8998	-2662	-14272	-9208	10808	256	2121	-518	-32768	8988	23520	10181	-21122	32767	-32768	3848	-14640	-2658	-6198	2250	-8248	1400	-1912	-3230	-1096	-443	134	133	1
-12080	-5248	11384	-1071	4326	1332	-16944	-1524	1096	-7571	11385	-2036	-14344	-3472	12480	-1267	2505	50	-32768	13176	4112	9245	-19103	32767	-18344	13512	-21064	-1383	-5479	2309	-30688	9584	27872	-2901	-4944	1482	122	133	1
-12276	-6368	12368	-191	6169	3324	-17196	-3808	3360	-5726	14523	-1241	-20360	-3920	4752	-971	2080	98	-32768	-28744	-14496	11285	-17377	32767	-14296	8864	-27344	-27	-3428	2583	-24352	-4944	32767	-4578	-1612	-335	121	164	1
-12376	-7824	13492	839	9442	6446	-19760	-1492	2040	469	17908	-733	-19600	-3264	8048	-232	1396	-338	-32768	-32768	-18224	32767	-12634	14024	-8648	13040	-31280	-160	-3009	2126	-1600	-7096	32767	1298	-414	-1110	126	149	1
-12504	-2076	16092	810	13959	7512	-18792	-736	-1428	2249	21097	-6	-19616	-6584	5344	-690	1062	76	-32768	-2952	-16288	622	-10098	-16021	-6776	9584	-20224	1190	1938	-569	-21176	1560	14248	2852	-1501	279	125	127	1
-12316	-7112	15712	464	19630	8799	-23096	544	-1236	3609	23431	1135	-21264	-4728	3560	-599	761	152	-32768	-7956	-792	-30842	-5240	-32104	-12000	-272	-23352	-808	4172	-1499	-13440	9240	2808	1556	-476	1286	121	116	1
-12168	-8216	15192	167	26130	13327	-22604	1168	-1368	2360	25651	380	-21152	400	7000	-831	117	-36	32767	32767	9876	-26367	6374	-25401	-32768	9024	32767	2050	3003	-697	1216	-1384	13232	-239	891	341	116	132	1
-10564	-8268	18612	-656	32767	22016	-27136	3680	-760	-2100	27384	-1133	-24800	928	11408	-1266	-53	-64	16852	-32768	26460	-23696	32767	-32768	-32768	4944	-26304	1166	3496	-1234	-32768	8720	32767	-641	-1194	827	120	145	1
-12224	-11060	19224	-2744	32767	29189	-32768	10888	4296	-7564	28013	-1715	-29128	384	22288	-1778	-613	262	-32768	9064	32767	-11642	24238	-23448	-17112	2392	-20640	-3354	5378	-2518	-23576	-11432	-8400	-2659	1719	-450	123	137	1
-23364	-13632	19460	-8376	32767	32767	-32768	9792	12872	-23067	31914	-3670	-29512	10432	26536	-3537	-4159	1410	-27464	32767	-14344	-13779	15264	-16946	1056	4752	-18664	-1378	4079	-1129	1040	-11664	-26280	3191	8	1483	126	112	1
-32768	1060	19140	-26245	32767	27639	-32768	-6004	-2132	-9772	32767	-1996	-21960	3960	1912	-4628	-2454	1051	-18896	4816	12500	-12908	-165	-18951	-7200	528	-19840	1860	2006	514	-10544	19800	-12952	2641	491	-1333	135	107	1
-32768	-18972	11640	-32768	32767	19872	-30852	-7136	-4204	-12864	32767	2201	-32768	-10576	-12368	-3336	-2129	224	-11088	-4768	19008	-8269	1058	-6561	-26512	2952	-17312	-147	2314	-273	-32768	9032	-12856	-1263	1582	-242	127	98	1
-20532	-32768	19064	-23191	32767	30419	-20852	-9144	-20652	-975	29929	4283	-32768	-11968	-15712	-495	-2840	-1190	-9644	10404	9688	-4747	1400	-3825	-15168	-848	-9696	1610	1460	-242	-21624	-7600	-1056	-716	1619	505	111	135	1
-32768	-32144	20188	-4348	5381	20405	-18944	-436	-27752	903	15872	421	-32768	8024	-8672	1735	-3481	-1370	-9940	7032	12192	-3478	1655	-3293	-17576	4648	-6728	2855	684	67	-14528	-440	-1264	259	1749	730	129	115	1
-14400	-27424	12540	10409	-18591	5675	-13824	1148	-11428	1612	4335	564	-32768	7824	-4872	1248	-3568	-1291	-10000	6976	11400	-1276	2413	-2434	-14920	9480	-9224	698	973	-126	-17312	-912	-1640	50	1841	355	124	135	1
1328	-15708	11048	19835	-21523	2961	-7172	-1864	-5916	3722	-5310	-1111	-29296	5120	-5008	-343	-3485	-1598	-10148	7452	11532	58	2922	-2187	-16992	3376	-9776	-982	1070	-267	-21152	-1088	-2064	42	1725	-357	145	143	1
2832	-6512	8120	17468	-17981	-2715	-3828	416	-7256	9420	-12174	-2052	-22744	584	-4784	-399	-2664	-1096	-10000	7472	11420	1285	3707	-1145	-17536	1240	-7968	-498	580	41	-20088	944	-1328	-208	1802	-458	132	134	1
-4232	-840	9112	6629	-18773	-14952	-2456	604	-10184	13696	-17673	-654	-19704	1288	-7136	-578	-2672	-1340	-9912	8296	10708	1840	3395	-537	-16264	2376	-7416	441	356	183	-16968	816	504	-150	1957	-618	138	144	1
-7352	-5828	9336	380	-25368	-27326	-2444	2424	-10596	5486	-24199	1161	-17608	696	-8352	-516	-2533	-1178	-10192	8784	9844	1823	2819	-568	-14856	6240	-5832	1337	-9	344	-16272	3016	1000	-72	1971	-190	138	111	1
-7576	-8056	8412	3903	-31154	-30673	-3040	832	-7492	1731	-30219	1797	-16496	488	-8656	-188	-2407	-1138	-9924	8404	10016	1451	2186	-773	-13968	8232	-4480	914	109	237	-15408	3712	2888	-220	1992	31	129	102	1
-9376	-4936	8652	8606	-32768	-30483	-2332	-1168	-7044	4829	-32768	1507	-12768	2032	-10880	-166	-2171	-1333	-9848	8232	10128	1078	1968	-932	-14472	7264	-3736	218	376	124	-14584	2272	3592	-297	1956	-40	130	130	1
-11468	-3068	9772	8867	-32768	-31091	-4776	-1392	-8156	7336	-32768	2314	-9144	1016	-11112	136	-1925	-1351	-9984	7692	10024	1099	1935	-984	-14168	6768	-3456	8	495	17	-14664	2496	2872	-145	1904	-68	158	129	1
-14908	-4140	10728	7651	-32768	-30469	-5368	-1544	-7700	9656	-32768	6067	-8000	-1440	-11560	1176	-1368	-1152	-10064	8836	9240	640	1713	-1210	-13328	7056	-3456	247	508	-16	-14840	3856	1672	132	1873	-55	135	127	1
-17892	-6168	11136	6541	-32768	-29874	-7920	-1112	-8968	13005	-32768	6503	-6136	-256	-13680	2462	-1170	-945	-10704	8292	8916	-578	1582	-1505	-12760	6280	-3456	461	546	-23	-13832	3472	208	273	1977	26	129	127	1
-21276	-7272	12108	6378	-32768	-29794	-8660	632	-10132	13178	-32768	10856	-5056	640	-14976	3678	-800	-748	-10040	7796	9452	-1878	1535	-1450	-12912	6976	-4248	271	677	-75	-12928	3704	1072	354	2422	123	114	117	1
-25348	-9268	14496	5904	-32768	-30291	-12208	368	-11196	6203	-32768	12873	-4016	2712	-15944	4551	-67	-809	-10060	7572	9588	-2336	1576	-1363	-14464	5096	-8440	-245	828	-121	-13120	2168	8248	-502	3016	206	125	133	1
-31536	-12572	17740	5376	-32768	-32768	-17700	328	-12228	1067	-32768	15348	-2008	4528	-13000	4011	617	-699	-10120	7832	10016	-1804	1579	-1075	-16424	1832	-3440	362	605	-86	-12416	-3664	1080	-76	3305	-3	125	130	1
-32768	-16436	21056	6074	-32768	-32768	-25596	-1364	-13404	-1878	-32768	15592	-3064	3912	-5632	2691	665	-457	-10140	7636	10392	-1322	1894	-1369	-14392	5432	-3864	1033	520	37	-19504	-168	-3544	721	1903	138	126	127	1
-32768	-17988	20464	5924	-32768	-32768	-32320	300	-12216	-5624	-32768	14845	-4528	-872	48	1182	563	-414	-10184	8360	10720	-732	2484	-2106	-16648	7552	-4648	754	736	6	-21776	5360	3048	-351	1508	55	115	129	1
-32768	-15360	5496	2420	-32768	-32768	-28708	-1172	-17676	-10131	-32768	9762	-16680	-2224	13008	774	-397	-256	-10328	8584	11068	-268	3331	-3031	-16576	7248	-3712	829	897	-99	-14472	4568	9464	236	1990	45	128	133	1
-32768	-8180	-14424	-1256	-32768	-21118	-21608	4220	-17832	-11760	-32768	-1575	-32768	9240	32767	3642	-3907	-289	-10328	10344	10900	-225	4708	-5154	-15448	9168	-1280	1325	962	-179	-17000	880	6008	1298	1785	-12	156	136	1
-32768	32767	-32540	-30183	-30039	-19154	-9428	-4668	-17476	-32768	-22442	-7896	-3832	6032	32767	-2764	977	498	-10748	7736	11728	-580	6692	-8221	-15568	7976	-3072	1295	1310	-409	-16680	5904	5800	910	1426	215	135	135	1
