#Activity	walking 
#ActivityID	1 
#Date 10-07-18-01
acc_rf_x	acc_rf_y	acc_rf_z	gyro_rf_x	gyro_rf_y	gyro_rf_z	acc_rs_x	acc_rs_y	acc_rs_z	gyro_rs_x	gyro_rs_y	gyro_rs_z	acc_rt_x	acc_rt_y	acc_rt_z	gyro_rt_x	gyro_rt_y	gyro_rt_z	acc_lf_x	acc_lf_y	acc_lf_z	gyro_lf_x	gyro_lf_y	gyro_lf_z	acc_ls_x	acc_ls_y	acc_ls_z	gyro_ls_x	gyro_ls_y	gyro_ls_z	acc_lt_x	acc_lt_y	acc_lt_z	gyro_lt_x	gyro_lt_y	gyro_lt_z	EMG_r	EMG_l	act
-13488	-16584	14572	5465	24258	32583	-29776	-1356	-348	-8920	22819	9752	-23588	3208	6004	-3249	-7037	1056	-15196	6752	10900	1513	16019	-11312	-15112	-2948	-6204	-3262	16642	7311	-20832	-18320	-9064	-32768	12144	645	113	107	1
-27080	-21760	15780	4726	29665	32767	-26456	-2940	-1808	-4795	22646	12036	-21616	-7228	-632	-10899	-15333	-3597	-9532	5992	10852	-15192	6125	-10585	-22292	17900	-5964	-3266	15487	14927	-5112	-7140	-1200	8968	6558	-6201	142	123	1
-23756	-19880	14128	10147	23760	32767	-30092	-1460	-4692	-9165	23183	10227	-22932	-8616	-2652	1115	-20229	-8752	-15392	7144	11648	-7921	312	-6189	-15596	1668	-6064	-7528	11089	4681	-17592	14216	-10512	32767	3219	21	139	122	1
-19228	-27616	15128	15684	21063	32767	-26228	288	-6288	467	16141	11336	-28036	-164	-6892	8726	-24569	-12129	-12376	2508	13592	-6054	-738	-5168	-15628	-2156	-5748	1650	5989	5524	-15656	18696	2384	843	9895	18483	126	114	1
-25120	-1336	19188	24347	16759	32767	-20364	2204	-9912	9208	10488	9660	-28468	7448	-5312	14060	-25680	-10006	-10196	1152	14616	-1863	-391	-2201	-17632	360	-6248	1070	8974	5386	-18320	708	-692	-7345	12614	7100	96	98	1
-13572	-16036	19616	-647	-8449	15911	-14276	11116	-19112	873	10318	9595	-26320	8164	-3552	10305	-24185	-7315	-10260	3208	13516	-328	967	-935	-17480	876	-3900	-1885	9974	5413	-16904	-7316	2660	-4011	8790	-4525	130	114	1
-2888	-17044	7540	-6236	-12147	1715	-10800	12016	-5572	-11054	3335	3261	-25148	6936	-4872	2029	-23750	-7990	-10284	4264	12680	503	1802	-639	-16148	-2144	-1768	-248	7508	5210	-13804	1148	3228	5087	10944	-5385	122	113	1
1984	-13660	4704	6411	-6981	-4457	-7304	6420	-7716	-13762	-3503	-2130	-21528	6524	-4868	-4110	-21647	-9179	-10524	4880	12104	627	1788	-774	-15400	860	-1352	5918	6257	3155	-15220	8696	1220	3907	12688	1131	132	117	1
460	-5744	5556	6240	-2054	-14665	-6864	4804	-7252	-6219	-8708	-3375	-17692	4564	-6068	-9222	-18769	-9803	-10724	4968	11912	211	1272	-1442	-15712	2112	-1508	8666	7779	4033	-14980	7184	964	887	12100	1291	127	111	1
-2220	-7872	6720	519	-2894	-22591	-4444	2784	-9320	393	-15903	-4441	-15804	2368	-6388	-11255	-17038	-10385	-10636	4060	12568	-168	911	-1405	-17576	2540	-3116	4094	6931	3582	-15692	3304	1604	-2269	12141	247	127	116	1
-5032	-7020	7628	-2051	-8493	-26694	-4392	4064	-9028	7578	-21899	-7136	-13448	1784	-7144	-6074	-14106	-9301	-10864	3688	12780	152	1376	-763	-16312	-544	-2992	-295	6012	2451	-17552	-44	2380	-1617	11622	-936	114	109	1
-6256	-4480	8740	-7045	-14388	-29702	-4108	4764	-9296	9890	-26714	-9819	-13288	1892	-7564	-6331	-12192	-7004	-10932	4068	12420	382	1520	-473	-15600	508	-2976	1636	5737	2353	-15704	572	2232	2761	14976	39	125	119	1
-7768	-3784	8984	-13376	-19537	-31101	-4868	5460	-8820	9909	-31770	-12146	-11636	500	-7020	-1397	-10058	-4555	-10784	4192	12308	473	1533	-434	-15524	1228	-2828	3655	6406	2882	-14676	1692	1620	9175	18341	2388	116	112	1
-10484	-4788	9676	-17794	-22831	-30593	-6252	6660	-7780	7876	-32768	-13060	-11420	292	-6860	-81	-9709	-3968	-10696	4324	12304	599	1687	-590	-16568	1584	-3060	3850	6407	3260	-14444	3572	1892	11885	21824	1669	107	106	1
-13416	-5756	10888	-19981	-24452	-29656	-7464	9460	-9400	1126	-32768	-14250	-8128	3692	-7768	12193	-7941	1244	-11004	4164	12268	733	2092	-729	-16428	848	-3452	3171	5788	2863	-16080	4280	404	10510	20424	-828	110	108	1
-16428	-6836	12800	-21001	-25069	-30415	-8336	8980	-10168	-7345	-32768	-15551	-6364	4720	-8196	15534	-6330	2686	-10784	4300	12272	1263	2724	-1013	-16412	1376	-3700	3363	5757	2905	-16684	6236	-2836	8001	16492	-2536	112	110	1
-18620	-8124	15016	-21380	-24086	-32225	-11204	7032	-10924	-10835	-32768	-17291	-5576	5872	-8260	13952	-4513	3846	-11016	4216	12224	1822	3224	-1606	-15772	672	-3648	3510	5645	3172	-15768	5520	-4264	4912	14707	-1035	113	110	1
-23132	-10744	17800	-21662	-22513	-32768	-15296	6884	-12364	-10396	-32768	-19023	-6768	6020	-7068	5946	-1626	2773	-10860	4160	12088	1753	3566	-2096	-15864	944	-3304	3624	5982	3201	-14820	2164	-1580	693	13553	-168	119	115	1
-31520	-15976	19388	-19892	-23041	-32768	-20376	6224	-11532	-10850	-32768	-21423	-8656	4864	-2520	851	-59	2811	-11200	3844	12000	768	4239	-2064	-15900	672	-2952	2485	6463	3073	-16176	1700	1328	-3249	12073	-17	112	109	1
-32768	-10240	19640	-15198	-20362	-32768	-23852	3368	-13108	-6030	-32768	-21481	-12624	-1064	2248	-892	-2057	727	-11012	4236	12112	466	5050	-2024	-16492	736	-928	1108	7571	2899	-17012	1952	3580	-2804	10968	-72	117	112	1
-32768	-496	13520	-15456	-13361	-32768	-23668	-1640	-9428	1122	-32768	-11272	-22088	-8248	12664	2204	-4612	-3795	-11312	4480	11728	-279	5805	-2563	-16204	1380	948	-923	8947	2846	-16460	3540	4928	-446	9928	-144	112	105	1
-32768	9152	-784	-8131	-7817	-32768	-17856	5456	-9744	12029	-27315	-8978	-22544	-9048	27664	5154	7015	-5418	-11364	5244	12080	-842	6951	-3426	-16240	1492	1144	-1285	9275	2850	-17284	3492	4548	-7	7555	601	137	119	1
-32768	32767	-7208	-11128	5002	-26208	-16048	8652	-8948	14490	-25487	-8206	-23176	-5972	32767	8102	-753	2256	-11760	4888	12184	-1580	9144	-4692	-17908	1512	-820	-1348	14030	3273	-17100	2672	3544	2425	5203	86	118	106	1
-32768	29216	-8300	-7589	8596	-9502	-1796	-5604	-5092	-4522	13928	683	-17820	-5012	19848	4873	-1337	1861	-12608	3688	12384	-2501	13114	-5468	-18560	676	-2340	19	15488	3829	-17780	4212	764	8412	4566	-1573	111	105	1
-32768	8256	-2368	15131	10395	14091	-13616	-6988	-13364	7804	25341	4852	-15964	-3316	8788	-1763	3450	-1205	-12896	4620	12672	-2525	16957	-7548	-19680	-1268	-2328	3634	17288	4038	-19652	2568	12	10499	3999	-1283	122	110	1
-32768	7228	-1600	17342	10731	16215	-32768	2084	32767	-5175	13370	3258	-7840	-840	-1268	-6751	7559	-7315	-12452	4260	13696	-4265	21099	-10588	-22072	172	136	5624	19419	4544	-19676	2048	1256	10251	3829	-1167	104	98	1
1976	-540	10684	21912	30147	32767	-20688	5848	-1856	14049	3801	-3301	-19112	10148	-4592	-6787	13713	2673	-14492	6716	12804	-5274	27107	-14327	-22524	-5496	2804	5568	21101	5298	-21984	2156	11144	15174	-3263	-1360	145	123	1
-16200	2088	21540	4399	24938	10626	-11056	14140	-4884	19222	12211	9965	-32768	-5404	6716	32767	-7109	-172	-14288	4932	14292	-8795	31652	-19965	-24692	-3616	4176	3699	24498	6339	-19656	-4312	12812	5473	-12806	-3047	128	115	1
-17352	-1444	17916	-5825	13083	15471	-22072	15252	-6612	-1818	19332	5281	-15936	9772	7940	19964	3580	-101	-20700	3244	16276	-9483	32767	-24370	-24264	-1672	2756	4237	27961	7218	-21844	4476	10880	12433	-14572	-3721	118	114	1
-31260	-32768	-15072	2640	11677	2606	-19620	-7576	-16504	-12004	18363	-2702	-10888	16192	-12436	-16005	12852	5008	-24244	9804	16528	-9313	32767	-30209	-28468	3428	-1544	2552	30450	7520	-20068	10052	-1052	10416	-18608	597	73	79	1
-13968	-8688	6460	6374	2763	9023	-15136	-16392	-11680	16651	12688	1996	-16140	-13672	-16996	-24950	19982	-2316	-32768	17884	26096	-5293	32767	-32768	-26804	6340	-4660	2561	28107	5029	-27244	8992	-1668	-5823	-24514	4583	110	107	1
-11452	-6828	11152	5431	772	6213	-17644	7508	-11408	27565	4239	5884	-14232	-18408	-7000	3022	11701	-6412	-5512	23800	19684	-16437	31903	-32768	-23580	5860	-7196	-1084	18638	1529	-30524	2584	-6668	-14292	-27149	5694	137	128	1
-10940	-6976	11420	5342	187	4013	-14984	10600	-5428	1038	5760	37	-19664	3744	-2328	12887	9263	-577	-32768	8636	32767	-17772	14476	-32768	-16084	6860	-14152	-1077	-16949	8033	-29292	-1784	-7008	-12690	-27688	4185	126	115	1
-10128	-6796	11300	1970	339	1400	-16540	6832	-2752	-9496	9990	-837	-17680	10080	1472	9755	7434	5596	-20596	6072	30116	6666	-19931	-27125	-9464	-6076	-14408	-3747	11312	-5833	-28712	-2992	-3876	-4943	-29605	2282	147	127	1
-9700	-8420	9860	-3	917	140	-17516	-1884	-3412	-7517	9173	-987	-15820	4736	900	970	9028	6556	-6672	8888	11676	24452	-25294	-14968	-7720	-3736	-14044	11466	1357	-4508	-25992	-204	-4292	1050	-26423	4259	153	131	1
-9488	-10136	8264	-111	942	81	-18544	-7692	-2500	8800	5253	2951	-14740	-3176	-652	-7043	12098	4138	-3188	15556	4840	19360	-23841	-4420	-6896	-888	-12768	15020	-5194	-5684	-23780	928	-4528	395	-27508	5111	149	134	1
-9500	-10184	8080	928	424	766	-16960	336	-2576	12754	3084	2089	-14756	-6320	-1876	-6493	11565	2186	-1664	13196	3112	6730	-20862	6777	-6656	-408	-12616	12344	-16221	-2712	-19496	-1076	-5288	2562	-24564	5154	142	130	1
-9408	-9736	8408	1897	-406	1386	-14880	6692	-2204	-5022	5656	1511	-16520	-4260	-1648	1475	9157	1410	-1912	5524	6796	7947	-14853	20216	-4424	2780	-13240	5247	-20455	-4416	-15640	284	-5160	4152	-20074	4240	129	117	1
-9400	-9028	9004	2058	-478	1409	-15604	3628	-2564	-15773	8107	-21	-17304	3000	-1032	3141	9428	1536	-6248	3456	8932	15410	-10732	30602	-4688	888	-11068	-1166	-25012	-4787	-13188	1536	-4936	1449	-18928	3889	113	108	1
-9696	-8720	9352	1480	-44	1168	-17716	-3136	-2904	-9559	6597	-267	-15656	6416	-792	-5031	12675	2057	-10568	2832	10516	16045	-12751	32767	-5224	4	-10632	-4232	-28707	-6178	-11564	1112	-5744	-3631	-16234	2934	125	113	1
-9888	-8692	9352	844	290	778	-17300	-2228	-3580	3361	4170	1713	-14080	2272	-1708	-13200	17174	3622	-12780	-1016	12272	15178	-17378	32767	-4360	-1232	-10776	-2348	-32768	-4684	-9668	-4	-5460	-6853	-13442	-224	105	103	1
-9784	-8916	9080	339	432	553	-16100	3852	-4224	3274	3458	2224	-13488	-2664	-1112	-12597	20961	5573	-15560	-4468	12944	17390	-22559	30227	-4632	-52	-10424	-1021	-32768	-6125	-8716	-536	-5500	-10734	-10820	-2354	109	105	1
-9744	-8816	9144	57	483	561	-15308	4452	-4888	-5102	4672	951	-17212	-1636	-1860	-4719	19656	5509	-15912	-4584	12776	18945	-27264	24158	-5804	176	-11180	1368	-32768	-6695	-7056	16	-5964	-12206	-9617	-3500	127	114	1
-9772	-8728	9100	-306	629	543	-16548	2228	-3048	-8678	5370	-331	-17292	-2868	-8544	4146	16233	5104	-15444	-3580	12580	19981	-28896	19660	-6812	-464	-12116	5822	-32768	-7053	-6232	164	-6488	-11660	-5052	-3596	132	118	1
-9680	-8380	9440	-804	1026	531	-17328	-24	-596	-5254	4688	378	-16008	-4696	-7392	4785	10855	6667	-18316	-1744	14396	21262	-27641	18092	-9144	712	-13716	10603	-32768	-7184	-6476	-456	-6640	-8184	-661	-3572	141	123	1
-9640	-8528	9180	-1276	1597	275	-16124	-1380	1556	137	5162	2229	-16516	-3284	140	8669	6419	7856	-25132	792	15736	21143	-26617	20528	-13272	3420	-14528	8199	-32768	-7322	-7860	-936	-6340	-3933	3313	-3410	134	119	1
-9760	-9476	8528	-1150	1782	538	-15292	-2468	2028	2655	7131	2974	-17348	-1164	6168	12890	5367	5524	-31400	-672	15936	17661	-24250	24781	-18488	4860	-15344	6378	-32768	-7973	-10384	1876	-1812	3325	4300	-2548	130	116	1
-9672	-10320	8348	-830	1286	1777	-17004	-2584	324	3212	10242	3945	-18300	3324	6324	10359	5434	2289	-32768	-9524	16048	17647	-21366	29032	-21444	8644	-13584	2457	-32768	-8983	-15760	6292	4976	12785	5188	363	114	107	1
-9976	-10256	8904	-1089	555	3857	-17384	-1980	-688	4512	11705	4903	-16856	3764	3504	-14	6830	30	-32768	-16088	10784	19060	-19275	30444	-24204	5972	-11424	-1601	-32371	-11742	-21140	4848	15064	19569	4624	4894	115	107	1
-9220	-10688	10712	-1153	852	6083	-17992	-616	-2484	4166	13564	5270	-17104	2308	536	-8639	6213	-380	-32768	-16772	8764	18381	-18979	29933	-18332	1484	-10432	-2027	-21140	-7538	-23376	6296	24444	11103	10401	12585	126	114	1
-10576	-9068	10708	1341	6322	7670	-18888	2844	-1160	1116	14448	7230	-17388	2096	392	-9247	6090	-323	-32768	-32768	-19504	8615	-9596	9319	-10672	844	-2360	8523	-4441	209	-20060	10300	30820	3251	8859	11560	132	117	1
-10288	-8660	11560	1316	8661	7948	-16604	-1700	-1164	2754	16059	8199	-16424	-4136	-1824	-11314	2282	1473	-32768	-32764	-18800	13496	3848	-4836	-9164	12140	-6444	3407	11064	9937	-14076	668	21308	1349	8368	-1919	141	122	1
-10668	-9792	11216	1441	10845	9238	-18756	-16	-2972	3853	17504	9648	-18624	-6280	-1604	-8644	-673	2086	1372	22064	32767	-17485	-475	-12742	-22040	-15208	14880	-13608	11399	7177	-10000	1864	1760	-2794	12080	-2516	111	107	1
-10896	-11540	11456	1541	14086	12841	-20912	2304	-3124	-4126	19429	9751	-20472	-3400	3580	-5735	-6487	1402	3860	9880	412	-22450	11279	-15951	-21484	5800	5620	-24364	1826	3669	-15412	4576	1608	1385	18448	1566	104	102	1
-11256	-15260	10500	3405	16009	20095	-22672	2896	2652	-7510	21770	8396	-17948	3520	9264	-3427	-10369	1448	-12720	-7344	20576	-12653	18325	-7805	-10220	-14832	-1264	-24593	-2620	5607	-24528	16212	11252	-26108	-440	5708	117	109	1
-12240	-13836	14112	5264	20035	26671	-22388	3736	1480	-8688	24680	8695	-17412	9072	9476	-1083	-8820	925	-14708	-11060	24296	-2057	18412	-9453	-20572	-12896	-3880	-11768	9911	5125	-25848	-10776	12828	-32768	-4036	171	111	106	1
-13632	-14944	15572	3514	25836	32403	-26428	1808	-1344	-5604	24555	10917	-22704	-1176	2116	-15436	-10684	-3298	-15092	-8308	22444	-949	17630	-10202	-15984	-184	-320	808	12410	8378	-14236	-29096	980	-12110	12679	-4271	122	112	1
-27504	-26680	14400	6175	26963	32767	-25964	-1388	-7532	-5441	26053	12201	-20368	-7928	-2376	-12253	-16724	-8103	-9316	14152	3700	-11172	5573	-6520	-22124	17648	480	-2618	13358	11534	-12180	6232	-1572	29568	8288	-2757	158	131	1
-21696	-21640	17276	11752	23875	32767	-29188	-3452	-8988	704	23061	12833	-26584	-10268	-6968	741	-20655	-13443	-14120	7788	10272	-8584	1335	-6493	-15420	5752	-2740	-9471	10560	4448	-14252	28972	-9756	29401	7449	10803	119	111	1
-4560	-23220	15888	14185	24223	32767	-23164	1060	-8644	16586	14699	15961	-30276	-2308	-8116	13434	-24719	-14111	-13168	2852	13400	-8077	-729	-6246	-16220	164	-4072	-5840	5411	3353	-16164	14412	-396	-13584	6474	11825	85	92	1
-26820	-16984	16456	24590	21285	32767	-14756	5488	-18172	17407	4979	10646	-29164	5636	-7248	15457	-25491	-9279	-10568	708	14704	-2881	-446	-2243	-16876	-3160	-5580	-3882	8552	4895	-19192	-2100	696	-17232	9054	963	127	116	1
-14276	-11516	19604	11302	-9389	12047	-7420	9288	-18872	4656	5697	9937	-24276	7196	-3592	8261	-22152	-6508	-11012	3068	13376	-1449	239	-1338	-16904	496	-2268	818	7962	5952	-15532	-5756	848	-8177	9102	-4380	142	122	1
-1328	-10436	7708	-944	-16315	-1285	-10284	10092	-7048	-6071	233	4786	-24776	3424	-5604	73	-21278	-7847	-10540	4300	12436	-1068	225	-1161	-16268	2340	-520	791	7961	4402	-13472	2708	2168	897	9304	-2297	111	104	1
2640	-10572	3700	2810	-13101	-4289	-7104	3280	-8728	-14866	-9036	1594	-21472	1108	-7272	-4217	-18138	-9112	-10468	4692	12368	-1318	-287	-1771	-15528	1396	368	2981	7302	3660	-15340	5904	1460	2554	9091	1406	107	104	1
212	-7920	3872	7521	-9239	-9287	-6140	840	-7920	-6833	-13743	638	-15824	-736	-5780	-3942	-14448	-10019	-10328	4500	12388	-1662	-1118	-2649	-15464	716	-536	4948	6443	3853	-16440	4628	1744	4	9160	4654	109	103	1
-2488	-6748	5828	5765	-8215	-16818	-4768	148	-8664	2660	-20418	397	-12508	-1828	-5024	9	-11397	-10004	-10036	4156	12208	-2127	-1272	-2951	-16872	3036	-1988	3365	6507	3689	-16652	936	1372	3456	10080	3333	118	109	1
-6824	-8644	7052	3475	-11367	-22438	-5836	2224	-9896	6842	-25681	865	-12044	-1380	-5100	5089	-9293	-9249	-10644	3372	12672	-2664	-1353	-2485	-16528	1792	-2704	-1693	6148	2411	-14648	-1488	1000	10567	11349	1613	122	111	1
-10456	-8780	7720	2530	-17610	-26288	-6784	2000	-9360	6749	-29662	-1042	-12836	-1140	-5764	10071	-8288	-6525	-10832	3292	12652	-1921	-1403	-2037	-15684	-64	-2820	-817	4937	2335	-13980	2232	316	16121	14216	657	121	111	1
-11544	-8288	6952	347	-23432	-28526	-7140	2180	-9004	8559	-32768	-2995	-12892	-448	-5784	15017	-8357	-3737	-10792	3376	12644	-1605	-967	-1691	-15392	1048	-2284	2167	5181	2684	-15840	7812	-1624	13987	14589	-948	126	114	1
-12428	-8444	6204	-3247	-26437	-28508	-8064	3304	-8880	9395	-32768	-4749	-11396	1964	-5932	19884	-8544	-254	-10708	3280	12740	-1156	-1102	-1507	-16656	2764	-2028	1117	5235	3029	-16832	9444	-1836	4494	14269	-36	129	116	1
-14608	-9180	6288	-8195	-27947	-27950	-8836	5616	-9284	7145	-32768	-6489	-10660	5320	-7040	21378	-9286	2907	-10448	3064	12932	-761	-549	-1292	-16608	2700	-1956	679	5172	3000	-15900	5316	-268	-1880	13738	540	117	109	1
-16668	-10940	7360	-13009	-28312	-28528	-9808	7632	-10560	635	-32768	-9073	-8832	7292	-6988	20895	-6876	7158	-10528	2924	13052	-170	5	-1118	-15616	-844	-2100	-533	4965	3010	-15984	456	2032	-3674	13312	1253	122	112	1
-19052	-11936	9320	-17747	-26502	-30048	-11420	8224	-11556	-7007	-32768	-12663	-6840	9636	-6824	13952	-4173	7107	-10348	3156	12956	223	490	-860	-15404	-136	-1184	143	6099	4031	-15680	-604	3328	-2838	11791	1825	111	109	1
-19864	-12128	9784	-18768	-26031	-30466	-14984	7280	-13968	-13174	-32768	-16690	-7048	12388	-4808	4986	-106	7153	-10212	3484	12984	645	581	-1094	-16188	244	-1020	161	6690	4665	-16200	1724	2640	-1118	9867	811	110	108	1
-32768	-14736	12712	-24301	-23946	-32768	-18984	5948	-13416	-16534	-32768	-20179	-9080	8456	-2204	-3495	1545	6241	-10012	3804	13128	702	637	-1759	-16092	856	-968	493	7157	5261	-17360	3040	1404	251	8561	1741	113	110	1
-32768	-652	15116	-27494	-17801	-32768	-20308	1672	-15328	-22162	-32768	-20504	-13444	-5524	1508	-5570	3223	1053	-9944	3744	12936	438	1296	-2342	-16068	1288	-1152	945	8159	5457	-15832	2796	1844	1746	6750	1719	108	107	1
-32768	5636	10760	-27837	-12150	-32768	-21372	3304	-14464	-20952	-31075	-14632	-17836	-4852	12276	-7329	1523	-5573	-10320	4296	13236	777	2283	-3500	-17756	3120	-1232	1446	8979	5345	-15056	4156	1284	2800	4876	1979	122	116	1
-32768	7848	-2596	-12510	-9357	-32768	-17984	-5528	-10512	-13589	-18741	-11835	-23536	-7060	22256	-6429	3909	-12337	-9736	2592	14800	-915	5002	-3955	-17828	-144	-2504	879	9980	5550	-17504	6572	-628	4831	3998	613	134	125	1
-32768	30068	-10536	-2924	-5010	-15007	-8524	-48	-11880	3835	-3659	-9630	-26452	-8112	25644	-12383	9054	-5497	-10248	1956	14508	-1396	8067	-3584	-17240	1476	-3508	134	11804	4940	-16000	5416	-692	3961	5027	647	117	110	1
-32768	25260	-9024	-7383	4622	-1003	-10256	-480	-8860	7502	11443	1539	-16316	-9752	16580	-11629	5913	-2704	-10004	2604	13848	-1833	12125	-2939	-18152	372	-4048	1056	12866	5755	-17512	3632	-428	5425	5720	-453	137	127	1
-32768	6328	-3228	7683	11668	12195	-10468	3008	-13760	10802	23101	6339	-10252	-11044	1740	-6067	7955	-3581	-11176	3128	14300	-1512	16400	-3776	-18044	-708	-4328	6090	14137	6321	-18164	1808	-348	7895	5006	-583	138	117	1
8880	-32768	26960	14204	1975	-2311	-32768	10364	32767	-20181	11740	-788	-10936	-5144	-9396	2509	16896	-3200	-11020	2624	14544	190	23644	-3384	-20916	-2908	-3596	12373	16486	7636	-21372	1312	3092	7945	5262	230	114	108	1
-236	1000	14544	18487	25709	25277	-15624	-5148	-11052	17388	1287	-4266	-28672	6464	-340	13016	10255	8718	-10816	4564	14828	861	31318	-4763	-20480	-9344	1280	17812	18624	8459	-21452	-3184	8788	15545	3777	-564	127	114	1
-14336	7144	20544	4465	17746	7478	-5904	15080	-4504	28242	6667	8774	-23920	-2408	6244	32767	-12310	5952	-13236	7892	16664	-2780	32767	-9112	-22120	-4408	4716	17858	21848	9379	-23188	-10628	21788	12538	-15496	-3550	112	106	1
-14896	-5216	18064	-6421	11612	12239	-22784	18372	-3484	6784	11533	4709	-12112	14608	10304	16240	1742	2531	-13816	7208	12952	-8223	32767	-16830	-24560	-1496	3536	12178	23670	10526	-20344	-2380	9976	23059	-13269	-5958	122	116	1
-32768	-32768	-5140	-8496	3490	6220	-18280	-1912	-11256	-12010	12330	-1173	-10328	21248	-2484	-4713	14545	8808	-17812	2896	13336	-8861	32767	-23644	-22440	1124	1252	10892	25702	11413	-17116	7472	2644	29847	-17603	-5794	78	87	1
-13808	-5696	14084	5246	3565	6843	-18056	-16940	-5696	5288	11795	-1009	-21428	-8116	-11420	-21769	24302	-1874	-20956	2116	16888	-7521	32767	-23678	-26720	5616	-5112	10645	28592	10604	-24292	15768	-28	16471	-21040	518	143	123	1
-10696	-9188	8712	6369	1604	5196	-17844	5616	-3780	12814	8068	3185	-11972	-15652	-11128	-12310	15290	-9792	-28588	22496	16056	7970	32767	-26109	-24372	4916	-9296	12238	25177	5745	-27360	9796	-6292	-776	-25989	5092	146	123	1
-9368	-9476	9096	6752	-75	4422	-13816	5404	-3380	-1925	7303	-5	-16208	-5252	-2520	6737	9048	-956	-6404	17616	16172	-5018	32767	-32768	-22544	4652	-7868	7911	15667	3289	-30028	940	-5448	-11617	-26706	4220	144	123	1
-10756	-6640	11808	3978	424	2601	-17360	1784	-2904	817	8659	617	-20508	3836	516	8955	7805	6068	-32768	8432	30560	-2280	18050	-32768	-12016	3144	-12824	6815	-15325	10390	-26920	-2372	-5044	-7647	-26510	2844	129	118	1
-9416	-8384	9908	917	949	470	-19124	416	-2460	7846	7340	1746	-16544	1916	-504	10159	8327	7244	-25340	8788	30896	9285	-19435	-32368	-6680	1520	-16924	1988	7492	1271	-24008	-2124	-3356	-1080	-26279	1192	143	125	1
-9200	-10092	8516	758	1042	428	-15604	-3504	-1812	13007	5213	3547	-12936	-2624	-928	5573	9166	7020	-7976	6480	13908	27037	-30438	-17604	-6552	-8572	-10020	11659	1210	-3296	-22316	2048	-3144	5487	-22538	3132	163	134	1
-9040	-10968	7872	1574	633	1242	-16468	2696	-1344	5043	6354	1947	-14568	-4592	-992	3847	7212	5589	-3108	15028	5144	27445	-29509	-4480	-7812	612	-11912	15699	-4112	-6148	-21792	2720	-3156	4303	-22173	3800	136	120	1
-9116	-10312	8160	2652	102	2344	-16424	3332	-1304	2540	6743	1762	-15064	-4328	-924	4103	7156	5032	-184	14604	2500	7796	-25640	6104	-7000	-296	-11284	8828	-15127	-1895	-18280	316	-4916	1645	-21241	3090	137	121	1
-9356	-8680	9660	2437	217	2429	-17044	1272	-2732	-11608	9176	321	-16708	5720	-920	-1474	9317	-766	1068	5108	5968	3332	-17051	18695	-5580	-532	-11464	-508	-22052	-4580	-13736	732	-3608	-176	-15944	1977	125	115	1
-9616	-8208	9856	1019	655	1477	-16968	-1460	-4212	-1262	6718	2634	-14716	6808	-420	-7912	11645	810	-4048	704	9724	11935	-9594	29177	-5756	-4324	-10844	-5332	-24013	-4572	-13092	-92	-2784	-4682	-17005	-68	108	105	1
-9576	-8692	9232	218	908	883	-16800	1244	-3688	5020	5379	2624	-13556	2552	-1452	-16572	15811	3881	-7812	176	11756	15399	-8598	32767	-4968	-4392	-10132	-1080	-27783	-4896	-10776	-1412	-4264	-8292	-13796	-890	129	116	1
-9616	-9304	8632	271	506	869	-15152	4476	-4560	-1856	6217	2083	-14772	-1684	-2312	-16310	17902	4328	-11080	-2372	13884	16053	-11037	31413	-6328	-2896	-10276	2330	-31683	-4616	-10248	-1972	-3924	-9231	-12095	-4413	127	115	1
-9372	-9420	8668	639	-58	1289	-15544	2460	-4268	-7938	6866	744	-16068	-2880	-7164	-5153	13980	2844	-14848	-3008	15020	16085	-15933	27126	-7156	-820	-10732	3934	-32768	-5254	-10148	-1772	-4148	-9396	-10100	-6706	132	117	1
-9520	-8944	8924	702	-32	1532	-17280	-1096	-3972	-4965	6211	850	-14848	-3444	-9776	1508	10011	4466	-16328	-3856	15900	15069	-21345	21364	-8732	604	-11152	5617	-32768	-6349	-8888	120	-4320	-9088	-7392	-6876	129	116	1
-9512	-8984	9280	421	194	1428	-16828	640	-3032	2063	4348	2252	-15192	-3080	-7308	3166	7372	5500	-17700	-3876	16220	17066	-24335	18192	-9992	1024	-11656	6736	-32768	-7201	-8364	1392	-4600	-6557	-4049	-5572	123	113	1
-9604	-8692	9320	190	371	1447	-15532	3112	-2784	3406	4413	2969	-14680	-28	-2816	6917	6809	6633	-21488	-480	17228	18120	-26075	16928	-12040	1996	-13008	6713	-32768	-8427	-8428	932	-5076	-3902	651	-3586	125	114	1
-9544	-8596	9340	166	421	1526	-15408	1224	-812	2393	5960	2467	-15652	2076	264	10715	6663	5865	-29024	2396	17788	15498	-28522	18296	-15688	3856	-13036	694	-32768	-9986	-11028	-208	-3312	-850	3276	-1493	122	112	1
-9488	-9924	8456	1225	-272	2730	-16424	-2908	-228	3957	7310	2372	-17280	1632	2792	10089	6547	3814	-32768	-1036	16412	12671	-29155	23456	-19980	5972	-12292	-2920	-32768	-11880	-12860	3724	1616	4750	2844	388	123	113	1
-9232	-10696	8800	1833	-571	4304	-17580	-2704	-1140	7446	8114	3949	-18036	-340	2128	4320	6543	1365	-32768	-8496	12428	10853	-28187	30352	-20560	5548	-11060	-7427	-32768	-15002	-15692	7664	9244	9869	705	3702	128	115	1
-9684	-10688	9388	2112	-663	6546	-17632	-676	-2000	7269	9707	4737	-17920	-1644	140	-680	5810	1016	-32768	-13944	1140	5390	-27084	31041	-21096	3008	-10148	-9531	-29057	-15763	-17924	3372	16244	5528	2782	8522	136	119	1
-9928	-9564	10396	1647	173	8575	-17588	752	-2048	3498	11319	4922	-18000	-1060	-1232	-3090	4324	1660	-32768	-21120	-14160	-2081	-22133	23225	-14664	96	-8976	-7516	-19764	-8964	-16856	-4148	23376	-2951	11505	9429	126	113	1
-10504	-7948	11680	3530	5390	8865	-17252	4184	-1812	326	13265	7337	-18880	-1076	-1404	-6330	2043	2125	-32768	-32768	-20456	5003	-9346	9442	-10120	460	-3196	2571	-4519	-604	-16436	2704	28696	-3938	5700	3127	123	114	1
-10336	-8072	12848	3169	7403	8571	-18156	-304	-3328	2722	14263	8200	-17316	452	140	-7579	1806	3140	-32224	-18024	-21484	-2806	8041	-6775	-13192	11432	-8540	-640	8631	12259	-13764	-224	22916	-5448	3280	-4904	116	109	1
-11136	-9416	11752	2720	9784	9156	-18904	1908	-4776	1732	15793	9717	-18740	-724	-864	-9894	279	2900	-23360	12476	32767	-7122	2782	-13676	-19024	-11976	11008	-10367	13821	6745	-14424	-1556	5332	-1711	7823	-3032	124	114	1
-11156	-12140	11672	3489	11776	12418	-21372	2844	-3052	-4663	16797	9109	-21672	-1940	2024	-8419	-2444	1337	2688	20076	2708	-3461	15975	-10443	-28800	-2364	1948	-7881	4765	8108	-17140	-6216	11824	6295	2128	406	144	124	1
-11412	-15088	11676	4752	14692	19087	-23808	3252	3364	-10383	19424	8287	-20492	-3176	3636	-5347	-5094	188	-20260	1044	17704	-4062	21563	-5759	-16068	-7964	-2324	-265	5029	8379	-21980	-4652	1832	2966	6761	-3635	108	104	1
-12896	-14504	12332	3509	17792	27226	-24056	1060	1264	-11667	20924	8133	-21336	936	12312	-5421	-10281	55	-15688	-3524	21000	623	19178	-4537	-16100	-3880	-5784	2952	14697	8124	-18356	-2736	-2924	-277	2729	784	115	108	1
-13344	-14872	14352	5063	22736	32767	-25928	-436	-452	-6949	22604	10202	-20824	1748	7124	-591	-10103	246	-14000	8900	17716	-6865	7135	-4966	-22792	10920	-8696	4917	13422	12219	-16768	-1556	-4316	9867	8854	7324	119	110	1
-32768	-22412	13356	4026	26097	32767	-25328	-4984	-5692	-3331	22571	11938	-20004	-9096	-2088	-10322	-15661	-7153	-14188	4396	12972	-482	3040	-357	-15228	2984	-8056	195	12110	5375	-16168	8732	-13956	32767	12035	2389	128	115	1
-19300	-19160	12436	11271	20460	32767	-27204	-312	-4660	-2950	20580	10767	-23528	-6008	-2680	2551	-22171	-10421	-11436	5448	12076	205	1918	128	-16460	2128	-4892	4508	6783	3866	-12128	19284	-4176	11032	11366	2998	133	118	1
-14740	-22116	16168	20712	17788	32767	-22780	24	-7196	7058	14637	11303	-25020	2324	-5260	9372	-23198	-10774	-10760	4892	12172	198	1597	219	-17332	4784	-3384	1062	4869	3565	-18684	11880	-3032	-14509	13091	3929	134	118	1
-31352	-13716	16700	28377	13372	32767	-16960	3452	-13688	14552	8873	8073	-25460	6292	-5156	10285	-23069	-9933	-10352	4992	12144	338	1405	322	-17220	1628	-1272	-3235	4468	2934	-16932	-3176	972	-15595	13646	-227	108	104	1
-8840	-12240	15472	218	-4263	4728	-12272	11236	-15360	5954	9209	9634	-25208	4408	-3564	6844	-20914	-8643	-10344	5380	12000	488	1519	64	-17056	968	-1104	-3281	4478	2825	-15040	-2300	2304	-4684	12565	-3863	117	111	1
-1492	-18280	6376	528	-6603	-5740	-11224	8564	-5312	-6704	1377	3929	-22768	2996	-4944	750	-19301	-9809	-10212	6568	10900	-230	721	-870	-15328	2060	356	4747	3702	3152	-14564	4124	1320	808	13582	-216	136	120	1
1520	-11756	5012	11023	-2230	-9338	-9004	2068	-8480	-8065	-5049	15	-20372	1652	-5380	-2157	-17744	-10695	-10148	7396	10428	-2370	-239	-2761	-17512	5392	-1684	3264	2910	3883	-15188	6276	-1364	896	18018	2335	129	117	1
-1256	-5680	6700	9216	-266	-16286	-8124	640	-8800	1802	-11327	106	-17564	-652	-6280	-3428	-15063	-11752	-10860	4404	12544	-3034	-1010	-3330	-17624	2912	-4648	-2947	984	1268	-15188	4376	-1084	447	23019	2858	120	115	1
-4296	-8052	7464	5182	-3624	-21457	-6008	1144	-9368	7831	-18614	603	-15548	-1088	-6140	-66	-13285	-12398	-11196	2924	13320	-1214	-457	-2021	-17580	-756	-5248	-1451	-1105	-428	-13928	2664	1180	5117	24584	2019	116	113	1
-6996	-7624	7756	3451	-11023	-24077	-5864	2000	-9424	12497	-24285	-1228	-13708	508	-6048	4153	-11930	-12012	-11204	3624	12628	589	646	-441	-15120	-4360	20	6273	346	598	-17712	-224	148	4036	23249	2059	113	110	1
-8160	-6780	7836	495	-17737	-25887	-6160	3120	-9296	13435	-27912	-3332	-13100	864	-6592	7007	-11547	-9628	-10328	4064	12200	1737	1626	825	-13764	-2572	9040	8131	4331	2032	-20532	1656	7004	745	13624	1730	113	110	1
-8964	-7224	7752	-3316	-22496	-27747	-6908	4248	-9984	11483	-31879	-4935	-13092	580	-7268	10187	-10892	-6558	-9932	6244	11488	1370	2077	444	-14136	928	10724	3308	8230	3816	-21568	7208	15072	-4118	1597	-1771	116	111	1
-10944	-8732	7580	-6230	-25350	-29040	-7664	4324	-10116	8827	-32768	-5880	-11600	1420	-7616	15107	-8039	-3048	-10456	6704	11200	468	2007	-800	-16828	2316	4404	2091	10085	4820	-16652	6916	8148	-1471	5074	-398	109	108	1
-13696	-10232	7836	-8530	-26659	-30377	-8472	5920	-11412	5989	-32768	-7207	-10956	4528	-8464	17161	-7492	-397	-11056	5568	11796	379	1610	-1621	-16780	1828	-1664	2307	10261	3827	-13652	2284	-2084	7732	9896	2095	111	109	1
-16628	-10840	8628	-12973	-26313	-31921	-9448	7720	-11448	251	-32768	-10005	-9056	9180	-8132	17483	-3698	1344	-11004	4936	12092	524	1905	-1815	-16636	1552	-2288	2283	10300	3721	-14652	-1724	-6308	9642	10625	2144	112	109	1
-21040	-12584	10604	-19304	-24881	-32768	-11264	8416	-12684	-6525	-32768	-14220	-6468	12568	-7980	14288	-537	3673	-10908	4692	12408	915	3151	-1804	-16876	-648	-4752	999	9706	2669	-14984	-1492	-6168	8679	10486	1825	112	109	1
-27856	-14132	13336	-25856	-24795	-32768	-15080	8936	-13884	-13323	-32768	-20621	-6720	14384	-5464	6556	686	6165	-10432	5500	11832	2370	4484	-2698	-16824	804	-4200	2316	8922	3131	-16576	-1432	-3232	3946	7352	275	107	106	1
-32768	-14212	14632	-29885	-23134	-32768	-19704	8992	-11992	-15893	-32768	-25970	-8996	7968	-168	-14	60	6288	-11044	4436	12348	2321	5621	-2849	-16116	260	-2856	2274	8618	3482	-15960	4228	-1156	5125	7308	519	108	107	1
-32768	7832	21688	-32768	-12642	-32768	-21164	-1780	-13528	-26029	-32768	-21640	-13208	-9152	6088	-3035	372	2450	-11124	5204	11256	139	6864	-2852	-16012	1832	-672	-1110	9483	3032	-15756	10780	-96	5218	6744	-763	109	107	1
-32768	6092	21128	-32768	-13202	-32768	-19612	240	-13296	-20465	-27709	-16692	-17772	-5608	20692	-12119	765	-6937	-11192	5740	11260	-687	7918	-2987	-16992	3548	-276	-5740	10676	3111	-14212	9436	248	-2405	6405	-478	121	111	1
-32768	25108	1952	-5640	-15380	-21613	-14800	-3436	-6864	-10781	-15749	-8209	-18368	-6656	25188	-13730	505	-9535	-11788	6240	11372	-634	8737	-4435	-16220	1888	-360	-3877	11478	3387	-16248	3144	804	-4386	8022	680	148	125	1
-32768	32767	-11788	-12415	-15229	8676	-1104	-3192	-8400	-7277	9075	-2595	-26532	-6252	24228	-16207	5073	-8131	-12104	5468	11452	-1204	9839	-5954	-16672	1316	-528	-2397	13514	4099	-16064	2132	760	-3833	8196	940	109	102	1
-22300	-32768	10068	32767	-6095	15690	-9632	-1640	-10348	-5075	22133	3246	-12352	-7276	9324	-16064	-454	-217	-12208	4020	11964	-1813	13116	-6828	-16752	-556	-760	-1254	15217	4138	-18244	-536	2344	4112	4834	1697	108	106	1
13004	-27272	276	17528	479	24501	-32768	10688	26380	-1421	7050	4859	-10640	-4204	-6552	-12438	15275	-1662	-13140	4872	12924	-3350	17940	-7656	-21672	-1524	1168	-1533	18051	4600	-21904	4444	4016	7048	3328	1328	128	118	1
-14440	2960	23884	7510	19860	20968	-17692	8624	-616	3609	8691	-1136	-31012	1752	8176	12063	-5274	6077	-13384	5640	13032	-4734	23227	-11081	-21360	-3948	4328	-468	20342	5577	-21584	4284	8968	7442	150	-72	116	108	1
-13796	3404	21636	548	19765	15547	-15892	9996	-6476	10360	14012	11683	-25376	-3180	2692	32640	-11146	6961	-14764	7932	15440	-7328	29903	-14616	-24892	-6684	5024	-894	24153	7159	-23448	3052	15048	6926	-11858	-1040	120	115	1
-12864	-15212	6056	-2794	13713	12976	-20124	3076	-10944	-3757	16010	5110	-12376	14132	-4216	10572	5784	5439	-16664	4204	17552	-10544	32767	-19711	-25592	-5864	2904	1820	27597	7632	-20192	-5232	13964	-6113	-22349	-2847	114	110	1
-32768	-32768	-11400	-7351	6869	8703	-19328	-14896	-14024	5512	14042	449	-10788	16180	-7332	6104	7484	5622	-27100	9768	22840	-12389	32767	-22220	-28040	-1544	-2244	-1393	29736	7614	-22888	2056	6952	11684	-16425	-4157	103	103	1
-15296	-6872	11584	6951	110	3731	-15864	3296	-10324	27364	7414	9026	-16768	-7452	-12256	-15304	16134	-7060	-32768	18332	18784	-13490	32767	-23357	-28736	1124	-4624	-4314	28436	6702	-26048	6648	-5264	5424	-22267	-2388	111	109	1
-10556	-8860	9208	4576	-652	2000	-13616	16012	-7044	-2185	9252	2546	-15472	-4584	-6144	-4899	12802	-5319	-11860	14920	22280	-16654	32767	-27722	-26188	1296	-5004	-6399	22770	900	-26188	6488	-2848	-6982	-24830	2076	127	119	1
-10352	-7764	10324	1433	96	454	-15344	7856	-6256	-21699	9906	-2663	-17888	7732	-3408	-1172	12324	3442	-10172	6020	15056	-31444	32767	-32768	-29792	8396	-9672	-13206	7544	1889	-26472	6400	-7232	-12842	-27416	3891	93	95	1
-9628	-8976	9248	-209	667	-505	-19408	-8092	-4648	-10077	7615	-1928	-16580	1568	-2964	-1854	13366	6218	-32768	1496	32767	-16255	-7348	-22636	-8436	12136	-20564	-5540	9117	-2672	-24536	4496	-4232	-12404	-28637	2110	119	115	1
-9564	-9616	8788	-595	791	-547	-17268	-10068	-3932	19400	1185	3179	-15104	-4116	-3164	-2038	15773	5975	-5136	2472	20220	17538	-24744	-13146	-11500	-5620	-6484	1288	13816	-11963	-25740	3488	-2572	-7069	-27995	-429	136	127	1
-9668	-9840	8416	-1051	1491	-229	-16796	-8964	-4336	22385	528	3687	-14660	-6556	-2420	2974	15285	5842	-4268	12144	9696	16174	-26952	-11030	-10308	2436	-10384	5287	-1608	-12172	-23960	1228	-3724	-6340	-26580	-1331	136	127	1
-9600	-10084	8328	-465	1109	555	-13480	6780	-3612	-9994	2797	162	-16124	-4768	-2084	5654	15202	5360	-4440	14016	6536	2643	-28521	-6408	-6972	3332	-10872	6228	-12549	-10539	-19928	1112	-4700	-4067	-25491	-2074	133	124	1
-9340	-9336	8644	266	251	1077	-15892	-400	-2188	-19930	6747	-3215	-16232	752	-272	-195	16514	4862	-3188	8044	7644	128	-27731	3758	-4500	1752	-10652	7545	-17843	-13410	-16180	2464	-5552	-1043	-21239	-2016	124	119	1
-9840	-8480	9100	347	-292	1034	-19032	-6576	-1312	-8620	4352	-928	-15648	2604	880	-6672	16444	5408	-6648	5480	8940	9190	-24994	15329	-5224	4552	-10032	7188	-19550	-15581	-12804	4328	-5432	-384	-17552	-914	122	117	1
-9904	-8592	8788	384	-310	681	-17528	-3756	1796	5227	965	3721	-16524	-904	2892	-8723	15775	4041	-9364	6676	8684	13264	-25485	21595	-6548	6208	-9180	7433	-23179	-17413	-12004	5832	-6520	-2970	-14908	939	107	106	1
-9652	-9212	8552	623	-214	324	-15248	2424	3328	1140	4181	3317	-20056	-3152	3796	-1269	12354	3353	-11420	6812	9632	11918	-26868	22674	-8456	8816	-8736	3209	-30740	-16375	-11124	6212	-7292	-6258	-11503	2409	116	113	1
-9236	-10028	8092	1092	-103	567	-14996	-1416	3652	-5409	8756	1882	-19860	-4112	2684	3919	7274	1736	-15304	6700	11116	11132	-28243	22445	-8484	7588	-9764	-1596	-32768	-18198	-10240	5756	-7824	-10801	-6989	2496	143	124	1
-9264	-10428	8012	1758	-278	1462	-16760	-5372	1608	-3287	10521	2391	-16428	-6312	1552	-378	6485	1911	-20152	7688	11912	11613	-30020	23157	-8376	5864	-10184	-3219	-32768	-21234	-9524	4304	-8244	-15880	-3171	2510	134	119	1
-8996	-10328	7696	1938	-509	1587	-16848	-4088	-1464	3407	9795	4360	-14420	-4780	-2516	-3293	8274	3131	-25548	10100	12352	10519	-31831	24630	-9728	5500	-11344	-3804	-32768	-22630	-7788	1852	-9384	-17085	-450	2309	148	127	1
-9260	-9184	8796	2723	-816	3996	-16524	264	-2952	8177	8548	4819	-14236	-1280	-4176	-506	9334	3575	-32768	11584	12176	6454	-32768	28744	-13668	5760	-11548	-4903	-32768	-22893	-6676	-1172	-8068	-17756	2983	523	143	124	1
-9976	-8528	9500	2875	-713	4291	-15560	2512	-3452	7263	9471	4429	-15160	2840	-5672	2792	7359	3973	-32768	10972	8264	-455	-32768	32767	-17532	5716	-12652	-10657	-32768	-21159	-7760	-1436	-3852	-18414	2869	-1221	126	114	1
-9988	-8792	9536	1962	-173	4242	-16436	1768	-2924	6186	11122	3899	-16060	2736	-2956	3429	5489	3488	-32768	-384	3784	-1293	-32768	32767	-19852	6696	-10904	-11848	-32768	-19276	-11592	2540	6372	-19202	-141	170	127	115	1
-9748	-9428	9568	1802	70	5695	-16052	-792	-3268	5995	12429	3954	-13124	1600	2448	1716	4271	1993	-32768	-9260	-2256	6132	-27210	32767	-21776	2024	-10480	-9738	-32768	-18372	-15304	-2936	16924	-22366	2631	3818	124	113	1
-10644	-8408	9848	1652	1475	6775	-16544	828	-3676	3489	13349	4275	-15944	1704	784	-3178	4330	386	-32768	-10648	-4092	7546	-26078	32767	-15524	-168	-8572	3530	-25197	-8130	-17292	-14684	27468	-18997	6780	2321	118	109	1
-10112	-7144	12728	3609	5011	8026	-17496	2712	-4720	-779	14939	4632	-16648	-28	-2520	-7872	4202	743	-32768	-32768	-17800	15784	-8762	18178	-11268	5352	-3860	11618	-7310	3008	-20432	-10988	30884	2850	1101	-890	126	114	1
-10096	-8084	12260	3303	7610	8241	-18372	552	-4540	-3605	16553	6348	-17112	-656	-3068	-11636	4921	1032	-32768	-29712	-18072	11655	-2646	-1200	-10120	11200	-4840	8956	8907	9773	-15916	-3336	24356	17153	-2708	882	137	119	1
-11492	-9068	11692	2152	9836	9111	-19032	1936	-3912	-2962	17478	7150	-19400	152	-2016	-13999	3106	920	-11800	11776	19244	-21723	-2417	-15904	-13808	8428	4236	-3269	18202	15345	-12828	100	22876	26996	-9142	4402	114	109	1
-10992	-9600	12296	1023	11579	10962	-19376	5320	-4308	-8495	18876	6224	-20152	1396	1796	-13294	-1836	1645	15844	14128	3228	-856	10740	-11345	-32768	-22720	2552	-10676	10023	5395	-4240	804	-12856	32767	16854	5853	114	107	1
-10476	-10996	12920	185	16365	13627	-22824	5200	-160	-14887	21325	6442	-19984	-268	4112	-12136	-3104	1121	-21764	13276	12540	-3633	32767	-2075	-18044	-14484	-5524	-9537	9117	5858	-32768	2268	-528	-2337	-1019	3936	115	108	1
-10772	-14428	12472	1849	20732	20975	-24136	1732	1824	-13978	22213	6779	-20064	3664	8504	-13294	-5501	1279	-17544	-9512	25556	-4546	22461	-5290	-20708	1308	-9732	-3054	10722	14497	-15724	9340	9520	-21389	3726	5076	121	111	1
-13292	-17192	13380	3476	26957	27671	-26824	-1392	1612	-12475	23336	8054	-21604	1128	6996	-10701	-6416	1186	-10624	-2144	14904	5696	18626	-6716	-14488	-2768	-8604	-4892	13012	5023	-11388	-5984	-12800	-10582	15711	827	110	105	1
-20376	-19036	12148	3379	29133	32767	-25472	-3696	-808	-7399	23837	8733	-21456	-9280	-628	-14944	-14394	-3798	-32768	20856	-1216	-4506	8083	-1041	-23928	12944	-5424	1898	10006	9786	-16488	-6504	5708	5149	976	-6178	113	106	1
-30272	-24380	16924	7540	25349	32767	-28236	-3088	-6808	-7373	25234	8028	-21300	-10912	664	-930	-19846	-8188	-12432	-1076	13968	-4710	1821	-3784	-16796	8852	-6744	-6722	6784	7475	-22692	21364	-9704	18387	14750	8028	130	115	1
-22632	-21380	18048	9163	23834	32767	-26848	-1628	-7200	-326	19192	11175	-27024	-2304	-7104	5694	-23041	-13109	-10736	4656	12696	-3235	738	-2782	-15936	1248	-3304	-4511	5524	4881	-14076	15836	-116	-7521	12425	12988	113	106	1
7556	-25064	13744	15020	25282	32767	-19760	2976	-6636	11883	10826	11927	-28632	6808	-7272	13175	-24753	-11565	-12092	4924	12504	-3264	333	-2895	-17612	2668	-4012	-8095	4929	4127	-14740	-2508	1992	-9479	12330	3149	104	102	1
-23052	-20544	24096	7289	-1520	19561	-12260	12016	-26880	9248	9742	9069	-26304	10456	-4288	13134	-23991	-7829	-10156	3644	13580	-1333	-421	-1598	-15532	-2840	-1844	-6462	5277	4594	-16440	-4444	4400	-3553	10078	-1800	152	130	1
-948	-16196	10540	-5706	-13811	-775	-13240	14532	-3700	-7658	2721	-1311	-26148	8012	-3360	2981	-25330	-6969	-10356	4696	12448	-1044	-468	-1834	-15740	536	-536	-3355	5487	5478	-15108	4808	3548	-1033	10619	1071	155	131	1
4044	-13032	5520	-2945	-10677	-5648	-8168	7320	-6416	-18159	-5607	-4308	-21924	6892	-4436	-6363	-21260	-8733	-10052	5420	11980	-1784	-1174	-2777	-16076	3052	-388	-2148	5087	3796	-14668	6756	1944	-88	11012	4143	117	112	1
2116	-8392	6736	-1559	-5543	-11549	-7752	6708	-7036	-18792	-6394	-5397	-17680	4108	-5368	-12750	-17538	-8006	-10344	4788	12008	-3144	-2038	-3600	-15880	1776	-1464	-2378	5075	4202	-14948	6728	1716	-842	10516	2109	106	104	1
-1452	-7588	9608	-4390	-5732	-19799	-5112	2468	-8768	-4521	-17315	-9891	-14072	1336	-5476	-13754	-14317	-8196	-10292	4328	12664	-3790	-2780	-3711	-16448	-164	-3848	-4334	4680	3377	-16588	2196	2220	-4948	10671	2751	120	115	1
-5568	-7124	11828	-7309	-11004	-25133	-6256	4000	-9012	2952	-25082	-10140	-12748	288	-6304	-9294	-11830	-8016	-10340	2952	13472	-2640	-1783	-2755	-15856	-3124	-5144	-5012	3852	3012	-16748	-4876	2372	-4312	12195	2352	112	110	1
-8684	-5472	12284	-10634	-18161	-28483	-6400	5040	-8272	6605	-30064	-11839	-12436	148	-6256	-3294	-9580	-5983	-9956	3120	13112	-1176	-472	-1720	-15440	-3020	-4160	-837	4411	3882	-15820	-5160	1628	4358	14554	1608	110	108	1
-9820	-4648	12204	-14637	-23566	-29528	-6948	6296	-7676	7453	-32768	-13566	-11028	272	-6268	5318	-7955	-3060	-10324	3780	12844	-615	109	-1490	-15740	992	-3484	1460	5245	4406	-15288	-3804	1208	6163	14938	1420	111	109	1
-12220	-4800	12572	-19061	-26718	-28975	-8428	8240	-7492	5666	-32768	-14545	-8788	2656	-7284	12502	-7297	-151	-10528	3724	12868	-508	47	-1696	-16436	1476	-3764	1073	4258	4841	-16444	6968	-2392	8278	16677	20	111	109	1
-15704	-6012	13396	-23235	-28760	-28428	-9164	12440	-8020	-3492	-32768	-15040	-6704	6116	-7728	15942	-6861	2770	-10408	3480	12992	-783	-111	-2062	-16240	2136	-4304	-1119	3402	4570	-16408	7676	-1296	624	19956	441	113	110	1
-17444	-8072	14416	-25240	-28489	-29129	-8940	10276	-9008	-12040	-32768	-17498	-5760	7716	-8580	14054	-6886	6134	-10368	3356	13032	-217	295	-1828	-16740	440	-4340	-907	3197	4538	-14472	4316	236	-1875	20178	7	121	113	1
-20176	-11268	17468	-23622	-25000	-31574	-13932	8404	-11144	-12182	-32768	-20813	-5904	8572	-6552	9024	-5043	7897	-10164	4076	12980	-66	1179	-2088	-16016	40	-2944	2199	3282	5251	-16324	600	1016	-860	15808	-70	117	109	1
-27940	-12816	21256	-20453	-22083	-32768	-19540	6952	-10432	-13664	-32768	-21476	-6380	6788	-2736	-80	-3548	5715	-10212	3748	12924	329	1734	-2535	-16068	332	-1240	3582	4472	5257	-17272	2460	224	-4227	11794	396	108	107	1
-32768	-5760	22220	-19037	-19205	-32768	-21628	3856	-12760	-12699	-32768	-19847	-10704	-1248	904	-6199	-3813	1029	-10360	3516	13272	1268	3026	-3091	-16712	-588	116	4163	5943	5426	-17880	5240	3848	-4884	10528	2141	111	109	1
-32768	1740	14232	-20031	-17648	-32768	-22052	1568	-12252	-10281	-32768	-12357	-12236	-2836	1276	-6818	-3483	509	-8868	2696	14912	283	5723	-3216	-17712	-2660	808	3143	8243	6004	-18020	2968	7756	-463	8861	2719	126	116	1
-32768	8548	1508	-13932	-14327	-32768	-18680	1340	-10676	-1494	-28609	-9591	-19108	-9428	21356	-6367	3794	-7098	-9732	2508	14684	206	9296	-2819	-17756	-2372	256	2681	11308	6502	-18044	-3156	7420	3371	6492	1737	130	125	1
-32768	31500	-7680	-11081	-4286	-22276	-8372	7180	-12544	-6135	-11789	-8460	-25948	-6512	30632	-7419	3677	-2117	-10260	2980	14264	-379	13775	-2540	-17208	344	-732	2282	14649	6144	-16572	-1112	4288	6226	4721	-1098	123	117	1
-32768	28752	-9316	-9906	700	-5663	-6068	-4056	-8348	-8681	9355	-353	-19352	-5676	21160	-6181	993	399	-11400	3892	14120	-1113	17492	-3231	-18676	404	-776	2421	16381	6321	-18132	6964	252	9947	4979	-798	123	116	1
-32768	12996	-4084	9070	2542	14051	-10720	-2960	-13752	1013	23026	4628	-14956	-8140	3352	-5939	4901	-1549	-11512	4844	13480	-1650	22254	-5206	-19152	-1028	412	6739	18354	7250	-19236	6464	2736	12092	4187	162	131	117	1
8352	-32768	6952	17882	-4074	19026	-32768	76	26356	-8754	9331	-460	-10132	-4820	-6184	-9810	13704	-2347	-12260	6208	14088	-3621	27499	-8952	-19184	-624	1244	7543	18800	7462	-20740	2492	9296	9732	2435	686	109	105	1
-1560	-7360	15380	24089	22684	32767	-22764	2668	3508	17360	2861	-2256	-21632	2216	312	1363	8575	2860	-13248	9268	14624	-6869	31798	-15328	-23916	-4460	4596	9575	22809	10195	-21684	2528	13984	17621	-6173	-286	133	118	1
-18224	8016	24580	2296	22900	10689	-18760	18748	-4072	21935	11279	11864	-32768	236	2140	32767	-13757	3338	-14204	6260	14480	-10619	32767	-23138	-26600	-3096	1912	5979	25136	10820	-19844	-6244	9596	6872	-12354	-2108	133	119	1
-14576	-6156	13416	-5459	13264	16662	-19384	17536	-5180	-6729	18555	4111	-16424	11820	9148	15868	3266	7389	-17040	5760	14416	-10148	32767	-26832	-25792	-4312	-52	4327	26363	12168	-23048	692	7424	15663	-15373	-3546	128	121	1
-8516	-6252	13300	5620	7702	7109	-21260	-12992	-12636	-23956	20408	-2806	-7152	8684	-13092	-9477	20349	9140	-22004	5612	18648	-8004	32767	-29717	-28252	2236	-4244	3552	27488	11755	-23008	8028	-240	16260	-18542	-272	88	91	1
-11284	-14520	4192	6084	2720	4379	-18180	-14588	-8156	20843	11299	6950	-13336	-1324	-14644	-18146	19203	-4267	-24244	11756	24524	-8935	32767	-32135	-26796	3048	-6460	5853	23672	9848	-26992	7188	-5864	7153	-23537	2927	107	106	1
-11332	-12952	7504	5679	688	4731	-14484	11156	-7264	23572	3933	7218	-13396	-12512	-7472	-5486	12323	-8119	5072	13996	19864	-10968	32767	-32768	-23536	-276	-7332	630	13827	3023	-27852	1768	-5824	-6028	-25456	4163	143	133	1
-10744	-6992	10820	4088	-126	3128	-14284	12004	-6012	-8729	8560	36	-19676	-1348	-3332	3883	8824	696	-32768	11832	32767	-11098	9528	-30146	-11288	10308	-26676	9460	-6257	5392	-25200	-580	-4676	-8549	-25933	3105	144	124	1
-9660	-8140	10304	1150	411	983	-17892	3024	-3196	-18419	12482	-1409	-18336	8000	204	2341	9003	7826	-11920	5488	27440	12065	-22027	-11084	-14196	-9404	-8792	1580	11401	-1710	-25868	1452	-1636	-2313	-27756	2121	106	107	1
-9736	-9584	8804	198	832	587	-19112	-8756	-3264	-1525	7484	1305	-15272	1196	-660	-422	12099	7610	-980	10028	9480	17730	-20514	-2133	-11204	1116	-11628	8033	725	-6885	-24340	3864	-2892	-645	-24312	4509	156	130	1
-9588	-10336	8052	608	507	669	-17088	-3760	-3604	11596	3636	4749	-13224	-6064	-1292	-4520	14710	5951	-3024	13024	7700	5958	-19189	4814	-8956	3240	-12304	4283	-10396	-5859	-23200	1904	-3940	-2227	-25131	4364	152	129	1
-9488	-10436	7964	1475	-427	1518	-15720	3996	-2512	1871	4525	3395	-14860	-7140	-1852	-2032	13995	4510	-3228	6432	10184	-657	-19373	13446	-6560	1316	-11776	444	-18229	-7352	-18144	1960	-5044	-2147	-22359	3685	127	115	1
-9404	-9596	8484	1984	-840	2033	-15140	2836	-2632	-11081	6709	1747	-17060	-2428	-2860	4201	13151	4601	-3052	5108	10724	-346	-19211	14758	-6704	356	-11452	-2791	-22189	-10123	-15616	644	-4804	-4573	-18852	3512	119	111	1
-9188	-9552	8768	2165	-1143	2473	-17372	-3188	-1700	-8128	6232	1104	-16848	2604	-1796	1231	13465	4930	-7096	-1296	12684	15043	-19596	22286	-5928	-104	-10404	200	-26056	-10458	-13924	752	-5664	-8261	-17951	2673	127	115	1
-9520	-9332	8804	2054	-1050	2774	-17800	-2744	-1704	3212	3422	3214	-14948	1544	140	-4187	13907	3637	-9056	-504	12408	19186	-22795	19615	-6128	-184	-10084	2709	-29927	-10555	-11672	-1196	-6996	-9796	-14653	182	137	120	1
-9664	-9068	8992	1932	-894	2803	-16380	2332	-2020	4926	3822	4741	-15304	-532	1748	-6450	16570	4149	-12108	172	12840	20298	-26451	16270	-5144	-928	-10716	5935	-32768	-9278	-9476	-3568	-7168	-8363	-12051	-3028	130	117	1
-9760	-8596	9248	1657	-593	2683	-14864	4444	-1360	-449	5788	3236	-17696	360	628	-3032	16308	3939	-14708	8	13764	22749	-28713	15402	-5912	-684	-11632	9061	-32768	-9374	-7796	-3756	-7604	-5408	-9812	-6189	129	116	1
-9760	-8264	9760	949	-45	2328	-16400	2668	-172	-3300	7897	2262	-17776	1196	-1900	824	11936	4451	-16932	748	15096	25317	-29080	17998	-7008	-144	-12788	11197	-32768	-9804	-6672	-2900	-8104	-3450	-5989	-7084	125	114	1
-9672	-8804	9436	331	331	2283	-17088	-1020	-228	1680	8216	2953	-17100	-2728	-2072	2130	8255	6440	-21908	2316	18036	26092	-28978	22441	-10432	2508	-13940	11097	-32768	-9506	-5680	-2604	-8772	-950	-1698	-6558	127	115	1
-9788	-9440	8924	290	-82	3284	-16516	-1548	-3572	7163	7798	3699	-14636	-2900	-2504	1221	9152	5439	-29200	-164	20488	24019	-29159	28931	-15224	3368	-12776	9775	-32768	-10994	-7136	1056	-6500	-128	725	-5047	131	117	1
-10244	-8808	9088	-153	-624	4504	-16360	244	-3108	9326	8058	4284	-15816	-1504	-2544	2696	8976	4076	-32768	-6268	18804	21236	-29475	32767	-18612	5936	-14000	5025	-32768	-12772	-10324	8292	-1692	729	365	-815	130	117	1
-9612	-8740	9700	801	-337	5145	-15744	184	-1472	5459	10502	4630	-16680	-1620	-1096	6583	7016	4127	-32768	-17180	15596	17483	-27271	32767	-22920	8844	-14120	-1889	-32768	-15388	-14908	14528	9500	5322	-3262	6541	125	113	1
-9676	-8236	11236	2898	1969	5904	-17028	-272	128	4105	12294	5645	-17580	-2284	1536	6976	4948	3506	-32768	-19660	3360	8065	-27300	32767	-20476	8180	-12452	-8678	-28662	-19625	-19472	4280	21868	8572	-2142	11348	120	110	1
-10068	-8340	10924	2608	4519	5572	-18164	-672	-156	5157	14565	8008	-18012	1284	4496	2189	4624	2819	-32768	-27880	-20848	1001	-26760	15811	-14096	-5072	-10988	-676	-18304	-4773	-21964	-1720	28260	-2614	14657	13864	106	102	1
-10612	-9268	11436	3780	6672	8021	-18284	448	-428	3739	16579	8985	-18488	3880	6328	-6028	1889	2463	-32768	-32768	-27952	20091	-7469	368	-7792	4588	-5548	11832	1204	7015	-15104	324	29100	2562	4661	-3915	116	110	1
-11240	-9000	12396	3906	8942	10057	-18044	620	-2424	720	19718	9876	-18176	828	3272	-11250	-826	1694	-32768	-2376	-25716	-13400	14435	-11888	-13892	13048	-13428	-3288	16894	11142	-12108	-3744	14312	191	3689	-8311	154	129	1
-10732	-10936	13908	4058	12269	12192	-22960	3988	-3308	-4033	21567	10747	-21688	-4936	2500	-13865	-5231	1643	-10108	25168	20836	-5714	8206	-10220	-28000	-10912	10652	-451	10330	3869	-14648	4472	3192	4269	6091	-719	111	106	1
-11480	-18488	13036	5583	16041	19476	-26736	3780	2896	-12512	23756	9779	-21400	-3148	5440	-13314	-8739	906	-12276	12616	15756	-17683	23990	-16517	-24204	-6784	896	-26267	-2549	10922	-18000	7696	3300	8889	8798	4751	108	104	1
-10328	-15496	15064	4872	21918	29868	-28292	912	2676	-13168	24878	9455	-22164	3776	11968	-3543	-11560	1825	-15364	-10284	24356	-6558	18734	-7280	-16908	-7548	-5720	-17453	11753	6434	-25804	12336	7808	-21031	-5634	5780	116	109	1
-15708	-20616	16656	5017	29234	32767	-29172	-3552	156	-9189	24763	12463	-23700	-7320	3424	-9460	-14570	-1169	-15820	3920	14504	-2098	14562	-11936	-15540	-2964	-6316	-4878	14407	6892	-19976	-18436	-1232	-32768	8174	9542	120	110	1
-32768	-31668	13196	10899	27039	32767	-26564	-8016	-10116	-7298	25551	13006	-21300	-9624	-1604	-3960	-20128	-7745	-13736	1844	20464	-14512	3944	-11550	-20668	14000	-5012	-4543	11294	12903	-9512	-712	-4276	17289	11400	-144	130	116	1
-24832	-31360	14464	13948	19508	32767	-28676	-5684	-9072	-3020	19364	15452	-26748	-8168	-8872	7041	-21886	-13990	-13312	6056	12012	-8565	-554	-6979	-15608	4408	-3828	-10539	11537	4976	-13644	15020	-8756	25953	2115	-58	129	115	1
10264	-30760	15112	28514	19480	32767	-20292	-2028	-9024	14269	9808	15133	-31192	1360	-9520	17806	-24475	-15147	-12336	5712	12532	-3967	-2293	-4711	-15756	1404	-4920	-3912	6669	3605	-15672	19728	216	-1976	7569	13444	96	98	1
-21972	-14788	23592	18406	-2966	20438	-12976	11068	-30540	20725	6123	15582	-28088	5468	-6268	18714	-24190	-10354	-11652	2572	13544	-3032	-2413	-4108	-17744	1452	-4524	-3565	5798	5323	-20576	1524	-284	-12997	10395	8032	126	115	1
-1932	-14784	8812	717	-11695	-3414	-11556	11252	-28240	16091	7352	15425	-26476	4048	-4784	12172	-23893	-8990	-10404	2400	13708	-1968	-959	-2307	-16444	-444	-4512	-3384	8223	5574	-15932	-3944	2544	-3110	10161	-2350	136	120	1
1140	-15932	3700	10166	-8335	-10000	-6892	5208	-9624	-9634	-8107	3498	-23716	3108	-6748	4323	-21170	-10052	-10124	3160	13208	-805	141	-1039	-16804	-1184	-3284	-2082	7286	4169	-14324	1800	1884	998	11570	-2406	107	100	1
176	-7668	4220	14227	-4478	-17372	-7568	1972	-8988	-4030	-12183	1504	-19288	1252	-6684	-1590	-18449	-11095	-10108	3716	12836	-239	644	-671	-15928	908	-2220	789	5405	3782	-15040	4808	992	-544	12313	1531	123	112	1
-2540	-7488	5640	9140	-5098	-24835	-4704	-524	-10428	4087	-20141	943	-15452	-700	-7396	-222	-14423	-11793	-10228	3836	12488	-197	468	-824	-15580	620	-2192	3697	5358	3809	-15928	4604	692	-1808	11785	3337	130	116	1
-6004	-8064	5900	6625	-9790	-28653	-4240	228	-9444	11797	-27372	655	-11904	512	-7208	2226	-12253	-12466	-10136	3380	12880	3	261	-694	-16388	352	-3272	4209	5507	3819	-16136	3600	668	-1606	11557	3483	117	113	1
-8084	-8000	5760	4578	-15733	-31045	-3728	1556	-11084	16671	-31792	-890	-10680	2164	-7676	3011	-9662	-10219	-9972	2952	13316	865	1081	-201	-16628	-220	-3544	2245	4713	3799	-16640	-2988	2376	4195	12963	1921	113	110	1
-9884	-7484	4796	1432	-21228	-31976	-4032	2656	-9576	16295	-32768	-3392	-10516	2804	-7292	5023	-8327	-6748	-10288	3556	12972	1703	1802	229	-16560	156	-2376	2216	4231	3611	-15492	-768	1864	11898	14381	419	114	111	1
-12224	-7524	3992	-3352	-25003	-31582	-4612	3988	-9884	14042	-32768	-4876	-9156	1888	-6808	11218	-6450	-2380	-10484	3768	12600	1745	1934	217	-15656	1160	-2048	4376	4403	4016	-14372	4348	404	15764	16509	40	112	109	1
-15124	-7784	3984	-9729	-27077	-30991	-5392	6264	-9604	7832	-32768	-6743	-7236	3176	-7284	18290	-5167	1714	-10536	3924	12656	1607	1797	66	-15968	1448	-2408	5791	4558	4430	-14788	5020	80	15466	16821	-108	120	110	1
-17228	-9592	5280	-14921	-27180	-31280	-6824	7348	-10876	-622	-32768	-9735	-6064	6600	-7996	20551	-4762	5013	-10480	3704	12780	1323	1752	-192	-16416	16	-3096	5242	4096	4553	-15928	4996	-440	6683	20581	508	121	111	1
-19272	-11168	8112	-18722	-25794	-32497	-9652	8092	-11984	-7017	-32768	-14453	-4684	10476	-7828	18416	-1004	6366	-10420	3636	12656	963	2057	-340	-16072	832	-1920	5256	3977	4615	-16192	3908	1716	6029	17467	-985	118	109	1
-24532	-12392	12916	-22887	-22918	-32768	-14384	8260	-13240	-13583	-32768	-18400	-5732	11628	-6156	11563	501	8370	-10428	4452	12496	871	2261	-862	-15396	1896	136	5094	4530	5280	-15756	2784	1364	2894	12326	407	119	110	1
-32768	-14124	14524	-24169	-20795	-32768	-18452	7592	-11912	-15683	-32768	-22051	-8884	7620	-2096	3438	1819	7191	-10536	5144	12192	1350	2251	-2213	-16828	2064	712	3907	5925	5836	-16356	5536	3200	-1185	11043	1828	108	106	1
-32768	344	18920	-26819	-13043	-32768	-22228	244	-13708	-19889	-32768	-19892	-15064	-6224	3860	1521	979	1168	-10712	4184	12616	1890	2860	-3215	-16088	1400	1536	3180	7061	5497	-16980	7668	5488	-1127	9061	1930	120	116	1
-32768	2392	11136	-20307	-11015	-32768	-23224	1664	-11456	-14583	-30975	-12364	-20384	-5268	14460	-3541	482	-8066	-9452	3864	14060	402	5235	-3327	-17108	-976	1924	1196	9607	5662	-16816	3080	6016	1191	6985	2808	116	114	1
-32768	12512	-4752	-2314	-10084	-30833	-16828	-4460	-10280	3582	-19196	-9719	-27120	-5596	25220	-2676	6498	-10634	-10216	3872	13780	16	8020	-3715	-16864	-148	1800	-605	12068	6259	-17528	1292	5804	1530	6626	2841	111	108	1
-32768	32767	-9948	-7422	-804	-13116	-8836	5584	-9932	5170	-2059	-2161	-26216	-4676	30156	-8812	3619	-2611	-11036	4016	13456	-1186	10594	-4134	-17460	2204	628	-1348	14820	6635	-16200	2428	5656	6492	4076	216	116	113	1
-32768	23168	-6016	-5518	5594	-67	-7772	84	-10088	1136	15172	3397	-15592	-5388	15684	-7978	4916	-48	-11248	4436	13572	-1191	14744	-5541	-19384	-56	-32	1078	16817	7484	-18920	7888	1968	12043	3350	633	128	120	1
-18260	-25148	22880	17697	6250	13766	-24892	5208	17148	-13797	16847	2349	-11756	-3880	-3728	-10436	12035	-5129	-11936	5664	15928	-1326	21082	-7255	-22508	-1808	844	6236	19370	9273	-21684	5304	4556	9823	2189	2017	127	116	1
4820	-1380	10196	14491	19516	24058	-27020	2324	1748	8019	6880	-3837	-21328	308	924	-12163	13948	1218	-12176	5344	14816	-1437	29903	-9979	-22512	-10132	852	12379	22010	10968	-22600	460	12316	12717	-6619	193	141	122	1
932	-3356	11800	12934	22468	25244	-14488	12616	-1224	17731	9821	10369	-22040	-5160	7896	18156	-6678	5202	-13612	8040	17700	-3229	32767	-13623	-23936	-7636	1448	16142	24506	12251	-17180	-17108	10520	1489	-15892	-3329	153	129	1
-12600	-5464	17268	-5741	15465	17002	-16488	13012	-2864	3367	13836	5950	-17008	4140	3260	24444	-2791	5587	-14748	6888	15136	-7294	32767	-19668	-24772	-5312	44	13568	25748	13186	-23200	-10188	9588	18843	-15210	-6820	114	109	1
-27012	-32768	-14148	2088	11921	4566	-23288	-4732	-12888	-11952	18006	-349	-12840	12256	-236	1535	6071	6179	-25388	396	19956	-784	32767	-22587	-26632	-408	-3800	16685	27828	13642	-22476	-5164	5972	23909	-16094	-6519	105	101	1
-15612	-7140	7480	8133	2734	9299	-17512	-15852	-9896	14355	12814	720	-18716	-4852	-8824	-5572	18605	-519	-26724	2388	16992	7275	32767	-24510	-30720	976	-10412	14494	27539	12889	-30232	11740	-3424	23153	-22647	393	97	101	1
-12052	-8568	10344	7622	745	6437	-15900	5736	-7384	31570	6627	8234	-12520	-8672	-11696	-3245	13963	-6811	-21436	21928	22552	4415	32767	-30980	-23304	5036	-8028	11896	21099	7245	-30572	7552	-8588	1953	-27205	3847	139	120	1
-10408	-8712	9652	7615	-172	5418	-13656	9092	-4844	6133	6121	2354	-14824	-4948	-3840	9735	7080	-1840	-32008	-1656	28964	-3326	28954	-32768	-27096	13868	-13368	3457	3044	11739	-28432	1476	-4808	-8906	-28368	2454	143	124	1
-10584	-7020	10800	4433	-79	3003	-16984	7952	-3968	-8723	11232	-418	-19084	4276	-1240	10119	7004	3787	-29128	6820	32767	11758	-16589	-32768	-5456	3532	-16020	1489	12091	4988	-25080	-432	-3172	-2895	-28313	823	99	100	1
-10572	-7132	10824	3945	-81	2620	-18152	-28	-3980	-6763	9341	1151	-18032	7244	-540	6291	8529	5561	-6748	6140	13148	27644	-26990	-22254	-7632	-7256	-9900	10862	698	-494	-23320	-904	-3396	5400	-26282	119	145	124	1
-9760	-8764	9184	418	663	667	-17628	-4044	-2892	9261	5059	3323	-13620	3244	-1360	-1942	10749	5280	-1888	15220	4864	22339	-25286	-13614	-7640	196	-11420	11784	-6790	-3065	-21628	324	-3264	4539	-24178	1986	142	123	1
-9716	-9056	8908	301	562	728	-16336	4548	-2668	9641	4201	2451	-13688	-1136	-1748	-4968	10636	5331	928	13728	3872	4145	-21794	-682	-5392	-1480	-12028	5696	-15383	-1478	-17732	216	-4372	5459	-22878	969	123	114	1
-9572	-9368	8476	362	263	855	-14976	6136	-2832	-5889	6577	1293	-15716	-2248	-1788	-1543	10467	3290	2820	5240	7204	3394	-13873	16658	-3504	-1528	-11692	1141	-19078	-4779	-14088	-24	-3968	6572	-19489	966	134	119	1
-9664	-9376	8428	704	-83	1239	-16160	1360	-3056	-13468	7465	-404	-17912	1656	-1780	-1025	12062	1370	-1240	2752	9484	11162	-7678	30041	-4300	-2852	-10436	-639	-21528	-5404	-12172	844	-3100	4609	-17123	104	119	111	1
-9764	-9288	8692	1026	-311	1602	-17496	-3572	-2120	-6989	5855	541	-16504	3092	-1004	-5558	14861	1746	-4844	624	11816	11317	-7509	32767	-3996	-1600	-9844	-705	-23622	-7552	-12036	1144	-3936	-560	-13432	-1200	128	116	1
-9924	-8820	8944	909	-283	1606	-17528	-1168	-2728	3752	3573	2433	-14564	176	-472	-11006	17202	3187	-6748	-3508	14036	13616	-9427	31559	-4676	-1596	-9912	-510	-25517	-7483	-10984	1344	-4864	-5681	-10331	-3909	131	118	1
-9960	-8756	9080	680	-111	1436	-15936	3828	-3596	2599	4478	3123	-15612	-2912	196	-10407	18281	5293	-11492	-4892	16360	17564	-13045	26287	-5372	-992	-10516	6852	-32768	-7305	-9588	1368	-6144	-10533	-8629	-5703	124	114	1
-9992	-8688	9040	476	26	1235	-15484	3720	-3420	-4022	5480	1755	-16784	-2676	-1452	-5290	15162	4850	-17544	-3324	18344	17788	-22048	18773	-6352	1628	-10816	10538	-32768	-9255	-8900	1300	-7252	-13994	-5046	-5950	124	113	1
-9956	-8792	8824	315	23	1206	-16528	1732	-2240	-5821	6234	1176	-16088	-2508	-6848	-225	11495	5056	-20244	-5152	18792	19572	-31148	14163	-8200	2504	-11464	11187	-32768	-9966	-7712	2052	-6752	-12930	-1659	-5185	132	118	1
-9808	-8508	9208	263	247	1277	-16804	220	-1136	-1122	5605	1970	-15664	-2100	-5828	3258	8731	5885	-21752	-2068	17560	22588	-32768	14360	-10112	2744	-12596	10298	-32768	-11924	-7024	1836	-6312	-8136	1294	-4074	131	117	1
-9880	-8312	9200	-14	546	1222	-16168	236	-1084	3985	5268	3114	-14868	-168	-644	8256	7138	6331	-27380	1692	17196	20921	-32768	16804	-15204	2216	-13056	7259	-32768	-13552	-7712	640	-4756	-2350	3956	-3019	122	112	1
-9876	-8928	8808	-135	538	1453	-15736	404	-1368	4763	6369	3538	-15684	1492	2512	10123	7201	5071	-32768	620	16388	18294	-32768	21773	-19504	4784	-11824	4631	-32768	-15360	-10292	2496	-1060	3070	4000	-1379	125	113	1
-9988	-9132	8924	-33	304	2263	-16404	-400	-460	4899	8024	3735	-17744	636	2324	8424	6800	3328	-32768	-3028	13368	15211	-32346	27020	-22488	6692	-10416	-876	-32768	-15514	-14392	6044	5068	9191	4765	1770	132	117	1
-9900	-9688	9104	78	220	3811	-17184	-980	-944	5921	9851	4666	-17416	884	2112	7793	6557	3039	-32768	-7056	3248	10314	-30127	29516	-25080	3760	-9564	-8218	-32768	-16199	-20720	4068	17232	8565	3318	5956	132	117	1
-9904	-9520	10004	596	735	5651	-17492	-528	-1276	5813	11544	5362	-17196	-56	-36	-337	5781	1727	-32768	-16252	-13360	4703	-24137	25899	-18064	-6744	-12168	1118	-24194	-10094	-17664	-3692	30760	-5824	9852	8848	121	111	1
-9352	-7856	12184	2308	3748	6493	-17332	2404	-1380	4021	13160	6805	-17468	-928	88	-3651	4080	2182	-32768	-32768	-22720	12670	-7200	19658	-6684	48	700	9812	-5487	-392	-19040	-484	32767	-8096	5634	1665	127	115	1
-10352	-8164	11428	2061	5845	6197	-16840	176	-2604	2309	15125	8747	-16948	-1668	-116	-7449	2055	2650	-32768	-32768	-23720	9973	6179	6396	-9520	14832	-2620	1917	12714	8745	-16468	-4004	24700	-2480	693	-7139	135	119	1
-10728	-8736	12000	2049	6267	6492	-18588	-348	-4488	3903	15849	9580	-18524	-2024	-1424	-10178	222	3173	24128	32767	22688	-32768	3208	-10898	-16336	8336	8644	-10937	19897	13219	-13892	108	6952	4326	4881	-4056	116	109	1
-11232	-10812	11256	3133	10602	10243	-20048	3256	-3848	-2349	16987	10135	-20168	-2204	1880	-8777	-3457	2576	11252	10316	-5168	-11733	3558	-10553	-30420	-3440	368	-10475	5686	8403	-9276	-2808	1544	7140	8917	2795	118	110	1
-11192	-14256	10380	4390	12957	15827	-22372	2828	2380	-10432	19873	9480	-18908	-680	5412	-6684	-5050	1411	-3080	7928	20056	-20798	20563	-12605	-24728	-17936	2696	-28131	-265	6725	-9908	6200	-3528	2030	8519	9268	121	112	1
-11340	-13596	13560	5910	15332	22790	-21732	4160	2008	-11392	21382	8544	-19644	2540	14284	-9758	-9862	1612	-18052	-14164	24112	-9839	26280	-1000	-21420	-9348	-5700	-15494	9012	7363	-29496	9128	9876	-23461	-6602	11835	120	111	1
-13536	-12744	15172	4120	21916	28255	-25236	1696	392	-8570	22220	11983	-19940	1440	5952	-6052	-7724	1633	-14636	-13436	24220	1549	17955	-11730	-18260	-10744	-7928	-2558	12800	8005	-25424	-25272	2700	-23910	8120	5273	123	112	1
-20068	-22360	13976	4134	27005	32767	-26520	-4316	-408	-5657	22318	13929	-20352	-11256	-924	-11269	-13995	-5414	-32768	32767	-7124	-1828	8416	988	-18944	13348	-2792	3532	13114	9207	-11588	-8200	1108	12437	11763	-3147	124	112	1
-24576	-27832	15056	12047	20648	32767	-28952	-5188	-9356	-4466	23575	13934	-23868	-12444	-3052	5644	-21142	-10587	-12072	-1636	12144	-6916	1831	-4884	-18672	13160	-6444	-6161	10602	7586	-15348	25212	-13704	32767	8969	-3182	127	115	1
-20280	-27712	13452	16034	17367	32767	-26068	-2476	-9820	6191	17092	16651	-29256	-2308	-9056	11625	-23957	-14527	-13908	1184	14804	-4122	-292	-3814	-16408	2468	-5124	-5234	5251	2326	-15792	22764	-4152	-4335	9358	13890	88	93	1
7212	-20688	11852	27657	17865	32767	-17888	424	-12032	17360	8877	14014	-28304	5652	-7488	16911	-24070	-11233	-10620	2476	13496	-1504	-868	-1742	-16912	52	-5408	-2537	4859	2453	-18908	4464	-2640	-20059	11717	7412	106	103	1
-17844	-12480	19484	18569	-1934	23989	-11160	11156	-24640	16217	5265	12716	-25724	8448	-4832	14033	-22241	-8212	-10840	2720	13628	-507	-177	-764	-16752	-2904	-3800	62	6297	4294	-18200	-10768	1028	-13857	10086	-2518	126	114	1
-4128	-11732	7924	-2258	-11864	1583	-10072	14492	-8916	-1993	1969	4228	-24796	7944	-4420	6500	-21792	-8528	-10668	3824	12604	405	572	9	-16620	140	-2012	718	5720	4899	-14628	-3296	3300	-1977	11070	-3066	144	123	1
404	-14240	1696	150	-11611	-4875	-6108	6572	-7688	-15692	-6101	981	-21492	6920	-4784	-801	-19292	-10418	-10644	4372	12096	299	600	-40	-16852	1668	-748	-530	5916	3095	-14568	3572	2868	2851	11698	260	117	113	1
932	-9992	728	6589	-8002	-8737	-5048	3368	-7148	-10772	-8649	-3252	-16876	5440	-4700	-4693	-15907	-10583	-10448	4888	11692	184	527	-486	-14924	-276	1360	2325	4464	3481	-15360	6400	2956	728	10767	1658	122	117	1
-60	-5504	2376	3062	-5045	-16423	-4156	2352	-8380	-4025	-14993	-5365	-15656	4972	-4628	-5002	-14746	-10583	-10268	4812	11716	-188	-63	-1236	-14960	292	820	6150	5082	3701	-16212	6268	2824	-2883	9819	3822	122	117	1
-2832	-7776	4240	-2948	-4106	-22029	-3980	1768	-7940	3423	-20997	-6408	-12420	1000	-5044	-4764	-8852	-10180	-10564	4076	12068	-594	-190	-1592	-16492	1460	-1080	5388	6307	3769	-17132	-1276	2648	1812	9251	2655	114	111	1
-8848	-8540	7016	-5751	-7582	-27022	-5096	3196	-9788	6222	-25702	-8463	-12732	880	-5424	-2587	-5683	-8201	-10732	3520	12612	-517	129	-1279	-16836	284	-2256	1425	5508	3140	-14928	-3256	2556	10264	11830	2264	115	112	1
-13344	-8372	8144	-7986	-15588	-32157	-5244	4184	-9692	8577	-28586	-12070	-12708	88	-4856	4210	-4966	-5784	-10836	3624	12644	186	718	-670	-15768	-800	-2424	2699	5479	2614	-13552	568	1416	18568	12972	74	113	110	1
-13540	-6264	8060	-10810	-21950	-32768	-7464	5208	-7676	10125	-31470	-14386	-11348	1840	-4092	12245	-6221	-2668	-11044	3948	12192	647	1012	-341	-15260	568	-2148	6234	6084	2949	-15764	5484	-240	19782	15159	-1789	111	108	1
-13192	-3976	8284	-17370	-23662	-32582	-9864	7244	-6116	7612	-32768	-15459	-9760	5484	-5036	16968	-7083	86	-10812	4308	12084	694	900	-372	-16328	2180	-1944	6111	6391	3122	-16616	8336	-1880	12289	15927	-1764	110	108	1
-14676	-6380	9496	-22047	-22293	-30614	-10072	10248	-7176	2969	-32768	-16953	-8808	7536	-5608	17068	-7240	2604	-10732	4184	12220	652	1045	-563	-15980	720	-1948	3259	6011	2471	-16464	6992	-1444	3023	15077	-547	111	109	1
-16352	-9656	12320	-21115	-19528	-30273	-10800	10776	-8884	-3129	-32768	-19601	-7076	8708	-5152	13421	-5680	5921	-10824	3960	12208	274	1021	-849	-15668	180	-1888	2794	5974	2174	-15364	1888	832	-652	13490	1175	116	112	1
-18200	-9300	16932	-20823	-15855	-31888	-14724	9948	-9764	-9020	-32768	-21858	-8092	8380	-3556	4498	-5086	6823	-11012	4184	11840	167	1002	-1077	-14900	668	-1108	2934	7033	2908	-14520	628	2812	-1652	12362	1041	116	113	1
-23788	-9844	21884	-23538	-13912	-32768	-18440	8516	-10776	-13409	-32768	-21720	-9004	5112	-536	-3736	-1175	3394	-11012	4336	11808	92	868	-1175	-15300	1532	-520	738	7741	3102	-15744	3608	2124	-2662	10495	170	122	117	1
-30764	-7444	24248	-22524	-15259	-32768	-21172	5368	-10160	-16194	-32768	-21676	-11608	-320	1352	-8908	1579	-380	-10996	4568	12064	12	933	-1441	-16276	1868	-196	-1631	8689	2818	-16908	5900	1944	-2898	9861	392	117	113	1
-32768	-1460	21776	-19312	-16960	-32768	-23612	200	-10648	-14892	-32768	-15056	-16456	-6120	4392	-11016	2633	-5498	-11032	4872	11984	-210	1007	-2262	-15836	1596	-164	-2449	10061	3428	-16420	5340	1472	-1661	8699	682	110	108	1
-32768	4740	9016	-10099	-19656	-31543	-20448	2732	-8128	-4280	-29192	-11233	-19192	-5720	16160	-9990	5928	-10988	-10940	5380	12420	56	1306	-4219	-16992	1644	-688	-2468	11056	3586	-16180	1860	996	-70	6909	596	128	114	1
-32768	6808	6972	-8368	-19474	-29294	-13592	12792	-8144	-970	-16370	-10495	-25144	-7620	28716	-7029	5351	-5062	-10924	3924	13408	272	2443	-5873	-16220	1652	-2068	-2703	12139	3618	-15976	796	1440	1810	5770	13	123	111	1
-32768	32767	-3820	-18153	-9492	666	-7916	2128	-6312	-13931	933	-2816	-21240	-7788	24764	-4273	-577	1153	-10352	4564	13980	-1943	6196	-5730	-18904	432	-3068	-2730	13649	3176	-18096	3592	-232	5199	4940	-394	113	108	1
-32768	20100	-1636	-3120	-4426	14969	-9192	1760	-9288	-5841	17279	3978	-15648	-2860	11576	-5304	-515	1731	-10984	3976	14376	-2523	10663	-6706	-20244	-796	-2504	-1047	15139	4141	-20884	5004	1036	8128	4685	-783	126	121	1
-16092	-20672	22376	17832	-5019	24532	-23236	3824	12296	-21849	21692	2533	-15888	-3636	628	-8822	3514	1534	-11792	3500	15084	-2681	16649	-8304	-21584	-2084	-868	2590	17779	4650	-21728	3816	5696	5546	4133	-161	120	111	1
4368	-9272	5312	19857	1013	31542	-30360	-6500	8304	-3909	10317	-2886	-17016	2180	-1080	-14512	10422	3163	-10788	4896	15752	-4703	23828	-11298	-23780	-6164	1932	4997	20356	6024	-23196	2684	11700	6243	-1117	-568	121	112	1
-15068	-8944	13172	6074	21649	12292	-17752	12444	768	24124	5465	8007	-22484	-3620	1876	19369	3425	-851	-12980	7240	16916	-7675	32211	-15658	-25208	-7660	3600	6293	23590	7288	-24176	-3216	21188	5729	-16679	-2125	155	129	1
-15724	952	19040	1462	16418	15105	-17280	7308	-5656	13625	12687	10426	-19960	1988	1844	26408	-1317	609	-12348	6100	16384	-13165	32767	-21383	-28136	-5692	3744	4963	26278	7602	-21068	-7276	13876	2682	-12658	-5544	105	107	1
-9628	-5580	12732	10475	4795	8437	-22448	-5344	-8100	658	16091	481	-16456	7300	-3192	-1218	9881	2731	-24320	4692	19684	-14300	32767	-26188	-25936	644	2940	8359	28904	7837	-22752	6104	6004	17149	-17290	-5601	114	111	1
-13316	-5788	10336	5640	762	3227	-17488	-2860	-10144	20359	12470	5987	-14428	5576	-9528	-8716	17057	323	-24832	8620	18536	-14391	32767	-30012	-29344	5472	-5340	2742	29887	8073	-23560	10576	-904	10926	-20832	-1809	88	91	1
-11160	-9352	8560	3809	-38	2049	-14740	9580	-7432	9709	7357	4610	-12048	-3204	-10920	-7398	15951	-3445	-25872	16436	25728	-17812	32767	-32361	-26316	7852	-6472	321	24632	2977	-26236	8512	-4760	-4331	-24113	2115	126	120	1
-9952	-8288	9720	2473	-11	1250	-15308	8980	-5988	-10308	9613	-1239	-13708	-4072	-5444	-5014	10543	-2408	2696	-160	15748	-20122	32767	-32768	-22104	3460	-8944	-7217	13877	-923	-27612	4972	-5124	-12591	-26221	4137	138	127	1
-9888	-8364	9636	1077	223	558	-17580	-208	-5616	-18285	10109	-1846	-19016	1036	-3296	1136	10913	2820	-32768	2992	32767	-9314	-2477	-32768	-26892	7188	-9276	-8881	9397	1296	-24836	1868	-4624	-12150	-27054	2292	115	113	1
-9508	-8696	9524	277	431	71	-18620	-9584	-2752	2970	5896	897	-17900	1848	-1392	-1935	12105	4399	-10400	4416	22388	15362	-23751	-28145	-10688	-4156	-7552	1186	7346	-6060	-25044	1720	-1712	-3378	-27521	1021	125	120	1
-9696	-9160	9204	-110	680	140	-17460	192	-2428	13741	3081	2178	-14732	-1856	-856	-4012	13342	6292	-3584	13244	7504	17423	-24132	-19928	-8556	-420	-9852	7891	-1211	-9107	-23264	4728	-2660	-255	-24006	2723	140	129	1
-9656	-9500	8636	-66	807	254	-15348	5088	-3748	-3996	4968	2536	-14440	-3016	-888	-3774	13552	6223	-5004	20356	3188	3253	-22326	-7930	-7668	3052	-11716	9649	-9763	-9289	-20644	5704	-4056	-2027	-23508	3707	122	118	1
-9532	-9428	8776	281	781	705	-15324	972	-2948	-14105	6994	-965	-16208	-3232	-2220	461	14160	3040	-4704	14736	3616	-4529	-19214	11210	-6024	5348	-10932	5225	-16169	-10763	-16876	5824	-5584	-2566	-20673	4723	119	115	1
-9724	-8884	9008	260	785	841	-17512	-3356	-1836	-10593	6309	313	-16296	1308	-872	-3083	15477	3848	-6668	9352	5952	-303	-15340	27119	-5996	8972	-9832	-3152	-18182	-12854	-13420	6192	-5596	-3388	-16248	5807	119	115	1
-9868	-8680	9152	-136	1111	648	-17736	-3392	-2096	-135	4301	2002	-15180	-388	-476	-9885	16275	3097	-10404	7724	7332	1253	-16141	31560	-5516	8620	-8568	-9788	-23606	-15129	-12284	6944	-6260	-7166	-13944	6790	124	114	1
-9996	-8768	8804	-134	1113	627	-16104	952	-3112	1696	3888	2771	-14904	-2208	-92	-10427	17676	3180	-12820	4940	8632	1505	-20045	30279	-5976	9148	-8884	-14843	-29003	-16718	-11228	6520	-6800	-12750	-10676	6957	127	115	1
-9660	-9068	8736	-267	834	1042	-15592	2188	-2228	-4065	5412	2092	-17236	-1272	-2820	-4761	15357	2953	-15832	2728	9884	5122	-24435	26545	-6548	5756	-9260	-16952	-32768	-17829	-10152	4008	-7816	-17392	-8074	5900	131	117	1
-9364	-9156	9028	59	1204	1404	-16484	-564	-680	-5626	6827	1191	-16676	-1740	-5532	95	9730	3784	-20956	2660	11548	11303	-29990	22753	-5504	4452	-9916	-11877	-32768	-18886	-9024	1148	-8908	-20017	-6219	4491	130	117	1
-9864	-8824	8720	90	1299	977	-16516	-2548	-644	-1856	6989	2319	-16592	-5208	-3584	1239	7099	5113	-24292	3624	11556	17435	-32768	22521	-5840	3064	-10220	-4072	-32768	-19641	-8396	-1076	-8956	-21579	-2067	2808	130	117	1
-9760	-9268	8508	295	1038	1560	-16560	-2136	-1368	3130	7049	3273	-15888	-3532	-1768	-43	6969	4367	-23396	4896	9724	20783	-32768	24563	-9580	3092	-11592	2080	-32768	-18367	-7484	-2564	-9988	-18703	2066	1217	128	116	1
-9960	-10160	8240	346	218	2734	-16220	-720	-2040	4435	7885	3163	-15536	1552	-644	-447	7649	3361	-28848	5784	11212	21889	-32768	27603	-14928	3304	-12708	5524	-32768	-15913	-8872	-5304	-8988	-14078	5577	162	127	115	1
-10340	-10288	8576	-585	-461	4471	-16664	-384	-912	4426	9122	3048	-16476	4096	-1100	1309	7019	1841	-32768	6712	12508	20711	-30683	32602	-15560	3388	-12776	5665	-32768	-15415	-10184	-8080	-6432	-10159	7088	-826	120	111	1
-9516	-10412	8576	-664	-650	4620	-16616	-28	-1248	3880	10198	2666	-16748	2800	288	-76	6492	1240	-32768	204	10232	18880	-27548	32767	-25248	-196	-13520	5220	-32768	-8030	-13236	-3392	4540	-8685	3830	-181	119	110	1
-10660	-7056	10804	1803	3519	6376	-16792	2640	-1532	1841	11896	4208	-18220	1112	1748	-3126	6255	172	-32768	-22384	9796	25752	-15903	32767	-20812	6948	-9200	3688	-32768	-9823	-18464	4364	19192	-1821	-1025	4450	128	115	1
-10816	-7948	10688	1461	5611	6004	-17184	-1428	-2104	2509	13997	5104	-15896	-628	2896	-6675	5077	871	-32768	-30680	-380	16643	-12448	32767	-19248	12080	-13012	-2743	-24920	-3378	-18304	-6064	32767	3066	-1104	9783	116	108	1
-10384	-10108	9876	1966	7113	7050	-17936	-2700	-1320	1700	15701	6291	-17960	-3428	312	-10615	3081	1007	-32768	-32768	-28976	4461	-13158	9366	-2924	-6764	-696	-371	-4325	1158	-21872	3256	32767	1289	8138	17467	121	111	1
-12032	-9040	10084	2642	9106	9502	-17384	-940	-2196	857	17909	7533	-18788	-4940	-2932	-10682	1664	313	-32768	-32768	-21740	2500	1057	-19075	-6860	13288	-11560	455	15666	13013	-15444	-1124	25232	14398	2384	2286	121	112	1
-11276	-9556	12616	2324	11560	12236	-19592	5000	-3016	-1488	19679	7248	-20360	-808	244	-11042	-3109	254	21300	-2852	32767	-15616	-8235	-20098	-31336	-32768	9272	-12424	14682	7233	-5688	-4536	-1908	12085	11171	-1165	117	109	1
-10360	-8824	13968	-905	17104	15154	-24468	6784	76	-12056	22536	7698	-21560	3220	8844	-4839	-8027	1118	-5180	12828	10812	-19139	20511	-20370	-23684	-12260	-716	-17930	48	4921	-23656	1528	-1500	20839	9296	741	122	112	1
-11808	-15544	12860	-984	22829	20622	-26736	5012	5484	-16542	24430	7023	-21464	6264	16856	-12584	-12012	1307	-14588	-6576	22116	-3518	21177	-5111	-14444	-8972	-2732	-5623	11834	9758	-25628	14824	9084	-27200	-16410	-2219	112	106	1
-10664	-16692	16240	2063	30902	28997	-28340	-544	3432	-12434	25735	8814	-21568	4820	8288	-12115	-7992	925	-14156	180	14696	1590	14844	-12699	-21092	2856	-5740	-4562	15704	7276	-16216	-7760	-2540	-26933	12025	4233	123	113	1
-23388	-20888	15216	-524	32767	32767	-30428	-296	4384	-11734	26453	9372	-21592	-10428	-1112	-24638	-16945	-6077	-32768	32767	16532	-8700	11647	-4117	-17600	8448	-652	-4998	13264	7057	-11376	-9060	-6248	7203	14859	-753	135	119	1
-32680	-31272	11204	2765	32767	32767	-28132	-1908	-9344	-6743	25485	10646	-21624	-11424	-5684	-4297	-21759	-11043	-13764	-6528	21036	-9522	2193	-8104	-19836	6424	-5936	-7063	7850	6268	-14524	21872	-9004	24841	2956	-1975	151	128	1
-15132	-25920	17364	4424	28574	32767	-28092	-1192	-8236	4115	17627	15248	-30952	-6384	-11012	10310	-25324	-16675	-11060	3244	13748	-1989	704	-2257	-14496	-3512	-7168	-1583	9280	4050	-20180	14408	-4036	-12891	12324	14443	130	116	1
-9412	-10904	13356	17252	29759	32767	-16944	2908	-12872	17434	8091	14673	-30812	2160	-8976	16394	-25127	-11187	-10824	1100	14396	-964	492	-1141	-17532	1072	-6324	2670	6164	5476	-17648	-4016	-1920	-18041	13593	6569	117	110	1
-15932	-19476	20540	17607	-4100	8480	-9192	6416	-23736	3820	5935	10483	-26156	5396	-6196	14615	-25218	-6322	-10448	2460	13736	645	1222	-61	-18236	3048	-4496	-2220	6806	5424	-13776	-8816	-352	-249	12049	-3654	144	124	1
-276	-10204	8640	3716	-12877	-5167	-11456	10036	-5220	-1385	-1363	5317	-23968	2260	-5488	5117	-22920	-6848	-10340	3740	13032	1101	1686	248	-17040	-764	-1052	-3848	5488	4429	-16676	1452	1764	7908	12919	-1192	111	106	1
1400	-9776	4516	2294	-13571	-6364	-6064	968	-9272	-11835	-10835	3065	-21376	1388	-6728	-515	-19294	-7849	-10352	4268	12736	873	1576	-157	-14476	-1308	1152	4351	5130	2730	-15732	9072	2072	5138	15098	4776	97	98	1
-980	-9480	3920	6279	-14172	-7933	-5708	-1700	-8436	-3738	-15477	87	-16660	-1108	-7012	-3381	-16453	-8939	-10256	4852	12056	542	1227	-1057	-15524	1148	1252	10312	5286	4823	-14912	7676	2332	3486	13784	2070	114	107	1
-3988	-8872	4960	8372	-17265	-12128	-4168	-1532	-9276	4965	-22075	-1601	-11260	-1392	-6700	-1513	-11904	-10465	-10052	3636	12660	-163	604	-1452	-17696	3476	-1440	4907	6763	4381	-16960	3284	1736	945	12773	778	109	107	1
-6696	-8284	5704	4864	-21625	-18737	-4652	1384	-11404	8473	-27914	-852	-9848	-1016	-6464	1060	-8860	-9952	-10216	2612	13260	82	616	-1112	-16400	-1172	-1672	265	4779	3327	-15836	-1784	2004	3018	15493	161	112	109	1
-9108	-8932	5228	519	-25284	-24824	-5520	2816	-8848	7651	-31648	-892	-11172	-784	-6316	5776	-6900	-7713	-11080	3532	12536	306	615	-692	-15240	540	-1572	3161	4723	2614	-12900	-640	2508	12367	17493	-317	110	108	1
-11432	-10140	4740	-688	-27720	-28011	-6368	2764	-8308	7224	-32768	-3223	-11984	404	-6704	12694	-6863	-4069	-10628	3632	12540	222	405	-884	-15024	1284	-1044	5456	6341	2667	-14524	2516	2916	15815	20359	2370	113	110	1
-13476	-10020	4852	-1698	-29132	-29450	-7296	4192	-8584	7795	-32768	-5997	-10852	3396	-6196	18873	-8197	-513	-10432	3424	12712	-397	49	-1159	-16124	544	-560	5293	6554	3775	-17220	5236	-1812	12310	16314	900	121	111	1
-15580	-8340	6692	-7147	-28904	-30523	-9048	7724	-8700	5061	-32768	-8084	-8236	7172	-5064	22297	-8685	4069	-10440	3516	12740	-1145	-299	-1736	-15664	1060	236	2262	6029	3856	-17736	9332	-3728	6549	10398	124	118	109	1
-17652	-8396	9076	-15582	-27748	-31593	-10632	10252	-8940	-2695	-32768	-10880	-7116	9196	-5104	20438	-9556	7466	-10660	3688	12448	-1482	-803	-2073	-15236	320	-600	153	6959	3499	-16008	5568	912	1554	8221	1644	121	112	1
-19852	-10676	12492	-21331	-26248	-32027	-12720	9356	-10548	-10786	-32768	-14920	-5716	10412	-4332	14482	-4743	7895	-10688	3780	13016	-1222	-566	-2111	-15564	-104	-936	1236	7953	4264	-15268	1888	3512	847	8802	1523	119	110	1
-24808	-13504	16816	-22992	-25072	-32768	-17360	7188	-11628	-14649	-32768	-19236	-8220	10456	-2176	6896	-3025	8195	-10156	4208	12872	-968	-299	-3060	-17000	1796	-1916	737	8219	4499	-15856	2140	1368	740	9821	975	123	113	1
-31120	-8504	20756	-22817	-21992	-32768	-20520	6912	-11032	-15232	-32768	-19494	-10832	3720	404	-2046	-642	5016	-10000	3932	13248	-411	634	-3787	-17352	1292	-2664	358	8493	4924	-17380	3740	-1208	-701	9212	104	134	118	1
-32768	-1600	20664	-23559	-19488	-32768	-23984	432	-14460	-16915	-32768	-13365	-15208	-6092	4664	-6539	1050	-1237	-10808	3112	13320	424	2254	-4023	-16736	892	-2328	933	9102	4549	-16116	4336	-1136	-1782	8506	1233	128	117	1
-32768	484	8364	-14504	-18475	-32768	-22232	3300	-11288	-12519	-32710	-8789	-19584	-4044	15556	-8679	1417	-9069	-9892	2608	15004	-1311	6184	-3437	-18640	-2124	-2616	-231	10976	4355	-15820	4036	-604	-1663	8469	1532	106	106	1
-32768	17608	-9396	-7309	-15641	-26986	-13484	2676	-9844	-6497	-17476	-8664	-23516	-460	29784	-6832	4826	-8067	-10296	1216	14824	-1219	10052	-3186	-17692	-152	-2736	79	12585	4714	-17948	716	2988	4398	5739	-490	108	107	1
-32768	32767	-10332	-20400	-7264	-8854	-9568	888	-10508	-10900	825	-4842	-24188	-2200	26884	-22045	874	657	-10372	1088	14612	-1114	10904	-2868	-18976	-1508	-3264	3808	15481	5210	-17584	1956	1312	7334	5821	-1693	153	138	1
-32768	18932	-5960	-14936	-233	3503	-8704	0	-10872	-9477	16905	2736	-15884	-6284	11080	-15651	6336	1782	-10752	2880	15084	1366	24297	-606	-19748	-4800	-768	11506	18279	5487	-21500	1412	1592	14239	5909	-1479	117	116	1
19500	-32208	27744	32767	-7291	7561	-9376	4736	-19040	-14244	27693	3313	-10200	-9908	-2196	-17461	11015	-5193	-11052	6036	14060	-1250	28677	-5005	-20640	-984	3944	14636	20694	5891	-21352	-2500	8320	15361	2994	-2351	107	103	1
24088	-23544	304	10651	494	18702	-32768	-4276	16788	-18600	9557	-4225	-6120	-6880	-8572	-19017	19750	-2302	-12672	7704	13268	-5906	32767	-11504	-24420	-3096	6292	10371	22944	7718	-21704	2080	15792	18153	-3876	-2194	112	108	1
-20908	-7920	12776	9574	27911	21983	-19308	3584	384	23603	2947	1806	-31644	-832	-1244	26555	-3623	8980	-14028	8204	13516	-9892	32767	-20166	-24192	-2916	6924	9186	25281	8277	-21320	280	21784	18782	-21879	-2173	127	116	1
-20480	-904	25164	-1120	17183	11012	-17864	8652	-6208	24495	12256	11127	-29776	-5168	15588	32767	-7061	5515	-21616	10432	19992	-13787	32767	-28206	-23980	-924	2056	7484	27935	9688	-19532	1152	9876	14852	-14083	-4359	147	123	1
-12608	-13700	6720	-5588	12186	11001	-20492	11124	-6556	9826	12885	4697	-8108	15740	-3020	19017	15518	7969	-32768	14060	25840	-7290	32767	-29551	-24808	8124	-1512	7350	29979	9278	-20180	13252	-5048	19946	-18815	-1155	133	126	1
-7036	-11984	10736	4838	5460	5681	-18620	-8892	-8076	-3913	14770	-316	-11900	8492	-15896	-8402	16894	3405	-32768	21816	20956	-6078	32767	-31942	-27488	7332	-5916	5135	28385	6425	-25668	12668	-2268	233	-23429	3778	110	111	1
-9556	-11580	5584	6032	3602	5056	-17288	-1484	-7440	12505	9579	3662	-11772	-11256	-8952	-16872	15940	-8567	-4024	19116	19312	-15718	32767	-32768	-25024	3984	-7268	-2578	18724	1347	-29716	6144	-6752	-11718	-25987	6072	150	136	1
-12080	-10700	7896	5170	1854	4112	-14592	9624	-6592	-6992	9358	-792	-17480	-9188	-4676	-1781	14138	-5489	-32768	8120	32767	-14545	23690	-32768	-13980	1596	-11516	-1776	-20653	6107	-27004	800	-7216	-15130	-26132	4380	125	120	1
-9860	-7880	10552	3632	1384	2549	-16740	564	-3276	-10643	10568	755	-21116	5408	-2772	1381	10851	2709	-25604	8620	32767	3267	-16234	-25931	-13064	4808	-18984	-262	-16541	5528	-25036	-2336	-2972	-10042	-26836	1185	96	100	1
-9752	-8416	10448	6	2064	938	-19108	-760	-1904	6706	8067	-121	-16792	7000	148	559	10101	7146	-5116	8696	12704	19632	-24658	-12324	-8928	-5660	-9028	6006	3728	-6243	-24340	2188	-2360	-779	-25085	1710	122	117	1
-10144	-9068	9440	-2095	2271	-716	-16616	2152	-3928	9590	5807	3602	-14048	-1356	-1312	-4273	13401	5256	-3428	16444	5776	13339	-22308	-1446	-8368	2296	-12660	8021	-3992	-8800	-22644	2408	-3636	-858	-23401	4814	150	127	1
-9080	-11448	7172	-2776	2439	-1024	-16428	3728	-3324	-4793	7017	2331	-14676	-4844	-3104	-6996	14908	4213	-4316	13608	5060	-2019	-21861	11742	-6584	2192	-12024	3734	-14782	-6888	-18736	1100	-4996	-388	-21868	3931	123	119	1
-8952	-11728	6604	-1629	2194	-88	-14944	-956	-2988	-15529	8838	23	-16748	-3820	-3348	-4190	14178	3740	-3056	5120	8000	-1296	-19377	24261	-4448	2960	-11052	-1182	-18460	-10205	-14476	1908	-4732	404	-16869	3340	123	117	1
-9064	-10980	7344	-823	1792	830	-18092	-3276	-2776	-7717	7218	105	-16364	140	-2288	-3202	12967	3053	-6196	2908	9196	5077	-17264	30774	-6040	1928	-11432	-6877	-21053	-12128	-13376	3340	-4784	-2934	-14700	4628	124	114	1
-9312	-10236	7848	-922	1872	864	-16884	-164	-3044	339	5050	2359	-15472	1812	-920	-7186	13968	2818	-8976	332	11252	8972	-18674	31233	-5664	2040	-9900	-7407	-26578	-12782	-12528	3056	-6216	-7011	-13067	4560	120	111	1
-9232	-11048	6872	-864	1373	1280	-16124	648	-3652	-1285	5309	2566	-14584	96	152	-9644	16345	3153	-13172	-260	13696	12990	-23443	29131	-6048	1424	-10656	-5557	-32407	-11803	-10556	2024	-6544	-11888	-9863	2528	118	110	1
-9108	-11728	6272	295	310	2178	-15480	-200	-3256	-5321	6459	1145	-15452	-1772	-1772	-9908	17429	3386	-15792	-784	14000	17444	-29582	25983	-6296	660	-10208	-1776	-32768	-13691	-9032	744	-7176	-15110	-8088	-317	124	113	1
-8940	-12056	6024	1862	-769	3430	-16356	-2076	-2608	-4970	6297	965	-16332	-4100	-6132	-4870	12605	3294	-17788	184	13388	19704	-32768	21919	-7456	1236	-10108	2934	-32768	-15066	-8636	420	-7752	-17469	-5108	-1422	126	114	1
-9224	-11188	6660	3139	-1313	4744	-16320	-2192	-2124	132	5846	1539	-16156	-6620	-5804	749	8424	3815	-20376	1924	13688	19616	-32768	20092	-9612	1752	-10932	6467	-32768	-15397	-7372	-100	-7796	-17086	-1879	-1952	133	119	1
-9440	-10160	7576	3603	-1332	5169	-15788	344	-1508	3738	6088	2329	-14856	-3792	-3116	3823	7941	3800	-23884	3956	15244	19098	-32768	21226	-13576	2780	-12740	7851	-32768	-14482	-7608	-2708	-7644	-13553	1986	-2591	141	123	1
-9972	-9176	8128	2520	-952	5121	-16132	1068	-1972	4560	7173	2910	-15732	940	-112	6819	7971	4146	-32580	5084	16496	19390	-30891	24733	-18480	3608	-11912	4994	-32768	-13716	-10132	-3604	-3968	-8508	3434	-2984	136	120	1
-9748	-10028	8272	286	-911	5588	-16760	428	-2692	4729	7834	3197	-16724	2840	576	9005	7117	4202	-32768	5824	12460	17946	-28390	29027	-23036	5940	-12184	-405	-32768	-11183	-12432	-2640	144	-6241	2820	-1316	129	116	1
-10504	-9220	9048	-513	-163	5771	-16816	1588	-2472	2425	9260	3656	-17080	1376	1004	7240	6578	2563	-32768	-8744	8360	19543	-21126	32522	-24592	3836	-10676	3905	-32768	-9488	-16136	3516	11460	-1169	-760	1141	135	120	1
-9344	-9228	10888	1495	2954	5841	-18128	2400	-1020	763	11443	4271	-17908	1104	920	2725	7046	1114	-32768	-19504	3088	24527	-10270	32767	-17984	2640	-9312	8352	-29680	-9248	-21016	2260	24804	4760	-1961	5964	142	123	1
-10276	-9456	10572	1396	5821	6510	-18676	-1492	-988	2486	12916	5976	-17956	1080	1988	-2029	6554	1880	-32768	-29444	-9480	17020	-5134	32767	-12396	10876	-3176	11956	-13397	-3382	-19544	-4532	31004	4869	-36	8409	129	117	1
-10040	-10556	10144	1148	8500	7571	-18416	-1908	-1448	5440	14303	7764	-20192	-2400	1860	-7269	1878	3010	-32768	-32768	-25888	6735	-5365	6186	-8224	11616	-1044	10737	2812	8465	-18792	-4512	29128	21706	2539	6966	111	106	1
-10676	-11716	10188	921	10866	9980	-19040	-1128	-2312	4328	15328	8553	-19432	-4080	-3396	-9454	2146	2048	-32768	5392	-13832	-32122	1886	-13419	-15140	17188	-6184	-11869	16572	13407	-12216	4916	13756	21150	-82	2800	104	102	1
-11308	-10444	10296	602	14865	11760	-19580	2148	-2212	-587	17703	9207	-20328	-2888	2324	-7577	232	916	-4072	23320	23284	-23103	735	-12596	-27128	-13824	1296	-27099	10660	2325	-8760	9396	-376	11288	8066	7208	132	117	1
-10916	-13796	11772	-1007	18662	15230	-23548	1952	2220	-9856	20929	10101	-20612	-816	8228	-6797	-6301	271	-1200	2852	16072	-21203	25693	-2389	-20744	-15984	-2968	-32768	1059	5001	-21240	24840	-1752	-7754	14720	16625	114	107	1
-12108	-18360	11360	977	22656	24544	-25060	1452	4668	-11535	23616	8893	-20808	4600	11260	-10150	-9338	472	-17172	-24612	31108	-9077	19024	-4372	-17332	-11664	-6140	-20215	12016	7456	-26336	9356	9844	-32768	-5573	1093	110	105	1
-11276	-14104	11988	959	29597	32767	-28880	2436	2016	-5623	25772	11307	-21796	4844	7728	-7480	-9192	12	-11344	-3932	18984	3132	12244	-15403	-15416	-6112	-5964	-9381	15630	6351	-17452	-19176	-1076	-27971	14813	-8702	94	97	1
-14124	-14996	13824	352	30980	32767	-27284	-916	-2764	-146	25896	13768	-22928	-8624	-772	-15676	-15964	-4955	-23584	28436	6088	-4377	12028	-9572	-17884	9268	-228	-3428	13792	7801	-6932	-20128	-6588	-1895	10436	-8023	104	102	1
-30572	-27212	14816	1277	29685	32767	-28700	-752	-6204	-128	27327	12165	-21028	-5436	-2516	1663	-21253	-10076	-11316	-6476	23468	-14926	-504	-12460	-20348	13920	-5928	-9754	6891	9115	-16712	18704	-6468	31316	3844	3368	147	124	1
-13936	-27916	20628	4179	22011	32767	-27504	-1472	-7268	6952	21003	14390	-26380	-3184	-7816	10287	-24265	-14682	-14972	-1028	18268	-8358	-2264	-7303	-14104	368	-6328	-10177	8623	4828	-16692	19924	-3656	5809	15061	19255	145	125	1
-32768	-29800	22264	11614	11272	32767	-17852	6144	-21388	17627	11858	11796	-30136	4692	-6092	14911	-27084	-13337	-10596	2948	13868	-4675	-2421	-4136	-17448	-3696	-6976	-6228	6917	4398	-18604	-1376	364	-7229	13495	8028	123	111	1
-1912	-21468	18372	6951	-13116	7370	-16600	7576	-7468	10171	3395	8823	-31276	5772	-3736	12217	-26964	-8442	-10464	1676	14336	-2060	-443	-1743	-16564	-2732	-3780	-3162	7166	5938	-17792	-6576	2852	-212	9390	-5579	114	108	1
2076	-18160	9560	4023	-15740	1926	-11528	7980	-7616	-568	-3686	1699	-25692	3964	-3960	3830	-24210	-6359	-10104	3384	13012	-878	761	-933	-15596	216	-256	118	7975	6127	-13076	3052	4180	1118	13168	-3916	168	138	1
896	-13560	8216	5433	-16030	-3803	-8404	6692	-8416	-9478	-10368	-2527	-21092	2164	-5548	-2669	-21782	-6742	-9984	4084	12796	-948	590	-1318	-15992	1492	700	2116	7996	4395	-13944	6932	2280	-1963	12201	1375	131	116	1
-496	-10520	8544	3127	-17136	-13215	-7520	4392	-9780	-9595	-16481	-4456	-18616	1836	-5728	-6263	-19738	-6074	-9924	4192	12632	-1547	180	-2286	-14776	-40	972	6787	7506	5071	-14272	5856	3736	-1648	10012	3076	142	123	1
-2728	-9292	8460	-1437	-18480	-21623	-7096	3276	-9268	-7480	-23982	-5680	-14956	1512	-6284	-7402	-16610	-7102	-9712	2796	13384	-1444	92	-2493	-17020	2444	-2116	4003	8904	5340	-17156	1592	3832	-362	9965	1192	116	112	1
-5460	-8616	8140	-4840	-20917	-26612	-5680	2384	-8396	-2774	-29696	-6820	-11708	1944	-6516	-4923	-13973	-7391	-9532	2648	13440	-655	661	-2018	-16344	-420	-3284	-2642	8191	3956	-17240	-2744	2468	2426	11723	807	112	106	1
-5888	-8548	8244	-5283	-21311	-27057	-5572	2428	-8188	1954	-32768	-9055	-9784	2464	-6372	-1143	-11788	-4783	-10156	3116	13220	-193	874	-1871	-15240	-1784	-2848	966	7346	4026	-14216	-2568	2076	10606	16926	1003	114	108	1
-11064	-7752	8592	-12131	-27074	-29085	-5724	5088	-8676	3861	-32768	-11664	-9348	2584	-6364	-341	-11391	-4297	-10780	2924	12988	-290	433	-1890	-15312	3284	-4388	3134	7961	4537	-12892	3440	-1176	16421	20471	1024	117	109	1
-11376	-7924	8868	-13013	-27630	-29082	-7204	7552	-10116	455	-32768	-14120	-6444	3984	-7604	8257	-8058	3167	-10580	3232	12932	-1056	142	-2013	-16544	3112	-5292	2174	6724	4665	-16668	6776	-5180	12548	21145	294	106	103	1
-16092	-9984	12296	-21476	-31273	-29976	-8604	8700	-10292	-7001	-32768	-16199	-5424	5928	-8680	8718	-5702	4493	-10308	2556	13180	-1200	-139	-2578	-16632	1688	-6504	1575	4784	4235	-16996	7884	-6736	4328	17874	-887	129	115	1
-18680	-11524	14780	-25585	-30642	-31389	-10868	8008	-12176	-13659	-32768	-18535	-4772	7088	-9152	8216	-2512	6640	-10364	2220	14052	-578	922	-2404	-17104	340	-7032	3265	3672	3897	-16248	5784	-7076	-3851	15234	-106	130	116	1
-26292	-15612	17680	-25743	-28070	-32768	-15528	6484	-13036	-16225	-32768	-21491	-5184	8008	-7912	4198	-1635	7112	-10328	1900	13256	579	2259	-2429	-17316	228	-6924	3568	3529	3879	-16796	1228	-1688	-4808	13983	183	113	106	1
-32768	-10264	19588	-21628	-23347	-32768	-20456	6796	-16512	-14627	-32768	-21063	-9116	464	-5832	2242	-2456	3762	-9148	1928	14764	713	3788	-2016	-15892	-936	28	5177	5167	4916	-16700	2468	7504	-3409	13023	82	122	115	1
-32768	-800	17400	-20966	-16873	-32768	-23788	5760	-17640	-16141	-32768	-16172	-17564	-8292	5312	593	-4038	-3925	-10104	2368	13536	-16	6070	-1686	-15964	56	4752	2242	8915	5395	-18296	1160	14512	-3640	8348	3058	104	102	1
-32768	6232	2540	-13993	-12205	-32768	-20760	2020	-14412	-13854	-28163	-11517	-21648	-10488	24336	-8603	-141	-9718	-10040	3452	14304	-718	8713	-2244	-16548	-1828	5800	129	12958	6468	-18952	-4680	12996	4731	5997	1854	134	120	1
-32768	23284	-11980	-3370	-5861	-23026	-9244	-1220	-13632	6499	-14270	-7278	-25012	-1928	31400	-1980	5703	-483	-10040	4024	14764	-2086	12655	-4448	-17980	-772	3452	2812	17258	7477	-17248	1912	7260	14427	4057	-123	144	124	1
-32768	32767	-10272	-5296	5502	-6025	-8372	976	-9128	9359	6555	3666	-18840	-7936	22208	-7231	910	1548	-10760	3384	14820	-4036	17036	-6465	-19752	884	80	3318	20266	8185	-17948	10924	1912	15525	2946	-991	147	125	1
-32768	13252	-6480	8322	12222	7290	-7432	3540	-16168	7544	22643	7989	-14012	-11052	9400	2539	3589	-1248	-11900	3692	14836	-4917	22712	-9030	-20808	-1920	-1628	5299	21683	8658	-18432	6324	2116	15019	3513	-1162	106	101	1
13712	-32768	32767	11980	13339	8556	-32768	2368	30304	-17310	23731	3237	-6264	-9196	-1568	3679	8187	-7334	-12052	4384	16500	-7853	29075	-11834	-21916	-2536	-636	10065	23622	9398	-19552	2668	7968	12314	2297	-2124	140	120	1
10776	-1960	7176	17210	27889	32767	-25792	-2688	-8108	13280	3304	-6846	-20588	10408	-7676	-1463	18520	6206	-14052	7752	14428	-10945	32767	-17272	-26688	-3984	2964	9882	24762	10638	-24564	-836	14092	16415	-8826	-2224	111	105	1
-23840	7716	22560	4489	24975	11446	-13004	16784	-7584	25646	8263	13056	-32768	-1604	11420	32767	-11997	4757	-26576	15612	20864	-14037	32767	-25090	-24312	-1964	3768	8996	26252	11846	-18496	-7664	12164	7174	-10139	-5227	122	112	1
-18452	4172	23676	2185	23815	11899	-19132	17456	-5348	5012	21620	6266	-15068	15916	8140	27446	7443	344	-16788	4644	19280	-15232	32767	-32768	-29184	-1408	988	4770	27246	13290	-26144	7704	3516	19967	-16353	-2699	106	105	1
-12304	-23600	-3876	1920	8721	4523	-20684	-3304	-14296	-14019	20741	-2402	-8700	14816	-17068	-13862	19759	3844	-32768	26384	25536	-11303	32767	-32768	-24764	3348	-1868	7701	26330	12353	-21224	9488	-1152	12510	-21383	1263	75	82	1
-13552	-14696	3032	4980	3750	5873	-17020	-13740	-11788	16263	12249	3502	-12964	-10476	-18984	-32572	20358	-877	-11080	18336	24108	-10957	32767	-32768	-25548	2876	-7328	8525	18925	8851	-29400	6644	-8132	-1070	-25189	4482	119	114	1
-10988	-10632	8100	4096	1626	3551	-15600	7900	-8512	17321	4962	5797	-14988	-21288	-8936	-5044	15522	-4761	-32768	8260	32767	-10652	23333	-32768	-18708	4808	-8272	6687	-17516	11918	-28324	1416	-6624	-11311	-26159	4902	161	133	1
-9808	-10248	8436	4616	739	3483	-16072	7020	-5940	-8570	8009	78	-21532	-748	-6780	11168	11113	1025	-19520	11680	32767	11366	-13912	-20689	-13380	916	-13132	1879	10107	-2325	-27384	-2092	-2956	-8199	-27900	3009	97	99	1
-10200	-9744	8804	4611	636	3442	-17196	3512	-3092	-9553	9687	65	-16348	8844	516	8924	10646	6868	-2788	15056	12440	13954	-17259	-5988	-11640	-2368	-12284	8553	149	-3802	-25844	936	-3012	655	-27473	4209	127	116	1
-9548	-8868	9472	699	1117	1200	-17516	-308	-3208	2270	7028	727	-14764	6548	172	1997	10913	9633	-1740	15456	9116	47	-13973	10131	-9548	232	-13168	5974	-8607	-5858	-23916	420	-4160	3146	-26843	5882	143	124	1
-9264	-9672	8524	-43	1573	430	-17664	-880	-3308	7857	3408	3177	-13840	-1660	-1596	-2237	14090	7586	-3708	6556	12620	-5789	-14504	24775	-6016	2408	-13552	1033	-14443	-7380	-19832	1912	-4320	4829	-24075	7245	138	121	1
-9076	-11784	6796	359	1314	984	-16256	776	-2932	2821	4725	2720	-15016	-5380	-1796	-2725	13980	6051	-6112	-876	14932	-1733	-17436	31469	-7312	2024	-12416	-6902	-16755	-11780	-17916	3352	-4764	225	-19542	7196	145	125	1
-8752	-11584	6828	1772	912	2584	-15016	704	-2296	-7749	6499	43	-15896	-3372	-2220	2038	14064	3552	-6932	-7164	14964	9857	-20228	28857	-6744	-16	-11600	-8779	-24072	-14343	-16628	504	-5896	-5529	-19460	7503	133	119	1
-9492	-10048	8240	2264	376	3435	-17096	-1472	-2204	-6449	6831	273	-17296	1716	-1556	2068	14736	2603	-10028	-5572	14176	17222	-25459	21504	-6108	-3224	-11576	-5719	-29994	-12323	-12732	-2300	-6568	-10779	-16883	4256	124	114	1
-9888	-9124	8596	1799	-475	3281	-17220	-1272	-2480	1001	5488	2370	-16164	3088	376	-4718	16179	2484	-14028	-4400	14800	20566	-32309	15153	-4512	-3788	-11672	703	-32768	-10981	-9744	-3836	-5704	-12621	-14589	-1707	125	114	1
-9572	-9488	8452	1750	-537	3157	-16432	1296	-2968	4350	4476	3157	-14300	160	912	-9191	17541	4037	-13752	-4124	13412	24418	-32768	13815	-5260	-3216	-11476	7625	-32768	-11852	-8536	-3640	-5392	-12329	-12049	-6054	124	113	1
-9396	-9704	8464	1193	-540	3177	-15904	3476	-2564	-321	6376	2920	-16408	-1260	-2668	-8595	16281	4277	-13344	-1228	13348	24705	-32768	16408	-7612	-956	-12240	10920	-32768	-12207	-6936	-2368	-6340	-10470	-9736	-8132	129	116	1
-9872	-9884	8460	818	-725	3606	-16492	2648	-2864	-3494	7272	1573	-16704	-400	-7272	-884	11474	3937	-15624	360	15932	22428	-30077	20806	-9848	1544	-13076	10979	-32768	-12922	-6140	-280	-8020	-10648	-4557	-7637	129	116	1
-9912	-9556	8616	518	-836	3938	-16960	412	-2624	-901	7148	1806	-15164	-1308	-6564	3370	7923	4223	-21216	1076	20540	21162	-28250	24756	-12700	4628	-14632	7934	-32768	-14510	-6744	380	-8176	-10770	847	-5626	129	116	1
-9776	-9680	8748	-904	-901	4611	-16988	140	-2388	3729	6794	3135	-15652	-516	-1756	5022	9495	4580	-30476	1672	22176	19177	-29867	29698	-13248	5484	-14864	6916	-32768	-14928	-8596	3260	-5916	-7626	2638	-2914	128	115	1
-9712	-9328	9712	-990	-668	5658	-17060	336	-2256	5872	7176	3281	-17436	1236	1428	7458	8214	3561	-32768	-7148	18192	19158	-27383	32767	-20048	7616	-13628	2373	-32768	-18625	-9908	7328	-604	-3909	2599	402	128	116	1
-9840	-8384	10956	1049	2948	5754	-17288	3692	596	2542	9714	4920	-19220	-168	2324	8160	6432	2561	-32768	-11712	11120	20813	-21884	32767	-23356	5628	-11940	-1491	-32768	-20363	-13908	4408	10756	3292	4164	4389	126	115	1
-9892	-9324	10756	369	5429	5962	-17788	-308	740	2346	12823	5999	-18656	56	3524	2374	5678	2632	-32768	-12560	-6384	14407	-23172	28291	-21648	-1004	-12116	6973	-28508	-15006	-23304	-3708	31624	4597	5786	9548	125	113	1
-10964	-8724	10800	-128	8321	6648	-20060	340	-1680	1994	14128	6703	-17792	2800	3888	-4180	5623	2307	-32768	-32768	-24344	20874	-15310	13683	-6896	6880	-3636	23786	-10897	6496	-23928	-2972	32767	858	3733	8033	121	110	1
-10596	-9312	11476	1236	11483	8899	-19412	88	-1536	225	15314	9400	-18712	-744	1912	-8472	6101	4179	-32768	-32768	-30084	24166	-715	-1750	-9644	16808	-4504	13721	10215	9885	-17868	-6696	18012	19423	4393	-6271	124	113	1
-10300	-12180	11772	737	14743	11128	-21168	-956	388	-693	17054	10974	-21948	-4580	-1876	-16033	3863	3193	2176	17788	10148	-26413	2101	-29055	-16528	9772	-96	-14513	19396	15186	-10664	6140	5740	15534	3342	-1086	123	114	1
-11104	-14036	10036	2167	17982	18020	-21756	1372	1200	-5533	19854	10775	-22396	-5856	4124	-12178	-1379	3246	15984	13472	-4512	-18705	9123	-15301	-32768	-2016	1708	-21187	7812	6270	-7272	9584	1180	11435	13307	6946	169	137	1
-12636	-16476	10260	5093	20967	25764	-23868	-708	5080	-11293	22815	11618	-19368	-4100	10168	-7420	-7448	1342	-30044	-12944	28752	-18644	29731	-8499	-16248	-17732	-5912	-28069	1955	4818	-27364	22072	9152	-16571	1507	13549	130	117	1
-14168	-19976	10568	4356	23161	32767	-25352	-3524	5512	-8879	26184	12155	-20464	-696	12124	-9934	-8986	-153	-30528	-21584	32767	-16547	27371	-7666	-19024	-13032	-9480	-7205	15180	8651	-31368	-5020	3324	-32768	3037	3108	109	105	1
-30176	-24436	17076	4397	25519	32767	-28244	-6244	-3284	-1682	27225	13128	-21740	-1940	13984	-11363	-9660	-673	-32768	32767	22452	-5855	9606	-7723	-16528	7764	-2384	2817	16664	8503	-8776	-32768	-15592	-23648	17175	-2252	105	103	1
-27772	-29124	13096	8106	22245	32767	-27832	1608	-4360	1675	25761	13876	-19720	-7936	-4752	-4502	-21577	-9719	-12320	-12944	25284	-10927	1884	-10732	-21188	16216	-9392	-5862	10781	10400	-10256	10640	-12212	32767	9475	-6383	116	108	1
-18816	-30656	17832	11041	19046	32767	-27664	-536	-3232	2811	20703	11479	-25236	-1076	-5480	12345	-24973	-12575	-13060	-1652	17100	-6131	-508	-5231	-15148	2008	-7856	-6183	8868	1641	-14952	25768	-10516	25345	9400	10700	115	107	1
-32668	-13400	16096	26234	17423	32767	-21768	3480	-15240	14118	13579	12181	-28912	5140	-7288	15886	-25982	-13524	-9932	1548	14236	-2549	-1211	-2693	-15464	-2984	-6404	1328	5979	5102	-20168	14220	-4580	-12004	16645	15957	105	102	1
-8872	-19420	18904	8456	-3914	7174	-18928	9232	-12628	10499	9664	12037	-29880	6544	-3884	13061	-26586	-10428	-10400	2376	13808	-748	-236	-1310	-17460	756	-4756	1915	7880	6238	-19856	-8592	80	-11003	12408	-3158	107	103	1
-1480	-17124	8732	2902	-6343	-1625	-13136	9852	-6976	-859	880	5771	-27212	6256	-4924	3300	-24949	-9975	-10080	3496	13072	404	889	-399	-17456	1384	-2128	-1863	6795	6108	-12788	-5448	2816	-222	13275	-6377	116	109	1
-824	-12612	6244	7000	-5460	-5075	-8384	6124	-10252	-5965	-4962	34	-23704	5628	-5548	980	-22206	-9773	-10292	4360	12548	797	1395	-235	-15604	-656	288	684	6503	3480	-14772	2708	2384	6114	13978	-2515	163	135	1
-2268	-9316	6564	6212	-6714	-12157	-6220	4920	-9996	-4630	-10829	-2560	-20336	3908	-6128	-1920	-19716	-9800	-9968	5004	12024	859	1477	-779	-15044	252	1216	7509	5523	4004	-14860	4140	2260	6168	13831	-1234	116	108	1
-3756	-8532	6864	2530	-10538	-19339	-5176	2792	-10924	-3159	-18276	-4852	-17800	3620	-6896	-3224	-17953	-10161	-10252	5368	11900	88	930	-1775	-16296	1332	-340	10124	7482	6063	-14856	8184	1712	1155	16037	4559	129	116	1
-5608	-7724	6932	-1039	-16506	-24834	-4608	2704	-10216	3248	-24316	-6575	-14956	3688	-7736	-4437	-15981	-10736	-10316	3256	13096	-406	675	-1759	-17424	1788	-2532	2361	6813	3552	-16796	1448	1232	4927	18012	1728	137	128	1
-6696	-6788	7492	-4697	-21273	-28594	-4648	3844	-8796	6582	-29854	-8825	-12204	2776	-7704	-3153	-13550	-10400	-10696	3496	13080	297	1409	-958	-16420	-1304	-1988	2111	5724	1854	-14976	-452	4220	11327	19622	-860	118	114	1
-8936	-6628	8240	-8966	-25033	-31681	-4584	5060	-8900	8782	-32768	-11129	-10600	3308	-7528	493	-12040	-6921	-11012	3772	12764	190	1648	-1044	-15976	524	-1276	4989	7241	1922	-13516	1008	4724	13932	21957	250	108	106	1
-10888	-6940	9120	-13739	-27761	-32768	-5848	6928	-9220	8667	-32768	-12961	-8476	4160	-7328	5219	-10491	-1934	-10640	4484	12320	-225	1382	-1286	-15320	484	-100	6467	7873	3759	-16524	2544	-524	10282	17325	-629	105	102	1
-13292	-7732	10744	-18886	-29515	-32627	-6032	7204	-8980	7940	-32768	-13432	-7080	4920	-8248	10078	-8228	1378	-10388	4736	12680	-479	1290	-2257	-16944	1968	28	3805	7895	3676	-18120	10348	-4628	6341	10355	-2385	118	109	1
-16600	-9052	13420	-23220	-30735	-32768	-8360	9704	-10652	-6880	-32768	-17159	-5704	5740	-9536	11968	-5339	3821	-10876	5092	12476	364	1590	-3561	-17360	1296	-1580	2591	8043	3047	-17084	9100	-2052	-1270	9593	633	127	115	1
-19660	-10376	17252	-27757	-30227	-32768	-11644	9032	-13288	-14208	-32768	-19968	-4772	8344	-9804	9951	-1935	5392	-10792	4520	13032	1530	2351	-5047	-17460	2972	-2200	2694	8823	7046	-15588	2496	868	432	12149	1662	129	115	1
-28756	-13076	20992	-30075	-29120	-32768	-16652	7956	-13856	-18876	-32768	-23166	-5084	8416	-8228	6766	-382	6170	-9840	4200	13904	20	5188	-5873	-17492	-2320	-2268	4506	8817	4595	-18048	-28	1428	344	11095	680	118	109	1
-32768	-7156	22660	-27634	-25809	-32768	-17232	7900	-14256	-18243	-32768	-23353	-8216	620	-6124	6713	-2663	2700	-10616	1720	13672	-604	7834	-4765	-16920	-1728	-1124	1469	10580	3892	-18620	228	5040	-2357	8969	-354	119	114	1
-32768	-4980	22796	-27301	-24534	-32768	-24284	7324	-18748	-18522	-32768	-17665	-18856	-4460	7732	4717	-2786	-6377	-10816	3076	13696	-672	11487	-3721	-17992	-1232	28	-848	13054	4246	-15968	-892	8120	834	7708	-408	118	113	1
-32768	15124	3828	-17896	-16010	-32768	-20036	324	-15388	-15070	-24649	-13735	-22684	-11944	29412	-12104	2201	-7593	-11580	4128	13692	-1054	16544	-3994	-19412	-772	1776	1103	16263	4367	-19332	-4220	6996	8310	7187	-626	121	116	1
-32768	32767	-8160	-10759	-5593	-17757	-7988	2752	-17260	4691	-8511	-7022	-26464	-2192	32767	-9467	6956	403	-11504	5160	13928	-3381	20203	-6749	-19024	-408	3964	967	18664	4983	-18924	5336	5076	12243	6075	-1825	91	92	1
-32768	32767	-7640	-5000	2797	-771	-4540	1600	-13576	6421	14615	6127	-16844	-6676	20264	-10125	4283	-1429	-11752	4016	13056	-5434	25378	-10056	-18192	-3500	3076	2043	22042	6052	-18584	11208	6652	12983	4207	-2519	132	126	1
8044	-21240	26240	15194	4378	16933	-23576	4680	14988	-11082	25229	6419	-13688	-5900	40	-4397	9936	-3788	-13032	5900	15296	-8069	31439	-12317	-21808	-5108	5436	6362	25984	7527	-19672	5556	10000	9997	2767	-2104	110	107	1
13888	-6476	4008	19079	21929	32767	-27528	7800	28748	-21979	22286	3347	-15876	7668	-4248	-23112	20728	1424	-14100	9672	14036	-11126	32767	-19920	-27112	-4608	6176	5407	27985	9052	-26624	-2256	22872	7075	-17976	-2301	126	120	1
-23116	9740	23392	3301	25472	15315	-17644	14428	-4512	15342	9455	7061	-32768	-2220	10836	26396	-9706	7435	-29756	10228	18932	-12822	32767	-25907	-26468	-720	4016	2909	30508	9266	-15744	-7040	13372	3016	-12232	-5972	121	118	1
-18468	-5232	17252	-6957	14677	18244	-20720	10300	-9932	4216	21584	12497	-18856	3004	3664	26572	-2034	2782	-22540	10180	16452	-14784	32767	-30208	-29760	4600	-1696	-2022	32296	9278	-25860	17584	-7848	27967	-15273	-3157	107	106	1
-6304	-13052	9588	6350	8734	7842	-22388	-13388	-14044	-11796	21901	-553	-7064	5640	-15416	-5137	20161	1011	-32768	16848	26272	-15323	32767	-32316	-29704	7128	-3432	-2500	29195	6680	-26392	16464	-2388	968	-20450	3620	97	97	1
-14468	-16212	2944	9336	2100	7494	-15656	-9740	-11604	28363	10266	5964	-9224	-3040	-21352	-25831	22770	-1189	7216	19556	23656	-23958	32767	-32768	-25580	2380	-5916	-8568	18421	-1894	-29864	8528	-7596	-17224	-26338	5318	94	96	1
-10736	-9620	7676	7331	-440	6144	-15060	11652	-7960	16390	5140	7655	-11940	-18916	-7800	-4865	10319	-6661	-32768	7272	32767	-15491	6631	-31757	-16564	11480	-24480	-2186	373	-494	-28092	2248	-6872	-26969	-28515	4521	149	130	1
-10812	-6948	10932	6459	-765	4754	-15480	10524	-6032	-11590	10618	-205	-23260	-1344	-3256	11402	9135	-750	-11540	6388	26852	10131	-23017	-18027	-15904	-6144	-8788	-3510	12669	-7609	-28788	-2612	-1696	-14968	-30655	2077	124	114	1
-9704	-7988	10640	2615	-360	2006	-17540	1832	-3192	-13361	11748	193	-17532	10004	552	7997	11063	7260	-3616	11680	10308	15060	-23214	-12047	-10348	-100	-11312	4197	-68	-10541	-27412	-1724	-3452	-5062	-28508	1933	128	116	1
-9196	-9916	8504	1611	-165	1573	-18368	-10040	-2636	6551	6861	3267	-13520	2564	-504	-1798	13126	8313	-4724	14580	6804	5270	-23605	-5105	-7300	1124	-11900	8364	-8906	-9562	-22428	-228	-4468	-2573	-28429	2350	139	121	1
-9368	-10120	8184	2126	-712	2114	-16864	-2220	-2996	20465	2700	4958	-13052	-4432	-1504	-7635	15177	4649	-3752	10520	6496	-682	-23547	5213	-5916	892	-11596	9553	-17027	-10197	-17812	-48	-5420	-374	-23553	4451	152	128	1
-8996	-10336	8056	2735	-1265	2705	-15764	6452	-2516	3566	5475	4654	-15428	-5980	-1520	-3465	14736	2023	-4504	6400	7872	5500	-20925	16367	-4832	4412	-11584	6482	-20765	-12072	-15236	396	-6456	1856	-20550	3902	133	118	1
-9052	-9896	8468	3303	-1495	3390	-14056	3592	-2584	-12595	8940	606	-17648	-1740	-2100	1746	15467	1727	-8724	6376	9184	10843	-21232	23401	-4800	4296	-9932	1475	-25534	-13003	-12368	1208	-7116	844	-18669	4391	115	109	1
-9220	-8948	9372	2716	-737	3383	-17612	-1748	-2680	-9373	8947	213	-17472	-212	-2180	1372	15812	1898	-11172	5152	10128	11624	-24737	25960	-4088	3884	-9220	-2300	-30567	-13195	-10708	1616	-7792	-3588	-14231	2936	129	116	1
-10088	-8180	9984	1528	109	2903	-18024	-2628	-3760	5780	5539	3238	-15248	1900	-252	-9474	18317	5257	-13244	2940	11552	14396	-28641	27040	-4344	2976	-9960	-4621	-32768	-11409	-8956	1120	-8392	-8033	-9762	753	125	114	1
-9816	-9164	9312	635	518	2538	-16736	4916	-4680	6776	5172	3989	-14392	-620	-300	-11367	19462	5627	-15284	1800	12544	18819	-31089	27746	-4828	1848	-10352	-4269	-32768	-12684	-6940	464	-9736	-9921	-7775	-2368	122	112	1
-9808	-8768	9776	-211	601	3066	-14936	6744	-3724	-3895	6822	1615	-16448	1008	-7120	-2285	16422	5363	-18016	2772	14184	21411	-32361	28796	-6480	1744	-11708	-2729	-32768	-15315	-5856	-532	-10644	-12371	-2780	-3576	135	119	1
-9616	-8832	9820	-927	913	3345	-16488	168	-1904	-5115	9426	-389	-15632	-444	-8708	964	8733	5416	-23652	4708	17712	21178	-32768	30687	-9780	2836	-14228	-334	-32768	-16797	-5640	-1824	-11908	-12462	1771	-4523	142	123	1
-9872	-9748	8924	-1984	1230	4304	-18252	-2216	-2012	406	8536	1711	-16176	-1684	-1516	1957	8987	5077	-32768	2836	20376	18814	-32768	32767	-15700	2816	-12912	3352	-32768	-18532	-7000	-1856	-10828	-12803	4278	-4792	130	117	1
-9300	-7772	11640	436	3665	4998	-16536	-276	-1324	4376	8531	3787	-17348	-1888	2860	3440	9261	3794	-32768	-4876	20680	18024	-32768	32767	-22240	6508	-16264	6705	-32768	-18519	-10176	4264	-5236	-13577	3385	-3165	134	119	1
-9896	-8808	10104	747	4796	5707	-17112	900	320	135	11526	4466	-18060	-564	3160	2372	6983	2976	-32768	-17924	14228	19176	-32768	32767	-25436	8668	-14864	6388	-32768	-18207	-19424	11840	11616	-6595	-6924	5348	127	115	1
-10312	-9084	10460	1624	6730	6254	-17076	404	312	68	11900	4264	-16704	-928	4300	1651	6463	3279	-32768	-21288	-3048	16061	-32768	28119	-24060	11620	-12212	3221	-30415	-14701	-23816	-692	27060	1870	-1375	12847	118	109	1
-11388	-7892	11084	1421	9160	6451	-20356	-1780	-904	-496	15681	7684	-19384	800	5012	-6257	7420	1972	-32768	-32768	-30324	18008	-26911	4811	-10204	784	-9168	12320	-17211	470	-21284	-5376	32767	-3181	8655	9436	117	108	1
-10664	-10916	11536	1782	10618	10108	-19528	-2640	2912	-2355	17984	9576	-22756	-5024	1912	-14669	2749	1438	-32768	-32768	-32768	4263	4682	-13028	-6348	13136	-11760	9307	7440	16241	-16124	-6112	30960	8118	3184	-6935	119	110	1
-10916	-11228	12224	3387	14038	14009	-20380	-584	1372	-2069	22133	10249	-21600	-8996	1572	-13819	756	2600	-20216	18060	32767	-13234	11925	-12489	-15068	-32768	17556	-11998	24612	3666	-15224	-2440	-1648	7906	8839	-1662	104	102	1
-10200	-13072	15308	3258	19257	20444	-26176	3396	-1192	-7088	24334	10951	-22852	-7712	9508	-8546	-8502	1794	-15844	12376	4372	-8794	29604	-18623	-23448	11984	-2352	-18396	6013	10147	-32584	-7892	26780	20232	-8367	3003	150	128	1
-15864	-24056	12468	3312	24432	29945	-30548	444	6284	-12249	25799	11214	-22404	-208	10188	-7037	-10207	923	-14156	-7508	19096	-413	19889	-9969	-13628	-5868	-8052	-3580	18890	13074	-19044	7556	-6160	2413	7206	-4958	153	128	1
-16004	-22652	16220	4803	31188	32767	-30340	-3932	1316	-9142	29303	11082	-23740	3272	9252	3465	-10429	-880	-28328	30264	17504	-2353	15723	-7163	-16044	6884	-6428	1265	21908	5885	-13324	-5716	-18688	-11654	10578	1873	109	105	1
-26740	-31000	18480	9572	27288	32767	-28464	-3500	-8748	-4166	27712	12023	-20868	-8612	-4856	-12285	-19850	-8436	-17324	-6240	23956	-9757	3279	-9489	-21556	14824	-12752	-1652	11679	12691	-13224	10788	-7784	24282	7835	7954	108	102	1
-24580	-24420	21520	13611	22120	32767	-28356	-1732	-3632	94	22032	12478	-25676	-4096	-10252	6628	-21988	-11705	-11100	2928	14284	-3550	1365	-2565	-14480	-656	-7528	-1308	12241	2452	-14620	11916	-8784	32767	8197	5529	120	111	1
18852	-24852	22812	20075	23561	32767	-22000	1756	-10700	12312	13294	12042	-30492	2740	-8596	16283	-26230	-13076	-11588	5420	12300	-2445	491	-2010	-15620	600	-5048	6284	7717	5534	-16068	17664	-1624	-8758	13214	6319	104	103	1
-17920	-26160	25860	4240	-9050	13445	-15824	12064	-20588	5563	10869	12754	-29368	7120	-4880	19409	-28798	-8354	-10952	3472	13460	-938	794	-1001	-18948	5804	-4888	-337	8167	3525	-17436	-1904	540	-18056	15898	1032	96	97	1
1392	-19592	9912	-3508	-14754	1243	-13760	11056	-1904	-2043	1799	2597	-27040	7216	-5104	12337	-26852	-6689	-9952	5168	12268	-134	1413	-434	-17912	-952	-1280	-5559	7760	3153	-15164	-6844	2044	-5923	14690	-6009	107	103	1
2396	-15920	5568	4883	-10833	-2902	-8476	6416	-8652	-12169	-7371	-1794	-22224	7264	-5180	3087	-22824	-7972	-9780	6048	11624	-762	1425	-1355	-13808	-2284	612	796	6387	2356	-14140	1340	3096	3821	13469	-3356	162	134	1
620	-8548	6188	4044	-6553	-13634	-6348	6160	-7216	-6646	-10954	-3880	-18280	6360	-5960	-5061	-20459	-8448	-10184	6364	10988	-1503	859	-2727	-15104	1584	596	6819	6046	2405	-15540	7984	2396	1123	15555	4125	115	112	1
-2496	-10308	7240	-854	-6547	-23915	-5360	4136	-8896	-4080	-18505	-5715	-15616	5812	-6404	-8178	-18428	-8928	-9808	6684	10604	-1818	713	-2999	-17732	4476	-1348	3553	6755	3525	-16056	4628	1160	1668	18267	2874	111	109	1
-5996	-9016	8428	-1829	-11647	-29471	-5228	3996	-8592	3337	-24770	-8480	-13544	5876	-6844	-9396	-16661	-8897	-10448	4392	12628	-2949	-1228	-4187	-16400	2712	-2560	-7411	5459	1628	-13964	2856	1160	1464	20790	898	125	118	1
-7808	-5440	10064	-6968	-16288	-32768	-5560	5200	-7984	8089	-29710	-11235	-12552	5820	-6892	-11069	-14916	-7727	-10844	3688	12608	-3476	-1117	-4073	-16136	-1384	-3116	-7252	3860	1007	-14444	1648	3060	3520	22170	-331	139	129	1
-10304	-4856	11008	-14553	-22308	-32768	-6356	6300	-9896	9771	-32768	-14300	-11464	3992	-6672	-7319	-12346	-4784	-11320	3176	12780	-2962	-725	-3218	-15128	-1224	-3480	-803	5145	1164	-16048	1364	2580	2542	24668	1113	113	110	1
-11960	-6180	12108	-19998	-26858	-32768	-7536	8308	-8996	9036	-32768	-16595	-10408	3032	-7192	421	-11158	-443	-10880	3668	12832	-2048	-642	-2792	-16448	-1432	-2100	2208	7047	2851	-16744	1264	-1808	4615	19882	-22	111	109	1
-14756	-6276	14264	-24515	-29216	-30662	-8784	12448	-8628	-105	-32768	-17712	-7548	4948	-7788	6613	-9479	2898	-10316	4344	12868	-2113	-574	-3203	-16732	776	240	92	6095	3661	-17316	7320	-4708	-1858	11307	-2348	110	108	1
-15880	-6988	17700	-29192	-29526	-30136	-8736	12584	-11572	-11978	-32768	-19777	-5160	6620	-9836	8922	-7624	5235	-10612	4280	12632	-2037	-428	-4289	-16744	820	-128	-3451	6768	2522	-17516	8180	1524	-9266	10338	-439	120	111	1
-19840	-9680	22728	-31380	-27606	-31183	-14104	10144	-13452	-21548	-32768	-22131	-5148	6988	-9944	8815	-7091	5558	-10796	4092	12980	-1376	558	-5000	-16520	-1408	-272	-1178	7993	3704	-16336	2400	4416	-5353	12577	2116	123	113	1
-31104	-10380	27032	-27838	-25198	-32768	-18744	7952	-14892	-21305	-32768	-22199	-6112	2340	-7348	4026	-2840	4106	-8856	3872	14476	-1346	1706	-5525	-16848	-72	68	-1803	9897	5996	-17004	-1824	5024	-2453	10560	1307	117	110	1
-32768	-1212	26984	-20507	-22180	-32768	-21896	4720	-19028	-18302	-32768	-17989	-12108	-8788	-2780	3848	-4140	-4496	-11196	2492	13972	-2301	5024	-5372	-17056	-1224	-588	-2699	11987	4370	-18568	-980	5508	-1789	7993	-66	125	117	1
-32768	4080	11816	-11267	-22553	-32768	-22680	3624	-16360	-13147	-32768	-11086	-18024	-6120	14604	-6483	-2615	-12959	-10416	2688	14332	-2919	9066	-4562	-18448	-2508	-412	-3767	14715	4629	-17620	-2760	5656	2226	6839	243	129	114	1
-32768	22344	-7900	-6091	-16295	-27836	-15148	-2180	-14216	5485	-21999	-9200	-24024	-4384	25236	-3603	7188	1070	-10636	3036	14748	-3833	13518	-5833	-18360	-1028	-76	-1054	17032	5495	-18120	-1760	3768	8976	5204	-507	97	99	1
-32768	32767	-8016	-11006	-167	-12998	-7468	4184	-14960	12487	-6244	-1699	-24696	-5432	28168	-7915	3266	8604	-11148	3360	14688	-4843	18075	-7474	-18624	692	400	-167	19715	5185	-16560	9116	2260	11762	5158	-1144	120	114	1
-32768	25904	-4404	3961	9860	-5791	-4216	6612	-16440	4069	16635	7901	-13984	-6836	12272	2172	4289	3581	-11512	3480	14108	-6012	23653	-9115	-19240	-2444	744	2764	22111	5884	-18680	12492	4832	12897	5321	-1655	145	124	1
-16532	-32768	27672	16269	-666	15821	-4172	7132	-15740	-2054	20402	8052	-17148	-3084	-1184	-754	9893	-1825	-12144	6208	16684	-6691	31629	-11306	-23180	-8760	4644	10221	25413	7651	-20708	4132	8868	7931	4761	-2240	117	112	1
-2444	-11916	2368	19592	22325	32767	-28588	-2860	-3188	2295	9504	-7470	-17696	-1168	-104	-4195	9895	-1794	-15276	9476	16104	-11408	32767	-19844	-25628	-4944	6892	10470	28016	8406	-27136	-5448	24752	8483	-15838	-4925	104	103	1
-18264	1412	21344	3390	21327	14228	-15228	7104	-7524	24051	12460	10194	-27120	-11676	-784	19758	4712	2790	-20488	3336	21592	-17660	32767	-27824	-26748	1128	4136	5455	30564	7949	-18716	-5276	16620	1840	-12715	-5454	112	109	1
-13696	-5976	12780	-4081	11181	17303	-17464	11320	-8304	7736	18465	9596	-14436	10644	-1832	16621	4570	-705	-32768	9796	20956	-17348	32767	-29882	-29328	2916	-1152	-3657	31074	8026	-22940	14724	-6556	26957	-16320	-2353	93	94	1
-7376	-9360	12612	6842	7952	9291	-21768	-8060	-13264	-3054	17993	-1036	-10900	5492	-17240	-6535	16105	1732	-32768	9004	30728	-20853	32767	-32768	-31292	6556	-4076	-5995	27866	6170	-24848	11276	-224	-1400	-22413	3386	101	100	1
-13268	-12940	5696	7644	1929	6740	-17144	-4852	-10136	20886	10394	4789	-11036	-12048	-15260	-20706	18946	111	2176	25972	19440	-26664	32767	-32768	-24876	672	-6780	-9530	18707	-865	-29628	7476	-7664	-13781	-25916	5445	86	92	1
-12440	-11376	8236	5889	-815	5793	-15812	8240	-8488	11281	5706	5609	-17308	-9708	-7172	2450	12149	-4749	-32768	3200	32767	-18293	4824	-31815	-15556	5820	-24172	1075	-2251	1735	-28916	116	-7172	-20024	-28122	4670	148	128	1
-10128	-8460	9852	5224	-2253	4246	-16356	4792	-5304	-4374	8126	566	-19644	2448	-3376	10834	11547	399	-10556	5592	26072	12797	-17677	-16871	-16880	-5864	-9904	444	12609	-6418	-30768	-1104	-2372	-13158	-30361	2762	128	116	1
-9828	-7752	10776	3125	-1254	2576	-16352	2408	-3408	-2956	9230	560	-16616	6368	1288	4909	10013	5928	-4400	13544	10636	14631	-18153	-10847	-11208	396	-11816	6767	815	-7865	-26504	-1848	-3120	-4247	-28148	2826	137	121	1
-9456	-8444	9920	1058	22	1001	-17968	724	-2792	2597	7809	2533	-14732	2376	-180	487	11802	7496	-5864	16228	7408	3411	-19596	-2022	-7452	788	-13056	9186	-9521	-7392	-23464	584	-5128	-2802	-28418	1685	149	127	1
-9356	-9332	9100	572	389	539	-17248	-1836	-3004	7812	5331	3380	-14464	-476	-1416	-4986	13768	5577	-4156	10772	7228	-778	-20400	11019	-5644	1404	-12148	8492	-16150	-8509	-22444	120	-5140	-1968	-27689	2115	145	125	1
-9300	-9656	8628	998	114	650	-15800	2376	-3044	3196	6148	2311	-13964	-2080	-1692	-4708	14196	3798	-4472	6508	7816	5500	-18121	22540	-5528	5208	-11520	3784	-19199	-10402	-16264	300	-5980	1916	-20054	5435	135	120	1
-9024	-9492	8736	1648	-407	1187	-15008	4732	-3132	-10434	7570	611	-15952	304	-2044	-4004	15600	2003	-7368	5204	8584	9442	-17843	27546	-5356	4724	-11780	-2296	-23622	-11444	-13388	1868	-6900	576	-18459	6152	126	115	1
-9312	-8796	9488	1296	10	1029	-16784	1684	-3692	-15450	8340	32	-16432	2856	-1656	-7184	18857	2608	-10380	2792	11020	12128	-20008	28615	-4352	3216	-10616	-5337	-31079	-11557	-11860	1384	-7572	-2371	-15036	4148	124	113	1
-9404	-8404	9676	382	849	602	-17996	-3144	-2888	-6914	6194	1236	-16488	1040	1012	-14393	19201	5064	-14604	236	13316	17788	-24916	27864	-4856	528	-11004	-3471	-32768	-10364	-9452	656	-8224	-7585	-10755	1828	124	114	1
-9344	-8672	9412	-180	1264	467	-17164	-320	-1372	1848	4333	2976	-14972	-2684	432	-13481	18205	6978	-17676	-1380	13828	24295	-30829	25812	-4964	-724	-10616	1696	-32768	-10892	-7540	-452	-9056	-11014	-9920	-902	132	118	1
-8916	-10256	8500	-125	964	1320	-15000	2208	-1208	-3203	6252	2885	-16764	-5148	-6592	-237	14506	6517	-18604	-984	13300	28699	-32768	22927	-6152	228	-11124	7013	-32768	-11449	-7088	-1616	-9544	-14770	-4965	-3037	139	122	1
-9068	-10364	8744	42	572	2870	-16692	-1160	-584	-4283	7814	1252	-17044	-6972	-5988	1827	9689	6114	-20884	1900	14736	28280	-32768	21792	-9612	2224	-13764	8368	-32768	-10141	-6556	-2516	-10808	-14017	-583	-4963	136	120	1
-9796	-9428	9112	-478	598	3416	-17504	-1452	-1536	1832	8591	2247	-16568	-3220	-2072	1928	8542	6360	-27924	4072	17368	24756	-30704	25815	-15044	1680	-14424	4402	-32768	-9924	-7256	-3316	-9364	-10640	3292	-5952	142	123	1
-10016	-9860	8848	-1838	180	4850	-17664	-280	-2560	5250	7907	3570	-15984	1228	348	4970	9102	5695	-32768	756	20344	21264	-26549	32767	-19796	4944	-14464	2515	-32768	-11656	-9528	852	-4208	-8671	1994	-4362	133	118	1
-9744	-8928	10164	-1134	1379	6119	-17052	1932	-836	3142	9359	3788	-17188	3252	1832	8664	8389	4410	-32768	-10880	17604	17831	-24472	32767	-23568	7400	-13292	1797	-32768	-13084	-13632	9452	6012	-40	-4021	1627	122	112	1
-9812	-7776	11092	1412	5408	5979	-16724	2364	1080	1226	11915	5638	-17760	428	3260	6277	7364	3250	-32768	-21732	7760	10170	-22877	32767	-26856	12152	-12684	-5594	-32768	-15168	-21904	8384	25652	12150	-9935	10122	135	119	1
-9660	-8908	12080	631	7586	5016	-18944	-1620	-1424	5790	13792	7026	-17952	1184	3504	-1162	6879	3126	-32768	-31040	-13156	1272	-23787	24115	-15744	8380	-11852	-10810	-24695	-8808	-18884	-2488	27676	-1741	10740	17127	128	114	1
-10544	-10264	10996	889	9927	7185	-20520	-460	-968	3103	14542	8879	-20376	-1132	2480	-5880	5790	4772	-32768	-32768	-32768	14771	-14349	676	-4616	-2608	-5592	8479	-3145	5039	-16632	996	31244	-1639	6809	8159	102	103	1
-10468	-11500	11160	1885	12083	9720	-18736	-2924	1480	-1712	17847	9969	-21020	-4344	48	-10020	3536	2084	-32768	-10948	-30400	-12831	9399	-18334	-11812	16556	-17356	3340	15194	18066	-12320	-6304	20476	1220	4525	-5402	112	107	1
-11028	-12732	11236	3086	14091	14825	-20320	916	236	-3958	20867	10034	-21904	-6960	2324	-13184	1701	1994	996	14368	32767	-4723	7879	-11378	-29068	-26144	8104	-2423	15567	3029	-9572	-6128	-1688	7883	12530	-1836	146	126	1
-10304	-15192	12796	3959	18455	21197	-25468	2588	4180	-11027	23372	10695	-22144	-2064	10408	-8563	-9244	1381	-15308	8068	17404	-9998	27455	-19263	-18128	-10480	-2500	-17677	1637	6774	-24664	-1556	8972	20782	1163	2885	107	103	1
-15772	-20836	12116	4645	22611	30775	-27012	2212	7284	-12011	26604	10632	-22560	4624	13676	-7900	-11459	803	-13044	-10568	21572	-230	21168	-11609	-17968	-11732	-7160	-379	12909	10626	-25488	6644	10012	-4857	-7835	-4744	126	114	1
-14200	-18760	17796	5014	30474	32767	-31612	-3936	-132	-10017	29081	11616	-22932	2548	5908	-4554	-9671	-1136	-32768	32767	11240	-6843	9565	-7983	-19420	13212	-4852	8190	19965	8593	-22768	3936	6836	-5812	-2671	-4800	126	115	1
-27868	-32768	17328	10401	25670	32767	-28276	-3052	-8920	-6605	28448	12157	-19500	-12076	-5344	-20656	-18367	-8492	-10552	-15996	21592	-9285	2717	-8420	-17924	13180	-9540	-2223	13276	11666	-10948	8836	-10816	25683	19163	2104	152	127	1
-23172	-24716	23224	17270	20362	32767	-29024	-3668	-3196	3070	21994	12821	-25336	-3140	-8836	7474	-23522	-13508	-10800	2152	14816	-4500	2262	-3244	-14316	752	-5068	203	12310	3407	-9596	18276	-13476	30617	4567	328	92	96	1
11916	-13320	23652	27930	21916	32767	-22084	-184	-8384	18422	13953	12789	-28756	2640	-7752	17373	-28399	-14274	-11284	4056	13100	-4324	662	-3513	-16224	3428	-6076	4628	6847	5843	-15748	20288	-92	-8407	12532	11339	84	92	1
-14440	-23144	25352	6961	-6031	14240	-18144	13080	-21004	11534	11701	13517	-28716	6440	-3564	18643	-28655	-9100	-10740	2852	13676	-1291	771	-1387	-19424	3932	-5332	-3248	8407	3296	-22568	-2332	-2892	-17801	16572	3926	123	111	1
216	-19128	9752	-3972	-12314	867	-12888	11024	-3948	28	2721	3451	-26812	6996	-4560	8879	-26309	-6227	-10468	4588	12540	325	1629	-373	-17536	-1588	-2388	-6146	6610	3586	-15672	-9064	876	-7628	13819	-5004	139	122	1
1824	-16724	5584	4639	-9002	-3414	-8956	5144	-10004	-12667	-5927	-1278	-22664	4524	-5016	-1026	-22500	-7580	-10744	4904	12184	695	2072	-440	-14564	-672	-560	2105	5812	3265	-13156	1680	2388	4312	14140	-3406	166	135	1
