#Activity	walking 
#ActivityID	1 
#Date 10-10-18-17
acc_rf_x	acc_rf_y	acc_rf_z	gyro_rf_x	gyro_rf_y	gyro_rf_z	acc_rs_x	acc_rs_y	acc_rs_z	gyro_rs_x	gyro_rs_y	gyro_rs_z	acc_rt_x	acc_rt_y	acc_rt_z	gyro_rt_x	gyro_rt_y	gyro_rt_z	acc_lf_x	acc_lf_y	acc_lf_z	gyro_lf_x	gyro_lf_y	gyro_lf_z	acc_ls_x	acc_ls_y	acc_ls_z	gyro_ls_x	gyro_ls_y	gyro_ls_z	acc_lt_x	acc_lt_y	acc_lt_z	gyro_lt_x	gyro_lt_y	gyro_lt_z	EMG_r	EMG_l	act
-32768	-8276	13192	-5278	-32768	-28905	-15016	-280	-13748	6882	-32768	-6828	-5296	4372	-10180	15200	-3149	-2439	-9792	3532	13264	-158	1159	-2552	-17240	-176	-2564	-1048	6574	-3494	-17012	-744	-1200	-3330	12329	-4334	120	118	1
-32768	-264	9752	-9461	-32768	-29564	-21004	1072	-14404	4636	-32768	-7738	-6800	2220	-2280	12219	-4050	-4761	-9920	3384	13512	-604	3220	-2159	-18856	600	64	822	7216	-3534	-17608	1544	1400	-1013	12613	-3478	121	126	1
-32768	7208	1328	-15671	-32768	-27762	-22924	1964	-15292	-1516	-32768	-8318	-8964	-928	1000	8729	-3281	-9003	-11100	3368	13604	-186	5119	-2214	-16800	3688	2688	1689	8602	-4548	-18456	-320	5072	-669	11178	-1043	130	125	1
-32768	18580	-4084	-17384	-27158	-21583	-21712	2080	-18836	-6985	-32768	-8654	-27980	-2540	19640	10467	-19751	-15548	-9560	4644	14140	313	8157	-2616	-16332	4076	3116	1500	9100	-4796	-20496	-684	6292	4560	8853	-572	103	117	1
-32768	24180	-14684	-15206	-18097	-16665	-16532	-1212	-12388	-15962	-23031	-3746	-32768	4344	18228	-8054	-8748	-14012	-9716	4328	14616	766	12623	-3317	-20516	2928	1688	4739	13554	-7464	-22136	6056	2864	9370	7524	-818	17	123	1
-32768	22952	-28100	-2545	-17753	4425	-4700	3140	-11748	-11139	-5489	-4245	-9248	-1308	23156	-10616	12739	-3804	-9208	6016	15164	112	17992	-4885	-20780	4232	1860	7535	15242	-8325	-22320	7736	1836	9432	3980	-1183	56	122	1
-32768	32767	-27380	-7989	-7634	11306	-2852	24	-8776	287	10700	-4570	-7420	-1552	22232	-11538	12960	-3331	-8660	5940	14640	-595	24251	-7710	-21668	4456	1948	6878	16877	-9039	-22592	2756	4464	7012	-1130	-1193	92	126	1
11984	-15580	2848	32767	7190	32459	-17368	1104	1532	-3597	22443	1457	-19456	4792	6068	-11183	7940	8608	-11000	4636	14824	-638	32026	-10502	-22668	1452	2656	6042	18637	-10069	-22828	2512	8224	9384	-4758	-1400	125	136	1
11456	5640	32767	18341	18519	1926	-32768	1908	27480	1266	9317	6386	-4332	-1924	-22640	-22938	25946	9136	-13084	6796	16292	-538	32767	-13990	-28932	1644	5492	10079	20611	-10519	-26460	7328	10976	9372	-10078	-1417	120	121	1
-5844	15048	13832	11236	29218	23249	-20516	-2040	-2224	24539	12088	3129	-29052	-9192	15772	2672	-3837	-8452	-15012	7072	15864	2396	32767	-21092	-32768	2112	5608	17466	21134	-9650	-29968	4032	14896	5540	-24176	-1060	119	98	1
-32768	-32768	8156	8700	5702	16341	-13032	1040	-8136	9720	23142	3456	-30640	-15932	10636	26155	10965	-752	-31064	6868	23352	9759	32767	-22603	-32188	12780	6716	31760	21501	-8585	-25556	532	10728	2010	-19627	-3835	44	98	1
-12212	17652	27236	12170	4373	13399	-32768	-612	-12896	16914	17946	-21	-19276	15024	-16272	8057	10351	9985	-32768	25428	32472	23010	32767	-25226	-27668	12276	-10380	17802	20806	-11135	-25792	11172	-3416	8743	-20950	1532	140	102	1
-15036	-13312	8608	4921	2101	3950	-11892	7052	-11340	14564	18872	357	-5496	15512	-11264	-2506	10501	4384	-32768	11416	32767	29320	32767	-26448	-25144	8212	-15236	3835	21465	-13700	-27096	11900	-12716	8018	-21561	4882	101	98	1
-11456	-6768	10064	2135	1355	2082	-8196	4288	-10140	-11804	13519	702	-9852	-9360	-8804	-16066	5346	4956	-22636	30844	-520	29567	14122	-32768	-26440	-1672	-10252	-1735	15144	-9021	-31472	6568	-12440	-6092	-21505	7287	120	101	1
-13232	-7768	8956	2240	1383	1847	-8664	2312	-10612	-15741	12845	1383	-14036	-14352	-11900	1910	12400	922	-28496	32767	25344	-1853	-15660	-11883	-12636	-7552	-17720	2984	9742	-10250	-28224	-520	-8252	-16939	-29825	5434	160	105	1
-10700	-4200	11588	857	-138	2711	-27328	-10324	-6352	-6399	7950	3135	-19936	3696	-4988	2190	12872	-661	5460	19920	9812	-23032	-21103	-10431	-12296	-2332	-6908	17867	-1034	-4160	-23692	3164	-5200	-7816	-27462	9343	146	139	1
-9708	-3956	11536	307	-165	2507	-17484	-3760	-3452	3649	7203	2279	-18452	2212	-2872	-3049	13540	3012	6724	1576	8564	-10978	-16384	-2318	-8572	2884	-7444	11596	-8498	1689	-20292	4804	-8312	-1689	-22571	11018	166	166	1
-10636	-3276	11468	-205	248	1643	-13280	1388	-3600	3790	6992	1054	-13868	-1376	-1844	-6962	13654	6328	4536	9604	7744	5013	-13032	10125	-2624	-108	-8188	-4907	-11517	3607	-19684	3148	-8544	-2960	-20310	8866	168	178	1
-11268	-4108	10916	-7	-108	1384	-14936	-1664	-2572	-1775	7022	2829	-15708	-2332	-3264	-7444	13867	5948	-1708	18176	8512	3664	-13926	17781	-3432	-2728	-7848	-12050	-16836	7410	-17248	732	-10548	-6720	-19966	7696	160	175	1
-10856	-4932	10376	583	-374	1595	-16212	-5904	-1836	-1639	6403	1180	-14552	-4364	-1928	-4714	14665	6756	-6004	16468	10148	-3463	-19582	23361	-2464	-4032	-8504	-11644	-21814	12235	-12596	-548	-10004	-8946	-19868	6686	149	165	1
-9432	-5036	11072	323	74	1999	-16388	-4136	-2560	-253	5871	1795	-13556	-3672	-3280	251	15119	5861	-6648	11236	10288	-4480	-25211	27695	-2552	-2856	-7556	-9332	-26077	15598	-9596	-2152	-9792	-7440	-16487	5133	146	153	1
-9804	-4172	10932	293	414	2448	-15044	1236	-2100	-3443	5729	1777	-15608	592	-2532	1935	14930	2797	-9248	8444	11288	-1488	-29468	30320	-3328	-1924	-7372	-12030	-29542	18974	-8216	-2648	-10424	-5731	-12394	2912	149	147	1
-10960	-3208	11316	-182	1000	1847	-15724	-416	-2772	-7608	5995	999	-16912	672	-832	-1124	16737	5475	-12748	8952	12784	-356	-32768	30821	-4132	-2616	-9268	-18772	-32768	22082	-6284	-2400	-11192	-5359	-7112	1568	154	165	1
-11284	-3576	11480	-737	1600	1484	-16816	-2780	-1876	-5703	6767	1109	-15384	-1540	-1496	-1520	15288	8186	-17924	8484	15800	859	-32768	30565	-6624	-3932	-10100	-22472	-32768	24243	-5068	-3884	-12216	-4745	-1024	661	115	155	1
-10844	-4124	11052	-1536	2103	1694	-15660	-3720	-2288	-2451	7068	1696	-15696	-2296	-4252	520	11806	5022	-25840	14216	18860	3122	-32768	32324	-9892	-6904	-16220	-23979	-32768	24133	-3692	-3644	-12932	-3787	2100	356	106	165	1
-10696	-4976	11312	-1200	2654	2491	-14660	-2756	-3424	-947	7560	1649	-15664	1628	-3064	1608	12961	1612	-32768	10248	16408	-76	-32768	32767	-16440	-8188	-14320	-17593	-32768	19971	-3348	-3516	-12312	-5794	3660	453	112	173	1
-11040	-4124	10928	-1614	3141	3039	-16784	-496	-3948	-4257	7344	1522	-16192	-4	-2872	-3409	15031	2155	-32768	6884	14692	4529	-32768	32767	-18892	-6080	-15364	-9960	-32768	22452	-4060	-3036	-9692	-7401	7027	2457	122	188	1
-11160	-1700	11816	-549	4455	2771	-17480	216	-1172	-9637	7223	1541	-15992	-3908	-2140	-4759	14839	3212	-32768	-168	9484	4125	-32768	32703	-26320	-7056	-15868	-9174	-32768	17658	-9996	1884	-2132	-8363	3557	6667	134	188	1
-11068	-2636	11804	-634	5805	2075	-16312	-1404	2108	-10479	8793	3072	-17784	-1972	900	-161	11934	1622	-32768	-11148	416	6361	-31934	25798	-26124	-7372	-16256	5080	-32768	14567	-25816	7744	13352	-11896	-9105	13221	142	169	1
-11228	-3348	11944	-114	7914	1621	-14436	-5192	2412	-1396	12035	4410	-17608	-816	3396	-1563	9328	2814	-32768	-7780	-19356	3610	-26134	12806	-13700	-4652	-11800	13182	-21016	14968	-30136	8328	17092	-14299	-11243	14983	135	253	1
-12948	-5312	11648	837	10574	2866	-17652	-2924	896	2703	14735	4773	-20104	-3428	168	-5305	8241	4500	-32768	-28184	-32768	10416	-16557	-146	-3968	4976	-8932	10969	-7428	8495	-18512	-3164	32767	6141	15655	4184	135	253	1
-11896	-5600	13040	2563	12889	5623	-19164	-1612	-132	-2398	16211	4352	-18768	-5120	-1844	-4481	4484	3928	-32768	-17888	-32768	10689	967	-5714	-6616	264	-5572	-1197	12654	-1743	-14680	-6428	20108	15471	-904	-8183	134	148	1
-11596	-5732	12444	3234	16806	8775	-17460	-2660	-1792	-4846	17877	5125	-18672	-1160	-40	-4736	619	2643	10096	8528	6812	-22748	21383	-15875	-16320	288	-252	6023	23735	-10480	-20172	5704	5936	12115	-2447	-4915	133	64	1
-11624	-7464	12688	3449	22838	11559	-18496	-3240	-2900	-5288	19400	5294	-21172	-2008	2664	-7505	-3064	4104	6592	3404	3468	-10647	23162	-9628	-32768	16368	21688	7404	11109	320	-10432	10304	-5032	26619	18905	-1484	135	50	1
-11440	-7172	16000	4639	32016	17298	-27084	-2052	364	-7714	20583	5118	-27748	-5076	7984	-5437	-12206	4395	-32592	-18840	32644	-7683	32767	-16433	-7252	-4532	3140	-15147	13846	-1512	-19740	792	7132	-6116	-281	2429	135	43	1
-13596	-7228	16360	3260	32767	26749	-32768	2476	8624	-14715	20736	4335	-28644	-4896	9536	-5318	-14472	4165	-32768	20308	2484	-20054	-2944	-14818	-26628	-836	-22956	-13324	28861	-18404	-31924	16388	1860	-17908	6594	9777	129	71	1
-19780	-16484	13100	6030	32767	32767	-32388	-2204	11400	-27029	20413	5620	-28260	8068	11488	-5461	-16502	5651	-32768	-21888	32767	-13905	-2412	-8648	-23016	-13328	-22816	-21054	20941	-6168	-10748	-21616	-8692	-7161	9034	-1779	129	95	1
-32768	-652	19960	1857	32767	32767	-24696	-14420	-148	-24334	22839	5352	-23896	-6920	1244	-12475	-18470	2037	-10740	-2488	17288	-5050	-1208	-4854	-11852	-5348	-7944	-15953	18683	-3964	-6372	-4996	-12788	8909	11942	-455	141	230	1
-32768	-20228	16268	835	32767	32767	-27220	-10028	-10040	-13598	21193	6525	-23556	-9192	-1736	-12655	-17986	1061	-9636	4028	13960	-1180	-189	-2565	-11356	-7812	-12776	-671	13586	-2969	-16032	11824	-16136	2796	11566	-513	145	180	1
-12828	-17196	22700	688	28533	32767	-23440	-3876	-8268	-4348	16763	3803	-29436	40	-8404	6450	-20144	-7064	-10684	4612	13856	-451	421	-1950	-21340	2488	-12228	8503	11460	-1720	-19864	7524	-10072	-6379	14249	703	144	116	1
-32768	-3232	5780	3868	32767	27014	-15172	-7348	-16204	11318	7937	3530	-27692	1736	-11520	9333	-21171	-6499	-9500	5108	13644	-243	1482	-1504	-20392	1544	-7568	5854	5717	-1789	-19932	-3776	-5448	-2534	13969	-2091	134	90	1
-27292	-25960	19288	-291	-8097	-11160	-11900	4160	-20176	5221	5902	1407	-25008	1220	-8912	6258	-22268	-7978	-9532	3992	13848	190	2083	-1204	-15652	912	-4732	3645	4970	-1840	-17388	-2500	-2392	4951	13747	-4278	129	85	1
-9012	-21476	13400	10692	-23674	-18212	-11100	2512	-6904	-12315	-3842	165	-22724	-532	-9288	-920	-21904	-7982	-9636	4376	13772	899	2657	-859	-17024	320	-3620	878	4972	-1620	-15992	3140	-1928	7726	15026	-3026	119	102	1
-956	-6460	7668	7428	-28294	-17165	-8356	-8832	-11988	-9670	-11225	-2266	-19128	-3108	-11048	-1477	-19017	-8926	-9508	4884	13200	1347	2909	-500	-17724	3624	-4980	-2017	4913	212	-16348	3264	-2320	7769	16087	-4097	107	98	1
-3288	-4416	6000	-4284	-27302	-18794	-2980	-9980	-9196	13566	-15573	-4302	-18592	-1300	-11904	1399	-17955	-10145	-9172	5752	12896	1174	2899	-883	-16024	2252	-3264	-130	4596	-917	-14352	2672	-2012	7860	16183	-3340	108	91	1
-9604	-14936	5644	-4308	-31182	-20801	-4000	-5120	-13948	30851	-20784	-9072	-15832	-624	-12864	3962	-19980	-8897	-9288	5460	12772	955	2335	-1557	-14824	1708	-4012	6237	3350	-115	-14256	4116	-2212	7041	17270	-2099	109	80	1
-10336	-13616	5232	3653	-32768	-23259	-3860	276	-11748	31726	-27202	-9229	-11636	-664	-12900	5740	-17235	-8277	-9444	6280	12456	2024	1181	-2646	-14616	4216	-4288	6917	4179	-491	-14084	4968	-192	6020	17556	-1987	117	83	1
-10016	-6296	4184	2366	-32768	-29274	-2488	3428	-11352	27013	-31964	-7896	-9128	-640	-13120	7091	-14597	-7770	-9084	5272	12900	1175	1241	-3086	-16816	4696	-2152	5397	4329	-41	-15268	6092	-652	4102	16928	-4205	118	100	1
-11404	-4128	4952	-4311	-32584	-32768	-6284	980	-12456	22923	-32768	-3716	-7048	3168	-13460	8030	-11793	-5629	-9892	4728	12556	191	2011	-2835	-16516	780	-1764	4024	4531	-1322	-16592	7436	-4628	-821	13627	-2369	126	97	1
-17460	-8632	7056	-4911	-30925	-32768	-5904	724	-14816	19430	-32768	-761	-5192	5352	-13808	6746	-8351	-2670	-10040	3524	12896	9	2135	-2134	-14716	2012	-2828	1751	5000	-2002	-15560	3120	-4180	-2219	11294	-1213	135	91	1
-18488	-9052	7668	-4313	-30865	-32768	-6552	1828	-15552	12024	-32768	-3153	-4832	5156	-13760	6631	-7763	-2454	-9904	3944	13016	164	2748	-1479	-16424	352	-4120	-2648	5772	-2494	-15608	-600	-2828	-3918	12566	-1821	128	100	1
-32768	-4808	11096	-4077	-32665	-32768	-12496	-1000	-15404	4176	-32768	-4077	-4332	2436	-11144	9121	-3924	-4758	-10028	4152	12796	405	3713	-1137	-18176	-1452	-4820	-2001	5464	-1669	-16192	-936	-3364	-2864	13903	-2249	129	116	1
-32768	1364	6780	-8906	-32768	-32199	-15092	-344	-17688	826	-32768	-5204	-3604	1716	-6856	12076	-2502	-5305	-10068	4404	12524	619	4903	-1241	-17296	92	-852	4634	5858	-1136	-16772	636	328	-1	12517	-1868	128	119	1
-32768	10028	1520	-16186	-32768	-28910	-18636	560	-19132	-2608	-32768	-7386	-7256	-24	-1336	10776	-2700	-8333	-10392	4516	12508	477	5840	-1195	-15084	4504	2336	6526	7584	-2137	-17188	716	4580	650	10027	471	131	123	1
-32768	11080	300	-17651	-32768	-28018	-21404	252	-15380	-10809	-32768	-7514	-20672	-996	6276	8004	-9066	-11088	-10352	4712	13056	335	7172	-1507	-14472	6680	1396	2997	10226	-4005	-18736	2748	4912	5069	8337	1120	126	121	1
-32768	17744	-12428	-20859	-24306	-17742	-16324	-260	-14856	-16349	-26287	-7685	-32612	472	15444	-2464	-12081	-13723	-10248	5852	13556	-45	9790	-2554	-18996	4420	84	1730	12924	-5235	-19844	8100	1392	8388	6572	472	48	122	1
-32768	18748	-19888	-10136	-16941	-8097	-11656	652	-13216	-14331	-13092	-4510	-14948	1796	21664	-9938	3446	-5946	-10316	5200	13676	-231	13512	-4020	-19740	3424	-184	5360	13870	-5457	-19736	6692	1512	6779	4641	627	25	121	1
-32768	25516	-23152	-6580	-5785	746	-7340	696	-8788	-4180	1006	-3884	-8692	-320	16668	-15613	12397	-2935	-10408	5240	13332	177	17732	-5511	-18092	3368	972	7503	15577	-6614	-20132	2012	4348	8300	1158	894	88	124	1
-32452	7536	-30044	31606	17445	13568	-10428	-196	-6952	1870	11851	-3144	-18872	-1448	15708	-13271	7952	3441	-10072	4832	14164	485	23342	-7423	-20080	2200	1412	7419	17581	-7539	-21120	1892	5472	9680	-1622	797	124	126	1
-6616	1656	32767	24243	19418	2562	-27884	7072	26516	6767	12360	7917	-5708	-6676	-18000	-16865	26984	9717	-12008	4620	16320	1640	31744	-8982	-26052	1304	1696	8739	19559	-7722	-24732	5768	6320	9996	-4618	274	109	129	1
-13824	19868	20580	11457	23826	17625	-32768	-1416	324	29505	9881	2967	-32768	-12116	10828	6966	3043	-898	-14020	10096	19544	1483	32767	-13216	-32768	968	4612	11827	20647	-8165	-28784	6600	14428	9345	-17574	514	108	121	1
-32768	-29656	-4128	5235	160	7950	-11972	2356	-12204	32767	22211	4067	-31424	-4984	8188	32767	10281	1399	-15860	10460	19680	2859	32767	-18646	-32768	7128	8908	19440	20247	-7015	-26368	-1408	11904	4170	-20964	-975	91	102	1
-17752	7612	20240	13286	5989	14400	-30932	1936	-11564	18718	19433	1197	-17808	9376	-15216	14791	11541	10008	-21472	7800	16980	9995	32767	-20053	-30052	3564	3764	21113	22198	-7481	-26984	-1076	5640	6536	-20647	-1693	120	102	1
-13128	-15164	7296	5752	1090	5566	-15184	504	-12468	23143	17243	2016	-6964	14588	-10856	2843	11940	5139	-23112	10416	15744	11291	32767	-20938	-24584	1504	-10300	19640	19886	-7776	-24200	2404	-5296	12995	-21976	912	111	114	1
-9920	-1904	13212	4615	-1836	4376	-13604	3384	-12088	21479	15855	820	-10920	2324	-8964	-15593	7354	3414	-29032	12988	31580	32767	32767	-16954	-24280	3648	-12096	12637	17654	-8390	-26356	4912	-11232	6019	-23625	4122	116	105	1
-10040	-3648	12356	3548	-2177	3540	-13816	672	-7780	-23045	7526	-2273	-14144	-9772	-8956	-4438	12145	-964	-27056	28260	5376	32767	17993	-19706	-23052	-6564	-7124	8317	12114	-4824	-30064	1288	-9220	-6034	-27597	4427	145	107	1
-10660	-4036	11944	1736	-929	2517	-26324	-5192	-4448	-26457	6359	2859	-20296	2332	-2800	-2066	13124	-1532	-21736	32767	28780	-902	-13609	-119	-11168	-9016	-13960	11507	7023	-5522	-24916	-4368	-4444	-8968	-29685	2904	144	103	1
-10528	-3880	12476	523	439	1656	-18140	-11584	-776	-5035	5955	1588	-19780	4244	-976	-8682	11724	4546	7324	12236	17052	-17152	-22637	-1403	-11952	-808	-3984	21571	-3517	1758	-23408	2584	-4528	-295	-26980	6267	151	148	1
-10376	-3696	11688	238	1196	1017	-11896	-6116	-2720	16579	6923	1112	-13740	-4560	-2668	-8521	11749	6937	6376	-3832	15724	-504	-22809	1900	-5160	4644	-3348	7247	-9710	8298	-19224	3588	-7404	2943	-22429	6523	158	188	1
-10696	-4324	10976	283	994	507	-15172	-744	-3100	15969	7855	2920	-15360	-6976	-3544	-1319	11663	3811	2188	7040	14076	11423	-24339	8361	-4916	-2624	-5784	-7951	-12982	11727	-17660	80	-8204	2484	-20818	3325	162	189	1
-10504	-4988	10748	368	743	684	-18036	1536	-2320	2382	6086	2279	-14724	-4436	-2924	2921	11162	6962	-4104	14428	14636	4149	-27852	12999	-5956	-5760	-7052	-12400	-19567	15182	-13248	-1484	-8220	3103	-18444	2090	146	158	1
-11076	-5456	10668	319	324	1242	-15300	232	-2568	-12329	3966	1388	-13664	-1924	-3148	3905	12060	7012	-6200	8136	14544	-2075	-32768	18738	-5276	-7360	-6772	-8398	-25502	16949	-11888	-932	-9188	3529	-15687	3246	134	158	1
-10752	-4776	10976	450	186	1767	-13852	-2576	-2532	-17368	3489	1327	-14560	-424	-2204	2285	14008	5281	-6940	4044	13752	-226	-32768	23019	-6036	-4780	-6048	-4595	-30928	18337	-8656	48	-10024	4088	-10986	1234	115	161	1
-10732	-4216	10868	448	281	1649	-16784	-6760	-2440	-8593	4193	1889	-15492	-328	-1396	2620	17657	6081	-11292	4056	15792	1667	-32768	24258	-7340	-3468	-8292	-7794	-32768	20227	-7492	-492	-10560	4280	-6877	-923	134	157	1
-10008	-4212	11524	241	666	981	-17344	-3768	-2304	3642	5593	2551	-15828	-2560	-4152	-924	17480	7905	-16888	5632	18284	2404	-32768	24189	-8136	-4520	-10772	-13276	-32768	21277	-5552	-1456	-11660	2445	-3257	-952	133	152	1
-10448	-3796	11448	-146	1009	1187	-15884	-88	-3348	5232	5484	2609	-15720	-856	-6844	2670	14527	5852	-24736	11864	20448	2377	-32768	23545	-12328	-4516	-14700	-15870	-32768	21529	-4456	-1764	-11552	-1178	-41	657	136	146	1
-10340	-4496	10924	-528	1446	1410	-15720	1456	-1980	-848	5307	2271	-16200	2468	-1996	6085	14014	3033	-32768	11528	17964	615	-32768	27139	-16472	-4572	-11132	-11613	-32768	18383	-4436	240	-11524	-6852	1495	1414	134	150	1
-10716	-3764	11076	-729	1636	1569	-15972	-616	-360	-5225	5756	1943	-16496	2708	604	1373	13784	2521	-32768	11052	13156	440	-32768	27061	-18968	-5088	-12076	-9322	-32768	18929	-4592	888	-5916	-12145	2469	2472	151	149	1
-10728	-4204	10912	-691	1768	1505	-15656	-2512	3112	-5984	7189	2489	-17916	-3472	3180	-1920	13077	3614	-32768	2876	6012	-793	-32768	26939	-24884	-7208	-14156	-11139	-32768	16228	-8540	968	-1084	-17053	-3106	5394	134	141	1
-10200	-4336	11400	-561	2417	2082	-14976	-3996	5336	-2405	10095	3243	-19176	-3704	4440	-740	10855	2306	-32768	-8528	-3712	164	-32768	22421	-24660	-1184	-15696	-5090	-32768	11206	-23504	3364	12980	-20384	-10983	8386	133	201	1
-10668	-4544	12360	-103	4008	3214	-15320	-3644	3544	547	13108	3972	-19072	432	1752	-1613	8050	2455	-32768	-12172	-18024	-342	-24798	10961	-15260	-4268	-14500	731	-21174	10575	-32768	6212	25860	-8284	-10477	7212	139	253	1
-9760	-4672	15332	942	6908	3048	-18332	-1004	-256	-2253	14475	4421	-19020	-2764	-1548	-5918	6149	2954	-32768	-19444	-28116	3176	-16578	145	-7704	-1452	-12104	3053	-8663	4587	-14208	-1896	32076	4398	12671	-972	129	253	1
-11156	-4532	13848	-12	10319	3737	-20396	2240	-1220	-8792	15184	5773	-18500	-1748	-4192	-7710	3065	3169	-32768	-17320	-32768	5827	-4064	-7205	-7948	-2988	-8260	5826	8890	-521	-15676	-4392	18068	8283	1615	-6087	123	175	1
-12316	-5184	13120	1156	14085	5048	-17936	-2652	-3276	-6926	16504	5887	-18704	244	-3848	-6119	-178	3628	-14372	12884	-5096	-18941	21563	-18804	-10680	1628	-8500	11904	21326	-7586	-20316	-84	7756	9350	-2965	-5951	140	79	1
-10004	-6316	14604	2920	18303	7822	-20104	-2080	-1852	-2642	17220	6484	-20400	-2220	-1692	-5900	-2010	4862	3648	19328	32767	-5100	20071	-254	-32768	4224	24156	18950	12293	-5825	-5212	3048	-6648	23734	14211	150	153	64	1
-9548	-7904	15680	4989	26023	12488	-24216	-1860	-980	-1780	18176	6979	-24096	-5140	1188	-4688	-6083	5156	472	-5284	1584	-4170	32767	-8539	-18284	-1792	-3444	-10444	8111	641	-7740	-13432	-2828	12147	12065	-915	137	65	1
-11252	-9268	15272	6182	32767	20058	-28088	1844	2664	-2397	19048	6581	-26468	-756	10964	-2865	-17235	5781	-32768	-372	32767	-5681	24233	-9072	-12244	-11236	-4292	-15473	14353	-9482	-30776	9904	13572	-8642	8460	8659	137	30	1
-12780	-7576	16860	4093	32767	28693	-31324	3304	10368	-11849	19367	6102	-25124	3484	16000	-2711	-18690	6331	712	13240	12556	-14993	397	-9854	-32768	5292	-4672	-9601	22322	-10731	-22584	8772	-10656	-2446	6590	3781	131	142	1
-26688	-20344	9488	7622	32767	32767	-28440	-4612	9164	-28673	18685	7985	-26136	316	9860	-7519	-16263	6951	-16360	-248	15104	-9229	-544	-6208	-20044	-7144	-14280	-10065	15745	-1135	-19352	-11580	-11112	5005	14339	-3585	133	106	1
-32768	-6364	13476	6343	32767	32767	-22460	-22132	2380	-26081	19310	8413	-19448	-12124	-3676	-8858	-16102	742	-10132	2792	15752	-3810	-782	-2811	-12120	-3364	-7288	-8898	15127	-4208	-6308	6196	-6364	5979	11291	-85	140	137	1
-32768	-16812	14472	6379	32767	32767	-22600	-10876	-10084	-7841	19834	7608	-22324	-8876	-6992	4578	-18277	-6483	-10024	3644	13908	-1757	-713	-1897	-10604	-2400	-11192	4201	9883	-3452	-15532	15804	-11432	-7851	11684	-4141	140	120	1
-14784	-22720	17228	6039	23510	32767	-20608	-4188	-10828	3741	15453	3004	-28040	5676	-8088	10193	-18371	-6192	-8660	4800	13436	-1513	-440	-2267	-25028	6380	-8696	1091	8499	-2073	-18360	1112	-6388	-13070	13325	-1006	131	78	1
-32768	5220	5964	-1084	24499	25932	-15244	-7380	-12984	14795	9083	444	-26416	4000	-10556	7485	-19375	-7603	-9196	3676	14008	-1443	253	-2107	-18236	840	-4636	-3886	5033	-2796	-18920	-6088	-2512	-2884	14152	-763	115	68	1
-27416	-28264	13920	-10697	-12610	-12730	-11344	7664	-15196	1741	4460	-1122	-23040	2924	-7884	2128	-19730	-9037	-9216	2808	14552	-587	933	-1578	-15472	-3820	-3360	-3263	5177	-2388	-17352	-3032	-808	4991	13289	-2293	122	68	1
-7476	-27340	9020	5515	-24783	-15451	-10044	1840	-6152	-18604	-4445	-3390	-20532	2140	-7864	-5703	-19422	-9452	-9264	3344	14256	436	1872	-988	-18068	-2304	-3780	1389	4978	-999	-16352	2148	-1408	8026	14041	-3687	112	70	1
556	-8292	6132	6659	-24398	-15434	-8116	-8804	-8808	-14788	-11520	-8100	-17052	-1280	-9684	-7523	-17097	-10637	-9480	3852	13584	868	2334	-618	-18696	2496	-3536	3378	4296	60	-16524	2140	-2180	7859	14814	-5048	112	98	1
-3212	-3948	5892	-6587	-20134	-21314	-2724	-9196	-7772	14338	-14482	-10873	-15472	656	-10424	-4983	-14989	-12487	-9360	3844	13428	829	2135	-551	-15484	3536	-2844	128	3816	-752	-13848	2360	-1944	6605	15676	-3457	109	110	1
-9412	-13312	7516	-10168	-22314	-25121	-4176	-436	-12028	28602	-19253	-14045	-13960	1744	-10308	-2575	-15853	-10381	-9536	4204	12988	596	1692	-704	-15152	1500	-2944	1400	3722	-1249	-14396	1660	-1432	5317	16955	-1707	113	104	1
-10536	-9968	9548	-6445	-27301	-29180	-7308	4656	-11024	24651	-26034	-14167	-10824	1252	-10152	-975	-13265	-9402	-9368	4136	13056	246	1199	-921	-15540	772	-2356	5104	4780	-1145	-13944	3396	-144	4186	17566	-2042	124	108	1
-10852	-3908	9880	-9247	-28737	-32768	-8236	6648	-10072	13543	-31505	-13105	-9180	1368	-10952	-205	-10941	-7836	-12840	4484	13280	-262	878	-1143	-16524	3240	-1028	7067	4669	-696	-14968	5872	-100	-1038	16739	-3501	124	109	1
-13752	-3024	11064	-13741	-28043	-32768	-8064	2916	-11256	7935	-32768	-11833	-6748	2100	-10804	1811	-8356	-5945	-10184	4672	13184	-165	586	-1839	-15520	4416	-1472	3561	5530	-1385	-16392	7300	-2516	-1044	14335	-3238	135	113	1
-21120	-4380	12976	-14548	-28253	-32768	-7176	2044	-11312	7414	-32768	-13646	-4932	4188	-11636	2028	-5765	-4747	-11776	5152	13692	79	380	-2100	-15112	2844	-1276	-602	6539	-2442	-17280	3416	-3768	-2613	12077	-1222	134	106	1
-27384	-5504	14940	-11526	-30967	-32768	-9552	1224	-12492	8081	-32768	-16373	-5012	3276	-10516	6240	-4292	-4254	-5900	3216	13132	808	262	-3527	-16940	1284	-2312	-949	6985	-2022	-16852	-436	-1780	-3564	11233	-1637	125	113	1
-32768	-776	15476	-10450	-32404	-32768	-16340	-488	-11624	12157	-32768	-14630	-4876	2180	-7468	10987	-4218	-4322	-9320	3464	13704	927	866	-3671	-17128	484	-2324	2432	7383	-1336	-17008	268	-132	-59	11650	-1986	120	120	1
-32768	7352	13684	-12789	-31066	-32768	-23416	2172	-14048	15653	-32768	-11228	-6668	700	-2332	11260	-3298	-5954	-9460	4280	13536	119	1790	-3741	-16600	2588	-516	7165	8054	-1937	-15648	2976	2080	2292	11153	-363	121	119	1
-32768	17604	6624	-16119	-27450	-32748	-22540	4732	-15232	6141	-32768	-8106	-13248	-1644	2876	12366	-4864	-11175	-9536	3396	14112	-685	3217	-3545	-16056	4004	2772	5950	9756	-3500	-17884	-200	4396	3399	9709	1675	123	116	1
-32768	24172	-3160	-14039	-22732	-24950	-19280	3008	-12544	-7953	-29209	-5601	-30532	-3696	10136	4496	-11006	-15233	-11356	1656	14708	-113	6366	-3859	-18272	2868	3024	1367	12652	-5394	-21492	-232	4940	4647	7535	594	102	127	1
-32768	24504	-13968	-3849	-16306	-10819	-15696	3272	-16036	-10575	-17012	-3537	-26188	-2600	24044	-6999	-8074	-11006	-9304	2984	15724	797	11229	-3703	-20588	448	1288	1415	15000	-6693	-21124	6032	2392	8025	5433	101	40	126	1
-32768	32767	-22584	-4926	-9750	4273	-7032	5584	-11448	-10189	-4638	-2637	-9460	760	22888	-9917	8485	-1022	-9264	3064	15828	1854	17175	-3963	-20812	1312	736	3871	16294	-7136	-21760	4728	664	6789	2433	-547	64	128	1
-14268	6204	-7484	-7888	-648	4845	-6328	2172	-10184	-6243	10265	-2124	-14472	4292	15240	-10740	6215	7434	-7424	4112	16356	1564	24074	-4464	-21836	816	1220	6761	17580	-8139	-22032	2512	4920	6688	-3192	-683	108	128	1
10572	10608	3632	32767	8099	30401	-14160	-1280	-1788	-7852	17174	-920	-19600	11148	8012	-8262	20960	5636	-8304	4720	15908	1245	32767	-6894	-23840	568	2748	8195	19309	-9158	-23144	3300	8876	7833	-5765	-440	101	114	1
-1764	3472	31256	15858	24366	-5496	-32768	-2692	19908	8938	7433	8851	-9700	6588	-17464	-13000	15772	4778	-10192	6540	17612	1762	32767	-10747	-31504	1404	5172	9705	21449	-9559	-28992	6612	19752	6315	-18610	-199	121	114	1
-17076	24984	20656	11566	18709	26928	-17340	-7404	-8032	32767	11349	2751	-32768	-15052	14748	-2726	803	-10435	-13924	10632	19060	2971	32767	-17417	-32768	2020	11236	20305	20100	-8839	-25072	-5780	14384	3500	-20302	-2885	109	102	1
18348	-17848	11704	14164	-10384	7644	-15368	-2320	-6640	32767	22876	907	-16404	-23132	-10268	27675	13769	5488	-30496	4332	26048	7394	32767	-21947	-31984	12596	8152	31433	20365	-8764	-27304	5364	6020	8569	-20558	-3212	54	108	1
-8836	8744	13908	6252	-3434	5493	-28456	1308	-17276	30523	18148	5153	-19968	26868	-5400	20499	13575	5114	-32768	24452	26976	23080	32767	-21689	-26116	9388	-11408	21011	18476	-10666	-22824	9216	-5148	10445	-21863	1195	135	114	1
-10000	-164	14868	3564	-2315	2303	-7952	18704	-10056	6114	12224	-1504	-7772	14612	-11936	-6045	10227	8526	-32768	11556	32767	28023	32767	-22386	-21560	6424	-16080	4189	19649	-13571	-24016	7860	-11804	6775	-20595	4412	88	111	1
-10996	-6188	10528	1848	-889	660	-10724	-56	-7980	-30307	10539	664	-10956	-11084	-7256	-13235	6924	10113	16308	30724	8096	31828	16184	-23777	-25772	-1664	-10068	-4278	16183	-10078	-32288	4728	-10488	-11521	-28418	5064	120	128	1
-10568	-5188	11112	954	-211	1552	-19764	-13284	-7540	-24310	6782	811	-16140	-5840	-6444	1625	13185	-2729	-24072	32767	31036	-1611	-17446	-8415	-10476	-11676	-15048	859	7375	-7850	-26540	-2924	-5156	-14224	-30477	4869	145	95	1
-10976	-3980	11404	106	43	1173	-19832	-9936	-2924	-4319	4925	2954	-19832	4768	-3820	-6110	13484	995	10160	21392	14660	-25091	-25136	-8584	-10432	-2116	-4692	18962	-3903	-1639	-22796	2240	-4668	-2766	-26439	7619	150	167	1
-10752	-4088	11484	164	276	816	-15936	-5652	-3856	9296	5899	2428	-17908	-332	-4288	-10705	12336	5229	8608	-1236	13688	-9569	-22276	-1431	-6964	4948	-4064	11401	-12483	5554	-18436	4304	-7876	1560	-21479	8331	176	185	1
-10424	-4492	10876	264	291	552	-13964	588	-2684	9355	5948	2366	-12900	-6520	-3140	-5584	12757	5657	3060	8272	12956	11201	-22572	13293	-2164	-1512	-6628	-5755	-15447	8123	-17188	2144	-8988	-1785	-19839	5789	173	185	1
-10060	-4504	10592	189	378	558	-16188	236	-1800	-876	5601	2864	-16264	-3080	-2768	295	12491	5929	-2528	19488	11652	7473	-25963	21686	-3232	-5116	-6816	-10646	-20833	11335	-15264	-1140	-9616	-3861	-18431	3888	158	182	1
-10184	-5296	10648	152	656	1090	-16816	-2628	-688	-7059	4486	1194	-13536	-764	-2644	1474	13416	6751	-5028	14604	10572	-4579	-30828	24076	-3260	-3748	-5644	-7048	-26261	15551	-10248	-2028	-9456	-2819	-15929	3141	152	179	1
-10480	-4900	10888	-1	686	1555	-16744	-3044	-740	-7333	4460	1212	-15656	-1472	-1380	713	14028	4043	-6492	5880	11044	-3553	-32768	27553	-3700	-1688	-6464	-9195	-30541	18090	-6392	-2132	-10540	314	-10226	2108	126	152	1
-11288	-4028	10804	223	635	1746	-13988	-4312	-732	-3436	5746	2218	-16080	-2132	756	1987	16368	4279	-9672	7740	12948	38	-32768	30524	-5792	-2648	-8956	-15623	-32768	20067	-5532	-1708	-10880	3098	-5039	592	125	164	1
-10500	-3788	11288	21	740	1515	-16896	-2984	-312	3013	7129	1888	-15640	-1804	156	3112	15919	6184	-16244	8936	16800	-656	-32768	31643	-7384	-4824	-11336	-20704	-32768	21667	-5556	-1036	-12212	2790	900	48	131	150	1
-10552	-4076	10980	-288	1165	1631	-16076	-708	-1132	1329	7350	1840	-16948	-1616	-3392	1665	11064	5001	-23760	11532	20724	-551	-32768	31777	-11232	-5820	-14716	-22125	-32768	20420	-4988	-1668	-12332	-1507	4503	3	131	140	1
-10804	-4640	11044	-530	1688	2029	-14740	-572	-2312	-3372	7837	2115	-16304	1128	-2312	490	10608	2675	-32768	18972	21384	-3211	-32768	31798	-18184	-7004	-12292	-15623	-32768	18196	-4296	0	-13584	-9321	6605	292	132	147	1
-11596	-4272	11348	-981	2179	2330	-16560	-1428	-2872	-7697	7746	1761	-16436	1708	-1976	-4159	12019	2027	-32768	18612	16780	-7072	-32768	32767	-21584	-3520	-13736	-9806	-32768	19304	-6376	-2000	-10788	-17549	6161	1529	136	148	1
-10656	-6540	11516	-1624	2704	3334	-17304	-2680	-1044	-8421	7949	1866	-16528	-1200	-1652	-7565	12779	2709	-32768	7224	6880	-9224	-32768	32767	-24228	-4940	-13732	-16324	-32768	16090	-8640	704	-3320	-19015	-933	3476	144	127	1
-11496	-5172	10784	-1148	3504	4421	-16360	-4820	1592	-7149	9342	2247	-17748	-2636	584	-5418	10333	310	-32768	-2336	-2924	-5214	-32768	28332	-28468	416	-14020	-16062	-32768	10531	-24244	2004	11476	-26692	-11175	7973	133	129	1
-11504	-4156	11616	597	5456	4237	-14524	-884	1628	-6275	11752	3745	-17400	-3884	1264	-5561	7719	-271	-32768	-10648	-21492	-2366	-24085	14323	-16068	-4996	-15532	-6555	-22089	10988	-32768	4880	29012	-25653	-2805	13307	139	253	1
-11176	-4220	12572	1382	7635	5168	-16624	-2392	-64	-5527	13747	4630	-18576	-4156	-608	-7414	6145	2889	-32768	-20460	-32768	8468	-13898	4802	-3852	-2196	-10880	1245	-9844	6989	-15784	-6460	32767	-4977	13464	-4786	140	253	1
-11508	-4260	13660	1903	10818	5896	-18916	-2460	-1292	-2714	15974	4707	-18548	-4676	-3376	-5586	3554	4936	-32768	-16532	-32768	5199	-393	-6547	-4524	-76	-7112	7815	12632	-1706	-17712	-9548	19872	7164	-771	-9451	141	160	1
-11128	-4400	13932	3513	15112	7604	-19532	-1744	-3060	-1656	16642	6076	-19024	-2872	-3960	-2152	-33	4811	14172	8020	24068	-25629	20378	-6072	-9556	3872	-10348	13864	25635	-8638	-20648	1488	7980	11644	-1201	-3902	137	66	1
-10760	-6088	13924	4288	20271	10480	-19528	-1000	-4224	-804	17816	6390	-19632	-872	-520	-4878	-2348	5324	8556	14264	32767	-5844	12200	-3688	-32768	7580	28516	13095	13385	-3094	-1004	1544	-10592	31611	16239	2220	131	72	1
-12480	-7656	13608	6126	28083	14811	-23744	-2024	-840	-4644	18421	5528	-24808	-1912	3780	-5198	-6963	5291	172	-1840	-5488	-1545	32767	-2300	-9760	-9816	-5272	-21246	10484	1050	-11700	-15148	1084	12102	7988	4722	129	88	1
-11796	-7568	14772	4961	32767	23783	-29240	1704	2224	-7259	18176	4668	-27080	1456	16536	-4933	-18839	3619	-32768	-22492	32767	-1345	32767	-8848	-15428	-15008	-8704	-13276	16525	-10490	-32768	17592	-384	-4448	4972	11505	134	90	1
-16892	-12936	13408	712	32767	31072	-31488	3904	11228	-23413	18184	3535	-25004	11744	14532	-9125	-16165	5404	-32768	32767	2472	-14257	-1415	-6075	-32768	-3428	-22732	-7370	22028	-9193	-29628	-4300	-1720	-6818	8651	1783	127	214	1
-26604	-10836	13876	4032	32767	32767	-27392	-5032	8656	-32768	18117	3345	-24852	-3008	7372	-18605	-16980	4808	-22048	-16016	23984	-8803	755	-6479	-19452	-4868	-12264	-8034	20469	-2097	-13980	-4732	-15872	4011	11271	-7858	134	106	1
-32768	-17972	14608	-7665	32767	32767	-25788	-18916	-6792	-27478	20449	5559	-22816	-14876	-5724	-13956	-16129	-2551	-11096	2772	15160	-3674	-417	-3105	-15612	-2080	-6580	-14576	16206	-2489	-4752	16192	-9548	-4328	10529	-466	142	124	1
-32768	-20136	12084	-1570	27357	32767	-23872	-5784	-8116	-13726	17888	2829	-28464	-2664	-9712	2265	-18641	-7916	-10128	6628	12748	-2496	-465	-2473	-5308	-1108	-10988	1642	10437	-4369	-16912	7848	-10340	-17957	11354	-863	138	98	1
-3176	-27368	15360	-1986	17687	32767	-18148	-5492	-16004	1619	13485	-2313	-28828	8740	-7612	6950	-19621	-7108	-9328	5088	13776	-1937	625	-2371	-26684	548	-9072	1949	9871	-1512	-17788	-7696	-6684	-10934	12079	146	124	70	1
-32768	-19356	20068	-12256	3360	6973	-15036	4720	-30900	13479	9702	-949	-22172	7128	-9668	4185	-20120	-9271	-9680	4272	13924	-1360	1467	-2009	-19980	-2936	-4644	3813	4998	-1964	-20344	-8300	-2904	2917	12468	-896	117	62	1
-11112	-32564	11148	-6987	-20079	-19119	-10588	12140	-7408	-12615	3443	-6266	-22360	6080	-6924	-5378	-20526	-10691	-9552	3772	14120	47	2197	-1157	-14724	-1068	-3764	3243	5268	-543	-16864	-3504	-2104	11457	13110	-1311	112	76	1
704	-16016	7420	4486	-17622	-18830	-8268	-3780	-8320	-24260	-6732	-8856	-17848	332	-9916	-12302	-17706	-12090	-9672	4040	13468	791	2480	-690	-17532	2052	-4136	802	5500	-502	-16156	3596	-2728	14121	14466	-3993	111	71	1
488	-1416	6952	-2971	-12725	-23283	-4568	-10464	-6304	127	-12006	-12194	-15040	352	-10840	-9937	-15011	-13271	-9472	4712	13024	840	2432	-624	-18040	1888	-4244	-953	3695	334	-14708	4252	-2900	11248	15647	-4980	119	80	1
-6456	-8188	8788	-11801	-13840	-28343	-844	-2884	-10204	26202	-14885	-16143	-14216	2784	-10280	-7008	-14704	-12488	-9576	4932	12844	624	2282	-812	-15948	828	-3896	1572	2857	-474	-14108	2968	-2880	7224	16754	-3155	121	99	1
-9408	-7508	11776	-10725	-19368	-29592	-6556	4380	-9504	30860	-20441	-17259	-10492	2780	-9576	-5663	-13460	-10348	-9188	4700	12308	266	1662	-1229	-15540	364	-3724	8029	2046	-366	-15616	1156	-1808	4718	18439	-1423	120	116	1
-10188	-1828	12644	-13422	-23974	-32460	-8724	8900	-9812	20360	-27336	-17108	-8572	2000	-9040	-4355	-11188	-9410	-9720	4660	12684	291	1112	-1521	-15836	1564	-2256	10382	3067	-258	-12360	3276	764	2750	18840	-2752	125	108	1
-13244	-404	12504	-17932	-25912	-32768	-8852	7268	-9712	9539	-31553	-15956	-8732	1560	-9236	-3325	-9426	-7133	-9476	4688	12836	114	1194	-1481	-16656	2424	408	8531	3585	-186	-15540	6336	-1532	287	14962	-4647	132	98	1
-17652	612	13556	-20007	-26583	-32768	-8148	3904	-11004	2765	-32768	-15767	-6860	3620	-9344	-2823	-7436	-5029	-9760	4348	12620	159	476	-1460	-14256	3760	240	3267	4583	-1544	-17660	8484	-4316	-1586	12490	-3561	132	108	1
-21684	-216	14028	-19426	-27985	-32768	-8048	3680	-10044	-158	-32768	-17304	-5732	3176	-10664	-832	-5463	-4912	-9628	4220	12512	199	82	-1660	-15112	4352	428	-3814	6283	-2595	-17268	3384	-1624	-8424	9777	-2516	128	118	1
-24216	-2716	15340	-15424	-29497	-29607	-11732	988	-12712	636	-32768	-17846	-4588	856	-9824	3230	-5007	-5532	-9056	4752	12940	312	-46	-2388	-17276	1980	-596	-5865	7412	-2725	-17136	508	888	-8500	10143	-2656	123	119	1
-31232	-652	17652	-12682	-30209	-27703	-17036	488	-9904	4400	-32768	-17697	-5988	868	-5572	6563	-4522	-5201	-9652	4456	13088	848	334	-2957	-16620	-248	-1220	-1917	7760	-2594	-17888	-184	2492	-3223	11929	-2176	123	122	1
-32768	15680	17576	-19798	-28341	-31850	-21292	2540	-11388	7216	-32768	-15657	-8332	-464	-1228	7511	-3343	-6073	-9376	4252	13548	585	1425	-3124	-18020	1240	1216	3831	9313	-3025	-18076	304	3028	1317	11394	-1398	122	124	1
-32768	18788	10852	-25715	-25840	-32433	-20112	3172	-13472	4366	-32768	-10874	-11720	-4576	120	9630	-514	-10576	-9592	4140	13680	-162	3833	-2914	-16900	2264	3576	4320	10291	-4071	-17740	-1264	4104	2418	9474	221	122	124	1
-32768	22244	3780	-13007	-23182	-24021	-21312	2312	-10520	-6388	-28445	-5064	-26444	-7964	9352	7902	-6817	-14182	-9652	3812	14452	-379	6843	-2910	-16880	4196	2184	-88	13077	-6224	-19556	-728	4512	3472	7654	463	115	121	1
-32768	21188	-10536	5828	-18115	-11781	-18652	2132	-11232	-1938	-17055	-1548	-29996	-5248	19624	-2409	-4948	-13348	-10196	4204	14132	529	11095	-3163	-19612	968	-456	-1786	15185	-7536	-20240	4672	640	6514	6089	175	88	117	1
-32768	32767	-21284	5965	-10160	2067	-7868	6224	-7056	2949	-4278	-667	-12820	-4508	22676	-7643	11458	-1869	-9656	4720	14868	1284	16393	-4035	-20668	288	-576	2828	15675	-7619	-21072	5928	-1012	6524	3200	-575	80	120	1
-32768	31928	-17860	-9419	2058	134	-5380	3024	-9040	9275	10078	-1016	-12748	1372	17012	-489	4016	12593	-7940	4844	15064	462	22231	-5727	-21548	1788	1104	6662	16298	-7976	-20916	3716	2052	4165	-2504	-974	93	124	1
18356	-9648	728	32767	10770	23242	-16124	-492	856	2451	18663	1995	-23892	7132	3076	6986	8667	12602	-8548	4740	15260	169	29328	-8091	-21808	1520	1732	5620	18191	-9310	-20908	3748	5736	4515	-4198	-977	99	119	1
6636	-15308	32767	23906	17165	393	-32768	-4744	21148	-3702	8974	9266	-3132	6820	-19408	-5493	23394	6318	-11116	4808	16536	931	32767	-10349	-27780	808	2684	5697	19816	-10314	-25320	7052	10820	4043	-10510	-1888	76	118	1
-5932	25624	16288	18241	11155	27935	-21728	-14176	-1244	25371	8965	677	-24024	-3160	3136	-6483	5132	-6047	-12672	8732	17284	1967	32767	-15145	-32768	1268	4268	11313	19022	-10573	-29584	5560	15472	347	-22196	-1822	110	114	1
-32768	-5028	-908	15081	-3688	10648	-10244	2824	-12656	32767	19486	2480	-30936	-26672	1960	14742	9671	-8311	-13592	9308	17384	1768	32767	-16424	-32700	11424	10340	23395	18071	-10257	-24604	572	12368	-1322	-17694	-4333	107	105	1
-19296	15492	21756	10162	244	10470	-32768	18712	-13752	20302	16395	4937	-21876	20908	-6640	21135	9540	5606	-32768	16440	22992	11417	32767	-22304	-27976	12832	-3128	16578	19198	-11608	-25120	8348	-348	3879	-20066	344	122	99	1
-14464	-5416	12172	3699	-180	2824	-14268	15008	-9436	-5077	12658	-1117	-12056	28304	-5688	-10781	16052	7976	-32768	12676	27760	10581	32767	-28066	-21492	8972	-15496	3501	18344	-12865	-24120	11880	-7840	6156	-19134	4004	104	121	1
-10908	-4632	11296	488	1199	-128	-12572	80	-7792	-27768	9692	-122	-9400	-5184	-13720	-24344	7131	10481	-10824	12920	27128	22645	29380	-17405	-23652	1120	-11812	-5551	17251	-13328	-26700	7424	-11176	-3243	-20185	6779	111	105	1
-10000	-5276	10992	674	443	687	-17112	-18820	-6892	-18909	8335	1336	-13000	-20752	-8364	-8331	10929	731	-32768	32767	32767	17095	9286	-17982	-17864	-13412	-21204	-11027	10786	-8403	-26836	748	-9224	-19726	-28573	4657	130	95	1
-10620	-5364	11152	183	25	956	-15820	-12356	-4820	8687	6059	4164	-19328	3024	-6212	176	14953	-362	-11672	32767	21968	-15099	-18719	-3096	-10788	-6368	-10452	6630	1933	-7765	-25700	640	-3940	-15031	-28158	6514	147	129	1
-10636	-4132	11868	80	101	695	-17204	40	-4288	12814	6417	1807	-17740	256	-5244	-7640	13393	4656	5428	11480	12444	-24764	-22816	-3334	-10772	-160	-5708	18551	-6940	-1104	-21284	4392	-6072	-4449	-23734	8058	168	175	1
-10192	-4096	11560	-485	461	280	-17456	5372	-2728	-3921	5199	3291	-15104	-4856	-4304	-6844	11944	6586	5684	476	11380	-4081	-21486	5435	-5368	4764	-7308	6156	-13807	4675	-19024	5252	-8776	-3571	-18800	7641	152	173	1
-10312	-4396	11112	-894	772	178	-16352	564	-2648	-20065	4055	2201	-13988	-2964	-2344	-5274	12182	6246	980	13260	10400	6675	-21738	13302	-3020	68	-7232	-8961	-16392	6525	-17552	844	-9188	-6822	-18459	4969	149	168	1
-10432	-4916	10744	-1046	930	389	-14632	-9268	-1164	-17935	3151	1584	-13828	-896	-1768	-3613	13510	7147	-6512	17456	12000	318	-25601	16869	-4800	-3016	-7808	-11677	-22562	10499	-14776	-1004	-8612	-8138	-17977	4486	139	163	1
-10276	-5420	10380	-682	323	1030	-14308	-10600	-748	-15988	3468	1415	-13516	-3348	-944	-3417	15051	4579	-10092	12872	12656	-3880	-32768	22293	-4096	-4112	-7816	-9190	-27156	14630	-9532	-1388	-9344	-5711	-14812	4591	129	156	1
-10288	-5880	10316	345	-701	1901	-14184	-4632	28	1315	5371	3705	-15448	-5884	-324	-258	16605	4121	-10828	10260	11912	-3284	-32768	25550	-6052	-3044	-7652	-6648	-30978	16840	-7416	-2768	-9424	-2737	-10444	2919	140	150	1
-10048	-5504	10916	1093	-1169	2886	-15716	-1736	928	287	6450	2663	-16056	-4608	-1112	1576	13798	4910	-13388	8288	13208	-1437	-32768	26883	-6556	-3568	-8100	-10321	-32768	20255	-6800	-3216	-10128	-583	-5506	1622	119	153	1
-10880	-4960	11220	1276	-805	2908	-15216	-1696	624	-1400	7433	2784	-17328	-3040	-4104	4166	8973	5456	-17708	8208	15888	1118	-32768	27602	-8148	-4196	-9220	-15009	-32768	22795	-6776	-4328	-11664	1995	-1163	973	125	154	1
-9752	-3776	11684	849	566	2942	-16264	-2944	-2096	91	8174	3094	-17456	-2776	-3788	4353	8813	5467	-24056	12508	18688	3238	-32768	28299	-12776	-4500	-13404	-19449	-32768	23673	-5756	-4252	-11508	2554	2253	1150	126	164	1
-10600	-3688	11864	80	1993	2530	-17884	-1768	-2256	2032	8625	3266	-16564	2072	-1572	335	11830	4972	-32768	14564	19240	3414	-32768	31476	-18876	-11020	-15732	-18176	-32768	22132	-5356	-2468	-11184	-1964	4041	1233	127	170	1
-10988	-4788	12140	-387	2747	2874	-16264	-680	304	-503	9011	3047	-16812	1032	-1088	-326	11629	4510	-32768	11788	15496	6809	-32768	32767	-22164	-4596	-13388	-6696	-32768	22828	-6132	-996	-6348	-9006	2554	1764	122	178	1
-10748	-3828	11792	-1221	3902	3927	-15896	-2572	888	-2483	10088	2831	-17576	-708	212	-1888	10099	2669	-32768	6120	9664	1051	-32768	32767	-24524	-4744	-14364	-12834	-32768	19363	-10828	2032	-2852	-13720	-4218	6047	113	150	1
-11328	-4528	11424	-781	5002	5168	-16060	-3640	620	-3596	11815	3004	-17840	332	2208	-2460	8321	171	-32768	-10232	-916	-1296	-32267	27556	-23004	-9156	-16112	-3636	-32768	14794	-12980	2620	-1704	-15335	-5299	7564	123	197	1
-10676	-2600	13552	960	7842	4331	-15920	56	532	-5237	13742	4410	-18460	-3420	488	-5967	6878	787	-32768	-13188	-17612	-1017	-27358	13449	-16548	-3484	-10912	-389	-19428	12534	-26952	6648	32767	-14206	-2638	10571	134	254	1
-10840	-3492	13456	891	8299	4313	-19144	-1648	-1740	-9032	15555	5381	-19108	-3036	-2868	-8487	4509	3236	-32768	-24732	-32768	5938	-15931	3308	-6076	-716	-8664	3547	-8024	6173	-12204	-4844	32767	1884	13492	1477	135	253	1
-11964	-3692	14172	2190	14403	6253	-19240	-3544	-4352	-5425	16587	4933	-18696	-2476	-3480	-5730	1431	5057	-32768	-17444	-32768	4565	2319	-3896	-3724	-1000	-6976	-1588	13117	-2867	-20252	-5036	17204	11577	686	-9791	131	154	1
-11136	-5564	13792	3856	18890	9032	-19812	-1456	-3260	-3390	17613	6526	-18848	-2236	-2796	-4480	-1688	3827	25192	20108	25576	-19442	25812	-7018	-14844	1172	-836	10835	24725	-10527	-18276	5252	20716	13120	-6187	-5756	133	106	1
-10860	-6024	14436	6006	25476	13556	-20228	-3100	-2112	-2602	18953	6360	-21768	-3084	1364	-5377	-6263	5318	7744	6248	8740	-2609	20535	-4927	-32768	9952	20516	12029	8403	847	-6136	-3260	-16244	24125	20241	-276	133	84	1
-11184	-7532	15428	6987	32767	18868	-26680	-1764	984	-3840	19496	6195	-26608	-6520	10248	-2938	-15504	5216	-15848	2012	4456	-4514	32767	-9247	-5156	-8000	-7388	-14101	11762	852	-19068	-6964	10668	-6300	3927	1472	137	62	1
-13028	-10580	14916	4222	32767	28816	-32768	2448	10436	-11344	19960	5681	-24540	5012	15756	-2170	-17758	5742	-32768	-3272	31432	-4930	21596	-9354	-19456	-4356	-9196	-9836	17178	-11542	-31568	24624	-604	-11551	6300	7588	138	99	1
-17532	-15260	10124	5552	32767	32767	-27976	300	11608	-29812	19422	4199	-25692	8508	11964	-7547	-15608	7448	-12940	21400	7700	-13762	2823	-10631	-32768	1256	-9960	-12338	21053	-5792	-28072	-16164	-5540	-5629	11247	-2357	136	159	1
-32768	1940	17776	2547	32767	32767	-26244	-19684	996	-32532	20050	6270	-23696	-12708	-1032	-15578	-16390	1918	-15528	-1220	17688	-7659	790	-5311	-14556	-6428	-10136	-12672	18120	-3173	-8632	-3624	-9272	9724	10284	-210	144	71	1
-32768	-25320	17000	2328	32767	32767	-25408	-11156	-11872	-17260	18936	8167	-23328	-13780	-11904	-1489	-17415	-7083	-10440	2852	15340	-4782	-108	-3756	-13812	-4336	-9200	-3734	14266	-4473	-8436	14980	-11796	1366	10287	-2760	161	154	1
-16476	-23376	19156	4099	24669	32767	-22004	-5092	-7488	-6037	15417	2165	-28572	5764	-7128	8948	-19895	-5758	-9656	5592	13628	-3811	-521	-2670	-12324	2088	-10044	5431	8124	-5172	-15032	7208	-8924	-10924	11148	377	148	125	1
-32768	2888	8344	927	21452	19361	-15120	-7712	-18468	14675	8117	394	-25820	5092	-10040	10018	-21128	-7618	-9092	5060	13784	-3226	-73	-2720	-24588	2504	-8368	-249	9434	-737	-17452	-4612	-6628	-4160	13115	514	130	78	1
-20420	-31312	16884	-7264	-16954	-16573	-11528	10952	-11440	718	5115	-2018	-24688	4944	-7112	3839	-22374	-9587	-9768	4500	14048	-2395	149	-2342	-17500	-2564	-4428	1312	6089	-2719	-19372	-3392	-3640	4406	13050	-927	136	58	1
-2424	-23032	10836	6656	-23542	-18461	-10756	2344	-5988	-19569	-5365	-3270	-20768	1480	-8820	-7915	-20449	-9166	-9152	3932	14028	-1183	864	-1685	-16340	-2528	-3640	2732	6335	-1420	-15572	-320	-1264	9047	14003	-2048	127	53	1
1344	-4428	7480	3641	-22124	-20270	-7836	-8800	-8396	-10416	-12150	-7128	-16320	-712	-10744	-7644	-18144	-11290	-9336	3992	13616	-462	1336	-1152	-17304	1744	-3392	953	5150	-1174	-16544	2364	-2364	8640	14573	-4862	119	56	1
-4640	-5808	7940	-8785	-21333	-26198	-356	-6324	-8816	20531	-16064	-11107	-16016	2536	-10816	-4644	-16189	-10974	-9208	4616	13236	-303	1330	-918	-16448	3192	-3248	-3017	4926	-682	-13980	3232	-3312	6129	15630	-4717	126	86	1
-7596	-10912	9580	-8363	-25572	-26883	-4320	2184	-10276	30818	-21153	-14810	-12476	3624	-10272	-3439	-16581	-8133	-9120	4700	13236	-370	1314	-927	-15828	2008	-1828	-3563	4147	-1447	-15064	2812	-2804	1508	16118	-2451	124	84	1
-8128	-3908	11788	-7936	-28390	-29497	-7224	6668	-10812	25340	-28638	-14427	-8756	2748	-10980	-3881	-13303	-7702	-9116	4828	12752	-717	684	-1485	-15872	608	-2724	716	3820	-1507	-14764	3220	-1680	-284	16809	-2637	132	83	1
-10588	-1920	12780	-13606	-29631	-32768	-8296	7528	-10720	14486	-32768	-11847	-8220	932	-11276	-3424	-10268	-6552	-9124	4116	13312	-543	632	-1642	-16296	1912	-1264	3386	4569	-946	-15088	4172	932	-3504	16270	-3222	136	99	1
-15044	-3788	14372	-14980	-29957	-32768	-8488	4672	-11524	7135	-32768	-10058	-6716	2088	-11224	-879	-7577	-4582	-9132	3916	13460	-341	1096	-1636	-17136	3396	-196	1551	5407	-1220	-16092	4560	2088	-5802	17313	-3768	136	112	1
-20500	-3800	15440	-12686	-30079	-32768	-8280	3428	-10876	3072	-32768	-12210	-4060	4056	-12812	240	-4578	-3429	-9820	4064	13256	-214	1062	-1637	-16956	3724	-440	1065	5561	-1246	-17616	4716	-1408	-3113	14533	-2430	132	124	1
-28200	-6508	17784	-9080	-31015	-32768	-10508	-280	-13632	5050	-32768	-13074	-4148	2224	-12036	5902	-2776	-3930	-5744	4004	13164	-155	1005	-2555	-15220	1904	544	-2458	7925	-2412	-17724	620	-1048	-3911	11933	-857	131	117	1
-32768	-2676	18400	-6870	-32768	-32768	-15836	-2028	-11684	13251	-32768	-11408	-4280	312	-7972	12402	-1024	-3814	-8692	4456	13640	-204	1068	-2588	-15992	1236	-1492	-159	8720	-2241	-18108	16	1056	-1457	10101	-1051	128	107	1
-32768	4128	13420	-10759	-32768	-32768	-22904	1108	-12156	19706	-32768	-8766	-5044	-996	-3884	14093	-492	-4585	-9132	4904	13548	1097	1394	-3874	-17700	1368	-2232	3835	9937	-2196	-15852	1316	1188	2760	11282	49	133	114	1
-32768	6900	4688	-9871	-31093	-32768	-23716	788	-13228	11977	-32768	-5094	-10136	-2376	-392	17951	-2578	-9392	-9344	3732	13920	258	3037	-4086	-16824	2660	-348	6856	10323	-2268	-16020	392	1384	5498	10942	1673	138	121	1
-32768	14992	-972	770	-21372	-31945	-24388	920	-19916	12025	-32768	-1168	-31452	-10080	20056	18816	-27002	-17451	-8688	2528	14852	-229	5509	-4189	-16388	1728	1748	7954	12249	-4487	-18076	1672	1992	6749	8465	1826	94	114	1
-32768	21328	-19464	3982	-13767	-24805	-14472	4036	-12572	8066	-20089	3680	-27660	860	15984	6032	226	-12831	-9176	3036	15524	272	9105	-4112	-18316	2520	1412	5708	14323	-5881	-20336	3756	1604	7894	6252	853	3	115	1
-32768	32767	-27968	-1752	-12422	954	-964	7152	-10568	1962	-5675	-1753	-8848	1616	25904	4436	9622	6526	-9820	3220	15248	1732	13952	-4601	-20056	1392	-684	3165	16061	-6635	-19860	4272	-708	7833	3756	-462	33	117	1
-32768	32767	-27044	-5467	-10838	2352	-3512	3928	-8708	-7055	10214	-5337	-14988	7444	21964	-1794	1927	12733	-8816	2836	16848	1533	19885	-4429	-21052	348	-1100	5112	16484	-7462	-20736	4788	432	6328	192	-766	114	119	1
26352	5668	-7804	28694	11170	32767	-18440	-3588	-8124	-15837	19671	-224	-23228	9152	2944	-3619	6024	9028	-7872	4888	15644	1456	27334	-5549	-22620	1268	-228	6856	17290	-8725	-22112	4360	3732	8292	-1563	-295	125	121	1
-18252	-6528	32767	13288	20780	4559	-32768	-9064	21276	-1429	9946	5492	-21900	4280	4624	-16820	12194	325	-9808	6328	16332	117	32767	-9423	-27224	3776	3048	8688	18739	-9182	-26328	7376	7792	7047	-5954	-1802	117	120	1
-13248	-6628	25116	12985	23009	2501	-32768	-9400	13980	6901	9447	2905	-15308	1044	2992	-10196	3142	-4128	-12212	8124	18260	-400	32767	-15576	-32768	2088	5008	9305	19758	-9501	-32172	9388	21124	5112	-22104	111	123	120	1
-32768	-15228	16052	8760	4354	12222	-12656	11740	-12192	27472	22279	5081	-26308	-20624	-2528	11291	12388	-5800	-15732	11040	18916	1651	32767	-23066	-32768	5204	12624	20926	18329	-8662	-25780	-5356	14288	-190	-20276	-2521	120	109	1
-11816	-660	16572	9713	3687	10250	-26280	920	-14608	10497	19487	1395	-16840	11968	-20108	11376	8198	2299	-29748	8880	19268	11106	32767	-23939	-28032	9808	2508	25603	20564	-8358	-25120	1712	4484	6004	-21672	-1495	142	97	1
-11132	-4812	11224	5683	-1761	4932	-11832	4116	-12376	9406	16969	-233	-10328	18084	-7884	-2757	12660	5710	-32768	16384	31204	20731	32767	-27586	-24032	11192	-9324	24432	18201	-10184	-21048	7620	-5640	9226	-21325	3133	150	101	1
-9068	-2848	13108	4248	-679	3668	-14124	984	-7488	-3960	11862	-1355	-10376	-8384	-9916	-11360	9167	7466	-27040	18960	32767	27776	31887	-24108	-21660	1588	-14060	5217	18725	-10598	-25132	7340	-11120	4706	-20188	6888	138	99	1
-10452	-5396	11424	2533	-602	2630	-14984	-176	-7884	-5718	11369	-1296	-14856	-13656	-8276	5245	13159	1431	-32768	14908	14900	17758	17891	-23197	-22080	-5504	-10748	401	12989	-2380	-29988	-1304	-7648	-12044	-28898	5329	154	103	1
-10368	-5532	11164	1553	-259	2252	-17428	-6236	-4696	-4226	7434	3766	-19844	3368	-3244	8656	13143	866	-14300	32767	25672	-7905	-18295	4785	-10376	-9244	-9392	7618	6138	-5321	-26048	-3532	-3956	-9966	-27306	6622	152	107	1
-9900	-4064	12404	1038	11	2048	-18896	-2348	-3544	1418	7572	463	-17828	6276	-1624	-3268	13220	3970	9492	15076	14656	-20279	-21947	2599	-10724	-488	-2912	19724	-3893	2873	-22268	372	-5904	1145	-24861	8291	158	151	1
-9704	-3956	11768	669	442	1908	-16612	-700	-2836	2282	7077	1133	-15160	-1188	-2688	-8700	13104	6170	6520	-2552	15312	-186	-21259	10422	-4440	5316	-4056	2446	-10079	10940	-18448	1520	-7328	4988	-20731	8426	152	171	1
-10188	-4124	11548	472	875	1558	-15844	-500	-2760	-2301	6262	2151	-15044	-4064	-3472	-6646	13710	4853	1356	10544	14016	12632	-23485	17368	-4308	-2640	-5988	-12060	-13296	13902	-17792	-1396	-8436	4484	-19245	5646	146	149	1
-10832	-4784	11344	206	1119	1665	-16188	-4648	-2812	-2928	5739	1601	-14968	-1956	-3484	-2344	15061	6190	-5192	14404	14692	3342	-28575	18149	-5536	-5864	-6720	-14171	-19276	18557	-15988	-1016	-9400	1441	-18516	4159	146	136	1
-10240	-4596	11368	387	865	1667	-15696	-2772	-2204	-2006	5243	1583	-13172	-540	-2816	-1445	16632	5592	-7108	5136	15144	1673	-32768	23073	-5256	-6696	-6644	-9950	-25240	21536	-10000	-1636	-9960	3445	-14287	4109	136	137	1
-10008	-4592	11392	628	672	2268	-15704	-2332	-2116	-2394	5107	1676	-15044	-2024	-864	-539	18564	5214	-8308	3044	15168	6223	-32768	28030	-6892	-6488	-6840	-7744	-30586	22201	-6888	-1724	-10244	4611	-9343	2578	137	135	1
-9980	-4148	11004	946	169	2543	-15364	-2592	488	-3429	5506	1247	-15392	-3636	164	2730	19860	6484	-12720	3156	18024	6408	-32768	29214	-7864	-5596	-7192	-8377	-32768	23001	-5620	-1476	-10576	5122	-4763	507	135	119	1
-9336	-4184	10852	1627	-102	3119	-14980	-3148	2080	128	6547	1105	-15664	-4436	-2304	1415	14694	5427	-19480	1800	22480	7324	-32768	29611	-9468	-5920	-10264	-12483	-32768	22885	-4716	-1508	-10516	-167	-970	59	126	124	1
-10500	-3904	11104	1613	19	3060	-14844	-2816	144	4178	8015	1577	-17640	-1772	-2756	5288	10656	3935	-29028	8228	23944	6624	-32768	28561	-15156	-6304	-11260	-12735	-32768	22340	-4624	-1172	-11800	-3456	982	1087	127	144	1
-11624	-4196	11460	1173	1238	2917	-15804	-352	-1060	3133	9060	2072	-16888	784	-288	5153	12145	3013	-32768	10276	22684	1375	-32768	29048	-17384	-5268	-11820	-8540	-32768	20859	-4788	-572	-10824	-7409	1663	2445	137	164	1
-9996	-4624	11660	1206	1946	3715	-17492	-448	-1028	-1228	9183	1496	-15948	148	-768	455	13974	4862	-32768	6928	18356	-1457	-32768	29388	-21272	-3188	-10544	-10769	-32768	19542	-7344	2416	-4944	-12315	-263	3540	132	164	1
-10516	-3372	12248	987	3096	4327	-16624	-2232	472	-3874	9842	1417	-18120	-1516	416	-1719	12982	5233	-32768	1272	10620	-623	-32768	26949	-28456	-6596	-12352	-13145	-32768	15972	-14328	2724	-76	-15816	-4005	7530	129	119	1
-10408	-3708	11928	829	3384	4450	-15640	-3396	2096	-3771	11554	2221	-17196	444	3400	-1767	10900	1318	-32768	-5292	-580	1278	-32572	22051	-23088	-4540	-13924	-11600	-32768	11580	-27756	-568	19368	-24269	-14074	8944	126	134	1
-9120	-1612	15416	1907	6861	5331	-16420	-1280	1128	-3604	14102	2828	-19592	2900	1820	-4492	9218	-359	-32768	-19364	-18240	5843	-23610	12302	-13184	-5136	-13140	-2919	-19089	9742	-22804	1156	31740	-9204	7307	8980	130	253	1
-11892	-3092	13740	1984	10561	5625	-19044	2264	-200	-8078	16072	4346	-19060	-2204	-2056	-8900	6115	2130	-32768	-22856	-29240	7448	-10840	1591	-7432	-4676	-7972	8366	-6829	5083	-13528	-10296	32724	1122	6631	-5532	132	245	1
-11532	-3024	14844	2969	14630	6268	-18636	-3912	-2160	-6682	17795	4610	-19324	-5300	-4224	-6097	2232	3984	-32768	-19256	-29920	1089	-40	-9223	-3484	284	-9388	10624	13339	-4431	-20632	-3952	16572	11253	-2232	-9241	130	140	1
-11120	-5168	14836	4326	19203	8929	-20776	-2724	-1580	-3046	19157	5448	-20316	-3772	-1220	-3444	-1734	4292	-11860	4640	18016	-7896	14604	-15816	-18564	7024	2904	13683	22128	-7165	-11328	976	16752	15044	-3153	-6497	131	104	1
-11560	-6112	15180	5945	25427	13237	-22220	-2656	-76	-2750	20590	5628	-22892	-3760	3236	-3107	-7020	4530	8348	10908	-804	-3962	18820	-11986	-32768	8720	14124	4112	9127	1923	-14148	-12400	-16692	26300	17163	-3134	139	92	1
-12664	-8288	16244	8159	32767	21052	-29020	-2136	1476	-4822	21410	5242	-28292	-6244	13704	-1346	-18879	3436	-23576	-592	25220	-5060	32767	-8709	-4636	-5600	1976	-10051	14139	-3207	-26236	1516	11012	1895	7559	8004	147	87	1
-13988	-13120	18296	4782	32767	31466	-32768	1712	11764	-15081	21005	5094	-25900	6976	13560	-909	-16526	4536	-32768	17028	32767	-7901	13776	-11510	-29928	-9336	-17868	-7700	20704	-11541	-22616	10900	632	-6688	959	5740	132	149	1
-13932	-13520	17480	4372	32767	32767	-28604	-1536	11576	-28987	20020	4468	-27616	3268	10012	-10024	-16523	6037	-4928	-468	19860	-10994	4783	-10756	-26536	-4132	-7952	1965	13114	-2217	-24176	-10312	-16096	11110	12615	-3011	133	137	1
-32768	-15704	16584	-567	32767	32444	-25284	-17544	-6572	-23517	21142	7734	-21784	-15380	-6016	-14260	-14827	-266	-10044	15948	9996	-4132	2807	-3636	-13504	1356	-8904	-571	17183	-5810	-8236	6864	-8752	7852	8277	-3185	147	132	1
-32768	-19244	15200	52	32767	32767	-24628	-9116	-10720	-18002	17028	6363	-26760	-10028	-9196	1966	-18613	-7909	-11272	1992	15228	-4615	1215	-3832	-9272	3452	-11452	-3504	13607	-5192	-11416	17060	-10088	-6032	11081	-3139	147	168	1
-32768	-22288	14340	10031	28695	32767	-20000	-10836	-9924	890	13148	3060	-27988	3092	-7676	8631	-18391	-6237	-10364	4812	13696	-4350	1078	-3471	-14596	5636	-9264	-7833	9296	-3776	-17036	3528	-7428	-13277	11640	-2628	133	93	1
-32768	-10096	22228	4160	11793	9038	-13680	-2036	-31392	27355	10844	5119	-22968	720	-10592	9881	-19192	-10063	-10020	4932	13844	-3529	1275	-2537	-24096	-4036	-7300	-4117	7092	-4333	-18764	-5636	-3452	-2285	12694	-761	122	77	1
-15352	-28136	14348	814	-13535	-22978	-13072	11792	-10420	5118	6113	632	-24696	2068	-7720	4771	-20997	-10732	-9564	3740	14300	-2073	1562	-2229	-16700	-4892	-3556	8044	4353	-2648	-17532	-3916	-88	5753	12737	-2541	126	77	1
-5872	-17844	8780	12288	-16865	-22232	-10456	-2240	-8888	-11563	-6286	-150	-19636	-440	-10024	-1429	-19186	-9839	-9524	4152	13804	-718	1890	-1511	-16288	-452	-2540	11641	5052	-2463	-15916	-408	-356	10891	13609	-3739	113	86	1
-2452	-3176	7412	8494	-18350	-22646	-5824	-8352	-9800	1291	-11493	-4285	-18788	-796	-10696	-189	-16876	-11874	-9644	4356	13272	-330	1777	-1230	-17588	6060	-2288	5381	5296	-1642	-15816	1632	-932	11568	14503	-4952	115	93	1
-5796	-4668	8192	-3139	-21152	-26892	-1636	-4616	-10520	24577	-15840	-7399	-17192	1852	-11036	2199	-18325	-11240	-9244	5028	12896	-482	1367	-1291	-15788	6788	-2004	-6779	5760	-2009	-13548	4048	-2176	10344	16322	-4059	114	107	1
-7456	-9032	8864	-3952	-26093	-25983	-5544	3008	-9204	30696	-21017	-9700	-13048	3652	-10136	3188	-17247	-8511	-8996	5236	12604	-1070	784	-1908	-14764	936	-2816	-7108	5598	-3271	-13972	4828	-1360	3935	16180	-2302	120	100	1
-8252	-4624	9968	-3966	-29441	-26124	-6136	5608	-10256	24495	-28399	-10091	-9708	3728	-10284	2033	-15177	-7087	-9240	4564	12812	-1394	212	-2223	-15200	-812	-3152	2412	4423	-2606	-13868	4736	164	887	16949	-3015	125	69	1
-10340	-2656	10636	-8911	-31587	-30094	-5264	6592	-10664	14317	-32768	-8589	-7696	3344	-10948	749	-12073	-5304	-9476	4584	13044	-1079	62	-2288	-16352	-80	-1836	8276	5754	-1981	-14640	4612	652	-1095	16664	-5234	127	76	1
-13204	-4156	11812	-11620	-32689	-32768	-6020	4756	-10020	5220	-32768	-7416	-4844	4072	-11424	-799	-8838	-3037	-9140	4204	13184	-995	185	-2513	-17508	3964	-1292	7350	5730	-1944	-17076	5840	-2516	777	15200	-6885	134	118	1
-17164	-5072	13600	-10369	-32768	-32768	-6460	3744	-11352	1527	-32768	-9286	-3280	4668	-12068	-1275	-4374	-2158	-7616	4228	13348	-235	318	-3102	-15940	4516	-624	-1348	6605	-3113	-17520	4564	-5072	-2508	13513	-3982	132	133	1
-21612	-2988	17108	-11247	-32768	-32768	-8996	692	-13848	2472	-32768	-10921	-3648	2924	-12884	565	-130	-1362	-8960	3776	13568	920	241	-3443	-16196	1852	-2200	-6366	7566	-3489	-16148	-844	-1596	-4940	12140	-2615	129	127	1
-32768	-10028	19284	-10435	-32768	-32554	-14596	-1456	-12784	5717	-32768	-11328	-4012	2312	-11384	7110	2507	-1489	-13464	7276	13800	-190	1264	-4553	-16664	768	-3752	-2337	7403	-2302	-15968	-2228	552	-2273	12676	-2068	119	118	1
-32768	1676	18152	-11533	-32768	-32618	-23296	-1828	-11700	11604	-32768	-11446	-5736	2564	-4648	9265	787	-2785	-9572	3676	13392	-38	2177	-4908	-17352	-1428	-3124	6159	7756	-2473	-17036	1240	-184	2399	13460	-1205	118	114	1
-32768	11604	6992	-19996	-32768	-32768	-25220	184	-13016	12457	-32768	-6949	-8388	-2488	-1656	9391	-1456	-6155	-9356	2808	13816	-633	4563	-4456	-18052	1580	944	10887	8745	-3110	-17852	2992	1540	4862	11538	290	121	115	1
-32768	23492	3084	-17503	-27736	-30047	-26412	3316	-24464	7450	-32768	-2631	-31732	-11696	19848	13227	-30323	-16712	-9860	2880	14608	-144	7151	-4547	-17224	4056	3136	7163	11225	-5432	-19072	1900	4948	4460	9404	-399	109	112	1
-32768	26264	1036	-16295	-24590	-29265	-15872	1564	-9452	-17102	-23390	3178	-32768	64	18256	2951	-5107	-23663	-9896	2580	14932	499	11337	-3991	-18852	4260	2576	666	13447	-7823	-21556	4936	3088	5442	7581	-1675	0	114	1
-32768	27056	-32768	1390	-19842	11618	-1944	9344	-12948	-20842	-8131	-1905	-13400	756	29324	-11867	14441	-2024	-9548	3744	15884	655	16488	-4089	-19940	1164	1928	182	15802	-8923	-21448	5980	3172	7841	3881	-2578	28	116	1
-14460	21004	-13876	-18176	-6536	8244	88	-3496	-8956	-13590	10328	-6760	-13012	10876	23124	-18028	5470	10769	-8084	4144	15436	682	23139	-4521	-20796	1088	2408	5627	17193	-9643	-22384	3476	5632	4668	-815	-1541	89	120	1
14264	2276	7792	31832	5197	32767	-17960	-2184	860	-4817	20533	1002	-24208	5904	7072	-14411	9560	17119	-8444	4948	15580	317	31599	-7418	-23796	2808	2868	8536	19268	-11150	-23800	3696	8528	6187	-5502	-1562	133	135	1
-6188	-6740	22708	12869	26920	-5117	-32768	-4196	16720	15653	9332	6992	-1336	-2900	-21292	-13228	17748	6788	-11228	7404	17716	1268	32767	-11271	-31608	3520	5848	9361	21160	-11681	-27276	8076	13356	7721	-12957	-2189	109	119	1
-26912	15712	23880	12618	27634	24706	-17068	-848	924	32767	16208	-493	-30420	-8232	9112	5529	816	-10541	-12712	8180	17516	3073	32767	-19642	-32768	2864	4380	15564	20776	-10662	-29164	4672	14628	3890	-22739	-1226	126	97	1
-32768	-18060	-1576	12394	-475	13510	-18764	1160	-15628	13220	26978	1550	-23564	-13788	-6832	20324	10743	1827	-28776	5616	26276	7163	32767	-23630	-32676	13364	7024	24883	20563	-10281	-27620	4216	5936	3851	-18187	-3700	72	87	1
-16200	14848	18840	8857	2485	10418	-24288	-7568	-20536	24614	19065	4118	-15728	17028	-10996	13807	7857	1577	-32768	19536	32728	15215	32767	-29087	-24828	11436	-11500	17181	19000	-12859	-24236	13032	-6620	8459	-20129	1878	147	105	1
-14284	-5384	12144	5537	-846	4154	-10712	11008	-11264	15625	15854	-2498	-6600	10300	-11940	-10097	9675	7422	-32768	22244	32767	20313	32767	-28094	-22980	6252	-17332	536	17998	-13231	-25292	13504	-15104	2344	-17607	6173	120	105	1
-12876	-6968	9476	2917	505	2085	-11452	2552	-9468	-22782	11109	-276	-11448	-14020	-9336	-9513	6895	6702	8752	29472	7612	24295	20115	-23750	-23196	-2352	-9640	-1519	13627	-11305	-29644	2656	-10748	-17079	-23469	6180	145	101	1
-10060	-4720	11356	1850	-509	2011	-13816	-9352	-7728	-26287	9326	882	-15204	-6024	-8268	5416	12286	-2132	-24744	32767	29212	-3860	-9513	846	-11840	-6216	-18152	-3701	7456	-11158	-25516	-1980	-5696	-23846	-29102	6528	150	87	1
-10756	-3800	11568	1202	-570	2101	-23208	-10524	-4600	-10167	6503	2747	-20632	8480	-3976	-2318	13827	1127	8412	22232	14424	-27925	-17490	-322	-13872	-664	-4576	13353	-4147	-4216	-24756	1648	-3936	-9728	-27527	8681	149	133	1
-10628	-4684	11692	807	-630	1853	-16220	-7380	-3524	7976	6539	1135	-16532	1440	-4168	-11727	13856	3633	6928	-108	15292	-14662	-17972	2710	-7304	5692	-5328	3882	-10697	2911	-20024	5448	-7552	-2442	-22455	9227	167	184	1
-10584	-4524	11540	930	-539	1762	-13712	-1004	-3664	14345	6836	1565	-13772	-6580	-4600	-9153	14013	5600	3164	8964	14616	4268	-20894	10418	-4428	-652	-6868	-12459	-14047	6398	-20692	1800	-9212	-6425	-21911	7288	165	183	1
-10824	-4596	10832	871	-347	995	-16508	904	-3196	6365	6367	2384	-16612	-4268	-3732	-1734	13992	3708	-3080	18732	13684	1471	-25890	14508	-4960	-4960	-7864	-16273	-20428	11404	-15852	-592	-9972	-10069	-20539	4141	169	169	1
-11096	-4716	10932	819	-192	1182	-16836	-416	-2784	-4544	4415	1466	-13640	-1456	-4080	2101	13175	6330	-6552	13660	13312	-4597	-32768	19838	-3368	-7280	-7696	-11254	-26159	14942	-11488	-2228	-9976	-9461	-17518	4242	153	174	1
-10468	-5412	10500	725	-176	1792	-14628	-3136	-2064	-9979	3783	608	-13860	-2040	-4228	1398	14735	4931	-7184	8104	12072	-2060	-32768	25680	-4088	-4980	-6888	-5620	-31401	17258	-7536	-3524	-10652	-5344	-10750	2810	139	174	1
-11272	-4492	10988	1057	-402	2219	-14388	-3564	-2196	-10472	3546	786	-15028	-3232	-1976	3446	17218	4013	-10724	7556	13376	587	-32768	28291	-5824	-3848	-8284	-9079	-32768	20307	-3212	-3420	-11720	-2000	-4306	12	124	146	1
-11268	-4464	11132	1811	-937	2569	-17260	-5756	996	5900	4869	872	-14832	-2104	-556	6583	21489	5835	-16048	6224	17628	2395	-32768	29261	-6964	-4504	-9640	-15008	-32768	22771	-5504	-3404	-11852	-1759	-605	-1315	114	137	1
-9960	-3192	11496	1813	-614	2700	-17316	-3044	-852	10401	6222	637	-15948	-1432	-1024	6785	16996	5039	-24948	12484	21032	4489	-32768	29626	-13104	-6048	-15236	-21025	-32768	22885	-5408	-4700	-12388	-1586	1864	252	97	136	1
-10832	-3868	11048	1336	251	2469	-14164	732	512	6856	7103	1683	-18084	1476	-1100	1643	11156	2633	-32768	15420	20028	-1459	-32768	32767	-17372	-6812	-10688	-15993	-32768	20501	-5284	-4976	-12596	-1653	2330	559	119	169	1
-10328	-3860	11716	656	1233	2390	-14644	948	568	-3204	7988	508	-19328	1840	2296	113	10978	940	-32768	11700	16760	-4678	-32768	32767	-20992	-868	-13040	-14879	-32768	19696	-6492	424	-7248	-2985	3458	2417	128	199	1
-11136	-4012	11588	-7	2176	2723	-17364	-1456	1280	-10354	8932	160	-17824	-2344	3168	-6590	12119	1195	-32768	5564	10440	-5491	-32768	32767	-27408	-4000	-12240	-19586	-32768	14679	-10340	6348	-1184	-9809	-4343	7538	124	146	1
-12680	-4164	11452	-809	3523	3127	-16488	-4568	3600	-11334	10661	1212	-17988	-2276	1320	-8976	10953	-41	-32768	260	208	-6322	-31097	27262	-26912	-7004	-15304	-14500	-32768	12574	-21784	5628	7292	-23564	-10825	14440	127	131	1
-11884	-4632	11924	705	4822	4590	-13364	-5652	3804	-7013	13584	1683	-17888	-3632	2292	-7382	6948	-498	-32768	-8848	-17608	-3820	-26980	15222	-14404	-6116	-12880	-7376	-21294	10882	-32768	-32	28144	-28428	-4519	10913	133	253	1
-11700	-6172	12548	155	6292	6668	-15808	-3584	324	-5146	16163	2028	-17496	-4512	-508	-8216	4976	263	-32768	-24148	-30320	11108	-13441	6778	-8684	-3256	-13760	3800	-11946	9036	-17016	-6740	32767	-3945	7592	-2957	134	253	1
-11620	-2620	13428	2331	10381	6750	-19196	196	-3392	-7665	17757	2653	-18084	-7228	-4084	-6979	2603	1667	-32768	-15224	-32768	8764	180	-2018	-5988	-1144	-8944	8162	7945	-248	-14268	-8972	20744	10678	-630	-11738	134	192	1
-11472	-3460	14124	2799	14064	8909	-19180	-3724	-3868	-7630	18615	3850	-18384	-1888	-3112	-5576	71	2616	-11684	6164	1100	-13137	16266	-6944	-6256	220	-13272	11369	22412	-7891	-24508	6136	19160	12327	-6561	-5649	138	63	1
-10200	-4592	15148	4198	18724	10926	-19912	-544	-3296	-3515	20010	3396	-20320	-1664	-904	-4653	-3408	4272	-4856	23460	32767	-5901	11591	-6659	-32768	3784	17412	17298	15187	-2313	232	84	-21128	32767	18005	-66	135	50	1
-11528	-5568	16504	6376	24939	14144	-24412	-1884	-1584	-5843	21170	4290	-24216	-4640	5424	-3895	-8299	3524	3312	-2284	-3504	977	32416	-5917	-22084	-3984	-1788	-10968	8413	2311	-15688	-10060	2444	6268	7254	2593	133	67	1
-11800	-6884	16812	7252	32767	21769	-31448	1192	1380	-6992	21872	2988	-27968	228	14568	-3179	-17539	1417	-31156	-2660	32500	-3070	32767	-7867	-11684	-9920	-3396	-11138	14408	-10022	-31252	18264	-6192	-5849	4742	8725	139	78	1
-13404	-10748	17564	4275	32767	32202	-32768	2172	11944	-18760	21680	1747	-26660	11992	14180	-4853	-15609	4617	-32768	28808	28484	-9165	6700	-15550	-32768	-2836	-16328	-12684	17814	-7306	-31196	-8680	5480	-12486	10041	2551	133	167	1
-19608	-6760	15504	6706	32767	32767	-30092	-12	10036	-30337	20873	1166	-24948	-1144	8580	-14850	-18294	4609	-9980	-8224	23480	-7990	3291	-8365	-22496	-5188	-6052	-4840	14292	-646	-16388	-6828	-16252	11111	11671	-8416	135	89	1
-32768	-12188	21360	-4375	32767	29138	-26916	-14352	-3308	-28938	20674	5272	-22504	-10680	-6500	-13712	-17230	-762	-9636	12724	10632	-4427	814	-3281	-12864	316	-6376	-6220	15716	-3978	-5364	14112	-10364	361	10747	-423	154	120	1
-32768	-18796	17196	1362	32767	32767	-23928	-7864	-15344	-22259	15834	3349	-28836	-6548	-9680	2336	-21026	-6524	-10508	6780	12912	-4842	-359	-3297	-8848	2896	-9848	-652	9940	-6108	-14240	13432	-8080	-14758	11509	201	154	136	1
1992	-23884	16048	6483	19771	32767	-19968	-7456	-13184	-2498	13265	2574	-30340	4400	-8060	7779	-22037	-6300	-9500	5596	14112	-5485	4	-3988	-17864	6508	-7132	-6432	10048	-2643	-17184	-1892	-5352	-11809	12423	-617	132	69	1
-32768	-20176	26328	2277	8958	7551	-14380	4468	-25156	16547	8769	2726	-24716	4284	-10908	6054	-22193	-8956	-9472	4260	14244	-4683	34	-3073	-23256	-3980	-4664	-5089	7486	-3335	-18424	-4064	-1716	-2482	12571	496	126	81	1
-10568	-28204	17232	1908	-12657	-16121	-11072	8396	-12604	-2290	705	-1391	-23376	3008	-6408	-661	-22684	-9354	-9096	3528	14520	-2912	812	-2425	-16268	-5464	-1344	4395	6632	-2211	-17376	-4992	1624	3927	12963	158	123	55	1
-4020	-14208	12652	4543	-20579	-17065	-6752	-2920	-9084	-13620	-9702	-4301	-20372	320	-9624	-7042	-19164	-9310	-8700	3516	13976	-1400	1834	-1954	-15848	588	-1264	3937	7272	-2011	-16056	-848	728	8937	12632	-2684	119	65	1
-1408	-2644	10252	-4862	-22359	-18375	-4024	-6712	-7396	2829	-15834	-10241	-16696	1260	-10908	-6788	-19262	-8916	-9440	4180	13180	-679	2293	-1577	-17564	3708	-2932	-2407	7123	-940	-15440	1140	-932	9385	13196	-3676	121	91	1
-5404	-6660	9508	-14639	-25501	-23316	-2220	-508	-9424	22047	-20451	-13416	-13572	3828	-10612	-5089	-17353	-6653	-9496	4836	13236	-444	2415	-1461	-16276	2336	-2452	-6038	6965	-1303	-14580	3520	-1368	8410	13408	-2388	121	92	1
-7820	-6924	10688	-14803	-29838	-26963	-4692	5188	-9812	23128	-25969	-14633	-9692	3872	-10336	-4940	-15288	-4777	-9200	5148	12672	-488	2127	-1705	-15872	-216	-3908	-420	6131	-2162	-14800	3772	-1856	7550	13592	-2142	126	99	1
-8064	-3096	12128	-15334	-31237	-31353	-5200	7428	-8320	13316	-32510	-13722	-7216	1936	-11264	-6295	-11334	-3948	-9936	4752	12784	-615	1467	-2126	-15652	356	-3960	7126	5570	-1438	-14736	4416	-2540	6848	13803	-3195	130	110	1
-12352	-2768	13096	-16331	-31963	-32768	-5912	6056	-9720	2989	-32768	-11465	-4788	1248	-11100	-6605	-7530	-3726	-10988	4768	13200	-633	1010	-2435	-16964	1876	-3156	8620	5897	-806	-14860	4584	-2456	6193	13917	-3452	134	112	1
-17892	-2772	15436	-14820	-32768	-32768	-7260	2260	-10644	-318	-32768	-11059	-3488	1492	-11180	-4441	-5049	-2833	-9980	3788	12900	-344	970	-2299	-16424	3396	-2724	4917	5850	-1356	-14268	5392	-1968	-4178	16582	-4325	134	113	1
-22196	-1412	16748	-13481	-32768	-32768	-8600	564	-10636	1734	-32768	-12757	-2760	2212	-11960	-315	-1623	-2417	-13456	4584	13260	-472	1183	-2334	-15984	2288	-2344	-2084	6455	-2224	-15052	2004	-2240	-5184	18295	-3238	126	116	1
-29136	-3732	18736	-12603	-32768	-32768	-12540	-1860	-12524	8454	-32768	-13236	-2552	1456	-11264	5410	-115	-4061	-9524	4336	12936	847	1379	-2743	-17068	-692	-2568	-2094	6830	-2370	-15660	-1728	-2408	-1480	16203	-3073	121	122	1
-32768	-276	18536	-11244	-32768	-32674	-19768	-1716	-9852	15058	-32768	-11211	-5384	172	-4940	10000	236	-3943	-9716	4228	13164	1454	1756	-3706	-16344	1156	-2084	3174	7061	-1508	-17348	-288	-1300	311	14298	-2227	118	117	1
-32768	9096	10756	-15190	-32768	-32768	-24900	1376	-11732	15473	-32768	-6625	-6348	-2776	-1160	10376	-156	-4773	-9976	3776	13272	119	3671	-3086	-16836	748	1256	7602	8677	-2765	-18688	5048	3428	-1406	11863	-506	124	114	1
-32768	12684	2716	-12916	-29774	-31625	-25200	876	-10684	4982	-32768	-2919	-22964	-6060	18708	16747	-15622	-11760	-9444	4108	14156	-84	5346	-3384	-16596	5828	4112	6569	10508	-4430	-17972	3528	6908	1833	9520	803	125	119	1
-32768	26156	-12072	-5918	-17102	-26062	-22248	3704	-5620	-10184	-27484	277	-32768	-6896	16396	6865	-12399	-23150	-9868	3656	14656	-257	8583	-3568	-17320	4760	2424	-13	13736	-6941	-21080	1928	5588	5042	8091	-769	16	116	1
-32768	25700	-30072	-5990	-16050	-4057	-3940	8244	-13360	-12998	-11217	-3959	-16488	-776	28616	-5728	6432	-3056	-9944	4692	14892	336	13430	-4718	-20364	1548	1548	247	15972	-7798	-21236	4492	2868	7788	5240	-1357	19	121	1
-32768	32767	-29488	-21558	-6292	5468	188	-3608	-4980	-16589	5593	-5829	-10120	4672	27672	-13621	3358	11199	-9632	2836	15548	-25	19524	-5606	-21200	724	1832	5667	17047	-8135	-22616	4604	2580	4182	1059	-485	93	122	1
12076	-32768	5436	6742	344	1988	-10584	-1064	-11728	-7645	22250	214	-20368	6208	8912	-8897	7078	10805	-8092	4900	15148	-235	26968	-7480	-21888	2264	1492	6726	18676	-9601	-21344	3112	5812	5779	-4214	-759	125	112	1
-4772	-24908	32767	28866	13020	12724	-13284	-1616	-11020	-7973	23546	2081	-2172	5564	-20888	-20548	23811	3175	-10916	5664	16336	-1058	32767	-10796	-26180	2948	3188	6166	20903	-10416	-21252	3624	6832	6668	-4848	-887	125	125	1
1092	10772	5688	20880	25711	4047	-30704	-12084	-112	32767	10993	-1328	-11424	-5736	-9276	-10859	5584	-2727	-12384	9204	17924	-552	32767	-16197	-32768	1484	4836	9071	21842	-10533	-31384	4484	15604	1288	-20236	-489	117	108	1
-32768	29140	32767	11412	21574	23359	-2720	10156	-10460	32767	15091	3624	-32768	-25696	3056	24219	5520	-11522	-17504	9284	18160	1694	32767	-25075	-32768	6100	12984	23105	21210	-9261	-24480	-5348	15148	-2167	-18031	-5060	105	106	1
-32768	-26152	1272	15614	1237	14455	-32768	2200	-21784	15759	22968	4882	-26732	26020	-7872	29060	12077	5380	-32768	9712	25052	16541	32767	-23075	-32316	10572	-456	24015	22143	-9848	-29240	5216	2616	8732	-21595	-1540	104	108	1
-16924	20572	24276	7682	394	8599	-17064	8516	-16220	17916	16837	1173	-17500	19084	-13716	-3882	12610	9383	-32768	7924	32767	20344	32767	-28694	-24584	11504	-14516	17194	18769	-12150	-25956	13084	-11980	13910	-19917	3675	116	119	1
-13320	-5368	11972	5391	-344	3824	-13884	6304	-9836	-2241	13962	-3423	-7456	-6288	-10212	-12775	6438	7638	-32768	13972	32767	20664	32767	-27460	-22844	-1272	-15864	-1606	17324	-12078	-31012	9448	-15156	2039	-19644	7599	112	105	1
-12524	-8656	9868	2212	774	1529	-11456	-4916	-8572	-19013	9919	2173	-14516	-9140	-9872	1299	11589	2259	-32768	32767	32767	8603	3429	-11866	-16236	-12136	-27340	-13324	10628	-8446	-29656	596	-10916	-18043	-28852	7032	134	82	1
-11272	-4220	11472	1114	701	1582	-14568	-10812	-6784	-10893	8261	685	-17120	3356	-7408	-2374	13126	-362	-1948	32124	19564	-19265	-17802	2000	-11056	-4728	-6988	6507	-666	-6238	-28736	-1256	-4516	-15898	-32180	8647	153	120	1
-10896	-4216	11844	287	509	1338	-23896	-4668	-4772	-3466	6007	2093	-18408	-1180	-5048	-10728	13261	2580	4940	2968	14088	-18323	-19583	1354	-10876	-404	-7376	11078	-8946	1889	-22216	2820	-7864	-2476	-23887	10434	163	179	1
-10748	-4344	11516	-374	837	627	-16888	-2764	-2652	-1831	5734	2620	-15728	-3208	-3676	-10452	13359	6208	4668	2072	12188	1432	-20200	10272	-2732	400	-7576	-2635	-14473	6679	-20020	2420	-9312	-690	-19275	8310	162	190	1
-10672	-4716	10952	-302	583	277	-13752	-1664	-1968	-3706	5448	2504	-15016	-4408	-2188	-6400	13027	5009	-4	13144	11176	5644	-22042	15398	-3208	-3516	-6972	-10760	-18443	9846	-15896	-1192	-9900	-4208	-19135	4909	163	186	1
-10508	-5136	10504	-148	337	395	-13832	-5140	-876	-5088	4997	3129	-14648	-2824	-1808	-1942	12602	7080	-7368	13488	12216	-951	-27164	18277	-2860	-6044	-7304	-10588	-23961	14530	-11952	-2688	-9640	-6001	-18039	3806	146	173	1
-10464	-5228	10344	66	-97	1003	-15280	-4064	-1324	-4335	4966	1698	-12740	-2028	-1984	-1194	13719	6174	-8980	9124	12424	-2178	-32768	24081	-1860	-5352	-6980	-7373	-28321	16425	-6820	-2932	-9892	-4542	-14754	2784	130	161	1
-9656	-5336	10504	378	-658	1682	-14884	-2376	-672	-6380	4126	2611	-14092	-2848	-1468	656	15054	4688	-10376	6944	12244	-453	-32768	27609	-4816	-3916	-7060	-6261	-32218	18784	-4372	-3616	-9812	-2318	-9692	1801	124	138	1
-10192	-4512	10864	636	-736	2072	-14632	-1604	-804	-6928	4924	2300	-15088	-2024	776	2963	18399	5266	-14628	5756	14728	666	-32768	28388	-6664	-3580	-7936	-9421	-32768	22097	-4728	-2108	-10284	-705	-4474	539	114	139	1
-10516	-3484	11172	399	-235	1924	-16032	-1484	772	-4590	5979	1672	-16732	-2472	-1140	2750	16347	6825	-19836	5508	17888	2639	-32768	27570	-8040	-4752	-10508	-15188	-32768	22413	-5036	-2752	-10248	-4702	-1176	-194	96	146	1
-10328	-3856	11344	-130	394	1512	-16336	-2224	-636	-349	7728	2519	-17932	-876	-4040	2263	10632	5602	-28812	10564	19712	5192	-32768	27537	-13852	-5288	-11556	-17333	-32768	22086	-5184	-2632	-10684	-7302	863	1247	110	151	1
-10352	-4588	11088	-112	717	1601	-15232	-2580	-384	914	8906	2634	-16836	188	572	2404	11025	4456	-32768	12748	17204	2871	-32768	30042	-16664	-6020	-11556	-11636	-32768	19995	-5008	-4216	-10716	-7086	2515	1550	118	153	1
-10012	-4680	11220	-184	1268	2068	-16612	-2192	-1088	1270	9559	2342	-16036	-1016	1064	1143	13893	4314	-32768	8940	14768	-840	-32768	31490	-20804	-3408	-11148	-10244	-32768	19899	-6676	-1980	-4436	-8965	2356	2698	125	156	1
-10180	-4328	11412	-369	2259	2470	-15748	-640	936	-2587	10359	2658	-16848	-76	652	-1477	12825	3262	-32768	792	9336	-776	-32768	29684	-21892	-3448	-11004	-10828	-32768	19321	-10288	2164	1532	-5290	-2304	8536	135	134	1
-11248	-4632	11720	-302	2345	2491	-15692	-1828	1844	-4801	12127	3177	-17532	-736	2208	-3131	10595	1947	-32768	-4612	1132	704	-30991	22923	-22236	-6904	-12576	-3470	-32768	14516	-28244	3868	17144	-7821	-14532	12109	151	183	1
-11076	-5712	12224	-2836	5642	3891	-15640	-2108	1820	-4790	12515	3270	-18380	-624	-312	-5470	8046	1667	-32768	-13248	-17120	2457	-26116	10774	-14316	-3876	-11444	994	-21421	11012	-30172	5168	26644	-178	-1461	9282	148	253	1
-10772	-2724	14344	421	9612	4507	-19724	-456	-504	-6147	15289	4115	-20128	-5064	-3536	-6721	6377	3200	-32768	-23408	-29088	12114	-14768	210	-7680	-2836	-8192	9660	-8405	8012	-15412	2180	32767	6407	8217	-1891	145	253	1
-12260	-4696	13508	1414	12999	6236	-20088	-1584	-2656	-8514	16041	5524	-17968	-3036	-4232	-6192	2873	3788	-32768	-15436	-32056	9642	-1008	-7938	-6556	-340	-6968	13831	9763	-1086	-19136	-2156	20476	12630	-2542	-8065	137	200	1
-11388	-4816	14856	2171	17364	7578	-18480	-3900	-4824	-1537	17823	5630	-19040	-104	-3168	-4530	500	4617	18752	1652	-5948	-17660	22209	-20756	-13908	4260	-4432	15896	21849	-7977	-20876	5336	9772	8738	-98	-2514	138	101	1
-9756	-6216	14700	3307	23194	10973	-21676	-252	-2704	-1204	19061	6904	-21656	-3264	-340	-5306	-2863	5777	-10448	23088	17236	-7360	21668	-9528	-32768	14324	22872	13805	12473	-1849	-12180	6384	-2052	26178	16392	-2	136	108	1
-10432	-7572	16436	4832	32767	16122	-26276	-2544	1584	-4089	19860	7023	-27504	-7380	8012	-3200	-12064	5366	-16524	-10404	15580	-6586	32767	-11926	-12620	-4620	-6812	-18187	13030	-976	-15812	-7112	1492	4795	6888	-708	132	58	1
-10568	-8520	16392	5087	32767	16984	-32768	932	10408	-11170	20610	6143	-30412	-1384	14324	-2659	-18828	5407	-32768	25440	32767	-12715	6560	-18318	-22124	-13560	-19480	-19215	22091	-14360	-32008	12220	-1272	-13168	8253	8105	135	22	1
-18756	-18868	11732	4862	32767	32767	-32768	-936	12844	-27394	19257	6429	-28400	9840	14600	-3769	-15931	6083	-9816	-7332	29172	-12211	813	-11154	-27976	-916	-11120	-11954	18988	-6240	-17904	-12880	-10260	-4709	12121	-1791	131	117	1
-32768	-140	22896	3880	32767	32767	-26528	-20376	6720	-32061	19708	6646	-24844	-9644	1176	-13574	-17331	2338	-8992	8264	15132	-4519	-660	-3311	-15864	-3856	-9824	-10375	16875	-2174	-12160	-7172	-13208	5973	12048	-2403	141	68	1
-32768	-23940	14712	3953	32767	32767	-25388	-14104	-10560	-12471	22043	7262	-23304	-17064	-11108	-2213	-17525	-7223	-9964	7220	13772	-657	877	-1252	-15896	-6620	-10120	-5801	12582	-3187	-14720	9212	-11008	1696	13414	-2090	149	152	1
-21048	-23512	22100	1376	22898	32767	-21308	-7016	-15568	3364	17690	2972	-28892	2328	-8584	10545	-19778	-8026	-9412	5672	13904	282	2033	-550	-14688	-908	-9632	11439	8490	-1193	-16688	6900	-8476	-5653	13528	-2732	140	91	1
-32768	-2708	1276	5492	25860	26299	-15988	-7864	-13284	19955	9852	2507	-26964	3168	-10896	13037	-21285	-8684	-8732	4952	14012	404	2675	-536	-22716	1756	-6256	11829	4797	-625	-18184	-5092	-4676	25	14087	-1909	129	63	1
-26036	-27352	16700	-3012	-12472	-13085	-12844	7964	-15984	7319	7528	-443	-23848	3100	-7936	6593	-22310	-9805	-8588	4580	14064	475	2959	-541	-16628	1664	-2836	9781	3087	-1072	-17428	-4600	-2440	10421	14760	-3603	121	80	1
-1976	-24588	10684	9450	-20726	-18127	-9460	3644	-5036	-13649	-3076	-1151	-22312	600	-8232	-2607	-21866	-9983	-8476	4888	13728	818	3305	-529	-16196	2536	-1592	4961	3816	-897	-15288	2512	-1316	13905	15609	-3808	119	103	1
2796	-6280	7024	9617	-18503	-17686	-8056	-8236	-8816	-12797	-11314	-4786	-17604	-2684	-10952	-4223	-18868	-10614	-9224	5488	12952	957	3394	-436	-18148	3820	-3292	720	3423	-61	-15524	4376	-1684	12337	16923	-3249	116	110	1
-4260	-3832	7864	-2414	-17457	-22084	-1424	-9316	-9200	16572	-15434	-7263	-16300	-264	-11400	-1665	-18489	-10664	-9348	5180	13048	732	2954	-365	-15676	2660	-2368	1259	3373	-958	-13588	4392	-256	9187	19236	-3789	115	106	1
-8588	-11740	9308	-4555	-23913	-24057	-1824	-544	-12480	29301	-19794	-11141	-13368	1320	-11636	1392	-17689	-9543	-9288	6020	12428	258	2153	-715	-15108	2832	-2332	7083	3110	-1221	-11368	5280	1368	4035	20210	-3197	117	97	1
-8312	-7876	9580	-1551	-30661	-26056	-4544	4644	-10456	26719	-26750	-10548	-9824	1600	-11940	1938	-15531	-8732	-9244	5488	12296	-455	968	-1110	-14692	4296	68	9220	4280	-1615	-14324	6904	-20	2157	17386	-2570	127	102	1
-9048	-4408	10072	-4140	-32768	-29929	-5744	5676	-10916	17738	-32449	-9553	-8240	1804	-12740	1729	-13230	-7884	-9128	5812	12404	-1153	35	-1472	-14768	7136	2020	6239	5377	-2166	-15304	7552	-848	3305	15892	-2689	132	106	1
-12688	-4800	10628	-7150	-32768	-32768	-5724	3408	-11020	10913	-32768	-7479	-5856	2888	-13204	1583	-9868	-6125	-8924	5336	12812	-1535	-589	-1928	-14636	6392	1524	-2137	6843	-3227	-19328	7940	-444	-5342	9650	-2986	132	109	1
-16464	-5148	12700	-6943	-32768	-32768	-5124	2324	-11800	10148	-32768	-7301	-4108	4348	-13524	2751	-5867	-4575	-9220	4620	13108	-1289	-519	-2145	-16436	1908	-340	-6740	8527	-4221	-17224	4620	248	-8818	9900	-3113	130	115	1
-22128	-5492	15612	-7194	-32768	-32768	-7916	2240	-15164	11906	-32768	-9368	-4284	3576	-12912	5320	-2535	-3199	-8912	4788	13228	-899	163	-2063	-17300	-1048	-576	-3686	8798	-3884	-15632	972	860	-5025	12398	-3400	127	119	1
-32768	-3900	16656	-8120	-32768	-32768	-13176	2256	-12400	12336	-32768	-9008	-4624	4416	-12420	11584	-345	-1359	-8760	4852	13464	-254	737	-2443	-16476	1220	-756	-321	9377	-3512	-16140	-2552	36	-767	12883	-3221	120	133	1
-32768	-3540	16692	-8438	-32768	-32768	-20220	-820	-14996	15445	-32768	-7611	-3648	5288	-7560	15510	-496	-1761	-8776	6552	13044	1278	375	-4142	-16072	4944	-624	-728	10716	-3317	-15524	-3408	696	-736	10922	-1442	119	136	1
-32768	9280	6544	-12036	-32768	-32768	-24360	4720	-16484	13958	-32768	-5897	-5964	168	-2344	16089	-2601	-4039	-10160	6172	12220	177	992	-4811	-15096	2944	-1116	-512	11728	-3426	-15584	36	2952	598	10576	1979	129	137	1
-32768	19080	-1736	-11404	-30354	-32610	-25632	-272	-10968	2870	-32768	-3743	-24948	-3620	19716	17575	-18973	-12808	-9164	4284	15424	-1843	3765	-5072	-17428	440	372	4357	13221	-4595	-17928	1544	944	6006	9235	3287	123	130	1
-32768	31828	-12156	-5201	-16999	-25210	-19724	856	-8448	-8925	-25591	1519	-32768	-5316	21216	3129	-15706	-18332	-10024	3008	15020	-503	7508	-4667	-18976	1148	-44	7592	14573	-6373	-19256	7768	-728	9387	7000	586	1	122	1
-32768	24124	-28260	1483	-14821	-1783	-5980	5972	-18224	-7472	-11509	1568	-10400	920	25780	-3953	12523	85	-8972	4372	15424	679	12390	-4762	-19976	4272	-488	2818	15928	-7345	-20084	6264	-976	6836	4608	-1233	2	118	1
-32768	32767	-31236	-10927	-9307	16046	-1896	1064	-4284	-12913	4804	-3018	-9408	9540	23988	-12382	7738	5071	-8328	4632	17592	603	18032	-5586	-20764	2080	-1296	865	17434	-8246	-21460	3072	0	3794	599	-603	95	125	1
15580	6760	-22800	21676	8999	32767	-11852	-2680	-128	-14591	17767	-2527	-24708	8076	9160	-15688	5871	12544	-7896	4560	16836	-504	25546	-7168	-23392	-376	-792	3749	18156	-8933	-22632	3960	2996	5217	-902	180	134	134	1
-8116	-18484	32767	8133	25199	3847	-32768	1288	26096	-2250	9024	9942	-20592	2576	-404	-24031	14461	5372	-7024	5808	17316	-191	32767	-9505	-27836	880	912	7635	19714	-9316	-26524	6064	6488	7328	-4108	-1675	117	130	1
-17088	-1188	7772	13276	21016	20003	-24976	-12268	-6164	17275	14017	1560	-20892	-252	7668	-8333	1670	-3854	-10856	6568	18112	2786	32767	-13528	-32768	1616	4544	11416	20614	-9546	-30084	8016	15864	7088	-17240	-994	111	114	1
-32768	8496	7336	10011	-6461	8532	-11924	-5808	-18220	29408	24647	-1166	-31272	-30724	-5424	14605	15770	-7443	-18000	12372	22720	3276	32767	-20017	-32768	9048	13156	24716	19904	-10247	-27680	140	10816	1918	-20655	-2705	96	98	1
-16916	1560	14644	7107	1580	7998	-31868	2744	-14876	25857	20533	5910	-19812	2460	-22228	19121	8544	4716	-23868	6592	16352	11620	32767	-21568	-27484	10220	2424	24506	21563	-8965	-25264	2724	6096	4311	-22140	-2604	137	103	1
-14416	-6088	10216	4650	-1540	3913	-10140	7420	-13904	22682	16636	-206	-6668	23852	-7184	7906	13505	6091	-32768	15444	32767	26302	32767	-21242	-24996	7216	-9688	14331	19509	-11470	-21120	4788	-5168	4732	-21045	2260	124	97	1
-10748	-3556	12136	2869	-1427	1486	-11216	7680	-10428	-10551	10374	498	-10040	-1440	-11880	-9497	8551	11830	-22040	10116	32767	32117	31721	-20227	-22612	2764	-9396	4566	19104	-11911	-25500	5688	-11668	1916	-22651	5120	125	119	1
-9904	-4788	11600	1780	-830	1586	-18776	-3436	-6048	-21955	9387	-1573	-15076	-12556	-8848	-849	14189	108	-32768	31704	29456	18006	15174	-22937	-21024	-9496	-14812	500	12704	-4129	-27428	-948	-7516	-9902	-29242	4405	147	113	1
-10392	-4616	11328	1222	-392	1504	-22460	-8868	-3244	-17563	4853	2117	-21092	5256	-2580	3126	15188	-2235	-5216	32767	26700	-15227	-17721	-4104	-12044	-4868	-6240	13265	5518	-5378	-26112	-2672	-3672	-7166	-29650	4240	152	107	1
-10840	-4088	11796	812	-376	1185	-15896	-7444	-2184	-243	5118	1055	-16252	6524	-2812	-10070	15692	2443	10536	6736	17396	-18634	-21248	-4832	-10256	1916	-2440	16751	-5033	2439	-22468	3904	-6800	1233	-24776	8182	157	136	1
-10160	-4340	11508	766	-131	903	-14160	-3356	-2032	11488	5737	850	-15248	-5512	-4148	-10227	14626	6099	9404	-144	15324	4910	-20304	4669	-4348	2500	-4048	286	-11391	9356	-18980	3268	-7880	1512	-22307	7955	158	177	1
-9424	-4704	11096	886	-352	678	-15780	912	-1596	7240	5905	2283	-13788	-7476	-3200	-1341	16029	4457	2500	14620	14752	12185	-21405	12033	-5208	-3012	-6220	-8439	-16298	12471	-18708	3096	-8804	1118	-21999	7367	174	163	1
-10160	-4712	11196	677	-137	546	-16652	-1324	-2428	-2031	4763	1218	-13908	-2480	-3288	6477	17273	6869	-5024	16640	15372	2427	-26986	17152	-4656	-5484	-7768	-10099	-22374	16865	-17312	-668	-9468	-509	-21160	3771	150	145	1
-9824	-4716	11224	576	37	1064	-16132	-2024	-1196	-7483	3394	359	-12828	168	-1448	5386	20655	5954	-6584	8708	14760	-512	-32768	23211	-4752	-5316	-6792	-6993	-28087	18725	-9916	-1956	-10412	1894	-14991	3592	133	148	1
-9644	-4268	11404	434	42	1392	-15920	-2052	-1008	-8034	3327	637	-16324	-1336	1512	187	19860	5162	-8600	5284	14904	2253	-32768	26693	-5772	-4416	-6992	-5748	-32613	20788	-6992	-2324	-11296	4766	-9578	2184	137	143	1
-9400	-4520	11300	668	-224	1848	-15500	-5416	2856	-4269	5499	1456	-17060	-1944	1088	-821	18971	5155	-13348	5300	17736	3484	-32768	27760	-7308	-4080	-8720	-10514	-32768	23161	-6088	-1252	-11828	4873	-4925	10	136	147	1
-11336	-5532	11000	1344	-487	2275	-14904	-4760	6700	4306	7774	1384	-20556	-4516	356	7803	8240	4622	-19104	6348	21404	3355	-32768	27708	-9264	-5512	-11272	-15359	-32768	23821	-4468	-1444	-13232	2964	-8	178	134	149	1
-9232	-4540	11776	1280	-96	2564	-15384	-2940	1348	6700	9686	1598	-18064	-1232	3640	7230	10424	1791	-28540	13360	24552	3737	-32768	28174	-15836	-5648	-15552	-18177	-32768	23667	-5044	-784	-12720	-1016	3482	905	137	161	1
-10736	-4744	11992	1214	68	2513	-16896	468	-40	1615	10628	2301	-16216	3496	1820	-2141	13690	2525	-32768	15944	22736	-639	-32768	32203	-20600	-4868	-10104	-11011	-32768	19736	-4608	428	-11888	-8592	4492	2177	129	163	1
-9132	-4076	12172	413	1999	2861	-16788	372	488	-5315	11346	1710	-16696	1372	-140	-6587	12576	3687	-32768	11744	15276	-4639	-32768	32471	-22676	-3348	-11052	-12020	-32768	19424	-7024	2024	-6708	-15080	645	3283	128	149	1
-10108	-3788	11528	-140	3400	3539	-15140	-1692	2600	-10153	12178	1920	-17536	-676	1036	-5915	9146	1000	-32768	-740	3972	-3559	-32768	29904	-27144	-5520	-16288	-16757	-32768	14164	-15456	644	268	-23755	-7363	6995	135	122	1
-9104	-4876	12844	860	4723	4231	-14824	-5504	876	-6633	14373	2827	-16060	-380	888	-4765	7845	-1263	-32768	-7252	-9680	-1915	-30800	23338	-20628	-9748	-14424	-10457	-29422	14588	-30768	1280	25660	-32768	-21259	10174	138	238	1
-11100	-4640	12500	-519	6822	5559	-15036	-5564	908	-5735	14589	2874	-16732	-2908	-2724	-7950	7193	674	-32768	-22340	-27396	6118	-21485	8709	-8708	-3420	-15888	941	-18458	9518	-18180	1508	32767	-3180	13256	7908	137	253	1
-10096	-1832	14524	1900	10139	6009	-18028	1260	-2248	-6809	16678	3633	-18284	-6940	-3780	-8666	5359	2981	-32768	-21288	-32768	10524	-8721	-500	-3992	-2508	-7820	9782	-406	3710	-10796	-12972	32452	8471	7171	-9065	131	253	1
-11368	-3016	14592	2120	13116	7245	-18324	-1368	-2044	-10179	17510	4893	-18580	-1972	-3148	-4319	1045	3393	-32768	856	-26896	-15357	14226	-8903	-4148	-2440	-7328	9823	2884	2416	-24512	156	10368	13936	-2416	-7795	129	93	1
-10500	-3912	16316	3311	17989	8390	-20196	-1568	-2512	-4333	19192	5045	-20504	-880	-1204	-3050	-2286	4933	-14528	15460	32767	-9680	16214	-5542	-32528	8252	26308	24630	18965	-5595	-13220	4552	8796	18981	2350	-1593	140	56	1
-8984	-6980	17228	4869	25151	11653	-24968	-1752	-2496	-3918	20080	6656	-23928	-4436	2672	-4467	-6054	5711	6120	-10008	-1640	-5199	32431	-9044	-32768	2440	7588	-10917	7847	3468	-11460	-9908	-4552	18973	13425	2580	135	68	1
-10020	-8188	17488	6734	32767	18720	-29780	440	760	-3724	20956	6474	-27464	-4024	13540	-1485	-16200	3837	-32768	-13668	32767	-3646	32006	-11969	-10740	-14968	-484	-19760	16600	-10202	-28348	8292	13076	-14037	1271	8030	133	20	1
-10820	-9908	19136	4230	32767	28752	-32768	3560	11528	-11984	20917	6039	-27864	7476	13600	-1696	-16061	5544	-32768	32767	17976	-10344	5247	-13281	-31964	-5648	-15640	-12020	23180	-11009	-24860	52	-9620	-10636	3377	529	135	163	1
-16848	-6072	13496	3924	32767	32767	-30864	1316	6824	-24476	19613	6306	-28092	612	11516	-9464	-17391	6869	-15252	-15868	26848	-10701	4425	-10252	-18952	-2084	-11448	-3300	14154	1298	-13792	-10332	-15788	9963	13477	-5009	140	97	1
-32768	-24268	11064	1163	32767	31966	-25460	-12568	-7212	-29333	19653	11103	-19868	-14888	-5476	-8291	-16803	875	-8112	13836	11212	-6054	48	-4737	-14112	5476	-8832	-9730	17791	-4279	-3936	14520	-13784	5332	11149	-1680	142	189	1
-32768	-21248	12656	7648	30157	32767	-24684	-12832	-12068	-22074	18196	8061	-25892	-5424	-6744	5592	-19649	-6006	-9756	7572	12360	-5126	-839	-3516	-11384	-3460	-12668	-5004	10720	-5465	-16728	12572	-11204	-9393	11014	3486	142	130	1
-684	-26052	17956	14428	20058	32767	-17728	-16336	-7040	6280	13396	3729	-29156	3096	-8752	8413	-18686	-6167	-9284	4208	14364	-3945	-754	-3072	-17016	-88	-9664	2834	9715	-2796	-18616	88	-6328	-8631	13773	492	129	85	1
-32768	-1320	5204	8664	32767	32767	-14936	-4860	-10716	29396	3711	1228	-25516	2520	-10352	7431	-19507	-9307	-9612	3620	14480	-2974	-251	-2850	-23972	-4572	-4188	7231	5774	-2608	-20628	-7948	-2288	552	13364	-2436	119	77	1
-25756	-15688	13312	-15255	14714	-8742	-14484	15860	-25528	16315	3856	1420	-21964	4512	-6420	6183	-21426	-9104	-9068	2476	14468	-1304	868	-2048	-16960	-1668	-3020	7798	4755	-2188	-16720	-3708	284	8179	12983	-3783	119	75	1
-20452	-32768	12672	-186	-11780	-32323	-7756	10584	-12412	-13770	-4335	-2075	-20568	6372	-8572	-907	-19930	-6937	-9404	3640	13808	-170	1648	-1295	-15312	2580	-2764	668	6045	-1766	-15436	1692	-2044	10172	14780	-4359	110	78	1
-13536	-19512	9088	22140	-28821	-30898	-4008	-5308	-7952	-21281	-10907	-10303	-18552	3664	-9320	-7206	-18674	-8202	-9580	4068	13428	310	1977	-842	-17416	3240	-4712	-7165	5974	-1161	-15336	2964	-2672	7219	14873	-5288	118	91	1
-5952	4648	8816	13540	-32768	-28728	-4184	-9836	-7952	3202	-14465	-12172	-13652	1740	-9988	-8860	-17907	-8724	-9484	4468	13196	378	1980	-725	-17172	1052	-3984	-6998	4195	-1572	-14648	3496	-3548	5606	16118	-4710	123	89	1
-4672	6660	8600	-12547	-32768	-29546	-3140	-2596	-7704	23651	-19416	-12550	-12492	820	-10436	-7462	-14623	-10460	-9376	4688	13140	275	1903	-976	-15680	-2008	-3864	2756	3788	-1894	-14968	3452	-2620	3151	16946	-3867	125	97	1
-8100	-6980	10156	-17803	-32768	-26797	-4896	2364	-8972	30196	-25183	-13736	-9404	3232	-10992	-5061	-13819	-7896	-9632	4544	12804	-62	1588	-1490	-16180	1428	-3452	11700	2967	-559	-15104	4096	-964	2104	16634	-3621	125	108	1
-9124	-6088	11080	-7823	-32768	-22925	-5512	3160	-8852	29913	-26311	-14081	-7556	2780	-11648	-7239	-11833	-5856	-9316	4384	12888	-37	878	-1808	-16956	3884	-76	10621	4479	-837	-13212	4836	2236	-2085	18850	-5399	128	110	1
-11364	2740	13756	-10326	-32768	-27572	-7164	8232	-11420	14075	-32768	-13790	-4272	784	-12588	-9117	-7023	-5772	-9372	4132	12884	-337	879	-2086	-15768	6268	220	2850	4889	-1944	-17324	5752	-268	-1860	16928	-4881	129	111	1
-16616	-2940	16084	-13875	-32768	-32768	-9128	5528	-11460	5427	-32768	-8196	-3232	588	-13052	-4078	-2635	-6210	-9440	3816	12776	-343	611	-2243	-14320	3860	1272	-5013	6567	-3164	-16776	4744	-2468	-2284	14078	-1668	130	113	1
-23000	-6192	19296	-9545	-32768	-32768	-11024	3584	-13352	1025	-32768	-7742	-4288	1768	-11964	3818	-391	-4655	-9200	5324	12944	352	527	-3174	-16260	1160	-836	-5402	7949	-3458	-17700	-908	-248	-5664	11546	-1856	127	112	1
-32768	-924	20904	-7402	-32768	-32768	-15344	-792	-10744	2634	-32768	-9956	-3940	1928	-11608	13734	1626	-2070	-9148	4272	13572	927	716	-4333	-16808	432	-2708	-500	8115	-2337	-17372	532	-48	-3342	12097	-1925	121	114	1
-32768	3400	17404	-11875	-32768	-32768	-20912	-3280	-12228	16446	-32768	-8397	-2928	1500	-7236	17157	3171	-2013	-11192	3360	13640	-100	2505	-4008	-18732	-416	-1848	5189	8795	-2821	-17260	3588	-476	1468	12829	-779	119	118	1
-32768	6164	9600	-11332	-32768	-32768	-26568	-1632	-15068	18527	-32768	-2590	-8564	-524	-3660	18772	1563	-5107	-9356	3172	14076	-242	4764	-3429	-17368	656	3176	7601	9623	-4096	-16764	-20	3276	2739	10099	52	127	125	1
-32768	23220	3252	-7875	-24990	-30794	-29140	-1436	-16632	11272	-32768	1132	-32724	-13168	20644	24323	-32768	-13823	-12164	1524	14372	-190	7560	-3369	-15304	5940	3132	2537	12560	-6138	-19104	-2252	6156	3099	8794	-482	91	120	1
-32768	21084	-23996	-9015	-17592	-22026	-12108	7836	-17664	984	-22093	4816	-32768	5492	19052	9986	1888	-17104	-9764	3632	14916	844	11776	-3299	-19852	1900	776	-2562	15374	-8384	-21556	5532	1760	6475	7329	-686	0	114	1
-32768	32767	-32768	-11590	-13827	7512	4804	7432	-10468	-19392	-6267	-3828	-12060	3988	32424	-5326	10132	7167	-9436	3972	15584	1370	17158	-4320	-21244	-288	-496	2315	16231	-8058	-20492	7812	-712	8023	4135	-1414	41	112	1
-32768	28952	-32696	-23629	-152	9569	-2612	404	-8968	-27560	13150	-6149	-15348	9924	24672	-11289	3482	11913	-8392	5088	15184	727	23765	-5531	-20844	2216	160	7295	16866	-9078	-21436	3840	2068	4575	-1080	-1531	114	128	1
2976	-32768	26896	27802	5667	32767	-26552	-11000	11220	-26532	21027	6240	-24160	8612	-4936	-18779	12467	10894	-8616	5320	15628	-118	31633	-8780	-23060	4300	1668	7022	18157	-10315	-22924	5340	6368	6801	-3978	-1868	128	129	1
1812	-160	17588	14870	29759	526	-32768	-16984	25512	17971	7081	-1725	1768	-896	-18184	-26914	16924	3129	-10828	7072	17356	-1526	32767	-13283	-30592	2556	5344	7010	20475	-10534	-27808	7444	12516	5843	-11382	-1209	125	121	1
-24728	11556	18696	16332	32767	17614	-9912	4480	-4200	32767	15255	1216	-23248	-10564	7060	1557	626	-9268	-13512	6412	16624	357	32767	-21117	-32768	500	6876	15195	19990	-9662	-30376	1000	19196	2428	-23445	-1514	119	103	1
-32768	-896	20860	4552	12301	17066	-19952	10844	-17312	22581	20362	2846	-30856	-11944	-5176	27195	12711	-4117	-26784	6844	20916	5978	32767	-25638	-32372	10944	8896	29873	20808	-9272	-25936	32	11260	4095	-18664	-3748	52	98	1
-8236	-3952	17244	14769	-2226	14974	-32768	-7756	-15036	510	18471	-2255	-22932	20480	-13072	1892	9844	3730	-32768	18960	27640	20796	32767	-26081	-29788	14400	-5588	28947	19646	-10999	-26316	4016	7428	6733	-19523	-2436	132	102	1
-10856	-10980	8512	3191	-290	2929	-16244	4260	-11728	10328	18686	-2083	-8112	2264	-12864	-9714	8572	9887	-32768	16232	32767	25427	32767	-29041	-22840	9116	-14240	10428	18835	-14398	-25968	11632	-12868	5364	-19795	5382	128	104	1
-9900	-1828	12956	2109	215	1838	-12672	752	-8472	-7380	12727	-712	-6860	-14912	-10516	-2720	8838	5961	17884	31492	9404	23671	17664	-30400	-25588	-1204	-12404	-5014	16529	-10354	-32768	2176	-12300	-11342	-23063	6347	130	95	1
-10488	-4640	11536	1782	-416	1642	-9008	-5156	-6600	-20874	8168	1996	-16328	-3272	-8944	10602	11874	242	-29300	32767	29604	1043	-14944	-6920	-13724	-10540	-17168	-6148	9146	-8399	-29460	-3792	-7044	-18959	-31975	5840	153	98	1
-10988	-4324	11596	890	130	1690	-18620	-11352	-5016	-6385	8597	576	-18252	8584	-5280	2298	13367	768	8316	27212	12500	-22165	-23290	-4463	-11924	-5656	-5460	17721	-2261	-1929	-23376	-2196	-3728	-5706	-29825	8591	151	138	1
-10852	-4456	11420	336	751	1354	-23332	-3880	-4036	7293	7617	1589	-17616	3104	-4612	-10027	13729	3095	7836	2104	11200	-11636	-19637	1572	-8504	3796	-5392	12734	-9566	5900	-18516	1948	-7820	4102	-23163	10895	158	183	1
-10676	-4468	11012	105	769	850	-15480	1420	-3400	5768	6451	2135	-14132	-3844	-4224	-10574	14523	5434	5544	7516	10056	8198	-17507	14231	-2360	-860	-6108	-6762	-12679	9807	-19116	1240	-9476	3680	-20553	9028	177	200	1
-9740	-4580	10136	465	91	940	-13160	-224	-2544	-3690	5792	1910	-15648	-5832	-4344	-5366	14889	5129	-396	16908	10300	7931	-17717	19652	-3240	-4372	-5808	-13226	-17952	13798	-15344	-820	-10496	-1490	-19925	6039	155	180	1
-10432	-4700	10568	280	169	1121	-14476	-4356	-1544	-4580	4976	1086	-14076	-2596	-2844	3198	16191	7161	-7108	13096	12668	1065	-23500	23769	-2580	-6288	-7600	-12877	-23248	18906	-10700	-2844	-9840	-2199	-17216	4438	148	179	1
-10532	-5000	10724	174	251	1168	-16968	-2968	-2148	-4521	4445	839	-12924	488	-3028	3930	17430	4670	-8276	7640	13196	1705	-29489	28497	-2876	-5996	-6488	-8678	-27749	20997	-7732	-3592	-10528	-731	-13075	3603	137	145	1
-11220	-4432	10892	228	-29	1422	-15788	-1396	-488	-6301	4521	1689	-15856	-500	-1364	3659	19253	4760	-11400	6124	14944	4494	-32768	31166	-4964	-4048	-7184	-8542	-31629	23981	-3592	-2952	-10460	1375	-8022	1604	115	138	1
-10704	-4224	10472	25	149	1313	-14688	-2808	-192	-5213	5364	1374	-15876	-3224	-252	557	16831	5393	-16768	5980	18320	5210	-32768	32485	-6332	-4716	-10072	-14231	-32768	26677	-4848	-2800	-11704	1898	-2304	691	98	144	1
-9604	-4396	10748	126	509	1608	-15212	-3312	2368	-1176	7315	1059	-18292	-3116	-2936	2981	9984	4550	-23528	8164	22184	6097	-32768	32681	-10428	-6500	-12780	-20396	-32768	27116	-6024	-2536	-11956	-909	1485	74	117	147	1
-10608	-4416	11252	-60	674	1663	-15748	-3380	540	2555	8602	1694	-18440	-1604	1060	6196	9267	2747	-32768	8100	22320	4891	-32768	32767	-16676	-6360	-7960	-17711	-32768	23777	-4536	-2540	-12812	-5461	3647	1000	131	156	1
-10588	-4900	11336	-707	1754	1847	-17016	-768	-956	653	9562	1783	-17604	1772	1896	-754	13273	2349	-32768	9664	19976	2890	-32768	32767	-20212	-4936	-14300	-14697	-32768	22304	-3576	-2384	-12856	-8864	4378	2828	136	199	1
-10732	-4692	11204	-1367	2827	2509	-18032	56	-260	-6551	9814	1646	-16428	1728	412	-6987	13873	3160	-32768	2388	15416	202	-32768	32767	-24796	-6688	-13852	-13681	-32768	19197	-8556	476	-6176	-10157	2984	5105	136	184	1
-11748	-5952	10412	-2233	3187	3974	-15080	-2468	3804	-11557	10528	1783	-16024	-252	1644	-7707	11513	585	-32768	-7080	7472	-129	-32768	29252	-31832	-6808	-15108	-7139	-32768	13961	-22708	4400	6400	-10457	-7127	12198	142	100	1
-11900	-2940	11948	-1198	4341	5290	-14660	-3040	3888	-11450	10761	1938	-17320	-2016	308	-6189	8355	-1402	-32768	-7220	-10040	-3851	-31697	16319	-16560	-10112	-14224	1900	-26250	16308	-32768	6556	25976	-18529	-12444	14869	142	222	1
-11488	-5256	12604	111	7575	4631	-18396	1524	-1596	-5141	15584	4450	-17516	-2620	-64	-6490	8020	-1290	-32768	-32768	-27916	14473	-23778	2851	-6432	-1696	-13160	4559	-14273	10882	-17660	4340	32767	1596	14259	3694	135	253	1
-11652	-3432	13296	477	11217	5510	-19504	-1304	-2360	-5528	16532	4211	-18252	-4388	-3304	-9078	6113	738	-32768	-20104	-32768	17466	-4774	-3975	-7404	-2292	-5020	9182	4414	1835	-11296	-11036	28160	7610	3306	-11298	124	225	1
-11492	-4244	14372	1254	15954	6567	-18468	-780	-3000	-3274	17594	4738	-18492	-1684	-4452	-3578	1391	4125	-32768	-13060	-24152	-6270	10334	-10920	-5676	-4480	-9392	10873	20818	-9616	-22544	740	7472	8837	-1400	-7315	125	92	1
-10604	-5732	13860	1992	21708	8626	-20924	712	-3284	-1109	18644	5729	-19596	444	-1696	-3925	-1945	4461	-3488	32767	32767	-14555	13840	-7217	-31544	11984	17220	28382	18194	-6273	-22788	3128	5004	9642	-406	-5569	137	54	1
-9496	-5932	15536	3311	30308	12435	-23088	-736	-932	-3105	19356	5411	-24324	-2756	3364	-3793	-6881	5360	13592	-19456	-4316	-8297	28204	-11702	-28532	8912	6344	-17076	4504	6911	-7352	-10296	-9396	21308	15683	-1203	144	52	1
-10540	-8192	15572	2683	32767	19660	-31968	1932	3116	-6614	19295	5574	-28064	-2664	14208	-2370	-17974	4310	-32768	-7052	32767	-8999	32767	-11544	-9956	-16832	920	-22013	14786	-13123	-32768	19264	5460	-18253	3319	12864	141	17	1
-15368	-14072	11940	1602	32767	27379	-32648	2928	13844	-21947	18929	5865	-24812	10972	15948	-6045	-16243	5785	-32768	26132	18880	-17321	2811	-18539	-32768	3852	-16076	-17502	21051	-14390	-27588	-560	1368	-20283	2725	830	136	165	1
-17232	-15204	10624	2366	32767	28638	-26272	-8964	9500	-32680	19712	5615	-24236	-2588	9804	-14853	-16661	5852	-16076	-17432	28868	-14664	2961	-12913	-21160	-4324	-6336	-9290	13592	2992	-22464	-16328	-11444	5833	17105	-8989	136	137	1
-32768	-9780	16884	-1778	32767	32767	-25956	-22232	-4872	-16508	21909	8307	-23788	-21620	-5884	-11566	-15605	-2393	-9680	7792	14032	-6707	215	-5424	-13640	-2588	-5348	-15587	18535	-6376	-8044	5528	-7852	1216	9038	2748	148	228	1
-32768	-26048	15020	7144	32767	32767	-25892	-8328	-11156	294	19867	5595	-29800	-7704	-11064	8423	-19728	-8666	-9788	7292	12872	-3481	172	-2465	-9356	-3988	-10464	2282	14653	-5726	-15244	8396	-9832	-7631	7862	-1393	145	177	1
-840	-20588	17452	4629	27046	32767	-20668	-5984	-10580	10262	13652	3228	-29748	5000	-9000	13469	-20546	-6075	-9068	4160	14320	-2591	717	-2478	-16652	3604	-10760	4939	10302	-1455	-17212	-3496	-7420	-5673	11108	579	133	143	1
-32768	-10536	16816	-5138	21237	16716	-16760	5332	-26252	19950	6625	5727	-23448	4760	-9648	10980	-21109	-7370	-9740	3232	14144	-1712	1171	-2117	-23260	-3272	-6696	5414	7252	-2484	-17780	-7404	-4824	8999	12670	-139	118	84	1
-21904	-32768	16688	-678	-16720	-18793	-10080	7096	-15488	-2418	3114	-491	-22656	3764	-7084	1580	-21288	-8230	-9768	2524	14572	-365	1819	-1305	-16336	-1824	-4644	8574	5350	-2354	-17672	-1496	-2308	15533	13078	-1362	123	85	1
-8100	-21976	10096	17720	-28511	-16379	-6964	-1652	-5048	-18070	-6909	-4450	-20400	-208	-10032	-7427	-19750	-9212	-9384	3872	13788	960	2579	-543	-17420	2332	-3616	7690	5712	-1542	-16452	5756	-3924	16050	14281	-4329	122	76	1
2064	1624	7392	9375	-29530	-14194	-8204	-11184	-9812	-4569	-13219	-7276	-17284	-2228	-11136	-5419	-17245	-10520	-9772	4424	13228	1227	2680	-285	-17052	5044	-4428	735	4940	-806	-15400	5416	-3624	11416	15260	-5181	115	75	1
-4944	-3208	7480	-10130	-27387	-21923	-2612	-5864	-10916	24863	-17355	-7863	-16184	896	-11308	-1323	-16291	-10589	-9536	4652	13020	1044	2538	-358	-15732	3176	-3844	-1926	4102	-2276	-13824	5112	-3500	6986	15909	-4546	113	83	1
-11476	-14796	8056	-7253	-32683	-24634	-4744	2200	-12752	30516	-23424	-10811	-12224	1996	-10716	1252	-16498	-8208	-9452	5396	12728	410	2167	-904	-15740	696	-4876	5076	2551	-1918	-14092	4212	-3580	3617	16215	-4439	119	75	1
-9884	-7804	9060	35	-32768	-26997	-5276	5072	-10424	21616	-30350	-9726	-8596	1312	-11100	982	-14065	-8307	-9596	4660	12560	-23	1325	-1475	-15104	1364	-3840	10802	2964	-1478	-13740	4512	-1312	2339	17229	-3722	129	91	1
-10052	-1564	9748	-3803	-32768	-32295	-5900	4032	-10992	12319	-32768	-8078	-7488	684	-12552	1355	-11078	-7482	-9392	4580	12872	-320	937	-1771	-16824	3804	-1616	10835	3626	-1133	-15104	4768	-424	198	17620	-5100	132	117	1
-15128	-3804	11044	-8032	-32768	-32768	-6556	1192	-11032	10822	-32768	-6255	-5084	2260	-12776	2671	-7295	-4890	-12256	5036	12876	-452	550	-1967	-16052	5048	-288	4501	4053	-2180	-15896	5128	-2252	-486	13920	-4685	132	111	1
-20940	-4664	14288	-6900	-32768	-32768	-7012	552	-12796	13086	-32768	-6458	-3896	3276	-13888	3819	-3360	-3284	-9156	4012	12780	190	137	-2380	-14652	2528	708	304	5538	-3175	-16396	1664	-1372	-676	12472	-2166	131	110	1
-27200	-3752	17228	-7538	-32768	-32768	-10268	604	-15220	12587	-32768	-7751	-4180	2776	-14284	6581	603	-3390	-9728	3656	12904	821	-257	-3212	-15816	2644	56	-228	6746	-3119	-17232	-280	1592	-2614	11233	-2075	124	115	1
-32768	-6068	17528	-8039	-32768	-30088	-17252	1348	-12552	9756	-32768	-6952	-3864	2556	-10388	14868	2801	-3208	-9440	4092	13276	841	62	-3682	-16528	1948	-308	1127	7843	-3415	-17444	48	1960	-2783	11132	-2137	119	114	1
-32768	2532	10956	-10949	-32768	-29055	-24740	2304	-13872	8217	-32768	-6569	-3316	1888	-5680	16241	2543	-3313	-9348	3464	13620	163	1353	-3803	-17508	2728	1960	1803	9375	-3886	-17752	3488	2140	1060	10970	-743	115	112	1
-32768	9460	4532	-15007	-32768	-29881	-26408	-308	-14332	2458	-32768	-5034	-12024	-52	5856	18321	-5991	-6672	-8316	2076	15224	-1107	3079	-3696	-15876	4432	3192	1751	11073	-4975	-17628	1116	4228	2095	8833	-648	127	115	1
-32768	28732	-4716	-16218	-22751	-30099	-25332	972	-7996	-4938	-32768	-1383	-32768	-8996	21072	16352	-31072	-17199	-9360	3448	15000	-468	6440	-3298	-18232	1032	1760	1689	13381	-7308	-19264	1948	3380	3526	7731	-143	65	113	1
-32768	20248	-24624	-11572	-16807	-19672	-8740	4932	-16688	-10609	-19864	1532	-20916	8648	20292	2941	1821	-13983	-11064	3640	14612	495	11373	-3760	-20212	2952	-16	664	15203	-7970	-21332	3980	1620	6447	6110	-1009	1	110	1
-32768	32767	-32412	-6635	-16370	12178	2952	-48	-6068	-17114	-4105	-4436	-9076	4792	29900	-13627	8982	5116	-9680	4228	15300	1300	17021	-4671	-20384	1176	-356	3432	16360	-8432	-21016	4288	732	7193	2061	-1774	68	114	1
-32768	28444	-29564	-18938	-3464	13737	-4272	248	-10748	-8239	15823	-4253	-16728	7972	18356	-16398	5061	9178	-7888	4372	15664	504	23396	-5667	-20944	1840	1096	6026	16899	-9415	-20344	3140	3084	6209	-2090	-834	133	116	1
1896	-7308	20284	30011	6925	32767	-24120	-1412	9468	-8391	17780	4133	-22384	4208	-6760	-18228	12141	9428	-8372	5264	15728	-537	31384	-8744	-23444	2476	1728	7176	19426	-10218	-22784	6068	7168	7533	-4251	-1571	140	128	1
-4644	-992	12464	11777	30129	-357	-32768	-7428	17260	17065	8204	589	-6636	-652	-14456	-22485	16609	1977	-11000	7276	17656	-801	32767	-12745	-31332	3012	4264	8075	20788	-10625	-28248	9252	16364	6518	-16254	-1001	113	106	1
-32768	10964	25744	10997	25089	23653	-13896	1536	992	26946	16204	-468	-29912	-12068	6812	-245	-415	-8313	-13024	10016	18440	807	32767	-20071	-32768	4716	10048	17048	19928	-10263	-25444	-904	14088	1007	-19871	-1963	108	102	1
-32768	-12616	1228	9698	1989	11462	-23752	1140	-17340	13778	25161	3328	-24360	-10248	-7348	22183	13288	-1629	-28812	6992	22752	5324	32767	-26295	-31900	11320	6024	26452	20803	-9374	-27540	5016	7704	2262	-19982	-2796	63	89	1
-16136	9816	20024	8039	2454	9802	-23356	-1380	-19148	16842	17607	2974	-15628	16492	-12784	8439	8431	6409	-32768	25692	28756	19955	32767	-27276	-28052	10480	-8820	23958	19334	-11161	-24616	8812	-3780	6831	-21739	819	142	92	1
-13704	-6356	11264	4907	-936	4120	-12192	8492	-11096	12835	15866	-2240	-14416	18728	-9528	7707	8568	7104	-32768	11628	32767	26859	32767	-26680	-21612	6696	-15764	8845	19057	-13112	-25112	7732	-12636	5146	-20964	3775	108	94	1
-11848	-6108	10416	2234	-402	1305	-12072	1656	-8764	-14269	11208	69	-11596	-14452	-9336	-4841	8609	7423	27504	31936	11800	29631	16638	-23825	-24752	-2644	-12540	-2602	15985	-9840	-32768	4256	-11144	-9406	-25526	5836	132	86	1
-9892	-3988	11808	1442	-112	1710	-15808	-7724	-5488	-18092	8115	502	-16580	-3284	-5992	9775	12008	-919	-27548	32767	30392	2235	-17008	-6508	-12112	-10992	-17276	-530	7236	-6973	-31128	-2472	-7132	-15803	-32333	6330	155	108	1
-10072	-5100	11800	377	377	1600	-22516	-8672	-2968	-4968	7188	2884	-19900	7916	-2512	-929	13218	996	9652	25332	12852	-23343	-23702	-4556	-10552	-3532	-5196	20261	-3537	-1068	-24704	800	-4628	-2800	-25702	9207	144	166	1
-10208	-4692	11724	207	645	1351	-17664	-3944	-3272	3934	7384	1416	-16548	1172	-3160	-11888	12559	2776	8220	192	11744	-11151	-19702	1529	-8592	5508	-5056	11977	-11272	6160	-19380	3476	-7472	3143	-22882	10114	145	198	1
-10324	-5092	11152	270	883	1264	-14824	12	-2208	2949	6805	1706	-14156	-4676	-3164	-12935	12562	4561	5136	6972	10528	9340	-17953	13670	-2272	-116	-6464	-7778	-13952	9624	-18716	2160	-9468	1416	-18876	8630	175	205	1
-10288	-4700	10816	291	700	1184	-14608	-1160	-2424	-4535	6369	2501	-14944	-5000	-3008	-7295	13200	5076	-2336	17560	10836	7742	-19340	19091	-3604	-4236	-6904	-14727	-19061	13374	-15508	372	-10416	-3378	-18456	4833	167	196	1
-9904	-5508	10816	111	890	1602	-15996	-4028	-1504	-6535	5834	1291	-14332	-2536	-2852	-2112	13964	7170	-7904	14024	12380	-303	-25491	23369	-3180	-5896	-7756	-12202	-24582	17546	-15288	-508	-10128	-3386	-18465	4602	144	192	1
-10432	-5352	10572	178	757	1742	-16168	-3604	-1592	-7044	5061	1322	-13564	-1612	-2848	103	15659	5614	-9568	8644	12808	297	-31377	28677	-3236	-4732	-7376	-8216	-28854	19594	-7636	-3008	-10764	-1088	-11434	3936	134	148	1
-10552	-4728	11200	482	345	2446	-14376	-3208	-1112	-5086	5535	1451	-15112	-2172	-1300	2341	18025	4790	-12512	7520	13760	2398	-32768	31394	-5400	-2992	-7704	-9382	-32527	22648	-5168	-2524	-10716	561	-7201	1548	133	145	1
-10952	-3360	11600	196	688	1989	-15452	-2428	-1492	-700	6129	1492	-15792	-2648	-1164	2564	17942	6237	-16648	6820	16800	2903	-32768	31557	-6940	-3784	-9924	-15336	-32768	25140	-5256	-2236	-11228	725	-2014	836	131	144	1
-10740	-4104	11188	-431	1376	1708	-16820	324	-1560	-1549	6628	1513	-16588	-1048	-5580	2061	13202	5320	-23284	8236	20664	6184	-32768	32130	-10524	-5224	-13504	-21342	-32768	25381	-4932	-2348	-11896	-1574	1796	321	134	143	1
-10836	-4192	11056	-825	1680	1762	-15764	-2224	-2140	-3583	7113	1797	-16748	264	-3716	4392	11108	3581	-32768	14172	20864	5709	-32768	32767	-11860	-4840	-13964	-21678	-32768	25474	-4240	-1492	-12420	-6586	4377	1166	132	153	1
-10896	-4172	11056	-1083	2272	1697	-15732	-3008	-2456	-2447	7630	1889	-15632	-1320	-1116	1194	13423	4064	-32768	13416	17824	2243	-32768	32767	-21704	-5364	-13072	-10529	-32768	22266	-6172	-1960	-11016	-10093	5018	3775	126	191	1
-11320	-5280	11204	-1971	2316	2340	-17380	-2556	-896	-1994	8066	2251	-16404	-784	-444	-1488	14834	3991	-32768	6384	12620	-637	-32768	32767	-25804	-4432	-12904	-10229	-32768	19467	-11276	2332	-2124	-11823	-958	6525	128	169	1
-10988	-3912	11304	-1808	3852	2837	-17472	-2496	-344	-2196	8197	2274	-18992	556	3296	-1567	11971	1823	-32768	-5200	2608	745	-32768	28771	-26024	-5688	-14892	-6196	-32768	16741	-22732	2564	6320	-16409	-8526	12561	131	161	1
-10480	-3292	13168	-128	6083	2479	-15200	-1328	4476	-5934	12356	3664	-19976	-1544	4188	-3486	9529	622	-32768	-14180	-13888	4421	-29878	15124	-16832	-5728	-12172	2865	-22991	17606	-32768	5564	30672	-13140	-12004	11680	138	253	1
-11188	-4504	13004	-301	9239	2799	-18284	-1180	2316	-6112	14984	4816	-19944	-424	748	-7453	6481	1988	-32768	-26500	-29168	15321	-17226	5010	-8256	-2556	-12356	5341	-10653	10352	-14948	192	32767	4025	11069	2602	132	253	1
-11880	-6356	12348	1047	12573	4266	-18488	-3536	-1252	-4355	16912	4811	-19196	-3868	-2056	-7266	3532	3773	-32768	-17644	-28904	7243	-625	-4226	-4844	-1492	-5332	12279	7405	269	-14472	-6500	22228	12563	508	-6598	137	202	1
-12116	-6516	14064	2947	15870	7004	-18212	-3776	-1920	-1584	18258	5308	-19016	-3688	-3096	-5294	23	3224	13972	-12224	6456	-25900	18193	-20159	-11112	3344	-3976	11952	22225	-7478	-21032	4392	6240	10413	-3394	-3486	141	60	1
-11068	-7120	13624	4065	21482	10706	-20620	-1496	-2424	-1278	19464	5542	-20712	-2908	-696	-4240	-3649	3778	-7556	1976	18700	-11742	18170	-7765	-32768	11996	21792	2440	14118	-2645	-11664	7816	-936	25782	12517	-1280	134	52	1
-11792	-8812	15000	5663	30755	16342	-25760	-1856	212	-3870	20301	5440	-25600	-4040	2492	-3703	-9200	4238	-13696	-16856	21644	-7654	32329	-13542	-9868	-6172	-1152	-23671	15943	-5245	-15668	-7032	6304	3501	1316	1801	136	47	1
-11664	-7844	16392	5796	32767	25772	-31780	1108	2908	-5971	20173	4894	-29104	-964	15052	-1195	-21173	3939	-28508	2084	17108	-3540	14886	-15406	-21568	-11512	-9344	-16795	24002	-15066	-25500	10040	-2028	-18664	7386	5778	129	32	1
-16676	-15528	12408	4549	32767	32620	-32768	2484	12244	-19695	19620	5356	-25400	11460	12936	-1596	-17234	5192	-21964	14896	6592	-14385	7000	-11785	-22120	-948	-20456	-5831	20183	-8126	-14236	-10080	-6532	-6342	6646	-5252	128	96	1
-32768	-8628	15992	8766	32767	32767	-24296	-5084	2744	-24485	20172	4089	-24064	2408	7732	-13637	-17553	4742	-16252	-1176	16140	-8923	2284	-6944	-22040	1640	-17728	-5033	16712	-4263	-9412	-844	-18552	5262	12257	-2370	131	49	1
-32768	-22892	18112	-2723	32767	32767	-25344	-14236	-8652	-20516	21620	6910	-21060	-14656	-9040	-13433	-14711	-1863	-12536	-1428	18468	-7139	-874	-5914	-17356	-4124	-11928	-13218	15249	-2440	-15364	11700	-11876	1476	13575	2075	144	112	1
-28016	-20104	18216	1474	30177	32767	-23940	-5972	-7220	-13429	17622	3977	-26336	-7792	-9872	1210	-18809	-7360	-9836	4876	13708	-3989	-1508	-3189	-15024	-5168	-10872	8840	9231	-3834	-17592	6012	-8228	-6348	13180	2228	142	52	1
14152	-24008	13984	3106	30009	32767	-17676	-7624	-12792	590	10085	3138	-27536	380	-9000	8855	-19444	-6422	-9668	3708	14136	-2563	-444	-2387	-22012	-1104	-7064	13121	6037	-2847	-18376	-4412	-3120	-2005	13610	-2164	132	54	1
-32768	-22032	20596	-7204	6142	4187	-12056	-5740	-31120	16932	7783	3364	-21816	1828	-9516	9743	-20294	-7881	-9152	3028	14544	-1394	575	-1757	-18092	1224	-2912	8472	4892	-1920	-18720	-5296	-504	5420	13716	-4083	121	63	1
-15256	-31080	14244	5277	-18174	-19995	-11008	8004	-9916	686	1544	-785	-23420	680	-6912	3683	-21127	-9872	-9144	3172	14228	17	1572	-917	-15596	2744	-2296	-1326	5912	-2003	-15464	764	-980	8788	14352	-3305	122	78	1
-3512	-14668	9112	15390	-24100	-19059	-10904	-2004	-7864	-11276	-7716	-1538	-20008	-2056	-9476	-2940	-18809	-10120	-9428	3852	13616	782	2174	-406	-17116	3160	-4236	-8967	5780	-1562	-16228	2244	-1948	7907	14487	-4378	113	100	1
-1304	-1920	7516	6829	-23649	-19225	-5772	-8988	-9948	2548	-13834	-3429	-16908	-1792	-10892	-1562	-16175	-10237	-9312	4488	13212	928	2211	-280	-17488	896	-4676	-6672	4090	-1280	-15196	4240	-3236	6833	15431	-4813	114	96	1
-7008	-7408	7060	-4303	-26120	-21590	-2028	-6116	-11300	23100	-18091	-6641	-16048	536	-11148	1704	-15602	-10218	-9360	4460	13160	808	2017	-509	-16064	-2148	-4052	3324	2869	-1191	-14740	4028	-3340	4973	15990	-4059	115	103	1
-10964	-12040	7616	-2817	-31749	-22154	-5620	1576	-12208	30244	-23909	-9248	-11968	1296	-10776	4867	-16429	-8209	-9448	4808	12904	635	1562	-777	-15800	1408	-3900	13173	2625	-793	-15092	3892	-2476	3486	17148	-3272	122	89	1
-9676	-7928	7404	-341	-32768	-24927	-5220	4480	-10364	24503	-30485	-9987	-9108	1476	-11320	5334	-14766	-6561	-9104	4568	13052	386	1339	-1182	-16596	4368	-2580	12241	2891	-399	-13532	3948	380	1723	18925	-3784	127	94	1
-10716	-4460	8020	-3921	-32768	-30371	-4892	5192	-10500	16814	-32768	-8236	-6784	2508	-11884	4767	-10793	-5833	-9424	4344	12756	270	1027	-1202	-16276	5560	-1020	5144	3526	-1034	-14868	3688	-108	1191	19252	-4389	130	118	1
-15784	-6328	9528	-6339	-32768	-32768	-7436	2004	-11376	11156	-32768	-5246	-4784	3704	-12316	2673	-7807	-3719	-9436	4240	12744	63	800	-1278	-14988	3688	-804	-325	4290	-2225	-15852	4844	-3864	1171	14698	-3137	133	126	1
-19768	-6288	12220	-4695	-32768	-32768	-7564	2308	-12524	10606	-32768	-6288	-4384	4056	-11980	3779	-3547	-2484	-8940	3972	12608	-281	467	-1411	-14924	1692	284	-1225	5470	-2187	-17236	996	-2316	-3041	12061	-580	127	121	1
-26984	-6512	14684	-4605	-32768	-32768	-11340	664	-14076	8987	-32768	-8362	-4660	3008	-13112	8654	159	-2080	-9124	4148	13088	-289	494	-1685	-15784	1268	-392	875	6785	-2306	-17736	792	700	-4260	9982	-1213	126	127	1
-32768	-5708	14976	-4390	-32768	-32768	-17272	-868	-12720	9144	-32768	-8249	-5160	3948	-8056	13042	449	-2271	-9836	4256	13268	96	612	-1994	-16616	2424	104	1691	7761	-2449	-18156	4444	2184	-540	10541	-1079	119	126	1
-32768	4164	10324	-7713	-32768	-32768	-22848	-604	-15200	14230	-32768	-6207	-4608	1176	-3568	10782	-862	-4124	-9156	4532	13144	1115	567	-2817	-16880	4220	2040	1651	9485	-2845	-16964	3704	3712	1803	9942	-654	117	109	1
-32768	12124	2840	-12961	-32768	-31403	-24752	-164	-13816	6876	-32768	-3432	-11628	-1612	-120	12881	-4406	-8847	-9052	5332	13360	1628	883	-4047	-14560	6680	2436	2055	11186	-3689	-17216	272	5684	3270	8350	912	127	112	1
-32768	19612	-4412	-8969	-25199	-26764	-25040	-456	-13468	5458	-32768	-3035	-32768	-8616	17632	14669	-25467	-18133	-9328	3436	14876	-606	3935	-4109	-17440	3060	308	3623	13954	-5295	-19792	2092	3208	6920	7167	2143	62	124	1
-32768	16924	-22876	-1616	-21501	-11308	-12040	7188	-11728	-8423	-21808	291	-26608	6272	18160	1509	-2253	-12339	-9088	3728	15788	129	8535	-4512	-21524	-176	380	6657	15111	-6761	-20832	6064	-488	10758	4974	1090	0	123	1
-32768	32767	-28712	-8497	-15481	10644	-3024	-240	-9152	-13083	-5290	-4906	-9572	1632	26112	-8498	10864	2987	-9500	3144	15844	1406	14502	-5167	-20100	1716	-1216	6944	16222	-7160	-20708	3236	-1072	8946	1063	-994	42	123	1
-32768	24056	-27792	-20957	-1508	10309	-7248	1708	-8912	-8071	10160	-3893	-14144	6384	16056	-11841	6599	9375	-9088	3252	16496	1882	21670	-5355	-21568	600	-1512	6101	16347	-8390	-20124	1984	1016	8567	-1311	-290	135	127	1
8876	3100	5352	30241	10678	31770	-17940	-3164	3240	-12459	15622	389	-23264	6196	-2596	-16183	10242	8202	-6824	3876	15632	1320	29894	-6451	-24244	-1392	-140	7803	17947	-8989	-22404	4368	3224	8832	-2843	-897	138	127	1
-12092	-3092	26100	10437	24875	-5953	-32768	-4468	16864	8481	8157	4744	-15064	884	-3100	-24855	14190	2362	-10348	4688	16896	1342	32767	-9531	-24796	-1384	444	8184	18134	-9145	-27580	5932	9508	8358	-10046	-1720	124	126	1
-12404	11644	17584	12384	23061	21059	-18608	-3716	-284	26906	13250	-206	-19824	-10096	2408	-1238	3418	-3909	-11820	7204	18380	3179	32767	-13975	-32768	3292	7336	16187	19840	-9804	-30476	5444	15384	5150	-22128	-2025	106	114	1
-32768	-15284	2064	4758	2305	11596	-16280	3968	-12944	20657	22348	3062	-29312	-12944	1352	24824	13352	-946	-21488	11460	19320	5372	32767	-21289	-32688	10892	12576	32767	18951	-9371	-25080	1044	12484	1057	-19421	-4373	80	106	1
-16552	5740	19360	10077	3030	10961	-29388	-632	-9968	17167	17161	1739	-19244	11104	-15784	12561	13894	6493	-32768	13304	22632	23899	32767	-16181	-27176	12112	-6792	20817	20153	-10091	-24152	8036	228	6519	-21402	774	128	95	1
-12448	-9900	9620	4581	-94	3529	-14680	4720	-11648	16930	16485	-596	-8580	13136	-8076	-1276	10789	9180	-32768	20588	32767	28824	32767	-21104	-22172	8400	-16192	7192	19609	-14573	-22992	6704	-9432	3923	-20406	3601	135	108	1
-10080	-2952	12332	2439	-316	2094	-11844	3612	-7572	-5775	10891	-110	-7256	-6100	-13396	-4917	10627	5725	9708	21020	18424	25097	17568	-19358	-22724	-276	-9532	-3789	20172	-12556	-32240	5408	-8764	-2715	-24029	5637	125	107	1
-11020	-4960	10964	2295	-583	1851	-13148	-4580	-5840	-18001	7342	-1539	-15044	-9828	-6872	2503	12631	1212	-32328	32767	32767	5365	-18019	-16630	-14596	-12900	-18404	-4216	13165	-6529	-26920	-5888	-7760	-9808	-29533	3608	148	98	1
-10968	-5064	11380	1156	-425	1593	-20520	-8216	-4008	-11802	5954	2474	-19556	5232	-4528	3767	13725	270	10848	29408	15584	-24030	-29304	-12809	-11616	-5340	-5396	18328	13	-980	-25236	-892	-4376	-3862	-27094	6447	145	155	1
-10716	-4316	11804	709	-214	1160	-19112	-4860	-2192	1048	5947	1356	-16788	4724	-2896	-6321	14055	3165	14064	-740	12376	-9018	-24867	-4995	-9660	2424	-1576	17952	-9045	6999	-20952	1672	-6988	2908	-24549	8448	156	173	1
-10196	-4076	11656	198	169	475	-15916	-228	-1216	6273	6074	1673	-15936	-2452	-3080	-6257	14295	5916	11256	7952	9568	14113	-18774	8247	-3464	-1192	-3632	1176	-13707	11323	-17904	816	-8412	4220	-20660	6511	168	218	1
-10668	-4652	10756	289	82	231	-14448	44	-900	-498	5869	2161	-14380	-5204	-2392	-1856	14816	5526	4008	17860	10556	13310	-15131	16638	-4460	-4752	-5084	-5549	-19223	14856	-17172	664	-8312	3553	-20175	5727	161	200	1
-10308	-5336	10424	85	137	316	-15256	-4396	-368	-4511	5307	1514	-13460	-2916	-2184	2852	15535	6648	-4076	13688	14048	6952	-16782	24669	-4020	-4984	-5996	-5261	-24545	19108	-10980	-1464	-8980	2950	-17635	2007	143	186	1
-9556	-5136	10668	111	134	1201	-16088	-3848	-172	-4184	4949	1021	-14100	-1816	-1176	5013	17378	4647	-8072	9752	15588	6991	-21405	32767	-3788	-5060	-7104	-4667	-29038	20772	-5700	-1608	-9908	4079	-11921	1521	139	181	1
-10048	-4960	10228	429	-227	1444	-14364	-2620	1128	-6456	5204	2184	-14920	-2496	1124	3270	17863	3436	-11980	9524	17344	7679	-25069	32767	-6420	-3780	-8320	-5512	-32768	23630	-8452	-1288	-10380	5365	-5370	2222	130	187	1
-9496	-5140	10520	1070	-1038	2312	-14656	-4556	2688	-5712	6597	2032	-15788	-5152	-1976	-620	13024	3448	-17472	10196	20096	8113	-27971	32767	-8120	-4680	-10380	-11294	-32768	26087	-8008	-480	-10824	4067	-21	-387	131	175	1
-11176	-4420	11480	1204	-807	2550	-14876	-4864	3180	4216	8623	1933	-20700	-2736	-576	5492	9197	4021	-32768	19512	16936	9863	-32768	31507	-12740	-5532	-15432	-19859	-32768	25753	-7736	-1044	-10284	-2438	2509	-640	136	144	1
-10316	-3900	11384	790	-131	2095	-17416	308	620	5064	10337	2408	-18712	1532	1568	4800	9835	2923	-32768	5960	17032	1226	-32768	22766	-17940	-1852	-11760	-18176	-32768	22793	-7528	-3548	-7844	-8873	-1000	715	130	146	1
-11588	-4504	11600	278	998	2497	-17956	1252	-404	-258	10726	2151	-15396	4176	712	-1505	12671	3456	-32768	22252	7712	4734	-32768	30238	-21440	-11552	-7236	-10038	-32768	22313	-8008	-1036	-7228	-9359	-2711	702	127	141	1
-11640	-4668	11736	-354	2255	2768	-15732	-508	216	-5344	11133	1734	-16788	3236	-852	-4903	11688	3164	-32768	16596	2920	-3737	-30576	32767	-16732	-6800	-6820	1444	-32768	19377	-9612	2620	-2480	-8458	-2876	4143	124	127	1
