#Activity	walking 
#ActivityID	1 
#Date 09-27-16-13
acc_rf_x	acc_rf_y	acc_rf_z	gyro_rf_x	gyro_rf_y	gyro_rf_z	acc_rs_x	acc_rs_y	acc_rs_z	gyro_rs_x	gyro_rs_y	gyro_rs_z	acc_rt_x	acc_rt_y	acc_rt_z	gyro_rt_x	gyro_rt_y	gyro_rt_z	acc_lf_x	acc_lf_y	acc_lf_z	gyro_lf_x	gyro_lf_y	gyro_lf_z	acc_ls_x	acc_ls_y	acc_ls_z	gyro_ls_x	gyro_ls_y	gyro_ls_z	acc_lt_x	acc_lt_y	acc_lt_z	gyro_lt_x	gyro_lt_y	gyro_lt_z	EMG_r	EMG_l	act
-8488	-4352	13800	-920	2140	470	-15460	-804	-2848	-4503	5492	740	-15044	-3388	2228	-5580	12269	2546	-8924	8564	11604	-295	-32768	22110	-11900	-1408	-3296	-4353	-31924	12719	-10840	-940	-6432	-5988	-11006	7498	133	116	1
-8444	-3900	13872	-1112	2107	483	-15188	-908	-3160	-1875	5748	505	-13812	-2028	2300	-5348	11266	3101	-13412	9984	14732	-2988	-32768	25047	-14544	-804	-5808	-8051	-32768	13363	-10396	-1240	-7368	-9354	-10681	7848	137	129	1
-8372	-4788	13488	-1038	2339	1144	-15008	-64	-3392	-2952	6076	871	-14084	-3668	4016	-7325	12190	4165	-19080	10896	15920	-5211	-32768	27248	-17812	-1320	-6548	-12536	-32768	12288	-8152	-1964	-7188	-12566	-11607	8728	130	131	1
-8628	-3600	13544	-771	2452	1102	-15756	-2292	-3944	-3215	6857	1435	-14920	-4548	2768	-5899	14593	3334	-18064	11048	17136	-7137	-32768	27004	-21508	-2660	-6648	-10386	-32768	13684	-7452	-2068	-5948	-18534	-11126	8956	123	127	1
-8788	-5144	13128	-296	2142	1376	-15484	-1876	-3884	-3053	6907	1348	-13648	-5008	1768	-4581	15893	2444	-19540	10828	18912	-7586	-32768	26611	-23680	-2008	-8104	-10107	-32768	13235	-8868	-1552	-2292	-20236	-8772	9486	130	125	1
-8496	-5212	13260	2	1900	1763	-14436	-728	-3784	520	7898	2280	-14144	-3404	484	-2393	15292	1963	-25520	12824	21952	-7091	-30805	24784	-25700	-3600	-10140	-7459	-32768	13277	-9672	-1940	1972	-18309	-7444	9339	126	123	1
-8812	-4684	13508	40	2374	2215	-16024	508	-3520	1570	8734	2339	-15968	-3000	204	11	13348	2172	-31580	12284	23296	-6558	-32768	21341	-26056	-3116	-13740	-3295	-32768	14395	-12456	-1328	5380	-14097	-7429	7511	123	118	1
-8968	-4604	13680	-43	3367	2459	-16800	1152	-3624	1441	9826	2508	-18048	-3172	1752	759	11377	2163	-31716	12272	15468	-3869	-32768	14969	-28888	-1284	-13608	-2417	-32768	15457	-15876	2076	10220	-4350	-6879	5523	114	122	1
-8564	-4812	13940	-483	5629	2477	-18260	404	-2956	2239	11506	2980	-18396	-3776	3260	-440	9748	1525	-32768	2552	5400	8665	-32768	11906	-27300	-10968	-19204	3515	-29724	12943	-9448	2508	22692	1304	-2409	6274	117	126	1
-8900	-4524	14240	-1387	8919	2981	-19148	1540	-3684	2699	12960	3283	-18612	-2924	5340	-723	10257	1572	-32768	3272	-17200	5927	-27232	947	-9240	-1132	-25980	8407	-16214	13466	-15292	52	32767	-888	-846	6826	125	128	1
-9348	-4308	14452	-2601	13299	3438	-20052	2984	-3940	1314	14864	3657	-19600	144	6596	-3063	9349	1921	-32768	-2748	-32072	12952	-12066	-5266	-7140	-6700	-23484	6206	5009	6131	-19264	3544	27880	-52	-3867	3967	125	126	1
-8840	-3772	14780	-4287	18951	3814	-21376	4784	-2712	-1331	16991	3878	-21708	1360	8500	-6333	4860	2578	-32768	8008	-20480	539	10059	-2450	-10068	-4968	-26440	-210	17889	-2669	-15748	2248	12616	2500	-3512	2530	126	124	1
-9388	-4644	14408	-5040	26545	4309	-23184	3540	-784	-3651	19633	3904	-23368	-696	14916	-8924	-4108	2817	-32768	5540	-2136	-4894	18277	1711	-14016	-9332	-23620	-11763	24478	-6165	-8160	-544	-924	-343	1362	-284	126	117	1
-9932	-6676	14644	-6223	32767	5786	-26392	2568	4752	-7974	22522	3416	-22444	-1264	32456	-3998	-22617	4697	-15316	-2668	12968	-10923	23752	5547	-17352	-12800	-3824	-14976	18061	-5855	-8196	-956	-8	2882	7691	-4348	128	122	1
-8988	-9800	16580	-6777	32767	10195	-32136	-1744	9904	-13348	26116	2458	-11488	3528	31648	-12118	-17681	7936	27536	-32768	22136	8722	32767	11173	-25284	-12716	27380	-8173	8563	-5056	-21024	9044	5700	6380	10386	223	120	133	1
-11560	-9948	20580	-11541	32767	17386	-32768	-2772	11584	-22363	28034	2733	-18220	-4740	12488	-18922	-12605	6143	-32768	-13596	23084	7033	32767	-17812	-24996	-1532	-15288	-15585	22902	-7485	-18884	-3220	3880	-12586	15670	-1771	137	157	1
-32768	-12136	22968	-11694	32767	22399	-29760	-420	-11188	-19141	30070	5107	-24424	-14032	-5904	-19993	-10629	5457	-32768	32767	27940	-3303	-1419	-15278	-17404	10904	-23484	-14107	24025	678	-19936	-4352	-6692	6789	7732	1921	132	133	1
-32768	-8728	23528	-11042	32767	22468	-28692	-3552	-6040	-11597	23847	9408	-32412	-11760	-11564	-730	-12631	-1227	-2396	-13168	18672	-2745	1062	-11091	-16184	-16784	-1044	-4512	17424	-5552	-14752	384	-15428	20794	6961	144	142	129	1
-32768	-12952	27588	-5652	32767	27356	-16872	-3304	-12676	-950	19270	8300	-31936	-588	-9952	10071	-17074	-5010	-10900	2272	16676	-2934	3777	-3318	-11900	-776	-11128	7817	16293	-41	-10964	6168	-13932	22638	10755	-1866	132	163	1
-32768	-19640	32767	-5530	8265	19539	-11764	1912	-25708	2841	14001	4976	-27728	-4984	-3596	10832	-20143	-7363	-8664	7628	13676	-1526	1737	-2402	-17636	408	-8900	10338	12246	-1112	-22460	12448	-10036	11034	13887	-1093	139	155	1
-15020	-16440	32767	-4191	-29851	12092	-12068	3372	-24232	1185	12076	4523	-31316	-2256	-7352	9334	-17036	-5215	-8392	5232	13892	-961	990	-2076	-18772	2340	-9108	8051	11969	-1151	-22000	-1936	-4612	-7334	16020	-1851	113	144	1
6968	-9208	11032	-425	-32768	8734	-8952	-3000	3692	-10189	-6323	931	-26024	1716	-6560	2143	-16750	-6778	-7484	3884	14224	732	1698	-1071	-18504	-7372	-5224	-11096	5243	-2833	-20524	-3140	-2660	-4881	16176	-4181	124	145	1
7244	-9748	7696	-557	-30381	4861	-3744	-2168	-352	-158	-13992	-1548	-18648	-400	-6660	597	-16141	-8384	-7628	5224	13684	1741	2391	-709	-17032	-3316	-4620	-1558	4781	-454	-16908	-1788	-1032	-881	15426	-5364	130	119	1
440	-10864	9704	966	-29425	145	-1492	-728	-2564	4631	-20223	-4472	-14444	-2512	-8084	6068	-12312	-10230	-7860	5308	13412	1872	2222	-733	-17024	-1468	-4624	3150	4706	187	-16764	1036	-884	2802	14788	-4835	132	110	1
-4596	-11276	12348	251	-32768	-7466	-4120	1340	-5692	4273	-26272	-6055	-13572	-28	-9112	4775	-11719	-9361	-7372	5768	13524	1699	2448	-883	-17304	1544	-3780	-291	3887	-72	-16860	2988	1116	-82	14214	-4091	128	144	1
-8288	-10764	13564	-25	-32768	-15601	-4580	1160	-6324	2748	-30968	-7201	-11980	-1384	-9540	4816	-10558	-8420	-7440	7172	12472	1781	2518	-1690	-16976	632	-3604	-2234	4007	-296	-15204	1304	2860	-644	12075	-1818	127	108	1
-10140	-9320	12452	162	-32768	-21908	-6920	656	-5492	3459	-32768	-9066	-12088	-1928	-9304	5611	-10301	-7326	-7932	6080	12608	1624	2739	-1790	-16372	-1500	-3924	1461	4227	-29	-14820	636	3588	2377	11389	-1513	130	135	1
-12392	-8968	12636	217	-32768	-24517	-8620	48	-5408	6315	-32768	-11199	-10016	1504	-7784	9998	-9958	-6428	-8004	5652	13000	1466	2970	-2090	-16512	-1032	-3700	4098	4695	397	-14508	1616	5232	5752	15685	-1749	143	127	1
-18172	-9800	14912	491	-32768	-24893	-12532	-384	-4692	8280	-32768	-12832	-9280	2840	-11584	13878	-7186	-5441	-9028	7124	11796	1248	3629	-2635	-18104	868	-2884	3570	3719	-26	-15440	4704	2796	9034	17841	-3145	130	117	1
-21492	-9904	15964	-1356	-32768	-24963	-16840	2600	-7756	8218	-32768	-13948	-7876	4200	-10748	20502	-6913	-4622	-8100	6188	12528	1478	3728	-2602	-15128	112	-2992	101	6387	-1020	-18668	5048	-288	6355	13909	-3220	131	123	1
-23876	-13904	18268	2290	-32768	-24787	-22408	1284	-9068	9464	-32768	-15042	-6784	5180	-8388	22505	-5276	-2981	-7924	6000	12724	1488	4356	-3256	-16124	-784	-3332	87	7284	-720	-16960	2324	3760	1985	10240	-1559	130	115	1
-27192	-14520	22048	4983	-32768	-25873	-30016	2268	-11024	10769	-32768	-15891	-7456	4528	-2864	17384	-2207	-2286	-7956	5264	11792	1940	5373	-3167	-16296	-1992	-2336	995	8716	-801	-15548	2504	3328	768	8995	-1729	123	115	1
-28712	-14552	22912	4812	-32768	-26181	-31224	2592	-15984	8834	-32768	-15996	-10456	2068	-1284	13032	735	-4283	-8928	5476	12656	2581	7025	-3463	-16840	-616	-3368	853	10236	-1044	-16636	2760	4852	4372	9163	-1831	126	132	1
-32768	-13256	19924	3231	-32768	-25897	-27672	1520	-18644	8468	-32768	-16607	-14360	-1416	-4064	7511	5117	-5194	-8152	5864	13328	2633	9573	-4002	-18064	-600	-1936	-269	11805	-1504	-17916	2968	6496	4500	10615	-2559	119	132	1
-32768	-3380	20248	621	-32768	-28160	-28648	11108	-27416	-9600	-32768	-10876	-21392	-8976	29732	6086	-15474	-5518	-8624	5432	12908	2657	10066	-4052	-19112	-1308	-2120	-463	13942	-2420	-17668	3920	7044	4350	8628	-1856	114	135	1
-32768	-4432	-23324	-3244	-25335	-23921	-7328	-1960	-22832	-9889	-19069	-5558	-11312	3556	32767	1242	-4430	-5910	-8340	6376	13560	1976	17072	-4365	-19804	-960	-1792	-1110	16007	-3139	-18492	2460	8056	5825	6850	-1698	129	120	1
-32768	27340	-32768	-13527	-9137	1922	-3900	8376	-21900	-8611	4785	-3482	-16968	-316	28520	-5177	-4718	1610	-9016	4784	13972	1495	22634	-4780	-20520	-3672	-1916	-783	18228	-3566	-19880	3028	9508	6295	1815	-2763	130	124	1
-32768	-16184	-23420	3148	15493	13917	-15848	-1780	-18892	-4287	18834	1320	-14516	-288	9096	-13903	-1040	2093	-8588	6508	14008	2499	30662	-5198	-24224	-2760	320	768	20639	-2461	-21532	2308	16340	7353	-4079	-3034	128	128	1
-16676	12856	7228	11970	22464	15022	-13844	6432	-11544	6280	24644	7195	-7732	-5168	-4828	-11758	4950	-822	-8728	6088	14948	5577	32767	-7031	-26888	-5600	3380	5430	23512	-1280	-23012	-1772	32767	5702	-25119	-3011	138	131	1
12888	7836	19592	-4358	32767	980	-32768	18660	11072	21352	16608	5942	-20420	-2100	9292	1403	135	3906	-5012	9132	19472	11886	32767	-9697	-32768	-5208	11204	18779	25115	-390	-9156	-7296	23140	11378	-18587	-6857	116	134	1
-32768	13712	32767	-8132	30215	3851	-14972	13764	-13920	10034	22472	8662	-12096	3608	-3900	9903	11974	5802	-14908	8788	18664	17056	32767	-17466	-32768	1996	7984	29752	25666	579	-20580	-2680	4780	27775	-2900	-8426	102	138	1
-30844	-32768	5804	7407	8803	9791	-20408	-18056	-18936	874	22974	711	-16916	300	-11432	2254	9733	-201	-32768	12652	20160	14705	32767	-17721	-24092	4952	-12944	21580	23372	857	-27224	8112	-10684	32767	-3981	-5656	115	121	1
-13652	13488	25356	15159	11955	11541	-14328	-3884	-10096	27300	18415	3425	-14888	-2404	-17092	3759	10163	-781	-32768	21360	25920	11032	32767	-16247	-23568	-828	-22072	9947	24609	-3185	-30412	4132	-7880	8619	-18456	4458	113	126	1
-5752	-13868	8924	6684	2878	8026	-9848	9664	-15104	13662	13076	4483	-14780	-748	-8312	3124	9786	-4337	-29652	6324	32767	7874	-2947	-13168	-22512	-9392	-18432	563	20171	-7646	-32768	1904	-4996	-7948	-18659	7715	107	119	1
-10476	-3940	13876	4134	795	5028	-21172	10012	-11372	410	10518	4330	-21572	-544	-7552	-2568	11035	-2578	7660	-196	27280	19775	-25361	-17400	-19976	4952	12304	20612	6275	-1997	-32768	-5352	-6620	-7259	-19219	5284	117	116	1
-10716	-844	15160	3338	642	2434	-19048	5872	-7448	-4312	9706	2354	-21472	596	-3884	-2884	13813	702	7308	14344	22056	12303	-29115	-15517	-7824	7372	3932	18660	-2727	3696	-27112	-5032	-5560	778	-19252	4029	102	118	1
-9216	-2444	14528	1099	744	338	-17196	2496	-5708	3849	7670	1382	-18196	432	-2616	454	16494	3355	5184	12876	16048	526	-30508	-11229	-7360	3248	2056	8886	-10463	7508	-19644	-2444	-5296	3256	-16309	5148	132	118	1
-8108	-3564	14104	-289	1097	-407	-16532	792	-5020	9236	5792	738	-15800	-808	-1460	2123	17215	4451	900	8088	15028	1195	-32768	-3579	-6444	-780	-252	3234	-17257	8778	-16872	936	-6676	2543	-13718	8354	136	114	1
-8308	-4552	13828	-392	1190	-108	-15596	800	-4136	7046	4862	803	-16052	-1428	92	1217	16528	3265	-4044	8720	13364	6065	-32768	4773	-7140	-2252	-2052	3952	-21973	9970	-14176	1688	-7044	-1058	-13254	9296	118	133	1
-8504	-5240	13436	485	530	650	-15220	976	-3656	6181	4896	706	-15636	-3748	1136	-1507	15498	2679	-5532	10048	10488	5659	-32768	11774	-8540	428	-3400	1152	-27019	11661	-12584	-444	-7128	-2418	-12540	9099	135	129	1
-8204	-5264	13448	1654	-8	1782	-16104	-1688	-1936	-1564	6709	129	-14696	-3992	1264	-2796	14392	1928	-6904	9448	9784	1429	-32768	17091	-8904	-884	-2120	-1433	-31309	12991	-11712	-1096	-7556	-4356	-12127	7274	144	117	1
-8552	-3784	13828	1752	-189	1781	-15296	-1844	-2868	3563	6265	1281	-13392	-3600	2844	1264	13832	848	-11260	9232	13148	-842	-32768	21397	-11992	-1276	-5156	-4923	-32768	13779	-9636	-2896	-7320	-6847	-11268	5940	135	134	1
-8340	-4048	14076	1154	121	1512	-15764	256	-3244	6751	6159	1316	-15628	-1236	2572	805	13491	1061	-15528	9548	15976	-2272	-32768	25068	-14348	-1988	-5952	-8338	-32768	13908	-8160	-2640	-8108	-8744	-12631	5455	134	122	1
-8348	-4224	13872	1384	353	1750	-16488	1100	-3580	3167	6959	801	-16872	-476	2316	-3805	14202	1216	-16992	8780	16656	-2853	-32768	27285	-19548	-4012	-6464	-8681	-32768	15096	-6944	-1820	-8328	-14597	-11767	6273	118	111	1
-8528	-4204	13752	1417	368	1823	-15676	1288	-3928	-688	7567	867	-13736	-2624	4556	-5718	16474	788	-19892	9028	18652	-1296	-32768	27838	-22712	-5340	-6948	-5484	-32768	15135	-7300	-3564	-5648	-17011	-9389	6396	127	129	1
-9064	-3308	13656	641	494	1532	-14740	-44	-2812	-690	8664	1358	-13160	-3488	4388	-4803	18773	933	-25044	13572	21876	-4362	-32768	25955	-24896	-2548	-10684	-3232	-32768	15767	-8596	-4048	-1552	-16432	-8031	6937	125	124	1
-8372	-3872	14192	354	942	1777	-14976	-712	-2480	2267	9926	1330	-16564	-4220	2656	-1842	15529	1039	-31336	12972	22948	-7544	-32768	22665	-24960	-3388	-12568	-3316	-32768	16415	-10536	-1136	2112	-15280	-5715	7381	118	121	1
-8544	-4440	14044	-599	2286	2808	-17332	56	-4172	1994	11276	848	-18644	-3508	592	90	10894	938	-32768	7344	18204	-3522	-32768	21431	-24488	-7172	-12948	-3492	-32768	15441	-14644	3392	2868	-7935	-2473	6810	119	124	1
-8344	-2448	15040	-1091	4701	3031	-17484	688	-4544	1610	11558	842	-20312	-3536	2536	-1487	8434	1320	-32768	10000	8076	1057	-32768	22450	-32768	-6432	-20376	-4225	-32768	12077	-13184	7556	19912	-4053	-6964	7853	115	122	1
-8304	-2332	15096	-1621	8428	2599	-18744	3440	-3696	-3440	14574	1637	-17720	-892	4436	-4172	8290	1224	-32768	9796	6032	-319	-31790	22294	-13356	-3520	-25572	-5227	-25235	8738	-12652	400	32767	-9598	752	6225	122	129	1
-8556	-2428	15196	-1692	9072	2513	-20172	1336	-3632	-922	16160	2212	-18804	-612	7260	-6468	7862	1734	-32768	-8080	-32768	8978	-14958	3345	-2528	-12508	-26800	-7774	-1276	4864	-20548	-3184	32767	-9730	-3904	2075	124	131	1
-7996	-3436	15248	-2423	19007	3830	-20440	2392	-2760	-1611	18475	2531	-19892	-1268	9504	-7194	3624	2120	-32768	9700	-26120	8543	8475	4799	-8572	-6148	-26612	-289	19265	-3413	-15780	-112	15572	2474	-4108	-1334	122	118	1
-7840	-4964	15152	-2792	26155	5420	-23628	1348	-668	-3360	21224	2626	-20424	-1524	9660	-7287	2799	2040	-32768	6444	-6460	-8878	27081	977	-19472	-2988	-21804	-6283	23603	-6127	-12596	372	1848	3876	18	-1569	121	118	1
-7592	-6572	15636	-2411	32767	9223	-27836	1680	1944	-6589	24279	1121	-24296	-1004	32767	-10419	-22049	4464	-8848	11728	28964	-9110	25068	-73	-26432	-8240	13060	-9746	12717	-7424	-4480	-1728	-4528	-12640	11339	-3270	130	125	1
-10268	-8496	16840	-3459	32767	14999	-32768	2692	7428	-15524	27051	-1195	-14844	3356	32767	-12928	-17982	7451	-5060	-21384	9156	19872	32767	519	-31928	-9272	32767	-9567	3936	-8502	-29740	-1052	17204	6067	11412	-2039	121	115	1
-10788	-8920	19364	-5548	32767	22595	-32768	-4036	11104	-27590	28457	-643	-19832	-1940	10000	-20146	-11842	6247	-27888	12004	32767	12617	21653	-12262	-30188	1100	-9244	-6229	28039	-6763	-23616	-12752	10432	3207	6383	-3168	136	157	1
-32768	-9348	26588	-6296	32767	28861	-25800	-4560	-9140	-24895	28605	1629	-24356	-8864	-6904	-23855	-10922	5881	-10292	10004	10984	-7131	12817	-8229	-23600	6164	-23812	-13576	18371	-1218	-19076	-304	-15100	20600	9486	1161	136	139	1
-29600	-12004	17520	-9592	32767	25755	-27208	-2572	-3476	-18780	23873	4200	-32768	-5220	-11260	-7522	-16974	-990	-13632	17980	9992	-1864	2618	-7883	-9616	-11504	-10452	-507	18339	-3155	-9428	6388	-16988	16540	9395	-267	132	145	1
-32768	-15340	32767	-10044	32767	31146	-14472	-2468	-28380	-9476	20495	1100	-30324	3764	-3688	754	-21128	-4277	-9160	868	16584	-1173	3334	-4423	-16584	-3252	-9852	7196	11764	-2014	-20588	9588	-14184	9847	14325	-1890	136	150	1
-16120	-7728	32767	-12194	-14215	22255	-15284	1252	-11520	-13202	9734	-1937	-32440	-3188	-6932	-2877	-19350	-5381	-10004	3308	14984	-944	2337	-2876	-20128	348	-9200	-1095	8318	-2894	-24400	3988	-6168	-5664	14551	-2676	133	150	1
3428	-18252	24920	-14774	-28859	10772	-10356	-2212	3628	-17299	449	-4475	-32492	-3468	-7444	-2895	-18967	-5189	-9304	3308	14752	348	1840	-1999	-19600	-7860	-6036	-7674	6042	-3396	-20092	-6892	-1448	-7441	15924	-3874	120	142	1
10044	-16888	7596	-5683	-23973	261	-5692	-2468	3404	-6290	-8188	-7095	-20720	2256	-6640	-6346	-17243	-8252	-7476	5040	13720	1895	2236	-555	-17396	-5024	-4012	-4052	4486	-1209	-17220	-3756	-240	-3868	14535	-4777	127	126	1
4796	-11196	9564	-3402	-20860	-11160	-4132	1492	-792	6521	-15055	-9304	-16304	-1984	-7608	-4457	-15171	-10356	-6964	6468	13384	2240	2966	-586	-16844	-1296	-2668	3453	4905	-440	-17800	52	1380	302	12784	-4934	128	117	1
-1512	-8928	13324	-3901	-22197	-21359	-4352	2244	-3776	7954	-21412	-9970	-13916	-2260	-8504	1477	-12711	-12124	-7192	6244	13160	2270	3030	-692	-17520	-24	-3140	3327	4718	-583	-15920	2120	1936	404	12730	-4162	137	114	1
-9680	-6124	18584	-2867	-29661	-28510	-4136	2488	-6524	8339	-27141	-10775	-12632	-1176	-9492	2129	-11525	-10823	-7604	7184	12188	1268	2791	-2227	-16184	1768	-2964	-379	4315	-659	-15276	2588	2100	-926	11865	-3666	128	133	1
-11848	-2744	17440	-1130	-32768	-32212	-6692	2540	-5148	8371	-32104	-11582	-11316	92	-9028	4524	-10216	-9533	-7972	6952	12036	620	2469	-3097	-15108	600	-3748	-1315	4548	-1287	-13012	2028	3428	872	11769	-2172	130	152	1
-12256	-824	14072	63	-32768	-31756	-8232	2180	-2924	11620	-32768	-12317	-11228	508	-8484	7806	-10178	-7676	-8760	6416	12268	279	2272	-3188	-15668	-1624	-3280	324	5483	-1521	-14604	2240	3876	1019	11442	-1926	148	105	1
-15904	-288	15692	1217	-32768	-27664	-11372	3104	-4564	13545	-32768	-12874	-9492	4072	-9200	12153	-9146	-5391	-8504	6508	12348	-28	2254	-3419	-16876	-940	-3760	95	5932	-1498	-15204	2480	3912	4055	16432	-2388	133	127	1
-19252	-1620	16980	1891	-32768	-22294	-15132	4108	-5944	12850	-32768	-13058	-7748	5856	-10888	15929	-7384	-3696	-8652	5428	12424	97	2599	-3207	-15948	-2104	-3036	-1453	6607	-2169	-17232	2036	2112	4249	17183	-3513	132	142	1
-22660	-2776	21436	1901	-32768	-18994	-20340	5556	-9116	9263	-32768	-13149	-5424	5792	-8408	20870	-5129	-2625	-8696	5512	12624	240	2650	-3144	-16016	-1736	-3652	-2260	7412	-1931	-17804	1284	1116	1835	12740	-2996	127	116	1
-26580	-4436	24200	69	-32768	-17713	-27592	6808	-11232	4148	-32768	-13437	-6928	3872	-3792	17935	-3560	-3249	-8772	5236	12804	903	4491	-3428	-16944	-2708	-4000	-1858	8368	-2190	-17208	1720	2388	-1907	10846	-1965	126	138	1
-32768	-2556	22328	-3280	-32768	-18751	-28728	7800	-15416	1262	-32768	-11974	-9520	-1348	-1844	14169	-834	-5073	-8112	5992	12884	1416	6142	-3348	-17808	-1968	-2328	-1365	9300	-2555	-16548	2056	5152	-2445	10317	-1523	121	127	1
-32768	-5700	18868	-501	-32768	-15881	-27892	3568	-21064	-2483	-32768	-10873	-18296	-3840	5096	8948	-795	-7256	-8308	5420	13244	1800	8570	-3582	-17036	-2004	-1624	-2223	11367	-3267	-16252	3112	8676	142	9899	-2300	119	137	1
-32768	-4	1608	441	-32768	-13491	-24496	4952	-18856	-2099	-32768	-7503	-23524	-6752	26444	3313	-11135	-4897	-8132	6588	13848	1962	12326	-4177	-19948	-1628	-888	-2290	13738	-4016	-18784	2760	9744	2584	10231	-2669	126	131	1
-32768	3304	-19868	406	-21713	-11603	-10444	6008	-24392	356	-19663	-2854	-7272	7564	32767	-793	-2831	-1161	-8808	5440	13896	1759	17191	-4757	-20268	-3520	-184	-2356	16421	-4803	-20076	1848	11468	3199	6645	-2291	122	133	1
-32768	11176	-32768	-8333	-7488	-6165	-3236	9840	-23616	-2156	1482	-2160	-18008	3764	28004	-1890	-539	1559	-8484	5820	14304	1595	23219	-4831	-21164	-2680	540	-2303	19252	-5447	-19924	2768	13764	3863	-259	-3017	128	121	1
-32768	-4084	-25052	-1346	15725	-2866	-13024	500	-19804	-7393	16847	1788	-14096	2140	13596	-12266	1306	3759	-8276	7656	14804	1920	31816	-6790	-24328	-1288	2252	-1708	22236	-4653	-20916	3660	21496	3384	-10273	-2702	140	120	1
-1948	10580	11452	3852	26732	4196	-19964	-432	8256	-5704	22240	6633	-12784	-3032	1544	-17766	5336	2853	-6948	7604	16540	4143	32767	-11109	-29864	-2616	5492	3458	25169	-4160	-22792	8228	32767	9447	-28228	-1858	129	137	1
-17016	8296	20592	-5434	32767	8349	-32768	10784	-5724	20244	21915	5504	-17936	-10196	9828	-8597	17345	319	-7384	9000	17544	4829	32767	-11822	-32768	1396	10816	15742	27021	-3131	-19104	4992	19100	19829	-11281	-7634	121	131	1
-31928	-16904	32767	-1873	15980	9746	-13832	2772	-14212	-5633	22742	5482	-20572	-364	-3332	401	4624	7263	-19876	9360	19476	10970	32767	-29186	-32768	6260	4120	21142	25223	-2315	-21956	2344	-3296	26480	-1062	-5900	119	122	1
-1516	-14036	6416	12639	13319	6980	-19764	-17628	-10808	10753	21203	1206	-15576	-7992	-18176	611	5351	-786	-32768	10984	19496	13338	32767	-26059	-20596	2536	-14524	12034	24224	-2916	-27980	7836	-14608	18177	-9733	345	103	137	1
-18104	-996	18700	4992	2260	7841	-10000	5664	-14160	22192	15050	5653	-7120	-6940	-11568	3081	6703	-2094	-32768	30208	32767	4398	30396	-21784	-16568	-7656	-32768	3732	23446	-9060	-27620	-464	-3956	-5436	-18485	8986	120	136	1
-10876	160	17276	3790	2471	4303	-17576	7612	-9844	2267	11832	3998	-20508	1596	-8724	-272	11193	-2299	-6548	14560	32767	5053	-13453	-8851	-30176	-5344	10156	2893	11217	-5305	-32768	-4304	-8604	-8545	-17679	8349	114	103	1
-9428	-3024	15196	2637	1555	2431	-19684	5628	-7488	-6771	10600	2542	-20704	352	-4600	-5077	11056	1387	4300	11304	26120	11866	-19894	-9273	-12112	5668	4960	19693	2408	205	-28592	-6860	-4980	-2871	-19253	6812	104	79	1
-9956	-3632	14476	1259	1186	981	-17156	888	-7488	-171	9032	1751	-18548	-2820	-4252	-2302	13943	2975	8668	12608	18176	4752	-27672	-5142	-8408	3496	3324	10713	-4691	3797	-22436	-4120	-4720	-1666	-17163	5583	122	130	1
-8848	-4128	14032	35	1144	230	-16156	-152	-6056	6276	6263	1666	-18016	-2412	-4228	-1764	14367	3554	6072	9720	14164	-720	-29304	-244	-6244	3276	1852	2218	-13203	8002	-17780	-936	-5288	1957	-14147	7704	137	123	1
-8920	-3952	14036	-11	1155	232	-16204	-360	-5772	9228	5411	1605	-16660	-1524	-1764	1338	16047	3820	168	8072	13728	1771	-31435	5437	-6844	28	-1136	-1385	-19066	9440	-15244	940	-6664	-362	-13496	9550	122	123	1
-8504	-5284	13776	1037	397	1525	-15728	1476	-4092	2259	5908	1056	-17500	-2160	1016	-2388	15275	2985	-4296	8488	12736	3123	-32768	11428	-7256	-1512	-3044	-3344	-23725	10450	-13376	24	-7064	-2719	-13239	9703	137	126	1
-8268	-4264	13804	1169	344	1738	-16032	420	-2092	-3222	6306	900	-14072	-2504	1724	-3696	14186	2288	-5780	7408	10820	2408	-32768	17270	-8020	-2204	-1860	-4817	-29372	11577	-11640	-1704	-7208	-3413	-11752	8239	135	128	1
-8100	-4276	13680	1805	281	2304	-15240	-2400	-2976	970	6246	1266	-13824	-3608	2064	-1969	13345	2451	-8912	7944	12080	-348	-32768	21515	-9800	-2544	-3020	-4503	-32069	12546	-11088	-2496	-7464	-7275	-11674	6667	134	129	1
-8000	-4776	13732	1628	248	2291	-15268	-2140	-3644	5008	6182	1893	-13408	-4216	1992	-687	12783	2131	-12628	7104	14492	-1890	-32768	24688	-12788	-2996	-5200	-5770	-32768	13090	-9380	-3300	-8464	-9020	-12111	5609	136	128	1
-9044	-4900	14328	1149	6	2042	-14136	1200	-3348	1886	7151	2503	-15720	-1956	2416	-2927	13346	1237	-14620	7076	14484	-2876	-32768	25484	-17844	-6204	-2916	-7210	-32768	12708	-7384	-1484	-7968	-11692	-12517	5116	127	126	1
-8232	-2296	14608	1863	507	2990	-15440	456	-4668	1936	8164	454	-14980	-2644	4584	-4764	14646	959	-17908	8852	16980	-1535	-32768	25891	-20296	-3688	-6940	-7143	-32768	14959	-7420	-3092	-5936	-16351	-11799	5457	127	121	1
-8448	-4108	13836	967	273	3113	-15316	644	-2776	-1738	8873	1556	-14528	-2184	4244	-4821	17088	1569	-22644	10872	20260	-3718	-32768	25853	-24680	-4336	-9588	-7712	-32768	14130	-9148	-4464	-308	-19118	-11688	6698	126	125	1
-8948	-3404	14032	217	827	3139	-15080	472	-3764	16	9486	1330	-15996	-2888	464	-2712	14435	2089	-30404	11724	23384	-8157	-32661	25104	-26724	-6972	-13456	-6234	-32768	13241	-10156	-80	3472	-18983	-10286	9173	122	118	1
-8852	-3356	14304	-479	2129	3216	-17224	1136	-5144	733	10206	1420	-17368	-3320	-284	374	11072	1737	-32768	4860	20048	-3776	-32768	23028	-22852	-8176	-16092	356	-32768	12316	-13484	2508	1900	-12923	-5990	8031	123	123	1
-9428	-2480	13864	-888	4066	3047	-17156	2772	-5456	-726	11429	1856	-17224	-3768	2316	-1258	10986	2196	-32768	8592	9836	-6110	-32768	15458	-24504	-772	-17524	1631	-32768	11155	-14228	2872	8120	-2010	-4448	4020	121	116	1
-8592	-2500	14944	-1552	7579	2215	-18788	2816	-3892	-1557	12722	2582	-18928	-2176	4108	-1818	11261	2152	-32768	5568	-4108	-6532	-25958	8392	-25452	-5608	-25184	-3732	-26697	7840	-11652	952	27812	-5014	-2345	4525	121	127	1
-8192	-3340	15472	-2170	12624	2443	-20824	2284	-3256	-1341	14557	2924	-20340	-1744	6880	-2948	9219	2877	-32768	6272	-19472	-339	-18712	4112	-7616	-6884	-28388	-3666	-13747	5716	-16668	-4180	31020	-376	907	3457	124	136	1
-8108	-3436	15424	-2593	18442	3224	-21172	2920	-2476	-1514	16794	3215	-20836	-1292	8424	-4578	6525	2861	-32768	1548	-29816	8435	-3004	2895	-8596	-6512	-23300	1201	6473	2299	-16296	-2836	24564	3185	-1627	-210	121	127	1
-8068	-4148	15404	-2743	25437	4070	-23140	2224	-960	-2213	19179	3622	-21692	-2452	11916	-6321	1361	2674	-32768	8604	-19468	63	17576	3961	-10056	-4468	-26904	991	19665	-2768	-12592	1804	12124	6113	36	-1163	117	124	1
-7896	-6000	15028	-1994	32767	6668	-25916	828	2412	-3431	21929	3255	-23496	-2396	22148	-6857	-11378	3799	-12428	8800	1136	-8032	29321	3197	-19976	-6288	-12520	-8292	21229	-7305	-11660	764	704	7913	2989	-1676	127	122	1
-9908	-8576	16148	-2161	32767	11035	-31072	56	7048	-8189	24864	1453	-18524	-2000	30192	-9958	-21782	7061	-6900	-23756	32767	8803	32767	3142	-27160	-13700	8124	-4241	18187	-5249	-13344	4972	532	3136	19063	1730	114	115	1
-9532	-9616	17512	-2768	32767	18282	-32340	-636	7168	-9626	25032	1276	-20672	-7372	18820	-15641	-14022	4650	-28792	-13488	23340	12218	25397	-9888	-13776	-16340	-13552	-14329	27121	-7864	-16908	-5788	-136	-618	14335	-6641	127	117	1
-31960	-10520	21292	-4398	32767	27250	-32768	-5496	-2836	-24128	28904	2058	-19300	-5988	3080	-12995	-11865	5043	-28280	32767	1280	-3039	6125	-10379	-21292	22588	-27612	-7361	24827	685	-17008	-8384	-2880	2132	11095	-6229	134	178	1
-32768	-2212	24808	-5893	32767	24975	-27664	-3228	-10028	-18859	26878	7141	-24652	-9440	-12724	-9606	-13033	1863	-1488	224	17972	-3893	1080	-10005	-13676	-6340	-4972	-8136	16245	-4216	-14652	6396	-19232	17497	10174	1138	130	132	1
-32396	-19640	28996	-9580	32767	24808	-19280	-1892	-1356	-11651	20564	5843	-32768	-60	-9572	2422	-19922	-3235	-8636	2028	16248	-3879	4432	-6975	-13992	-712	-12072	-1548	14698	-2497	-18320	11168	-13704	12071	14797	2370	133	170	1
-32768	-17048	32767	-6392	24842	26697	-11028	-3800	-28548	-5467	15243	2319	-28864	588	-1060	2882	-21775	-5335	-9000	4780	14844	-2384	1412	-2992	-20392	-6632	-8284	3099	9165	-3288	-22672	6356	-5856	-2544	15015	734	144	140	1
-32768	-21504	32767	-6732	15044	24017	-13104	4484	-8368	-9989	4444	296	-31568	-2656	-6988	542	-18833	-5749	-9044	3780	14580	-1071	765	-2047	-18176	-3764	-6372	-9273	6625	-2944	-21300	-7504	-1004	-12304	15717	-2793	125	147	1
7836	-14400	15740	-5114	-32768	212	-10268	-1592	7344	-12342	-3631	-3116	-27476	2440	-5692	-1047	-18710	-7939	-7144	4296	14316	1262	1853	-356	-17964	-7356	-4224	-9457	5841	-2066	-18340	-5204	-348	-5127	15128	-4709	130	147	1
9468	-10600	7916	-2249	-29824	-6908	-5544	-988	1952	-2085	-12451	-5679	-21056	1544	-6700	-5136	-16950	-9543	-6564	6492	13672	2121	2813	-527	-17892	-1468	-3660	-1116	5874	167	-15996	236	-180	774	14078	-4514	131	119	1
1584	-7608	10496	-3157	-26973	-13734	-3612	1344	-1300	6021	-19037	-8294	-16000	-3052	-8520	-231	-14656	-10536	-7120	6156	13412	1946	2765	-1321	-17812	-752	-4160	3485	5209	471	-16976	1056	-148	3267	14376	-3639	130	125	1
-4720	-6936	14720	-3940	-30314	-20112	-3320	1936	-4956	7034	-25219	-9625	-12560	392	-8320	2144	-12903	-9916	-7556	6028	13260	1784	2969	-1590	-17092	156	-3876	1408	4647	-34	-18856	560	780	3760	12419	-2508	127	133	1
-9540	-5640	16424	-1899	-32768	-24556	-5400	2212	-4928	6332	-30713	-10759	-12376	-752	-9936	1716	-11901	-8253	-8420	6404	12464	1665	2929	-2592	-16456	-928	-4364	1368	4768	361	-15396	1244	3120	3981	11966	-3042	130	144	1
-11572	-3148	15764	-662	-32768	-27520	-7944	2424	-5040	7527	-32768	-11581	-11364	-300	-9860	6159	-10928	-7189	-7484	4856	13464	1748	3756	-2345	-16496	-1268	-4252	1501	4821	302	-15192	1856	3468	3562	12690	-2277	137	130	1
-14352	-2032	16036	-1461	-32768	-28073	-8876	3288	-5084	10467	-32768	-12169	-9436	2256	-9112	11461	-10221	-5858	-8256	5344	13000	2054	4469	-1980	-16468	-1676	-4072	3079	5184	-230	-15448	2300	4024	5601	15634	-2772	133	106	1
-18196	-2600	17044	-2460	-32768	-25853	-12484	4384	-4864	8883	-32768	-13246	-8300	4352	-11208	15736	-7823	-4038	-8208	5764	12412	2399	4860	-1851	-15928	-1152	-3104	1732	6008	-702	-15588	3312	3088	6363	15912	-3561	128	131	1
-22356	-6316	18448	-832	-32768	-23264	-18472	3732	-6956	6166	-32768	-13968	-5648	5012	-11900	19915	-4765	-2404	-8248	6416	12088	2131	4925	-2048	-14992	340	-3328	1253	7036	-896	-16228	4520	1448	4444	13375	-3311	125	128	1
-25124	-8260	21596	2329	-32768	-22413	-23620	3836	-10492	6750	-32768	-13937	-6156	4008	-5948	20483	-2734	-1755	-8612	6152	12112	1785	4862	-2547	-14652	-44	-3852	-498	8087	-1425	-15440	1792	1724	-139	11524	-1317	124	126	1
-29660	-10516	19996	1556	-32768	-21925	-32768	5228	-11512	7093	-32768	-14373	-7392	948	-1672	17681	-3989	-3137	-8480	6412	12316	1798	5455	-3102	-16708	-1272	-3540	-323	9062	-1364	-15860	2168	3460	329	9181	-1230	126	120	1
-32768	-8864	20208	-1024	-32768	-23410	-27172	3724	-22348	2660	-32768	-11967	-11708	-3268	-668	14403	-1422	-5857	-8632	5472	12752	2124	7110	-3360	-17112	-1820	-2492	599	10584	-1903	-16048	4188	6604	2844	9375	-2192	118	107	1
-32768	-6572	7372	2471	-32768	-20098	-25060	5072	-23476	2549	-32768	-9783	-23008	-5788	13348	9781	-8089	-6598	-8380	5908	13544	2514	9900	-3457	-18428	-1136	-2228	592	12851	-2915	-17576	3876	7824	5243	9986	-2825	126	148	1
-32768	1428	-12304	2340	-25553	-18431	-18568	3240	-26292	-410	-26244	-4896	-10444	2852	32767	1610	-10873	-1751	-8476	6628	13588	2425	14391	-4692	-21104	-1528	-1592	-402	14722	-3451	-19748	2248	9980	6254	8908	-2421	117	134	1
-32768	3272	-30148	245	-13820	-7777	-4540	3968	-25108	-63	-8161	-3968	-15384	2596	31196	25	-1430	-1326	-8592	5596	14176	2411	19515	-5012	-20700	-3256	-436	-384	17307	-4227	-19900	2508	10492	7020	3923	-2692	124	125	1
-32768	10060	-31372	-10385	1464	92	-8076	6480	-22800	-2061	10218	-1063	-16720	1620	19852	-4006	-341	2267	-8576	6524	14568	2394	26557	-5377	-22956	-2856	604	290	19996	-4242	-20348	2612	13992	6912	-2407	-2993	122	122	1
-32768	-11952	-13364	9025	20858	4074	-12616	284	-19276	-1681	21495	2210	-12988	20	7772	-11287	1509	1823	-8636	7352	13780	2992	32767	-7984	-25228	-1988	1816	1545	22815	-3258	-20632	3296	25532	6031	-14549	-2512	128	124	1
-9020	-1796	32767	1932	23304	1262	-27904	7416	32276	-5528	18501	6809	-9836	-2728	-1092	-13798	7830	2540	-7468	9468	16608	6848	32767	-11952	-31828	-2580	7712	7636	25302	-2644	-11916	1724	21708	10979	-20100	-4535	123	142	1
-13352	9800	8104	-2871	32767	5130	-29148	6000	-11668	20524	22092	6046	-18668	-6848	9096	-2455	14860	-616	-3304	11556	18132	12760	32767	-19556	-32768	3076	12184	20195	26819	-1236	-20512	3920	14276	20523	-7292	-6313	123	135	1
-32768	-18736	32767	1761	17828	10235	-13232	-2788	-15028	-1705	21887	4170	-24772	204	7784	9623	3691	2444	-28240	9976	16984	12493	32767	-26654	-32768	5392	1136	21922	24518	-932	-25032	4288	-7788	27104	-3579	-6247	111	112	1
688	-15252	10784	13199	13317	7163	-22024	-8304	-9292	16827	21478	1107	-16296	-752	-14160	3129	9306	-1548	-32768	16692	17184	15716	32767	-22510	-18432	1008	-19792	12108	25592	-3722	-28016	7568	-11224	12497	-12611	1764	119	136	1
-11460	-8588	12600	3138	1929	5879	-10192	8868	-16416	18026	16285	4534	-17056	692	-10384	2603	8261	-3240	-32768	21296	32767	11526	14868	-16838	-18408	-15160	-32768	2621	23647	-9315	-32432	-856	-2760	-7402	-17556	7466	100	125	1
-10520	-1028	16440	2512	1780	3624	-15400	4952	-11428	-187	12572	3044	-20332	-2612	-12192	-3894	10876	-1046	572	12768	32767	14707	-19693	-12361	-23880	1504	9464	15315	8734	-1213	-32768	-6036	-8996	-2933	-18373	6416	110	93	1
-10508	-2740	15024	2438	830	1945	-20728	3776	-8648	-4807	10709	2570	-20984	-4080	-6860	-3833	12668	-475	6348	14828	24816	14229	-21171	-14685	-10700	7860	2612	23266	1323	3404	-27632	-4364	-5180	3356	-18585	3878	91	100	1
-8928	-2512	14612	1439	565	1042	-17532	1220	-6908	3829	8342	2230	-19300	-2644	-4812	955	15892	2275	6008	14588	18384	3935	-28208	-9666	-7520	4296	1036	10372	-6487	7128	-22092	-1284	-4592	4267	-15098	6174	123	151	1
-8628	-3704	14140	599	814	583	-16468	1148	-5600	9614	5873	1481	-17796	-1900	-3272	4502	17351	4123	2620	10560	15384	1385	-32051	-2316	-7280	1416	704	1622	-14742	10018	-17408	-1124	-5532	4461	-12849	8756	150	122	1
-8344	-4736	14072	344	756	613	-16224	1108	-5164	8612	5150	1359	-17088	140	-968	2858	17159	2976	-572	8600	13088	5829	-32768	6084	-8076	-1388	-540	297	-19748	11176	-15448	1060	-6816	589	-12383	11199	127	128	1
-8284	-4676	13756	325	616	936	-15908	2540	-3444	1224	5254	536	-17268	-788	740	-675	16384	2926	-4516	9644	11852	6519	-32768	13091	-7960	-864	-2876	-1376	-25147	12848	-12888	-444	-6540	-1478	-11703	10405	128	126	1
-8340	-4672	13652	391	744	1379	-16068	628	-2912	-3620	5581	174	-14844	-1308	1596	-2809	15036	2518	-8048	8800	11916	3635	-32768	19239	-9552	-2016	-2688	-2809	-29514	13979	-10896	-988	-5708	-2410	-10366	9679	136	131	1
-8184	-3972	13804	843	536	1727	-15532	-808	-2972	167	5583	497	-14124	-1124	1152	-3316	13742	1754	-12644	8444	14096	1044	-32768	24165	-11192	-1924	-3896	-5751	-32181	14797	-10580	-2156	-5612	-6611	-10913	8080	134	129	1
-8336	-4440	13592	1080	922	1898	-15320	-992	-3380	3309	5711	630	-14240	-1612	2948	-4836	12515	1756	-14360	7772	14556	-988	-32768	27529	-14728	-2736	-4516	-9365	-32768	14921	-10184	-3756	-7404	-8856	-12212	6889	133	129	1
-8016	-4788	13876	670	903	2397	-14436	-1220	-5456	-620	7840	-113	-16260	-3772	3888	-3966	14649	1114	-16004	6480	15020	-2326	-32768	28691	-19840	-5328	-4012	-11293	-32768	15914	-6680	-2996	-7208	-14591	-12241	6822	122	114	1
-8744	-3828	13556	842	745	2967	-15724	388	-3928	-160	6353	789	-13376	-4044	4080	-3122	19414	199	-19244	9464	19004	-3846	-32768	28877	-20512	-3800	-7716	-10480	-32768	16418	-6836	-5132	-5616	-18659	-11844	7332	123	120	1
-9268	-3644	13680	836	420	2959	-14824	920	-2752	-1764	7855	1269	-14732	-3748	840	-4191	18669	1252	-23748	7656	22260	-4715	-32768	29453	-23328	-5864	-8708	-11764	-32768	14745	-8848	-2584	-1868	-19018	-10018	7817	125	122	1
-9036	-3416	14096	476	802	2835	-14632	348	-3328	794	8812	1311	-16772	-3012	376	-2214	13040	1995	-28840	5080	24244	-4035	-32768	27999	-25748	-9776	-10164	-4919	-32768	13570	-8840	944	1700	-18346	-7157	9149	119	122	1
-8308	-3112	14300	-210	2511	2382	-17756	2216	-3532	1889	10026	1805	-18840	-2688	2488	-553	9393	1573	-32768	4088	22068	-5484	-32768	22396	-23500	-4932	-14424	629	-32768	12188	-13472	5064	2988	-13891	-4106	9328	116	123	1
-8452	-3264	14208	-1017	4804	2451	-18108	2572	-3528	406	11681	1747	-18464	-1364	5336	-1625	10814	1425	-32768	8852	11352	-10401	-32768	12876	-28628	244	-16800	-1242	-32768	10190	-16012	4000	11964	-5369	-5232	7618	113	121	1
-8684	-3040	14820	-1718	8128	2090	-18384	2224	-2988	-650	13869	2489	-18000	-2412	6088	-3499	10876	1411	-32768	8372	-4528	-8000	-26684	5375	-26696	-8788	-25584	-8162	-28376	7951	-12456	-3764	30424	-8080	-3727	5059	119	124	1
-8324	-3264	15208	-2304	13099	2582	-20340	2768	-2584	-1157	16062	2971	-20096	-1152	6952	-5376	7808	1850	-32768	5676	-23908	3851	-18346	4609	-3484	-11144	-27176	-4729	-10982	6635	-18232	-7320	32767	-6230	-3416	819	125	133	1
-8580	-3600	14908	-2517	14040	2727	-20792	2496	-2048	-2181	18689	3363	-20440	-1032	7312	-5538	7167	1838	-32768	2672	-28344	9096	757	7385	-7844	-8420	-26368	4578	10175	352	-16388	-1020	21636	3989	-3550	-2147	121	123	1
-8092	-4664	15584	-2682	26421	4559	-23788	1756	-800	-1918	21099	3836	-22660	-3764	13324	-7147	-2827	2033	-32768	4848	-16732	-3342	21361	5062	-10052	-2184	-27940	-1574	20716	-4387	-14624	3472	7500	8317	511	-1840	112	126	1
-8020	-7216	15168	-1733	32767	8353	-28244	1072	2772	-4924	24262	2682	-25188	-3344	29868	-6825	-20844	3959	-10780	7284	10464	-7773	25547	785	-21516	-4800	-7944	-12023	20405	-8744	-7772	764	-3848	5317	4778	-1221	127	116	1
-9500	-10004	16616	-2488	32767	14876	-32768	444	9360	-10864	26819	406	-12924	792	29096	-13076	-19068	7691	-5924	-18744	22556	14909	32767	-1093	-23412	-16684	1284	-35	17909	-4323	-16088	932	2176	803	18274	277	118	119	1
-11488	-10056	21392	-3544	32767	22517	-32768	-4356	12840	-23481	28128	1415	-21100	-6104	12548	-16346	-11998	4362	-29996	-10264	24196	16383	26052	-9038	-18244	-15916	-10052	-11285	27347	-7422	-17000	-9516	-4856	7699	11805	-9282	130	121	1
-32768	-8468	27304	-2199	32767	30926	-32768	-4584	9876	-23251	28166	1612	-23600	-8576	-4660	-16690	-10350	3835	-32768	32767	-2804	-5025	8576	-12140	-16876	22640	-32768	-3633	24370	1674	-19248	1988	-13600	16842	6581	-60	130	135	1
-29968	-11012	18440	-7908	32767	24863	-28680	-3680	-2432	-16832	24370	6888	-32136	-7224	-13184	-2678	-15517	-1289	-4252	-8840	17296	-2524	2210	-10625	-15688	-13592	-4680	-8562	17861	-5027	-16100	6872	-17996	19871	9014	1306	137	126	1
-32768	-15040	32767	-5963	32767	30400	-15500	-3152	-25760	-5484	20462	3324	-31640	2476	-4272	6278	-20049	-4488	-12908	1008	16664	-1902	6704	-4946	-13400	-4972	-12212	6407	15257	-2326	-16260	6988	-14088	13832	14023	-1065	132	177	1
-17280	-11628	32767	-7360	-7694	19634	-15660	2596	-16444	-6356	10102	717	-32316	-952	-6152	1689	-20078	-6119	-12804	8552	12964	-85	2849	-2369	-18704	-1104	-9296	4899	10409	-1991	-23860	3192	-5680	1953	14055	-2613	140	154	1
848	-18724	30820	-10579	-30186	7121	-11972	-1384	1524	-15424	872	-1549	-31656	-1980	-6428	1270	-19839	-5800	-9528	5700	14024	1293	1971	-1403	-19144	-4136	-6552	-4791	7550	-2410	-22068	-4700	-3052	-3032	15531	-5734	136	136	1
9540	-14900	10068	-2703	-27483	-1296	-7128	-2416	2968	-7096	-8213	-4153	-23648	2560	-6656	-1496	-18258	-8043	-7848	5512	13900	2453	2571	-584	-18872	-4488	-5028	-4119	5188	-1332	-18160	-764	-1276	-531	15242	-6008	127	132	1
4356	-10488	10100	-350	-24836	-10239	-3524	-140	-576	5531	-15684	-6550	-18284	-1644	-8488	-2581	-15975	-10490	-7356	7244	12992	2535	2766	-593	-16648	-692	-3580	1860	5098	-758	-17868	1004	132	902	14880	-5558	121	126	1
-964	-9072	12812	-920	-26742	-18615	-3524	1548	-3220	9451	-21989	-7717	-17140	-2148	-8340	-1946	-15724	-10978	-6272	7080	13140	2473	3082	-1368	-17716	-128	-2996	6221	4464	-411	-16252	2112	2040	3642	12488	-5291	118	110	1
-7164	-7684	15488	664	-32081	-24614	-3824	1768	-5256	9475	-28361	-8937	-12936	-420	-10644	3655	-12012	-10717	-7468	6908	12384	2238	3453	-2370	-17012	1136	-2432	3881	4449	-804	-15656	2416	3368	2806	11473	-3869	133	123	1
-10424	-4028	15944	1967	-32768	-28725	-5260	2524	-5648	9225	-32768	-9779	-10928	-116	-10544	7220	-10304	-8589	-7580	5776	12628	1420	3859	-2778	-16288	-264	-2688	1417	4663	-1466	-15828	3532	4224	1323	10303	-2722	139	116	1
-12312	-1624	15088	1620	-32768	-30013	-7132	2132	-4640	10376	-32768	-10206	-9004	1908	-9980	8595	-10489	-6605	-8496	6148	12076	1141	3989	-2648	-15196	-696	-2816	90	5712	-2054	-13560	1724	5092	578	12265	-2567	143	137	1
-15660	-2180	16220	1738	-32768	-26861	-10228	2656	-5276	11445	-32768	-11062	-8356	3564	-9588	11426	-9398	-4930	-8712	6160	12048	949	4181	-2513	-15660	-1360	-3880	-741	6400	-2251	-14488	1700	3692	2533	14599	-3696	134	135	1
-20192	-2256	17484	755	-32768	-22099	-14128	4084	-5368	9216	-32768	-12256	-6628	5852	-11888	16467	-6249	-3395	-9048	6148	11920	1123	3854	-2586	-16184	-1448	-4580	-225	6805	-2277	-15040	2048	2376	4753	16587	-4590	135	120	1
-23012	-5180	18704	42	-32768	-19325	-19548	4124	-8120	6598	-32768	-13142	-3940	7468	-10948	18990	-3006	-1174	-9024	6084	11652	1218	3455	-2747	-15000	-1844	-3896	168	7525	-2208	-14796	712	1248	3686	16428	-4335	132	119	1
-27268	-7448	23992	199	-32768	-18021	-26320	4972	-10276	2802	-32768	-14035	-4676	4868	-4872	18867	-1464	-1248	-9068	6132	11716	1081	3349	-2626	-14124	-1036	-3520	215	8606	-2232	-15488	2076	1456	382	13090	-2876	125	139	1
-32768	-5952	24944	-2578	-32768	-17040	-32768	5524	-13208	708	-32768	-14857	-9032	-1996	1104	15631	-4672	-2457	-8612	6620	12180	1036	3958	-3117	-15932	92	-3020	-1786	9943	-2700	-16464	3536	3980	-2334	9403	-1577	124	131	1
-32768	-7184	22796	-7187	-32768	-18231	-28344	3744	-23092	-6871	-32768	-12103	-16056	-5716	4680	8530	-2695	-7227	-9040	6024	12584	1519	5818	-3468	-17860	-2504	-2808	-2200	11788	-3394	-16264	4340	6800	-53	9109	-2310	126	135	1
-32768	-1176	1652	-423	-32768	-15123	-25396	4016	-20440	-3212	-32768	-8777	-26732	-9192	27988	3369	-13811	-7240	-8344	6044	13532	2100	9346	-3697	-20132	-2276	-2884	-1988	13538	-4272	-18520	3400	7488	1694	10713	-3022	130	124	1
-32768	5052	-23576	1545	-22627	-8494	-11180	2668	-25516	-2154	-19286	-3837	-7340	7772	32767	-2186	-7242	-2842	-8644	5968	13716	2879	14751	-4610	-21316	-3976	-1712	-2765	15288	-4888	-20872	1904	10256	1116	7478	-3120	122	133	1
-32768	12288	-32768	-7821	-6087	3217	-3200	8656	-26136	-215	2963	-3113	-18436	2488	29144	-1338	-3048	35	-8700	5416	14600	2735	21320	-4761	-22144	-4252	-212	-2752	17993	-5353	-20264	2696	13916	2649	2122	-4023	131	120	1
-32768	-452	-22620	-5285	11117	4702	-11084	5440	-26428	-5508	20160	2506	-14952	3184	11012	-11765	-473	3265	-7380	7616	14900	3632	30726	-5278	-24968	-2804	1996	-1755	20901	-5077	-21552	3272	22196	2695	-7515	-3662	134	119	1
-2244	2676	7192	13579	28101	6658	-16816	4476	-6080	-3851	25073	4668	-9848	-376	-4584	-19522	4690	921	-7208	8124	16216	5342	32767	-8749	-29848	-2140	6328	3063	24493	-4581	-21816	3264	25184	2557	-11008	-3551	123	138	1
12720	10868	14420	-3448	32767	-1295	-32768	7084	17320	17046	16341	5236	-16872	-5776	17544	-5326	3031	5689	-4280	12484	17812	9774	32767	-15817	-32768	880	10872	14752	27231	-4157	-17296	7620	22412	20232	-13747	-8412	129	134	1
644	16416	5840	-3984	32767	1735	-12496	16088	-14772	10423	22658	7348	-20304	-6076	-332	5376	6399	4439	-13700	12540	18136	14768	32767	-25759	-32768	6648	7204	20613	24883	-3040	-18116	1636	-948	23994	-3488	-7431	117	121	1
-10056	-31728	-8712	6752	11532	8331	-26276	-15208	-15716	6782	23017	3	-15672	-1384	-18816	6979	11879	92	-32768	15924	23624	13561	32767	-28253	-22484	6336	-15552	12218	24698	-2477	-27824	11176	-10228	20972	-7014	-2301	117	124	1
-17512	9440	18496	5623	3882	8835	-11036	1860	-15532	23740	18601	4113	-13160	-6684	-14448	3624	3590	-6194	-32768	20700	32767	8306	32767	-20903	-19876	-8680	-29844	107	25306	-9873	-28740	2140	-1840	-5892	-20206	8574	115	139	1
-8732	-1276	17016	5052	2788	5223	-12872	4016	-13172	5518	13231	3181	-14904	496	-8628	-2405	11031	-1165	-10068	15648	32767	10011	-10295	-12886	-30376	-6516	3392	5579	12674	-6696	-32768	-3984	-8968	-9144	-18179	7515	70	114	1
-10304	-2396	14832	3581	816	2934	-21688	8524	-10044	-3351	11115	3087	-22228	-1624	-7916	-5335	10425	-713	5312	11960	23268	9808	-15954	-17488	-14032	9260	3648	22284	3185	-136	-32324	-6232	-5812	-3673	-20049	6725	129	107	1
-9828	-2140	15400	1028	697	710	-18340	1592	-7996	-1132	9275	1871	-23036	-1016	-4688	-455	15192	1207	5980	14428	20184	1374	-24331	-13933	-7824	3380	1132	12605	-5141	2690	-26336	-4736	-5192	3535	-18738	6740	122	116	1
-8572	-2920	14436	-736	1099	-516	-17016	2124	-7464	5605	6793	792	-18384	92	-3888	2126	17086	4726	4284	12068	15872	-2190	-29221	-7079	-6328	2072	24	4872	-13772	7275	-19964	-2088	-5956	2652	-14864	7749	135	119	1
-8008	-3940	14372	-1842	1537	-1086	-16612	2216	-7336	5931	6434	605	-17864	-164	-2008	1139	18111	5723	104	10216	13408	2256	-32768	895	-5856	64	-1688	2147	-19853	9069	-15960	456	-7708	-196	-12583	10440	106	135	1
-8092	-4860	14004	-1857	1602	-655	-16460	1684	-4440	-459	5139	-223	-17672	-456	56	-2218	16883	3849	-4108	11708	11608	4920	-32768	8716	-6212	-120	-3308	506	-25053	11104	-13032	196	-8420	-3127	-11732	9890	145	131	1
-8012	-5164	13716	-1338	1626	187	-16836	268	-3208	-7901	5167	-928	-16464	-1700	320	-8030	15597	3567	-6388	12012	10164	2539	-32768	16456	-7448	364	-2712	-1977	-29947	12883	-10132	-936	-7676	-4465	-10645	8401	141	128	1
-8320	-4272	13968	-1117	2175	637	-16464	-2296	-3468	-6582	4677	-184	-15020	-5144	488	-7706	14547	2381	-9896	11380	11176	-1857	-32768	22910	-9644	596	-3308	-6068	-32768	13918	-9932	-824	-7416	-6882	-10271	7034	124	135	1
-8612	-4028	13448	-1065	2104	1544	-14644	-2448	-3612	-1473	4278	80	-13616	-4136	2112	-5911	13906	2130	-13640	10012	14040	-3597	-32768	28273	-13660	-1248	-5136	-11932	-32768	13573	-8924	-1912	-7688	-9504	-10430	6763	138	129	1
-8404	-4840	13384	-134	2070	1875	-20296	10088	2272	-8220	1585	5133	-12988	-2616	5424	-7224	15438	1704	-17080	8868	15012	-7200	-32768	32174	-16932	512	-5176	-19877	-32768	9579	-7420	-1052	-8808	-14970	-10927	7110	126	124	1
-8632	-4632	13000	538	1707	2631	-15132	-4100	-3908	-2844	4864	2327	-13408	-4532	4576	-9541	19425	1850	-17800	10760	15260	-5816	-32768	32610	-22328	-4144	-7532	-11647	-32768	14486	-6644	-2780	-6912	-21695	-10271	8618	129	121	1
-9320	-4588	13104	-62	1411	2145	-14128	528	-2064	-1510	4507	974	-14512	-5260	1760	-9717	16397	3883	-22024	11912	19340	-7276	-31258	30513	-23848	-844	-8556	-9555	-32768	12707	-7568	-4720	-1084	-24395	-10440	8933	126	126	1
-8432	-4620	13792	-50	1374	2248	-15500	-564	-1820	-4260	8480	1786	-15920	-4584	1552	-4318	12060	3382	-30344	15956	23816	-11415	-31579	26780	-26940	-1712	-14728	-10130	-32768	13161	-9824	-1936	5100	-24180	-11148	10037	122	119	1
-9028	-3696	13872	-477	2517	1991	-17196	-20	-3112	2506	9186	2192	-17952	-3788	1764	1319	11291	2102	-32768	7136	19396	-8557	-32768	24121	-24620	-6200	-14004	-7411	-32768	12484	-12652	2564	2868	-17914	-6970	8865	119	120	1
-8908	-3536	14104	-923	4080	1926	-17892	2360	-2776	864	11329	2523	-18116	-1688	4068	1037	10824	2225	-32768	10224	10840	-3330	-32768	18258	-28232	-3028	-18232	-189	-32768	11872	-15452	2332	12288	-4349	-6449	5819	115	118	1
-8496	-3972	14692	-1382	6657	1879	-18176	488	-1680	925	13434	3088	-17740	-3372	6112	-2821	9374	1889	-32768	6088	-1776	-4809	-29742	9124	-25008	-3472	-23136	-3627	-28131	10430	-10740	-2260	26520	-4287	-1984	5786	120	123	1
-8600	-4800	14592	-2091	10745	2767	-20036	196	-2392	1065	15885	3629	-19352	-3324	7200	-4302	8417	1706	-32768	3392	-23932	5054	-21798	-641	-5948	-7496	-27296	2385	-11403	9345	-18984	-4596	32767	-955	-745	4029	128	127	1
-8608	-3840	15132	-2798	16217	4054	-20996	3008	-2752	-251	18194	3989	-19992	236	8264	-5767	5775	2165	-32768	740	-31124	11310	-4887	-1683	-6932	-7648	-25936	4858	8031	3151	-17812	1724	23672	5235	-2589	1207	122	124	1
-8236	-3908	15524	-3768	23005	4988	-22936	4104	-1704	-3009	20276	3958	-22708	228	10496	-7550	-22	2572	-32768	6628	-17320	-2951	17693	58	-15084	-5480	-24336	446	20094	-3303	-13448	3200	9232	5124	-1341	803	123	121	1
-8680	-5192	15456	-4264	32535	6465	-25992	3452	896	-5751	22846	3327	-24148	-848	20260	-9886	-12794	3638	-28184	7836	672	-11161	27295	524	-16024	-7384	-23388	-11917	24396	-6421	-7932	-1188	-3200	7120	2420	-1625	127	117	1
-8428	-9172	16492	-4411	32767	10190	-32444	-808	8152	-9609	25779	1825	-20004	-1444	32767	-14142	-25572	7034	17912	-31916	32767	10217	32767	6297	-32056	-19544	26332	-11220	13919	-6301	-12628	3688	1760	465	17196	-598	115	130	1
-8764	-11900	18968	-6360	32767	17756	-32768	-3756	11164	-19956	27566	1520	-20780	-9268	18128	-18101	-12973	3767	-32768	-14108	19020	13269	31280	-9435	-14792	-15384	-18712	-14311	27590	-7481	-20448	-8328	4368	-3023	15703	-7123	129	134	1
-28720	-11660	23044	-9394	32767	27031	-32768	-5596	-3400	-23315	29207	2956	-19444	-4328	2100	-16122	-11386	4191	-32768	32767	25072	1927	838	-12782	-18480	15464	-23500	-3215	26455	833	-20836	-3348	-4916	7487	5192	49	134	142	1
-32768	-8348	27980	-9770	32767	25747	-26016	-4748	-13416	-17900	25826	6622	-27536	-11456	-15112	-8415	-12649	1364	-6244	-14808	24756	-3149	4823	-6155	-18984	-7768	-2024	-7276	15353	-2714	-15980	4172	-18340	22313	9646	-1470	130	113	1
-32768	-14984	30596	-9996	32767	28915	-19780	-528	-10672	-5517	21652	5644	-32768	-600	-8348	6340	-19533	-4663	-10608	14400	11264	-1052	5608	-1926	-12880	-3240	-11744	8135	17315	-1158	-19076	9256	-16628	18377	14085	1171	136	185	1
-32768	-20168	32767	-11112	15899	23648	-13616	-844	-22712	-3832	15896	3631	-30376	1484	-2608	3548	-20038	-5604	-8924	10420	11772	207	2419	-1645	-18352	-200	-9764	8817	10479	-1367	-22164	8460	-9100	9653	14403	-2073	137	150	1
-15484	-18264	32767	-10953	-23459	13738	-12576	-188	-3616	-13264	3360	-321	-31488	-3372	-8136	2584	-18410	-5173	-8912	5636	13808	924	1794	-1732	-18696	-1784	-8268	-5956	7424	-2258	-22800	-2064	-3500	-5103	15896	-4043	121	136	1
9632	-12732	14672	-5737	-32768	5181	-8880	-2640	5568	-12548	-5190	-3353	-26036	1560	-6392	-187	-18018	-7375	-8544	4540	13996	2267	2078	-400	-19196	-7984	-5460	-5870	5264	-1666	-19100	-3164	-1856	-1721	16677	-5907	131	139	1
7816	-11832	9796	-2887	-28683	-2194	-3100	-2164	1524	14	-13667	-5821	-19764	-364	-7828	-4546	-16081	-8810	-7428	6844	13116	2757	2430	-3	-17144	-772	-3804	1140	4633	-166	-17348	892	-336	1506	14772	-6159	126	122	1
1340	-10616	10804	-2504	-27940	-10085	-3396	1360	-1540	6635	-19951	-8264	-14216	-2196	-8172	136	-14070	-10704	-7044	7408	12640	2461	2649	-780	-17264	652	-3784	6030	4777	-246	-17264	4040	896	2546	13210	-4931	133	133	1
-4336	-9272	13920	-3054	-31300	-19181	-4168	2444	-4444	6577	-26063	-9132	-12220	-1368	-9164	2726	-11698	-10473	-7236	7064	12812	2591	3072	-1706	-17228	528	-2288	4008	3881	-379	-15568	1720	3692	792	12040	-4166	123	136	1
-9984	-7872	15628	-880	-32768	-26888	-5300	1872	-5064	6700	-31181	-9763	-11364	-1704	-10448	4238	-10379	-9084	-7800	6584	12232	2503	3489	-2254	-16580	-588	-3052	2725	4789	-417	-14304	344	5568	1316	11209	-3908	125	122	1
-11788	-5936	14596	3018	-32768	-31210	-7584	720	-4608	8862	-32768	-10282	-9480	-64	-10216	7179	-9736	-7564	-8152	6544	12168	2148	3898	-2081	-15500	-1216	-2632	3744	5347	-1020	-14424	1552	4736	3527	11887	-3167	133	125	1
-15532	-3952	15660	4489	-32768	-31389	-9332	712	-4916	12803	-32768	-10494	-8548	352	-8352	9370	-9552	-6399	-8468	6644	11836	1903	3704	-1971	-14572	-804	-3544	2980	6038	-1330	-13880	2080	4156	5880	14659	-2502	129	132	1
-18632	-4684	17912	4845	-32768	-27760	-14400	1684	-6352	13938	-32768	-10945	-8584	2612	-9340	16839	-8330	-5702	-8544	6720	11968	1774	3520	-1891	-15604	-1688	-3828	1979	6661	-1711	-14540	2688	2344	7482	16972	-3780	130	130	1
-23504	-6640	17680	6304	-32768	-23608	-20056	2724	-5736	13800	-32768	-11240	-6772	5140	-11356	21967	-4014	-4320	-8612	6360	12172	1846	3675	-1995	-15956	-1788	-3896	2683	7106	-1661	-16272	2680	424	6410	17318	-4710	125	138	1
-24008	-8540	20232	5026	-32768	-20253	-23776	3912	-10512	9529	-32768	-11321	-7008	5704	-5952	23982	-3971	-3551	-8684	6300	11888	1293	3902	-2500	-15812	-160	-3288	285	7810	-1862	-17764	1932	1168	1492	13401	-2828	126	128	1
-30524	-14040	21500	3427	-32768	-16809	-32768	3208	-13348	5561	-32768	-14245	-8132	4580	40	22023	-5019	-2387	-8560	7560	11892	1257	4277	-3475	-15864	1152	-2612	-1967	9188	-2219	-16504	4380	3680	-1988	8777	-1372	119	132	1
-32768	2312	23664	-3603	-32768	-18395	-27520	3260	-19496	2347	-32768	-13598	-13724	-3720	1236	13363	-2539	-4868	-8336	6808	12704	1619	6336	-3954	-18504	-688	-2584	-3242	11110	-3149	-16800	5472	5860	-2258	9561	-1463	121	138	1
-32768	-6476	7880	-9550	-32768	-16917	-23120	5932	-24568	-9092	-32768	-12143	-28660	-6672	22592	5643	-13885	-5707	-8604	5864	13532	2621	9650	-4178	-19320	-3408	-2520	-2746	12802	-4211	-17612	3380	6996	1186	10693	-2972	126	141	1
-32768	4204	-12740	-4748	-28854	-15478	-16720	2100	-22796	-12024	-23543	-6204	-6168	4428	32767	-7591	-5639	-3217	-8784	6048	13492	3188	14802	-4675	-20864	-3408	-1528	-2217	14433	-4538	-20420	916	8772	2271	9240	-3551	124	141	1
-32768	7852	-32768	-3374	-14729	518	-5448	2208	-24056	-5465	-4883	-5492	-15928	1496	29028	-7826	-710	-3067	-8588	6232	14012	3603	20824	-4463	-21864	-3616	-92	-2400	17008	-5205	-20936	316	12528	4482	4203	-4018	123	119	1
-32768	6448	-30188	-12411	1354	5536	-7128	7280	-23668	-2962	13681	-1763	-15352	-100	17512	-7675	-135	779	-8456	6564	14176	4169	28699	-4357	-22292	-3188	2096	-1656	19860	-5405	-21072	2124	17064	4751	-3924	-3683	124	122	1
-32768	-7880	-17240	18930	24857	5546	-11436	8504	-21248	3784	23755	2876	-12692	-1388	3900	-13767	1937	395	-8112	8088	14320	5963	32767	-6753	-25808	-2516	3772	1994	23591	-4527	-20388	2996	30964	4990	-19697	-2627	129	132	1
22828	7364	32767	2962	32767	-5482	-32768	15148	32767	7180	14289	9819	-15756	-2652	15680	-2275	3003	4424	-5584	11944	18192	10409	32767	-12086	-32768	148	10380	11483	26275	-3597	-8952	2300	23280	10490	-18229	-6015	121	142	1
-32768	20460	22740	-3467	32663	7970	-13120	15228	-19412	19722	22817	7821	-21188	-2976	6296	6242	9849	5078	-10116	13196	17000	16452	32767	-21764	-32768	6308	10808	19417	25905	-2458	-20320	1700	6700	21934	-2525	-6143	121	123	1
-31008	-32768	13868	5525	8387	10925	-19428	-11172	-17964	-3489	24249	192	-18784	5424	-13560	10150	9614	1485	-32768	13596	18196	14089	32767	-27143	-26480	6468	-10532	13459	25767	-1667	-27172	9468	-13740	24924	-3229	-4174	113	131	1
-25980	18952	29804	10180	9948	5934	-15488	-444	-11572	19555	19403	2674	-14896	-2880	-12860	-2807	1588	-3039	-32768	19600	22576	12140	32767	-22915	-22508	-4196	-21916	1609	26611	-7469	-27328	2576	-5820	957	-17226	5310	115	130	1
-27776	18756	32767	5422	7069	5798	-13404	6780	-13008	153	14191	2695	-14812	16	-11360	-7130	10349	-550	-24208	15924	32767	7745	-2167	-14924	-25872	-10180	-16280	1145	19627	-9559	-32768	-1252	-6052	-10333	-16477	6999	95	123	1
-9332	-6736	13280	786	1717	2231	-19696	6500	-11164	-9754	10952	2426	-22268	-3416	-9592	-12863	9458	-58	7256	7520	26944	8992	-19387	-18266	-18664	8744	9764	21613	5333	-1843	-32768	-4036	-8536	-6947	-17911	5405	129	80	1
-9904	-3340	15032	534	1559	969	-19340	-1000	-8324	-2551	9010	1726	-21060	-3980	-5040	-5943	14284	1751	6548	13564	22380	4278	-25951	-14712	-8532	4240	3992	16711	-3302	980	-28844	-1824	-6424	-1323	-18626	4477	111	122	1
-9512	-3464	14484	-571	1145	-362	-17380	1552	-7668	4179	6256	1390	-18504	-3272	-4272	-121	17092	4976	5168	13176	17040	-3462	-29214	-9542	-7372	3988	780	6750	-11254	5111	-21232	-1708	-5684	-461	-15759	6574	140	121	1
-8776	-4312	14192	-1468	1018	-1100	-16776	244	-5420	4640	4551	1671	-17408	-2332	-2248	1771	18204	5747	1744	10048	13888	-3117	-32768	-2510	-6844	848	-792	714	-18567	6683	-15972	28	-6868	-1734	-13697	9658	123	120	1
-7792	-6072	13532	-1367	1226	-580	-16472	224	-3320	-750	4548	1199	-16584	-1892	668	-1374	16954	5090	-2488	10656	12084	624	-32768	5326	-7496	-1076	-2660	-593	-23865	8375	-14684	376	-7384	-3401	-12654	10415	128	121	1
-7888	-5924	13312	-983	1453	439	-16204	-916	-2648	-6776	4970	579	-15616	-3580	1552	-4162	15632	3668	-6128	11872	11000	-699	-32768	12507	-9032	-56	-3724	-2341	-28573	10427	-11684	-712	-7120	-5200	-12146	9852	149	125	1
-8228	-4824	13472	-340	1871	1072	-15960	-1824	-2256	-4814	4896	1272	-14360	-4496	816	-4159	14516	3291	-9396	10864	11444	-3200	-32768	18441	-9120	-376	-3044	-4187	-32019	11313	-10496	-2492	-6080	-6317	-11849	8504	144	130	1
-8380	-5732	12836	273	1440	1776	-14048	-3096	-3600	178	4723	1928	-12312	-4272	2044	-3959	13717	3180	-13156	10624	12304	-3794	-32768	23214	-13416	-1120	-5384	-7835	-32768	12074	-10612	-1864	-7188	-9299	-11727	8083	131	130	1
-8568	-5492	13012	870	850	2235	-14876	-1048	-3912	439	5220	2213	-13468	-3208	4868	-2830	15202	2284	-16340	11076	11852	-5399	-32768	26439	-14388	2420	-8148	-12462	-32768	12410	-8408	-3156	-7408	-12731	-13383	7722	138	122	1
-8924	-8032	11984	1663	298	3312	-16500	0	-2792	-2426	4596	3313	-14020	-3088	4188	-4980	20138	1531	-16712	11516	14484	-5176	-32768	27318	-19252	-3484	-7484	-10162	-32768	14222	-7272	-3920	-6436	-18152	-14158	7556	135	108	1
-8204	-6108	12952	1527	152	3914	-14816	1408	-2988	-699	6821	2031	-15860	-4028	1144	-5799	18502	2519	-20384	11368	19124	-7334	-32768	26936	-21980	-1760	-9712	-10555	-32768	13782	-7772	-4536	-2084	-21179	-14189	7808	129	121	1
-9292	-3736	13648	899	714	3802	-14784	1616	-2412	-369	8466	1955	-17188	-3032	1124	-2700	12167	3194	-24772	12036	22736	-6541	-32768	25490	-26184	-5472	-12332	-8247	-32768	13833	-9196	-3476	1212	-20871	-12554	8784	131	120	1
-9548	-3264	13900	661	1670	2755	-16348	1236	-2276	2445	10332	2716	-17324	-3024	3836	1359	9455	2218	-31312	12744	21408	-6627	-32768	23225	-24064	-3684	-14696	-3508	-32768	15160	-11016	-976	-148	-17037	-7081	7478	128	114	1
-8816	-4256	14272	11	3665	2477	-17940	1000	-3284	5000	11880	3106	-16664	-2972	5048	2456	11495	1867	-32768	856	16816	627	-32768	20255	-21728	-6224	-14488	2385	-32768	14400	-12304	452	-764	-15013	-5684	6922	127	123	1
-8508	-4164	14532	-1459	6909	2296	-19596	2176	-3092	3464	13700	3444	-19776	-2528	4696	370	11686	1855	-32768	6212	4852	-1978	-30791	11360	-26096	-1920	-25764	234	-32486	13361	-11832	5092	23496	-410	-6908	7125	129	120	1
-8300	-4200	15160	-2428	11243	2844	-20432	2496	-3076	525	15964	3833	-20076	-2272	4940	-2861	8748	2322	-32768	4684	-11908	-3049	-25028	3353	-20656	-7248	-27504	-697	-20294	8572	-13956	-424	30852	5855	4276	5985	132	115	1
-8752	-3484	15424	-3604	17686	3661	-21860	3520	-2592	-646	17956	4271	-21272	-524	7372	-5023	5652	2629	-32768	1724	-30688	6804	-13212	-4766	-5192	-6776	-27484	445	-846	6470	-20684	-1704	29520	3981	-94	3240	133	122	1
-8488	-3956	15712	-4438	25091	4190	-22732	4064	-920	-1909	20198	4651	-22136	-332	11480	-6303	-386	3541	-32768	9648	-28416	3189	10433	-116	-8468	-8964	-27848	3386	17386	-619	-15228	2088	17620	4790	-2721	513	129	118	1
-8460	-5668	15116	-5019	32767	5619	-26080	1880	1940	-3382	22646	4423	-23616	-2908	21396	-6390	-11847	3782	-32768	6440	-12704	-10232	32116	3904	-13860	-7484	-23140	-6231	23723	-6802	-9516	1256	952	8104	901	-1131	133	125	1
-9148	-10964	16236	-4288	32767	9498	-32448	-1152	9912	-8460	25983	3354	-21544	-3892	32767	-11782	-25902	6429	10248	-32768	32767	2831	32767	6196	-32768	-12164	31040	-16343	12231	-7009	-18352	5812	14344	-2806	7870	-1335	126	125	1
-9412	-11232	19972	-7146	32767	17887	-32768	-3700	10824	-18694	27622	3169	-17560	-6996	17832	-16094	-11926	4915	-32768	-22660	16136	11249	28669	-10527	-10424	-18896	-16268	-18912	27803	-8650	-16532	-6104	10748	-10394	16387	-4199	138	121	1
-32768	-12812	24328	-7753	32767	26918	-31628	-5416	-6964	-20473	30822	4478	-18468	-7188	-600	-15662	-11738	3903	-32768	32767	16120	2917	-3557	-13228	-19400	16200	-19880	-300	28935	1022	-19912	-6816	-7416	4580	6128	306	142	136	1
-32768	-6848	26036	-8243	32767	24985	-29208	-5260	-6844	-14841	26731	9503	-26452	-10576	-10816	-4298	-13927	518	-8788	-21064	22896	-3589	5180	-7426	-17084	-3484	-272	-7721	15279	-2017	-14788	3640	-17200	24701	8445	-621	142	117	1
-32768	-15104	30376	-6626	32767	29022	-17872	-2756	-7052	-3050	20788	7257	-32768	144	-9344	7719	-18359	-4094	-7896	17384	9852	-1280	7017	-1835	-13000	-2660	-9404	5399	19796	-2554	-12224	6084	-13356	23808	11486	1894	135	170	1
-32768	-19416	32767	-5383	16833	23794	-12196	-760	-25788	-597	16112	4349	-29256	-3128	-3224	7665	-20331	-6461	-9856	4624	14048	-58	2980	-1593	-19124	-5524	-10556	9435	10668	-2196	-23688	11000	-8340	9505	13598	-1051	146	134	1
-22760	-17596	32767	-7907	-26655	10409	-13168	472	-4308	-9751	3795	3417	-32364	-3412	-7648	6386	-19066	-5169	-9456	5260	13728	652	1969	-1336	-19076	660	-8292	-6284	8927	-2704	-23104	-2336	-3160	-6541	15712	-4493	137	141	1
9372	-12604	13596	-1619	-32768	2994	-9644	-2400	5396	-10937	-4918	-433	-28552	3092	-6280	2578	-18301	-7035	-8164	4204	14052	2042	2647	-252	-19392	-7272	-6000	-8951	7089	-2716	-19444	-3492	-1652	-3947	15634	-5832	138	137	1
8600	-11272	9220	1444	-29876	-2429	-4636	-1908	440	702	-14019	-3443	-22140	1732	-7904	-3304	-16923	-8776	-6344	7456	13348	2578	3469	-618	-17644	-396	-4036	-493	6568	-546	-17856	292	-2124	1731	15143	-5821	128	124	1
1464	-9080	10864	1861	-29215	-8156	-3604	1236	-2568	6925	-20664	-6323	-17804	-2768	-8904	1235	-15143	-11184	-7424	6864	12916	2199	3795	-1537	-17584	-592	-5580	5011	5647	21	-17816	2616	-1464	3365	14358	-5446	136	128	1
-3840	-8580	13756	-409	-32655	-14746	-3976	1384	-2900	7028	-21683	-6473	-14200	1056	-9864	2883	-12927	-10060	-8332	7072	12352	2456	3918	-2759	-17140	1864	-4580	2133	4805	267	-18360	2520	-940	2788	14372	-5138	127	124	1
-9344	-7624	15496	-689	-32768	-20423	-5220	1876	-6460	4643	-32587	-9721	-13888	1260	-9896	2389	-12779	-9722	-7768	5484	13232	2036	4756	-2647	-17412	-2416	-3848	1556	4290	-551	-15880	1044	2004	1213	12223	-3998	131	111	1
-12016	-5148	14924	-714	-32768	-24435	-6772	1536	-5412	4536	-32768	-11148	-10044	-88	-10300	4923	-9839	-6550	-8704	5588	12368	2225	5292	-2286	-15756	-2088	-4100	1367	4473	-468	-14148	-120	4024	1288	12222	-3288	138	121	1
-13992	-4556	14940	-1620	-32768	-25033	-8856	1368	-5388	6975	-32768	-12529	-7752	1984	-9548	8925	-9164	-4910	-8928	5908	12308	2490	5444	-1871	-15524	-3168	-2712	6367	5938	930	-15068	-360	3808	5553	14544	-3039	147	114	1
-18444	-4700	16912	-1374	-32768	-23462	-13412	2268	-5656	8600	-32768	-13061	-6308	3260	-11252	14706	-7528	-4054	-8240	5288	11952	1961	5273	-2261	-13348	196	-2008	729	4629	-1105	-13960	4640	2736	6645	16628	-3791	136	120	1
-23884	-8576	18508	-113	-32768	-22632	-18200	2496	-6472	7504	-32768	-14362	-4332	4660	-12056	17947	-3820	-2445	-9136	5960	11588	2022	5318	-2287	-14916	-660	-3388	255	6851	-1541	-14132	4276	2652	4224	16030	-2898	127	135	1
-27468	-11160	22432	1825	-32768	-22521	-25152	3236	-11048	6637	-32768	-14616	-5780	3840	-7020	20447	-3680	-1898	-9220	6264	11452	1957	5160	-2488	-13360	-692	-3432	647	7646	-1495	-15856	2128	2068	846	13536	-2306	124	112	1
-32768	-14604	19636	2135	-32768	-21854	-32768	2628	-13716	5652	-32768	-15931	-6584	-188	-1332	18951	-3179	-3272	-9144	6252	11592	2024	5694	-2685	-16172	-780	-3604	88	9090	-1743	-16156	3180	2756	-409	10676	-1789	131	110	1
-32768	-3376	19392	-1252	-32768	-24675	-32768	2224	-14544	5114	-32768	-16255	-13116	-3972	288	17070	-1382	-6273	-8996	5988	12104	2222	7248	-2949	-17760	-1648	-2688	-382	10604	-2044	-16856	4084	6420	-422	9906	-2808	123	133	1
-32768	-6776	7360	-4520	-32768	-26840	-26624	5956	-21528	217	-32768	-11054	-26492	-5932	20624	11790	-13055	-6931	-9068	5904	12708	2498	9875	-2990	-18240	-1452	-1768	-834	12764	-3094	-16088	4468	8836	1933	11221	-3548	124	154	1
-32768	3740	-13908	1646	-24869	-26035	-14304	3300	-21316	-4074	-24588	-4114	-8392	4004	32767	-1070	-7344	-4180	-8968	7000	13036	2604	14254	-3568	-19988	-756	-932	-2215	15088	-3941	-18904	2372	11128	3318	10203	-2811	117	135	1
-32768	10944	-32768	-2463	-12182	-6001	-3492	3220	-25860	-2457	-4000	-5253	-5916	8156	32767	-2989	-6015	-4716	-8848	6744	13104	2625	15019	-3624	-20684	-3592	276	-1981	18190	-4466	-20104	1388	13656	5415	4114	-3265	125	124	1
-32768	1940	-30840	-10797	7310	4207	-9900	4784	-23040	-6611	14446	-1281	-15708	2044	16148	-8777	-872	2166	-8916	6580	14108	4281	28139	-4197	-23660	-3624	1784	552	21574	-3811	-21516	2508	18400	6340	-3950	-3390	127	114	1
-32768	6068	-20824	14877	31342	11503	-13560	9376	-14180	2407	23215	4249	-11792	-1452	2936	-18247	1553	96	-8196	8204	15508	6203	32767	-6502	-27556	-4180	3760	4735	24828	-3061	-20928	2840	32767	6757	-21071	-3115	126	135	1
-5304	8684	32767	-4691	32767	5525	-32768	9820	12280	20529	17761	6017	-23444	-4832	9600	-7521	-1979	3086	-3984	10708	19092	12819	32767	-10490	-32768	-1496	11360	14973	26840	-2512	-23004	5068	32767	7271	-26443	-3459	133	131	1
-32768	5696	32767	-5389	25732	8066	-12092	24760	-18228	12337	25615	7901	-7244	3176	-280	11740	16736	3928	-12968	11872	17588	18792	32767	-20820	-32768	5064	11408	22197	25617	-1582	-22260	-2304	2580	24125	-3783	-7326	123	133	1
-12352	-23368	-1964	6041	12067	5406	-24916	-12252	-15728	-1928	24268	-852	-16116	2084	-25108	3123	13923	318	-32768	15340	21468	16558	32767	-22406	-23444	6612	-17432	14865	26415	-775	-28576	9356	-12528	27744	-5426	-4261	106	116	1
-24056	7156	22984	4224	4879	7334	-9460	-4864	-17524	21649	19814	4049	-12988	-12496	-17652	1697	-3552	-2473	-32768	22024	32184	9126	32767	-20601	-23644	-4316	-25540	2452	25420	-6437	-29648	564	-5148	182	-18023	6825	100	135	1
-5836	-7644	15000	3777	2904	6207	-12248	3940	-12188	11435	13068	3700	-13060	-3224	-10960	542	13676	-3628	-17956	6480	32767	7643	-6944	-13797	-26124	-10628	-6676	633	17596	-7125	-32768	-2096	-6908	-7890	-18252	7648	108	116	1
-11116	-5068	14160	4680	958	4927	-21516	9032	-11204	-1035	10943	3742	-25704	-5908	-8340	-2246	11503	-3086	8288	7076	27376	16480	-21514	-18049	-15512	8184	7932	25270	5667	300	-32768	-7040	-6924	-3418	-19390	4978	121	95	1
-10616	-3704	14152	4540	1163	4567	-18864	1148	-8740	4394	9324	2789	-22184	-1312	-3496	3396	16668	621	8736	14192	21028	7144	-26960	-16646	-8904	6204	3864	19344	-3439	4644	-26448	-4512	-5928	2779	-18074	5025	122	86	1
-10004	-2252	14376	1256	639	1092	-15924	4148	-8268	8485	7614	2181	-17560	1048	-3696	7149	19168	2765	4104	11556	17544	-1327	-30410	-12040	-6812	2484	580	8007	-12196	9226	-19512	-3584	-5580	5319	-16063	5554	129	150	1
-8160	-3860	14252	-240	1057	43	-17084	2264	-5500	10599	5432	1195	-17296	496	-2364	5552	19170	4497	-60	7440	15428	3855	-32768	-3844	-6368	-2144	-740	4111	-18369	10452	-16396	-76	-7184	4017	-13870	8326	114	120	1
-7932	-5064	13824	-425	1623	513	-16780	2168	-3876	3661	5021	523	-18496	660	220	2364	17487	3223	-3800	9392	12112	9322	-32768	4801	-7700	-2204	-2880	5266	-23213	12542	-14764	504	-7924	795	-12646	9276	124	132	1
-8500	-5108	13328	-36	1841	1489	-17060	228	-3536	-4931	5496	-384	-17080	-624	540	-4604	15909	2077	-5736	10328	10212	7254	-32768	11602	-8068	-32	-2988	3818	-28477	14739	-11668	-972	-7612	-842	-12073	8177	140	121	1
-8480	-4064	13444	-467	2327	1984	-15752	-900	-2636	-2552	4764	210	-15408	-3472	1976	-2561	14435	1184	-10400	9624	11628	3321	-32768	17313	-9640	-1092	-3200	630	-31285	16177	-10320	-2352	-7152	-2478	-11198	7067	138	119	1
-8792	-4420	13480	-267	2782	2285	-15660	-768	-3088	776	5221	100	-14488	-1896	3216	-2651	12628	1589	-13556	9316	13816	775	-32768	22008	-12936	-1072	-5436	-5122	-32768	16684	-8908	-2540	-7684	-4879	-11469	6410	132	132	1
-9596	-3672	13264	-249	3145	2225	-15152	1556	-3920	234	5971	429	-15172	-1332	6784	-4207	13925	1525	-16780	9100	14720	-835	-32768	25789	-15016	-792	-6840	-10326	-32768	16360	-7020	-980	-7852	-8843	-11293	5974	124	125	1
-10152	-2328	13692	238	2676	1497	-15172	1232	-5180	-2690	6980	997	-13124	-2176	5364	-6244	17973	1974	-18464	9676	17024	-667	-32768	27994	-20040	-4712	-6864	-7572	-32768	17327	-5948	-2488	-6572	-15274	-11930	7338	119	120	1
-9140	-3552	13096	-656	2364	1108	-13496	-276	-2700	-3570	8342	984	-13512	-4208	1256	-8548	18743	3154	-21016	8696	18492	-2148	-32768	28546	-22756	-3352	-8232	-7530	-32768	16764	-5988	-2672	-5792	-16161	-11694	7421	122	125	1
-9220	-4496	13152	-112	1746	1159	-14380	-2048	-4216	60	8868	1491	-13708	-4916	-2248	-3706	16026	2566	-25576	12076	20596	-5411	-32177	27320	-23460	-3376	-10492	-7285	-32768	16239	-7892	-492	64	-17703	-8623	9376	123	114	1
-9176	-4536	13152	-87	1730	1309	-15864	1588	-4780	2258	9219	1641	-17460	-3024	-1600	469	12791	1830	-32768	4880	24716	-5655	-32768	26721	-24292	-8228	-12504	-5175	-32768	13975	-11248	2984	828	-14316	-6181	8914	125	124	1
-9384	-3496	13724	-799	3407	1735	-16884	2616	-4480	154	10366	1464	-17632	-676	1724	-718	10314	2281	-32768	6492	16672	-5135	-32768	21502	-27832	-4204	-15148	-598	-32768	12100	-14868	6476	4980	-6030	-4583	8570	116	122	1
-9228	-3604	14132	-1222	6012	1615	-18700	976	-3320	-231	11904	2042	-18764	-2888	4876	-3146	9963	2067	-32768	7512	3360	-11034	-30413	12015	-31888	-1964	-20444	-5716	-32768	10502	-11616	3824	19452	-4736	25	6548	117	123	1
-8900	-4336	14260	-1634	9902	2551	-19472	832	-3020	-843	14031	2431	-18956	-2464	6640	-5204	9892	1635	-32768	4524	-14124	-1397	-26154	2214	-8468	-10988	-26860	-4869	-20723	9226	-17564	-8004	32767	-13648	-797	5176	121	125	1
-8740	-4200	14540	-2025	14955	3873	-20100	2276	-2324	-1701	16220	2727	-19116	-720	8052	-6481	8436	1954	-32768	-6904	-32768	20103	-13962	2671	-4960	-12920	-20888	3830	3705	4369	-17056	-1656	29372	-7692	-5227	-569	121	131	1
-8872	-3500	14672	-2050	21210	4151	-21600	2540	-1692	-2775	18719	3737	-21000	-3232	9320	-7146	4076	1863	-32768	14256	-25796	-6015	17795	2711	-11916	-560	-27096	5360	19042	-2857	-17208	5600	12392	3863	-4354	-2004	120	118	1
-8884	-5896	14772	-1875	29733	5521	-25248	1556	1004	-3812	21288	3947	-23908	-4192	15860	-9831	-3797	1919	-32768	2584	-4880	-7926	29558	-858	-16644	-2484	-21472	-15037	24734	-8922	-10460	996	1528	3035	713	177	116	124	1
-9248	-6640	15372	-2317	32767	8813	-28436	1456	4440	-7904	24427	2831	-24276	-5136	32767	-6788	-25623	4580	10292	-23416	32767	1487	32767	809	-32768	-13000	18992	-22513	12523	-7102	-26968	-3344	17136	-11272	6113	-70	123	128	1
-10076	-10464	18460	-3508	32767	15087	-32768	-3696	12152	-16858	26225	2785	-16248	-4360	31236	-12272	-17357	5780	-32768	-22484	18944	6572	28861	-4694	-14364	-25396	-16680	-23880	29383	-10135	-17344	-10492	3628	-5839	15918	-1921	121	138	1
-24776	-13344	22536	-6299	32767	25629	-32768	-4420	1836	-21854	28090	3393	-20916	-3932	4608	-13423	-10317	3562	-32768	32767	32056	3996	-5699	-11425	-14680	8084	-15528	3151	26717	-654	-18712	-7196	-9792	10975	5170	-1800	132	162	1
-32768	-4360	24640	-7158	32767	24720	-28564	-5120	-10460	-19385	29362	6941	-28376	-12556	-15244	-11741	-12299	3193	1612	-11020	21804	-4764	6606	-5033	-15948	-304	-6376	-3428	14680	265	-18440	9820	-21044	25995	10114	-593	132	112	1
-32220	-19288	26856	-6472	32767	27398	-23800	-4004	-1224	-13397	20728	6445	-32768	-2444	-8532	3801	-20549	-4424	-10716	18352	10072	-2257	6150	-2465	-16836	-3068	-11156	1867	15639	-2007	-16180	6584	-12532	16441	14225	268	131	176	1
-32768	-20040	32767	-6034	26370	25301	-11944	-1196	-29764	801	17425	4289	-29696	2092	1268	4785	-22277	-5905	-10504	9856	12244	247	2997	-873	-20640	-5880	-8496	8948	8843	-1745	-24636	7372	-7364	7339	13473	-1795	138	187	1
-20580	-20420	32767	-6459	-19982	9957	-16232	3624	-5020	-6951	5501	1294	-32768	-1304	-8540	3971	-18249	-5709	-8384	4880	14552	1691	2334	-281	-17936	-856	-6792	-4009	7476	-1802	-20940	-2028	-2852	-3846	15649	-4845	135	142	1
9476	-13120	18340	-1684	-32768	1653	-9800	-2160	6844	-10424	-2975	-2907	-28504	2824	-6188	2028	-19341	-7673	-7648	4972	14084	3238	2693	241	-18504	-5400	-4540	-4357	5567	-1334	-18136	-2584	-1532	62	15909	-6170	127	142	1
8760	-9868	10340	-1877	-27721	-4805	-4812	-1412	1856	-644	-11918	-5469	-20192	1836	-7176	-3703	-17439	-8386	-6644	7780	13328	3782	3314	-216	-18056	220	-3548	3998	5716	-70	-17264	2436	-1588	3735	15211	-6027	128	120	1
1940	-8736	11592	-2957	-27242	-10988	-3352	1160	-1428	5757	-18672	-8461	-15808	-2276	-8404	-101	-14946	-10033	-7556	6652	12780	3070	3326	-968	-17932	-100	-3776	7886	4539	-463	-17124	3480	204	4955	13956	-5304	130	130	1
-5188	-8176	15320	-3291	-31753	-17289	-3916	1712	-5272	5934	-24860	-10098	-13232	-236	-9388	1655	-13681	-9830	-7112	7716	12476	3041	3682	-1799	-17168	1628	-2472	4106	4017	-517	-16064	1804	3560	2079	12225	-4614	124	124	1
-9260	-6292	15964	-2601	-32768	-23334	-5244	2524	-4924	4391	-30551	-11179	-11544	-1244	-10296	1336	-12683	-8727	-7740	5784	12868	2799	4339	-2086	-17296	-1856	-2328	3006	4170	-1007	-15080	1932	5072	2312	12001	-4424	129	132	1
-11440	-4544	14324	-1414	-32768	-27222	-7652	1680	-4556	4942	-32768	-11944	-10772	-324	-9836	3096	-11248	-7390	-8116	5764	12364	2517	4745	-1815	-15824	-2196	-1484	4147	4871	-1139	-14596	1032	5052	3409	12672	-4578	131	134	1
-12848	-3500	14008	-14	-32768	-27062	-8872	1384	-4048	8128	-32768	-12904	-8408	1388	-10036	7930	-10330	-6418	-8412	6576	11816	2039	4950	-2007	-14176	-2076	-2916	3568	5814	-1105	-14328	3020	2944	4429	17761	-3967	139	127	1
-16740	-4048	16708	525	-32768	-24570	-12764	3276	-6280	9330	-32768	-13772	-7684	3008	-10736	14248	-8981	-5481	-9152	6632	11656	1657	4344	-2477	-15908	176	-3056	-2493	4801	-2972	-15984	4236	2240	2247	17959	-2969	125	116	1
-22228	-6592	18300	203	-32768	-22552	-18712	3580	-6068	7874	-32768	-14430	-5668	5208	-12584	19236	-4342	-3134	-8676	7112	11640	970	3947	-3267	-15816	-244	-3140	-2518	7264	-2080	-15768	3280	1016	169	14513	-2738	125	115	1
-24092	-8584	22016	2603	-32768	-21231	-22876	3824	-10148	6869	-32768	-14876	-5800	4660	-7832	20726	-2467	-1877	-8688	6304	11844	803	4196	-3717	-15536	-1232	-2976	-2440	8268	-2100	-16204	1964	2916	-1400	12168	-1717	131	118	1
-30628	-11516	26044	3752	-32768	-19690	-32768	5196	-10456	8515	-32768	-15850	-5860	-4	-3600	15435	-2905	-2357	-8716	6308	12364	1216	5215	-3863	-16244	-1664	-2564	-2407	9709	-2320	-15664	2112	4300	-2016	11044	-1722	125	138	1
-32768	-3620	26048	-3434	-32768	-22059	-29568	8248	-19156	-466	-32768	-11735	-10980	-4292	-3104	10860	402	-6814	-8816	6044	12492	1690	7275	-4040	-17480	-1824	-1688	-2661	11388	-2965	-17100	3024	6648	-90	11284	-2378	121	138	1
-32768	-5320	14152	70	-32768	-16429	-28028	2844	-21612	-5735	-32768	-11219	-23964	-8104	16256	3790	-8810	-8951	-8904	5856	12720	2186	10006	-3640	-18056	-2064	-1180	-2437	13864	-4164	-17144	2400	8000	3080	9978	-2745	121	140	1
-32768	3736	-10748	257	-31431	-13643	-16588	5720	-21584	-3869	-29188	-5217	-15440	2008	32767	2617	-11639	-2133	-8880	7216	13356	2271	14065	-4151	-19528	-1412	-1068	-3074	16114	-4994	-20596	1316	8484	3912	8587	-2088	126	130	1
-32768	14632	-32768	-13810	-19517	-2207	132	10260	-27132	-7255	-5187	-5333	-15772	3928	32767	7901	-7509	982	-9156	5836	13640	2016	19423	-4689	-20152	-3508	-880	-2978	18520	-5439	-18348	2208	9960	5318	3839	-2669	134	122	1
-32768	1388	-32768	-14965	4455	-358	-10312	5732	-23976	-9642	15635	1281	-16588	1296	18188	-13265	-1018	6019	-8740	6764	13720	2622	26570	-4227	-22532	-2308	16	-2117	21034	-5634	-19712	4600	13764	6665	-2333	-3243	133	125	1
-32768	4940	-16956	20856	31992	14389	-13596	2216	-23028	-11643	17908	2524	-11176	-2544	552	-15910	3280	900	-8020	9012	13584	4063	32767	-7571	-26112	-1204	2680	1251	23804	-4284	-20400	3816	28988	6946	-16601	-3532	124	127	1
32767	-7944	32767	698	32767	6252	-32768	15332	32767	18922	14846	6442	-14612	-4204	748	-5160	4061	3020	-8596	9020	14024	4683	32767	-8127	-32768	-2668	10720	11614	26535	-4133	-14524	3404	22696	7847	-21751	-2885	113	134	1
-32768	10600	29372	-4310	32767	7041	-15196	17364	-23184	20381	23832	8745	-17012	-56	13108	18189	15272	-951	-8056	13196	19444	15122	32767	-21809	-32768	3204	11676	22180	26504	-2393	-21056	-1100	10240	19617	-5323	-5345	111	130	1
-22240	-27188	-4932	5509	8284	9626	-21752	-8008	-18328	-632	25494	-612	-18708	3856	-16268	-8544	9150	3371	-32768	11540	18060	12503	32767	-27668	-29848	6264	-7500	15354	25491	-2872	-28300	8624	-12408	27541	-4013	-5216	123	117	1
-21976	7412	31368	7277	7527	8086	-12888	-3264	-13788	18222	21059	3052	-16456	-4720	-13808	-4038	1919	-5030	-32768	17148	20704	8635	32767	-26410	-24480	1052	-21488	3950	25477	-5254	-29256	1372	-4368	6670	-17593	5136	88	132	1
-6732	-8808	12256	2379	2944	4204	-9612	8444	-10944	7196	14568	4006	-11224	-2392	-12160	-6674	8617	1355	-32768	15528	32767	366	9444	-18537	-18008	-15604	-29060	-277	19794	-9907	-32644	992	-4076	-5937	-18212	7665	64	123	1
-10832	-3324	13608	2780	1071	3656	-20176	5588	-11272	-3580	11202	3113	-24760	-6524	-12536	-6205	10677	-232	6536	-1876	32767	11790	-21985	-14975	-21300	4	10280	13957	7084	-2851	-32768	-3060	-8808	-7055	-17915	6773	129	90	1
-10416	-3940	14396	2152	704	2467	-20388	-1772	-8208	1050	9788	2824	-22356	-5164	-5372	-999	15016	502	5588	15296	25636	11473	-24481	-12433	-9612	7492	2952	21338	-548	1988	-26772	-6680	-4576	-861	-17905	5233	98	110	1
-9924	-3048	14432	1002	637	918	-16860	2612	-7944	6633	7238	2802	-18104	-2416	-3608	3563	17752	2769	5044	14900	17904	-174	-28884	-8507	-7872	4992	1140	8970	-8734	5948	-23080	-912	-5836	1601	-15791	6715	134	98	1
-8312	-4364	14096	311	372	300	-16136	1196	-5628	9728	5630	2150	-16388	-688	-2720	6219	19064	4397	1724	9756	15232	-2189	-32768	-1650	-7876	4172	892	7153	-9987	6613	-17632	-156	-6644	178	-13881	8929	125	148	1
-7932	-4544	14036	401	639	759	-16668	1596	-2948	4506	5069	1463	-17460	-156	260	2744	17930	4062	-1976	8588	12868	2842	-32768	6312	-7584	-1828	-996	70	-21287	9199	-18292	1932	-8040	-2266	-12941	10602	121	122	1
-7712	-5944	13396	1272	660	1952	-16892	-1084	-3032	-2235	5476	718	-16600	-2444	704	-2930	16210	3072	-5772	10364	11856	3857	-32768	13682	-7580	-592	-3616	-1150	-26488	10827	-12428	-1588	-7340	-4051	-12528	9641	152	127	1
-8548	-4216	13704	1391	1097	2375	-15808	-1272	-3132	-163	4955	1529	-13440	-3700	964	-2094	14827	1590	-7768	9392	10860	444	-32768	19534	-7964	-704	-3448	-1305	-27435	11126	-12584	-1456	-7484	-2556	-11295	8891	139	120	1
-9452	-4740	13384	1215	1119	2863	-14132	-980	-3724	3445	5020	1273	-14816	-2268	2800	375	13229	1616	-10900	8992	12632	-2252	-32768	23366	-11480	-972	-5048	-6532	-32768	13421	-10016	-2324	-7736	-7415	-11425	7697	130	139	1
-9388	-4180	13112	1291	427	2979	-14884	100	-3660	1906	5854	1251	-12704	396	6036	-2352	13691	1403	-14996	8600	14356	-3454	-32768	26564	-13608	-3004	-5288	-9937	-32768	13389	-7536	-4248	-8736	-10382	-12082	6785	129	122	1
-9660	-4036	13136	365	-747	2056	-15076	2340	-4220	-6324	8545	696	-14540	-1828	4604	-6032	18173	1099	-17924	6548	15944	-4601	-32768	29117	-18656	-10424	-2672	-11751	-32768	12213	-5192	-3584	-9124	-16080	-12665	6170	118	114	1
-9104	-3060	13968	908	398	2606	-13868	1012	-3192	5238	8198	1257	-15200	-3736	956	-8121	19786	2081	-18208	9052	18936	-4361	-32768	28359	-20208	-3240	-7448	-5797	-32768	14981	-5684	-4576	-7400	-19037	-10218	5997	124	129	1
-8736	-2636	13832	593	844	2226	-12612	2288	-3712	1112	8647	1336	-16288	-3448	-780	-3639	15885	2575	-23904	11000	23300	-5628	-32768	26559	-24960	-3996	-9948	-6482	-32768	15214	-8400	-4736	-2364	-20212	-8394	5570	127	118	1
-8628	-2716	14196	-17	1947	1963	-15816	60	-3172	-40	9529	1757	-17808	-3740	1164	1822	10252	1688	-31084	12400	25772	-7534	-32768	24195	-27380	-6776	-12504	-3932	-32768	15388	-9528	-1896	900	-18674	-6614	6308	123	119	1
-8560	-3300	14400	-247	3757	1878	-18304	900	-4032	4247	10520	2057	-17508	-2948	3388	2543	9948	1794	-32768	4388	22652	-2020	-32768	24223	-25864	-10264	-12540	89	-32768	13159	-16352	2412	-76	-10946	-3513	7709	119	118	1
-8788	-3392	14540	-902	6252	2319	-18908	2420	-3312	822	12453	2103	-18716	-2348	5044	-742	11328	2319	-32768	9316	7132	-6717	-32768	18450	-32768	-628	-21460	-2457	-32768	11546	-17060	6588	21772	-6526	-10912	10530	114	122	1
-8828	-3688	14832	-902	10035	2547	-18708	2228	-3344	552	12754	2149	-18368	-3684	7072	-3059	9985	2043	-32768	6608	-12336	-8447	-25291	7538	-12900	-8088	-28132	-5973	-24821	7947	-12200	-3772	32767	-10535	-2235	5026	120	125	1
-8172	-4140	15068	-810	14787	3644	-20100	1316	-1304	-547	17228	3305	-19648	-1368	9336	-4883	7106	1814	-32768	-7612	-32768	16422	-14884	-298	-2924	-14588	-29200	-2059	528	4255	-18940	-8232	32767	-2913	-4340	-2103	120	124	1
-8496	-3376	15124	-485	20897	4370	-21288	1860	-1616	-850	20061	4008	-20168	-2292	10756	-5094	1746	2070	-32768	9920	-26988	2808	14111	2153	-14108	-4700	-25724	7639	19465	-3749	-14812	-2032	13460	10242	-4802	-3166	118	120	1
-7260	-5496	15476	-53	29174	6476	-25268	916	552	-1410	22640	3725	-23584	-3428	16812	-7016	-6546	1452	-32768	1936	-4556	-2247	27824	-5516	-13844	-2272	-27120	-5347	27306	-7281	-10996	1808	1332	13231	429	-2848	114	125	1
-8412	-6084	15588	-159	32767	11236	-29824	2652	4376	-6300	25677	1753	-23780	-2868	19608	-7430	-9244	1675	15548	-5356	32767	2513	30716	-4227	-32768	-13852	32767	-8847	3793	-8754	-13244	-112	17896	-2217	5367	-3739	121	125	1
-10716	-7748	18884	-1933	32767	17707	-32768	620	9328	-19068	27804	249	-14580	-4328	23788	-16011	-15588	4857	-27796	-1884	9532	10340	31503	-7535	-18768	-14676	-17336	2278	25755	-6103	-23344	-4688	4320	3114	11916	-4204	129	115	1
-19584	-8644	26864	-3183	32767	26760	-32768	-6764	3424	-25455	28444	1308	-22800	-3664	6148	-17685	-11706	5476	-27376	32767	32767	-2851	7894	-12379	-20100	15364	-15424	-3261	30417	-866	-22472	-3064	-800	10412	5138	-858	131	133	1
-32768	-5432	20872	-1524	32767	29943	-25956	-2372	-14852	-21922	27644	4346	-26236	-11644	-11836	-16928	-12203	3954	-32768	32767	32192	-3792	-263	-12185	-20644	-4752	-5436	-14839	12170	-3460	-17772	7816	-18812	18823	10492	622	136	125	1
-32768	-17336	25780	-8144	32767	24734	-24484	-1584	680	-14287	21177	5697	-32768	-5008	-10944	-926	-19152	-2604	-7364	17752	7696	-3214	3664	-4965	-11584	-3396	-11552	918	17727	-3022	-15016	5784	-14668	11816	15077	2102	130	163	1
-32768	-15528	32767	-4096	32767	29286	-20992	-1388	-3588	-12359	21410	5297	-30148	2684	-612	3837	-22008	-5498	-9888	11932	11324	-1923	2079	-3180	-12708	-3416	-10272	1132	16322	-2632	-22932	8388	-8792	4178	14813	-1281	135	172	1
-21616	-15188	32767	-7978	-15576	12970	-13776	5428	-10172	-7644	5697	156	-32044	-5224	-7440	1369	-19436	-6254	-8280	5500	13980	-1045	1918	-2117	-19516	-1356	-8120	-4710	7061	-2772	-21132	-1676	-2076	-8276	15537	-2918	132	141	1
7420	-16520	18288	-5752	-32768	-1476	-10184	-1544	6660	-12415	-3210	-2596	-29272	1516	-6340	2443	-18984	-8055	-7052	4236	14540	732	2001	-855	-17972	-7472	-4724	-8651	5167	-2607	-18924	-5136	-1388	-5549	16537	-5451	128	136	1
8472	-11268	9792	-1860	-28269	-9816	-4936	-1920	1544	-2592	-12456	-5208	-21424	312	-7916	-2626	-17051	-9844	-6992	4452	14480	1053	2173	-760	-17036	-1896	-3612	-2361	4543	-316	-17924	-1740	-44	-1212	15344	-4663	124	128	1
-816	-7952	12748	-3701	-28979	-17361	-2212	984	-2564	8156	-18590	-7481	-15188	-2304	-7976	383	-14354	-10945	-6648	6756	13508	2234	3009	-1131	-17948	-1088	-4020	5081	4951	-56	-17436	2272	560	3500	14022	-5130	122	108	1
-3472	-7268	13688	-3310	-32768	-23138	-3372	1984	-3892	8014	-25322	-9244	-12348	-1312	-8852	1464	-12292	-10128	-6828	6732	13288	1982	3092	-1874	-17300	420	-2768	3122	4554	-381	-16748	1404	1848	2794	13545	-4017	124	121	1
-7944	-4112	14240	-1863	-32768	-26808	-4552	2084	-3972	7123	-30897	-10297	-11156	-2208	-10552	4224	-10904	-9149	-7120	7824	12708	1648	3055	-3146	-16740	1212	-2856	1667	4482	-114	-16824	1148	3452	3338	11561	-2690	123	127	1
-11412	-2676	15088	-943	-32768	-28745	-6188	2100	-4480	8848	-32768	-11049	-9916	224	-10272	8014	-10473	-7131	-7180	6732	12744	783	2985	-4094	-16500	464	-3496	2085	4889	-216	-15704	3920	4292	3434	11859	-3163	132	170	1
-13452	-1860	15176	-183	-32768	-28247	-8584	3044	-4516	11942	-32768	-11356	-9360	2716	-9200	10583	-10292	-5206	-7984	6068	12740	748	3363	-4006	-19756	-7624	-220	3706	5470	-931	-14568	2492	4244	4409	15852	-1526	138	131	1
-16600	-2420	16480	347	-32768	-25735	-12752	4188	-4632	11309	-32768	-11807	-8616	4332	-11512	13970	-7977	-3689	-8788	4968	12836	968	3551	-3806	-14676	-1544	-3072	779	5246	-1062	-15168	2420	2720	4319	18735	-3098	137	129	1
-19672	-5456	17800	2233	-32768	-22756	-17924	4400	-6716	9027	-32768	-12463	-5468	5192	-11536	19714	-4758	-1994	-7924	5740	12864	1109	4015	-3486	-15636	-2020	-1956	-694	7114	-1392	-17388	3080	1492	4409	15974	-4035	129	115	1
-23356	-6232	22532	3697	-32768	-21426	-23512	5280	-10388	8745	-32768	-12784	-6288	4440	-6296	22511	-3595	-1537	-7856	5848	12844	1183	4151	-3512	-15536	-1848	-3280	-1150	8205	-1604	-17012	2028	2484	-269	11185	-2539	124	119	1
-31876	-6468	24460	2167	-32768	-21009	-31256	5576	-11432	6854	-32768	-12625	-6176	2332	-3428	20787	-1401	-2507	-8028	6228	12812	1481	5349	-3357	-16436	-644	-2888	-1230	9621	-2039	-15640	4060	4088	-3634	9222	-1817	123	113	1
-32768	-6232	22804	1567	-32768	-20954	-29192	2772	-18436	3008	-32768	-9696	-10996	-2856	-3180	15969	811	-7599	-8152	6228	13100	1738	7155	-3736	-17524	-1176	-1884	-2224	11119	-2738	-15648	3736	4600	-3167	9110	-1643	122	138	1
-32768	-8460	11876	8207	-32768	-15827	-29928	3660	-21916	1722	-32768	-8741	-25752	-5232	14776	7957	-8997	-8137	-7832	6080	13656	1935	9718	-3878	-17480	-1576	-1892	-2217	11582	-2868	-16936	3272	8768	2588	10417	-3030	118	130	1
-32768	2012	-11880	2147	-26343	-15079	-18680	4112	-27876	1771	-27757	-2548	-14296	3352	32767	5455	-11054	634	-7976	6460	14028	1854	14040	-4526	-20428	-1816	-1736	-2021	15987	-4393	-19580	2056	9284	3739	8782	-1991	121	143	1
-32768	6608	-32768	-6369	-13206	-4808	-1748	6656	-27092	-4124	-7637	-4287	-16508	7444	32767	4176	-5713	834	-8232	5748	14476	1544	19415	-4935	-21200	-3736	-1224	-2512	18418	-5160	-19876	2496	10960	4675	3969	-2720	121	127	1
-32768	4852	-32768	-12935	7218	-1546	-11988	2840	-24092	-11708	13492	-437	-17104	2344	20540	-14356	-1348	5963	-7472	6724	15024	1666	27048	-5766	-23888	-2680	160	-1403	21077	-5106	-21188	4812	13604	4692	-3141	-3442	130	120	1
-32768	5156	-19124	8495	29939	10766	-14176	1892	-18172	-3980	24799	4449	-13488	820	4684	-22670	1395	2268	-7284	7716	15248	2370	32767	-8548	-27496	-2660	1784	722	23804	-4373	-22252	5520	29400	3643	-18453	-2859	134	129	1
-1368	-3536	32767	-2723	32767	5935	-32768	7092	13612	14864	17777	4760	-18512	-436	3844	-16568	2428	2095	-2844	11504	18112	6771	32767	-13240	-32768	-1408	10056	9853	26525	-3834	-7552	-380	23776	2501	-19003	-3863	112	138	1
-32768	5680	25828	-4425	28337	4393	-10776	20836	-15640	15579	24280	6439	-3068	-1856	-1676	1893	24526	-2769	-4372	10296	19928	11935	32767	-22174	-32768	3140	15768	21091	26740	-2962	-19400	-2468	10344	18683	-5133	-6406	116	132	1
-32768	-22000	25920	2283	7653	9377	-19780	-10232	-16192	-5310	22191	-1079	-14076	-756	-3076	-3545	4934	3677	-32768	12388	20816	14339	32767	-27605	-27044	8356	-4272	16404	22511	-1084	-27796	8380	-15172	27588	-3637	-6069	113	94	1
-14084	-5592	26256	5073	5787	6447	-15808	-11520	-8644	13894	19659	1098	-18056	-10776	-16084	1207	3183	-2447	-32768	18588	27196	5773	32767	-26453	-17236	2020	-28396	3680	25349	-6509	-26776	5476	-4496	4758	-17252	5266	88	137	1
-8656	-11116	11576	3570	2062	5919	-11820	5140	-12392	15901	13810	4405	-11892	-5604	-9532	1634	11215	-3459	-26656	16224	32767	2970	-2436	-14393	-26888	-11684	-15020	-1609	21367	-10443	-32768	-2208	-5484	-10278	-16944	8476	97	127	1
-11008	-4240	14532	4134	245	3489	-19384	7132	-10224	4876	10868	5137	-21800	-4508	-8464	123	12077	-2687	9396	7820	24576	9352	-17814	-14478	-20000	6252	10256	18922	4623	-1060	-32768	-4380	-6840	-6414	-19627	8527	123	122	1
-10096	-2460	14664	2375	257	1570	-19332	7184	-8356	-2917	10397	3154	-20836	-1116	-4284	163	15232	804	8240	13764	21052	3374	-23143	-11678	-9124	4092	3896	14186	-3181	1651	-27384	-7520	-4916	-39	-20416	5830	118	113	1
-9424	-2520	14556	432	288	0	-16888	1764	-6284	2299	8452	2129	-18012	-272	-2876	2929	17350	3889	6844	11224	16572	-2154	-26154	-6388	-7412	2020	868	5346	-11267	7148	-21176	-5200	-5124	2822	-17512	7259	122	117	1
-8412	-3888	13992	-537	532	-512	-16212	996	-5076	7507	6315	1429	-16212	44	-1984	2691	17539	5927	2484	8492	14064	2528	-29457	135	-6252	-512	116	3076	-18249	9368	-18524	-1560	-7508	3751	-13922	8900	129	127	1
-8116	-4372	13808	-784	777	-357	-16356	604	-4188	8391	5621	1090	-16940	144	384	2833	17444	3793	-3860	9928	14140	6929	-32768	7149	-6688	-1196	-3792	2665	-22698	11867	-12504	-1980	-7452	-208	-13946	10331	132	128	1
-8300	-4600	13688	-525	964	181	-15616	2660	-3332	-460	5547	337	-16376	-808	1036	-1354	16324	3190	-5792	9648	11684	5649	-32768	14271	-6364	-932	-3092	246	-28093	13730	-10328	-1572	-7200	2010	-12424	8845	132	123	1
-8228	-5052	13412	121	863	859	-16104	-1180	-3260	-3917	5999	-105	-15388	-2376	1272	-3728	15120	1673	-7212	7644	10552	3437	-32768	19672	-8300	-1792	-1180	-1120	-31753	14993	-9616	380	-7584	-1960	-11749	6708	138	135	1
-8420	-4088	13628	511	723	1226	-15388	-1356	-3224	-24	5994	611	-14368	-1728	1932	-3607	14209	1106	-11412	8024	13288	1068	-32768	23314	-11364	-1824	-3904	-3822	-32768	15556	-8988	-1928	-7556	-6508	-11095	4940	127	129	1
-8364	-4080	13652	629	729	1433	-15320	-204	-2940	2578	6298	888	-14912	-1616	2836	-5111	13687	1371	-16172	8192	16692	-1555	-32768	25255	-14992	-1288	-5496	-7301	-32768	15981	-7332	-2596	-8532	-7742	-11724	4571	127	126	1
-7600	-4164	14084	472	785	1975	-16092	-640	-3704	387	7018	837	-14892	-3548	3652	-6304	14692	1408	-18152	8352	18240	-2673	-32768	26773	-20196	-4708	-6364	-9563	-32768	16457	-6072	-1092	-7872	-13867	-11081	5508	127	125	1
-8868	-3856	13620	10	711	2651	-15456	1244	-4360	-2335	7883	824	-13288	-3676	5348	-4879	17748	1497	-19764	8848	20436	-3458	-32768	27931	-23956	-4712	-7520	-8468	-32768	15632	-7408	-1952	-4748	-19541	-9107	7497	127	121	1
-9136	-3900	13568	-134	1023	2464	-14636	788	-2984	-2993	8937	1031	-14436	-3620	1132	-6090	18396	2509	-25788	11440	23356	-5159	-32768	28097	-25620	-5480	-9604	-7738	-32768	14509	-9044	-1872	-276	-19683	-7279	8593	122	118	1
-8572	-3688	14276	-274	1871	2259	-15740	172	-3528	160	9990	1349	-17952	-3896	-64	-2031	13802	2904	-32524	9880	24416	-9368	-32768	26293	-25900	-5996	-13324	-5670	-32768	13727	-12184	1612	1408	-19173	-5842	9568	121	121	1
-8500	-3376	14592	-795	4151	2279	-18820	1388	-4400	1372	10953	1751	-19956	-4008	896	870	9823	2137	-32768	8348	18084	-7130	-32768	22043	-26584	-4956	-15620	-1782	-32768	11204	-16076	4520	3356	-9075	-4047	8275	118	115	1
-8428	-3600	14836	-1532	7051	2799	-19060	2724	-4088	32	12353	2026	-19560	-2580	4596	-1725	9958	1747	-32768	10244	1244	-11858	-30666	13966	-32768	520	-26144	-9976	-32768	9397	-15384	5364	26504	-6870	-6007	6721	115	124	1
-8564	-3644	15176	-2205	11271	3105	-19680	2108	-3584	-2107	14261	2442	-18724	-1440	6644	-4769	10588	1981	-32768	4956	-19952	-1691	-24920	4331	-31812	-1404	-27560	-10753	-31670	8395	-15376	-8048	32767	-10866	-1676	3644	123	124	1
-8132	-3444	15304	-2327	16828	3963	-20860	2540	-1472	-2364	16627	2857	-20096	-968	9312	-6483	7163	2564	-32768	-1828	-32768	15647	-8074	2614	-4108	-10072	-26912	3195	5625	4222	-17924	-4236	29104	-2235	-3612	-1178	120	127	1
-8048	-4012	15532	-2231	23824	4635	-22672	1604	-424	-2163	19441	3741	-21980	-2828	12152	-6237	630	1974	-32768	6312	-23072	-2841	19063	3700	-10848	-3624	-28588	4962	22118	-4176	-15804	1612	10172	9159	-2689	-1693	118	120	1
-8744	-7272	15672	-1414	32767	7460	-26076	824	2416	-3406	22331	3289	-23696	-2728	23328	-8574	-12088	2978	-16432	6140	4540	-5907	27711	-193	-19728	-5828	-17152	-9194	23997	-8120	-7012	624	-2588	10042	2893	-1905	120	120	1
-8360	-8892	16024	-2450	32767	12640	-31668	1032	7848	-8531	25646	862	-18088	-640	32767	-12533	-24683	6683	-7708	-19072	29016	13873	32767	3	-25752	-15560	5832	-1691	19970	-3836	-15100	2892	8788	-1902	17557	-476	122	126	1
-10720	-10060	18736	-3380	32767	20163	-32768	-2720	9796	-21831	27125	380	-21684	-7324	16984	-19088	-13131	4076	-32768	-16316	25036	14078	26398	-7117	-17060	-17912	-12236	-16776	29718	-8795	-16076	-8692	-2088	5045	11949	-9142	128	124	1
-27708	-11360	23348	-4671	32767	29497	-31872	-6840	-3840	-25838	28674	1656	-18856	-3108	1180	-16968	-11968	4166	-30472	32767	6336	-2234	5966	-11992	-15940	22568	-26360	341	25667	1656	-19580	932	-12596	15034	5836	261	132	145	1
-32768	-712	24480	-6792	32767	27567	-23676	-2660	-12788	-19480	25978	5333	-26000	-10368	-12588	-9576	-14162	1438	-10716	-13644	23844	-2301	4873	-8260	-16168	23164	-31056	-2524	22931	2336	-15660	11992	-19164	21793	10517	786	134	119	1
-32768	-18116	32767	-9995	32767	28269	-18816	-1684	-10660	-9977	21756	3843	-32768	376	-8304	2218	-19265	-3563	-11908	14476	11228	-2312	6729	-3522	-14288	-3896	-12040	2450	15895	-3148	-18500	7612	-13584	10753	15262	1562	128	169	1
-32768	-20216	32767	-10484	12897	26245	-14664	-3060	-21416	-7443	14359	866	-31236	756	-3520	320	-20646	-4840	-11324	8528	12996	-519	2758	-2418	-19032	-5224	-8652	5561	9805	-2907	-23988	2140	-7212	937	14219	-1192	140	161	1
-17612	-20028	32767	-14818	-23701	13514	-12076	1712	-5312	-13210	3480	-1887	-30912	-2572	-7000	-1137	-18984	-5463	-9284	4948	14124	1110	1868	-1434	-18296	-2968	-8088	-5565	7963	-2432	-21732	-4848	-3472	-6485	15832	-4133	133	140	1
9384	-17036	11588	-7750	-32768	1509	-9672	-1916	5240	-12151	-5209	-5178	-26088	2148	-6076	-1718	-17721	-8416	-8044	4484	14108	2312	1940	-35	-18208	-6652	-5296	-6304	5191	-1360	-17980	-4136	-2248	-2692	16072	-5773	136	131	1
7000	-12952	8624	-3375	-26491	-8029	-4496	-1324	1376	160	-13363	-7843	-20120	-332	-8132	-5180	-15771	-10639	-7168	6480	13440	2647	2476	161	-17488	-1256	-3928	-191	4615	-123	-16944	-364	-816	2513	15409	-5650	130	107	1
124	-9932	11532	-3905	-25914	-17313	-4240	1532	-2824	8665	-19653	-9707	-15032	-2564	-8216	-574	-14070	-11672	-7140	7004	12952	2427	2716	-434	-17940	-728	-3844	6435	4333	-8	-17120	2260	1176	3815	14714	-4816	111	111	1
-5896	-8240	15060	-2908	-29543	-25033	-4248	2252	-4604	9319	-26078	-10873	-12432	-700	-8756	1158	-11641	-10652	-7060	6356	12668	2519	3241	-1076	-17140	244	-2416	4888	3743	-39	-16088	1988	1616	3269	14393	-4794	114	124	1
-10636	-5412	17044	-672	-32768	-30350	-6084	2484	-5012	9345	-31225	-11550	-11900	-1396	-9912	2739	-10276	-9453	-7792	6284	12536	2339	3488	-1273	-16644	-480	-2576	2794	4693	-403	-15232	688	5080	2287	10137	-2506	133	127	1
-13488	-2488	16340	561	-32768	-32768	-7784	2332	-5120	11678	-32768	-11527	-9508	-556	-10080	7851	-9585	-7955	-7760	6424	12444	2406	4231	-1306	-15808	-1216	-2492	4147	5241	-693	-13756	2316	5528	4041	9755	-3219	146	126	1
-15224	-1572	16336	1712	-32768	-32513	-9408	2076	-4268	13926	-32768	-11435	-7808	1780	-9424	11527	-9207	-6656	-8596	6500	12132	2370	4247	-1347	-10980	1836	-6016	6559	7674	850	-14156	2028	5628	5017	13983	-3511	135	148	1
-18540	-1400	17248	2879	-32768	-28316	-14624	2880	-5692	13990	-32768	-11712	-7192	3184	-9340	17215	-7820	-5654	-8172	6216	12168	1924	3849	-1491	-13356	-304	-1032	2012	6403	-2188	-14348	4676	2424	6647	17204	-4156	132	139	1
-24316	-4216	19072	2610	-32768	-23918	-19204	3036	-6476	11970	-32768	-11685	-5424	5576	-9988	20834	-3893	-3579	-8128	6792	11916	1101	3770	-2261	-16168	476	-3628	2	7378	-2108	-16152	4000	-1016	4808	16995	-3883	131	129	1
-25724	-5848	22024	2522	-32768	-19379	-23560	4580	-9828	5796	-32768	-11916	-6376	5272	-5120	21926	-3408	-3237	-9064	6432	11900	862	3862	-2842	-15688	-904	-5260	-1741	7674	-2446	-17140	2408	-304	-173	14827	-2216	128	117	1
-30824	-10708	20884	1356	-32768	-14228	-32548	5880	-13224	5124	-32768	-14913	-8176	572	808	19052	-4623	-3091	-8552	6368	12452	1309	4093	-2850	-16460	-2168	-3484	-1693	8455	-2844	-16700	1724	2508	-1588	10449	-1554	119	120	1
-32768	-5600	19600	-9291	-32768	-14346	-26880	4596	-22564	-7905	-32768	-12439	-14640	-3336	2848	11097	-2042	-6212	-8824	6572	12688	1717	5789	-3119	-16940	-1944	-2188	-434	10145	-2886	-17132	3648	6576	816	8643	-2582	123	146	1
-32768	-1256	6080	-6048	-32768	-10762	-24084	4764	-22484	-6853	-32768	-11526	-25588	-7164	24576	4169	-12939	-6224	-9144	5904	13520	2299	9047	-3155	-19440	-1188	-1880	-1041	12620	-4084	-17564	5148	9108	2502	10370	-2871	130	131	1
-32768	3008	-16500	-5057	-25943	-9322	-14692	3484	-23248	-11250	-20838	-5660	-7608	5816	32767	-5548	-6597	-2737	-8088	6120	13904	3378	13705	-4273	-20744	-2356	-896	-3137	14442	-5106	-19792	1720	10564	2410	9631	-2995	119	136	1
-32768	6228	-32768	-4440	-9435	259	-4936	5800	-23700	-2128	-2402	-4437	-17700	3476	27176	-4098	-1427	-1286	-8532	5732	14096	4128	19828	-4182	-21036	-4652	-4	-2693	17368	-5732	-21084	208	12456	5580	3542	-3869	129	118	1
-32768	3372	-25076	-8517	5728	745	-9220	6816	-24532	-2094	15267	-110	-14828	1568	15092	-6548	-432	1248	-8388	6604	14220	5026	27866	-4193	-23012	-3892	1316	-194	20441	-5548	-21432	1952	16788	6364	-5519	-4600	123	118	1
-32768	-1888	-16020	17647	27275	945	-11768	8360	-19216	5495	23623	3033	-11772	1392	1720	-14453	2561	387	-7852	7968	14416	7146	32767	-6315	-27368	-2572	3188	3302	23744	-4959	-20468	4364	29492	4495	-20658	-3083	124	132	1
20960	16332	32767	171	32767	-5668	-32768	12200	32767	17106	13742	8007	-19732	-3836	17716	-5998	2331	3494	-4212	13412	19164	10898	32767	-11582	-32768	1708	11208	11917	26141	-4975	-9128	7252	25788	8924	-17303	-5072	135	141	1
-32768	18664	27388	-6492	31969	8166	-9996	19048	-17764	13641	22526	8050	-18452	-132	24	7954	11047	5811	-7336	15072	18628	16868	32767	-22925	-32768	9012	11468	16149	24874	-3762	-15060	8312	19352	14821	-14869	-6707	110	127	1
-21000	-32768	-9760	5251	11503	5293	-22912	-11468	-19500	-976	23540	-1786	-18124	4624	-18672	2934	10756	3125	-32768	14248	24016	14848	32767	-28695	-26460	4840	-15992	8472	26656	-3630	-28656	11628	-13360	22208	-2809	-3312	115	134	1
-26216	14404	28308	3620	5357	4647	-14428	3620	-15076	16042	18677	4034	-16364	-2024	-14052	-3924	1451	-3832	-32768	25516	32767	9800	32767	-21782	-22560	-6076	-24744	-3435	26986	-10637	-28288	6756	-2880	-3568	-19171	7639	122	121	1
-8244	-6600	14612	1437	3604	1823	-14416	4264	-11372	-2445	13370	2799	-14796	108	-10096	-10539	11009	768	-13924	17340	32767	5211	-3928	-13424	-29884	-7248	-6088	2702	13924	-8778	-32768	-2052	-7876	-14494	-16798	6726	95	119	1
-9212	-6220	13416	344	1922	918	-19740	3824	-9384	-9922	10553	2093	-22836	-5792	-9668	-12769	10118	1108	7140	9716	25556	3438	-13448	-16406	-16348	8352	4524	17866	3727	-2664	-31400	-5944	-6728	-8765	-19859	6495	121	95	1
-9464	-5120	14180	-225	1446	218	-18524	-1824	-8296	171	8432	1613	-20720	-4932	-4504	-3376	15207	2105	6364	13188	23108	-789	-23841	-10957	-9512	2200	3144	11450	-3653	-1144	-24008	-1292	-5844	-3044	-19210	4416	113	115	1
-8896	-4108	14360	-895	1266	-539	-16756	1744	-6660	5102	5647	1547	-17896	-2808	-3768	1226	17321	5434	6360	12056	16432	-6172	-27675	-5488	-8552	3616	1512	5655	-12672	3707	-20536	-360	-5672	-1209	-15351	6661	139	120	1
-8172	-5364	13848	-1372	1303	-846	-16572	384	-4772	2616	4497	1327	-18120	-1376	-1892	1219	17128	5614	2020	10316	13664	-4832	-30799	-437	-6200	2784	-1552	1599	-19743	5829	-16940	1872	-8272	-4059	-13465	9540	109	126	1
-7836	-6444	13696	-1460	1663	-239	-17784	536	-3292	-4567	4957	462	-18216	-1784	1000	-2774	15873	4692	-3864	11968	12792	-2254	-32768	6256	-6996	1040	-4060	-2815	-25082	7468	-14196	616	-8544	-5872	-12982	10709	128	132	1
-7948	-5780	13416	-1508	2516	286	-17212	-1152	-2504	-8737	4924	587	-17196	-2384	1572	-5866	15033	3691	-6252	13432	10560	-4383	-32768	13590	-8520	684	-3680	-5757	-29881	8774	-13240	76	-8592	-6610	-12596	10753	137	120	1
-8420	-5560	13560	-2006	2971	703	-15396	-1176	-2352	-5791	4496	1170	-14240	-2876	2652	-5343	12419	3644	-7852	12656	10248	-8229	-32768	19206	-10084	468	-4168	-8535	-32768	9641	-10704	-1884	-8184	-10079	-11102	8730	145	139	1
-9000	-5152	12872	-1830	3608	565	-15488	-208	-2408	-4166	5022	1476	-13804	-2072	3364	-6397	11083	3913	-10872	11780	12520	-8902	-32768	23929	-13116	-1072	-5804	-11102	-32768	10508	-10016	-2904	-9448	-11363	-11584	7858	132	124	1
-8608	-3820	12296	-655	3089	346	-7052	-4756	-8492	-8036	6428	2549	-13672	-1780	5380	-8189	14687	3940	-14672	10112	13928	-9401	-32768	27696	-16344	-2420	-4948	-17002	-32768	8011	-7160	-3800	-9352	-15990	-12282	7137	131	126	1
-8012	-4132	12864	689	2283	2462	-13276	-7092	-4668	921	6535	2749	-12768	-6792	2392	-9947	18079	3252	-17300	12800	17104	-7529	-32768	28346	-19800	-2724	-7904	-8433	-32768	13024	-6032	-6256	-7832	-20482	-11242	6361	123	121	1
-8244	-7084	12180	1076	1028	3644	-12804	-1612	-3104	-758	8058	3250	-12668	-8440	740	-6699	18153	2526	-19872	13064	21972	-6046	-32768	26836	-24844	-2460	-10196	-6515	-32768	14244	-7944	-6076	-2556	-22711	-11489	6273	124	128	1
-8740	-6008	13016	1508	564	4986	-13572	-2484	-2576	2716	8561	2969	-15140	-5828	744	-636	13819	1858	-29140	16592	24612	-6177	-32768	24316	-27788	-4496	-13248	-3753	-32768	16221	-10052	-5044	2396	-19525	-9661	5737	126	121	1
-9024	-4696	13564	928	1600	5331	-16480	1876	-3000	4265	9809	3092	-18292	-2412	1672	2924	9936	1816	-32768	14360	22704	-5382	-32768	20853	-25996	-4404	-13716	-3786	-32768	18145	-14420	2796	1676	-16672	-7924	6813	119	122	1
-10444	-3448	13960	-72	3905	4121	-18616	3904	-3392	2837	11331	3434	-18152	-1864	4596	1805	9610	3197	-32768	12276	10420	4979	-32768	19995	-31556	-8960	-18876	4519	-32768	12891	-17700	8336	15340	-1931	-9348	8193	116	116	1
-9252	-3304	14300	-1191	7353	2484	-19312	3288	-1892	2901	13236	4272	-18916	-2312	5660	696	11079	2947	-32768	4956	-5160	-11204	-28122	7146	-26256	160	-27320	-4126	-28502	9947	-10716	2896	31780	-4179	-2931	9836	117	125	1
-8824	-5044	14384	-2283	12272	2740	-21012	1016	-1676	3711	15390	4763	-20468	-1360	7752	-611	9762	2503	-32768	2348	-29348	2635	-19285	-4018	-5620	-7356	-29708	-6255	-6568	6890	-18940	-7976	32767	-2960	-3894	3891	123	131	1
-8572	-4636	14868	-3450	18177	4030	-20704	3276	-1348	2054	18114	4932	-20868	284	9852	-2970	4453	2570	-32768	4352	-32404	9300	2469	-1202	-8824	-11384	-27808	4289	11930	892	-17416	-4128	20600	8137	-2893	-1260	124	125	1
-8740	-5772	15056	-4614	25601	4845	-23728	2228	184	-685	20880	4832	-22608	-624	13968	-4754	-2369	2710	-32768	828	-14992	-6589	23483	-852	-13300	-6932	-27116	898	23187	-4514	-11740	1304	2572	13068	-307	-914	111	114	1
-8744	-6592	14820	-5912	32767	7215	-27204	2696	2808	-3580	23820	3968	-24352	-1516	28112	-6768	-18669	3541	1424	-740	32767	-4466	32767	-3254	-32768	-14404	31236	-3650	2647	-9375	-9904	2012	6548	7652	779	-1836	132	118	1
-7176	-12768	18188	-6526	32767	11794	-32768	-3572	9872	-13239	26097	2482	-13836	-6252	19852	-18045	-20536	7361	-32768	2312	18976	8960	30158	-8331	-20136	-12744	-21848	6117	25157	-4631	-17432	-228	10548	365	15501	-2808	128	110	1
-12516	-11292	18412	-8558	32767	22402	-32768	-5780	10492	-19821	26919	2748	-23336	-3924	11072	-12858	-11541	4239	-3576	13840	26972	11948	17894	-12093	-26552	-4988	844	-3312	25471	-4644	-18072	-16312	-6648	8189	8481	-8177	132	140	1
-12736	-12264	20196	-9142	32767	24033	-26228	-5248	-11748	-19491	28700	4489	-18084	-9564	-4992	-13539	-10622	2655	-19384	22772	7664	-3630	9818	-7536	-15656	18232	-26408	-2644	19732	2161	-16644	4008	-15740	18788	7033	125	133	128	1
-29888	-6424	17444	-8723	32767	25889	-25588	-1168	-2636	-12895	24299	8064	-28304	-9828	-15348	-2274	-14918	-817	-8820	12788	11284	-2356	1257	-8093	-15796	-9664	-10164	-3720	19772	-4719	-15360	2556	-13716	13397	11898	3186	129	140	1
-32768	-17376	32767	-16404	32767	26412	-17016	-764	-27028	-3777	20242	7028	-31812	328	-3004	6744	-20556	-5287	-9268	-4256	18432	-1348	3505	-3367	-18972	-7216	-9756	5546	11673	-2385	-20372	6464	-12016	14852	14427	602	132	151	1
-18560	-17192	32767	-9251	-12850	19595	-18168	256	-11468	-8700	10023	3218	-32768	-3288	-7296	5562	-19510	-6042	-10008	4820	14676	-678	2291	-1492	-18244	1772	-8092	2655	9900	-1634	-23160	4912	-5236	859	14501	-2198	129	136	1
1516	-17188	32432	-7092	-30022	13401	-10996	-1080	1096	-13201	316	161	-29912	-796	-6544	5657	-19402	-5353	-8820	4812	14432	338	1575	-1349	-17624	-3408	-6876	-9388	6870	-2773	-20432	-4612	-2456	-6139	16807	-3596	134	148	1
8452	-11840	12532	-3798	-31300	7352	-7320	-2576	3884	-7365	-9056	-2549	-23052	2384	-5740	434	-18185	-6798	-6880	5384	13664	1666	1916	-356	-17964	-4856	-4844	-6465	4841	-1278	-16308	-1492	-756	-2444	16861	-5293	136	137	1
4100	-12164	12036	-3353	-29919	51	-3544	-196	-576	342	-16568	-5833	-19052	252	-7256	-2694	-16225	-8052	-6716	6596	13276	2204	2308	-321	-17440	-3396	-4576	-5388	4757	-986	-17828	732	-616	1680	15310	-5269	122	128	1
-1948	-11788	13764	-3620	-31915	-8672	-5584	1560	-3464	2722	-22819	-8139	-17152	-3316	-7912	1963	-14532	-10042	-7508	6712	12960	1961	2453	-888	-17184	192	-4704	4098	4140	140	-16672	2436	1148	1881	14055	-4517	120	125	1
-6668	-11060	14728	-3597	-32768	-17738	-5916	2060	-5100	2958	-28992	-9752	-13872	1068	-9520	1652	-13124	-9123	-7352	6568	13180	2118	2465	-1390	-16640	248	-3412	1042	4221	-448	-16240	1116	2188	273	13357	-3161	131	122	1
-9636	-8760	14264	-2558	-32768	-25268	-7076	1684	-4852	3055	-32768	-11457	-12128	-664	-10196	2729	-11510	-8267	-7980	6760	12856	2045	2749	-1701	-16596	-1660	-3440	2196	4616	-282	-14856	-72	4316	1253	12923	-3631	129	144	1
-14600	-6772	15284	-2168	-32768	-29892	-8100	1116	-5148	6376	-32768	-12981	-9076	-140	-9008	6209	-11792	-6799	-7804	6000	12492	1895	2838	-1701	-17216	-2328	-3444	4776	5242	102	-15584	764	2580	4769	12972	-3712	135	124	1
-16000	-7156	14752	-704	-32768	-30965	-12236	2100	-6392	9783	-32768	-14031	-8136	1540	-7848	11122	-11462	-5527	-7868	6824	12120	1821	3106	-1530	-21168	5268	-8044	2767	6704	1594	-14896	2108	4356	6083	16341	-2583	138	122	1
-21616	-6828	17684	61	-32768	-28945	-16968	2204	-4700	8767	-32768	-14703	-7788	3740	-12000	16185	-7779	-4690	-8032	6332	12684	2125	3562	-1061	-14948	-1328	-2560	570	5963	-1117	-14444	2660	3848	6550	17553	-2314	131	113	1
-23084	-10016	17912	2261	-32768	-26320	-20876	2076	-9328	10432	-32768	-15173	-5984	5780	-8648	19664	-6005	-2895	-7988	6332	12344	2275	3716	-1184	-15820	-1228	-3324	1331	5955	-1229	-14704	3508	1984	7667	19163	-3768	124	116	1
-26572	-13916	19436	6067	-32768	-25174	-29196	1672	-10748	12170	-32768	-15937	-7356	3548	-2884	21138	-4989	-2971	-8148	6324	12300	2045	3744	-1434	-15464	-408	-2608	1877	7451	-1253	-17656	2332	1132	-383	10810	-1758	124	110	1
-32768	-7876	18620	3923	-32446	-26790	-30768	3984	-15676	12377	-32768	-13713	-10632	-4908	3920	22010	-6017	-6310	-7824	7320	12428	1540	4489	-2368	-17112	1744	-2700	-1177	8965	-1807	-16392	6448	4476	-2140	9004	-1166	127	136	1
-32768	-12200	15140	-3987	-32768	-30619	-25452	3576	-23832	616	-32768	-9661	-15780	-4440	5048	13751	-1999	-8880	-8304	6352	12732	1955	5785	-3005	-17144	-292	-2004	-3676	10685	-3031	-15160	6344	7996	-1097	10481	-1949	120	155	1
-32768	-820	-2436	7033	-28600	-25371	-23180	1812	-20440	670	-30844	-7047	-20492	-5432	25216	5537	-11706	-4949	-7856	7032	13648	2733	9058	-3456	-17220	-684	-2044	-3601	11122	-3218	-18928	3980	7776	1785	10978	-2466	127	136	1
-32768	840	-21444	6621	-17672	-13220	-13084	-40	-26664	3028	-17456	-3828	-9044	3852	29740	1918	-4825	-4031	-8104	5816	14136	3447	13839	-4459	-20960	-3180	-1140	-2841	15444	-4504	-20220	2316	9408	3098	7890	-2781	131	127	1
-32768	6372	-31320	-5469	-7420	-1077	-4372	9656	-27196	3953	577	-4066	-18912	3060	21580	1903	-886	-1592	-8660	5860	14448	4039	19981	-4451	-21596	-3260	-1072	-2566	18117	-5319	-20592	2632	10488	4660	2785	-3145	127	123	1
-32768	-496	-25552	-8458	7326	537	-8988	8504	-26060	-2588	16112	-468	-14796	3300	12196	-5562	-769	957	-7760	7236	14540	4135	27627	-5004	-24044	-1492	-180	-2023	20472	-5278	-21188	3316	15528	5172	-4484	-3051	131	123	1
-9500	1484	-8196	15023	27492	4428	-13480	7024	-15476	-1779	23249	1341	-8376	2688	2076	-14408	3783	2985	-7852	9144	14768	5531	32767	-7919	-26676	-1716	2376	1462	23711	-4122	-20152	5228	29620	6111	-19399	-2205	123	133	1
20396	16400	32767	-5907	32767	-403	-32768	10536	28516	12541	11742	4498	-15428	-2096	7912	-10594	9507	5279	-3460	13980	19152	8201	32767	-14845	-32768	3984	10572	12255	26982	-3294	-13484	6796	24984	9739	-16673	-3382	123	133	1
-32768	15736	18560	-13560	32767	9528	-4256	19212	-13768	12554	20168	6523	-19804	3084	2300	991	10598	5108	-7428	11912	18980	14820	32767	-25119	-32768	5108	11032	15908	25771	-2416	-18364	-1764	9800	16557	-5588	-4191	121	134	1
-32768	-32768	2356	2342	8556	6602	-18912	-17372	-28768	-8404	22008	-5379	-20540	2860	4208	-1477	3607	2016	-32768	13940	26900	15790	32767	-29574	-22352	1824	-15484	15014	28065	-738	-25052	7152	-11556	24605	-2974	-4073	96	128	1
-10712	7536	21016	6773	6809	5582	-26868	4556	-2980	12170	20231	2085	-19744	-864	-13460	-12602	7126	-4406	-32768	24868	32767	10292	32767	-22596	-22076	-6620	-25284	3555	28449	-7124	-29532	4804	-5104	4521	-16975	4382	125	124	1
-10896	-3488	15552	3573	3898	1877	-6924	4208	-11120	2158	14756	2926	-13452	-8024	-12836	-11239	6538	1594	-14712	16716	32767	12073	-5017	-15933	-29576	-6500	-2516	9556	14505	-5546	-32768	-3312	-8788	-11241	-16894	5030	61	123	1
-8424	-8288	12604	1250	1586	1130	-16752	692	-9188	-6714	10150	2712	-17596	-5748	-9112	-10347	10232	1651	6848	9140	24856	8929	-13792	-19085	-16296	7660	6536	19932	4904	483	-32436	-5720	-7328	-5863	-20866	6789	110	88	1
-9168	-5376	14016	737	1197	757	-22148	-1272	-7352	-4278	8633	2735	-20920	-7760	-5216	-3982	14324	2335	7200	13756	22332	3063	-21937	-12738	-9728	1292	3316	12596	-2729	1616	-26096	-3540	-5656	-2635	-19001	6530	116	112	1
-8872	-5276	13972	439	935	414	-17280	-740	-5916	4704	6533	2967	-17588	-5336	-2724	2336	16352	4375	6884	11960	16560	-1701	-24712	-4347	-8348	1044	1856	4950	-11971	5858	-22340	-2216	-5736	-513	-15530	8306	134	125	1
-8932	-4552	13656	124	606	59	-15504	1832	-4828	7027	4746	3229	-16180	-1424	-1024	5272	17547	6137	2168	9352	14776	-478	-27490	4652	-7456	-1588	-764	465	-19380	7607	-17836	-2672	-7632	-162	-13670	9288	112	116	1
-8108	-5748	13596	-45	639	95	-16452	1264	-2772	2574	4505	2677	-16236	-904	-500	5084	17667	6255	-3840	8808	14816	344	-32302	13814	-6868	-3792	-3220	-2969	-24917	9277	-14952	-1516	-8408	-4346	-14415	10535	117	119	1
-7676	-6340	13068	-28	1050	669	-16812	96	-2020	-4197	4937	1927	-15992	-1648	1524	-1543	15701	4135	-5756	6232	12728	-920	-32768	21117	-7660	-3256	-1508	-4317	-30109	10324	-11368	-4544	-6844	-2771	-12264	10490	142	134	1
-8184	-6056	13112	453	1327	1679	-15772	-2420	-1588	-2287	4938	1957	-14156	-3448	1968	-1129	14382	3858	-9308	5912	12832	-3622	-32768	23855	-8592	-1888	-2500	-5700	-32768	11382	-10768	-2288	-6608	-4030	-11808	7641	139	134	1
-8192	-5364	13100	541	1286	2475	-14576	-1176	-1884	2238	4932	2567	-14648	-2572	3816	1569	13576	2794	-13316	4888	14588	-6254	-32768	23175	-12720	-2956	-4092	-8827	-32768	12176	-9800	-4680	-6856	-9084	-12167	5564	129	139	1
-8868	-5496	13152	568	593	2777	-14728	756	-2624	1836	5857	2464	-13616	-404	6468	-362	13274	2780	-14912	5052	16832	-6128	-32768	22007	-14680	-2888	-6848	-10288	-32768	12403	-7040	-4748	-7064	-11595	-13926	4115	134	128	1
-9036	-6152	12456	1106	-80	3085	-14696	540	-2636	1600	5970	2475	-14588	-1768	5452	-3111	15839	2760	-17428	5808	17872	-5654	-32768	21304	-19296	-7416	-6188	-6805	-32768	13039	-5584	-4328	-6900	-14666	-13320	3119	122	126	1
-7808	-5416	13128	1286	-119	3258	-15448	-144	-1796	1073	8133	2634	-15044	-3972	2376	-4707	17230	3191	-18620	6252	19532	-5642	-32768	20152	-21928	-5412	-7204	-1636	-32768	13724	-6420	-3336	-3360	-17111	-11029	3160	123	123	1
-8312	-5100	13172	1934	181	4149	-15236	-208	-3340	3755	8703	2602	-15260	-2880	-136	36	16250	2491	-23552	8828	24464	-4871	-32768	18285	-24760	-6420	-9976	27	-32768	13711	-8384	-1340	808	-15718	-9317	4474	123	119	1
-9488	-4320	13524	1644	464	3602	-14480	2136	-3896	5182	9469	2822	-16152	-1936	932	3753	12701	1950	-31888	6336	24688	-4146	-32768	18557	-26248	-7680	-12836	2077	-32768	13026	-12836	1896	1584	-12626	-6784	5256	121	120	1
-9060	-4508	13928	910	1542	2840	-16540	2040	-3012	4170	11064	2921	-16340	-1740	4388	3847	10300	2273	-32768	7888	15472	-4739	-32768	17029	-25252	-5840	-16036	4687	-32768	10558	-16340	5200	2196	-5842	-5852	6953	120	123	1
-8492	-4164	14480	-120	4648	2741	-19264	2232	-3164	3548	12788	3140	-18176	-2712	5580	1682	11140	2304	-32768	11004	-1480	-12784	-27959	11650	-28864	-412	-23424	-6285	-32001	7234	-10548	6464	24552	-3777	-6906	6567	117	123	1
-8784	-4536	14860	-1640	8215	3067	-20260	2340	-3744	1788	14684	3508	-19956	-1360	4000	-1016	11170	2112	-32768	8160	-19104	-7641	-18336	5771	-10488	-9052	-31108	-10889	-19256	4660	-14256	-4376	32767	-11494	-656	1990	119	136	1
-8580	-3772	14840	-2818	13129	3717	-20256	3568	-2784	-47	16422	3946	-20184	-508	6336	-2006	7698	2336	-32768	-1184	-31840	10553	-5901	4363	-4924	-11864	-27076	-4633	4597	-626	-17516	-5372	26264	-5395	-2827	-2341	117	124	1
-8500	-3780	15664	-3562	19571	4172	-21920	2492	-1520	-935	18768	4954	-21240	-3076	9972	-4981	2563	2803	-32768	7832	-21996	3070	17622	4190	-10772	-4576	-28224	4172	20462	-4828	-16376	528	10788	4490	-4009	-4386	118	116	1
-7920	-5780	15100	-4400	27495	6127	-25160	988	352	-1322	21535	5183	-23240	-3592	17716	-7216	-5385	2936	-21336	3784	3136	3350	22681	-5358	-18696	3328	-20320	-4594	24796	-5325	-9340	-552	1632	7330	-169	-2932	124	119	1
-8968	-8564	16488	-4292	32767	10190	-29156	1124	4428	-6736	24997	4004	-22840	-3372	32767	-6698	-25251	5981	9172	-6984	27800	18096	32767	-8118	-29652	-15780	12124	-4913	15356	-1023	-16188	-1436	6208	7119	19210	-3089	117	141	1
-6380	-12924	17996	-3141	32767	18063	-32768	-4460	8828	-13517	27019	3023	-19144	-8124	23852	-14279	-16260	5183	-32768	-1340	23584	13755	29250	-6131	-16492	-14192	-18008	-3803	29888	-5763	-19404	-6636	-4248	16630	8462	-7154	120	120	1
-16368	-11416	19392	-6867	32767	29197	-32768	-4032	5172	-20715	27497	2694	-19628	-2048	2644	-14415	-10743	5559	-27724	-1940	25988	15011	26088	-5182	-19956	17280	-24076	2719	23609	1410	-21620	-1028	-10928	22362	6079	-25	126	114	1
-32768	-9080	21072	-2716	32767	31052	-23024	-4948	-11072	-19506	27952	4030	-25376	-7176	-9512	-16154	-9628	2964	-14384	-12084	23396	687	2390	-9152	-18960	-7976	-5972	-6566	15609	-1806	-16724	9024	-17748	27773	12089	895	134	155	1
-32768	-12656	29864	-13000	32767	27675	-23300	-76	-10216	-11393	21720	5856	-29992	-2992	-11612	-1996	-18611	-1430	-12948	10876	10140	-1734	4701	-3648	-14308	-4180	-11368	326	12788	-968	-19756	8816	-12436	11906	14385	578	136	159	1
-32768	-17816	32767	-19902	11350	26524	-17384	416	-22224	-11812	17589	4918	-31600	-2040	-2280	3938	-21011	-5161	-8272	8912	12416	-757	2583	-1858	-18484	-1616	-6368	3206	9047	-1427	-21864	4672	-5928	1682	13686	-1392	139	138	1
-4976	-17328	26916	-10473	-20105	22993	-15308	-4856	-1324	-16442	5213	193	-31128	-1676	-8012	3423	-18802	-6298	-8776	5272	14304	345	2120	-685	-18200	-3472	-6576	-901	8249	-1945	-17944	588	-1396	-2473	13149	-2848	140	131	1
8488	-15592	14764	-3534	-28179	14568	-9276	-3972	4116	-10157	-3543	-1537	-24244	952	-5416	1968	-18549	-9145	-7500	4964	14144	1895	2113	62	-17748	-2660	-5168	-2898	6060	-923	-16572	128	-1332	-3048	14506	-4652	139	141	1
7500	-15544	9628	-594	-23938	4726	-4572	-1360	1364	1292	-10941	-4192	-19052	616	-6360	-1255	-16314	-9551	-7164	6256	13312	2623	2146	-13	-16764	-844	-3964	-2259	4971	-330	-17780	-300	-444	-702	13839	-4583	125	132	1
3248	-15308	9196	-1992	-22763	-7561	-5072	812	-1776	5789	-17156	-6358	-16760	-1384	-8256	1908	-14896	-11166	-7008	6636	12964	2404	2146	-300	-17516	-764	-3448	2224	4869	-386	-18264	2476	796	-950	12900	-4182	118	114	1
-3796	-14956	12504	-2116	-25102	-19790	-4164	948	-5256	7439	-22879	-8245	-13868	368	-8468	4254	-12946	-11339	-7332	6804	13016	2113	2234	-847	-17180	-136	-2732	4370	4775	-334	-15488	880	3396	-566	12962	-2990	113	133	1
-8348	-11924	14660	-499	-31230	-29391	-4176	860	-5620	7528	-23832	-8603	-11616	1524	-9484	2535	-11880	-9754	-7648	6748	12764	1992	2230	-1060	-16936	-292	-2460	4196	4777	-363	-14648	4	5036	1779	12572	-2546	145	126	1
-10612	-7336	13384	-329	-32768	-32768	-6756	620	-4844	9556	-32768	-11453	-10988	-704	-8912	3813	-10275	-9061	-7592	6892	12604	1967	2200	-1044	-16020	-1208	-2316	2452	5975	-491	-14440	64	5344	2103	12464	-2687	133	128	1
-13320	-6080	14384	-473	-32768	-32768	-8664	120	-5420	13371	-32768	-12327	-9840	2056	-7488	8920	-9980	-7908	-7836	6220	12840	2028	2556	-887	-16396	-2160	-2252	4177	6931	-706	-14680	1716	5072	5085	12348	-3361	140	112	1
-17740	-6480	17024	1949	-32768	-32768	-12700	1260	-6200	14296	-32768	-13662	-10000	4556	-10932	12550	-7956	-6891	-7788	6252	12776	2133	3212	-530	-17060	-1496	-2916	3575	7456	-1035	-16084	4484	3164	2920	14704	-3512	131	144	1
-21816	-3772	17168	1653	-32768	-30013	-16740	4036	-7936	13582	-32768	-14535	-8060	6552	-10300	16379	-6075	-5745	-7668	6476	12544	2297	3894	-214	-16888	-760	-3384	121	7946	-1882	-15844	2888	2532	-148	15485	-3584	129	126	1
-23308	-5768	19240	-1091	-32768	-24497	-22120	4464	-10520	6198	-32768	-16173	-6124	6872	-5708	17094	-6808	-4419	-8332	6368	12204	2380	4527	-81	-15948	-1560	-3512	-1757	8560	-2446	-15840	2692	2524	-1825	14964	-3773	123	124	1
-27252	-9348	18680	-3884	-32768	-17470	-31680	3004	-10752	-1224	-32768	-19420	-7648	5024	1212	13401	-5786	-3524	-7700	7264	12260	2397	5527	-352	-16284	-436	-3184	-1919	9551	-2523	-15544	3396	3448	-2481	12388	-3295	127	116	1
-32768	-176	21584	-10384	-32768	-17302	-25224	4628	-17144	-1485	-32768	-16586	-12752	-3724	3876	5587	-4488	-5465	-7040	7716	12576	2235	7109	-1090	-18276	-4	-1720	-2050	10915	-2906	-16868	3628	5288	-1271	9988	-2161	124	129	1
-32768	-4768	12860	-10114	-32768	-14970	-24552	7696	-21328	-11069	-32768	-15602	-20504	-8544	15556	-2777	-6764	-8281	-7964	6688	13004	2532	9087	-1741	-16972	-112	-2192	-2636	13293	-4083	-16836	4132	6884	512	9586	-2072	123	140	1
-32768	2504	-3360	-5071	-29009	-11200	-21596	2992	-18776	-14451	-24637	-10979	-11788	-3816	29948	-13081	-7077	-4123	-9032	7520	13164	3937	13215	-2806	-19912	-1364	-3180	-3136	15329	-4424	-19180	2144	8192	2151	7685	-1705	125	134	1
-32768	4832	-17584	-4762	-18900	-2655	-9592	4400	-19620	-7685	-11007	-6307	-12564	-2640	24036	-14671	1315	-4428	-8400	7540	13384	5528	18600	-4016	-21716	-3056	-1372	-1686	17598	-4532	-19364	-428	13896	6254	2963	-2305	118	130	1
-32768	3456	-24428	-6240	-5059	2920	-7388	7888	-18856	-3492	5195	-4628	-14080	-5568	19044	-5996	1565	-809	-8432	7436	14304	7913	26515	-4433	-22816	-4632	752	1811	20782	-4567	-20300	1080	23128	6462	-9434	-2642	126	127	1
-32768	528	-17256	7060	13196	2767	-10868	9388	-17344	799	16670	700	-14540	-3032	11256	-4319	-1182	1681	-6820	7392	16872	11452	32767	-5336	-27288	-5292	6816	6611	24616	-4458	-16880	1760	31576	5842	-17391	-2917	123	134	1
8208	15984	4888	17989	30142	-1359	-22724	14996	21780	-2141	19245	8568	-15432	-7564	23548	-937	-638	5245	-5968	7688	18752	16954	32767	-8026	-32768	-3972	10836	9318	28186	-5364	-14072	3100	24812	18102	-15761	-6805	125	134	1
-32768	16196	29616	817	32767	9354	-32768	2460	-21736	32767	23301	10832	-30268	-8356	24636	11653	7620	1993	-6196	15368	20628	22059	32767	-15634	-32768	6028	11144	14661	28322	-7229	-22136	5976	8048	21715	-6873	-8683	116	122	1
-29584	-32768	11732	5837	9843	9542	-10360	-2104	-16328	4666	24842	5128	-20304	13888	-15608	23953	12351	2456	-32768	16520	19228	18331	32767	-22132	-27340	4080	-15028	1689	23037	-4764	-28052	12512	-8360	22028	-5730	-2233	92	124	1
-20216	21252	25644	12140	12018	7864	-14340	-856	-12212	18690	19844	3075	-15092	3800	-11652	2371	-273	-1839	-32768	23596	26148	2083	32767	-23650	-18384	2496	-27248	-10317	21497	-8092	-26660	6336	-8720	-1438	-12178	6262	117	123	1
-10428	-13552	14172	4387	4770	4187	-12272	5764	-14856	-1884	14551	2799	-11340	-468	-11228	-10464	7260	-2088	-16924	11820	32767	-4382	4966	-11106	-25464	-11968	-5372	-7751	17287	-12546	-32768	7740	-9164	-21252	-17068	9901	127	131	1
-11216	-5180	14220	2173	1070	2596	-20088	3836	-11952	-9925	10662	4251	-24572	-9316	-8448	-16750	6225	-1706	6824	-1288	26236	-935	-12277	-17092	-16888	7484	4332	11457	4244	-7837	-32768	-5560	-7920	-19368	-18364	6872	119	139	1
-8812	-3472	14748	1597	1125	1614	-19268	128	-7236	-2522	8823	3214	-21804	-7444	-4112	-5990	13420	1732	4044	10588	25632	-4769	-21856	-16222	-10352	2876	108	11997	-3883	-5550	-26844	-5840	-6252	-12127	-19914	4805	123	122	1
-9100	-3812	14368	670	695	-2	-16832	1392	-7500	5658	6632	2538	-16892	-2648	-3280	4889	17228	5261	4204	10608	17820	-11358	-28263	-14969	-8112	2864	-316	7648	-13540	-910	-22728	-3228	-6192	-4033	-16939	5322	156	116	1
-8208	-4536	13752	-147	760	-461	-16476	-260	-5656	8550	4371	2034	-16648	-1516	-2080	5425	18191	6838	48	9204	15636	-10676	-32768	-10844	-5344	956	-2296	4182	-20440	1440	-17120	-1476	-7124	-3290	-15231	7613	131	104	1
-7696	-5968	13700	75	1242	249	-16112	-236	-4240	4525	3706	1745	-16900	-968	-208	610	17659	5913	-4104	10184	13268	-5113	-32768	-4672	-5944	-896	-3620	4261	-26108	3633	-13688	-2204	-7300	-5243	-14040	9029	117	126	1
-7728	-6136	13164	1158	894	1530	-15368	-808	-3132	-2806	4810	944	-14840	-3972	1136	-3199	15010	3300	-5416	12044	9348	-2739	-32768	1241	-6072	460	-3080	5064	-30569	6559	-10292	-3040	-6460	-4107	-12574	7926	134	119	1
-8376	-5468	13276	1646	385	2356	-15540	-2164	-2224	-2536	4910	1222	-12564	-4288	2572	-3599	14398	2813	-7152	12636	8220	-3770	-32768	6002	-8600	468	-2680	3759	-32768	9500	-9864	-3284	-6816	-5707	-11831	5072	137	128	1
-8296	-4992	13572	1550	173	2553	-14884	-2440	-2452	2023	4589	1917	-15132	-4012	2612	-2313	13769	2898	-11264	12828	10436	-3450	-32768	11620	-11108	-1084	-4832	816	-32768	11629	-9296	-4208	-6676	-7265	-11924	2715	134	129	1
-7988	-5092	13368	1495	-16	2656	-15464	-680	-3440	3595	4963	1905	-14832	-4196	2532	-2033	13553	2835	-13996	13008	12636	-2723	-32768	17912	-14064	-908	-5980	-2692	-32768	13258	-6720	-4452	-7376	-7640	-12935	1777	129	122	1
-8696	-5464	13556	1929	-147	3031	-15404	144	-3584	1684	5369	1982	-15756	-3640	1856	-3389	13865	1622	-16656	12100	15120	-946	-32768	23499	-19352	-4052	-6408	-3305	-32768	14728	-5568	-2368	-5852	-13269	-12652	2213	127	119	1
-9288	-3712	13872	1767	103	2810	-15492	1292	-4568	-925	6267	1967	-14872	-2652	3248	-3530	13432	1548	-19580	12928	18568	-105	-32768	26184	-24192	-2972	-8780	-1388	-32768	15829	-7324	-1300	-2212	-16426	-11418	3562	127	118	1
-8900	-3540	13920	791	653	1948	-14928	2028	-3224	-2186	7118	1908	-14644	-1500	4012	-4531	12989	2523	-25748	18108	22168	-4616	-32602	25376	-27780	-596	-13256	-1584	-32768	16246	-9648	-1132	1564	-15667	-8851	5294	124	118	1
