#Activity	walking 
#ActivityID	1 
#Date 09-23-17-58
acc_rf_x	acc_rf_y	acc_rf_z	gyro_rf_x	gyro_rf_y	gyro_rf_z	acc_rs_x	acc_rs_y	acc_rs_z	gyro_rs_x	gyro_rs_y	gyro_rs_z	acc_rt_x	acc_rt_y	acc_rt_z	gyro_rt_x	gyro_rt_y	gyro_rt_z	acc_lf_x	acc_lf_y	acc_lf_z	gyro_lf_x	gyro_lf_y	gyro_lf_z	acc_ls_x	acc_ls_y	acc_ls_z	gyro_ls_x	gyro_ls_y	gyro_ls_z	acc_lt_x	acc_lt_y	acc_lt_z	gyro_lt_x	gyro_lt_y	gyro_lt_z	EMG_r	EMG_l	act
-11788	-2808	17500	-2158	-4542	-2358	-12616	3864	-4712	1816	-4654	-1659	-7768	1504	-9944	1688	-1602	-276	-8048	656	14664	-688	-423	-1225	-16592	2008	-2296	686	573	126	-14712	3728	4152	473	2444	-1020	124	113	1
-16048	-3284	19812	-2502	-4702	-3045	-13936	6424	-5080	1704	-5121	-1571	-5736	3096	-10728	2260	-1261	-34	-7768	1264	14528	-888	-889	-1973	-16032	3144	-1944	858	582	219	-14216	1728	72	1012	2694	-704	126	127	1
-18052	-2792	21868	-2655	-4608	-3470	-16760	6832	-5528	1002	-5437	-1501	-3944	4608	-12208	2286	-875	146	-7904	1232	14632	-732	-918	-2377	-15272	1608	-2280	732	634	207	-16512	632	-4720	-113	2076	-281	126	128	1
-21780	-4528	26408	-2460	-4599	-3758	-21736	3144	-6984	587	-5721	-1632	-4256	6152	-12232	1763	-261	119	-7728	1016	14560	-435	-409	-2163	-17048	1280	-2712	320	598	73	-18176	2768	-1280	-1125	1621	-418	127	132	1
-26872	-5988	28764	-2261	-4573	-4113	-27520	1880	-8904	1307	-6074	-1797	-5144	4824	-10176	1092	339	146	-7736	616	14720	-146	433	-1753	-17576	896	-3288	128	787	209	-16552	3344	1024	-809	1656	-498	127	138	1
-32768	-3612	32024	-2307	-4195	-4560	-32768	2624	-13696	1870	-6299	-1460	-5624	2464	-6904	883	466	104	-7744	840	14480	167	1408	-1489	-17864	1640	-1848	-22	925	162	-16400	400	1600	-476	1768	-519	127	138	1
-32768	4064	32767	-2428	-4069	-4715	-32768	-600	-20184	1892	-6159	-1085	-9240	-3440	-2768	958	98	-38	-7880	592	14688	311	2307	-1813	-16704	1976	-160	-34	1078	146	-17416	392	4072	-421	1592	-444	126	140	1
-32768	10488	23544	-2007	-4005	-4226	-32768	744	-23608	2305	-5697	-556	-23096	-5632	12120	1258	-1076	-549	-7968	1792	15000	-166	3235	-2734	-17392	3576	1040	112	1351	176	-18232	2328	6176	98	1447	-269	131	151	1
-32768	25228	3040	-1470	-3064	-3207	-22032	7504	-31008	1668	-4558	-351	-26824	-4832	32767	3118	-1550	-1863	-8072	928	15032	-782	5130	-4027	-21120	1776	-200	-158	1564	181	-20752	1232	4712	439	1400	49	147	150	1
-32768	32767	-22620	-3160	-2088	-1270	-5920	10040	-32768	-1254	-1656	-624	-14800	1872	32767	1773	-257	-734	-7648	624	14928	-942	8367	-4886	-19448	-1232	-2144	-304	1832	206	-17744	416	2128	855	1189	-15	180	145	1
-32768	32767	-32768	-1166	-49	1753	1440	-1544	-31440	-3755	1217	-167	-20408	16448	32272	-592	134	1879	-8456	-888	15056	-1709	12123	-3878	-19592	328	-3448	-352	2117	96	-18896	5688	-1288	762	1135	-432	176	147	1
-32768	27568	4260	2474	582	4086	-16328	-4848	-31672	-1180	2718	382	-14040	12728	1472	-1474	371	1359	-9768	1368	14480	-3481	16866	-3636	-23528	3864	-1720	-540	2321	54	-21536	7400	-832	688	750	-616	136	150	1
-14060	-25752	20600	1692	463	3838	-26080	-2472	24064	-1853	2482	1188	-8144	-2960	-3696	-4368	-107	131	-9600	1512	15040	-6522	21520	-5113	-24416	352	-672	-268	2398	149	-22648	3256	3928	354	262	-635	112	145	1
-5396	-32336	-25944	1140	4552	1984	-32768	14192	13616	1520	1965	106	-17152	-9040	19128	-2689	-2235	-194	-10488	2416	17224	-12621	26571	-7457	-27832	1152	2248	472	2604	161	-25424	4960	9032	369	-447	-595	110	80	1
-30440	21980	32767	1334	5947	507	-21296	1744	-9472	914	2749	512	-28960	-15696	-1728	2875	895	-1417	-11504	3200	15728	-18174	32767	-10747	-32768	184	8888	1091	2740	221	-28656	5728	16240	608	-1772	-569	90	0	1
-8660	4176	32767	783	4344	1648	-23408	6600	-11992	2191	2653	954	-19976	6256	4960	3024	1040	-1472	-14792	3792	18120	-27279	32767	-17281	-32768	-3032	15440	2092	2903	318	-29272	-1600	20968	1840	-3244	-555	134	0	1
-29500	-21720	14720	2879	1278	920	-22008	4016	-11736	1796	2539	915	-19800	28016	-13904	-1401	1587	-627	-27144	-2488	32767	-28863	32767	-23000	-28768	4832	-792	2773	2961	757	-16816	-5576	8424	1464	-3093	-507	134	0	1
-16024	-7444	15196	1770	237	578	-11992	4952	-15640	2788	2095	1	-3688	-3992	-20088	-4836	-144	556	-27648	2712	32767	-12597	32767	-19620	-30976	7080	-1776	3223	3286	530	-22008	336	1440	2455	-1737	269	110	0	1
-8496	-1020	16184	1059	-135	358	-17240	9528	-11912	-396	1897	125	-15544	-28080	-15600	-1831	926	363	-28712	4848	32767	-10567	32767	-18163	-30464	7232	1288	1720	2300	289	-29888	1760	-13040	2294	-887	986	112	20	1
-8836	-3268	14532	526	-204	115	-13328	-3568	-3104	-1408	1353	-112	-24256	-9512	-13256	1501	2050	-803	-6056	4904	18624	-21375	32767	-20291	-24960	4848	2800	61	2019	337	-31560	-2496	-10088	1006	-1814	1176	157	253	1
-7940	-3220	13956	301	-133	53	-21232	-272	-4720	-1093	1171	-68	-24904	6824	-5672	1143	1959	-31	-26544	10440	32767	-9150	21843	-23146	-15136	8048	-19288	-894	1593	688	-27128	-4200	-7576	-92	-2456	1340	164	253	1
-7128	-2848	13716	190	-22	49	-16984	2368	-2896	-382	813	83	-16216	3056	-232	-210	1955	471	-16440	21864	32767	6978	-6377	-7613	-16688	-2504	-5208	593	1105	-185	-27560	-4536	-4176	-526	-2869	1471	140	254	1
-7496	-2096	13856	138	56	-22	-16608	1000	-3400	325	563	148	-15624	240	-64	-52	1865	645	-4008	16776	18416	7335	-15491	4500	-15536	-4840	1776	1539	212	-115	-23800	-4920	-5312	-179	-2885	1692	132	253	1
-7668	-2788	13572	84	108	-84	-17344	648	-3672	861	449	-34	-15976	2344	-96	35	1824	910	280	8704	10336	3734	-16733	9292	-8752	1264	840	1883	-535	-47	-23312	-2592	-4792	-170	-2918	1698	138	253	1
-7928	-3096	13616	54	134	-120	-16976	208	-3752	920	406	14	-15168	1568	-680	-256	1874	688	-880	3296	13216	3611	-17609	9531	-6808	5256	-1152	951	-1347	286	-17600	-3256	-3960	-145	-2833	1645	140	253	1
-7888	-3204	13704	36	138	-127	-15808	872	-2152	431	444	50	-16480	-592	-624	-634	1876	459	-2344	496	15912	6225	-20645	7605	-7544	6680	-1496	-333	-1934	341	-17184	-3296	-3920	156	-2118	1726	134	253	1
-7792	-3340	13580	40	123	-91	-15584	1128	-1664	322	454	18	-15088	-2800	1056	-809	1921	402	-3680	816	17160	9878	-23938	6281	-8384	1784	-1760	-1381	-2564	225	-16752	-1864	-5760	108	-2227	1447	124	253	1
-7892	-3576	13552	87	72	-9	-15224	-2120	-624	-1328	612	-8	-14080	-3904	920	-738	1906	298	-6352	1496	18392	11411	-28054	6585	-8960	-704	-2240	-1742	-3114	102	-14840	-400	-6432	-66	-2078	1297	117	253	1
-7888	-3360	13528	178	-10	77	-15376	-4712	-288	-854	637	-38	-14224	-3072	728	-479	1976	255	-8576	896	19528	12724	-32517	8376	-10264	-1656	-3080	-1595	-3582	21	-12688	272	-7232	-18	-2007	1274	125	253	1
-7936	-3016	13680	199	-54	98	-15496	-3048	-992	54	588	23	-13080	-1816	2104	-259	2120	245	-10136	-56	19560	14923	-32768	10954	-11632	-1600	-3304	-1369	-3975	-92	-12896	-80	-7512	-351	-1864	1168	123	253	1
-7896	-2740	13612	162	-42	69	-15816	48	-1808	626	618	149	-14688	-1256	6736	-134	2745	292	-12040	-1344	20024	16299	-32768	13168	-11848	-472	-3152	-1675	-4407	-215	-10200	-1320	-9024	-849	-1788	916	128	247	1
-7904	-2456	13632	119	-33	40	-15520	1608	-2024	448	692	186	-14696	-3608	4776	-816	2690	531	-15840	-3096	23944	17283	-32768	14787	-12744	424	-5808	-2356	-4942	-457	-8160	-3272	-9608	-1386	-1774	586	126	230	1
-7744	-2172	13712	152	-90	42	-14448	1176	-1904	-103	828	106	-16296	-1688	-3000	-1058	2530	288	-17560	-5216	23488	18023	-32768	15485	-14016	-768	-5320	-2670	-5255	-932	-6472	-5520	-11112	-1905	-1623	341	128	228	1
-7488	-3168	13548	205	-117	110	-15392	-1280	-1152	-318	914	-7	-18752	2160	-5448	312	1682	-10	-16768	-7480	16744	19296	-32768	14885	-20264	-1968	-5264	-2650	-5570	-1265	-5984	-6008	-11128	-2054	-1339	240	131	219	1
-7432	-2980	13540	238	-78	175	-16864	-1880	-2288	250	966	27	-16016	-3560	-928	1160	1321	37	-24392	-9512	29880	16388	-32768	12306	-24928	1128	-12216	-1958	-5768	-1354	-6632	-5816	-7968	-2011	-985	77	132	217	1
-7452	-2236	13812	235	-39	182	-17040	552	-3848	782	964	122	-14960	-6520	296	531	1639	234	-30608	-11232	32767	21227	-32768	11787	-27424	1872	-13408	-1179	-5692	-1600	-3920	-4584	-5048	-1619	-797	61	130	218	1
-7192	-2596	13548	231	36	184	-16816	1168	-3048	634	990	103	-15368	-1744	-1936	43	1524	304	-32768	-6760	29024	19518	-32768	15193	-28648	2768	-15104	-918	-5554	-1855	-7192	-824	-832	-981	-691	401	131	209	1
-7432	-2756	13620	257	136	238	-16984	-632	-1416	272	1114	7	-16880	320	-1312	423	1498	319	-32768	-12336	21240	15028	-32768	18587	-30264	5256	-16096	-485	-5107	-1896	-14104	3384	5616	-653	-241	870	134	196	1
-8152	-2712	13852	292	227	325	-16192	-2280	-1072	283	1315	108	-18552	-2880	4232	618	1322	205	-32768	-12120	10416	12258	-32768	15409	-30888	9872	-18496	108	-4489	-1468	-19456	7696	19888	-1323	-39	941	134	182	1
-8172	-2212	13896	364	325	455	-17368	-2152	-1992	366	1622	206	-18672	-1656	5504	-98	948	44	-32768	-19552	-5096	11719	-25591	9807	-20952	11624	-22992	-9	-3654	-912	-13632	232	32767	-2719	473	647	134	177	1
-6892	-2676	14316	506	515	674	-21336	104	-2096	200	1843	246	-20024	1720	2208	-747	887	-84	-32768	-32432	-23824	22019	-11502	2513	-10104	8000	-31208	516	-1682	-100	-14552	-2880	32767	-2207	-323	270	136	162	1
-7732	-600	14492	486	781	700	-19760	3136	-3216	7	2051	317	-18192	-736	480	-853	804	-62	-32768	-25560	-32768	13088	3820	4302	-2384	7904	-28344	859	772	621	-16704	-3280	28464	65	18	-999	132	150	1
-7816	-1084	14468	598	1206	630	-19880	2280	-3984	63	2237	487	-18416	-4800	-1096	-960	739	33	-32768	-18440	-10960	-13932	15076	885	-15040	14800	-21032	-68	2004	771	-13760	-4232	9200	1783	597	-384	130	143	1
-8632	-1352	14320	893	1815	571	-22624	-128	-4128	204	2383	571	-20872	-6752	-72	-1037	631	233	-8488	3976	26568	-20970	23234	-12686	-25856	4008	26808	-1338	1837	454	-11984	-392	6536	2768	565	285	129	0	1
-9316	-2268	15056	1265	2569	764	-25200	808	-1776	-101	2501	553	-22552	-4312	2088	-628	421	345	-4560	3200	4496	-14417	32767	-9024	-32768	-12208	5448	-3969	1816	1116	-30928	8224	24064	1953	-365	-137	125	0	1
-10244	-2436	15712	1460	3299	1159	-28176	-960	1016	-586	2605	580	-24144	-4072	6288	-323	220	365	-32768	-18424	32767	-13908	32767	619	-30544	-5016	-12496	-2508	2790	976	-17568	31224	11280	-435	2135	1339	120	0	1
-10580	-3152	15160	1558	4276	1758	-31680	-1120	3752	-876	2631	580	-29728	-6920	14632	-404	-970	495	-17352	-10104	28728	-4825	27927	-2711	-25872	-1888	-4144	-1064	3073	1333	-18840	-20632	-12328	-4932	456	-390	121	0	1
-12416	-6076	20404	2427	5954	2731	-32768	1448	13872	-2646	2653	685	-30864	-3304	19544	-971	-3157	625	-25512	6904	18272	-5599	20914	-2391	-12288	13384	-14360	414	2984	1453	-8672	-31376	-11824	1260	257	947	99	0	1
-28164	-7724	32767	3464	7028	3716	-27560	-5656	-520	-3948	2653	472	-14712	11064	1432	-1253	-2890	888	-15544	-7904	15760	-3012	8642	-4761	-9624	7704	-16272	-823	2050	1451	-3216	3440	-14616	4720	616	856	94	0	1
-25932	-4176	32767	1917	7907	3836	-28096	-6504	-5128	-3202	3268	742	-24400	6480	1992	-1037	-2086	232	-9392	-1688	17648	-1415	3113	-2518	-23904	1400	-10032	758	1768	1003	-26248	21528	-20024	2353	1877	387	112	0	1
-23724	-12660	32767	128	7766	4008	-28080	-2504	-5008	-2657	3090	1148	-25152	-3376	-11568	-2203	-1594	-1128	-9240	2752	15616	289	1396	-632	-24616	736	-10152	841	1713	1044	-27304	3824	-13080	-1011	2176	-161	116	120	1
-5228	-3008	8504	-793	5795	4091	-21320	-3464	-5128	-1008	2611	723	-31952	-1016	-13832	-2295	-2374	-1256	-8400	1264	15440	317	1105	-732	-17896	6848	-4776	461	1077	366	-21912	1736	-6768	-1202	1668	-471	112	104	1
-28992	-32216	32767	-543	1640	1466	-17992	5704	-13256	154	1687	325	-28032	384	-12112	-481	-2494	-1097	-7712	256	15344	321	1079	-311	-18400	296	-4880	-325	763	189	-15992	-264	-2184	-1434	1593	-545	115	141	1
-11716	-26020	29152	18	-548	-194	-16120	304	-2864	-1249	886	113	-28152	3728	-7008	663	-3214	-1058	-7560	96	15416	578	1493	274	-18632	-1232	-4616	251	735	247	-18008	-5864	336	-868	1679	-540	120	145	1
200	-13232	14292	-191	-914	-925	-12352	-464	88	-1031	-94	-434	-23592	2456	-4984	491	-3426	-1215	-8072	744	15392	1020	1935	682	-18304	-1120	-4096	387	741	273	-17472	-4352	368	-47	1851	-468	109	136	1
-588	-7912	13972	-1061	-868	-1210	-6656	-368	-424	-911	-889	-581	-23168	1072	-4856	175	-3221	-1111	-8112	864	14792	1142	2042	820	-17032	1776	-2656	1170	713	397	-15912	-1104	-976	604	2087	-516	111	135	1
-7584	-9384	23456	-1356	-1903	-1382	-5000	-1256	-6416	-688	-1233	-1006	-20936	6016	-560	766	-2877	-941	-8000	1336	14816	1213	1930	870	-16688	1896	-1656	919	534	324	-16016	592	-880	713	2049	-547	122	148	1
-6492	-6708	20176	-1320	-3315	-1572	-6888	-1664	-3496	-57	-1877	-1383	-17592	2456	-6312	-177	-2488	-1005	-7920	1376	14736	1075	1687	558	-16080	1568	-464	932	372	334	-14560	1480	-16	682	1993	-655	129	134	1
-4748	-3396	12852	-1749	-3753	-1761	-8576	1016	-992	718	-2573	-1545	-16496	40	-7296	-176	-2307	-1329	-8424	1752	14552	980	1507	286	-15952	2240	176	1262	348	360	-14488	2472	-72	766	2044	-612	120	131	1
-6412	-3692	13268	-2052	-3871	-1930	-7904	3088	-1680	682	-3059	-1635	-13096	-1848	-7608	-196	-2105	-1065	-8168	2032	14800	635	1049	-91	-15472	4624	64	1235	359	360	-14672	2992	-184	387	2161	-570	126	144	1
-8272	-3560	14544	-2198	-4109	-2142	-9304	2288	-2992	692	-3536	-1818	-13832	-1232	-9064	-13	-1769	-826	-7832	1144	14488	265	540	-518	-15512	3840	-1384	683	271	323	-13912	3176	2944	-39	2312	-493	124	147	1
-9696	-2332	14772	-2434	-4184	-2361	-11296	2280	-2664	948	-4004	-1927	-9488	-1544	-9208	634	-1610	-778	-8136	864	14400	145	281	-548	-16832	1472	-1872	563	313	188	-13296	3880	6400	497	2833	-605	127	136	1
-12732	-2596	18188	-2679	-4273	-2594	-12400	3032	-4184	1403	-4381	-1959	-7656	304	-9736	1508	-1509	-440	-8312	1208	14488	28	73	-644	-16760	1536	-1440	930	446	183	-15536	4152	1136	1714	3025	-842	124	131	1
-15016	-1132	19804	-2893	-4388	-2873	-13560	6264	-5040	1505	-4814	-1928	-5984	1344	-10616	2307	-1349	-221	-8136	1528	14416	130	-158	-992	-15112	1048	536	1485	617	251	-19744	3368	-712	1006	2250	-642	127	133	1
-15868	-464	17300	-3089	-4138	-3125	-16208	7472	-4808	715	-5117	-1817	-5712	3024	-11464	2645	-1114	-89	-7504	1664	14768	34	52	-1371	-15312	2152	1768	1409	713	308	-20528	4048	-72	-652	1160	-112	126	133	1
-19400	-2980	21400	-2767	-3835	-3266	-19400	4536	-7440	176	-5327	-1973	-5136	4560	-11728	2403	-695	-72	-7736	1784	14392	7	88	-1437	-16520	2880	544	508	890	241	-16616	5176	6360	-858	875	-414	126	134	1
-25916	-6792	27828	-2571	-3779	-3598	-24264	1264	-10048	859	-5570	-2237	-5712	4824	-9632	1898	-178	-28	-7776	1160	14776	-206	1287	-1787	-17432	1520	-976	-178	938	215	-17328	4032	4976	141	1416	-525	125	143	1
-32768	-8908	31304	-2354	-3886	-4399	-29624	1336	-13592	2193	-5836	-2077	-5976	5712	-6432	1216	208	-21	-7816	1120	14920	128	1927	-2000	-16952	672	-1704	-237	1222	242	-15088	-944	1136	256	1686	-397	124	145	1
-32768	1164	31632	-2434	-3864	-5058	-31968	3752	-18656	2645	-5870	-1529	-8736	-240	-1000	434	82	-114	-8312	1168	14456	401	2552	-2174	-17048	1784	-1920	-102	1356	198	-15696	-1800	-144	-269	1579	-167	127	138	1
-32768	12544	25620	-2516	-3582	-4849	-31176	4624	-20816	2055	-5515	-831	-16464	-5080	4016	-231	-142	-402	-7976	1016	14488	792	3675	-2481	-17560	2072	-2208	-82	1490	255	-16304	1168	568	-118	1463	-63	132	142	1
-32768	18024	12728	-1815	-2878	-3943	-28528	7912	-26288	1801	-4881	-594	-24560	-4016	22256	634	-819	-1017	-7768	0	15192	183	5342	-2558	-20144	336	-2704	-164	1610	246	-18128	1872	632	262	1356	-1	146	146	1
-32768	32767	1224	-2057	-2333	-2045	-18088	9416	-32768	-858	-3237	-601	-15984	840	32767	2866	289	-1718	-7808	600	14392	164	7859	-2798	-19808	-40	-2632	-265	1805	191	-18224	-176	2000	473	1326	-20	155	140	1
-32768	32767	-22300	-3819	-1772	351	1912	5544	-32768	-3460	-623	-894	-19136	4072	32767	243	-488	-188	-8480	720	14216	-131	11083	-2793	-18976	-296	-2696	-389	1982	217	-16920	1616	1248	661	1101	-260	168	135	1
-32768	32767	-27856	-268	-220	2739	-3400	-4144	-27488	-3070	1785	-51	-21360	14544	23232	-598	295	1867	-10256	776	14568	-1195	14529	-2556	-19192	2160	-2384	-453	2231	140	-18456	6640	672	565	890	-456	145	130	1
-32768	13636	8236	3077	-99	3549	-17408	296	-25536	355	2998	557	-12696	1824	4824	-1647	174	635	-10896	1272	13856	-2711	17669	-3084	-21288	2864	-1520	-559	2419	178	-19440	5576	3240	641	396	-643	119	135	1
14008	-32768	32464	2281	380	2326	-26992	-7240	32767	-1108	2121	1158	-11760	-5712	15664	-1871	-691	-258	-9648	1952	14576	-4987	21832	-4699	-23912	-1200	-1136	-129	2576	281	-22168	872	8720	534	-304	-587	126	81	1
5812	-21048	-26968	2761	3718	2260	-32768	12416	8992	3335	1608	-333	-1688	-5744	-32768	-2167	2965	-43	-10048	2264	15712	-9827	28663	-6405	-31560	-3120	2528	1013	2850	376	-26192	1264	13744	550	-1517	-549	127	10	1
-27564	31556	32767	2704	5528	680	-21272	9736	-14400	2433	2275	555	-32768	-14312	22752	3990	-2219	-1888	-11760	4456	15576	-17721	32767	-10317	-32768	-5264	10712	2412	3124	446	-28952	-1120	19968	1966	-2813	-662	114	0	1
-3128	-8452	32767	2138	3925	1877	-30792	12944	-10520	1729	2637	1412	-19224	11328	13824	4041	652	-1534	-16968	2376	22208	-22953	32767	-17365	-32768	896	10944	3367	3066	541	-20480	-5320	12064	1892	-2820	-723	145	0	1
-30560	12960	32767	2506	1035	676	-17504	-9368	-13232	-191	3246	19	-12880	18856	-13864	-3524	1411	177	-31024	3264	32767	-15080	32767	-17737	-27928	11304	-4432	2834	3093	665	-22208	5784	2520	3400	-1669	-178	96	0	1
-23048	-23200	10620	1560	643	501	-13096	-816	-11592	1354	2379	450	-9736	-872	-19960	-3237	-266	1147	-26992	2080	32767	-9046	32767	-15201	-32768	11152	-1896	1520	2946	235	-26408	8344	-10528	2412	-802	664	127	0	1
-10180	-348	15624	1004	110	487	-9592	5256	-15656	157	1725	-68	-13040	-17416	-11600	-1426	916	298	-19560	5976	32767	-8371	32767	-18604	-26168	6088	256	-581	1683	212	-31488	-480	-12560	414	-1638	1101	111	56	1
-7728	-1676	15276	503	-75	223	-23048	3552	-6152	-1593	1556	3	-25960	-4352	-13664	619	1540	-1033	-32768	-8960	32767	-17517	32767	-25858	-24896	5864	-672	-660	1827	248	-32080	-4296	-8880	-684	-2510	1333	117	253	1
-7624	-2704	14188	294	-35	82	-20880	-336	-5208	-985	1269	-155	-24720	4728	-6728	6	1342	-112	-23728	12352	32767	3801	-2497	-18605	-15048	5408	-7192	-440	1148	-390	-29352	-3872	-6360	-632	-2759	1416	152	253	1
-7748	-1948	14332	182	69	1	-15952	-672	-5272	86	756	-113	-18672	3400	-2952	-923	1560	400	-1544	13584	22560	1687	-18326	-12838	-17744	-2192	3456	838	508	-360	-28184	-1816	-5880	-565	-2862	1472	146	253	1
-8100	-2572	14144	109	152	-84	-18528	176	-4800	764	293	21	-15080	-2600	-3136	-1017	1731	767	1184	11040	10416	-230	-18135	-8960	-10728	-400	48	780	-458	-347	-24536	-1208	-6736	-491	-2740	1671	128	253	1
-8212	-3136	13704	48	172	-140	-16824	1608	-4912	248	209	93	-17072	-4928	-3544	-562	1724	960	-2944	11088	14808	1595	-19392	-4298	-5536	952	-2584	785	-1229	-425	-23000	-3240	-6408	-690	-2745	1501	134	254	1
-8364	-3376	13556	20	137	-142	-15552	-1352	-4192	-522	154	17	-15800	-5584	-2328	-310	1883	610	-6848	12096	18480	3477	-25227	1018	-6824	4440	-3664	449	-1851	-365	-19656	-2056	-6008	-636	-2308	1425	141	254	1
-8116	-3640	13348	29	94	-77	-15936	-2768	-2680	-953	140	-42	-16960	-3208	-592	-238	1902	341	-6008	9912	14120	5365	-30481	5895	-7576	4048	-1648	-149	-2546	-327	-16640	-2032	-6904	-649	-2190	1329	120	253	1
-7996	-3344	13452	66	44	-19	-16136	-2856	-1624	-864	186	41	-15272	-2960	1792	-308	1852	394	-5248	7880	11152	8366	-31461	10064	-8064	2064	-512	-804	-3228	-338	-14560	-2112	-8008	-655	-1959	1238	112	253	1
-7936	-3156	13412	95	3	14	-15384	-2640	-928	-396	220	156	-14376	-2824	2184	-165	1756	298	-9032	6336	15792	9110	-32720	12733	-9200	3672	-2088	-1313	-3815	-334	-13480	-784	-8624	-649	-1761	1167	113	253	1
-7928	-2944	13496	116	-23	15	-15008	-1464	-536	103	314	156	-13728	-1312	2744	-5	1665	320	-12328	3504	20592	9816	-32768	14270	-10536	4728	-3720	-1737	-4278	-323	-11160	-936	-9600	-807	-1606	1025	119	253	1
-7448	-2812	13528	108	-17	-3	-15648	-480	-656	268	451	228	-14168	160	2584	-186	1615	311	-12496	656	18392	13984	-32768	15223	-12640	3096	-1728	-2368	-4674	-491	-8416	-1056	-9896	-1159	-1603	835	127	247	1
-8440	-2728	13644	111	-9	-3	-15352	56	-1104	-66	603	242	-13800	-8	3912	-626	1846	305	-15224	760	17648	17354	-32768	15704	-14392	3560	-4568	-3540	-5081	-745	-5624	-2248	-10704	-1736	-1576	653	124	235	1
-7816	-3052	13480	110	-25	45	-15640	-1032	-1456	-430	674	175	-15032	-1560	6944	-905	2591	207	-18664	848	14728	17662	-32768	17558	-17192	1168	-7928	-3986	-5259	-1224	-6048	-5136	-11392	-2309	-1558	403	125	217	1
-7748	-2932	13468	120	-37	83	-16256	-1144	-1848	-380	699	145	-16032	-1984	2320	-1873	2822	161	-21688	632	16448	15005	-32768	21693	-16464	-416	-7312	-3675	-5329	-1792	-6400	-7584	-11312	-2261	-1384	246	129	195	1
-7596	-2616	13584	151	-57	103	-16456	-160	-1080	-245	744	122	-19040	952	-2656	-1339	2634	-2	-24504	-48	27496	5582	-32768	22350	-26952	1584	-8328	-2749	-5336	-1846	-5416	-6864	-6088	-1832	-1089	102	126	195	1
-7556	-2244	13916	184	-70	139	-15640	752	-1152	30	821	98	-17464	1360	-4440	327	1486	11	-29720	-8088	32767	7852	-32768	19913	-29848	3768	-10120	-1122	-5415	-1983	-5800	-5624	776	-1709	-1103	154	131	194	1
-7416	-2188	13764	212	-84	143	-15384	592	-1992	355	883	56	-15488	-5072	1272	801	1254	269	-32768	-6240	32767	12981	-32768	15338	-30672	7368	-11568	-235	-5543	-1854	-7136	-2384	3320	-1221	-852	14	133	189	1
-7736	-2888	13504	201	-29	135	-15560	456	-1720	390	894	46	-15864	-6192	3088	283	1435	423	-32768	-14400	31888	19373	-32768	12844	-29192	5120	-15992	-242	-5485	-1876	-10888	2128	6488	-24	-477	-50	130	189	1
-7812	-2868	13528	214	50	150	-15856	-1576	-1528	540	1142	44	-15400	-3112	640	333	1343	323	-32768	-20384	26120	24570	-32768	9714	-30848	2584	-14792	1427	-4875	-2051	-17464	5456	12496	416	-408	393	136	191	1
-7716	-2928	13664	260	85	221	-15264	-2400	-1080	509	1313	125	-16216	-2912	1920	484	1283	246	-32768	-23256	8768	22375	-32768	1590	-23704	6152	-19528	3245	-3989	-1288	-19120	4264	24512	-1126	-93	1322	134	189	1
-7796	-3064	13940	313	177	361	-17984	-3168	-2000	542	1541	151	-18144	-3328	2400	304	1111	46	-32768	-32768	-21384	28918	-31000	-7832	-11800	8616	-28856	4483	-2240	-212	-12736	-2192	32767	-632	-1552	1318	132	182	1
-8400	-3280	13708	372	298	505	-17536	-1360	-2512	504	1747	266	-16720	-2288	160	-228	804	35	-32768	-29944	-32768	31124	-9707	-8096	-2112	9312	-22864	3899	558	608	-18856	-3456	30176	2257	-439	-447	138	166	1
-7892	-624	14476	492	499	497	-19232	2864	-4568	371	1926	291	-18280	-2792	-904	-154	881	172	-32768	-8360	-16248	-12462	7301	-15400	-19208	18720	-18856	1059	1312	969	-15992	-3024	10720	3294	654	-696	135	152	1
-7552	-1536	14408	533	740	402	-20088	-1424	-4168	403	2117	505	-18624	-6488	-816	-575	631	289	-32768	-10264	16048	-17760	6194	-13063	-13400	3936	-19304	-1307	2229	681	-8840	5264	1616	4200	598	41	130	153	1
-8704	-2412	14272	563	1148	504	-22720	-2120	-3824	462	2241	477	-20416	-2272	240	-748	462	218	-22456	-1080	5952	-11733	5891	-8694	-15432	4760	-14560	-2008	2770	487	-7968	15968	-3048	1464	496	351	146	122	1
-9216	-1740	13756	868	1770	762	-23352	-384	-3048	9	2484	487	-21272	-872	4008	-754	382	88	20040	28072	32767	-24572	6420	-3597	-22616	-16816	32767	-2110	2102	-250	-5888	12496	-32	969	842	449	135	18	1
-9392	-2880	14692	1322	2635	1186	-25696	880	-976	-544	2661	416	-22616	-1352	7760	-1114	235	116	7912	-1912	-5400	-17019	32767	-9944	-29864	-13936	6800	-3013	1483	1283	-32768	8776	3952	-581	1014	371	123	0	1
-8212	-3552	19244	1695	3548	1553	-30024	928	2176	-932	2814	381	-26240	-2832	9936	-1100	-227	283	-30232	-10720	32767	-15734	32767	-2283	-28784	128	-11104	-616	2665	279	-24720	7288	25136	-5483	136	420	103	0	1
-11124	-4080	15292	1935	4553	2037	-31584	1408	6424	-939	2794	398	-29496	-6136	15536	-997	-1135	637	-12184	-504	19112	-14332	23575	-1012	-26296	4784	-6648	-2628	2662	1036	-14824	-21016	-4000	-4050	1356	-907	104	0	1
-14276	-4512	24200	2506	6185	2797	-32768	4000	8792	-2394	2762	393	-27312	440	29472	-781	-4520	530	-1944	-8424	23088	-10602	24469	1949	-11240	-5096	-7968	-3149	2116	375	-11792	-19184	-13136	664	1107	1696	88	0	1
-28344	-4848	32767	2756	7467	3344	-28616	-3120	-1032	-3805	2517	268	-10192	12040	-2064	-1737	-1640	628	-32768	9160	30648	-2676	11832	-3286	-13944	11728	-17504	1122	2079	1378	-8912	440	-4792	3192	997	337	99	0	1
-27952	-2744	32767	1211	8347	3356	-25560	-7640	-7928	-2812	3472	739	-14752	11512	320	-1578	-1512	823	-5152	-10992	20376	-946	5059	-2361	-24768	912	-10776	56	1427	1256	-25296	16992	-16304	1630	1728	111	111	0	1
-22276	-13284	32767	-349	6703	3547	-29288	-3472	-3816	-2125	3005	1089	-31080	-10192	-12824	-2727	-1890	-1213	-9440	1224	16576	107	3021	-203	-18656	5712	-5064	1526	1405	743	-24048	3264	-10928	-618	1856	-105	112	177	1
-32768	9992	32767	769	3596	3633	-20464	-2200	-9296	-876	2367	748	-30992	-6120	-14360	-805	-2502	-1328	-8776	1800	15624	418	1853	-212	-16600	9224	-3472	-187	1107	220	-19304	1376	-5832	-564	1495	-311	107	225	1
-21416	-28524	32767	-188	587	1261	-16848	1008	-9056	-353	1436	521	-30712	352	-12240	1106	-2720	-1040	-7592	880	15136	591	1665	-363	-18208	-1544	-4160	-415	723	143	-18264	208	-3624	-189	1674	-553	118	218	1
-5732	-19624	22420	354	-1109	9	-15328	-136	-2176	-481	550	231	-27968	2208	-5896	1666	-3270	-779	-7392	80	15248	850	1902	22	-19128	-1096	-3952	944	606	272	-17200	-776	-784	163	1653	-589	118	201	1
-92	-11548	13712	-154	-1399	-580	-9672	1560	-768	-262	-322	42	-23280	2696	-4328	1199	-3303	-621	-7840	848	15272	980	2165	327	-18384	1656	-3400	1446	655	402	-17896	208	-120	294	1770	-338	114	196	1
-2092	-8548	17040	-502	-1913	-783	-5120	200	-3344	-730	-880	-181	-21688	456	-4872	825	-3146	-603	-7936	976	15304	995	2158	531	-16656	2520	-2344	1366	614	372	-16880	-272	-216	604	1873	-532	123	188	1
-3636	-6412	19016	-411	-2962	-712	-5776	-2136	-3368	-797	-1530	-713	-20200	2072	-4088	479	-2871	-561	-7864	1304	14768	893	2024	701	-16376	3632	-1720	923	598	205	-15408	1872	-304	551	1844	-648	119	180	1
-2000	-2200	15044	-1029	-3552	-630	-7744	-1024	-1568	-352	-2171	-1064	-16480	2688	-4080	343	-2361	-804	-7864	1416	14560	779	1763	599	-16552	3112	-888	517	545	164	-15352	1320	-104	502	1817	-750	122	163	1
-2440	-3144	11756	-1898	-3594	-663	-8344	288	-600	-342	-2763	-1140	-13576	232	-6616	15	-2027	-994	-8008	1464	14800	522	1493	210	-16120	1336	-488	527	439	193	-15184	1376	1152	572	1837	-640	121	160	1
-5952	-6204	13264	-2088	-3749	-880	-8648	704	-2352	-43	-3254	-1253	-14760	-752	-7912	-182	-2035	-971	-7912	1080	14720	310	1212	-181	-15400	584	-568	1071	400	238	-14320	376	1752	607	1804	-441	117	159	1
-8404	-7336	14172	-2139	-3959	-1361	-9512	952	-2176	535	-3747	-1450	-12448	-824	-8272	-45	-1682	-784	-7832	1072	14392	187	828	-407	-15472	1832	-504	1586	453	339	-14312	232	1144	797	1724	-523	123	152	1
-10420	-7160	15684	-2320	-4071	-1948	-11152	1720	-3240	897	-4187	-1503	-9560	-776	-9512	344	-1500	-796	-8096	1136	14664	8	503	-658	-15816	3296	-888	1647	463	375	-14720	3752	1240	1299	1724	-654	124	151	1
-13508	-5884	19160	-2489	-4235	-2480	-12264	1960	-3664	1176	-4606	-1544	-7976	288	-9976	1033	-1456	-607	-7928	960	14784	-173	128	-729	-16088	4256	-696	1251	519	263	-14904	7280	3448	1132	1950	-665	126	147	1
-15136	-3960	20288	-2657	-4379	-2946	-13864	2904	-4624	1498	-5054	-1576	-6088	-112	-10632	1816	-1276	-308	-7816	1224	14752	-255	43	-1095	-16616	3168	-584	787	574	200	-14512	4840	4944	767	2357	-560	128	161	1
-16932	-3068	21464	-2669	-4365	-3315	-16936	3720	-5312	1420	-5425	-1515	-4640	1744	-11856	2424	-931	-56	-7664	1088	14840	-517	-122	-1552	-15776	984	-536	712	704	170	-16040	336	1552	565	2207	-317	129	151	1
-19936	-3144	23860	-2536	-4206	-3533	-22168	2440	-7368	1399	-5792	-1583	-5744	4736	-12344	2290	-465	-7	-7744	1008	14528	-546	-15	-1942	-15576	728	-368	824	843	205	-18208	-104	1560	214	1509	-434	129	147	1
-26316	-5504	30596	-2486	-4008	-3830	-27672	2688	-10128	1685	-6103	-1586	-7104	6528	-10216	1652	153	54	-7728	1104	14720	-601	174	-2284	-16648	3616	-760	451	812	174	-17168	5248	3128	-201	1478	-516	127	135	1
-32768	-5856	32767	-2473	-4178	-4413	-32768	2112	-14016	2198	-6274	-1540	-7336	6104	-6344	1146	461	167	-8048	1104	14808	-275	781	-2305	-17896	2936	-2384	-256	1058	245	-16648	5808	168	-260	1564	-396	127	127	1
-32768	3380	32767	-2652	-4396	-5003	-32768	3240	-17968	2599	-6226	-1071	-9416	-296	-552	1066	-53	201	-7992	768	14752	-146	1589	-2193	-17728	1264	-2408	-575	1262	107	-16400	1760	-1816	-269	1546	-312	124	120	1
-32768	14736	26808	-2454	-4040	-4849	-32768	4816	-19864	2000	-5823	-349	-19128	-6872	7544	1227	-690	-193	-7768	752	14904	3	2458	-2463	-17152	2104	-2400	-329	1366	134	-16224	440	-528	-257	1452	-290	138	137	1
-32768	23476	12148	-1765	-3043	-3841	-27496	5992	-25176	1040	-5065	-107	-24200	-7056	20688	2663	-1888	-1254	-8064	1792	14688	-202	3680	-3686	-19000	3520	-2568	-33	1445	258	-17584	112	0	-170	1355	-141	148	159	1
-32768	32767	-1940	-2646	-2396	-1488	-13328	6264	-32768	-937	-3118	-576	-15968	7888	32767	4533	406	-1321	-7632	808	14728	-820	6500	-4198	-21552	-448	-2992	-199	1582	166	-19456	672	-312	85	1262	-12	165	168	1
-32768	32767	-32768	-4582	-1094	312	1576	6920	-32768	-3664	-24	-455	-14168	18312	32767	126	-300	1327	-7704	-808	15352	-1268	9839	-3967	-19232	-1264	-3872	-276	1737	200	-18584	656	1304	346	1085	-233	166	184	1
-32768	28704	-32216	456	660	2197	-6088	-8200	-24728	-2638	1891	430	-21968	22688	14120	-887	465	2250	-8280	320	14376	-2428	13717	-3114	-21432	2752	-1664	-551	2008	69	-20160	3576	-448	519	921	-504	151	184	1
-32768	10632	4876	3309	1074	2864	-19176	-3248	-24784	648	3131	510	-10736	-184	-376	-3720	-205	379	-9912	680	14376	-4307	17764	-4268	-21928	3400	-1328	-739	2082	168	-20896	3832	2008	489	457	-608	106	179	1
3984	-28560	32767	1580	779	1762	-19696	-7824	27008	-1554	2827	1282	-5840	-12096	-2904	-4278	-183	-717	-9968	1808	14840	-7776	21532	-6149	-23584	752	128	-194	2206	259	-21288	2736	5824	476	125	-500	108	90	1
16952	-20036	-10484	1452	2757	1607	-32768	4928	23688	2609	1495	-365	-13616	-9104	11824	-1028	-947	-735	-10992	1320	16200	-13959	26294	-8385	-27384	968	2936	600	2408	371	-25584	4760	10304	636	-358	-492	105	63	1
-16892	3436	29084	2353	4867	654	-15056	10720	-3624	1209	2211	28	-32768	-16560	-1232	2074	1569	-1802	-11184	2032	15232	-18872	32767	-11656	-28336	976	3168	669	2447	376	-29160	5392	18392	886	-1826	-530	116	0	1
-16176	25240	32767	1157	3428	1556	-28040	5216	-10528	1173	2743	1379	-19496	-640	19920	2864	-88	-1336	-13088	3216	18664	-28641	32767	-17679	-32768	-4696	16632	2108	2754	469	-29008	4272	19200	920	-2177	-560	147	0	1
-30348	-32768	26656	2231	2583	992	-17128	-1536	-8736	20	2699	814	-15904	23360	-10680	-69	1464	160	-24952	-2880	31592	-31307	32767	-22793	-27064	3760	2184	2518	2831	909	-15712	-8984	11280	1717	-3383	-557	136	0	1
-7988	24468	32767	1275	1207	782	-13760	-24	-12872	1261	2481	-130	-11568	5248	-17344	-2797	168	708	-25608	728	32767	-16966	32767	-20161	-30648	5856	184	2930	2915	913	-21312	-2416	3512	3321	-2051	37	130	0	1
-19320	-16548	12936	1190	322	360	-17848	6776	-12720	726	2162	233	-13232	-15880	-12328	-2337	598	443	-26664	2096	32767	-13330	32767	-16831	-28296	6512	2232	1756	2339	564	-28752	1360	-12624	3671	-1159	333	121	0	1
-9956	-3864	14188	786	91	255	-16776	3352	-9512	-116	1728	94	-21736	-9992	-9976	549	1479	-813	-22888	4696	30792	-10126	32767	-19465	-24288	5952	704	929	2024	763	-31272	1896	-12496	2462	-1595	1010	109	253	1
-7120	-2368	14356	508	93	128	-20304	3496	-5992	-70	1296	-178	-23608	3784	-7960	1053	1622	-711	-32768	9144	32767	-5671	26087	-22084	-14976	8392	-25416	53	1394	951	-28688	-832	-8392	633	-2167	1325	133	253	1
-7684	-2636	14204	356	153	95	-17320	2024	-5528	100	1083	-10	-21384	4136	-3488	-26	1509	6	-21784	25440	32767	8947	-9198	-1921	-15800	-1264	-4728	1548	866	-307	-28720	-2128	-4712	-447	-2799	1541	143	253	1
-7240	-1752	14240	217	211	17	-17392	3784	-4488	290	781	-50	-21240	3872	-3384	-141	1495	100	-4280	11664	16880	7169	-18471	9194	-15992	1224	1416	1879	-50	-40	-25424	-1032	-5192	-361	-2818	1680	142	254	1
-7656	-2508	14160	109	272	-54	-17768	2640	-4696	381	595	-118	-16672	528	-1320	-545	1755	513	-1848	3104	13736	9306	-19299	11151	-7768	5408	296	1300	-861	22	-23112	-376	-5896	-277	-2554	1855	125	253	1
-8000	-2888	14056	91	256	-89	-16544	1352	-4912	188	542	-170	-17336	-1096	-2216	-564	1652	799	-5288	1112	19480	9596	-23995	7765	-6760	9760	-2936	364	-1525	192	-22480	-1944	-5880	-392	-2506	1742	123	253	1
-8176	-2704	13852	46	235	-107	-16024	-848	-4416	56	491	-141	-15784	-2312	-2440	-551	1651	707	-5480	840	17688	11198	-30622	4376	-8744	6432	-1568	-990	-2198	254	-17936	-2248	-5488	-132	-2105	1443	128	253	1
-7940	-2924	13720	31	184	-93	-15912	-640	-3280	-323	459	-146	-15904	-4016	-1880	-670	1719	495	-5632	1136	16760	11859	-31371	4154	-8720	2064	-1016	-1939	-2854	38	-15840	-2536	-6816	-254	-1946	1279	135	253	1
-8140	-3028	13664	25	140	-49	-15816	-1872	-2424	-566	446	-110	-15304	-6056	216	-461	1948	254	-9592	5112	16384	15149	-32768	6677	-9408	288	-2160	-2217	-3448	-32	-14384	-1888	-7288	-343	-1897	1256	129	253	1
-8132	-2792	13664	38	91	-16	-15672	-2368	-1912	-510	405	-73	-14648	-4224	1816	-63	1922	161	-10632	4304	15464	16752	-32768	10859	-9560	56	-2416	-2216	-3551	-52	-12336	-888	-7720	-270	-1688	1274	116	253	1
-7960	-2576	13672	44	52	6	-15864	-824	-1680	-180	367	-13	-15256	400	1952	77	1894	196	-11768	2496	14400	18315	-32768	14829	-12160	-400	-1936	-2049	-4316	-335	-9904	-784	-8616	-491	-1521	1209	118	253	1
-7780	-2280	13704	72	10	4	-15464	648	-1608	-48	386	17	-14520	2344	2112	-112	1818	208	-12584	-272	13424	18773	-32768	17394	-12952	840	-3608	-2429	-4727	-482	-9512	-1680	-9176	-972	-1391	1024	121	237	1
-7488	-2148	13864	111	-22	18	-15664	416	-1928	43	448	39	-13408	1400	2104	-705	1989	307	-15672	-3432	14256	19226	-32768	18898	-15664	984	-6480	-2856	-4979	-834	-6888	-3712	-9360	-1577	-1256	776	123	232	1
-7420	-1992	13904	212	-91	65	-15816	-224	-2136	27	535	22	-13744	-760	3240	-1239	2514	366	-18144	-5504	19792	18885	-32327	18969	-15848	472	-7056	-2628	-5105	-1243	-4976	-5928	-9720	-2049	-1280	582	123	253	1
-7912	-2452	13652	290	-155	135	-15848	-1216	-3328	-140	561	-16	-15144	-3592	4400	-1524	3162	453	-22048	-6328	29976	19006	-32725	18345	-24528	-216	-9448	-2180	-5224	-1313	-5776	-5864	-6328	-2328	-1339	351	127	253	1
-7720	-2100	13672	275	-171	177	-15424	656	-2624	-298	667	-44	-15040	-2704	384	-1031	2819	340	-29096	-5008	32767	18662	-32768	17569	-25768	2624	-10848	-1042	-5361	-1580	-5584	-3152	-3144	-2581	-1251	233	132	253	1
-7352	-1948	13704	258	-156	186	-15024	80	-800	-247	780	12	-17544	1776	-3800	-42	2095	17	-32768	-1856	32767	16850	-32768	18930	-28760	3368	-13448	-777	-5459	-1515	-7160	-3448	-1456	-2386	-855	234	134	253	1
-7548	-2252	13872	248	-110	205	-15656	-1288	-1008	14	909	29	-17520	-2200	688	124	1470	65	-32768	-7280	26088	16247	-32768	23112	-27256	2152	-13672	-977	-5369	-1785	-10168	-1336	-672	-1637	-368	404	136	253	1
-7408	-2428	13868	246	-59	259	-17056	-2056	-2232	383	1036	94	-17016	-9848	4488	-46	1387	223	-32768	-16080	21368	11721	-32768	22080	-30712	4440	-13552	-260	-4889	-1882	-17176	2240	9552	-287	-405	692	132	253	1
-7580	-2476	13676	262	25	355	-16712	-872	-1904	264	1196	112	-16552	-8912	2032	-279	1217	185	-32768	-25184	6608	1514	-32768	11219	-28272	8656	-15720	659	-3977	-1616	-19528	7128	23368	-919	-630	1242	132	252	1
-7840	-2728	13944	315	121	510	-16872	-2840	-1352	-87	1445	186	-17664	-2936	1016	-54	1003	190	-32768	-32208	-18920	-3001	-28713	-6793	-13440	12768	-26728	-80	-3002	-710	-13336	-3592	32767	-3814	-153	1748	133	250	1
-7260	-2236	14024	373	257	758	-18168	-1808	-1504	126	1665	212	-17808	1488	2896	-26	850	75	-32768	-32768	-32768	13659	-9534	-14875	-5888	3504	-29936	1276	-296	401	-14784	-5176	32767	-1389	-1029	-195	135	230	1
-6204	732	14976	383	505	758	-19576	5824	-4240	286	1872	291	-19600	2344	2440	-294	703	56	-32768	-17736	-25296	-9806	7449	-13722	-8664	12288	-27232	1169	1642	847	-18992	-13544	21360	1862	64	-1423	137	225	1
-7012	-376	14956	422	821	663	-21152	2368	-3144	131	2104	572	-19832	-3424	-312	-934	631	151	-32768	-16272	4400	-18828	11923	-8390	-16848	6584	-23448	116	2813	739	-9640	-9168	4616	3127	271	-216	128	202	1
-7372	-1412	14604	568	1363	770	-22984	432	-3768	144	2257	486	-21552	-4816	1248	-1048	454	288	20160	11688	32767	-26243	8407	-4015	-20568	-9280	24136	362	3029	153	-7360	1032	8840	3981	-281	39	132	237	1
-8588	-1672	14168	944	2143	1035	-23784	1816	-3064	-211	2408	472	-21024	-2840	3776	-707	309	377	2808	8592	8616	-10732	32767	-2183	-32768	-15288	11192	-3106	2111	990	-10488	7752	9416	3021	1674	-175	116	83	1
-8624	-1844	15152	1569	3052	1319	-27016	-1016	-232	-668	2659	520	-23536	-4720	7488	-514	321	367	-26688	-9256	28208	-11627	32767	8374	-15408	1080	-7288	-852	2924	752	-32472	8200	11576	-1869	1275	601	118	24	1
-10240	-2756	16172	1977	3921	1723	-30952	-1120	4344	-575	2724	494	-26608	-6232	13280	-775	-534	446	-16448	-10648	26584	-8046	31728	-225	-27616	8128	-7632	-1538	2758	1358	-16440	-8608	-8240	-3777	236	-321	103	0	1
-12164	-1632	15116	2220	5130	2379	-32768	688	7672	-1061	2690	465	-29520	-6760	21176	-262	-2187	567	-32768	-21184	32767	-1674	24198	-3477	-26408	4792	-7096	-1950	2658	1505	-14584	-23416	-8896	394	661	904	109	0	1
-18304	-5840	29756	2972	6697	3531	-32768	880	7816	-2959	2827	453	-19016	3856	9616	-1144	-3991	686	-19560	1592	23168	4673	11296	65	-15976	5208	-11672	149	2104	901	-16064	48	-15376	3918	1245	779	108	0	1
-32140	-7720	32196	2898	7595	4049	-27296	-8704	-2528	-4420	3091	574	-23752	8936	8672	-1036	-1920	1228	-14288	4040	11240	2559	5815	-359	-20184	5312	-9272	1337	1727	1367	-24632	17480	-14984	2111	1947	212	108	29	1
-29156	-3164	32767	1029	7996	4021	-28320	-8720	-6392	-3436	3120	879	-21648	-11872	-9232	-2403	-1285	-548	-9328	1600	15520	1671	2654	286	-17704	5216	-6056	1627	1362	826	-20728	10680	-9504	-797	2029	-72	122	89	1
-27564	-17192	32767	702	5909	4107	-27296	-4896	-6744	-2097	2898	1162	-23608	-12896	-10920	-2559	-1285	-718	-7544	1408	15104	1318	1737	123	-19224	7968	-2880	33	1109	316	-21168	3256	-5536	-1880	1589	-140	114	0	1
-32768	-24852	32767	1206	1953	3076	-17480	-2120	-18040	-29	2349	550	-28584	-3192	-14728	275	-2221	-1100	-7448	976	15528	1076	1781	-182	-17272	912	-3616	-534	794	212	-18248	552	-1296	-1812	1488	-425	113	0	1
-16772	-32768	32767	301	-464	213	-18952	1408	-5728	14	1050	669	-30800	-376	-8888	1829	-2999	-1005	-7776	-40	15184	1019	1656	145	-18304	-528	-5464	299	786	350	-16760	-5272	1472	-1132	1491	-491	117	1	1
-3056	-20192	12940	257	-871	-1250	-14136	-112	2000	29	106	735	-25680	696	-5560	1551	-3339	-1131	-7624	408	15192	1197	1820	608	-17912	-504	-4184	972	851	434	-17128	-6728	1608	-109	1644	-320	110	6	1
80	-11992	12708	63	-821	-1747	-7496	-2880	-2576	-464	-600	148	-24480	1736	-4504	981	-3197	-1195	-7656	1080	15032	1355	2134	839	-17384	528	-3480	1244	797	517	-17560	-3816	1248	837	1823	-306	107	29	1
-2748	-7124	19024	-143	-1454	-1714	-5272	-5080	-4080	-238	-1328	-109	-22648	368	-5832	747	-2782	-1197	-7936	1424	14816	1487	2473	920	-17128	2688	-2376	1182	730	457	-16576	1112	-72	1537	1816	-360	118	56	1
-4684	-3872	20412	-621	-2578	-1436	-7144	-3792	-5080	324	-1989	-660	-21720	-5304	-8896	1290	-2354	-1234	-7936	1984	14784	1296	2497	787	-16768	4616	-1256	952	541	422	-16000	5128	200	1752	1789	-517	117	76	1
-5724	-4240	16764	-1256	-3400	-1197	-7200	-2024	-3624	799	-2615	-791	-15360	-208	-7176	715	-1994	-1302	-8184	2216	14608	1000	2264	204	-16440	4728	-1448	871	381	372	-15888	5456	520	1530	1744	-463	121	89	1
-7580	-6708	13368	-1550	-3878	-1205	-7856	-872	-2416	988	-3153	-1003	-14000	-1280	-7416	679	-1971	-1279	-8480	1728	14640	837	1970	-209	-15936	3608	-1800	926	349	320	-15600	3112	376	1410	1746	-303	117	93	1
-10436	-9248	12836	-1667	-4102	-1568	-9488	896	-3312	1060	-3704	-1241	-12200	-1752	-8544	613	-1625	-1100	-8384	1584	14640	842	1797	-378	-16080	2264	-2104	992	357	303	-15184	672	136	1498	1809	-337	121	109	1
-13788	-10872	15212	-1735	-4352	-2232	-10888	936	-4392	1075	-4128	-1293	-11232	-2248	-10344	1167	-1440	-972	-8224	1408	14704	835	1585	-391	-16056	2016	-2392	1135	385	333	-14352	560	-120	1575	1870	-637	123	112	1
-16216	-9156	16324	-1969	-4583	-2959	-11800	384	-3888	1366	-4557	-1393	-9320	-736	-11432	2114	-1365	-725	-8392	1552	14304	705	1394	-434	-15680	3320	-2408	1185	433	307	-13656	4544	-512	1312	1904	-929	127	110	1
-19320	-8196	17616	-2126	-4705	-3512	-13272	104	-4824	1771	-4981	-1502	-6800	880	-12008	3316	-1357	-429	-8392	1432	14440	565	1224	-619	-16264	3952	-2088	884	450	290	-15872	7048	2112	412	2212	-1003	127	120	1
-21292	-6296	17928	-2164	-4721	-3972	-15760	1192	-5680	2003	-5364	-1517	-4000	3184	-12800	3832	-1239	-94	-8112	1248	14392	626	1301	-861	-16312	1512	-2568	676	485	273	-14344	3616	5016	-212	2739	-656	127	127	1
-22672	-4324	16696	-2302	-4378	-4218	-20088	240	-6992	1905	-5638	-1521	-3128	6520	-12832	3258	-869	121	-8264	1472	14200	784	1699	-785	-16008	1008	-2528	759	608	247	-14712	-1464	504	-22	2577	-340	126	131	1
-27820	-6072	21748	-2262	-3902	-4248	-25072	-1104	-10392	2146	-5851	-1671	-5160	9720	-9168	1643	-233	142	-8112	1072	14496	1060	2131	-737	-15264	880	-2664	707	607	306	-18216	-3440	-3024	-377	2065	-177	127	130	1
-32768	-4176	32767	-2612	-3798	-4365	-29696	1752	-16568	2506	-6057	-1738	-7704	10840	-3008	497	-146	261	-8336	1512	14280	1331	2556	-505	-16248	2096	-3040	680	748	384	-16608	3496	440	-624	1556	-421	126	130	1
-32768	4588	32767	-3486	-4063	-4589	-29992	3192	-21664	1638	-5966	-1323	-7568	4552	1336	192	-586	166	-8504	808	14280	1798	3371	-85	-17856	2960	-2816	362	859	290	-16256	9312	600	-372	1811	-523	132	133	1
-32768	15500	26092	-3623	-4042	-4263	-30248	3744	-23480	330	-5648	-929	-13392	-3488	-1048	-959	30	-375	-8360	1976	13944	1756	4260	-55	-17984	3376	-952	-20	1041	165	-18016	6840	1288	-418	1714	-562	132	144	1
-32768	23312	14164	-3337	-3510	-3062	-26616	6568	-25032	-1643	-4821	-939	-24232	-1776	13616	-753	169	-1122	-8064	2368	14336	495	6106	-995	-20640	3208	1464	-109	1264	183	-21040	3472	7008	-445	1547	-423	138	143	1
-32768	32767	5176	-3561	-2920	-1055	-19680	3496	-32768	-3411	-3414	-1412	-18216	2296	32767	730	-1021	-1624	-8016	2328	14648	-260	8838	-2481	-20976	1648	1312	-332	1501	262	-21000	-2696	9440	192	1441	-6	143	138	1
-32768	32767	-19488	-5133	-2238	1130	-5608	4576	-32768	-4090	-1109	-1454	-18024	-4408	32767	-1695	33	-1125	-9624	1256	13960	-390	12348	-3026	-20624	-1144	-616	-243	1853	234	-20360	-992	5416	1010	1277	-97	145	130	1
-32768	32767	-32768	-2158	-401	1995	-2176	1576	-28176	-2527	1269	-346	-20016	1896	23816	-2380	91	289	-9888	1144	14296	-1846	16091	-2773	-21256	-672	-1208	-218	2155	268	-19936	4368	2944	1332	1047	-402	139	142	1
-32768	15740	-6716	2544	467	2084	-13664	4664	-28672	381	2936	287	-13168	-10192	8888	-2004	-105	-77	-9712	1464	14320	-4220	19550	-2540	-20560	400	-184	-320	2405	281	-20088	4464	4328	1108	361	-568	128	78	1
2740	-32768	32767	3860	-341	524	-27296	-4400	32767	-1682	2994	1414	-8616	-15992	19760	-2234	-447	-424	-10760	1968	14480	-6607	24156	-3293	-24184	-240	488	-195	2566	381	-22888	2184	8624	932	-383	-540	119	78	1
32767	1704	-14484	3089	2784	1012	-32768	12264	31712	4684	1242	-648	-6896	-18592	-32768	-308	2981	-305	-10640	3168	16248	-10222	32166	-5309	-32768	-1120	6696	979	2865	394	-27688	3808	15416	955	-1638	-647	131	0	1
-24184	32767	32767	3130	4588	1403	-7536	15960	-15680	5456	2130	913	-32768	-10496	30672	7801	-2173	-1193	-12808	8576	22344	-15534	32767	-11164	-32768	-1592	15864	2499	3067	553	-27368	2848	22008	2151	-2993	-555	136	0	1
-19564	1712	31144	1263	3198	1952	-32768	13384	-10368	2994	2805	2402	-20992	20984	6512	6770	1806	-404	-20368	2536	25944	-18101	32767	-18472	-32768	4600	4656	2794	3077	771	-21504	-248	15224	1965	-3440	-377	135	0	1
-32768	-23608	17520	2035	2327	301	-14224	-5456	-15168	-458	3013	734	-25104	32767	-14928	-312	1738	179	-31648	3488	32767	-14538	32767	-18094	-30640	11560	-5624	2203	3136	647	-22272	7120	1408	3181	-1977	119	150	0	1
-13348	16988	32767	1106	1168	798	-7400	1312	-16152	1440	2231	-77	2320	6984	-19704	-5982	-759	1054	-22728	2176	32767	-6778	32767	-12910	-32768	7632	-96	1374	3023	324	-29712	5488	-12944	1894	-1050	885	107	0	1
-10796	-2840	17940	1344	119	375	-19720	11672	-14912	-626	2313	840	-12056	-27992	-15280	-3170	331	-10	-17400	4688	30312	-3129	32767	-18208	-27368	3480	7232	-77	1913	-35	-32768	-616	-12928	327	-1803	1237	79	186	1
-12644	-8360	13840	772	-44	159	-22776	1784	-9736	-1745	1734	8	-27944	-23136	-11592	39	1806	-1723	-32768	2072	32767	-5188	32767	-31440	-18064	7856	-11528	-1439	1643	280	-30832	-2096	-8640	-506	-2595	1267	134	253	1
-8412	-3580	14804	581	-119	130	-17968	-1288	-6352	-1773	1276	-289	-26712	6000	-5608	554	1901	354	-29472	15160	32767	-6889	3551	-27007	-14120	10200	-15272	-582	899	-103	-29168	-3208	-5856	-543	-2935	1283	165	254	1
-8480	-4104	13972	542	-114	118	-16736	-1592	-3544	-340	788	-64	-14072	2576	-2944	-312	1881	614	-11312	13360	32767	1363	-23163	-12774	-15928	-6288	-856	-193	216	-319	-26752	-216	-5448	-580	-2947	1428	152	253	1
-6168	-2700	13884	263	109	-47	-17528	2360	-2408	747	496	310	-14752	832	-1632	-259	1729	697	-984	11528	13816	8881	-27998	-2652	-9544	-5096	856	853	-454	-1099	-26248	2320	-7592	-1231	-2822	1611	141	253	1
-6784	-3560	13296	341	261	-56	-17184	-2080	-3432	1169	480	148	-19360	-1808	-584	-93	1910	1174	-2696	10384	7976	4481	-27626	1900	-7808	-2088	320	1367	-1415	-749	-22144	-4760	-6568	-1096	-2875	1340	129	253	1
-7300	-3540	13608	487	246	-61	-16080	-816	-4808	1086	382	52	-12888	-1000	-344	-22	1972	738	-4880	5800	13160	961	-28965	3342	-7296	3968	-3232	1602	-2112	-367	-16696	-5008	-4408	-402	-2151	1267	127	254	1
-7908	-3688	13824	469	162	-56	-15096	264	-3408	374	317	105	-16440	-680	-680	-293	1916	387	-7384	1960	16584	5418	-32606	4642	-7776	5632	-2184	720	-2633	-287	-16048	-3176	-6128	-351	-2275	1158	111	254	1
-7776	-3516	14048	411	87	11	-15192	-768	-1880	-828	506	77	-15104	-2328	1024	-788	1900	55	-8248	2128	16800	8516	-32768	4754	-7808	3936	-1448	-301	-3323	-456	-16000	-2496	-7400	-337	-2114	1172	130	253	1
-7440	-3548	13624	359	41	67	-15224	-3096	80	-1176	648	74	-13520	-3352	1312	-755	1874	37	-8624	640	15816	10251	-32768	4755	-10144	2248	-1088	-911	-3911	-554	-11640	504	-8232	-301	-1832	1048	129	253	1
-7536	-3240	13872	275	54	98	-16168	-3696	488	-470	678	106	-14768	-2720	1552	-432	1934	188	-12464	616	18880	13409	-32768	5652	-11536	1392	-3744	-1269	-4349	-533	-11056	88	-9424	-652	-1744	1036	123	253	1
-7304	-2568	14016	235	60	80	-15880	-2504	24	365	645	145	-13408	-1480	3016	-345	2036	404	-15352	744	20280	14486	-32768	6716	-11920	1944	-3672	-1436	-4705	-638	-6632	-1720	-9736	-1173	-1693	845	125	241	1
-7280	-2456	13876	175	67	57	-16128	-792	-1608	841	623	167	-14304	-1296	4368	-487	2413	377	-18032	-424	21464	17698	-32768	8897	-13136	1696	-4656	-2433	-5190	-710	-5976	-3768	-10800	-1728	-1698	500	112	230	1
-7400	-2960	13764	166	87	87	-15952	784	-2584	554	673	110	-14400	-2232	6592	-772	3043	434	-19680	104	18912	22333	-32768	12953	-14288	-704	-4416	-3279	-5496	-1262	-5032	-5688	-12056	-2015	-1520	110	122	220	1
-7588	-2364	13804	140	76	126	-14888	840	-2608	-307	801	21	-15768	-2272	-2048	-759	2872	318	-20896	-680	15752	22848	-32768	17305	-20744	-2120	-6880	-3180	-5683	-1705	-5192	-7440	-12264	-1754	-1169	-91	128	209	1
-7288	-2708	13728	115	83	159	-14824	-1256	-904	-589	915	19	-18624	-240	-6496	203	2013	35	-28768	504	25944	19795	-32768	20901	-24024	2520	-10432	-2251	-5687	-1869	-4712	-8456	-8704	-1134	-593	-172	140	200	1
-7516	-2328	13768	90	122	184	-16000	-2544	-1840	6	973	23	-17640	-3808	72	543	1329	113	-30456	1144	28368	19240	-32768	21630	-30544	5728	-12032	-1739	-5746	-1816	-4792	-5104	-2296	-1167	-456	-96	141	198	1
-7328	-2064	13892	111	159	149	-17040	-704	-2112	548	1054	140	-16176	-7512	4104	128	1352	231	-32768	-2976	32088	12316	-32768	28981	-32768	8528	-16184	-1619	-5540	-2060	-7320	1672	424	-1459	-509	26	140	189	1
-7584	-2636	13740	114	227	183	-17248	-120	-2112	420	1189	146	-16432	-2104	976	-36	1287	171	-32768	-11712	21600	13603	-32768	29028	-31520	10520	-18120	-1510	-5056	-2351	-15496	7256	12376	-819	-750	348	131	190	1
-7820	-2680	13800	175	257	255	-15920	-1744	-992	12	1411	98	-16152	-2264	1928	129	1274	286	-32768	-20472	9376	12427	-32768	20963	-28800	6232	-19088	-206	-4220	-2120	-23880	10856	21656	-2068	-942	1175	139	197	1
-7440	-2636	13836	255	337	357	-17712	-3488	-1184	112	1647	203	-18080	-3776	4120	-119	1176	93	-32768	-28344	-13664	15778	-27814	5394	-15384	13664	-28648	1527	-3086	-848	-17712	-6352	32767	-4305	212	1545	136	217	1
-6684	-1952	14852	358	542	481	-19808	-496	-2280	203	1887	353	-19136	-2040	2944	-639	888	-35	-32768	-32768	-32768	31444	-13098	-8740	-13736	14160	-29704	1909	-2776	-583	-15520	-8824	32767	-566	-716	-644	135	208	1
-8248	-1468	14540	463	829	558	-20728	1984	-3744	80	2102	381	-19752	-2384	1464	-876	833	38	-32768	-13968	-32768	9856	6829	-15286	-8904	17264	-21568	3403	1512	991	-19872	-12912	17640	2962	857	-1838	130	193	1
-8108	-2248	14992	563	1258	451	-21688	-864	-2352	-47	2366	664	-20336	-8112	1632	-996	742	293	-32768	-1840	2328	-19542	14312	-18010	-17592	15592	-21872	848	2323	1309	-8664	-1216	1592	4620	989	-55	127	200	1
-7664	-2176	13748	771	1865	628	-22984	-2136	-1960	91	2533	582	-20384	-5704	3576	-973	418	460	3888	32767	23296	-12135	17913	-6042	-22328	-5808	31344	-822	2210	-28	-7800	14184	-2640	3354	1145	588	128	99	1
-9212	-2356	14404	1058	2742	1014	-24864	848	-920	-311	2775	575	-21912	-688	6608	-815	202	426	-6144	6608	-4408	-17378	32767	-442	-32768	-13448	5784	-4458	1643	1300	-22496	18384	16448	2182	198	519	140	8	1
-9504	-3120	16660	1620	3594	1496	-29744	32	1760	-881	2937	576	-25192	-1008	9712	-583	-200	433	-28736	-32768	32767	-14588	32767	-190	-25456	-96	-13088	-2925	2579	728	-30712	18832	14000	-3370	924	923	122	1	1
-10532	-3156	15184	1866	4694	2088	-32768	-16	4712	-1269	2890	563	-30784	-6872	18432	-592	-1425	607	-17800	-6224	24344	-5731	25732	-11984	-27856	-3736	-6360	-3126	2662	957	-16792	-17784	2048	-5250	572	194	120	0	1
-13916	-6852	21532	2691	6445	3041	-32768	-976	16384	-2809	2890	817	-28400	-2952	20160	-1508	-4212	385	-32768	21704	6208	-10945	20561	-2097	-18160	19640	-11152	-450	2553	1093	-13160	-32664	-9520	703	-103	122	107	0	1
-30012	-8372	32767	3100	7749	3788	-26464	-7160	824	-3600	2907	669	-19976	8040	3232	-1568	-1788	849	-12728	-15344	24144	-6581	8372	-6455	-9584	3712	-16024	-2817	1752	1345	-6848	4736	-18880	4880	761	615	101	0	1
-30168	-6760	32767	2137	8272	3819	-29112	-6072	-9040	-2968	3356	937	-21248	-5312	-5280	-1016	-2149	-604	-6264	-6048	19104	-4565	3470	-3662	-21384	-144	-10176	1703	1905	1126	-15848	21488	-18104	2376	1904	561	118	24	1
-23636	-18380	32767	100	7077	3913	-28928	-4560	-544	-2094	3001	1289	-30192	-3256	-14280	-1178	-2176	-1468	-9216	1456	15984	-602	1075	-1219	-20048	5376	-5936	2035	1573	853	-31456	4920	-15216	-639	2161	275	115	133	1
-32768	-816	32767	734	3810	3426	-20792	-2616	-7544	-180	2458	765	-30816	4944	-11784	-73	-2795	-1162	-8728	1120	15712	-77	406	-1171	-19656	6448	-5680	1569	1263	511	-21264	2752	-7640	-1119	1502	-431	109	78	1
-23120	-32768	32767	292	561	341	-16880	2696	-7608	393	1348	207	-31672	6248	-6184	22	-3204	-844	-7584	632	15336	149	405	-788	-18688	3264	-4704	-125	903	133	-16064	-248	-3168	-1224	1595	-450	118	141	1
-3620	-21812	26216	258	-1174	-1129	-15424	264	1176	-414	350	-134	-28064	4712	-4400	137	-3512	-936	-7592	272	15400	160	490	-694	-18272	-144	-5472	-723	677	168	-19696	-6264	-504	-917	1807	-693	116	141	1
4280	-9044	15888	-844	-1147	-1551	-11608	2328	2232	-784	-559	-681	-25656	1872	-3808	84	-3423	-1030	-8592	24	15488	888	1579	552	-18240	-2688	-4752	-156	691	192	-16552	-7424	40	-164	1952	-633	93	162	1
392	-8180	20008	-1585	-1460	-1618	-5336	768	-2072	-956	-1365	-913	-24392	504	-2536	716	-3275	-657	-7664	960	15024	1104	2015	1043	-17072	-656	-3112	442	706	283	-15600	-3152	-760	527	2180	-642	113	161	1
-4084	-5284	23880	-1619	-2567	-1591	-6952	-568	-2832	-907	-1950	-1526	-19256	4560	-5440	67	-2658	-653	-7928	1320	14992	1062	1961	1128	-16072	264	-2016	953	642	371	-16040	-240	-1136	766	2069	-659	117	154	1
-4508	-812	20740	-1986	-3455	-1574	-9800	1640	-1384	-253	-2605	-1747	-15216	5528	-6520	-396	-2422	-766	-8000	1904	14784	851	1586	648	-15912	1664	-96	1457	607	383	-15408	3360	-480	714	2062	-771	131	134	1
-5116	232	17856	-2431	-3875	-1677	-9392	3608	-336	244	-3198	-1709	-13800	2392	-7856	-865	-2194	-811	-7904	1840	14848	644	1147	-64	-15776	3552	88	1644	528	381	-14312	4512	-376	238	2088	-725	115	123	1
-6804	264	18216	-2412	-4109	-1845	-10184	5320	-816	329	-3715	-1840	-11944	-1224	-8224	-1088	-2006	-873	-7880	1912	14696	-57	413	-568	-15456	4440	-232	1272	471	400	-14152	3760	-544	-444	2101	-645	122	116	1
-9352	1028	21096	-2288	-4433	-2057	-12104	5648	-1720	334	-4154	-1853	-8960	-4016	-9144	-389	-1606	-939	-7776	1400	14872	-608	-149	-830	-15552	3232	-1528	483	355	338	-13488	2488	2344	-929	2244	-603	125	123	1
-10880	2116	21884	-2407	-4684	-2252	-13432	6440	-1696	725	-4611	-1800	-7208	-2248	-10824	691	-1589	-796	-7856	792	14728	-487	-249	-842	-16400	664	-2536	134	368	250	-13408	1808	6384	-308	2803	-730	127	125	1
-13924	1480	23532	-2521	-4866	-2438	-14856	7416	-2560	1257	-5042	-1745	-6456	1992	-10896	1939	-1381	-334	-7840	944	14304	-154	-126	-773	-16824	88	-2088	551	516	243	-15152	232	1032	1081	3121	-825	129	131	1
-14772	3592	25456	-2724	-4861	-2661	-18112	10640	-4976	1239	-5531	-1606	-5072	5256	-11312	2399	-1259	155	-7952	1352	14448	194	-49	-742	-14968	536	-352	1122	694	329	-18992	-1616	-1344	473	2104	-405	127	130	1
-18244	3936	29120	-2960	-4740	-2808	-22424	10928	-5872	231	-5836	-1466	-5040	5024	-10048	1907	-928	332	-6840	2136	14528	144	234	-1205	-15608	2640	808	1105	740	376	-19768	1784	1832	-705	1289	76	127	130	1
-23972	-48	32767	-2640	-4766	-2988	-25632	7080	-9584	-62	-6078	-1529	-4744	2536	-8272	1240	-486	301	-7512	912	14624	74	846	-1855	-17928	3904	-1088	269	878	350	-16328	4296	4184	-109	1347	-243	127	135	1
-32768	-2328	32767	-2274	-5040	-3556	-28448	1472	-12680	507	-6250	-1330	-5528	1424	-8248	1061	-71	39	-7736	1256	14912	71	1429	-2041	-17744	912	-1512	-51	959	232	-17288	6408	1448	607	1728	-295	127	144	1
-32768	-4272	27656	-1518	-5344	-3806	-31136	-5080	-16928	2105	-6223	-1284	-6776	312	-5752	1105	145	-219	-7624	1504	14840	159	2183	-2267	-16976	1160	-376	201	1316	258	-16984	6248	1144	590	1763	-332	129	155	1
-32768	1692	17472	-1698	-4677	-3963	-32768	-1240	-22408	2922	-5850	-933	-12544	-1968	2032	1509	-109	-203	-7416	1176	14784	173	3277	-2989	-17736	2560	216	171	1423	268	-17672	2768	3504	-249	1377	-321	138	160	1
-32768	10604	3064	-2301	-3390	-3517	-26728	4256	-26408	2318	-4853	-707	-21048	440	20360	2258	-927	-142	-7096	1616	14768	-375	5302	-4128	-21048	2328	-992	-196	1654	248	-19432	-48	3296	49	1327	-115	146	162	1
-32768	30884	-4736	-2904	-1562	-3297	-19264	8848	-32768	716	-3507	-629	-20552	4384	32767	2357	-883	-58	-7848	88	14800	-846	8762	-4441	-21736	-1528	-3288	-411	1872	176	-19400	8	2664	128	1341	-81	164	152	1
-32768	32767	-23804	-3097	-726	-2044	-160	9120	-32768	-3010	-443	-145	-21800	7344	32767	1817	486	426	-7856	48	14672	-1239	13370	-4053	-21952	-1520	-2960	-345	2068	129	-20488	1832	312	768	1327	-390	168	151	1
-32768	32767	-32768	-514	803	1220	-3720	-10200	-28072	-4079	2020	-103	-23360	11552	19392	-977	167	498	-9000	264	14416	-2775	18459	-3667	-22864	1328	-1664	-524	2279	101	-21320	4280	-312	790	876	-619	151	143	1
-32768	20156	5552	1869	1254	3537	-17480	-10384	-27528	122	3075	2	-10848	2848	5016	-3890	-352	105	-10368	2048	14536	-5928	22811	-4227	-22664	1856	-24	-529	2408	130	-20704	4648	3000	617	328	-605	134	143	1
-848	-28896	32767	2514	372	2840	-29448	-4208	32767	-17	2076	925	-8816	-9000	-4400	-4184	207	-27	-10288	2200	15200	-10415	26440	-6802	-25352	952	2328	-87	2547	200	-22552	4320	7672	567	-52	-713	106	104	1
-2892	-15664	-19088	2705	3958	2066	-32768	15864	5096	3652	2152	202	-11976	-12096	-2536	-2018	50	-1166	-10288	3072	18128	-17058	32767	-9742	-29816	1632	6264	587	2725	201	-27432	6880	14536	711	-1090	-796	119	21	1
-30776	23928	32767	1894	4974	903	-22152	14936	-12176	1222	2892	539	-32768	-13832	19424	5153	-484	-1929	-14168	4040	18272	-23697	32767	-14919	-30408	1464	7112	676	2736	204	-27032	6816	20272	1200	-2713	-567	113	0	1
-15076	7304	29216	304	3312	1710	-26312	7824	-6416	752	3038	1032	-20080	16688	-5040	3728	1783	-805	-13032	3896	18432	-25889	32767	-16311	-31544	2456	6000	2484	3037	523	-20448	-1432	20824	1831	-3802	-306	142	0	1
-32768	-32068	2460	1132	2486	416	-13168	-12360	-16792	-603	2973	692	-17944	28120	-14648	-1152	1663	501	-28096	1056	32767	-20021	32767	-22385	-29832	7080	152	3187	3361	560	-21704	280	6888	2060	-2363	21	132	0	1
-12356	12208	28100	1042	1039	743	-10152	1552	-18296	2300	2152	-454	-2184	-4136	-14008	-4274	-455	1000	-24488	1584	32767	-10723	32767	-17828	-32768	9824	1864	1903	2932	397	-26944	2848	-8544	1942	-1077	872	125	0	1
-7864	3720	20876	1171	250	471	-23560	8720	-11072	652	1996	56	-20840	-25648	-16512	-1503	1117	-297	-27104	5728	29056	-10442	32767	-21764	-26696	4752	3784	-25	2199	-84	-32768	-1200	-13080	929	-1425	1203	86	253	1
-10808	-5104	14444	582	99	141	-19760	616	-6944	-876	1615	-251	-23960	-6808	-12424	1032	1868	-1191	-32768	6072	32767	-17558	30396	-29584	-17656	10568	-18696	-955	1818	620	-30816	-5000	-8992	55	-2387	1421	138	254	1
-8668	-4164	14012	396	20	79	-17192	-1656	-6032	-886	1262	-112	-25280	7344	-5824	232	1790	89	-26240	20784	32767	-816	-1201	-11645	-18056	1632	-11992	-289	1255	-79	-29728	-5896	-5176	-359	-2950	1527	167	253	1
-7124	-2472	14040	243	84	43	-17456	4240	-4200	-531	821	-232	-14456	-80	-2608	-917	1767	458	-9424	18872	27880	6419	-19103	5331	-18648	-7824	2696	823	513	-260	-27248	-3440	-5712	-319	-2941	1808	142	254	1
-7384	-2392	13976	142	171	-35	-18312	784	-4040	-221	656	75	-17152	-3808	-2568	-324	1903	675	-80	10032	12024	3992	-21363	12759	-10312	-592	824	1660	-336	-398	-26296	-2448	-5864	-123	-2911	1998	129	253	1
-7732	-3388	13736	143	179	-65	-17304	-1144	-4368	373	477	-126	-17392	-2088	-1632	116	1998	896	120	2880	12744	480	-22133	12132	-7152	4680	-728	1079	-1359	54	-26664	1248	-8376	-838	-3266	1841	131	253	1
-8044	-3404	13560	133	166	-99	-16936	-1552	-4264	499	455	-112	-14616	-944	-1232	-49	2088	684	-1696	-1648	16264	2804	-24813	8770	-6984	7184	-1968	-9	-2028	99	-20200	-4400	-5664	9	-2232	1802	133	253	1
-8416	-3332	13696	77	141	-125	-16448	192	-2184	654	288	106	-16128	-1232	-672	-298	2133	436	-3960	-1368	18088	7500	-28861	5397	-7832	4168	-1888	-1273	-2705	-15	-16568	-1776	-5984	-116	-2284	1589	125	253	1
-7724	-3344	13640	38	114	-106	-15192	1144	-1808	-201	307	38	-14608	-1512	496	-414	2195	227	-6600	984	18288	9513	-32768	3718	-8400	1072	-2216	-1764	-3353	-174	-14640	-1952	-7736	-297	-2055	1408	92	253	1
-7584	-3300	13760	36	82	-45	-14872	-96	-752	-871	399	-42	-14952	-104	1392	-276	2164	237	-9368	1968	18016	12579	-32768	5201	-9776	-1232	-3672	-1903	-3905	-254	-14400	-968	-9088	-263	-1888	1368	116	253	1
-7772	-3308	13476	46	57	-14	-15264	-1800	-296	-958	513	-71	-13800	-520	1400	-174	2034	298	-9976	2112	17936	13107	-32768	5658	-11176	-1200	-3112	-1461	-4271	-428	-10584	-1480	-8504	-564	-1690	1204	142	253	1
-7604	-3224	13484	59	51	-3	-15544	-2872	-424	-381	591	-12	-12424	304	3552	-258	2389	382	-16136	1472	21248	16486	-32768	11791	-11472	1208	-4496	-1733	-4788	-333	-8536	-3112	-9544	-1073	-1668	937	136	251	1
-7672	-2988	13500	54	40	-2	-15712	-2040	-1000	138	626	103	-13808	-2104	8488	-470	2928	261	-17896	-312	21056	21203	-32768	15674	-12080	1040	-4416	-2464	-5164	-588	-4528	-4920	-10440	-1598	-1697	637	112	238	1
-7476	-3120	13568	61	55	22	-15800	-640	-1584	299	695	90	-15360	-5552	4000	-1329	2995	394	-15832	-2856	12704	24825	-32768	18943	-15744	-32	-4256	-3446	-5538	-1073	-4200	-5536	-11576	-1987	-1613	417	119	216	1
-7732	-2528	13588	130	9	56	-15208	1000	-1744	-59	814	53	-19200	-1104	-4488	-967	2728	53	-21504	-5920	19072	24184	-32768	19250	-21464	-912	-8584	-2913	-5576	-1361	-6048	-7376	-10984	-2272	-1551	130	119	208	1
-6728	-2820	13816	314	-82	159	-15712	56	288	-227	955	-10	-18592	2112	-3968	307	1481	-36	-24504	-8344	27520	24660	-32768	18454	-21968	976	-9352	-2049	-5615	-1570	-5280	-7984	-6568	-2092	-1262	-66	129	193	1
-7916	-2924	13844	343	-73	275	-16520	-1784	-1672	48	1019	-90	-15824	-4232	2368	524	1321	60	-31768	-3912	32767	21413	-32768	18154	-32496	2376	-12408	-1604	-5661	-1689	-5328	-4904	-64	-1800	-1166	14	127	181	1
-7608	-2604	13796	317	-56	254	-16096	-1192	-2104	518	1162	58	-15176	-6904	4336	-263	1455	184	-32768	-6288	32767	15837	-32768	19581	-30720	4432	-15568	-658	-5482	-1894	-7640	1368	4032	-1101	-990	165	132	168	1
-7720	-3192	13604	294	26	284	-16632	-992	-1984	640	1221	62	-15584	-1952	-616	-342	1320	192	-32768	-12896	26936	15268	-32768	21454	-29536	6928	-17904	-298	-5079	-1997	-13952	5920	6472	102	-550	490	130	166	1
-7696	-2988	13584	294	107	361	-16400	-1280	-1688	332	1412	80	-16712	-2888	-24	87	1415	174	-32768	-19744	15696	10350	-32768	16670	-28832	6496	-16304	352	-4444	-2035	-21176	7576	13384	-425	-125	1175	132	166	1
-7840	-3476	13704	334	211	509	-17520	-2936	-2016	241	1592	98	-17760	-4976	2248	-76	1217	105	-32768	-24064	-664	7724	-32768	3384	-28280	7080	-16960	509	-4310	-1949	-14504	-1576	25464	-2319	483	1371	137	174	1
-8004	-2392	13868	415	372	700	-20624	-2496	-1992	261	1817	193	-20312	-2744	2448	-441	984	-64	-32768	-32768	-22272	19495	-23536	-12108	-13136	8000	-28352	2509	-2049	-189	-13848	-5728	32767	-1368	-498	396	132	179	1
-8148	-2260	14116	517	667	816	-21928	3232	-2048	241	2041	303	-20480	-1136	3160	-612	806	-63	-32768	-32768	-32768	11526	-5847	-19400	-5208	8536	-29560	2663	565	731	-15944	-2920	31624	1007	-150	-1010	133	179	1
-5944	-1016	15000	500	1147	746	-20688	1952	-2528	98	2327	457	-19824	-3104	2528	-666	740	184	-32768	-20728	-8736	-16237	7609	-20797	-12472	9776	-26736	1232	2057	636	-16408	-3568	10432	2423	827	-669	130	189	1
-8544	-1700	14292	834	1929	741	-24208	-608	-3056	293	2483	502	-22176	-5312	1800	-883	687	385	-5232	-2072	6808	-21693	14267	-19018	-15256	3760	6232	1810	2522	359	-9736	-1992	5984	3338	632	-17	126	64	1
-9880	-2016	14492	1196	2818	989	-25120	1464	-1448	44	2650	457	-22624	-3504	4224	-860	429	363	14512	26224	25712	-14059	30294	-12440	-32768	-14576	20016	-1965	1688	492	-18496	-464	15752	2966	-571	-935	137	15	1
-8300	-3256	17164	1706	3627	1371	-29384	872	2048	-674	2787	462	-25440	-1760	7040	-362	248	369	-19384	-6296	19240	-17872	32767	-364	-22128	-2512	-2480	-1372	2499	1237	-25824	19992	7680	1129	2546	-194	115	0	1
-10724	-3664	15572	1784	4735	1884	-32768	712	6752	-1009	2832	483	-27504	-4960	14072	-465	-670	465	-25000	-15232	32408	-9565	32767	-4393	-32464	6432	-9272	-1271	3029	974	-19280	4984	6792	-4051	740	152	113	0	1
-11492	-3124	18184	2408	6314	2571	-32768	1792	12728	-2134	2756	698	-27592	-3904	19072	-432	-2369	638	-9688	16368	21144	-5003	29072	-5	-17184	-1656	-3848	-2128	2689	754	-14408	-22056	-15896	-465	656	1422	101	0	1
-25256	-6164	32767	3469	7831	3296	-29928	-5720	-520	-3195	2973	626	-19920	4896	8256	-1322	-4116	707	-5960	14848	32767	-9508	28000	1695	-11392	18104	-17336	-444	2575	1297	-11504	-21224	-15200	629	921	1822	91	0	1
-26744	624	32767	2599	8463	3337	-28272	-7240	-5008	-2483	3170	511	-23464	1104	-344	-1478	-1740	515	-14200	2200	15200	-4984	5193	-3908	-19528	3936	-10800	-541	2047	1075	-21096	27088	-20288	3057	1484	320	105	0	1
-26856	-11320	32767	175	8476	3259	-30568	1272	-1488	-2175	3090	1306	-25448	-8128	-12632	-1729	-1834	-878	-11304	1320	16272	-1869	667	-2369	-21368	3664	-8384	1327	1743	741	-24040	4344	-13056	-1573	2027	50	121	153	1
-17296	-5504	15864	-2118	6198	3117	-23456	-4648	-7824	-1135	2710	1152	-31432	-5856	-14040	-1042	-2552	-1195	-8152	488	15720	-555	-79	-1178	-17544	5008	-4944	457	1350	372	-23688	-3512	-6768	-1432	1634	-141	110	121	1
-28936	-32768	32767	-522	930	1106	-18840	400	-10664	-298	1600	653	-29896	80	-12400	1160	-2884	-987	-7400	592	15064	-76	477	-680	-19072	-760	-4632	68	988	217	-17096	-2520	-3208	-919	1489	-495	105	140	1
-6768	-22376	27580	551	-1432	-205	-17688	-3688	1136	-627	678	399	-30424	1032	-11016	1361	-2953	-937	-7080	56	15136	567	1297	72	-18256	112	-4408	511	751	274	-16624	-4328	-1016	-416	1615	-685	114	155	1
3016	-10640	13356	252	-1403	-515	-13368	280	2080	-442	-316	-20	-25592	3072	-3872	842	-3579	-818	-7288	272	14624	765	2004	743	-18416	1504	-4392	593	721	446	-18000	-4000	-368	369	1901	-685	86	153	1
-360	-8996	17660	-654	-1450	-701	-7208	1272	-3520	-708	-1046	-111	-26320	-2480	-8808	70	-3712	-614	-8256	912	15128	1068	2413	1113	-17416	1872	-3144	975	754	358	-17160	-24	-1288	897	2088	-668	116	157	1
-5188	-9668	21728	-1024	-2405	-837	-6024	-1640	-4240	-1128	-1649	-491	-21920	-1832	-5648	122	-2939	-897	-8264	1624	15008	1112	2239	1241	-16280	3328	-1512	1187	795	279	-15896	3944	-1472	874	2034	-640	117	159	1
-5844	-8084	17528	-1199	-3419	-1017	-8360	-2264	-2712	-634	-2381	-971	-19520	768	-7704	495	-2306	-899	-8200	2328	14680	850	1637	825	-16072	3888	-136	1478	820	300	-14488	5296	-1056	971	2026	-704	121	160	1
-7276	-7660	14588	-1442	-3882	-1280	-8192	-1352	-2376	209	-3001	-1096	-15760	-64	-8128	342	-2271	-827	-7984	2392	14544	402	1149	-136	-16016	4280	744	1666	700	332	-15464	4752	536	884	2012	-604	121	154	1
-10088	-8256	15784	-1499	-4273	-1630	-8880	-48	-3984	560	-3540	-1212	-14840	-1392	-8408	34	-2098	-946	-8128	1992	14608	-104	719	-792	-15672	4048	440	1500	592	269	-14800	3864	2168	686	2010	-489	125	152	1
-11380	-6560	15320	-1646	-4583	-2019	-10896	424	-3352	724	-4106	-1395	-10168	-3320	-10224	446	-1827	-998	-7832	1536	14496	-171	589	-991	-15832	3184	-216	1089	574	201	-13528	2920	2360	338	1941	-646	126	140	1
-14400	-5536	16296	-1980	-4729	-2359	-11960	848	-3640	935	-4541	-1446	-8192	-3024	-10464	1207	-1657	-788	-7720	1208	14640	-163	835	-1026	-16160	2232	-912	617	587	183	-14096	1976	3648	89	2087	-789	123	116	1
-18132	-5904	18508	-2105	-4974	-2658	-11936	-144	-5360	1269	-4901	-1590	-6000	-272	-11184	2267	-1560	-364	-8280	1000	14688	93	1080	-985	-16136	1616	-1784	457	663	154	-14840	2608	7032	362	2602	-843	122	120	1
-19956	-5364	18784	-2302	-5084	-3068	-14104	1528	-5664	1965	-5330	-1640	-4616	3016	-11368	2707	-1371	-109	-8144	960	14592	139	1088	-936	-16176	1672	-1456	646	795	163	-14152	2360	3280	1540	2917	-798	127	119	1
-21860	-5996	19640	-2452	-4923	-3544	-17984	3968	-5752	2018	-5707	-1467	-4016	6408	-12032	2418	-947	60	-7856	1840	14496	58	989	-1492	-16080	1824	-1304	946	867	246	-17928	1424	-3224	632	2515	-376	129	118	1
-27236	-8292	25028	-2332	-4838	-4009	-22408	2616	-8760	1567	-5950	-1477	-4128	7832	-11968	1500	-371	90	-7704	1632	14664	-195	1247	-2363	-16448	2744	-2520	684	892	328	-18112	-1248	-3056	-659	1627	-329	127	114	1
-32768	-11644	28748	-2084	-4832	-4677	-28080	-112	-11128	1990	-6222	-1524	-4184	6424	-9328	642	156	172	-8336	584	14568	271	1815	-2040	-16760	928	-5128	354	821	296	-15896	5224	-1536	-518	1676	-332	127	117	1
-32768	-7116	29976	-1996	-4650	-5338	-32248	328	-15336	2525	-6368	-1335	-4848	1936	-5208	782	28	193	-8064	256	14680	731	2811	-1250	-18336	824	-3424	211	1068	215	-15592	2616	-1552	48	1922	-515	131	113	1
-32768	5184	30224	-2457	-4376	-5451	-32768	-1272	-21264	1996	-6158	-940	-7456	-4864	-3520	1341	-113	40	-8640	520	14392	591	3628	-1164	-17160	1696	-1808	55	1114	230	-16872	1528	912	-353	1726	-678	135	124	1
-32768	14488	17904	-2482	-3876	-4488	-32768	-1440	-21944	1864	-6095	-897	-23904	-8088	14368	1715	-1133	-500	-7552	2320	14576	-164	4849	-1689	-17784	4384	1496	23	1389	193	-18752	5576	5584	-217	1532	-513	141	135	1
-32768	32767	6904	-3042	-2918	-2842	-22064	10088	-30584	-372	-4334	-297	-26904	-4680	32767	2574	-1830	-1720	-8040	1832	14496	-734	7496	-3181	-22208	3472	1144	-348	1599	196	-22240	3144	5312	179	1545	-83	148	146	1
-32768	32767	-16432	-3826	-2511	-300	-3480	3976	-32768	-3301	-1872	-1121	-25320	-1336	32767	3022	-1066	-1839	-8600	1712	14704	-990	11475	-4608	-21168	-1024	-672	-313	1896	215	-19696	-1048	3800	827	1315	-194	175	146	1
-32768	32767	-32768	-3330	-447	1768	-2432	3696	-30984	-4633	1131	-339	-20408	20168	27984	-1391	279	1400	-9640	448	14208	-1952	16014	-4518	-22112	0	-1544	-28	2207	183	-21792	2904	880	1144	1233	-447	158	138	1
-32768	16424	-12240	1454	565	3725	-16184	-12168	-28592	-2318	2783	252	-16112	7336	4400	-3161	-84	1287	-10296	-56	13808	-4416	21093	-4295	-24592	1088	-1040	-262	2415	200	-22080	4352	2624	1248	764	-533	121	141	1
-10920	-22488	14596	2774	648	2858	-18416	936	-5840	233	3316	870	-7360	-10736	-1856	-5206	-395	-538	-10768	1552	14736	-8464	25334	-5525	-24384	-1384	1088	-118	2536	240	-22232	1008	6704	1167	173	-637	119	58	1
27496	-32768	-7940	2025	2245	1414	-32768	-7208	32767	2119	1359	-250	-3304	-21568	-7432	-2917	350	-1190	-11000	3544	16120	-14093	32767	-7096	-29640	-928	5736	773	2760	247	-27112	3424	11664	1116	-572	-876	110	0	1
-13292	17032	23904	3038	5837	1300	-23560	9816	-11136	3420	2316	-63	-32768	-22584	-2864	3939	1502	-1754	-12144	3184	18024	-19716	32767	-11333	-32768	640	15272	1830	2888	259	-29920	9712	20096	1227	-2384	-820	104	0	1
-26740	25556	32767	1293	3169	2081	-29312	15984	-15848	2946	3243	1603	-21272	5664	23016	5382	582	-1468	-21824	-528	21408	-28023	32767	-19958	-32768	2704	12944	2947	3137	340	-28272	4920	24416	3005	-3388	-419	149	0	1
-32768	-32768	9004	1852	2643	672	-19752	-1480	-12872	542	3161	873	-19672	32767	-15656	945	2245	166	-30904	1232	32392	-20987	32767	-21683	-30472	11152	1016	3327	3266	666	-18888	2712	2312	2091	-2655	-7	138	0	1
-11212	31420	32767	1573	1232	1010	-5592	184	-17704	1417	2495	-347	2464	11168	-18320	-3822	-339	955	-23752	3736	32767	-10762	32767	-16407	-32768	10688	1488	1815	3164	538	-25504	3632	-6128	1744	-1430	792	132	0	1
-16128	-10636	16404	1619	285	415	-17176	3856	-11560	-440	2294	-5	-10328	-19592	-16536	-3506	385	808	-24160	488	32767	-8930	32767	-21993	-28888	4488	7176	-136	2078	0	-32144	-2400	-14376	675	-1433	1284	109	78	1
-13588	-7540	14096	990	180	270	-25048	9728	-15560	-1155	1742	-212	-29288	-25056	-14392	557	1709	-1873	-32768	2128	32767	-4336	32767	-32499	-19144	8968	-23544	-994	2098	494	-30768	-3768	-9192	-56	-2536	1317	128	253	1
-8224	-3564	14388	585	122	182	-19368	-200	-6560	-1339	1465	-217	-26536	4456	-7912	924	2036	-175	-26872	25872	32767	3931	-2123	-17186	-18856	3664	-9128	-255	1427	-228	-31168	-4712	-5296	-562	-3045	1466	155	253	1
-7616	-2384	14404	366	144	120	-16360	-856	-4320	-238	919	-91	-26528	6008	-7008	621	1996	45	-7720	20112	24104	3126	-18831	-680	-20048	-8512	3248	492	640	-105	-27216	-4080	-5952	-448	-2983	1564	164	253	1
-7416	-2504	13944	187	248	-9	-17272	1424	-3528	494	617	-68	-11848	72	32	-319	1891	389	1800	11096	9296	1110	-18180	8245	-10160	-3752	1312	1250	-135	-580	-25760	-1928	-6408	-152	-2983	1864	146	253	1
-7980	-3148	13748	135	279	-72	-17720	1704	-4408	868	587	79	-20392	552	-1248	74	2021	1087	400	5656	12512	-1558	-17164	9860	-7664	1488	-336	1319	-1106	-274	-26104	2448	-8136	-1063	-3282	1732	135	253	1
-8244	-2940	13944	130	258	-95	-16088	608	-3944	697	516	-28	-14128	1272	296	48	2000	967	-2728	1016	18464	-1689	-20725	7319	-6760	7360	-2784	827	-1850	35	-18456	-5848	-3376	-198	-2363	1596	122	253	1
-7892	-3420	13812	100	233	-81	-15208	176	-2248	252	519	5	-15040	640	-576	-658	1950	427	-4480	-1592	20808	4260	-26458	4430	-6920	6336	-2248	-476	-2456	17	-15808	-3504	-5168	2	-2474	1505	136	253	1
-8348	-3544	13672	54	181	-30	-14960	-872	-1568	-512	661	-57	-15288	-2464	16	-1133	2089	238	-7256	232	21144	10161	-32343	2513	-7408	2608	-2920	-1224	-3168	-138	-14680	-2416	-6448	-63	-2232	1366	104	253	1
-8136	-3616	13312	63	115	41	-15040	-3208	-1056	-968	769	2	-13400	-5216	-264	-1086	2215	127	-9808	1968	19424	12963	-32768	2864	-8992	-40	-2608	-1276	-3663	-264	-15856	-1592	-8208	-193	-2094	1303	126	253	1
-8052	-3328	13288	114	48	96	-15384	-4760	-936	-359	754	46	-13824	-5224	-576	-623	2210	100	-12224	2768	17304	14793	-32768	5684	-10768	-640	-2848	-1260	-4122	-279	-10256	-96	-9024	-302	-1863	1115	137	253	1
-7732	-2892	13480	182	8	130	-15488	-2320	-2632	510	701	81	-14096	-2192	712	62	2499	515	-13984	1128	18104	16291	-32768	9200	-11576	-632	-2960	-1373	-4568	-334	-9248	-1288	-9464	-682	-1838	1003	128	253	1
-7724	-1944	13856	251	-32	142	-16024	1368	-3624	838	722	102	-14432	-168	2368	35	2751	608	-16680	-1120	20448	18364	-32768	12741	-11864	24	-4488	-1908	-5014	-500	-6136	-3216	-10304	-1327	-1799	716	133	253	1
-6032	-2296	13412	392	-5	64	32767	-32768	0	-2407	-289	3512	-14608	-968	4208	-657	3054	578	-8088	-23688	8032	12326	-32768	19101	-13056	-1160	-4896	-2962	-5475	-888	-5048	-4912	-11944	-1759	-1748	495	120	248	1
-5648	972	15872	149	-72	182	-15184	-4208	-14928	231	5380	-294	-13504	-384	-3064	-1157	2806	306	-17424	-7184	18952	27384	-32768	18601	-18024	-1640	-5712	-3222	-5682	-1553	-5248	-5984	-12656	-1936	-1469	252	128	230	1
-8080	-2008	13764	268	-114	243	-17224	9328	-7112	-459	398	894	-17088	1824	-7880	-49	2141	-140	-22704	-6680	24752	21190	-32768	17073	-23632	88	-9512	-2531	-5901	-1664	-5664	-7496	-10704	-1797	-1104	34	129	225	1
-8788	-3456	13640	232	-101	242	-17304	-1208	-2000	-254	516	-134	-17120	-3472	944	410	1576	31	-30904	-3904	32767	20920	-32768	18581	-28568	1664	-12656	-1889	-5844	-1863	-4616	-6568	-6768	-1491	-512	-54	138	211	1
-7660	-1816	13832	238	89	277	-18808	-112	-1640	510	1066	235	-17592	-7904	3408	-63	1520	140	-32768	952	32767	16521	-32768	23674	-32616	6384	-16696	-1598	-5789	-2139	-5856	-2568	-2632	-1524	-461	16	135	195	1
-7780	-2264	13764	270	210	302	-16896	-368	-1520	329	1150	-5	-18032	-5000	1704	-58	1388	138	-32768	-6800	27592	12787	-32768	28484	-30760	10504	-18688	-1552	-5387	-2396	-12256	3160	928	-1031	-425	286	130	194	1
-8472	-2752	13832	307	342	419	-17848	-2688	-800	6	1419	146	-19600	-4608	4328	237	1444	266	-32768	-12064	13672	10022	-32768	25809	-32768	9504	-22104	-1235	-4793	-2295	-23080	5920	17368	-1928	-725	726	133	164	1
-8276	-1920	14180	434	498	518	-20656	-720	-920	44	1733	170	-20968	-3928	6912	-5	1057	148	-32768	-28864	1568	14028	-32768	14046	-23352	10920	-25744	812	-3742	-1592	-18776	3568	32767	-4388	-320	1016	132	161	1
-8232	-2072	14068	424	765	639	-21168	-672	-1488	104	2059	381	-20376	808	4936	-501	812	-55	-32768	-32768	-26856	26467	-24086	-6279	-8728	14824	-32768	2840	-1873	-72	-9792	-6176	32767	-2446	-237	468	139	164	1
-8040	-1988	14328	549	1269	709	-20752	1976	-1968	101	2319	458	-18792	1224	3264	-823	766	-23	-32768	-32768	-32768	17778	-4080	-15588	-3320	11032	-30912	2941	971	1049	-17360	-12384	31488	1535	554	-1338	131	116	1
-8376	-996	14400	846	1960	682	-21056	1104	-2368	-47	2564	551	-18976	-6952	1696	-1112	806	211	-32768	-22128	-32048	-23051	25775	-22978	-15952	19032	-19176	1648	2324	820	-13120	-6776	8432	3501	910	-280	127	0	1
-9436	-1716	14220	1229	2722	816	-24272	-704	-824	-50	2738	646	-21048	-9784	3920	-1324	571	338	12808	32767	32767	-16987	27698	-16322	-31984	-12424	28648	-2596	1824	162	-19696	4648	8496	3872	377	369	125	0	1
-8848	-3656	16224	1546	3509	1247	-28336	-1528	2656	-430	2869	571	-24256	-4472	7488	-736	260	470	-17440	7216	-2344	-26094	32767	-3381	-32768	-7720	-2280	-3300	2616	1815	-32768	28760	32767	5167	604	252	117	0	1
-10748	-3500	15484	1696	4646	1953	-32768	-1608	6960	-992	3015	566	-29136	-5032	14872	-207	-790	557	-30352	-32768	32767	-13215	32637	-700	-28128	528	-15512	-1758	3660	941	-18624	17952	-3752	-4604	505	-459	119	0	1
-13156	-4480	22180	2531	6456	2848	-32768	-664	12456	-2120	3102	790	-30328	-6032	19104	-506	-2582	504	-5656	12880	14064	-4153	24906	-4969	-15184	-4616	-2896	-1973	3104	1090	-16928	560	-4520	-5790	236	-944	94	0	1
-30692	-9760	32767	3077	7891	3670	-32768	-5288	3968	-3357	2963	652	-21768	2360	5464	-1434	-3987	486	-30408	-5680	28208	-12372	16402	-3647	-7128	22160	-17360	464	2536	1660	-3856	-26952	-14624	3765	-79	1480	96	0	1
-25808	-4	32767	2165	8784	3714	-30024	-5944	-5416	-2591	3630	752	-26944	5328	-2584	-532	-1793	403	-19480	5880	18496	-4022	6982	-4204	-16976	4688	-13088	-1340	1746	1043	-14408	27152	-20848	5543	1100	-387	110	0	1
-20916	-3876	32767	1969	8880	3673	-30288	-864	-3160	-2523	3326	1269	-27960	1184	-13504	-954	-2013	-1061	-9568	-48	17344	-2876	4042	-2808	-27928	1608	-10304	1850	1855	1006	-31856	15928	-15864	-1011	2421	675	123	163	1
-32768	2452	32767	650	3803	3327	-23168	-2112	-9496	-781	2694	740	-32320	1048	-13632	-1047	-2674	-1309	-7944	2080	13936	-1262	673	-1984	-15392	7968	-6024	815	1437	558	-25344	-2448	-8672	-1861	1739	-703	118	191	1
-21908	-32768	32767	110	435	247	-19984	2816	-6784	-409	1607	319	-32768	2688	-10752	-202	-2938	-1147	-7264	552	15720	-586	934	-1573	-19264	408	-5008	-83	1093	207	-16232	488	-3872	-1356	1508	-317	120	190	1
-3456	-17932	23988	232	-893	-906	-17184	-576	152	-742	599	-32	-29880	5392	-6328	369	-3488	-1031	-7504	336	15416	-494	1019	-856	-18640	672	-5056	132	799	190	-16800	-1680	-320	-980	1603	-581	114	188	1
2340	-8892	17352	-774	-954	-1157	-16488	-848	472	-722	445	-103	-25320	4456	-5264	232	-3628	-974	-7496	224	15352	-833	1126	-286	-17888	720	-5272	273	777	412	-17960	-5624	-40	-467	1882	-685	107	180	1
-700	-7492	20108	-1367	-1455	-1168	-5528	840	-2400	-1089	-1135	-764	-24176	2336	-5576	73	-3382	-806	-8624	3408	19712	-753	1256	-17	-18040	1456	-3776	842	812	370	-18000	-3904	-1064	416	2163	-520	107	171	1
-3648	-5808	21064	-1406	-2461	-1202	-7432	608	-2408	-837	-1700	-1291	-21408	5344	-2896	913	-3085	-600	-7552	1056	15160	-301	1166	110	-16408	2248	-1952	622	765	219	-15496	-824	-696	789	2173	-522	120	175	1
-3064	-3320	17352	-1701	-3117	-1365	-9208	2232	-1576	-177	-2402	-1539	-16760	4496	-6952	-353	-2539	-914	-7488	1256	14976	-90	1349	45	-16264	392	-1112	650	692	287	-15480	728	440	873	2149	-578	121	179	1
-3992	-2876	15584	-1945	-3380	-1601	-9296	3832	-904	286	-3050	-1530	-15832	1648	-8608	-488	-2444	-1015	-7400	1488	14976	-23	1404	-358	-16264	208	-128	1321	626	355	-15336	1288	776	953	2128	-751	125	163	1
-7220	-3396	17584	-1739	-3702	-1830	-8880	3960	-1648	434	-3572	-1675	-12376	688	-8016	-842	-2157	-857	-7712	1768	14728	-1	1229	-802	-15672	3552	72	1635	570	399	-14592	3120	256	996	2210	-708	126	147	1
-10096	-1976	20848	-1719	-4172	-2139	-10384	4352	-3464	707	-4038	-1876	-10352	-720	-9008	-564	-1977	-767	-8000	1368	14912	77	868	-1083	-15664	3928	-24	1608	558	398	-13136	3568	504	329	2328	-757	127	139	1
-11944	60	21616	-2006	-4598	-2414	-11800	4768	-2472	793	-4477	-1829	-7208	-816	-9688	178	-1753	-610	-8168	1544	14736	59	785	-1123	-15464	2888	-2672	383	450	235	-13344	3880	3776	-359	2548	-747	124	137	1
-14208	1340	22932	-2348	-4916	-2544	-13184	4472	-3640	1004	-4930	-1851	-5528	40	-10624	1201	-1546	-309	-7440	408	14688	550	612	-744	-15432	2312	-2608	347	451	217	-14240	3960	5928	208	2952	-878	127	141	1
-16384	1660	23920	-2652	-5101	-2687	-15360	5400	-5008	1326	-5409	-1789	-4512	1192	-11664	2025	-1345	-37	-7720	1136	14728	1390	1149	-732	-16512	1064	-1848	1097	680	234	-15032	1912	312	1681	2970	-928	128	145	1
-18952	1156	24716	-2757	-5154	-2870	-17832	7400	-5856	1318	-5787	-1599	-4160	3208	-13144	2371	-997	106	-7408	744	14952	1893	1704	-904	-15704	-160	-1392	1546	757	336	-18808	-1656	-3200	571	2238	-525	129	151	1
-23960	-1840	27696	-2600	-5186	-3128	-21136	6648	-7800	848	-6086	-1467	-2808	4336	-12392	2084	-460	192	-7304	1432	14792	661	1472	-1804	-16408	2888	-1328	1356	765	367	-18088	2008	-352	-950	1627	-187	129	158	1
-29580	-3876	30336	-2452	-5136	-3673	-26336	4856	-10568	1078	-6374	-1405	-2600	3904	-10416	1736	150	162	-7816	872	14592	295	1621	-2057	-18176	4168	-2344	345	812	229	-15864	7120	2176	-573	1821	-518	129	162	1
-32768	-1884	32524	-2349	-4911	-4324	-32312	3792	-15160	1352	-6483	-1114	-2992	512	-7896	1602	443	20	-7872	960	14984	267	2063	-2079	-17416	1640	-1368	-115	1015	215	-16992	4184	1904	-63	1897	-516	129	154	1
-32768	4936	32767	-2156	-4756	-4511	-32768	-200	-20720	1291	-6298	-743	-7880	-4344	-2552	1158	0	-178	-7760	1000	14608	361	2931	-2510	-16816	296	184	68	1314	217	-17984	656	4856	-386	1600	-419	124	152	1
-32768	10980	17540	-1739	-4419	-3851	-31512	-2272	-23688	1627	-5695	-370	-23224	-4800	11720	962	-1194	-574	-6912	448	15128	-115	4768	-2947	-19520	1424	120	176	1525	178	-20032	1176	6696	-35	1459	-207	136	149	1
-32768	27004	-3080	-1770	-3205	-2519	-20416	6552	-32768	1964	-4502	-494	-25248	-576	32767	3031	-1195	-1542	-7304	968	14864	-381	7917	-4302	-21928	384	-752	-38	1834	250	-19792	-2592	4864	742	1414	13	148	149	1
-32768	32767	-26236	-4673	-1643	-1091	-5288	16840	-32768	-1820	-1344	-482	-13152	3304	32767	2308	-305	350	-7640	88	15072	-888	12059	-4874	-20800	-1792	-2232	-199	2033	248	-18224	-992	2912	1119	1357	-158	178	157	1
-32768	32767	-32768	-1577	510	499	136	-2192	-31696	-4145	1391	328	-21168	17400	29552	555	176	2403	-14832	-104	15080	-2189	16218	-4189	-21000	496	-2752	-327	2313	157	-20144	6888	-1072	1156	1112	-434	172	149	1
-32768	23604	-5376	2783	1322	2560	-19080	-11160	-27168	-756	2877	265	-14424	10800	3344	-2338	-16	1154	-9600	1352	14568	-4863	21133	-3965	-23384	2408	-736	-609	2518	124	-21392	6976	1696	975	576	-543	136	159	1
-25640	-26612	22332	1841	1621	3140	-27832	-12416	27072	-1109	2585	1104	-8712	-5936	8360	-4557	-635	-3	-9640	2120	15192	-9148	25434	-6107	-26096	616	1464	-167	2679	200	-23184	4464	6056	656	-29	-623	132	84	1
-5948	-12332	-15084	1647	5337	2316	-32768	10680	11744	3617	2281	178	-10784	-15200	-3344	-922	723	-802	-11184	2904	15512	-15887	32660	-9411	-30400	1872	5016	568	2866	239	-26616	7568	13656	705	-1057	-793	105	27	1
-32768	15268	32767	2059	5539	1136	-23800	8920	-20304	3253	2961	806	-32768	-8568	24632	3790	-442	-2368	-12816	4064	18600	-22955	32767	-14992	-32768	-312	15096	1551	3048	309	-28768	7696	20800	854	-2692	-695	90	0	1
-32768	-880	32767	2036	3161	1576	-21648	6760	-9736	1543	3265	1414	-23880	15152	-13744	959	1613	-1429	-21184	4672	30808	-32768	32767	-24593	-32768	2000	8272	2491	3024	546	-25616	-1384	22504	1990	-3659	-338	128	0	1
-25432	-404	32767	3082	1354	1167	-14432	-3624	-19592	1297	3090	-279	-12608	24848	-21608	-1798	759	-505	-29816	-344	32767	-20404	32767	-24121	-30224	9032	-976	3107	3283	761	-23272	-24	4048	1984	-2433	-49	132	0	1
-21636	-14652	11708	1730	110	464	-9440	10280	-18144	909	2432	105	-2320	-7616	-16856	-4188	-131	962	-26144	3568	32767	-8183	32767	-19098	-32768	10696	2144	1609	2866	518	-27848	3480	-8776	1949	-953	873	111	0	1
-11512	-3192	14688	939	-145	260	-14544	2368	-13736	-913	1578	69	-25152	-26816	-16032	-1149	1126	31	-29168	448	25560	-10800	32767	-23608	-26752	5760	-272	-813	2176	319	-32768	-2104	-13344	950	-1425	1331	124	254	1
-8912	-3272	14108	483	-165	72	-20264	-192	-8168	-1262	1641	-465	-25056	-3000	-10496	1730	2112	-593	-32768	15808	32767	-2901	21216	-25321	-18152	7976	-24888	-509	2232	591	-30888	-6192	-8360	-364	-2611	1546	138	254	1
-7524	-3220	13832	304	-80	51	-19400	-2416	-4480	-629	1188	3	-23448	5608	-5568	541	1988	406	-15752	28944	32767	-1364	-10096	-7747	-20304	-656	-640	866	1189	-62	-30136	-9016	-5008	-606	-3123	1536	155	253	1
-7576	-2584	13960	229	9	49	-16136	1472	-3736	349	772	-191	-15808	-384	-1288	-271	1836	772	2080	13008	12888	-3388	-13697	2332	-17672	-5656	3112	1283	308	201	-26248	-4912	-5464	104	-2893	1819	144	253	1
-7592	-2316	13828	182	57	-5	-17248	2280	-5200	969	673	186	-16416	-424	-960	-29	1968	841	1544	7608	13400	5440	-11109	8432	-7968	-1192	-488	1496	-410	-27	-25384	-4776	-5304	227	-2875	1893	133	253	1
-7816	-2988	13760	171	77	-58	-17504	1816	-4040	869	609	78	-16048	-80	-1608	133	2075	811	-3200	6744	20128	5897	-15239	9732	-5872	4496	-2400	1379	-1221	155	-21152	-3336	-4552	76	-2779	1800	130	253	1
-8116	-3052	13716	157	67	-55	-16616	128	-4056	290	481	-18	-15216	224	-2160	-119	2097	642	-2608	1560	18864	5645	-21909	9070	-7448	5744	-912	192	-1930	418	-18616	-4032	-3112	-98	-2803	1611	131	253	1
-7972	-3192	13564	143	32	-21	-14912	-1008	-2176	154	341	77	-15712	-560	-816	-422	2318	300	-2344	-80	17088	10349	-26074	8714	-8072	792	-1184	-958	-2589	262	-15872	-2624	-6152	195	-2272	1527	133	253	1
-7520	-3060	13796	139	9	22	-15152	1568	-976	-232	357	-72	-14520	-8	696	-467	2283	85	-4920	24	17488	12010	-29480	8482	-8296	-768	-1912	-1417	-3159	181	-14648	-2000	-6264	40	-2163	1463	115	253	1
-7696	-2984	13712	144	2	30	-15808	640	-1208	-491	445	-18	-14632	-152	1280	-267	2337	278	-6584	-1016	17560	12821	-32569	9540	-9848	-2488	-2368	-1573	-3695	145	-14432	-1536	-7264	-92	-2172	1381	114	253	1
-7936	-2492	13680	123	-28	40	-15256	-2120	-1928	-249	434	27	-13304	272	1752	-192	2336	506	-9672	-1720	19712	14599	-32768	11802	-11168	-2696	-3664	-1777	-4137	41	-11120	-1888	-8008	-281	-2037	1141	112	253	1
-7736	-2636	13576	108	-51	29	-15080	-1920	-1920	395	411	42	-12520	192	2976	-537	2515	462	-11856	-2984	22000	15471	-32768	13737	-11928	-1704	-4480	-1960	-4522	-221	-9120	-2256	-8592	-665	-1881	931	128	253	1
-7652	-2384	13784	121	-76	45	-15960	64	-2400	484	454	25	-15216	-920	7416	-557	2986	360	-13112	-4928	22536	17099	-32768	15223	-13392	-1536	-4536	-2462	-5002	-535	-6744	-2840	-10000	-1136	-1738	684	130	249	1
-7652	-2668	13656	152	-89	121	-16096	944	-2400	41	562	10	-14848	-5704	808	-803	3179	352	-15488	-6608	23048	19799	-32768	16295	-14336	-2336	-5616	-2997	-5461	-1007	-6176	-4896	-11000	-1486	-1536	530	127	239	1
-7336	-2232	13544	181	-85	185	-15792	1328	-1240	-362	703	-12	-19312	-5448	-3976	-338	3240	168	-18240	-9120	23112	22945	-32768	16267	-17488	-3792	-7456	-2877	-5684	-1429	-5848	-6960	-11920	-1860	-1433	268	129	226	1
-7060	-2260	13612	178	-18	195	-15336	1512	1088	-265	880	-82	-19760	-4792	-4208	-176	3054	168	-21448	-9008	26272	24176	-32768	15073	-21800	-3608	-8864	-1649	-5804	-1663	-4552	-8600	-10448	-1907	-1205	-64	128	215	1
-7136	-2192	13904	144	49	168	-15384	-1296	368	504	1025	4	-16640	-1544	6008	1183	1256	440	-29192	-5240	32767	21983	-32768	14868	-28968	176	-12800	-654	-5961	-1527	-3384	-7544	-6400	-1633	-781	-283	138	194	1
-7264	-2192	13572	134	115	171	-16656	-976	-1776	965	1150	64	-16712	80	6984	623	1416	456	-32768	-6264	32767	19246	-32768	19645	-31304	2064	-15376	-508	-5917	-1889	-4040	-1864	-3304	-1126	-470	-258	140	194	1
-7596	-2548	13680	153	215	278	-18032	-176	-3440	477	1312	62	-16344	1384	-728	177	1357	156	-32768	-13424	28992	16234	-32768	23306	-32656	5880	-14928	-595	-5514	-2325	-10888	5800	0	-95	-211	194	137	195	1
-8092	-2292	14028	198	301	410	-17760	-192	-3912	-243	1491	101	-16872	-1864	-3872	-339	1361	90	-32768	-13624	18088	7531	-32768	19288	-32768	8888	-17856	-415	-4896	-2332	-22344	9184	15296	-434	-485	1098	136	195	1
-8544	-2056	13656	208	422	568	-18448	-1280	-3184	-626	1629	135	-18200	-1808	-344	-754	1208	-213	-32768	-21608	-5472	1408	-32768	8757	-23432	11256	-26480	-675	-4155	-1579	-19168	3632	32767	-5208	572	1574	137	184	1
-7632	-1472	14436	332	684	604	-22544	3744	-1656	-629	1836	273	-20888	2928	1640	-1046	980	-292	-32768	-32768	-32560	26647	-18403	-4901	-7072	8152	-32768	1458	-1464	-298	-19784	440	32767	-5729	382	1628	139	171	1
-9260	-1344	14456	372	976	635	-18560	3400	-1536	-342	2075	388	-17632	-240	4112	-1187	788	60	-32768	-30936	-32768	5409	3145	-8833	-1232	12152	-30792	2080	1404	742	-23000	-14904	31448	974	642	-2439	130	168	1
-8484	-964	14824	653	1470	458	-20176	-48	-2504	154	2248	624	-18944	-8816	832	-1032	942	191	-32768	-24784	728	-28082	16392	-15043	-17912	14640	-27392	866	2707	796	-10288	-10336	1360	2896	838	-593	131	139	1
-8456	-716	14500	691	1567	436	-24320	-3232	-2272	574	2443	794	-22504	-12376	1984	-1074	675	304	13968	27616	28064	-10847	18356	-15284	-27384	-8088	32767	948	2677	-432	-6840	2120	5696	4183	582	348	100	34	1
-9308	-4016	14388	1367	3070	1085	-27096	-280	648	-130	2654	667	-23840	-4152	6232	-326	310	415	-11864	27552	-10520	-14162	32767	-15538	-32768	-12376	4840	-3437	1980	1800	-17296	9000	26232	3534	1253	-507	136	0	1
-10376	-4292	17412	1723	3872	1744	-30152	-904	4592	-1099	2862	648	-25704	-2360	11592	-131	-274	513	-32768	-20680	32767	-15380	32767	4168	-30168	10864	-12432	-329	3274	670	-32768	21872	9248	-1822	467	300	103	0	1
-11516	-2628	15612	2125	5080	2497	-32768	-976	7936	-1363	2799	693	-29536	-6000	18112	-465	-1468	405	-14376	-11160	28280	-6973	28657	-5278	-25408	-2152	-7832	-2546	3060	1672	-13648	-19104	-10296	-5152	22	7	117	0	1
-20604	-7008	29932	3402	6804	3545	-32768	-1776	9960	-2586	3027	979	-26968	-4072	25168	-1473	-3927	565	-32768	9904	17800	-6075	25269	-1494	-9800	10616	-11808	-940	2670	703	-11288	-32768	-16728	2974	860	2442	111	0	1
-25512	-6164	32767	3875	6856	3795	-27816	-10248	2976	-3150	2980	740	-14688	896	-3064	-1693	-1724	314	-13680	-8672	19912	-4109	8839	-4027	-13608	10632	-15696	-312	2428	1731	-11760	14632	-20272	5778	309	-344	110	22	1
-32768	-9496	32767	1646	8045	4223	-32160	-4056	-6368	-2222	3428	1163	-25624	-1944	-6520	-595	-1855	-644	-9560	-1032	17064	-1872	3858	-1995	-26376	-568	-9224	841	1968	909	-26120	26128	-18040	-249	2082	-234	120	118	1
-21180	-20224	31624	831	4461	3672	-28360	-3912	-5352	-791	3137	1190	-32768	-1696	-13496	-1063	-2038	-1337	-8960	1136	16328	-73	1826	-1051	-16616	7592	-6128	1444	1437	820	-26664	-3800	-11448	-2051	2009	-216	119	15	1
-32768	-32768	32767	1164	1542	1816	-21352	3216	-17288	1310	2343	471	-30776	680	-13336	-76	-2621	-1176	-8520	456	15416	282	1274	-662	-19288	4504	-5600	-307	1137	175	-21184	-328	-5544	-1323	1633	-184	118	10	1
-11036	-28996	31972	251	-63	-303	-21176	2872	-2368	-283	1304	559	-31680	2872	-9792	685	-3057	-1233	-7392	344	15552	478	1280	-70	-18976	-320	-4976	-408	743	176	-15576	-1752	-1368	-1018	1649	-474	120	41	1
-116	-15564	13732	99	-210	-1134	-15912	808	1080	-592	415	151	-28008	4304	-6504	767	-3435	-1160	-7656	896	14944	557	1897	360	-18168	-1408	-5144	270	701	311	-15848	-3488	-240	-971	1664	-519	119	44	1
1740	-10396	13964	-303	-89	-1382	-8384	-120	-2520	-723	-472	-289	-24608	3256	-5240	446	-3500	-1366	-7792	872	14976	796	2070	629	-17712	-592	-3960	1406	776	420	-18224	-3736	-848	166	2057	-639	96	68	1
-1164	-7436	18680	-826	-499	-1469	-6080	-72	-2912	-586	-1259	-490	-24200	2464	-5904	499	-3283	-1172	-8104	976	14848	1069	2316	871	-16920	2096	-2576	1448	738	354	-16368	-1440	-912	585	2114	-619	112	85	1
-5156	-6012	23440	-1206	-1609	-1536	-6672	96	-5024	-464	-1805	-923	-21192	4008	-5656	192	-2942	-1080	-8056	1464	14600	1102	2343	932	-16440	2248	-1104	1179	655	301	-15640	360	-64	803	2107	-578	121	97	1
-5840	-4620	21116	-1367	-2867	-1490	-6248	-328	-2984	-262	-2408	-1312	-16136	4944	-7184	270	-2585	-1112	-8176	1328	14712	980	2016	580	-15952	1776	-392	1273	552	343	-15032	1000	224	1091	2043	-711	126	99	1
-5996	-3088	17100	-1805	-3558	-1647	-7336	3400	-1392	308	-2980	-1510	-14736	2680	-7896	-21	-2317	-1147	-8216	1568	14664	772	1550	87	-15512	3432	216	1461	488	353	-14160	2808	-424	1323	2104	-645	124	110	1
-7580	-3920	15476	-2106	-3899	-1974	-8472	4768	-2424	370	-3467	-1608	-12400	-120	-9376	-316	-2177	-940	-8216	1976	14480	-23	726	-570	-15168	5080	-152	1074	413	342	-14568	4064	-776	774	2173	-595	125	110	1
-10660	-3068	17444	-2121	-4206	-2323	-10072	3696	-2816	248	-3895	-1751	-10808	-1696	-9264	-34	-1784	-627	-8144	1400	14416	-337	39	-986	-15048	3320	-2064	598	365	271	-14112	3912	2104	45	2266	-651	124	103	1
-13940	-420	19672	-2329	-4534	-2586	-11144	3840	-3424	549	-4326	-1946	-7904	-368	-9352	916	-1768	-511	-7944	376	14488	-531	-574	-1001	-15920	1784	-2160	605	418	176	-13096	3784	5600	185	2629	-650	125	103	1
-16076	896	19760	-2678	-4738	-2804	-12600	4984	-4496	1174	-4724	-1995	-6216	1352	-9688	2017	-1714	-192	-7952	1592	14184	-632	-906	-1385	-16744	2936	-1296	884	518	193	-13664	5096	3528	1630	3113	-1002	128	114	1
-18628	952	19896	-2786	-4804	-2988	-13960	6472	-4840	1249	-5072	-1889	-5664	4480	-11832	2639	-1560	115	-7912	1184	14536	-404	-898	-1839	-16096	1056	-832	1056	628	242	-17184	2440	-136	1435	2827	-827	127	121	1
-20228	-928	21428	-2532	-4816	-3216	-16752	6656	-6288	1073	-5397	-1892	-5024	6560	-12696	2378	-1256	299	-7328	1784	14928	-156	-298	-2059	-16008	328	288	1033	794	231	-21152	2056	-2240	-723	1837	-70	128	123	1
-23108	-2352	27648	-2524	-4806	-3621	-20832	7064	-8768	972	-5746	-1819	-5152	5816	-11568	1310	-707	284	-7464	1208	14696	-96	539	-2023	-16504	2184	-984	354	936	219	-16360	3848	4128	-1415	1219	-410	127	118	1
-29112	-6552	31992	-2451	-4998	-4154	-25944	4304	-9808	1174	-6112	-1774	-5096	4280	-9744	390	-46	261	-6968	1528	14864	159	1583	-2006	-18424	2184	-1848	-246	945	219	-16352	4176	3608	-152	1643	-577	125	120	1
-32768	-5096	32096	-2152	-4976	-4746	-31064	3272	-12672	1761	-6464	-1651	-4832	2792	-8784	399	453	104	-7128	1128	14864	287	1806	-1996	-19928	1488	-2408	-399	1144	223	-17992	-2512	-1240	193	2004	-474	126	117	1
-32768	2176	32767	-2377	-4660	-5026	-32768	1296	-19408	1832	-6437	-1233	-8232	-3840	-6400	706	535	-111	-7440	1344	14504	842	5881	-3281	-21072	-1928	-736	-197	696	373	-20096	-992	48	-252	1674	-406	125	125	1
-32768	7656	23488	-2233	-4191	-4683	-32768	744	-22968	2049	-5960	-625	-21848	-6600	5616	1007	9	-638	-7984	640	14936	669	8472	-2924	-18176	-1896	-288	179	1382	173	-19768	3312	3896	94	1341	-413	131	136	1
-32768	20620	5876	-1606	-3115	-3613	-26472	4000	-32768	2107	-5091	-543	-27384	-7152	32767	2232	-2051	-1663	-9080	1032	14296	-17	11834	-3328	-21560	3440	-304	-57	1648	276	-19456	16	5432	436	1257	-99	142	136	1
-32768	32767	-17472	-3902	-2229	-1461	-7920	14656	-32768	-1275	-1941	-688	-21080	88	32767	2542	9	-1386	-9440	1672	14328	-1346	14298	-3817	-20864	-464	-1568	-673	1911	181	-17784	-944	1832	660	1318	-143	183	131	1
-32768	32767	-32768	-3231	-221	916	8616	3768	-32768	-5501	1269	19	-22680	21200	32767	-874	470	1913	-10192	-376	14384	-3124	17485	-2866	-19544	-1200	-2368	-429	2250	107	-19544	7472	-800	788	1149	-606	190	150	1
-32768	29428	-7136	2553	458	4272	-19128	-17200	-27528	-3525	3062	151	-14384	19008	-496	-2583	634	1621	-10016	2048	14624	-6265	21651	-2204	-24368	2888	1008	-186	2623	6	-22512	7536	520	809	639	-835	134	83	1
-13128	-32768	32767	2496	328	4087	-23968	-11152	27576	-1268	2885	1170	-4440	-8736	-6448	-5879	217	-219	-10544	2568	14912	-9968	27018	-4781	-24776	-64	3520	153	2700	145	-23768	2344	8760	482	-173	-808	131	0	1
11288	-32768	-28224	2596	2843	2646	-32768	3768	21848	3480	1723	-240	-7960	-25488	-1368	-3120	-94	-1076	-11480	4032	19744	-16244	32767	-7982	-29872	208	6768	1157	2872	109	-26816	3400	16328	602	-1367	-745	90	0	1
-29284	6004	32767	2701	5528	31	-21816	15088	-7928	3489	2601	309	-32768	-32768	8536	4840	-369	-2531	-14112	4200	17712	-20789	32767	-14299	-32768	-1184	17280	2467	3050	159	-25352	4536	19216	1340	-2732	-631	120	0	1
-10636	32767	32767	1394	3478	1811	-30384	11752	-11296	2886	3113	1334	-22848	10912	7384	5300	1557	-1140	-24768	4144	32767	-28713	32767	-23424	-30640	7240	6440	2835	3169	434	-24568	2808	20368	2509	-3333	-392	145	0	1
-9844	-32768	16584	1967	3067	1142	-16392	584	-9080	85	3102	1303	-17976	32767	-20000	338	1659	145	-28976	1264	32767	-18002	32767	-22473	-31024	9672	-256	2341	3359	445	-21616	7072	5360	2467	-2414	101	134	0	1
-22916	30308	32767	1944	1551	912	-5864	-12856	-17784	826	2749	-550	8	7312	-19136	-4509	-603	1012	-25408	4544	32767	-9683	32767	-18039	-32768	9104	1776	1109	3050	168	-25328	4136	-7440	1408	-1169	1001	114	0	1
-28624	-29032	9992	1643	430	419	-19408	8656	-16080	822	2132	57	-16952	-32768	-16264	-3416	338	459	-24304	2608	30680	-17020	32767	-24125	-27944	5184	5776	-212	2056	-172	-32312	-3296	-12696	230	-1314	1248	99	124	1
-11420	-2608	15332	1028	58	310	-23920	2808	-12576	-1146	1822	-122	-30048	-17720	-15784	946	2101	-1721	-32768	-1664	32767	-13680	32663	-32038	-18488	8736	-23712	-1337	1888	617	-31224	-3936	-9304	-148	-2265	1405	128	253	1
-7920	-2160	15020	551	-6	161	-17784	224	-6536	-1218	1426	-290	-25480	7352	-7624	1142	2031	-120	-28456	24112	32767	3858	-6917	-13312	-19296	2608	-10672	-543	1368	-358	-31600	-3752	-6032	-509	-2933	1497	155	253	1
-7512	-1888	14404	299	36	82	-18480	-72	-6640	-1104	1374	-163	-17336	5128	-2264	-350	1936	454	-7024	17872	22552	3230	-23728	1650	-20088	-7992	3664	760	626	-319	-31536	-3816	-5632	-631	-3014	1518	160	253	1
-7252	-2412	14068	144	137	-36	-16984	3112	-1992	-150	644	-310	-14568	1872	-424	-197	1820	601	1760	7864	8024	820	-21894	8247	-10152	-1960	1784	1253	-293	-552	-26368	-2984	-5992	-473	-2971	1927	130	253	1
-7180	-2856	14004	82	233	-126	-17816	312	-3416	784	546	94	-19296	2272	-360	-147	1978	1061	40	3432	12160	-320	-20304	8061	-7664	2408	-1112	1072	-1277	-235	-25752	-2880	-7160	-696	-3044	1883	113	253	1
-7748	-3136	13732	69	243	-149	-16520	136	-4088	880	482	-85	-13888	960	-160	-325	1936	758	-2960	80	17520	1034	-23304	5182	-7280	6176	-2504	714	-1906	-79	-19264	-4464	-4992	-196	-2447	1692	128	253	1
-7776	-3340	13720	74	199	-130	-15384	-288	-3600	467	484	-27	-15344	-864	-2064	-945	2013	432	-4944	-624	19160	7642	-27802	2948	-7600	4672	-2336	-532	-2592	-45	-17248	-3416	-5664	-374	-2370	1543	136	254	1
-7932	-3508	13600	82	138	-64	-14888	-728	-3104	-418	499	-70	-15240	-4512	-1544	-1348	2162	120	-7656	1936	18968	12598	-32631	2278	-7984	1136	-2488	-1030	-3238	-197	-14136	-2400	-6296	-432	-2257	1342	98	253	1
-8076	-3696	13548	87	72	22	-15240	-2584	-1896	-1154	615	-90	-14336	-5944	-440	-1075	2275	48	-9904	3832	17120	14567	-32768	3982	-8144	888	-2296	-1048	-3338	-197	-14520	-1424	-7376	-300	-2009	1286	138	253	1
-7792	-3280	13496	106	27	62	-15800	-3624	-1136	-765	604	-67	-14864	-4144	-256	-558	2176	46	-12656	4576	16904	15799	-32768	7607	-11960	224	-2480	-942	-4164	-129	-12000	-1056	-7824	-355	-1935	1214	133	253	1
-7760	-2764	13676	101	20	60	-15832	-2080	-1272	224	561	0	-14984	-808	712	93	2168	444	-15848	4144	19184	16294	-32768	11581	-11976	1504	-3720	-1197	-4558	-101	-7704	-2072	-8080	-676	-1996	934	128	253	1
-7424	-2056	14032	141	-8	36	-15688	784	-2040	894	569	60	-12544	936	1896	119	2343	605	-16120	3488	18040	17050	-32768	15614	-12992	1816	-2784	-1965	-4946	-275	-5608	-3904	-9912	-1174	-2054	719	123	243	1
-7424	-1896	14032	228	-83	34	-15904	1472	-2984	553	660	25	-13592	552	4896	-486	2877	398	-18976	1280	22440	18151	-32768	19913	-14392	1584	-5488	-3383	-5504	-509	-4672	-7616	-10248	-1784	-1909	471	120	229	1
-7596	-3204	13404	357	-168	117	-15584	-728	-3072	-114	697	-85	-14184	-1272	3376	-456	3223	199	-22992	-2608	28184	20489	-32768	23349	-16144	-968	-7752	-3334	-5692	-1048	-5104	-8408	-11312	-1814	-1463	254	129	213	1
-7436	-2368	13380	389	-156	220	-15336	-968	-1944	-344	732	-175	-17840	-1216	-8160	-305	2729	-56	-23360	-5184	27048	21758	-32768	24380	-22728	-1680	-6688	-2409	-5951	-1390	-4376	-7848	-12088	-1441	-984	-10	124	204	1
-7332	-2352	13592	339	-86	243	-15576	-576	-1432	-95	855	-94	-19776	-1832	-2952	301	1642	-148	-30280	-5200	32312	20202	-32768	24653	-27912	1280	-10944	-1815	-6179	-1436	-5120	-5768	-7032	-813	-344	-127	137	195	1
-7360	-2036	14036	287	18	229	-16816	-1376	-1496	313	983	6	-18152	-7912	5992	264	1342	53	-32768	-10952	32767	21213	-32768	26458	-31624	2952	-14344	-1268	-6061	-1886	-3952	1728	-5784	-353	580	44	141	192	1
-7268	-2520	14168	277	106	268	-17576	-1360	-976	381	1157	36	-17328	-5904	5208	-115	1231	86	-32768	-16792	31088	22364	-32768	25179	-32768	6216	-16168	-381	-5489	-2297	-4360	3192	-4840	-282	709	100	137	196	1
-7964	-2576	13912	290	176	381	-15672	-1608	-352	4	1465	56	-17104	-1976	4464	-324	1211	206	-32768	-15752	19440	11881	-32768	17493	-32768	10888	-19968	634	-4898	-2023	-25584	14064	23712	2	-1162	1224	129	182	1
-7528	-2828	13992	350	297	558	-17408	-3952	-1088	-165	1756	88	-18072	-1776	5792	-412	1065	-63	-32768	-29776	-9400	9776	-30571	-1697	-19936	16144	-31960	734	-3891	-849	-30776	2648	32767	-4273	-70	1911	131	180	1
-6284	-880	15236	410	537	770	-22536	-184	-1968	65	2050	195	-21296	-328	4304	-1050	842	-347	-32768	-32768	-32768	32767	-14099	-15915	-3264	4416	-32768	2744	-645	609	-8032	-8	32767	-1810	-1274	-118	131	171	1
-7448	-208	14524	400	858	776	-20280	4704	-2840	-80	2315	374	-18320	-1680	2944	-1287	622	-196	-32768	-10904	-32768	12060	7188	-14693	-9152	13064	-26776	3288	1575	720	-20480	-9664	22104	1980	214	-2802	137	159	1
-7556	-888	14664	576	1436	596	-21008	1136	-2384	-37	2587	508	-19856	-8160	1648	-1034	801	285	-32768	-10208	1680	-28910	16257	-17463	-21208	15192	-23192	1263	2399	1284	-8416	-7344	96	3665	1394	-57	113	159	1
-8932	-1700	14060	871	2279	618	-24960	-1704	-2136	247	2783	576	-21840	-8800	5160	-1077	405	310	1352	32767	31536	-20992	18250	-12869	-24328	-992	29400	-1086	2025	283	-10088	16360	5784	2333	1189	675	138	18	1
-9436	-3092	15280	1263	3278	1064	-27872	624	1128	-296	3024	466	-23936	-1688	8712	-554	183	345	-5528	2720	-2832	-20692	32767	1167	-28520	-6592	28296	-2274	1782	185	-13056	28032	-4520	-73	2142	879	123	0	1
-8852	-5072	18496	1591	4370	1632	-32768	1280	5288	-1147	3270	454	-28320	-560	13424	-488	-579	542	-32768	-32768	32767	-19141	32767	529	-31000	2288	-17328	-4939	2906	314	-32768	4096	24792	-6782	-675	593	119	0	1
-11176	-5152	18212	2070	5919	2439	-32768	1480	12920	-1984	3236	561	-31504	-1120	19376	-757	-2044	559	-16232	2152	24376	-8747	25840	-8555	-24872	-8224	-5760	-4514	2822	773	-20208	-32768	-14568	-4695	688	82	104	0	1
-22540	-2308	32767	3175	7987	3459	-32768	56	3128	-2781	3197	573	-26736	5000	16736	-1683	-4535	766	-32768	1600	16184	-10468	20828	-1286	-16536	12416	-12768	-980	2302	1510	-11744	-32768	-12432	3228	152	1217	104	0	1
-26708	-1408	32767	1832	8851	3301	-30616	-5040	-1136	-3654	3382	715	-22112	4200	-2792	-2052	-1678	603	-20480	560	24168	-3844	8762	-3669	-12808	4288	-12768	-180	2104	1233	-6480	17416	-17128	6076	1192	14	114	0	1
-26572	-11344	32767	1695	8694	3765	-31208	-8080	-4184	-3229	3245	997	-26728	-7568	-12280	-2165	-1709	-927	-7768	-7208	14400	-3418	3159	-3339	-17696	5184	-10152	2609	1770	1451	-23384	25232	-19200	863	2046	299	117	111	1
-10000	-20584	22932	-232	6229	3210	-25648	-3976	144	-951	2581	1038	-32768	-4496	-12800	-1724	-2430	-1363	-8656	1160	16544	-1299	280	-1613	-20280	6312	-5136	2267	1397	861	-28600	2408	-12000	-1399	1801	24	111	91	1
-32768	-30984	32767	770	3241	2053	-17816	2960	-16008	1242	1788	536	-29080	-2824	-14712	585	-2663	-1202	-7824	1312	15288	-468	256	-1336	-20096	6128	-3952	880	1136	225	-19032	592	-4520	-1386	1391	-544	116	79	1
-17700	-32516	32767	398	375	-170	-15640	-1256	-7672	-296	890	429	-30952	3320	-8328	1304	-3449	-1055	-7392	480	15472	68	1017	-736	-17936	832	-3960	-18	788	193	-16024	-3376	-1280	-962	1647	-520	122	117	1
-3760	-15576	24148	640	-1210	-1053	-14816	-1552	-1376	-245	-214	29	-25496	5200	-4040	1191	-3699	-915	-7000	280	15072	490	1754	34	-18000	216	-4328	-247	660	352	-17864	-7016	840	-58	1799	-721	76	91	1
744	-6364	16004	-311	-1564	-1230	-6872	408	-664	-549	-1111	-350	-23464	1792	-4032	842	-3469	-787	-7448	472	15464	861	2554	640	-18416	-408	-3704	121	657	333	-16592	-3048	520	572	1985	-615	108	116	1
-4028	-5624	19748	-1340	-2110	-1238	-4736	1016	-4192	-810	-1587	-504	-24224	-1536	-7232	1325	-2978	-708	-7984	1136	15136	1073	2721	908	-17112	1240	-2120	626	706	250	-15856	-200	-824	864	2071	-657	122	125	1
-7888	-7072	20624	-1629	-3339	-1294	-6800	-936	-4968	-1132	-2082	-960	-20216	3304	-8296	643	-2601	-702	-7864	1584	14840	858	2376	667	-15560	1216	-592	1168	762	329	-15320	1680	-664	1165	2087	-624	122	128	1
-8036	-4980	15844	-1687	-4203	-1412	-6784	-1224	-2216	-364	-2757	-1399	-16464	3160	-6144	455	-2465	-795	-7928	1984	14880	428	1962	-88	-15992	2440	296	1723	776	407	-15440	3496	-144	1349	2029	-549	123	119	1
-8696	-3884	14276	-1899	-4587	-1622	-7016	1296	-2168	96	-3334	-1575	-14320	2192	-8040	10	-2333	-693	-8088	2072	14672	34	1353	-844	-16008	3568	240	2152	777	425	-14720	6040	840	1130	2050	-522	121	120	1
-9576	-2536	14676	-2259	-4830	-1832	-8272	2976	-2584	-9	-3821	-1662	-11096	536	-8856	-156	-1988	-775	-8032	1504	14448	-243	666	-1065	-15328	5416	-192	1709	681	406	-13232	5856	1736	392	2033	-649	124	121	1
-11148	-1784	14004	-2622	-4910	-1987	-10416	2088	-1576	-168	-4245	-1807	-8472	-496	-10432	5	-1676	-688	-7936	1048	14960	-247	453	-1120	-15800	3824	-1048	670	569	280	-13864	4160	2184	-193	2058	-699	122	117	1
-14496	-3392	16488	-2669	-4949	-2138	-11360	1016	-3176	162	-4590	-2067	-6608	-816	-11136	731	-1522	-504	-7400	928	14664	-448	453	-1213	-16912	1584	-1656	145	574	181	-15144	2776	5728	-140	2532	-789	122	124	1
-18012	-3848	20600	-2742	-5133	-2499	-13048	2288	-4520	1012	-5044	-2220	-4840	1056	-11640	1530	-1268	-194	-8192	1000	14576	-262	471	-1611	-16552	328	-1576	359	682	198	-14424	1080	4080	1244	2807	-871	125	126	1
-17804	-2124	18020	-3109	-4961	-3031	-16232	5768	-3712	1597	-5545	-2032	-3680	2848	-12216	2001	-1010	46	-7944	1128	14672	-109	620	-1865	-15216	-32	-1272	1046	820	303	-15432	-1088	-2064	755	2318	-500	128	129	1
-22144	-3944	22620	-3090	-4466	-3426	-20960	7064	-7520	1172	-5817	-1882	-3456	4864	-12784	1707	-561	89	-7584	1088	14576	68	766	-2112	-15224	2352	-1744	1077	860	365	-17720	-1880	-880	-407	1522	-223	129	131	1
-29600	-7956	29508	-2612	-4419	-4047	-25424	4096	-10040	1223	-6060	-1964	-4496	5296	-10440	1005	-34	51	-8040	584	14760	-67	862	-2138	-17288	3488	-3056	176	765	262	-15696	4424	1120	-438	1710	-360	128	132	1
-32768	-6044	32720	-2102	-4437	-4992	-31936	3480	-13360	2264	-6285	-1734	-5200	2624	-6960	589	224	-95	-8136	688	14664	57	1371	-1764	-17312	1384	-3280	-207	1071	281	-15240	4464	-696	30	1956	-389	126	132	1
-32768	3300	32767	-1975	-4496	-5650	-32768	3824	-20112	2603	-6219	-963	-6024	-5144	-1872	555	-80	-290	-7768	1168	14784	157	1975	-1994	-16960	2000	-1392	-74	1215	261	-16272	1704	-1048	-289	1844	-370	128	140	1
-32768	11956	24848	-1319	-4594	-5373	-32768	520	-21392	2453	-5794	-236	-15624	-9920	5512	801	-715	-742	-7896	1224	14616	323	3039	-2917	-17656	3632	-1016	-2	1295	300	-17056	3200	2344	-314	1644	-352	128	149	1
-32768	17248	2728	-315	-3834	-3918	-27376	1736	-27888	2620	-4909	-247	-25968	-8640	25880	2617	-1455	-1672	-7240	368	14752	-515	4685	-3991	-21088	1248	-1496	-115	1474	335	-19696	2544	2464	103	1558	-203	147	149	1
-32768	32767	-13628	-2026	-2583	-1438	-16384	9072	-32768	616	-2980	-646	-20944	7688	32767	4541	520	-1258	-7584	8	14584	-688	8379	-4673	-21560	-808	-1432	-186	1751	270	-20184	608	3408	434	1431	-132	171	146	1
-32768	32767	-31972	-4577	-626	214	1480	10056	-32768	-3199	-106	-470	-21664	14016	32767	1609	-149	1859	-7632	-48	15032	-1020	13047	-4622	-21752	-336	-2088	-338	2002	280	-20576	1816	2528	646	1352	-377	181	147	1
-32768	30692	-25600	1466	444	2094	-6248	-9080	-29272	-3650	2218	225	-19960	19448	15464	276	187	2502	-9808	240	14576	-2347	18264	-4000	-23608	2136	-992	-538	2317	177	-22384	6552	744	701	1113	-563	150	134	1
-2216	9496	11828	2170	2106	4013	-25872	-15608	-1720	-1676	3094	582	-16384	1328	6232	-3721	-545	238	-9712	1448	15144	-6179	23278	-4728	-25464	1576	152	-432	2427	256	-23408	6008	3024	702	653	-704	109	107	1
13752	-32768	22208	3124	2104	3810	-32768	-6712	32767	1355	1737	24	-22616	-7280	32767	-2695	-3751	-813	-9920	2096	15984	-7016	24031	-5051	-28624	496	3096	205	2559	264	-25728	4840	6008	495	163	-688	136	15	1
-31144	-27932	12976	3254	5124	443	-30008	8680	-6472	3421	2993	539	-13608	-7744	-9624	-1544	2185	-446	-11136	2392	15848	-19514	32767	-9740	-31920	1312	7816	771	2681	307	-29520	5928	13088	466	-994	-696	102	0	1
-18780	32767	32767	1919	3904	499	-27456	8832	-12480	3132	3094	726	-25856	-7992	-5448	2750	426	-2824	-14400	1664	18904	-26798	32767	-14671	-32768	-2696	15024	1662	2717	283	-27432	2904	17368	807	-2881	-605	104	0	1
-7632	-1180	13952	-138	3252	1845	-15504	20520	-11368	977	2614	512	-14624	25064	-19848	-421	1687	-1501	-25632	-3136	32767	-31445	32767	-20962	-28792	3944	2192	2829	2956	658	-23888	-6512	22560	2070	-4040	-355	136	0	1
-32768	7576	32576	840	1420	438	-11368	-14040	-21288	-3080	2940	210	-15576	28000	-16832	-1043	1646	-1148	-27224	-1784	32767	-15755	32767	-18371	-30584	8280	-824	3626	3131	809	-21160	-2800	2048	2730	-2175	18	111	0	1
-16480	-12728	15896	555	600	138	-27152	1352	-11144	1063	1918	-727	-24632	-30112	-18664	-2287	776	810	-27448	5872	32767	-15616	32767	-14083	-32096	8528	5032	1524	2400	502	-28704	2744	-9920	2896	-772	813	120	0	1
-8164	-1800	16064	467	129	86	-18160	10168	-11776	-584	1564	224	-19264	-5568	-11176	919	1973	-515	-24176	1816	28232	-14215	32767	-17773	-24704	5488	1600	-962	1995	440	-31952	1032	-14160	1741	-1248	1365	120	254	1
-7824	-3964	14372	334	-12	18	-15048	-6064	-3848	-608	1261	1	-19760	-2488	-5624	412	1926	-188	-28760	10448	32767	-622	19317	-22536	-16000	7672	-20880	-521	1831	437	-26872	-1408	-6344	-82	-2378	1310	141	253	1
-7916	-4132	13600	271	3	54	-19512	3000	-4304	284	919	-23	-15696	-3864	-496	179	1892	324	-15600	21016	32767	3357	-11878	-10075	-20856	-2616	-1072	1091	953	-151	-25712	-4808	-3568	-943	-2957	1449	146	253	1
-7232	-3696	13460	221	89	23	-17336	2240	-3848	-519	825	139	-16000	584	-816	154	2098	546	-1024	11656	14424	4341	-17232	483	-16752	-6616	3312	1450	341	-77	-23880	-3672	-5344	-422	-2832	1712	134	253	1
-6908	-3600	13376	250	193	9	-17352	-984	-2448	23	622	111	-17632	1168	-1048	78	2101	587	-1400	7592	14360	6071	-16265	5014	-9688	376	272	1782	-380	-122	-21728	-2312	-3984	-246	-2833	1784	128	253	1
-7324	-3648	13516	350	247	30	-16712	320	-2800	820	488	73	-15880	760	288	35	2036	586	-3032	4160	18104	5908	-18850	5942	-8936	3832	-984	1441	-1122	69	-22224	-1424	-2056	-887	-3091	1509	124	253	1
-7736	-3584	13720	381	227	7	-15712	952	-2528	873	525	180	-14840	704	936	36	2123	397	-3600	1808	18784	8502	-22983	5997	-10368	6688	-488	164	-1706	173	-19448	-2992	-4304	-221	-2566	1441	135	253	1
-7512	-2976	13668	307	196	-22	-15280	1960	-2488	334	614	109	-14696	2304	1056	-234	2138	204	-4328	2064	18488	10517	-26980	5685	-9920	2200	-568	-1054	-2389	48	-20072	-2768	-4384	-237	-2656	1469	115	253	1
-7884	-3324	13768	210	154	-24	-15320	240	-1328	-371	715	84	-14816	1480	976	-617	2069	220	-5560	1872	17720	11587	-30433	5937	-10336	1000	-784	-1437	-2934	-44	-15024	560	-6096	-207	-2525	1397	93	253	1
-7884	-3316	13720	151	127	-1	-15920	-1064	-952	-520	776	-8	-14632	-8	856	-656	2091	189	-7584	2040	18104	13035	-32768	7233	-11320	-208	-2392	-1592	-3464	-40	-15096	-560	-7088	-281	-2396	1360	131	253	1
-7600	-3104	13688	140	108	27	-15504	-648	-448	-278	782	-37	-14520	-344	832	-636	2117	127	-9256	1624	18216	14156	-32768	9514	-11568	-456	-2624	-1667	-3939	-136	-13832	-1808	-7544	-431	-2328	1226	129	253	1
-7672	-2804	13724	156	88	51	-15680	-1000	-1192	-75	798	-31	-14048	-2008	1416	-750	2261	391	-11368	-280	19824	16602	-32768	12081	-11664	-368	-3840	-2106	-4432	-280	-10080	-2840	-8320	-818	-2173	929	141	253	1
-7308	-3104	13620	299	30	134	-16176	-2104	-1424	209	862	-33	-13120	-4096	2824	-845	2748	421	-14112	-1520	22288	18085	-32768	14238	-11896	-808	-5064	-2457	-4858	-611	-6448	-4944	-9768	-1199	-2005	588	130	253	1
-7412	-3728	13436	377	-7	264	-15976	-1344	-2680	158	834	-34	-14320	-7144	4040	-664	3274	399	-15712	-4888	23936	19884	-32768	15596	-13640	-1808	-5768	-2452	-5306	-935	-5712	-6656	-11184	-1337	-1705	341	127	243	1
-7928	-3036	13368	348	5	346	-16400	-560	-2384	14	911	-51	-16872	-5024	-4408	-653	3119	275	-16704	-7376	23688	23907	-32768	16104	-17376	-1664	-5992	-2045	-5671	-1263	-5408	-6296	-12768	-1217	-1264	116	131	233	1
-8024	-2336	13600	317	40	356	-15904	712	-1304	248	977	-21	-18896	-48	-6112	550	1927	127	-21504	-7056	28896	24834	-32768	15129	-22880	-248	-7992	-1307	-5936	-1415	-5608	-7032	-12216	-782	-683	18	132	219	1
-7464	-2552	13492	291	94	337	-15024	32	-1304	527	1123	12	-16456	352	3728	1121	1445	229	-29224	-5120	32767	21334	-32768	14176	-28480	2968	-11808	-607	-6139	-1409	-4928	-5600	-10040	-436	12	-16	145	215	1
-8000	-2252	13948	272	201	317	-17760	-336	-3048	823	1264	49	-16448	-40	4648	1145	1432	247	-32768	-7184	32767	19934	-32768	16970	-32744	5432	-14224	-785	-6162	-1789	-4968	-120	-5720	-226	209	10	141	212	1
-7932	-2356	13940	301	291	358	-17552	-592	-2344	437	1455	103	-17632	-160	1640	-214	1241	118	-32768	-11936	30112	16818	-32768	19107	-32768	8408	-15032	-1035	-5729	-2192	-11112	7408	-1760	108	-14	370	140	201	1
-8048	-3700	13956	406	455	570	-18408	-2472	-1456	-101	1677	97	-19624	-4264	184	-472	1325	56	-32768	-9720	12928	6911	-32768	15265	-32768	9640	-23184	-914	-5085	-2015	-26192	13520	17608	-1490	-767	1489	134	177	1
-8700	-2224	14060	455	665	701	-21272	-8	-1968	-289	1952	200	-20024	-4552	3288	-593	1121	-235	-32768	-27552	-11680	8613	-27634	5504	-23888	9496	-32768	-572	-4042	-1104	-25816	9104	32767	-6508	-38	2419	133	153	1
-8220	-1612	14164	507	972	800	-20000	1144	-1976	-171	2179	331	-18976	1744	4304	-958	910	-201	-32768	-32768	-32768	32767	-9646	-2730	-936	9312	-32768	1768	-863	375	-8800	-3920	32767	-2722	-1360	-203	135	171	1
-8256	-580	14356	719	1477	747	-19112	4208	-2784	172	2396	400	-16968	1152	4184	-964	766	96	-32768	-30000	-32768	4732	7315	-1262	-5432	13024	-29672	2117	1810	731	-20096	-18144	21496	1076	935	-2717	136	128	1
-9876	32	14144	1039	2089	528	-20336	248	-2512	291	2644	610	-19632	-8680	1360	-1191	882	353	-32768	-30600	-6624	-23789	23552	-13991	-20936	18624	-6416	1064	2482	1028	-5464	-10368	2592	4053	1192	130	134	0	1
-9208	-3080	14224	1398	2871	780	-27112	-3536	800	416	2801	624	-23896	-9592	4512	-1266	179	331	19496	27816	32767	-16666	28219	-16975	-30616	-9592	27216	-3054	1735	248	80	11176	11464	5227	1525	123	120	41	1
-10144	-4716	16852	1577	3772	1520	-31448	-336	3536	-404	2954	371	-28216	-2296	11024	-233	-524	381	-16328	7136	10208	-20616	32767	-2501	-32768	-8824	-6856	-4024	2543	1568	-32768	32767	4040	1271	713	566	127	0	1
-10652	-3680	14736	1592	3961	1650	-32768	280	10760	-2087	3077	392	-29128	-3048	22864	-30	-2244	430	-32768	-25848	32767	-13648	32767	432	-32768	7816	-16328	-1896	3451	780	-29576	-1016	9520	-6025	-78	-290	111	0	1
-17404	-8028	31412	3050	7043	3722	-32768	-3712	9248	-2791	3054	642	-22600	2776	11688	-1278	-3597	289	-12264	1264	21816	-7358	24258	-2667	-20592	-4296	-11840	-2789	2790	1390	-18400	-32768	-21864	-862	502	1580	95	0	1
-30664	-1768	32767	3098	8366	4078	-30504	-5056	-360	-3211	3124	483	-29864	3720	12056	-1208	-2601	1040	-26568	-6360	30408	-5377	13198	-1807	-10848	10304	-15720	309	2374	1394	-424	-6528	-15032	5301	914	2155	103	0	1
-21640	-3620	32767	1848	9070	3856	-32056	-4008	-1760	-3023	3349	1041	-22448	-8184	-11696	-2128	-1405	-503	-16984	-1168	22296	-732	4968	-1674	-19160	12400	-12392	585	1737	1148	-25312	32767	-23456	3139	1422	-631	112	49	1
-26340	-14040	32767	-137	5853	3820	-26864	-3568	-5808	-1863	3163	1069	-32592	-2288	-13960	-1600	-2150	-1303	-11208	2088	17936	-8	2713	-970	-22768	4984	-8656	1264	1508	1060	-23240	3336	-14280	-2434	2328	-248	111	148	1
-32768	-32768	32767	1142	1722	2079	-18144	280	-19984	636	2250	395	-30536	-1344	-13696	330	-2616	-1231	-7928	544	16416	126	1193	-404	-17312	8272	-4888	72	1158	293	-24168	-2512	-7960	-1829	1689	-424	120	114	1
-15172	-30580	32767	382	-937	-538	-20344	1008	-4384	-209	1032	499	-32768	600	-8224	988	-3174	-1178	-6424	632	15896	622	1949	-58	-18440	-88	-3040	-696	760	213	-16000	-80	-2208	-1236	1650	-435	122	119	1
696	-13148	15008	119	-1398	-1343	-16096	-1616	1776	-266	-42	265	-32496	1000	-8056	1028	-3289	-1173	-6344	992	14320	834	2966	171	-18368	-3008	-3640	354	548	403	-16248	-4584	648	-687	1787	-671	123	134	1
2964	-7268	13064	-611	-1189	-1360	-7432	-792	-2448	-573	-1021	-386	-26032	1496	-5432	388	-3524	-1219	-6624	-88	15088	1301	3796	757	-18488	-584	-4104	1143	544	567	-17328	-6200	96	187	1987	-589	98	139	1
-2092	-5804	18624	-920	-1716	-1148	-5064	-1832	-3424	-474	-1626	-424	-24232	-2488	-9648	637	-3623	-751	-7264	824	15512	1154	4014	992	-17920	2008	-2672	1529	581	510	-17208	-1752	-568	1057	2250	-513	125	143	1
-6420	-5356	22300	-1110	-2897	-995	-7504	-2464	-4152	-366	-2204	-914	-18856	1568	-6800	844	-2903	-1035	-8208	1840	15216	1130	3730	816	-16176	3512	-1352	1503	632	305	-15584	1464	-608	1533	2200	-515	117	149	1
-8596	-4916	21524	-1807	-3994	-1084	-7824	416	-2832	97	-2852	-1223	-15368	6064	-7904	1016	-2498	-1125	-8040	1968	15232	1110	3603	789	-16112	2808	-328	1626	823	305	-14568	3344	-192	1594	2161	-547	122	152	1
-8216	-6060	15092	-2428	-4520	-1384	-8296	1616	-528	219	-3395	-1338	-13408	2928	-7856	329	-2599	-1133	-7880	1552	16000	665	2213	42	-16112	2600	-48	1671	853	322	-14608	3896	984	1284	2126	-583	123	152	1
-9096	-8144	11940	-2431	-4570	-1780	-10008	1832	-1384	312	-3873	-1584	-11664	816	-8640	-166	-2274	-935	-7712	1776	14936	112	1609	-612	-14880	3048	856	1887	894	392	-13104	4016	1480	685	2051	-692	123	152	1
-12132	-7708	14984	-2447	-4538	-2305	-10736	2104	-2608	301	-4328	-1841	-8528	-128	-9320	204	-1846	-760	-7552	1264	14592	-111	1208	-993	-15808	2696	-224	1472	738	360	-13088	3848	1880	518	2043	-728	127	139	1
-16204	-6584	20492	-2813	-4712	-2942	-11560	2632	-3800	600	-4712	-1990	-6000	-640	-9496	843	-1492	-480	-7392	1408	14768	-402	1453	-1331	-16736	2640	-32	1204	713	285	-14320	3184	6976	304	2417	-685	125	123	1
-18380	-4612	21760	-2896	-4952	-3475	-14560	2360	-3176	1016	-5101	-2102	-4608	872	-10344	1708	-1244	-141	-7128	1352	14408	-945	1284	-1939	-16456	3144	-960	771	705	282	-13648	3704	5000	1313	3019	-810	125	126	1
-19408	-1320	22764	-2880	-4946	-3793	-18264	3080	-5000	1604	-5589	-2104	-3896	2872	-11776	2319	-949	135	-8288	1072	14776	-636	972	-2641	-15920	1424	-2016	506	760	292	-16760	1848	-2576	1023	2730	-625	122	128	1
-23568	-2312	26528	-2754	-4867	-3992	-22544	4704	-7168	1865	-5945	-1934	-4328	4984	-12392	2107	-556	181	-7360	952	14632	-287	1143	-2763	-15688	-376	-2640	639	839	283	-19112	-1600	-4072	-361	1563	-357	126	129	1
-29340	-5084	29204	-2323	-4809	-4395	-26648	4184	-9400	2162	-6206	-1712	-5144	4504	-9936	1464	-99	43	-7904	192	14624	-55	1527	-2622	-17848	1920	-3944	396	762	298	-16992	2304	-880	-815	1629	-513	127	136	1
-32768	-1528	31568	-2069	-4566	-4958	-30616	5272	-13968	2486	-6334	-1280	-5448	2392	-6344	1259	63	-227	-8504	744	14496	-426	1614	-2645	-17832	2912	-3016	99	1039	360	-15152	4544	520	47	1885	-688	127	133	1
-32768	7700	32767	-2073	-4413	-5034	-32768	2872	-18984	1984	-6204	-901	-7192	-3496	-472	1083	-631	-456	-8120	864	14760	-409	2175	-3067	-17056	3536	-560	-40	1159	292	-16488	2288	1328	-151	1840	-507	133	140	1
-32768	15572	25724	-1936	-4161	-4310	-32768	1896	-21464	1727	-5714	-385	-16072	-6488	5584	925	-921	-856	-7976	2192	14712	-487	3432	-4282	-18032	4032	376	-165	1350	279	-18712	3576	4952	-227	1601	-268	137	149	1
-32768	18588	6556	-1104	-3432	-3010	-24352	2600	-28000	1930	-4799	-307	-25064	-3272	29096	1606	-1063	-1083	-8184	1776	14760	-916	6190	-5361	-22216	1232	-688	-109	1663	255	-21104	1840	4448	439	1556	-26	145	152	1
-32768	32767	-4060	-1903	-2559	-860	-16832	8328	-32768	-301	-3030	-608	-19392	7760	32767	3052	298	-418	-7944	440	14808	-802	10195	-6188	-20600	-1384	-1832	32	1919	312	-19136	-936	3640	948	1392	-94	177	155	1
-32768	32767	-26672	-3930	-1251	844	-2936	8224	-32768	-3382	-297	-410	-17576	11336	32767	1553	-534	1669	-8016	-760	15000	-1295	14751	-5627	-22144	-448	-2616	-53	2201	239	-20112	3992	1008	1027	1289	-393	182	158	1
-32768	32767	-25176	332	95	2660	-4440	-3056	-29816	-3507	1939	107	-25384	17720	13576	-1192	-148	2001	-9944	40	14472	-3399	20751	-4246	-23016	1096	-1616	-317	2455	127	-21656	6864	1256	846	961	-555	156	166	1
-32768	20504	5224	1667	493	3588	-16208	-1808	-26704	-1412	3385	548	-8832	5312	11544	-4447	-607	428	-9904	1160	14400	-6224	26478	-4201	-24888	-1040	80	-246	2585	178	-22160	2760	5264	789	480	-704	147	125	1
5852	-32768	18560	2536	1239	3374	-32768	-10376	32767	-2368	2444	509	10312	1432	-17072	-3064	1199	-114	-10984	3136	17896	-11437	32488	-6254	-27992	-2096	4192	677	2758	223	-24576	2200	9480	752	-64	-840	144	0	1
-9520	-21284	-13484	1992	5024	1444	-32768	3336	-4928	2429	2458	11	10008	-4896	-24944	-3345	1886	98	-11760	2904	17520	-18537	32767	-9914	-32768	232	9032	1347	2895	308	-30272	4432	18048	821	-1359	-810	98	0	1
-16684	-17408	-2820	2221	5447	1204	-29024	13232	-17160	3158	2900	566	-32768	-24696	14896	3003	-446	-3597	-17048	2696	22776	-24950	32767	-15468	-32768	-1064	15864	2583	3114	187	-26400	4776	21048	1605	-2834	-431	80	0	1
-11944	-28368	32767	1510	3029	1546	-21000	8176	-10384	1002	2970	1389	-20296	24360	-13096	974	2003	-936	-32768	4552	32767	-19687	32767	-18655	-30280	10904	1688	2861	3236	703	-24232	3384	12912	2852	-3390	-216	103	0	1
-20472	15180	32767	1554	1396	558	-12016	-8248	-15784	248	2824	-91	-6464	10624	-17960	-2465	215	472	-30416	2760	31264	-17819	32767	-19247	-32768	10904	1120	2318	3344	607	-25144	7192	-1976	2121	-1679	251	140	0	1
-23600	-21656	10272	1341	242	364	-15120	1688	-14256	216	2166	115	-14624	-20496	-16920	-2584	163	1028	-24672	2840	32767	-10422	32767	-21270	-32632	6216	9032	325	2225	-68	-32008	-1664	-13528	564	-1192	1000	116	0	1
-11012	-3708	15088	927	-12	271	-32768	-1000	-12632	-644	1718	98	-23728	-15280	-15456	528	1856	-535	-32768	-5032	32767	-18836	32767	-32050	-22160	11512	-21912	-1333	2224	650	-32576	-4872	-9888	-277	-2450	1352	122	254	1
-7688	-3084	14472	531	4	115	-20128	656	-6552	-1247	1359	-88	-23472	3296	-8024	1295	2071	-507	-30176	19176	32767	586	-5792	-18126	-19616	5936	-11896	-1118	1588	-295	-31112	-5136	-9144	-399	-2612	1363	130	253	1
-6936	-2984	14308	333	123	76	-17256	360	-4040	-639	949	-20	-20352	6416	-1808	-279	1847	352	-3200	18568	20168	4059	-21103	-4181	-25160	-10960	5176	-24	880	-376	-28480	-3648	-6896	-571	-3123	1588	149	253	1
-6976	-2988	13796	207	296	-4	-16352	2448	-3040	-215	645	-81	-15904	1120	-744	-901	1986	476	3096	12272	6808	1142	-17015	3749	-11656	-4864	1520	1114	103	-535	-26040	-3744	-6520	-412	-3140	1872	141	253	1
