#Activity	walking 
#ActivityID	1 
#Date 10-06-18-15
acc_rf_x	acc_rf_y	acc_rf_z	gyro_rf_x	gyro_rf_y	gyro_rf_z	acc_rs_x	acc_rs_y	acc_rs_z	gyro_rs_x	gyro_rs_y	gyro_rs_z	acc_rt_x	acc_rt_y	acc_rt_z	gyro_rt_x	gyro_rt_y	gyro_rt_z	acc_lf_x	acc_lf_y	acc_lf_z	gyro_lf_x	gyro_lf_y	gyro_lf_z	acc_ls_x	acc_ls_y	acc_ls_z	gyro_ls_x	gyro_ls_y	gyro_ls_z	acc_lt_x	acc_lt_y	acc_lt_z	gyro_lt_x	gyro_lt_y	gyro_lt_z	EMG_r	EMG_l	act
-9520	-5368	11388	4809	-214	4714	-16088	2564	-1460	10587	4858	267	-15100	-3016	-564	9111	13964	-80	-2388	6468	9864	8840	-31721	7126	-5748	1632	-724	10308	-18913	-1437	-15744	2752	-8712	5703	-17291	1224	123	119	1
-10156	-4540	11716	3890	-527	4080	-15948	4764	-2424	9721	4532	279	-16672	604	464	8444	15001	-2235	-5188	4464	9240	11762	-32647	9256	-6300	1076	-2084	7359	-25855	-2706	-13144	4300	-9716	-679	-16548	999	125	120	1
-9708	-4272	11796	2586	0	2722	-15116	6268	-1728	785	7718	881	-16264	2848	2684	2900	14800	-2604	-9348	4184	9128	15140	-32768	12933	-7868	-312	-3184	8493	-31390	-3568	-11644	4392	-9508	-4778	-16181	572	128	125	1
-9892	-4100	11900	1762	453	2431	-16092	3740	-984	-3976	10114	-413	-15524	1924	3092	-4175	14872	-2703	-16240	4396	10200	16757	-32768	17426	-9572	252	-5644	10795	-32768	-3075	-9028	4332	-9892	-8437	-14371	81	134	125	1
-10356	-3732	11960	1488	548	2190	-16228	2032	-1492	434	9608	9	-14608	124	2044	-8188	17271	-1250	-16196	1632	11264	18336	-32768	22313	-11792	-532	-5556	10740	-32768	-3992	-8296	4720	-10420	-13777	-12264	-300	135	128	1
-10356	-3788	11908	1238	520	1845	-15996	3628	-1812	2781	9004	584	-15188	-1676	916	-6447	20687	-1832	-15112	552	11828	22902	-32768	26232	-14512	-2060	-3848	9276	-32768	-3897	-7348	5644	-11520	-20420	-11263	-1164	131	122	1
-10152	-3828	11912	1244	445	1812	-16448	3112	-2544	510	9029	720	-15712	-2812	1336	1034	21479	-3577	-16028	120	13052	27664	-32768	26970	-19760	-3524	-8848	5450	-32768	-2436	-7028	3444	-12044	-21136	-10511	-1383	129	123	1
-10460	-4052	12052	727	1587	2103	-16696	3100	-3732	-1060	9074	523	-15508	-3644	-1528	4556	19420	-5120	-28912	620	17024	27558	-26927	26152	-22052	-1176	-13296	8007	-32768	-5546	-7928	-1020	-7928	-14317	-9921	-2330	129	125	1
-10696	-3776	11996	172	2307	2075	-16448	3564	-4076	-454	8479	677	-16056	-2076	-3816	853	16640	-3373	-32768	-968	20464	23105	-30670	25297	-30196	-7912	-16188	11782	-32768	-3594	-9936	-6140	-1932	-10446	-12943	-2998	136	123	1
-10772	-5052	11388	341	3013	2475	-16408	1888	-2472	-755	9292	561	-16652	-4036	-972	-3004	13474	-1911	-32768	-9124	15460	21534	-31980	32310	-27792	-1860	-19960	18608	-32768	-3651	-9660	-1500	7092	4467	-9605	306	126	126	1
-10864	-4224	12228	603	3676	3667	-16708	1208	-1464	217	10250	1318	-18184	-2984	4640	-1726	11821	-3489	-32768	-7868	5392	12358	-32768	32767	-25244	6064	-21120	10648	-32768	-3502	-14728	536	8572	10933	-433	6077	129	124	1
-9952	-4384	13884	823	5993	4152	-17856	1944	584	1700	11937	2645	-18708	-980	7444	-4054	9983	-3779	-32768	-17016	-8460	5821	-32768	31501	-23576	-1656	-20180	2811	-32143	-1937	-15068	-4632	13828	-322	2108	4850	127	122	1
-11092	-4704	13964	1119	9058	5362	-18700	2716	44	3333	14330	3518	-20428	-1016	6836	-7344	7542	-2573	-32768	-22964	-21536	5473	-18627	26712	-14088	2984	-23844	-698	-19242	3056	-17808	-6036	21684	-7078	53	3492	130	122	1
-11120	-5112	14708	2184	12989	7352	-19544	3172	-12	5434	16526	4125	-20600	-4640	6084	-7433	5679	-2161	-32768	-32768	-24912	6188	-2293	18160	-8768	3040	-23928	-4088	-3814	4175	-14784	-9468	26544	-5831	-1417	2094	127	120	1
-10968	-5356	15204	3532	17743	9729	-20588	3412	-2332	7608	18211	4718	-19932	-6156	3332	-6262	3425	-1376	-32768	-25864	-18692	-2617	7833	8606	-8720	4704	-22556	-9882	11511	3383	-14600	-644	18812	-2706	-2651	3246	121	128	1
-8512	-4608	15900	4662	22273	11399	-21908	5200	-2216	7383	19025	4721	-20340	-5244	3392	-7300	1706	334	24296	-1720	32767	-12727	11293	-16675	-30724	-12192	32720	-16043	8871	-1663	-15360	952	-2020	-4632	8572	5998	120	127	1
-9284	-4232	16780	5091	29480	16107	-24584	5784	68	5500	20929	4797	-23564	-3960	7840	-9252	-4430	1496	-5416	-8064	6776	-20496	13668	-24615	-14344	-11548	-6740	-27111	856	8565	-25044	-7940	11476	-12642	8483	2121	125	123	1
-6396	-2132	17396	5849	32767	21109	-29008	10440	4348	965	22277	5606	-22292	724	22460	-4435	-25113	791	-18704	-17568	22756	-3384	30783	-142	-16848	-23876	-2804	-15001	14038	-2816	-10512	-11300	11148	-24991	13976	-5037	124	125	1
-7680	-8632	18032	9160	32767	20328	-28092	13160	14268	-12156	26950	4995	-21944	16532	8592	-14088	-13165	6068	-22748	-10204	18800	1873	21787	-12617	-26088	-8032	-4560	-5501	18111	6378	-20508	-27208	-2196	-7864	6767	-1561	118	127	1
-32768	-6500	10400	2692	32767	20637	-24496	4560	-5336	-18948	32248	1808	-23024	11652	5336	-32768	-17654	9082	-28744	-3724	15800	3148	20104	-10813	-19228	2128	-4320	-6266	16874	8378	-15712	9348	-10032	20149	12473	726	117	122	1
-32768	-5768	5696	896	32767	27720	-29740	-2292	-10672	-10271	31497	4186	-24544	-5620	-16372	-32768	-19092	7958	-13308	4100	10068	-8504	5429	-8617	-18724	12420	-6524	-10838	12934	7017	-15124	27308	-9568	6685	9824	7131	125	135	1
-32100	-11160	20272	-3767	32767	26715	-26076	3088	-4672	-12202	23039	3879	-26820	-17708	-16420	-21198	-21919	-2593	-14920	6540	10736	-8146	2315	-8124	-18164	2324	-5184	-13841	8668	3802	-19320	8532	-6440	-12443	8240	8154	116	145	1
-27672	-14596	24204	-14380	28544	17757	-18356	-2952	-9932	-3051	19502	4725	-26792	-13764	-10116	3817	-23631	-5322	-16204	-220	13340	-7175	619	-7253	-16748	-3828	-4892	-6815	8617	2901	-17080	1128	-2836	-11550	7392	6546	132	151	1
-32768	-20600	29948	-13591	-10558	4753	-9892	-2284	-16512	-2695	6566	1858	-25428	-4588	-4760	12409	-24191	-4771	-12548	1764	12968	-3310	15	-4585	-18040	-3540	-3384	2798	9830	3128	-16648	-1236	-2440	-5392	9921	4818	131	133	1
-5248	-18680	19380	-10780	-32768	-8240	-13236	-360	5468	-10089	-1551	-903	-24204	-2256	-4656	8054	-22019	-6044	-11956	2716	12540	-2165	-457	-4166	-17964	-2988	-3108	3662	9907	3235	-15776	116	-1108	-3221	10365	5233	125	123	1
6088	-12336	9536	-7035	-32768	-9764	-9632	748	5168	-4704	-12231	-6692	-20128	-1620	-5748	6576	-20522	-7042	-11268	2828	12264	-1477	-466	-3216	-17440	-1008	-1844	-885	7188	2090	-16132	144	-644	-3645	11066	4482	118	126	1
672	-7868	8420	-4565	-30871	-13558	-6192	1592	752	2249	-20289	-8027	-16600	224	-6188	7570	-18990	-6150	-10724	2664	11992	-1626	-180	-2300	-16480	-2268	-1736	-6035	5072	1704	-15308	-1356	-1120	-5760	10589	4153	128	134	1
-4124	-5956	9768	-5606	-29882	-20933	-6440	4440	-2500	4016	-27774	-8330	-13692	-128	-6592	9691	-16507	-5036	-10488	3044	11960	-1615	-47	-2052	-15456	-4700	-1196	-4227	5072	2353	-15168	-3384	-884	-6031	10585	4649	128	131	1
-9572	-4516	12620	-7095	-31813	-27927	-9568	6040	-4912	-2672	-32579	-8442	-12312	-2960	-6668	11793	-14749	-3716	-10836	2132	12084	-1486	418	-1638	-15052	-4452	-788	1147	6299	3110	-14708	-5628	1488	-2229	10352	5465	119	130	1
-15672	-3736	12916	-7224	-32768	-31092	-12480	3856	-4728	-5067	-32768	-10025	-11544	-4956	-7752	16267	-13535	-3405	-9792	4376	12172	-1424	952	-1596	-16192	-2836	808	6638	8025	3987	-14648	-2464	2576	5585	10597	5187	122	131	1
-15796	-2012	12948	-6448	-32768	-29317	-13508	4300	-3860	-1642	-32768	-11255	-10900	-1344	-7912	21682	-13354	-3247	-10760	4004	11628	-2331	919	-2621	-16796	84	-200	7306	8642	4209	-15644	1936	1244	9724	12494	5956	128	132	1
-15740	-1632	13160	-7113	-32768	-25554	-15300	6356	-4896	552	-32768	-11428	-8300	2304	-9076	19555	-12424	-3220	-11540	2712	12448	-3284	597	-2875	-16664	-1076	-1780	3410	8148	3339	-16228	1224	-748	6972	14385	7051	123	130	1
-17652	-4356	15316	-6289	-32768	-24017	-18180	8844	-6680	-1584	-32768	-10747	-7284	1756	-7824	12455	-9383	-2528	-11368	1496	12480	-2148	907	-1907	-17004	-2972	-2172	1034	8342	2933	-15316	-584	-480	5571	14814	6579	121	130	1
-24900	-5188	19608	-5071	-32768	-24963	-21816	9388	-9504	-4014	-32768	-9952	-6748	1944	-5868	5695	-5888	-2120	-11776	1840	12408	-1922	1276	-1699	-16780	-1424	-2456	1162	8854	3211	-15956	-1648	604	4304	17332	6595	123	132	1
-32768	-4532	22808	-7660	-32768	-27778	-24348	9832	-12480	-9972	-32768	-9741	-6680	2196	-5836	4655	-5157	-2044	-11908	1872	12472	-1398	1404	-1579	-17148	-1680	-2220	3104	9862	3370	-16228	40	1704	-2030	20816	7438	127	131	1
-32768	-6036	19852	-9550	-32768	-29917	-29840	7292	-14064	-13453	-32768	-9725	-8332	2100	40	452	-2026	-2148	-11804	2760	12304	-1469	1534	-2065	-17156	-1520	72	4688	11477	3686	-17684	912	2892	-4446	18290	9208	128	133	1
-32768	-5408	8676	-9018	-32768	-27952	-28508	5200	-16056	-10694	-32768	-10444	-12520	-5472	6876	-3681	-1454	-4153	-11540	2168	12504	-1762	2093	-2111	-15700	-456	1496	2656	13263	2977	-17960	316	5880	342	11171	6796	126	135	1
-32768	2004	-5392	-9011	-32768	-23678	-21940	7988	-21432	-4779	-32768	-11628	-19712	-3132	19060	8077	-3392	-5326	-11868	2740	13664	-1639	3656	-3164	-18280	-740	-124	-213	15026	1864	-18100	-1924	6016	1978	7461	4500	129	139	1
-32768	17600	-17608	-16543	-25958	-21399	-12572	9976	-28520	-8590	-21556	-10371	-17392	7248	30884	8795	-2806	-4329	-11648	4596	14636	-3523	6262	-4335	-19308	-1848	-1944	-1254	16788	1778	-18052	-1496	3744	3451	7870	4881	113	136	1
-32768	29868	-29752	-23900	-10556	-15402	-2120	3656	-23784	-14091	2120	-5037	-14872	4000	31976	-13320	-6201	2287	-12220	1724	15012	-4173	10896	-5325	-19896	-3864	-3728	-1765	18448	1330	-20260	300	1244	7383	8540	4144	122	133	1
-32768	9848	-24156	-3984	8666	1794	-9272	-1008	-20748	-3958	16602	911	-14388	-6820	19096	-8691	-6497	1524	-12116	1928	16360	-5776	15396	-6817	-21600	-3372	-3580	-4279	19029	938	-21224	596	620	7483	6318	2221	127	128	1
-32768	9792	-7244	12685	15759	13826	-9480	6280	-23908	13668	22651	5670	-13240	-10772	8544	-5081	-980	-1219	-9816	2848	17256	-6343	21257	-8100	-22368	-5524	-2284	-5015	19861	1187	-21948	-1048	3364	8881	1996	-911	128	125	1
32767	-32768	32767	12827	32767	9973	-32768	-2724	32767	-8971	14945	6843	-11844	-1520	-10448	6118	13382	-2219	-8748	1372	19772	-7199	29536	-7833	-28632	-7032	872	-3108	22682	596	-22952	-1844	12916	6503	-10352	-2402	128	127	1
-20140	7120	-6548	15081	32767	15324	9136	16760	-19872	32767	2846	-1856	-26364	1388	3896	4214	7066	3313	-4420	3300	17808	-8463	32767	-10029	-30812	-17068	10920	292	26134	317	-19908	-15372	16320	1522	-15442	-7089	128	129	1
-15636	-8248	23472	2263	32767	-1656	-25888	10460	612	10235	13555	10398	-19712	-4596	16484	32767	2770	-84	-7936	11204	21668	-11737	32767	-19937	-32768	-15168	15560	9498	28865	4546	-21148	-23936	16728	9171	-13610	-15530	120	128	1
-25976	7292	23932	-4226	16814	16259	-24480	17964	-5156	6391	16737	2917	-23520	16008	7284	22418	14363	-1038	-32768	3960	13500	-12302	32767	-32528	-28680	1728	-8044	6262	29888	5108	-21756	-2184	11048	21105	-11185	-12389	131	125	1
-17184	-20012	9792	2065	12968	7189	-20100	828	-3992	4411	19980	450	-20392	9716	-3148	-10490	12046	2359	-32768	13360	6964	-10826	32767	-32480	-32768	6628	-10216	698	29589	1853	-30440	12236	-12448	32767	-5202	-8038	116	129	1
-11220	1260	13820	129	9584	8263	-13156	4096	-4376	4312	16478	1884	-7776	-11608	-7500	-19871	7401	-2846	-32768	9728	21496	-7256	32767	-32768	-25796	1540	968	-6781	17844	1202	-32768	8812	-25976	17930	-21009	4949	120	140	1
-11820	-15108	8416	10404	6479	7335	-19428	-5228	-6360	1838	14788	16	-15460	-12972	-5508	-15012	5393	-4503	-17060	17244	28952	1074	30623	-27361	-15128	5420	-8552	-16724	10258	-923	-27948	5676	-9280	746	-32768	1018	138	147	1
-12348	-10628	9308	8491	3557	7782	-16680	4496	-6012	2541	11412	2142	-14836	-10240	-6204	-7736	10219	-6130	-32768	11328	21832	2527	-1167	-4904	-8944	212	-10352	-7986	2952	-2020	-25080	-2912	-1912	-1194	-30501	-2509	132	130	1
-10616	-3340	12236	8912	2124	8456	-16792	4192	-5060	2899	8810	628	-16480	-6904	-5424	1222	14269	-773	-9692	14080	18872	5221	-32768	7551	-7192	-1596	2020	1930	-4706	-1663	-22948	-764	-5136	3765	-22921	263	128	124	1
-11624	-3740	12428	8297	1591	7921	-16884	4756	-4228	5154	6407	-402	-16780	-2680	-2488	4002	15061	-1938	3156	10472	12356	5084	-32768	8333	-6980	-2656	3384	7354	-11635	-1296	-19300	24	-8640	2878	-18848	1493	127	122	1
-11448	-1796	13380	4200	983	3853	-16344	8292	-2736	5437	5187	-625	-16816	1416	756	7774	16125	15	-828	5388	10544	6472	-32390	9530	-6192	-1132	-148	7787	-19013	-2689	-16060	128	-8096	67	-18569	585	129	121	1
-10992	-2260	12608	1503	836	641	-16268	6592	-1872	3842	5379	-943	-16424	3248	1524	7965	15965	249	-7000	3500	9396	9509	-32725	12497	-6632	1540	-2976	6157	-25269	-3738	-13320	1760	-8744	-4313	-17725	-22	125	123	1
-10508	-2796	12348	1087	810	384	-15056	3636	52	2571	5917	-1538	-15968	2624	2576	5619	14505	-402	-12148	3104	9360	13678	-32768	16726	-6956	1148	-3248	5740	-26125	-3863	-11860	2200	-8852	-7308	-16406	-440	128	119	1
-9476	-5344	11036	-553	990	583	-14924	1540	-780	-227	7535	-1287	-15144	-572	3772	135	13118	-1194	-13700	1704	9396	15856	-32768	19814	-9928	-1196	-5276	10441	-32768	-4430	-10104	2656	-8392	-9327	-14098	-51	132	119	1
-9940	-6044	10924	16	710	1453	-16624	-28	-1620	-1176	8494	-755	-15412	-4184	2240	-4239	14238	-2664	-12184	-1836	10612	20242	-32768	22922	-12292	-2268	-4960	9640	-32768	-5899	-9364	3920	-8560	-13068	-12515	15	132	126	1
-10468	-4920	11320	474	427	2145	-16496	2360	-3308	-8	8190	-253	-15280	-4892	-784	-5008	18595	-4089	-16832	-688	12152	24506	-32768	23733	-16192	-752	-5940	8931	-32768	-5725	-8380	4432	-9036	-14502	-12384	-366	133	122	1
-10604	-3688	11996	268	780	1525	-16884	5504	-4476	282	7813	-37	-15440	-1896	-2228	-4209	21476	-3451	-21148	1384	12924	26399	-32768	21284	-20084	-1648	-9616	11106	-32768	-3257	-8316	2920	-7132	-12533	-11914	-703	128	122	1
-10476	-3768	11948	-288	1462	568	-16512	5576	-3476	-1881	7851	-381	-14684	124	-2080	-2919	22417	-1877	-29344	1408	14928	24870	-30853	20320	-21228	-468	-11028	11512	-32768	-4290	-8844	-1404	-5120	-7352	-10052	-1053	128	124	1
-10540	-4312	11612	-704	1951	27	-16348	2792	-2652	-3683	8116	-308	-15228	-140	1984	-2204	21279	-1285	-32768	1528	18016	22318	-32125	22285	-27284	-4156	-14376	14042	-32768	-2973	-10408	-6312	796	-2122	-11773	-2622	137	124	1
-10516	-4728	11416	-932	2332	244	-15600	772	-1092	-1959	8110	101	-17252	-2684	3024	-201	19129	-3968	-32768	-2316	15600	20183	-32768	28266	-26468	-2880	-13052	18547	-32768	-2100	-9360	-1712	1604	2415	-7817	-149	133	126	1
-10552	-5268	11780	-725	2999	1083	-17196	-40	-200	740	9186	1088	-18828	-4476	3668	76	14189	-5166	-32768	-6720	9164	20852	-32768	31835	-23632	3436	-16300	18560	-32768	245	-10564	3912	3680	8884	-766	6385	125	127	1
-10116	-5104	11848	-541	3862	2196	-17084	1096	-728	1414	11089	1999	-19108	-5656	4636	-1561	10592	-5004	-32768	-11676	2796	17513	-30423	28490	-25472	-2028	-17196	10450	-32768	818	-15272	1520	8776	659	-1002	7117	123	123	1
-9668	-5884	13908	-497	6974	3113	-19532	1268	-576	874	13078	2972	-19272	-2668	5180	-3817	9169	-3505	-32768	-17756	-7988	12916	-21553	24140	-18580	1680	-19724	6075	-25655	2841	-16584	-3172	18288	-4317	-2353	6339	127	121	1
-11180	-4964	13508	-7	9693	4522	-18340	3920	40	2243	14840	3971	-19220	-1268	4796	-7143	7612	-2448	-32768	-25648	-18996	7890	-10009	18070	-11072	336	-23044	576	-13014	4285	-14844	-8420	24656	-3546	57	4215	125	119	1
-11272	-4340	13996	253	14316	4470	-17936	3544	-556	5602	16892	4904	-19420	-2876	4728	-8780	4636	-1158	-32496	-30424	-21192	7049	2740	12065	-7204	2108	-21444	-1753	3425	5135	-15052	-7344	23216	-2280	-1939	1891	123	114	1
-10812	-5324	13912	1239	19255	6422	-18924	2900	-1320	9009	18691	5603	-19664	-5640	4684	-8293	1106	-517	-32768	-18120	-12364	-3529	13622	3665	-11748	4380	-20956	-10788	14612	4105	-17132	-1964	15268	-2535	-3653	3660	124	123	1
-8804	-6348	14256	1537	23867	10091	-21316	3956	-1624	8727	20446	5440	-19872	-3448	6068	-8165	-1436	-228	-32768	-16184	-10336	-6244	13920	1778	-25540	-21920	13308	-16980	13321	-1401	-9732	6252	-4608	-5632	8834	6238	136	127	1
-9476	-7040	16592	2260	32478	13967	-26304	6912	-576	5292	22116	5100	-20300	-2904	6424	-8578	-1881	-3	16844	8028	16700	-22455	12801	-17412	-13748	-1020	2388	-32768	-3572	8943	-22732	900	2140	-14585	18480	5202	125	116	1
-6336	-5404	19072	2886	32767	16902	-31376	14112	3388	-685	22404	5141	-25128	2468	22704	-4556	-25530	1641	-14920	-32476	17320	-9260	29434	-263	-10704	-25828	-7464	-28542	8891	-6389	-16124	-8580	8848	-32594	3571	-4567	124	131	1
-10008	-10184	15392	3204	32767	18159	-27220	12824	16328	-15060	28246	4445	-20208	16688	9416	-16698	-12520	7205	-19240	-20572	22784	-1897	19245	-17232	-24728	-10284	-5680	-13214	14690	5341	-22788	-30568	1244	-22993	8373	-2123	118	117	1
-32768	-3708	8844	-3948	32767	22667	-23712	2824	-9032	-15127	32767	2430	-21264	5612	5276	-32768	-17143	8983	-25656	20080	9280	-1807	13319	-12244	-21344	3276	-3328	-7133	17261	8140	-12760	324	-840	13475	13398	-520	128	126	1
-32768	-6272	4184	-1271	32767	26930	-32768	-900	-9044	-3501	29659	5826	-25544	-9920	-16884	-32768	-19631	7034	-15652	2988	8256	-13276	4167	-12460	-20108	15908	-6764	-10959	14295	8667	-18492	26060	-4568	13042	8715	5826	126	130	1
-32768	-12816	22656	-5041	32767	25810	-25444	3760	-4328	-4860	23759	6899	-28680	-18116	-15340	-15709	-20949	-4077	-15196	7880	10260	-9951	3398	-11701	-17596	3368	-4640	-13595	11254	3812	-17824	10532	-3668	-8410	5559	10546	128	160	1
-1216	-18984	25908	-9324	24542	18200	-17108	-3356	-15020	3786	18474	6342	-27984	-11924	-9696	9901	-24342	-4172	-13904	-1456	13952	-7624	1249	-8726	-17352	-5900	-7148	-6743	11140	2369	-16108	776	-4828	-7007	7202	7107	135	134	1
-28740	-16572	26408	-7620	-18135	11287	-13244	-396	-13600	-1657	6038	3135	-27312	-3216	-3812	14221	-24966	-3541	-12836	-144	13860	-5172	507	-4902	-17412	-5652	-5864	5927	12577	3319	-17084	-2200	-4728	-1040	8347	4916	130	134	1
-484	-13468	17820	-12223	-32768	1332	-10284	1664	2760	-11214	-1288	1370	-25120	-2096	-4292	8197	-23316	-5111	-12056	1228	13108	-2559	381	-3086	-17440	-2780	-5076	9802	11619	3829	-15896	584	-4372	-344	11577	5179	122	128	1
6356	-10684	8348	-13084	-32768	-443	-7756	1416	3072	-13641	-9595	-4615	-19940	-1844	-6708	5911	-20803	-6181	-11388	2244	12368	-2095	515	-1912	-17656	-344	-3436	5072	8909	3244	-16028	1332	-3504	-1813	11639	3681	117	129	1
1556	-9904	5616	-9901	-31315	-3681	-4900	-532	-4	-10065	-17243	-6256	-16696	-904	-7436	6530	-18613	-6052	-11280	1908	12160	-2336	360	-1555	-17128	-596	-2828	-2792	5408	2466	-15752	668	-2200	-5798	11378	3056	132	127	1
-4956	-10476	6448	-6810	-29683	-11600	-4292	184	-3548	-2766	-24839	-6864	-13664	-540	-8544	8137	-15749	-5269	-11632	1916	12204	-2173	356	-879	-16396	-3272	-2660	-3713	4469	2204	-16096	-940	-2092	-6316	12306	4477	129	131	1
-7916	-10040	8244	-3750	-32202	-20606	-4716	760	-3948	-2516	-25867	-6909	-12520	-1460	-8060	8048	-13962	-4487	-10840	3108	12164	-1764	547	-386	-16012	-3224	-1576	1198	4987	2747	-15156	-2452	-892	-1328	12825	5519	125	130	1
-12688	-7216	10632	-3311	-32768	-27450	-11420	2952	-6044	-6000	-32768	-9565	-11548	-4128	-7280	8685	-12612	-4176	-11364	2516	12016	-918	799	-861	-16288	-2600	-1608	7087	5985	3439	-15500	-1000	304	5836	14081	6313	125	131	1
-17992	-5964	12236	-5280	-32768	-29918	-12680	1848	-6492	-3709	-32768	-11624	-10552	-3432	-8208	16425	-11653	-3774	-11108	2280	12228	-363	744	-1089	-16872	-1760	-1540	8944	6621	3664	-15196	-60	-184	8648	15853	6575	123	132	1
-19968	-4244	12008	-7592	-32768	-28801	-14164	2828	-5692	-1055	-32768	-13109	-8720	984	-9544	22557	-10989	-3145	-11304	2036	12428	-470	601	-974	-17240	244	-1428	3520	5839	3069	-15272	204	-284	9197	16974	6577	122	133	1
-19696	-5328	12532	-9512	-32768	-25559	-17080	5352	-6308	-522	-32768	-14336	-7084	3044	-9388	18164	-9621	-2877	-11096	2652	12044	-860	852	-764	-16588	-1588	-1044	-20	5881	2471	-15312	-488	1392	8397	18215	7231	122	129	1
-23360	-7756	16028	-8913	-32768	-25199	-19944	7664	-8360	-2134	-32768	-14286	-6552	2460	-7308	10317	-6166	-2050	-11280	2856	12016	-988	762	-1032	-16528	-2584	-524	3771	7761	3226	-16632	-1300	2556	4682	20629	7758	123	129	1
-29440	-5148	21384	-9953	-32768	-29441	-24444	12524	-10848	-6952	-32768	-13568	-6340	2936	-4704	4389	-2543	-1235	-11784	2392	11692	-1048	561	-1645	-16100	-228	-252	6571	9816	3974	-14872	-748	4364	-3216	19975	9430	124	132	1
-32768	-3792	23752	-12646	-32768	-32596	-30096	12448	-13052	-13319	-32768	-13243	-9052	3316	-920	3196	-896	-1350	-11688	2064	12060	-1196	345	-2251	-15740	424	848	3622	11077	3067	-18668	3168	1572	799	12762	7386	128	130	1
-32768	-2500	17400	-12673	-32768	-31500	-31320	8016	-17112	-16066	-32768	-12127	-9084	2820	-748	3415	-910	-1456	-11624	2744	12624	-1320	1137	-2509	-16352	544	2408	316	12715	1644	-19972	2180	5524	4446	6015	4141	126	132	1
-32768	-2076	1172	-6482	-32768	-22281	-27144	4688	-19488	-8897	-32768	-12449	-20984	-8036	16448	778	-4851	-8409	-11480	3488	12828	-1588	2840	-4558	-18272	312	-8	-755	14582	1042	-18600	-548	7252	2023	7181	5266	125	132	1
-32768	12496	-14732	-7096	-30759	-13105	-16488	9736	-27200	-2880	-27836	-12907	-20812	3608	28896	6689	-2544	-7628	-11844	3660	14060	-2449	5297	-6751	-19620	-1072	-2316	52	16448	1067	-17620	-1440	3056	4323	10890	6223	119	131	1
-32768	32767	-31044	-23711	-15460	-10931	-1288	11300	-27528	-8483	-4574	-8010	-13768	5992	32767	-3703	-1545	-408	-12180	-400	15368	-4332	9223	-7189	-19124	-4132	-3024	-1048	18503	372	-18888	616	-32	7201	7201	4254	121	128	1
-32768	13168	-27452	-8871	5891	-4773	-5896	2736	-22836	-4212	15695	979	-14608	-2328	23996	-6156	-6877	2686	-11828	2284	16776	-6258	13637	-7337	-21792	-2104	-3208	-6733	19013	-563	-20924	2120	1380	6175	3056	1589	129	127	1
-32768	11592	-10324	20255	20838	15342	-13016	5108	-21036	9302	22806	4828	-13648	-9172	8868	-6769	-2821	975	-10944	3196	17644	-7824	19050	-9762	-23980	-5092	-3768	-8282	19115	32	-22128	1844	2364	6505	1882	-200	120	128	1
12064	-15200	32767	4355	21931	15318	-32768	-5884	32767	-2179	10909	5347	-11372	-10124	3472	-6641	-623	590	-10424	3248	18188	-9017	25276	-11307	-26700	-5612	-920	-4830	20622	1154	-25376	-816	8172	7356	-4076	-1193	124	126	1
-15396	13824	-3176	15228	25957	19742	4364	23884	-14600	32767	4919	252	-26360	3640	5056	6084	2867	1948	-12728	8708	18608	-11531	32026	-14158	-28708	-9012	6324	-945	23185	1974	-21684	-8660	16324	-1242	-14234	-4352	129	130	1
-24636	-8240	19864	-2735	32390	-6092	-23812	13124	-2040	7659	18068	11500	-9432	5568	11064	26105	4772	1074	-5300	7808	21532	-13718	32767	-22845	-32012	-18800	13892	6744	25964	3698	-19028	-23984	15816	4074	-14118	-13649	118	127	1
-21972	13988	23000	-5635	19343	13238	-19160	11828	-5676	5349	17507	1061	-18032	11024	3600	3732	13775	1164	-18616	9192	18664	-16075	32767	-26556	-29440	-10812	12284	16339	28968	5285	-19688	-15668	8436	11016	-15719	-16294	122	134	1
-20280	-29080	4820	-942	14008	9631	-22772	-5236	-6972	1151	19921	-174	-19496	-1652	-6068	-13158	10457	3116	-32768	-4204	720	-6790	32767	-29361	-24840	6744	-14064	10967	31446	6108	-17648	3864	-2692	32767	-8140	-14723	117	128	1
-11752	-792	13044	6167	11458	10089	-15860	-808	-5344	13326	12570	385	-14148	-19260	-7460	-11000	10272	-4764	-32768	4116	16800	-4215	32767	-31853	-27488	6292	-11632	9489	31561	5257	-29964	7080	-13052	32767	-9849	-7353	119	133	1
-11644	-8408	11676	12954	6676	9477	-16528	596	-5916	11025	10068	293	-17304	-9120	-8240	-1241	10289	-6464	-32768	12224	28988	6575	31220	-26361	-20276	1760	-8088	-5893	19045	1433	-32768	2540	-15836	15000	-22271	5313	129	134	1
-16084	-3724	13740	6760	2690	7600	-16216	9060	-7820	2304	10217	1675	-20388	-2520	2816	7433	9875	-3885	-32768	2060	18736	532	2210	-15046	-14696	-328	-8380	-458	10258	2938	-31608	4724	-5720	4429	-32768	2383	134	133	1
-12240	-2336	13444	3502	1350	3599	-17952	8892	-4892	-3875	10360	483	-16404	-56	-3060	8232	15827	-1427	-10920	12580	21492	6732	-29895	4922	-10140	-1268	772	5805	1860	-753	-27024	1620	-2128	3791	-28868	764	139	125	1
-11540	-3000	12660	1047	1113	1092	-17488	4376	-3712	-4773	9459	-465	-16748	-1112	-2532	4707	13307	218	4284	15128	13720	6464	-28885	11908	-8912	-1692	2752	6089	-8505	-870	-24736	1096	-7356	6335	-20862	1709	118	112	1
-10528	-4656	11488	304	756	127	-16940	1092	-2284	1874	6141	-510	-15652	-2924	248	3581	13462	240	576	10064	9936	5173	-23806	13438	-6544	1936	-40	1882	-18007	-1962	-19012	2296	-10284	3826	-18476	2957	116	119	1
-10056	-5108	11220	-29	496	-226	-16568	2492	-1940	7347	3302	-370	-16320	-2064	196	5822	14737	-1327	-8184	6752	9864	5875	-25864	15682	-5320	3120	-3556	-844	-25208	-3202	-14652	3004	-9880	-1555	-18247	3042	116	116	1
-9864	-5240	10892	-235	496	-239	-15788	3936	-2264	5302	3150	-421	-15224	-984	-328	4337	14315	-1736	-11204	4724	9992	9081	-32577	18814	-7120	1248	-3928	1521	-30817	-4228	-12448	3956	-9748	-6296	-16822	2183	120	117	1
-10044	-5132	11068	-383	344	134	-15112	3676	-2416	-2138	5118	-354	-15568	-664	272	-897	14399	-2823	-12400	3208	9204	12443	-32768	20985	-8300	172	-3832	5379	-32768	-4704	-9584	3964	-9744	-9292	-15238	2849	121	117	1
-9400	-5116	10740	-264	440	578	-15668	2872	-1708	-7533	6380	-819	-14460	-1144	644	-5711	15157	-2719	-13236	2452	9204	15230	-32768	22851	-10160	372	-4260	4929	-32768	-5314	-7164	4644	-10532	-13443	-12850	2266	130	121	1
-9000	-4916	10928	250	826	893	-16352	3516	-876	-7453	6807	-1235	-13640	-1604	-688	-11469	17665	-2686	-14000	2692	9784	17774	-32768	26286	-13296	-700	-4548	3171	-32768	-6058	-5504	5492	-11248	-19424	-10992	1062	124	125	1
-10472	-4264	11384	973	1053	1055	-16172	2104	-2248	-217	5310	-1656	-14380	-1580	324	-11632	22583	-3219	-19468	2992	12476	19872	-32768	28645	-17580	-1300	-8192	1001	-32768	-5536	-6544	4984	-11940	-25422	-10931	673	120	120	1
-10424	-4760	11276	460	1066	467	-17068	2996	-1980	610	6556	-4	-14440	-2992	4264	-3894	24288	-4426	-31376	3764	15224	18702	-32768	30624	-19648	1164	-11148	4702	-32768	-6701	-7076	-468	-9220	-24632	-11011	-995	123	118	1
-10560	-4656	11360	142	1323	361	-15688	2660	-696	-3626	8457	-69	-15908	-516	2744	2540	23483	-5511	-32768	1748	19120	19140	-32768	32767	-27792	-3436	-12600	6426	-32768	-6437	-9692	-5408	-2552	-17074	-13321	-2959	125	119	1
-10408	-4892	11132	25	1163	292	-14284	-648	2712	-3586	9900	570	-20856	-3648	5028	-347	15296	-4133	-32768	-1780	18984	19930	-32768	32767	-27132	-3704	-11076	12604	-32768	-5973	-8720	-3152	-1036	-13085	-7986	-1094	124	119	1
-10124	-5728	11484	208	1157	733	-16244	-1612	2532	999	11124	2036	-20332	-4928	8700	360	9011	-4289	-32768	-3152	13040	21567	-32768	32767	-29304	1396	-15116	19524	-32768	-2873	-11148	-1416	5684	5403	-1053	6258	120	121	1
-10388	-5504	12044	-31	1461	1813	-17584	1592	-604	2816	12801	3315	-18080	-3240	7052	-2851	10188	-3601	-32768	-3136	3888	15918	-31511	29933	-29604	1132	-15576	9566	-32768	-1503	-20360	-4684	13704	6418	-1129	7546	121	123	1
-10476	-5260	12592	-678	3389	2076	-17584	2404	-1780	-349	15376	4292	-16888	-1536	2848	-7138	9823	-3095	-32768	-13884	-11008	10889	-20870	24120	-19608	1380	-20520	7812	-28117	3890	-19732	-12060	18892	-43	-2001	4569	121	115	1
-10484	-5264	13588	-842	6429	2635	-17792	2556	-1764	-620	15711	4388	-19344	-640	2088	-9379	6465	-3151	-32768	-30584	-20836	16107	-6482	19177	-18064	1664	-21100	7883	-26066	4987	-13508	-12348	31076	3947	-3119	3815	120	110	1
-10128	-3348	16096	-647	12521	3442	-20168	5852	-604	5112	18539	5746	-21308	-2804	3040	-9750	2378	-1709	-32768	-27540	-21324	14496	4024	15920	-7980	4964	-20528	3828	7011	6197	-14512	-2892	23672	3504	-6796	3784	119	113	1
-11320	-4348	15628	22	18498	3510	-20268	5860	-652	8466	21586	6891	-19564	-5656	5008	-10105	-106	70	-30900	-13196	-13256	-6717	13846	318	-12244	4904	-19076	-9459	16229	4162	-16080	4548	16028	1921	-5799	6255	119	119	1
-10136	-7808	15692	-402	25664	7012	-22972	3792	-3336	9315	22233	7175	-20512	-3072	5252	-8664	-2008	1048	-32768	32767	32767	-21622	8665	-10839	-29204	-24168	25172	-17180	14336	-1384	-15864	5644	14332	1750	-4998	6668	122	123	1
-6564	-5752	18000	-1129	32767	11792	-26588	10736	-3020	5212	21946	6564	-24628	-1704	13332	-8990	-9156	3000	6896	-8208	8208	-29990	12020	-19415	-10232	252	164	-32768	-1512	10092	-21000	2780	-2448	-14805	22223	7672	127	139	1
-5092	-8360	19292	-165	32767	14818	-32768	10224	8680	-3107	23991	6988	-21320	3124	13272	-10400	-19920	3000	-22888	-31336	21332	-12199	24966	-1670	-11004	-20628	-11860	-32768	8812	-6643	-13904	-1932	6132	-32768	4493	-2152	114	134	1
-7964	-15788	16360	2161	32767	26137	-30768	5600	13568	-7215	27450	4536	-24652	13672	12972	-12266	-14663	7154	-12308	-19436	24672	-4104	13519	-18728	-26872	-14296	-7392	-22180	12329	5566	-13416	-3572	3924	-32768	5105	-3251	112	120	1
-32768	-11144	10496	-1122	32767	32767	-29492	644	-6184	-11019	31262	3519	-22228	2212	6636	-29261	-17433	8757	-27948	22196	9924	-3300	10454	-16106	-19984	3664	-6748	-10213	15144	8695	-16992	-3624	-7940	7987	12141	-1071	119	122	1
-32768	-9564	10780	-597	32767	32767	-32768	-808	-11648	1466	29949	7879	-26332	-11144	-10532	-32768	-20936	5792	-25356	13076	16640	-11228	7890	-11428	-19936	10400	-6564	-10295	11999	7605	-18452	24320	-10060	7972	9667	8398	105	127	1
-32768	-17508	24768	-9934	32767	25412	-25068	5476	-3976	-3035	26141	8261	-28052	-15520	-17988	-14867	-20806	-4608	-17500	388	14636	-10417	3777	-9066	-19836	11932	-8400	-11405	11332	7435	-20248	2588	-5084	-10225	10139	13209	123	144	1
492	-6696	8172	-8084	30434	32767	-17376	-768	-3528	2124	18462	5183	-29680	-9276	-10828	7462	-26218	-6305	-13744	-1196	14572	-3924	1439	-4241	-18416	-8608	-5876	-2767	9682	4025	-15716	-3260	-4212	-3869	10093	7751	132	138	1
-32768	-17184	23260	-6754	-13754	9985	-8284	676	-13596	-6571	8880	4005	-29268	-1884	-3904	11294	-28450	-3665	-12292	856	13516	-1658	1177	-2329	-16720	-3488	-3084	7431	11087	5692	-14932	-2388	-1044	1328	10320	5316	126	131	1
268	-20340	16412	-4373	-32768	-3620	-10948	-1684	3028	-11309	-803	375	-28240	-4760	-1256	7465	-27054	-6971	-11364	3680	12264	-824	1356	-1299	-17392	1324	-1544	4913	9596	5194	-15360	2240	-1332	3103	11724	4403	114	119	1
7496	-13836	10728	152	-32768	-4638	-6104	-1904	3572	-10427	-10792	-5817	-19884	-2140	-6544	-253	-22307	-6885	-9476	4684	11340	-1348	2187	-1649	-17588	416	-1184	-2787	6432	3936	-16028	5044	-2224	98	13048	4114	124	125	1
1572	-8784	9316	-385	-32025	-8135	-5360	-2256	268	-4089	-20468	-7331	-16512	-2108	-8240	2938	-18894	-6926	-10116	4660	10348	-3046	3100	-2155	-16748	-704	-1416	-3577	4749	3408	-16312	5132	-3332	-4804	12439	4959	127	127	1
-4508	-6812	9136	-4543	-32768	-14806	-5256	-168	-2864	1984	-29099	-7435	-12008	-2020	-8752	7470	-16034	-6136	-12772	2756	12756	-4004	2132	-1631	-15964	-1820	-1960	433	4888	3463	-15756	964	-576	-6592	12507	5660	129	132	1
-6840	-7128	9208	-6133	-32768	-21599	-6568	2972	-3644	-371	-32768	-8145	-10228	-2272	-9164	10355	-13574	-5652	-11484	2964	12416	-2198	1006	-1867	-16100	-3144	-176	7042	6693	3698	-15324	-2928	1044	438	13395	6808	122	132	1
-10248	-7032	10644	-4341	-32768	-26223	-8948	3760	-4944	-4408	-32768	-9722	-9608	-4136	-9172	12389	-9528	-4915	-10280	4152	12792	-2427	1034	-1789	-17280	-1972	732	10938	8110	4137	-16376	-780	2308	8321	13956	7010	125	132	1
-15124	-3976	12772	-3813	-32768	-28170	-12344	3292	-4932	-4532	-32768	-10827	-9488	-5364	-9976	18516	-7010	-3476	-11776	2580	12232	-2696	800	-2189	-16336	56	124	6523	8316	3822	-15268	-3256	2252	7708	13524	7583	126	135	1
-22440	-972	15520	-8973	-32768	-30380	-13584	6080	-7540	-2181	-32768	-10208	-7584	-788	-12828	27188	-6701	-2651	-11244	3248	12348	-3421	541	-2254	-16208	-796	152	1813	8315	3234	-15048	-3360	2548	13013	13274	7284	126	135	1
-24348	-4340	16056	-14632	-32768	-32709	-17412	8608	-7760	-7829	-32768	-11027	-7176	2076	-13244	28072	-6096	-2587	-11664	2308	11976	-2360	404	-3002	-17032	-616	-364	2719	9757	3225	-15240	-692	3136	10570	14841	8106	127	132	1
-25544	-6444	18640	-16323	-32768	-32768	-23620	10948	-9092	-14161	-32768	-12690	-8300	3888	-9464	18597	-4371	-2308	-11332	2360	12836	-1733	756	-3263	-17888	-1112	-2284	5157	10737	3252	-16044	1760	964	-1287	17546	10794	128	130	1
-32768	-12764	19804	-13582	-32768	-31193	-29316	8924	-12908	-15988	-32768	-15983	-8804	8116	-3184	9893	-3881	-1133	-11692	720	12732	-1360	1642	-2620	-16656	-2272	-1604	4671	11763	3247	-18348	4064	-1344	3993	14830	7789	127	132	1
-32768	-3952	17676	-9869	-32768	-27770	-32068	8288	-20060	-9833	-32768	-16286	-11760	6084	3096	4896	-5485	-35	-12080	2704	12548	-1222	2232	-3021	-16060	248	912	1979	12613	2758	-19232	2604	4144	5738	8891	3824	123	132	1
-32768	-1684	6200	-9078	-32768	-24628	-27456	10064	-21888	-7216	-32768	-13827	-16880	-2376	9680	-4463	-1139	-2771	-11680	3184	13360	-2159	3988	-3975	-18312	704	-8	436	14246	2104	-18004	140	6796	2707	7966	4877	124	132	1
-32768	9020	-5420	-7580	-31093	-20499	-23660	12056	-27672	-6807	-29822	-12463	-19036	3420	25200	-2171	-2637	-6249	-11140	1364	15704	-2975	7143	-5515	-20440	-3132	-1440	336	15968	1805	-19440	-1200	3140	2106	9153	6313	117	132	1
-32768	20752	-22800	-8255	-17423	-15110	-9452	9300	-29308	-2865	-15950	-9408	-16068	728	32244	-5602	-269	-6621	-11744	2444	15148	-3781	11154	-6712	-18828	-3408	-1900	-743	17877	2227	-18152	-432	2528	6806	8064	4078	119	130	1
-32768	24320	-25860	-9175	-14355	-13507	-2308	6536	-27176	-1306	6410	-2439	-15192	200	28704	-10989	-3944	1103	-11528	944	15568	-6198	14888	-7200	-20068	-2724	-2836	-6005	18408	1475	-19036	1260	2664	6104	5163	1329	127	129	1
-32768	13196	-16360	6820	16048	3960	-7560	4916	-26364	8325	20056	4196	-12700	-7840	16736	-4860	-3385	634	-10384	2540	16224	-7477	19562	-7920	-22228	-3448	-2364	-7868	19075	1540	-20456	896	3836	5448	2809	263	118	129	1
32767	-29644	32767	11417	-4179	10829	-32768	6304	32767	-15173	14212	8963	-11540	-3976	-7580	-3296	14951	-2483	-8408	3648	18376	-9039	25634	-10066	-27144	-4500	692	-4576	20982	2529	-24612	-164	9740	7288	-4145	-1412	128	134	1
-6776	5220	-3732	11772	28607	24265	-2100	11264	-3916	29091	3141	-4732	-28696	2092	3872	-3557	8900	6007	-8104	5436	18476	-9929	32767	-14411	-28108	-9672	7072	333	23570	3600	-23904	-6872	18084	2584	-15767	-5497	121	126	1
-23140	-184	18912	-3452	29927	-3338	-16052	11864	1556	2667	16100	11831	-10052	-2132	9584	25361	-2062	4616	-5748	6232	20732	-11759	32767	-16607	-31128	-21012	13144	12899	27517	5993	-18808	-24096	14648	4780	-12859	-13842	126	125	1
-25440	7172	21592	-5947	22217	12305	-21224	12736	-4772	4770	16157	2096	-18220	11332	4412	8036	13646	-106	-17684	3680	17200	-12025	32767	-22933	-26776	-10672	5172	19499	30740	6901	-18004	-16948	9380	14916	-11828	-15669	126	127	1
-20956	-20588	7428	-3420	17384	11134	-22136	-1292	-5880	2679	18777	1576	-19432	3676	-1060	-6584	10067	3599	-32768	440	5424	-3721	32767	-23730	-27992	6940	-11048	12026	32767	6330	-17568	3116	-512	32767	-6989	-14961	131	132	1
-16324	-4780	13428	2981	12624	8992	-19072	1496	-5868	11680	14162	1239	-19808	884	-1284	-7691	9818	3258	-32768	5788	14984	-5725	32767	-30469	-26748	4392	-6936	456	24182	3938	-29844	9240	-17332	32767	-9449	-7559	133	129	1
-18976	-17608	3016	9338	8861	7436	-18436	-5460	-8936	6899	13754	80	-16584	-6692	-5220	-2151	7902	-5436	-32768	9836	25176	4853	32767	-27517	-21556	4052	-5372	-7285	17392	2232	-32768	7456	-16716	13629	-23033	6057	132	139	1
-14744	-6064	12308	7774	3199	8073	-15676	6168	-7716	5948	9797	1887	-14088	-9612	-8712	-3485	12629	-3543	-31648	4352	17144	4492	14166	-24808	-16312	3648	-10008	-4952	9169	1135	-29324	3596	-3584	938	-32768	1513	140	138	1
-13148	-3144	13528	5775	1444	5607	-17736	5752	-5576	537	9331	873	-17328	-4924	-4188	3169	13447	-2429	-17352	13076	20640	11361	-24136	-2997	-9532	972	-2896	5475	1366	-958	-26836	828	-1632	1097	-27998	-316	148	126	1
-12740	-3048	12940	5151	1087	5341	-17744	5264	-3220	94	8089	1029	-16660	-3048	-1644	5768	12050	-835	-5872	14360	14228	10414	-31298	5307	-8708	-164	200	6699	-7628	-41	-24716	2588	-7480	4978	-20337	2252	136	120	1
-10716	-4688	11684	1876	1114	1034	-16448	5196	-2456	60	7343	676	-16260	-492	124	4524	12241	139	-2316	10148	9872	7845	-32768	10864	-7624	960	0	4717	-15388	-2221	-19384	2616	-8920	2519	-18370	3219	137	122	1
-9532	-5420	11516	841	1284	280	-16780	3276	-1780	852	6310	110	-15584	560	-620	2224	14122	-799	-4296	7860	8348	5154	-32768	14384	-6356	1680	-1432	1464	-22856	-3765	-14952	2700	-8904	-3024	-18060	3115	116	122	1
-9624	-5584	11032	489	1272	165	-15924	3428	-1644	1523	5101	-125	-14808	552	-1332	-2724	14062	-2069	-5864	4828	8356	6828	-32768	17070	-7036	292	-2260	1730	-29060	-4957	-12668	4156	-9236	-7289	-17607	2162	123	120	1
-8936	-6332	10772	484	1337	688	-15612	2852	-1404	-1165	4838	-304	-14984	-2048	-1400	-5380	15994	-1809	-10920	3304	9444	9906	-32768	19419	-8480	768	-3832	3061	-32768	-5762	-10856	3396	-9160	-9653	-15902	2502	122	122	1
-10008	-5164	11000	45	611	1086	-15732	3792	-1204	-5241	5836	-259	-15656	-1216	1224	-5037	16582	-2172	-16620	1844	10640	13389	-32768	21587	-9948	584	-5640	4855	-32768	-5932	-7668	3496	-9264	-13531	-12987	2019	131	120	1
-10408	-4968	10920	593	798	975	-16028	2072	-808	-3017	5679	-504	-14660	-1080	1776	-6229	18095	-1723	-17008	648	11288	17887	-32768	23801	-12740	-916	-4352	6512	-32768	-6842	-7060	3936	-9824	-18599	-11382	986	129	125	1
-10272	-5412	10732	877	961	998	-16064	2036	-688	-2468	5547	-355	-15352	-2312	2296	-5614	18370	-1487	-16712	1100	11176	23111	-32768	25015	-16980	-2300	-4308	6274	-32768	-5526	-6056	5864	-11584	-23679	-11143	751	126	126	1
-9876	-5808	10916	1176	787	1520	-15856	2104	-780	-541	6499	93	-14580	-2300	2112	-1080	19428	-3763	-21656	2764	13836	24035	-32768	23928	-20848	-1632	-9204	7423	-32768	-4588	-7420	2104	-11068	-23707	-10398	-13	128	122	1
-10552	-4748	11332	1105	1138	1726	-16288	2552	-1908	-640	7647	210	-14568	436	3044	2447	21169	-5332	-30688	3708	18068	20960	-30238	24204	-25944	-1808	-12444	5361	-32768	-5817	-10056	-4984	-4804	-16950	-11460	-1559	130	125	1
-10728	-4832	10776	983	1049	1470	-15084	2124	-732	-1440	9529	887	-19552	-2400	3116	-1835	15707	-3136	-32768	524	19516	18336	-31685	28201	-30940	-5700	-14156	9092	-32768	-5338	-11064	-10100	-2012	-11977	-10001	-3771	125	126	1
-10560	-5216	11292	1293	1197	1580	-15560	-12	1144	-612	11839	1603	-20960	-6436	3956	-5695	7988	-2421	-32768	-5736	11560	17389	-32768	32767	-27432	228	-18328	16937	-32768	-2577	-10780	-4960	7068	5878	-5567	1778	127	126	1
-10184	-5620	12224	456	2039	1730	-18392	920	1376	1568	13387	3481	-18684	-440	9476	-4799	7258	-3112	-32768	-9968	1784	12082	-30561	32767	-26828	2656	-20860	7873	-32768	-1605	-18488	-2148	9288	9462	526	6208	128	126	1
-10284	-6480	12204	163	3314	2866	-17680	-16	1132	2154	15699	4282	-15196	-984	8064	-10039	10713	-2799	-32768	-22812	-8928	10826	-24540	29547	-21084	2068	-21708	7594	-27773	1089	-18064	-5024	19680	4815	-3145	4707	127	120	1
-10540	-6620	12564	-177	4594	4648	-17732	-84	-52	4534	17307	5306	-18424	-3620	4244	-11972	8316	-2085	-32768	-28688	-22512	10181	-14177	18608	-11196	1876	-23444	6311	-14045	5264	-15512	-5452	25184	-2903	403	7180	131	120	1
-10364	-5508	15248	1447	11799	6578	-21180	3476	-1016	7214	18511	5804	-20808	-6028	3600	-5777	5458	-2712	-32768	-32768	-25120	15616	-101	6769	-5928	4544	-23296	5081	3797	7063	-14404	-6632	25216	-3766	1784	6916	131	120	1
-11424	-5432	15620	1719	15273	8936	-20452	5372	-2184	9948	19695	6671	-20000	-5876	3140	-4618	438	-723	-31316	-20476	-15280	3392	8773	-3701	-6552	4548	-22968	4354	6427	6791	-15280	-104	14376	2251	-3776	3882	123	126	1
-10224	-6048	16376	2144	22397	11447	-22736	7848	-2980	9208	21069	6434	-21704	-1792	4528	-7913	-3346	1197	-17172	-8076	32767	-14908	4700	-14689	-21816	-13892	15116	-13562	18122	-84	-8476	2212	10100	-8148	2133	5548	126	124	1
-6960	-4084	18060	2197	30104	15198	-25636	10024	-2920	3755	22062	5501	-24276	664	16876	-3158	-15860	930	26972	27508	32767	-11505	12994	-9475	-32624	-7992	24388	-21654	-1327	8593	-17524	748	-15592	-4978	30806	4648	119	147	1
-7392	-9752	17428	4069	32767	20063	-31396	6944	6044	-78	23468	6591	-22400	6176	10560	-8027	-9616	1500	-27520	-32768	1312	-14830	21115	-3433	-3788	-19108	-15092	-29029	7656	-2498	-25196	-7812	3752	-16165	-4890	-4376	136	124	1
-5032	-8060	17576	5952	32767	25902	-27200	13616	11316	-4965	24949	3801	-22200	10488	13348	-18473	-13187	7551	-16904	-5832	21252	-7565	19983	-9669	-27328	-10924	-7112	-20676	11486	4087	-20364	-17200	4652	-29945	7580	1059	118	123	1
-28912	-7584	13800	1702	32767	23885	-26492	7844	652	-15740	29600	4443	-20960	1720	5568	-28917	-19191	9161	-29128	9788	12544	658	14655	-9205	-19932	-2072	-6020	-5962	15572	6132	-14188	-15448	-3140	162	13676	-90	124	121	1
-32768	-4128	8400	-1145	32767	26620	-28332	-292	-11972	-9261	30979	7026	-22440	-6384	-9328	-32768	-20883	6181	-11736	5184	12060	-2854	13954	-5575	-18356	3464	-2852	-5042	13353	7933	-15980	18904	-8068	12648	10518	3351	125	126	1
-32768	-11448	17000	-4477	32767	24372	-25364	2452	-6616	-4663	23456	7927	-25720	-16020	-13388	-13464	-22376	-533	-15492	10372	9168	-10049	7706	-5396	-19656	9948	-5380	-9365	9768	5700	-21836	11128	-3948	-5627	7571	8554	134	142	1
-17680	-17992	24440	-9443	27522	20312	-19916	-2512	-4404	-2320	19676	7911	-27012	-13044	-9204	7298	-22514	-3781	-15528	3380	12032	-7305	4218	-5676	-17228	-2828	-5148	-5762	8406	3424	-13956	1352	-4764	-5033	10231	8509	134	136	1
-32768	-13516	27728	-2873	1230	13001	-9944	-1044	-19820	6821	7245	6011	-25980	-6756	-6460	13311	-22791	-3690	-14660	-288	14216	-4123	2052	-3967	-16992	-3980	-4596	3578	9493	3769	-16916	-712	-2560	1252	9809	5984	135	134	1
-9332	-17624	22052	-1682	-32768	-2818	-10852	-2784	1480	-2156	-2021	7216	-26216	-4668	-4352	12274	-22956	-4621	-12492	3704	12368	-1911	1293	-2278	-18660	-188	-3348	8225	9703	3773	-17060	3196	-2544	3949	10544	4243	126	128	1
3600	-12620	10132	-169	-32768	-2126	-9436	520	3344	-5400	-10453	-1381	-22568	-4840	-5968	9126	-20848	-6648	-12196	3268	12228	-1089	729	-1437	-17768	280	-2916	2839	7314	2722	-16964	3700	-1736	177	11465	3434	127	124	1
1308	-7888	6832	-1488	-32768	-4105	-5784	-516	-80	-3905	-18435	-2667	-17804	-3852	-7264	9414	-18057	-6760	-11380	3320	11936	-424	557	-437	-17328	-1524	-1544	-596	5756	1921	-15852	824	-1272	-2937	10737	4505	130	140	1
-4012	-9076	5472	-3673	-32360	-10040	-5524	-760	-2892	275	-25889	-2844	-13944	-2204	-7912	11848	-15149	-5852	-10988	4320	11116	-491	759	-491	-16304	-2036	-1384	-329	5080	2128	-14976	-1540	-1168	-2461	11092	5473	131	134	1
-7044	-12040	6624	-2196	-32768	-16208	-7352	800	-4260	-1218	-31786	-4019	-12536	-600	-7740	13553	-12931	-5243	-10820	4004	11608	-209	956	-1013	-15528	-2436	284	3723	5640	2551	-15760	-2448	900	1318	11850	6040	123	132	1
-11048	-9800	9296	-292	-32768	-21801	-9800	1344	-6404	-3965	-32768	-5596	-11712	-2244	-6876	13251	-11854	-4332	-9400	5900	10972	-478	1447	-2418	-16560	-2084	1132	8608	6478	3590	-15064	-1504	1108	8128	13963	6469	128	131	1
-18792	-6696	9520	-2128	-32768	-27455	-12388	328	-6212	-3496	-32768	-6444	-9944	-3880	-8352	14749	-9756	-4575	-12272	4276	11320	-1576	1009	-3525	-16832	768	-104	7207	6341	3210	-15404	2004	740	12647	15254	6733	127	136	1
-19980	-8444	10020	-3635	-32768	-27181	-13196	696	-5972	-4093	-32768	-9051	-8712	-1164	-9396	22831	-9520	-4226	-11924	3488	11064	-1397	253	-3953	-16808	-36	-488	2400	5610	2475	-15928	1900	360	10214	15139	7251	126	137	1
-18908	-8244	9784	-4395	-32768	-23600	-17144	2588	-5456	-4728	-32768	-11771	-7484	1672	-10076	22921	-9291	-3585	-11096	3352	11836	-2242	834	-3417	-16392	-2396	-1336	258	5926	2292	-14832	-1248	1452	7461	14831	7263	124	137	1
-20872	-9924	12228	-5110	-32768	-22921	-20932	4736	-8264	-2124	-32768	-13557	-8096	4128	-8560	16866	-6003	-2819	-11348	2952	12096	-2254	1025	-3122	-16492	-3852	-1012	5934	8536	2860	-15276	-3916	2236	4987	16969	7919	130	134	1
-29764	-6392	17508	-10989	-32768	-26070	-26048	10068	-11000	-3873	-32768	-13616	-8900	5040	-6320	8222	-2609	-2194	-12100	3328	11560	-1132	1405	-2124	-16728	-600	-396	8392	10802	3710	-17176	272	2664	-200	17115	8520	130	136	1
-32768	-7144	18348	-17309	-32768	-29640	-27816	11200	-16432	-11557	-32768	-16192	-9348	7280	-1916	8438	-848	-1763	-12008	2920	11520	-1050	1262	-2379	-15644	784	740	5351	12233	3275	-19208	4336	2800	325	13636	7163	126	133	1
-32768	-1280	13556	-18989	-32768	-31451	-29592	7420	-19724	-16207	-32768	-16062	-12132	-404	3380	57	-1599	-2905	-12048	4104	12040	-1228	1653	-2991	-17404	1540	1680	553	12842	2127	-19468	2884	4480	1985	9306	4956	127	134	1
-32768	1756	1796	-12548	-32768	-27915	-26392	7912	-21272	-9734	-32768	-14139	-19436	-2584	14700	-5792	-793	-7410	-12036	1284	11856	-2300	2276	-3602	-17824	1968	1516	-1076	14605	1750	-17764	1780	6916	1628	8981	5496	122	135	1
-32768	9348	-12592	-4863	-28616	-21037	-18808	5804	-25528	-7311	-25088	-13168	-21260	1252	25904	-5928	-7394	-9873	-12796	4076	12616	-2480	3658	-5445	-18396	844	-48	-2514	16805	1107	-17540	436	5060	3349	8506	5451	122	134	1
-32768	31376	-27780	-12421	-16865	-11109	-4264	9800	-26900	-4925	-8693	-10255	-16236	-544	31196	-8165	2935	-7211	-9276	3544	15896	-4651	7079	-6263	-19196	-3752	-2156	-2205	19302	10	-17116	1488	2124	5100	6964	3808	118	132	1
-32768	26700	-27864	-17586	580	-5229	-3644	5032	-22472	-3072	12267	-2601	-13268	-2952	25212	-5559	-5948	-521	-12512	1008	15596	-5300	13079	-6922	-20700	-3556	-4380	-6140	19970	-49	-20012	1980	-692	4967	4351	2302	137	128	1
-32768	8352	-12584	7476	15729	8282	-11512	7592	-21492	6531	21622	3426	-13052	-7784	11092	-4532	-1551	-760	-10928	3672	17224	-6082	18973	-8888	-22844	-5064	-4272	-8798	19533	597	-21068	-24	764	5663	1997	1055	131	125	1
21712	-23956	32767	13655	27095	11731	-32768	-6340	32767	-12090	15373	4064	-12968	-2748	-5168	-1636	14701	-879	-9568	2172	18428	-6420	26781	-10395	-26408	-6876	-2392	-6952	20350	1613	-24996	-2052	7140	6302	-4147	-1132	127	122	1
-8832	10080	-756	16114	24740	17279	624	19296	-11604	32767	2946	-1237	-26772	1092	4964	4278	3978	5048	-7148	3472	19384	-6530	32767	-10935	-27676	-13728	5888	-65	23937	2225	-22612	-9820	13828	-463	-13087	-4125	124	126	1
-21096	-1864	22864	-3052	32475	-4898	-20208	15668	868	12385	14332	11185	-14772	3928	13588	32767	522	1771	-6496	10944	21712	-10169	32767	-11857	-30940	-17028	13652	7066	27343	3855	-18972	-26924	15108	4192	-14608	-15229	128	125	1
-21416	6512	20772	-7732	20678	12388	-23328	12148	-4880	4243	16670	1150	-18636	13800	4440	13286	14234	1739	-16388	5484	17788	-10807	32767	-20944	-30808	-10748	12284	8379	28671	4317	-20652	-14792	14160	10174	-19776	-17729	133	127	1
-21188	-29036	7540	-658	14798	6096	-23732	-3524	-5880	3141	18844	51	-21648	-900	-4984	-15438	13488	3806	-32768	-3168	3256	-5263	32767	-27655	-26224	5464	-13916	2416	30728	5032	-18544	6696	1916	32767	-9225	-15374	128	126	1
-15520	-2268	10124	9571	6473	7246	-15560	-2464	-9188	13288	12331	-283	-14188	-16752	-9376	-12483	13517	-6310	-32768	4320	10116	-7509	32767	-32072	-27344	6652	-12340	-5686	24882	3373	-30496	11172	-14348	32767	-7200	-8251	128	129	1
-12776	-8056	10936	7828	4699	6927	-15096	4292	-6960	3090	11765	1533	-14124	-6044	-9312	-3249	11432	-5714	-32768	14040	25264	139	32767	-27641	-21556	7260	-8552	-12119	18428	857	-32768	3696	-17544	9749	-22120	7206	126	136	1
-12000	-4952	12204	6794	2125	6211	-17248	4560	-5300	-3371	10643	232	-15952	-4880	-5792	-1530	9829	-3170	-31004	-48	20732	-2182	6338	-24178	-16876	4012	-10832	-8860	9625	1292	-29528	5604	-5848	579	-32768	1746	136	133	1
-11652	-3248	13348	3378	918	3391	-17556	5416	-3152	-3416	9073	449	-16840	-2964	-440	1399	11755	-1685	-14624	7036	18940	7318	-26120	-8924	-8444	-8	-3404	-663	1903	-782	-28064	820	-444	1037	-30943	-559	134	138	1
-10928	-4584	12672	1250	1400	1257	-17900	2836	-1524	-179	7571	53	-16952	-3004	548	1142	12305	1760	-2496	13252	14400	9944	-32024	-349	-7552	-1796	376	5115	-5296	-2022	-23432	1028	-7908	5654	-20102	1558	131	120	1
-9648	-5452	11652	477	959	443	-16460	1460	-944	2842	6198	248	-15684	-3064	1608	1678	12121	1006	668	10384	10120	6870	-32224	3692	-5412	-1848	-308	6274	-12525	-4203	-19704	2916	-8372	4062	-18399	2368	131	117	1
-9176	-6492	10956	831	714	620	-16420	416	-436	3845	5453	278	-15396	-3784	1432	1043	13810	-1325	-3528	8372	8784	3346	-30878	8750	-5684	1844	-2352	5970	-19469	-6179	-15604	3048	-9048	-1568	-18092	2476	126	114	1
-8816	-6988	10444	1282	514	1654	-15848	1676	-1564	3147	4925	984	-14344	-2240	-36	-2778	16317	-3012	-6712	4904	9136	4397	-32768	13165	-6308	1352	-3096	4975	-25698	-7596	-13860	3540	-9052	-6716	-17844	1465	124	119	1
-9052	-5696	10920	1760	486	2279	-15500	3492	-1524	-2704	6299	778	-14616	-536	468	-4036	14185	-1666	-9644	2432	9652	8189	-32768	15112	-8340	300	-3192	8363	-30404	-8071	-12356	3944	-8692	-10026	-16937	864	126	120	1
-9956	-4616	11624	1549	776	2271	-15956	4188	-1164	-4763	7047	247	-15164	-716	992	-5960	13493	-689	-14020	1816	10524	12904	-32768	15556	-9988	1348	-4288	10117	-32768	-7823	-9456	4608	-9352	-15331	-14461	201	129	125	1
-9480	-4616	11552	1603	976	1809	-16072	2464	-492	-1494	7151	-111	-16012	-2008	2040	-6772	15235	31	-18256	800	11144	18424	-32768	16426	-12100	1284	-5108	9818	-32768	-8358	-7336	3384	-10448	-22348	-13513	-1374	125	131	1
-9584	-5468	11424	1316	795	1646	-16344	1320	-792	2465	7724	291	-15628	-3044	1592	-3418	17577	-1292	-17052	2884	10912	22876	-32768	17973	-14796	-1492	-3800	9389	-32768	-7564	-6516	3424	-11548	-27199	-13380	-2225	121	124	1
-10124	-4700	11820	734	969	1548	-16244	3444	-2596	1280	8062	734	-14760	-1464	1292	2341	20163	-3918	-17316	2708	11704	25142	-32768	19888	-19744	-2476	-7584	7744	-32768	-5377	-6488	1688	-11300	-23243	-10851	-1768	127	122	1
-10460	-4536	11868	20	1432	1026	-16576	4200	-2496	-2949	8933	838	-14916	-1232	140	4014	20769	-5238	-27448	3216	14484	25176	-30443	22227	-22360	-1244	-12432	11062	-32768	-6375	-8512	-4528	-7128	-13730	-9559	-3279	127	125	1
-10160	-4828	11664	-633	1813	643	-16076	2452	-608	-3078	9197	884	-17812	-3832	-772	284	16253	-3162	-32768	2504	18380	22408	-30756	25030	-29388	-3140	-15148	12501	-32768	-3407	-9860	-9516	-3772	-7130	-8823	-4526	126	124	1
-10128	-5216	11816	-699	2372	835	-16704	532	140	137	9442	1477	-20032	-5216	2012	-110	10899	-1619	-32768	-8416	14060	23043	-32768	32767	-27160	1060	-20232	18203	-32768	-2211	-9292	-3860	5088	8898	-5453	-529	125	123	1
-10360	-5636	11952	-658	2992	1293	-16984	816	-320	2708	10551	2617	-17912	-2404	6368	215	9492	-3287	-32768	-11100	6452	20633	-32768	32767	-28972	1804	-21208	14869	-32768	-2107	-15132	2552	8044	17558	2	5878	126	126	1
-10660	-5708	12340	-815	4181	1955	-17300	868	-464	1780	13061	3529	-17416	-960	6844	-4955	9594	-3294	-32768	-20092	-4264	17341	-30313	32384	-23012	-104	-20532	12421	-31707	-915	-19652	-1248	16404	5933	-3015	8248	128	122	1
-9392	-5944	14212	-168	7673	3261	-19048	856	1216	2397	15422	4526	-20036	-3124	5072	-8295	7426	-2840	-32768	-19684	-19164	10974	-19529	23740	-15748	4216	-23404	6687	-19448	3135	-17644	-2612	21624	976	-1032	9710	128	117	1
-10848	-4964	14252	268	10443	5088	-18400	2628	24	7273	16948	5516	-20032	-4396	5392	-8104	3476	-1979	-32768	-32768	-27024	8851	-6810	11204	-8220	3228	-23032	4348	-3717	6739	-11704	-7520	25904	278	3241	5752	128	114	1
-10556	-5520	15148	536	16342	6874	-20276	4816	-2840	9785	18458	6089	-19020	-5516	3056	-6761	2236	-662	-32768	-29288	-21056	9924	6482	3436	-7940	4760	-23040	-2643	11266	5321	-14272	-508	22328	-50	-3902	2300	126	120	1
-9320	-6192	15764	628	22926	9322	-21700	6708	-3228	8320	19664	5906	-19820	-3284	1096	-7577	1934	966	-10584	12648	6140	-12341	11325	1458	-16564	1020	2680	-7873	19882	2590	-14448	2060	8504	-1965	-49	4230	124	122	1
-8264	-5368	15024	386	28411	11840	-21948	8296	-2228	5498	20448	5312	-20904	-224	3700	-8438	-1476	2213	11180	32767	32767	-5220	4511	-7192	-32768	-26348	32767	-6213	3905	1369	-14384	-2904	-4696	-16641	18282	5394	123	113	1
-7792	-5596	16480	1476	32767	13079	-26168	8340	728	3880	21530	5714	-25528	-1008	16320	-6688	-13529	3370	-15220	-28692	-3936	-22616	17243	-18273	2248	-12520	-17608	-32768	3110	2970	-23384	-9752	6592	-15977	13429	-1437	133	131	1
-5812	-8744	17520	1431	32767	15125	-31772	11620	13800	-4648	23666	6523	-16464	15892	20932	-5951	-18450	3849	-16540	48	23748	-3926	24640	2014	-32768	-11400	-3836	-17774	11816	397	-16516	-10140	6936	-28768	6904	-3142	121	142	1
-15616	-13160	14188	188	32767	21144	-26084	6300	10012	-17674	30229	3155	-20740	15064	12816	-15041	-14440	8046	-26632	-1552	16480	3035	17778	-13360	-20248	-5388	-5536	-13181	13349	4021	-15864	-16248	1220	-4673	12061	-220	120	130	1
-32768	-11412	4656	-1597	32767	27273	-26568	-1812	-13116	-10624	32767	5106	-21752	-748	-9600	-32768	-17049	8766	-14132	15576	10696	-3666	13802	-6370	-21324	2320	-2084	-6924	13660	7908	-18144	13288	-6216	10324	12075	1688	129	127	1
-32768	-11048	13676	-1755	32767	28196	-27568	4340	-7048	116	25563	7505	-26864	-12424	-17704	-32768	-19383	2769	-13816	2380	13268	-9373	6196	-8452	-17804	5868	-4936	-12954	9764	5495	-18768	15444	-6628	-3141	9758	10491	124	141	1
-30548	-9964	21676	-12525	32767	21174	-20164	3296	-7024	-4394	22116	7811	-27792	-16536	-13444	-3195	-22703	-3788	-15176	4068	12096	-7678	3527	-6829	-17408	-1132	-5004	-7477	8995	3557	-16024	2200	-3796	-5724	9320	9005	135	131	1
-2920	-16124	22324	-11085	16108	15924	-15844	-680	-11384	-1870	14068	7112	-28096	-8848	-6736	9673	-23391	-3001	-13116	2000	13184	-5185	1933	-5272	-17608	-4392	-3996	968	9600	3583	-15344	2776	-3748	-913	10575	5824	132	141	1
-13900	-24024	22076	-5248	-27278	1846	-6288	-5116	-9788	-3678	3126	2697	-25288	-3188	-3172	10906	-22491	-4545	-12368	3360	12756	-3606	1418	-4272	-18012	-1032	-2752	5658	9887	3987	-16268	800	-1416	656	10620	5098	123	134	1
-1996	-15296	16316	-3523	-32768	-6374	-11072	-1528	3052	-10524	-5219	-978	-22432	-4292	-5716	5492	-20006	-5922	-11468	2836	12732	-2832	920	-3067	-18292	-704	-2140	1698	8201	2914	-15808	2936	-2476	1529	11168	3790	128	122	1
3156	-9684	10460	-3564	-32768	-4926	-10476	-1536	2820	-5437	-15566	-4547	-19264	-4240	-6436	8537	-18376	-6210	-11448	4200	11616	-2978	755	-2771	-17656	1192	-2700	-3867	5425	1889	-16364	4884	-3576	-1405	12443	4365	129	128	1
-1156	-7996	7316	-3245	-32768	-4465	-7156	112	-80	317	-23932	-5917	-15932	-2324	-6628	12134	-16816	-5827	-12056	1948	12080	-1604	-50	-2184	-16564	-2940	-2996	-4593	4022	1187	-15684	-128	-3052	-7510	11800	5239	128	130	1
-5908	-9544	7992	-3154	-32768	-10101	-7548	2576	-3856	1234	-30860	-5715	-13740	-1660	-6828	15555	-14924	-4985	-10684	2600	12288	-445	93	-1472	-15160	-5212	-1052	2059	5227	2186	-14536	-6408	-396	-3939	11944	5802	126	132	1
-12356	-9224	9020	-2415	-32768	-17779	-10728	4124	-5700	-3694	-32768	-6310	-13420	-1860	-6580	17504	-14167	-3607	-10160	4356	11752	-39	627	-1423	-15372	-3396	1632	7951	6975	3286	-15140	-3332	2236	5967	11992	5187	122	130	1
-15544	-7732	9124	-2889	-32768	-23845	-12328	3620	-5396	-4737	-32768	-7868	-11568	-1280	-7620	21143	-13673	-3206	-9624	6156	11280	-1302	1449	-2693	-17276	232	1316	7822	6785	3995	-15260	1280	564	9561	13760	6263	109	131	1
-15800	-7268	9172	-3305	-32768	-24659	-12704	3916	-5072	-6310	-32768	-10150	-9472	908	-7804	22458	-13201	-2211	-11148	3796	12148	-3416	1319	-3053	-16888	-100	-988	1745	5519	2863	-15060	920	-1160	8292	15117	7417	120	134	1
-18128	-7932	10976	-7296	-32768	-26306	-15432	2932	-6140	-6293	-32768	-12648	-7132	2664	-8448	18168	-12138	-1207	-12012	1480	12456	-2658	918	-2500	-16688	-3116	-2996	1567	6041	2797	-15556	-1140	-1324	5377	16619	7888	124	132	1
-19248	-8980	13720	-5957	-32768	-25530	-19824	4796	-7256	-3184	-32768	-14088	-7556	3120	-6428	9735	-9253	-1153	-12456	1624	11952	-806	1182	-1606	-16356	-3268	-2448	6089	7722	3120	-15076	-2972	2492	-841	18819	8782	127	133	1
-24632	-4996	18860	-9051	-32768	-26563	-22992	9144	-9520	-3611	-32768	-13516	-9096	2608	-5216	1297	-5792	-1254	-11104	3776	11764	-388	1349	-1507	-17004	-936	216	8946	9427	4089	-17576	1960	644	-1620	20680	9143	128	135	1
-32768	-4176	20056	-16903	-32768	-28691	-24508	10764	-14216	-12570	-32768	-13624	-8632	3644	-3176	-1282	-2465	-2012	-12076	2956	11656	-1113	1236	-2281	-15476	876	1900	4994	10257	3292	-20440	3576	2152	1203	12856	6965	126	132	1
-32768	-3952	16552	-18262	-32768	-28495	-28592	7968	-16960	-19268	-32768	-14402	-9612	-76	380	-3356	-3166	-3169	-11780	4264	11696	-1347	1147	-2772	-16044	564	3524	2556	12348	2632	-19520	1188	7596	2232	8564	4175	124	132	1
-32768	-2164	6812	-12630	-32768	-24785	-26872	8188	-19788	-14580	-32768	-13825	-14180	-8120	7112	-8506	-3063	-5941	-12048	3880	12208	-1990	1231	-3979	-16676	1168	2008	1258	14832	2102	-16856	-692	8048	1206	9395	5461	125	132	1
-32768	6236	-6228	-5820	-30952	-19045	-22040	8956	-22616	-10334	-28826	-12255	-20380	-2936	18564	1161	-5519	-9868	-12520	2992	13164	-2562	2494	-4641	-18904	-556	-608	-59	16829	1325	-18112	-1236	1900	1746	9155	6591	124	133	1
-32768	16600	-19268	-6525	-19691	-12437	-12104	8148	-25936	-3805	-17826	-10869	-14896	-644	26476	2242	2800	-7075	-12096	3024	14548	-3413	5726	-5191	-18332	-2148	-1840	-1646	18552	925	-18020	376	812	6461	7272	4830	122	132	1
-32768	30412	-26752	-13292	-4619	-7399	-3824	8684	-24116	-1509	-137	-4867	-12056	916	26184	-4153	-1388	1259	-12732	396	15456	-5273	10574	-5495	-20152	-2504	-3804	-5387	19555	-63	-19824	3544	-1240	5123	3496	2835	117	130	1
-32768	15268	-20512	691	11348	1905	-7852	5436	-22060	3831	13975	1495	-15292	-7344	19604	-72	-6216	855	-12076	3752	16500	-6640	15259	-7327	-22416	-2312	-4960	-9286	19423	-473	-19564	3844	-328	4009	2615	1215	117	127	1
22420	-5104	28860	23333	6448	7679	-21964	2828	6728	-7561	20971	6099	-15312	-6104	3052	-222	1837	-261	-10456	3956	17144	-7518	20799	-9411	-24236	-4704	-4512	-8389	18900	610	-21348	868	284	5258	2930	492	116	125	1
20556	-21772	32767	4914	16729	4344	-32768	-3196	32767	6521	6038	-1389	-18472	2356	-2416	1905	13349	417	-9036	2012	17668	-8478	27903	-10296	-26136	-6676	-1456	-5012	20049	1043	-25460	-1852	7356	6228	-5085	-208	119	126	1
-16400	16796	5980	13701	23137	16575	5168	25944	-11808	29561	5598	2027	-24080	1044	10908	9564	2731	2679	-7220	4356	18736	-8957	32767	-11601	-27072	-13752	7388	662	23352	1785	-21308	-11968	14292	-616	-13331	-3833	126	129	1
-20412	-6072	20028	-587	28098	1970	-26432	12124	-2992	8461	15557	7819	-14540	6900	14852	25133	8372	1269	-6864	7876	20848	-10147	32767	-14612	-30976	-21212	14216	10808	26674	4231	-20580	-28228	15632	4372	-15132	-15986	122	125	1
-24952	-1516	18744	-6648	17098	11932	-22896	7140	-5948	-362	18438	2066	-19592	15316	2980	4654	12616	4025	-26428	10480	27640	-12413	32767	-21528	-28816	-6112	11048	14643	29521	4359	-19664	-11184	12788	12853	-18081	-16741	127	130	1
-17496	-20864	8660	719	12829	4932	-22424	144	-5168	4791	17448	151	-21084	-6792	-6684	-16474	14101	1750	-32768	764	2360	-9370	32767	-29438	-28400	8028	-12456	2148	30578	3171	-18628	9504	-1380	32767	-8346	-14980	124	129	1
-13460	-4492	14252	6985	4909	5778	-15548	-408	-6176	11952	11518	647	-13320	-17728	-8228	-8455	15333	-6832	-32768	4568	16700	-9067	32767	-32768	-26324	3520	-7860	-10080	20942	1444	-32268	9640	-14496	32767	-8302	-6183	130	132	1
-10540	-9000	9788	6578	3541	5798	-15368	2376	-5312	5636	10577	1310	-13924	-6316	-9060	-683	12849	-4285	-32768	12600	27512	1722	32767	-24802	-20264	140	-8120	-12696	17643	-260	-32768	1304	-17072	6359	-24898	4958	130	137	1
-11812	-5204	12188	6094	1662	6357	-16248	4304	-4836	779	8810	318	-16360	-3952	-5036	1708	11192	-2455	-32768	1192	19484	-1763	6137	-18455	-15472	2248	-10628	-5024	9761	762	-28520	1000	-4744	-328	-32768	-106	135	132	1
-12400	-3184	13208	3060	809	3724	-17840	5404	-3112	-1383	8020	484	-16736	-2896	-1268	3211	14012	-2004	-14896	8848	21680	7659	-28491	-2310	-9384	452	-1716	3840	1771	-1057	-27384	-1024	80	3502	-30475	-1036	134	126	1
-10380	-5088	11592	2088	752	2274	-17360	3132	-1552	712	7039	-202	-16248	-2420	16	2284	14630	976	-768	12084	14616	10035	-32768	2930	-8024	-1284	2176	8745	-6191	-850	-24548	844	-7816	9036	-20313	1206	128	116	1
-10308	-5392	11756	2039	977	2072	-16220	3840	-1500	2703	5549	-339	-15600	-1780	560	3193	14373	858	2684	9544	10256	9795	-32361	4256	-6192	-332	980	7878	-14604	-2196	-18360	2812	-9616	6431	-18376	2036	122	120	1
-9524	-5436	11412	718	1109	306	-16792	2716	-1228	2452	5081	-583	-15932	-1912	528	1653	16181	-71	-4304	7668	8424	9266	-30363	7418	-5608	2496	-2256	6611	-21640	-3671	-15296	4076	-9396	326	-18139	1911	123	115	1
-9064	-5772	10896	768	1171	532	-16084	780	-20	85	5648	217	-14932	-2508	1916	-2026	17729	-1951	-9308	6476	8496	10685	-32508	11289	-6980	1492	-3316	5949	-27738	-4464	-12688	2672	-9928	-5661	-17684	807	124	118	1
-8836	-6624	10336	1699	1039	1894	-15680	120	-132	-2523	6819	398	-14680	-2620	2972	-3123	17872	-3732	-11284	4940	9324	12089	-32768	14997	-8328	-104	-4212	8014	-32768	-4653	-10972	3192	-9424	-7650	-16181	679	127	120	1
-9544	-6420	10856	2549	700	3190	-16052	704	-404	-1852	7109	1041	-14176	-648	2476	-2043	18206	-4662	-15368	2300	9624	16177	-32768	20294	-9560	60	-4976	10580	-32768	-4457	-8692	3744	-9952	-11374	-13703	735	132	126	1
-9848	-6336	11024	2644	547	3286	-15416	4924	-1348	-1514	8070	1371	-14812	1324	3880	-2171	19234	-3824	-15772	3172	10832	18845	-32768	23889	-12176	-260	-4420	9517	-32768	-4858	-6740	4144	-10588	-16685	-11675	-720	127	127	1
-10072	-4192	11828	1176	741	1307	-16244	3700	-372	-2095	9661	1164	-16600	-1476	32	-3583	19070	-2729	-16264	3136	11288	19172	-32768	24303	-16340	-744	-4620	7739	-32768	-3916	-5864	5200	-11892	-22874	-10705	-1371	123	122	1
-9884	-5276	11248	839	1063	1165	-15980	1408	-996	-392	9640	1064	-18080	-3900	-3564	-513	13932	-3185	-17928	2020	12440	22017	-32768	26466	-21392	-2908	-9168	5628	-32768	-2781	-6756	3108	-11712	-22652	-9676	-1293	122	123	1
-10280	-4728	11480	660	917	1573	-16720	2572	-2072	385	9176	1759	-16724	-3504	-264	631	11275	-3861	-32612	1864	17532	26261	-30189	27153	-25120	-924	-13540	6512	-32768	-5014	-8720	-3764	-5872	-16009	-10271	-3263	124	124	1
-10376	-4456	11628	211	1180	1718	-15900	3404	-1356	-1862	10017	1979	-15600	-2216	2960	-3261	13050	-3164	-32768	-3188	21348	22891	-32768	27584	-31192	-7144	-14460	12589	-32768	-4263	-10936	-8224	-1872	-10880	-9694	-3495	126	125	1
-10404	-5148	12152	-264	2136	1533	-16904	1364	112	-1871	11449	2567	-18336	-2616	3212	-4038	11400	-1985	-32768	-8532	12808	21161	-32768	32767	-27796	-872	-20640	21895	-32768	-2781	-11268	-1564	9428	11694	-7254	1267	123	126	1
-10588	-5312	12312	-400	3166	1980	-16936	912	808	1275	13070	3551	-18448	-3568	4648	-2704	8906	-2927	-32768	-10836	1356	12911	-32768	31938	-27076	3168	-22000	15594	-32768	-1308	-19140	-1068	10820	13254	-114	8251	121	122	1
-10552	-5448	12576	-448	4669	3212	-17852	-24	-644	4619	14726	4584	-17624	-2608	6076	-5821	8127	-2731	-32768	-21900	-12592	14094	-27253	27677	-19016	4880	-22048	9811	-26033	1293	-16408	-5092	18848	5542	-1092	6011	123	118	1
-10836	-7752	13228	805	9256	5862	-20312	2988	-900	5959	16217	5367	-20748	-1708	3920	-8118	6412	-2258	-32768	-26996	-26548	11887	-12633	17242	-10636	1160	-25140	5901	-12018	6724	-15016	-7272	25892	-2147	2036	5330	125	124	1
-10500	-5480	15280	1059	13631	7074	-18552	4396	-508	7923	18636	6150	-19676	-4720	4940	-7429	2952	-1121	-32768	-32768	-25432	10617	3669	9125	-6252	4728	-24388	-997	4611	5748	-13596	-3868	25068	1189	-1796	3786	122	120	1
-10580	-5952	16036	1605	19902	8854	-21244	5876	-2528	9477	20100	6739	-19560	-4460	3476	-6925	1303	168	-32768	1848	-7652	-25467	8458	-3875	-15836	-2284	-9584	-13908	12176	2584	-15508	2856	13696	-195	-245	5731	122	123	1
-7960	-5120	16660	1956	26525	12100	-23424	7100	-2788	7651	21060	6467	-21792	-3224	5068	-8205	-1287	1830	14060	32767	32767	-13120	16562	-9670	-32768	-18328	29336	-24191	-320	950	-20084	-1028	-3968	-7668	14763	8153	127	115	1
-7816	-6948	17440	2514	32767	15797	-23924	7248	-2364	6846	21306	6465	-26120	-2832	18084	-7065	-13026	3152	-10084	-32768	760	-16676	25470	-7427	-1880	-25320	-14980	-32768	7488	-1185	-23828	-8100	11840	-23768	6660	-37	131	123	1
-5176	-8476	19084	3940	32767	18873	-32768	9740	14916	-4266	25663	8380	-26048	-2052	21212	-5257	-16583	3472	-29640	-14408	27404	-1670	23978	-9667	-5968	-27464	-9988	-30711	10201	-4068	-16048	-21232	9708	-28803	11468	-8724	118	133	1
-13836	-9304	16156	6296	32767	26280	-29472	8588	12612	-12777	29492	4565	-24684	17196	12284	-8549	-17492	8059	-26092	16664	9792	4848	16010	-11978	-21668	5804	-3176	-5997	19775	7105	-11444	-10076	-164	6608	13462	-1449	119	125	1
-32768	-7172	8796	-615	32767	31404	-25904	920	-13880	-10843	32767	4902	-22440	508	-5156	-32768	-15399	8948	-8432	2800	9020	-16055	4112	-13294	-21104	19324	-7008	-14876	13799	9686	-10452	-660	-1332	16587	16543	-1042	131	122	1
-32768	-12064	14336	-1258	32767	28275	-29512	2028	-4972	-2225	27295	8754	-27268	-11312	-18224	-32768	-19208	4120	-16180	13784	7828	-9434	698	-11704	-16856	3620	-3992	-16886	9176	3409	-18624	17648	-10128	-14978	7008	11314	128	149	1
-29788	-14184	26928	-7601	32767	25785	-20864	684	-7364	-3130	22802	6553	-27664	-15160	-16564	-5580	-22631	-5529	-14100	-3080	14164	-9117	388	-10782	-16248	-5512	-6620	-10830	8993	2134	-17136	-5344	-2116	-14520	7245	8866	134	156	1
-32768	-8720	18516	925	10236	21997	-13316	1748	-11428	1460	11543	5506	-28168	-7952	-5948	12734	-25595	-3800	-12356	692	14164	-5544	613	-5188	-18896	-6880	-4760	3759	12269	3745	-16000	-3068	-3548	-1536	9398	4687	133	139	1
-9116	-13372	20712	-1595	-30596	-1170	-6236	-1904	-1440	-4456	1354	3677	-25208	-544	-2932	10269	-24201	-5168	-12472	1396	12828	-2786	500	-3235	-16752	-2032	-3912	9531	12228	4289	-16596	120	-2800	209	10838	4746	132	128	1
5168	-12772	13444	-5592	-31373	-8859	-10016	732	3940	-8539	-6446	-2402	-21880	-3400	-5668	1831	-20160	-6966	-11836	1272	12392	-1441	429	-2259	-16964	-1472	-3728	9334	11873	4110	-15484	1348	-1688	-636	10709	3220	126	125	1
1236	-10812	8864	-5701	-29111	-9964	-7064	-1896	800	-3938	-15314	-4352	-18376	-3784	-7504	4083	-18592	-6807	-11672	2492	12100	-1193	361	-1449	-17696	584	-2372	-3709	6488	1855	-16276	1380	-2196	-4331	10751	3237	129	128	1
-6948	-11272	8096	-1211	-31946	-12926	-6080	-1576	-3404	2852	-23935	-6174	-14452	-564	-7668	8979	-17035	-5823	-11080	2368	11780	-1582	276	-1294	-16276	-3672	-1492	-3839	6002	1813	-15948	1092	-1916	-5004	10458	3382	137	129	1
-7148	-6448	8896	451	-32768	-17567	-7288	3420	-4192	2177	-30678	-6623	-13020	-2520	-7396	12345	-15702	-4995	-10620	2532	12112	-1743	527	-966	-14956	-4492	-296	2826	7209	2912	-14584	-3568	-620	-2129	11344	5402	127	133	1
-8448	-3404	9988	-2809	-32768	-21583	-10324	5124	-3928	-3849	-32768	-7075	-12404	-5004	-6968	15237	-14448	-3892	-11068	3204	11696	-1845	792	-1584	-16244	-2380	-1332	8823	8109	3769	-14672	-2480	-564	8301	13309	5554	119	129	1
-15028	-3432	10668	-7084	-32768	-23271	-11492	3460	-5180	-4562	-32768	-8757	-11368	-3048	-8292	22280	-13195	-3127	-11484	2868	11836	-2233	131	-1747	-17268	-528	-2424	9396	8112	3600	-15536	2244	-1932	13094	16090	6083	122	131	1
-17356	-3824	11216	-9043	-32768	-22429	-12456	4692	-5316	-4687	-32768	-10439	-9196	1528	-8848	26732	-12982	-1416	-11796	1460	12496	-2231	197	-919	-17348	-548	-3304	3603	6874	2833	-15572	2292	-2948	9322	18269	6626	122	132	1
-17248	-5376	11312	-9213	-32768	-20807	-14836	6552	-6064	-7682	-32768	-11936	-7764	2928	-8692	20961	-11984	-1049	-11164	1800	12732	-1081	770	-464	-16716	-2740	-2228	-245	6533	2510	-16636	-872	-1800	4831	17763	6697	119	129	1
-19204	-7628	13776	-6980	-32768	-21320	-18068	6444	-7336	-7666	-32768	-12880	-7088	2052	-7232	10585	-8338	-999	-11192	2844	12480	-301	1184	-601	-16776	-2764	-1148	4375	7483	3330	-15244	-1940	1256	4170	17116	5740	121	129	1
-26804	-6160	19212	-7529	-32768	-25590	-22244	9592	-10388	-7106	-32768	-12797	-8452	3192	-5688	2544	-4296	-1081	-11260	3760	11880	-715	938	-1599	-16696	412	-372	5899	8101	3593	-16148	340	3476	-1184	18271	7945	125	130	1
-32768	-6192	21112	-10826	-32768	-29789	-27952	10072	-13268	-10245	-32768	-13277	-8588	4348	-3248	-194	-1523	-1207	-11440	2644	12064	-1030	1056	-2498	-16512	-48	944	3739	8962	2656	-18012	1468	4816	-2992	16696	9364	126	129	1
-32768	-980	16776	-13186	-32768	-28375	-29336	8940	-17952	-13215	-32768	-13560	-10748	908	-312	-1415	-1225	-2636	-11308	3572	12512	-1140	1484	-2910	-16196	-56	3016	2136	11515	1954	-20536	1412	6932	1307	10335	5787	126	129	1
-32768	1512	4264	-11971	-32768	-23765	-26712	8232	-21716	-8891	-32768	-12645	-15700	-6968	6812	-5234	-458	-5152	-11832	2648	12872	-1567	2987	-4205	-17740	1352	2348	256	14268	1576	-19412	-396	8052	3253	7549	4478	128	130	1
-32768	7836	-8860	-6673	-29333	-19394	-25848	9180	-22352	-7702	-32768	-12252	-21192	-2024	19072	2586	-5886	-8618	-12132	2460	14228	-3009	5369	-7109	-19668	-1464	-860	-1650	16414	824	-18888	-1492	5728	3459	8179	5106	119	133	1
-32768	19404	-22624	-7174	-21139	-14985	-9900	7828	-29452	-5477	-15543	-9151	-14380	872	30364	1093	1789	-5971	-12324	1136	15464	-4246	10083	-7376	-19772	-5272	-2196	-2527	18983	90	-19412	-1672	2400	5992	7739	4410	120	131	1
-32768	32767	-30280	-15875	-5369	-10729	-4552	7020	-25772	-3576	5018	-2437	-14320	1672	27656	-6434	-3475	1621	-11364	1572	16972	-6967	14643	-7711	-20700	-3516	-2932	-6829	20217	-213	-19572	1032	1632	6552	4390	1170	119	129	1
-32768	11628	-20832	1021	12676	1721	-9004	3548	-22024	5660	18275	3296	-13460	-5748	17656	-3606	-3447	1498	-9988	2612	17076	-8352	20099	-8897	-22624	-4208	-2976	-9611	20524	-357	-20800	2604	2248	4523	1987	-388	119	129	1
-30624	-32768	32767	15765	-78	8870	-32768	11068	32767	-16704	17638	11096	-12772	-5580	-5088	-4169	11856	-223	-9604	3468	18164	-9270	26506	-10489	-22744	-4412	-2684	-9548	20643	-112	-22708	1204	8184	4579	-3521	-1805	119	127	1
5564	9372	-5588	7074	22366	15476	-7728	9004	-3852	31041	2604	-5004	-27508	1544	5728	-3162	12769	3232	-5084	4520	19456	-10676	32767	-13732	-29104	-9488	6716	-1450	23902	1380	-23664	-6232	15700	-2755	-15341	-4579	129	131	1
-19604	12656	22096	-2437	32767	-3095	-14632	17448	4628	8913	15255	12318	-12764	3092	7536	23824	-133	2938	-5988	8320	21452	-12016	32767	-18751	-32312	-21408	15668	10446	27556	3760	-17392	-25644	16092	2568	-15518	-14382	131	130	1
-19132	15452	21416	-7577	22936	12383	-22920	19032	-4216	1823	17384	1721	-19720	15444	8832	12628	10018	371	-18448	8632	18100	-12268	32767	-26391	-32440	-22004	16712	12938	28223	4220	-18552	-15204	10136	7386	-16515	-16347	127	128	1
-23500	-27352	8956	-4277	16854	9003	-23220	-1372	-6204	408	20077	311	-21332	4080	-2912	-12443	10435	4519	-32768	3008	2892	-6717	32767	-29608	-27636	8820	-10708	9222	32436	4607	-17604	5460	-2584	32767	-6036	-14563	123	128	1
-26868	-9980	6720	6310	8179	6115	-21196	-8132	-11972	9566	15598	-740	-15480	-18376	-5784	-16088	10471	-2490	-32768	3532	15812	-8355	32767	-32768	-26708	7568	-8212	-5118	21558	3493	-32768	7724	-15236	32767	-10143	-6376	120	130	1
-12636	-10628	9592	6777	4431	5696	-16372	1496	-7720	8589	11715	1875	-14040	-13212	-10944	-4914	11580	-5634	-32768	12260	25212	1711	32767	-29034	-20400	384	-8744	-11526	16145	752	-32768	5932	-18192	11337	-23109	7249	132	140	1
-12448	-4548	11712	6959	1805	6131	-15492	2688	-6420	1041	10329	1451	-15600	-6820	-5132	2111	9516	-1876	-32768	-140	15864	-2259	7427	-13688	-13692	592	-11852	-4210	8608	1237	-27272	3168	-4180	1995	-32768	1562	140	123	1
-11652	-4056	12224	4920	1525	4205	-17600	7068	-4356	-1841	9032	1447	-15632	-2356	-2128	6656	13248	-1352	-15572	11880	20200	3731	-27183	6952	-9036	252	-1376	3639	629	-660	-25392	-1120	-2148	3163	-28305	160	128	127	1
-10672	-4740	12008	2903	1507	2667	-18000	4784	-2124	-2634	8821	478	-16664	304	-304	3010	13877	-306	964	11412	13752	3890	-32768	12065	-8548	652	2152	5759	-8114	-262	-22000	1488	-6768	7902	-19716	2155	128	116	1
-10104	-5516	11256	2682	1621	1851	-16376	2368	-1052	1592	7106	-162	-15076	-856	636	379	13163	369	2744	4976	9916	7018	-28774	12293	-6060	792	596	1891	-16964	-1561	-17692	2676	-8876	4962	-16955	3745	123	122	1
-10196	-5696	11428	1853	1497	1493	-16028	2016	-736	6543	4918	25	-15532	-2072	512	-489	14193	-273	-4260	3916	8668	11574	-27894	12131	-5088	1784	-1712	1816	-23557	-2840	-14096	3576	-9524	-1758	-17092	3365	119	125	1
-9420	-5952	11012	678	1506	1232	-16120	2940	-1144	5589	4684	304	-15804	-1508	-164	-230	15908	-1793	-8376	4696	9344	15587	-30673	12647	-6672	600	-2336	4065	-29288	-3419	-12032	2984	-9220	-6788	-16444	2118	122	119	1
-9232	-6208	10744	702	1492	1687	-15220	3208	-1336	-924	6852	745	-15180	-976	372	-2635	16022	-2328	-16544	4492	9652	17154	-32768	14968	-8552	928	-5112	7653	-32768	-3150	-10328	3128	-9048	-9210	-14983	2215	123	123	1
-9852	-6076	11060	736	1519	2214	-16516	2104	-1892	-4254	7706	-161	-14720	-1452	208	-5356	16856	-2165	-16956	3744	9940	18426	-32768	20453	-11048	-636	-5236	9947	-32768	-3726	-8892	3928	-9228	-12367	-12615	2169	133	124	1
-10380	-4564	11516	752	1426	1864	-16556	3508	-2392	-1255	7148	341	-14960	-1172	-340	-6125	19324	-1462	-15436	3920	10208	19238	-32768	25995	-12936	-1192	-3556	8512	-32768	-4622	-8412	4944	-10220	-18014	-11438	1255	126	127	1
-10616	-4484	11508	738	1237	1195	-16736	4280	-2872	-1360	7482	648	-15756	-1696	740	-3497	20553	-1825	-14956	2840	11116	21570	-32768	28707	-17872	-2308	-4320	4974	-32768	-3228	-6908	5828	-12960	-24775	-11291	892	123	124	1
-10632	-5588	10948	691	1380	799	-16228	2828	-1560	-5361	8450	957	-15080	-2024	1072	537	20861	-3724	-22528	1180	14352	23776	-30968	29005	-18312	-2724	-5208	4584	-32768	-2728	-7692	1748	-12104	-25534	-11003	-294	126	120	1
-10432	-5412	10740	734	1330	1171	-15372	1092	-812	-3653	8371	1051	-16444	-2164	1500	2361	18257	-4937	-32768	3772	19264	23743	-28246	29235	-27788	-640	-14712	3212	-32768	-3248	-10664	-6168	-4236	-19460	-14645	-2800	129	124	1
-10412	-5616	10940	751	1428	1693	-15920	752	-24	551	8573	1738	-17912	-3332	2620	-903	13816	-3597	-32768	4468	19876	23233	-28769	29135	-30160	-5196	-14852	7977	-32768	-3561	-10576	-9888	-12	-12346	-11370	-3097	127	123	1
-10460	-5792	11828	854	2044	2271	-17752	1412	-192	1451	10102	2467	-20748	-4468	4328	-2077	11060	-2035	-32768	-9608	11924	20496	-32768	32767	-25816	-996	-20920	19143	-32768	-1063	-10880	-3560	7824	13637	-3982	2412	123	128	1
-10232	-6452	11784	55	2900	3055	-17016	652	492	1733	12556	3248	-19072	-3964	6764	-1991	10381	-3073	-32768	-15264	880	16818	-31511	32763	-25384	-124	-20816	14442	-32768	713	-16784	-2316	10220	12961	2687	8612	124	128	1
-10112	-6472	13464	298	4791	4897	-17492	728	-188	3269	14272	3638	-17752	-1504	6712	-5092	8795	-3052	-32768	-20824	-11932	13033	-23401	26219	-21328	3672	-21804	10788	-25458	4359	-17892	-3684	17072	6399	-1918	6684	126	124	1
-11056	-5660	13440	338	8703	5845	-18188	3040	440	4792	16441	5350	-19340	-1272	5168	-7508	5923	-2549	-32768	-30100	-23796	8732	-9688	13198	-10264	3048	-24856	2832	-12321	7989	-16480	-5188	25624	-1517	564	7601	127	113	1
-11212	-4440	14296	550	12880	7456	-18660	4568	-1268	8247	18556	5883	-19588	-3884	3800	-7353	3082	-870	-32768	-32768	-24100	7909	6050	7793	-4092	3488	-24932	-5468	3838	5209	-11560	-2504	25976	-161	-1948	5641	126	117	1
-10596	-5376	15332	1007	19481	7938	-21576	6916	-3348	9033	20085	6388	-19472	-5184	692	-5858	2009	762	-32768	-23192	-13664	-8195	12522	1642	-10212	1696	-23432	-12281	17872	3218	-17204	808	15772	-4864	-5179	5045	126	119	1
-8536	-4936	15348	1105	26710	10400	-22628	8884	-3296	5894	20758	5907	-20644	-1600	1672	-8108	8	2473	23212	32767	32767	-14426	2496	-10591	-32768	-23768	32767	-7992	8055	-3062	-16732	-536	-8332	-4942	13288	6789	129	136	1
-7324	-5188	17368	427	32767	12435	-26768	7684	520	1926	21449	6535	-25600	-1756	12832	-6103	-9689	3349	-7304	-28792	-612	-28878	13045	-27222	-32768	-23572	32767	-10460	3458	-177	-26052	-1652	6728	-8451	13408	3469	125	129	1
-7292	-8884	16956	1392	32767	15841	-31192	8300	14632	-2687	23933	8213	-18664	8100	17088	-6567	-18639	1855	-11960	-10628	26132	-6192	30978	-1854	-26524	-25040	-4116	-19073	13497	-3856	-12784	-12692	9668	-32768	7105	-7987	127	121	1
-12560	-11108	16092	510	32767	22935	-28784	9512	15136	-10860	28691	5516	-20868	15536	15536	-7673	-16092	7551	-31240	-10996	18928	2972	22611	-14992	-23572	-1860	-6880	-2001	19732	6468	-17132	-31176	-1268	-8253	8887	-3707	122	117	1
-32768	-6632	8532	-1136	32767	27836	-28064	972	-11504	-8532	32479	6551	-22908	36	-696	-32768	-15824	9216	-32628	29880	-588	-12312	6389	-6965	-26976	20496	-8592	-3383	17727	10840	-21256	15920	-10408	30908	13430	-2210	128	124	1
-32768	-12400	10488	-523	32767	29106	-32456	-356	-8100	690	27987	9413	-27824	-12644	-18008	-32768	-17437	4892	-16456	5720	9108	-5614	3617	-7714	-16232	4036	-7600	-10128	12486	4154	-18124	30028	-13996	4375	10189	12961	128	136	1
-32768	-12436	22640	-4043	32767	26620	-22708	3992	-6456	1169	23022	8271	-27428	-17208	-17164	-6686	-21915	-4872	-13164	-2108	13796	-7116	550	-8024	-16512	580	-7064	-10057	8603	2120	-17556	844	-6064	-10779	10300	9721	135	133	1
-27992	-11632	20408	-805	13692	22582	-15880	840	-10024	4222	14069	8909	-26712	-11712	-8280	12612	-24653	-4260	-12940	600	13664	-4177	206	-4630	-18824	-7168	-4720	1957	9662	2898	-19952	-2816	-2892	-4990	9588	4167	138	135	1
-8140	-18032	23664	-2255	-20339	5773	-7808	-2388	-6876	-971	3563	6016	-25908	-1556	-4056	14424	-24740	-3957	-12164	2360	12096	-1972	328	-3110	-17024	-1600	-2468	8950	10104	4148	-15136	-312	-1364	-2066	12897	4783	128	132	1
712	-14056	15948	-3185	-31881	-992	-9784	648	2192	-7049	-4365	1565	-23040	-1628	-5428	6576	-21339	-5721	-11176	3788	11856	-2038	-272	-3170	-17496	1852	-968	4097	8010	3600	-16192	2676	-580	-2075	12713	3312	128	126	1
2448	-9164	10292	-4226	-32682	-2552	-7436	332	1120	-7244	-12800	-1256	-20400	-3672	-7248	6061	-19965	-6619	-10844	4268	11984	-3194	-443	-2539	-17704	1376	-288	-4302	5447	2238	-15984	2468	-216	-6362	11019	2844	127	134	1
-2420	-9176	7832	-3372	-31509	-5352	-5632	-660	-1756	-3632	-20260	-2636	-16108	-2272	-7536	9550	-17776	-6031	-11444	2388	11892	-3570	-485	-1615	-16364	-3712	-1200	-4179	5575	1689	-16720	112	-996	-7678	10592	4814	140	136	1
-7268	-10112	7820	-1133	-32768	-10527	-5976	896	-4668	-2014	-26857	-3987	-13396	-512	-8396	13678	-15903	-4615	-11124	2928	12172	-1639	429	-1056	-15044	-3868	892	4230	8252	2582	-15008	-3912	2552	-1760	8600	6388	122	137	1
-8648	-8144	8596	-140	-32768	-15556	-8296	2724	-5188	-5098	-32768	-5537	-13336	-2164	-7436	15495	-14747	-3738	-10988	3812	11620	-1243	516	-1896	-15968	-724	1292	10111	10587	3506	-14724	-2796	4148	9076	8457	6186	115	130	1
-13072	-4632	10248	-4026	-32768	-20026	-10828	3308	-5896	-7718	-32768	-7319	-12168	-4436	-9132	18098	-13689	-3233	-11348	3344	12048	-1994	-66	-2776	-16844	1492	-392	5121	9922	2458	-14516	-404	2748	16980	12153	6384	118	133	1
-16984	-5152	9196	-9720	-32768	-22348	-11580	3708	-5924	-8379	-32768	-9630	-10196	-684	-9944	24496	-12876	-2317	-11824	2276	12004	-2335	85	-2322	-16604	-1240	-1624	-771	9157	1673	-14720	-1784	3104	11098	15799	8312	115	136	1
-18504	-7608	9580	-10987	-32768	-20713	-13732	3552	-5592	-9456	-32768	-12579	-8556	2988	-9684	24386	-12619	-1205	-10984	3236	12392	-1927	302	-1985	-16860	-2708	-1728	1093	9801	2062	-15104	-908	1692	2677	17676	8382	122	133	1
-19760	-10028	10884	-8407	-32768	-21122	-17560	4328	-7192	-6655	-32768	-14799	-7816	3688	-8248	14263	-9317	-889	-11752	2292	12280	-1682	1045	-2673	-17408	-1384	-4776	2644	9208	2536	-16152	2536	-5204	329	19970	7222	121	129	1
-23024	-8652	15352	-7749	-32768	-25595	-22416	7868	-9616	-3276	-32768	-14823	-7952	3420	-7956	12510	-8592	-868	-12160	1872	12316	-977	1505	-2251	-17300	-1860	-5648	2910	8309	2438	-18456	7080	-9320	1587	18147	5886	125	128	1
-32768	-7548	18888	-12900	-32542	-30770	-27044	10948	-12332	-6898	-32768	-15361	-7892	5208	-3956	-1627	-1554	-1329	-12116	1804	12016	-74	2199	-1569	-16264	-1296	-3828	4549	8094	2769	-15752	4848	-2356	857	15785	4490	125	129	1
-32768	-4560	17580	-15724	-32768	-32753	-29936	9024	-18468	-10578	-32768	-16514	-10772	5132	664	105	-2665	-943	-11876	1784	12092	435	2945	-1393	-16696	-260	-588	3756	9061	2304	-17144	392	3480	-227	12997	3872	123	129	1
-32768	632	8832	-15445	-32768	-31130	-26864	7720	-21892	-9503	-32768	-14654	-13844	-6092	6144	-6562	-3315	-3800	-11924	3680	12196	-272	3677	-2410	-16696	1864	2172	988	10999	1736	-18200	-940	7180	550	8747	4013	127	131	1
-32768	5156	-3176	-8240	-30841	-25542	-22304	9184	-24000	-9134	-31843	-12157	-18512	-4460	17192	-3177	-5010	-8671	-11464	4488	13832	-1948	5642	-4698	-19708	220	1104	-1607	13008	836	-18792	-1240	6932	634	7844	4855	127	132	1
-32768	13772	-16888	-3141	-24045	-16884	-15236	6212	-26120	-7279	-19908	-11106	-16672	-4160	24596	1176	-1276	-9586	-11776	3096	14392	-2893	9391	-6566	-19972	-600	540	-1649	13423	747	-19820	-1380	4452	2762	8656	4729	118	133	1
-32768	30880	-27204	-11736	-11012	-9380	-4376	9100	-26128	-2955	-3419	-6892	-15264	308	25948	-4123	925	-2524	-12208	872	15068	-4992	12900	-7686	-19544	-2804	-2852	-4682	17443	278	-19736	-1440	3888	3545	8617	4298	124	130	1
-32768	19412	-22836	-8253	4189	-2741	-6408	6092	-23644	1692	13068	-468	-11924	-3928	19816	-2266	-3536	232	-11204	2052	15984	-6943	17004	-7500	-21344	-3036	-3128	-7848	18031	-282	-20484	1684	260	6547	5441	1346	118	128	1
-7356	-19960	17808	23584	7222	11292	-32768	16400	12824	-3656	13383	9673	-13372	-5580	2652	-2926	6876	-226	-10752	3100	16188	-7775	22180	-8026	-24004	-3484	-1544	-5778	19315	355	-22384	1840	3560	7422	896	-108	126	126	1
-352	7496	16428	7477	22562	14603	-24144	8396	10712	24350	3400	-2953	-23628	1052	2144	-4715	14039	2000	-13004	7348	17816	-8962	28342	-9769	-25660	-6116	1604	-4203	21037	529	-25124	-372	14204	6604	-8964	-1665	130	127	1
-17696	19672	14628	1188	32738	565	-4460	25084	-1056	17094	12627	8706	-21604	2204	14292	22655	-2602	3653	-7196	5864	19696	-9397	32767	-12881	-29916	-14368	11244	4149	25356	1262	-19716	-11776	15936	303	-15927	-6338	120	129	1
-23540	10584	21308	-5661	25639	9458	-26652	14488	-5804	4783	18487	1473	-12612	15852	13716	25318	12317	3629	-9768	9320	20612	-12986	32767	-21208	-30996	-16660	15340	11731	27741	4468	-20792	-23928	13008	5180	-17267	-16439	121	127	1
-24320	-22128	8024	-6775	16753	9984	-25444	-2664	-6360	2340	19768	456	-19536	6896	-1308	-3592	12045	4582	-32768	-596	11256	-7567	32767	-27247	-30564	-15372	14252	12270	28375	4413	-19168	-6124	8136	15414	-17978	-14652	125	129	1
-32128	-21480	8948	7692	9199	7316	-21772	-11124	-12676	10212	16214	-1499	-17076	-16992	-6536	-17552	10792	-2161	-32768	8492	4932	-6589	32767	-28904	-32768	3728	-13404	640	29041	1672	-26952	8632	-8732	32767	-7625	-11225	126	128	1
-12712	-6388	11096	8526	2416	8035	-15720	3820	-7440	14104	9940	3043	-14296	-15088	-13916	-8015	11798	-7025	-32556	6000	23532	-2293	32767	-29998	-24800	-892	-1332	-5045	18143	1464	-32768	3512	-15488	26549	-14973	1170	126	133	1
-11860	-4140	12012	7353	894	7984	-14696	5164	-6532	2505	9843	1869	-14388	-3448	-8408	248	9607	-4140	-22328	18268	25340	4949	32767	-23906	-17340	1056	-9140	-10000	12488	848	-32768	2168	-16544	19531	-17926	3256	128	135	1
-12844	-3612	12368	5305	-219	6063	-16888	6040	-3428	-2040	8954	376	-15104	-4128	-7764	1033	9865	-4064	-32768	12652	20888	-2197	2945	-2696	-10596	-296	-11016	-2505	5646	-885	-24776	-1996	-3052	864	-32768	-1870	138	131	1
-11056	-3460	12860	3632	-573	3459	-18372	5696	-2260	156	7586	-74	-17220	-268	-364	7152	13614	358	-13444	10860	20756	-726	-29934	10826	-10784	-1276	-720	4841	-2532	-633	-24544	-1620	-3860	5409	-27123	-680	133	120	1
-10284	-4188	12128	1976	92	1650	-17352	4576	-1592	5217	5464	-474	-16196	828	356	4657	14315	1218	-940	6976	14056	3216	-32768	12381	-7112	1040	1600	7420	-10433	77	-21368	-32	-7960	8460	-20561	917	122	117	1
-9972	-5004	11548	1030	155	726	-16252	3248	-1168	8615	3582	-902	-15420	-1652	232	3418	14872	772	-1640	4848	10464	9302	-32768	11090	-6472	476	276	4051	-18966	-335	-17540	1272	-9564	5450	-18833	1571	121	120	1
-9824	-5236	11000	686	123	242	-15728	3456	-1392	7496	3445	-606	-16108	-4004	544	4128	15953	-1274	-4820	4224	8944	12487	-32768	10135	-6092	792	-1192	3159	-25968	-1653	-13948	2588	-9448	11	-18614	891	120	116	1
-9812	-5500	11000	909	136	385	-15200	2292	-812	2025	5090	202	-15592	-2824	2268	3094	16719	-2413	-7504	3488	9024	15303	-32768	10515	-6944	-1200	-2852	4797	-31674	-2338	-12044	2668	-9568	-4073	-17326	94	123	123	1
-9276	-5724	10780	1308	358	869	-15564	1736	-20	-3367	7024	792	-15280	-960	4384	-192	16918	-4167	-12364	1276	10368	18055	-32768	13356	-8040	-2640	-5120	9557	-32768	-2971	-9172	3240	-9984	-7173	-15060	-350	126	120	1
-8592	-6040	10736	2136	333	2033	-15676	1476	824	-5270	8428	588	-13472	-408	4508	-3830	17389	-4070	-16208	-264	11408	22175	-32768	19086	-10236	-2680	-5780	13916	-32768	-3572	-7332	3920	-10368	-11491	-12384	-1177	135	125	1
-9080	-5104	11276	2816	138	3041	-16252	2124	-120	-1677	8512	81	-13576	636	3888	-3030	20462	-4479	-15728	1036	12588	24447	-32768	23847	-13184	-3264	-4300	14391	-32768	-3755	-5996	5000	-10932	-17508	-10362	-2214	133	125	1
-9272	-4060	11992	2171	254	2764	-15600	4400	-1756	2869	7903	866	-15440	1224	1960	107	22524	-4086	-14940	256	13756	26642	-32768	26618	-18688	-4036	-4740	11070	-32768	-2795	-5044	5568	-12076	-21380	-9340	-2236	130	122	1
-10276	-3424	12064	1043	478	2027	-16128	5936	-1956	-1663	10398	365	-17360	-1356	-4536	913	17628	-3230	-24744	-2704	16716	30215	-31557	26751	-23064	-3776	-11260	12716	-32768	-3619	-6504	796	-8728	-16871	-8982	-2582	125	120	1
-10224	-4676	11644	645	821	1781	-16408	1500	-1236	-1589	10627	285	-17448	-4712	-2852	1708	13298	-4285	-32768	3088	19432	26526	-29175	25452	-29316	-3368	-13912	8592	-32768	-3486	-10140	-4780	-2036	-12000	-13264	-4082	125	121	1
-10200	-4252	11416	727	242	2537	-16024	1068	-1032	11	10010	1179	-15744	-3548	3480	-2338	11518	-3754	-32768	-9432	16844	22503	-29854	29150	-29924	-5844	-18272	13986	-32768	-4728	-10564	-6156	9656	-1976	-12949	-3018	128	123	1
-10524	-4828	11940	675	896	2626	-16540	1044	320	-322	11381	2505	-18292	-2372	5312	-4531	10382	-3696	-32768	-7592	8316	16153	-31813	32767	-26068	3360	-20768	16482	-32768	-3814	-14980	-2612	11932	11870	-3950	2530	126	124	1
-10276	-5056	12372	1048	1647	3301	-16400	-296	1492	1314	13874	3524	-18240	-3460	8408	-3797	8857	-4211	-32768	-13360	-5472	4673	-32585	29207	-23116	556	-18880	8894	-31346	-1962	-15316	-3992	14684	6938	2356	5714	125	118	1
-10196	-5848	13308	1407	3488	4530	-18072	580	452	4649	15744	5093	-18392	-3496	7500	-7900	7297	-2841	-32768	-21940	-19496	3898	-20975	22728	-15956	3552	-20904	4662	-19168	1935	-16732	-5208	18380	1448	-250	4078	127	120	1
-11136	-4180	15624	2602	8113	7059	-19952	5020	-1404	5418	17908	5973	-20620	-3484	2720	-8818	5104	-2403	-32768	-29620	-23936	8266	-4628	13648	-10044	2672	-22348	1418	-5274	4937	-15248	-6760	23980	-3661	-336	2940	126	115	1
-11260	-6156	16384	3496	14427	9315	-21412	6744	-2836	6955	19631	6368	-20692	-4348	968	-7480	2693	-1838	-32768	-24620	-18436	4288	5833	7994	-8804	5048	-22704	-5841	8478	3888	-15100	-2052	20872	-508	-5479	2406	124	110	1
-10520	-4864	17600	4849	20886	11317	-21328	6976	-2828	8796	20284	6267	-20264	-3360	2352	-7620	1521	207	4448	-10148	-1420	-18012	11536	-19478	-20000	-4440	-3276	-16552	14045	2467	-17120	260	8980	-2152	753	4331	124	122	1
-6260	-4532	18140	6085	26852	12487	-23628	6388	-1916	8966	21002	6185	-21956	-2820	5268	-7680	-1927	1201	3892	24844	32767	-15009	13497	-17819	-32172	-18920	15052	-24570	894	5485	-18068	-2880	936	-15385	16011	6142	122	124	1
-7356	-4324	17656	6950	32767	19053	-24040	6148	-1636	8976	21150	6276	-22328	-2896	6024	-7551	-2844	1285	-10176	-22772	7700	-11366	27469	-3833	-6384	-24136	-11888	-26361	10563	-3229	-16712	-12352	9092	-23839	11946	-552	122	135	1
-3580	-9244	20132	8366	32767	22627	-32768	12580	13676	-3451	25483	7686	-25624	-2976	23072	-6588	-17041	2920	-32452	-13368	22484	-3892	24047	-14736	-25784	-9100	-8204	-11530	15362	5049	-20284	-21792	-296	-17903	8391	-3619	131	132	1
-12716	-7748	15620	11527	32767	24552	-27944	9612	10032	-18081	29865	1847	-23404	16468	10064	-11831	-16352	9556	-32768	32767	11960	-6597	11690	-3750	-25276	-8396	-7672	-9677	16166	5350	-17824	-3304	-536	11378	12381	-1476	118	130	1
-32768	-7688	8808	3242	32767	30729	-24164	-2064	-14108	-20082	32767	2318	-21632	2416	-6660	-32768	-16290	8975	-16936	-12620	15172	-8895	5005	-10818	-17200	5808	-5688	-15152	11864	6958	-16732	31136	-10760	14541	14253	7634	129	124	1
-32768	-10724	18044	3030	32767	30437	-29724	184	-3684	-8436	26527	6456	-29460	-13076	-21172	-32768	-18163	2166	-15024	4576	12324	-9393	1514	-9719	-16476	3980	-5868	-13683	8737	4120	-17608	9580	-6212	-15972	7957	9353	124	142	1
-26632	-13580	23172	-7414	32767	24425	-19748	2436	-4884	-1054	20401	6854	-26760	-15580	-15256	-1675	-23147	-6736	-14244	2736	13008	-6020	-170	-6512	-18012	-6472	-4368	-5485	9180	2454	-17208	-2064	-3752	-10970	8869	7074	130	137	1
-32768	-16760	23896	-5526	1906	10727	-12416	2088	-16028	107	10029	4099	-27296	-5256	-4632	11075	-25701	-5036	-13052	360	13232	-3712	-321	-3807	-17672	-3660	-3024	4131	10838	3154	-17132	-728	-2208	-2225	9719	5370	129	130	1
-8748	-16368	21536	-7121	-30742	-4945	-7636	-2544	1596	-9974	2263	1367	-25132	-1140	-3832	5874	-22973	-6178	-11712	2396	12240	-2202	-315	-3120	-17312	-1180	-2896	7603	10497	3252	-15252	1300	-2076	-459	11464	5482	128	134	1
3728	-12368	12144	-6697	-31823	-7397	-9700	-464	3764	-9441	-7174	-6864	-24384	-1292	-4372	4336	-22307	-6612	-11580	2284	12156	-2174	-371	-2182	-17868	-280	-2436	2256	8024	2110	-15780	840	-1856	-622	11483	3758	131	125	1
1788	-8788	9352	-7363	-28309	-10695	-8408	-544	1868	-3593	-16651	-8246	-17312	-3424	-6576	4399	-18555	-7105	-11300	2496	12284	-2396	-347	-1606	-16972	-1524	-1928	-3764	5597	1258	-15832	80	-1552	-3871	11010	3220	129	128	1
-5236	-6380	9864	-9363	-28004	-17616	-6840	1468	-2700	3943	-24783	-8183	-14836	-2424	-7596	10226	-16578	-6933	-11208	1728	12400	-559	109	-854	-16000	-4956	-1252	-1814	5919	1641	-15860	-2040	-1056	-5060	10962	3826	135	129	1
-8956	-8380	10840	-7284	-31846	-25109	-8836	4740	-3452	1623	-30894	-8570	-13872	-2400	-7008	15074	-15100	-5522	-11036	2488	11904	-428	249	-553	-15204	-3080	-368	1997	6709	2236	-15000	-3904	476	-1106	11816	5091	118	128	1
-11560	-5656	11488	-3352	-32768	-29374	-10940	4880	-3236	-55	-32768	-9605	-11896	-3016	-7660	18352	-14035	-4568	-10148	4180	12140	-644	461	-1103	-16264	-2768	-72	6376	7637	3203	-13860	-2556	1008	5722	12199	5182	114	130	1
-15064	-2468	12856	-2893	-32768	-30301	-11928	4444	-4576	2183	-32768	-10929	-10472	-2028	-8824	23106	-13563	-3815	-10812	3380	11992	-1593	305	-1557	-16772	-572	-828	6605	7878	2986	-15796	1284	-240	10624	14251	5440	120	130	1
-16040	-120	13920	-6398	-32768	-29064	-13468	6124	-4404	2490	-32768	-10734	-8076	980	-9608	25856	-12783	-2438	-11684	2008	12008	-1571	260	-1885	-17124	-1052	-1996	2205	7212	2118	-15968	1360	-800	9270	16518	6353	125	129	1
-17212	-3740	14824	-7852	-32768	-26175	-15948	7976	-6044	-396	-32768	-11435	-7388	2340	-9964	21319	-10145	-2223	-11088	2852	12392	-1522	488	-1326	-16444	-2916	-1260	1338	8005	2433	-15904	-632	312	5401	16554	6618	119	126	1
-19412	-4376	18200	-6202	-32768	-24355	-21172	9336	-7784	-3809	-32768	-11404	-7328	2360	-7604	12856	-5896	-1568	-10904	3168	12708	-1325	803	-1516	-16792	-2252	-568	3625	8997	2882	-15356	-2392	2564	2772	16682	6729	119	127	1
-28140	-3148	22648	-7850	-32768	-24740	-24308	11300	-10364	-6867	-32768	-10324	-7148	3540	-5516	4143	-1171	-1004	-11704	2824	12300	-1484	898	-2390	-16772	-660	-1268	3559	9420	2909	-16284	-92	4008	-2057	19407	8514	122	127	1
-32768	-5504	23604	-8605	-32768	-24543	-29996	10208	-14764	-12291	-32768	-10858	-9056	6244	-2976	1278	804	-1896	-11832	3044	11996	-1770	841	-2860	-16508	-564	612	2237	10411	2171	-19004	2020	2376	-604	16531	7839	127	126	1
-32768	-936	16008	-9845	-32768	-23127	-30552	6624	-19268	-16034	-32768	-11631	-11544	1468	2756	-3834	-2417	-2594	-10832	3580	12800	-1634	1379	-3513	-16724	-372	2184	1725	12579	1962	-19492	2012	5392	1111	10303	4663	124	127	1
-32768	5460	-2152	-13035	-32768	-23091	-24636	8868	-22460	-9852	-32768	-11870	-20144	-7124	16880	-648	-6682	-4978	-12236	3984	13228	-2390	2733	-4414	-17748	-276	1052	-447	14843	1480	-18252	-1192	7332	775	8227	4480	127	129	1
-32768	15572	-16880	-15559	-31372	-21118	-15708	10240	-27384	-8838	-25619	-11800	-21548	4864	27064	3528	-5236	-6086	-12692	1712	14088	-3499	5644	-6678	-18720	-1060	-904	-3141	16662	706	-18192	-1068	4236	749	7788	4624	123	130	1
-32768	32767	-31640	-18812	-12163	-14858	-2480	8168	-28560	-8090	-4976	-6711	-14432	2668	32767	-9832	-3353	-524	-11864	-1172	15760	-5295	9776	-7553	-20212	-4800	-4036	-4427	18873	-473	-18952	704	620	2947	6843	3738	124	129	1
-32768	21244	-28060	-1891	4867	-2961	-5572	1192	-24928	-423	13791	1579	-15528	-5128	22548	-6329	-7178	1815	-11404	1520	17172	-7299	14705	-7828	-21472	-4548	-4252	-7940	19498	-771	-20688	1468	148	3716	5296	1074	128	127	1
-32768	19120	-10884	13656	17085	13695	-10360	9664	-24120	10662	22533	6453	-9392	-6992	6524	-9701	646	471	-10304	1920	17544	-8000	20794	-9441	-22420	-5808	-3404	-8629	20043	-439	-20280	1452	444	3714	4755	718	124	127	1
32767	-32768	32767	-3726	28737	14324	-32768	-2068	32767	-14412	12718	6423	-13292	2976	-8472	-1491	12569	2308	-9904	1492	18820	-8710	27654	-10354	-28404	-6428	184	-4599	22030	14	-25872	-2348	12200	3470	-9508	-2306	128	125	1
-23676	20144	-2772	4399	24594	16719	12688	25548	-19008	19355	9087	1102	-28216	4984	4224	-4175	2296	9402	-7316	7496	19568	-9522	32767	-13446	-29192	-14000	7388	1641	25561	1545	-20872	-15780	14596	2049	-13328	-6710	144	135	1
-20272	-17508	21368	-3488	27959	4345	-32768	5012	-1084	-1886	19542	8395	-19980	-176	19624	22161	779	668	-5944	4220	21460	-9852	32767	-15745	-32684	-26068	15916	18739	30293	3726	-22744	-23504	15140	9444	-12975	-16027	118	127	1
-26192	-12492	14820	-5222	18174	11858	-21628	5156	-7016	194	20282	3230	-18348	8112	4220	2619	14403	-953	-27500	13800	14248	-9562	32767	-26885	-27160	1516	5472	20699	32030	3344	-19176	-8580	7704	15888	-10779	-15703	118	129	1
-15292	-14412	9876	1041	13659	5349	-19256	764	-5180	7243	17220	1493	-16324	-1340	-9536	-15030	15759	2965	-32768	7220	2632	-9806	32767	-32768	-29200	13892	-8948	42	29955	1579	-21132	10448	-10384	32767	-4011	-15881	125	129	1
-23204	-16804	5732	5677	9841	4543	-17788	-5088	-11196	5974	15049	-262	-13808	-12392	-7220	-12391	7630	-2529	-32768	7144	23556	-12075	32767	-32768	-24608	4532	-7208	-16678	16015	1999	-32268	8220	-17520	29163	-16074	-2884	104	132	1
-13236	-6148	11308	6881	4775	5956	-17164	3724	-8404	5014	10708	1716	-16988	-12300	-9324	-7203	11272	-3447	-25700	10164	25576	20	26207	-26173	-20112	-1448	-9576	-12607	14111	-514	-32768	5884	-12876	4366	-28620	4686	130	136	1
-13828	-8288	10812	7006	4248	5866	-17188	4072	-6048	-1123	9786	1104	-20436	-8292	-5100	2629	13371	-1178	-29884	12276	23944	5795	-5839	-7592	-14156	-688	-5676	-93	7351	-522	-29340	-1064	-1720	-3	-32768	2133	136	122	1
-11376	-5712	12324	4424	1468	3686	-17584	3512	-3116	-2136	8305	1178	-15480	-4532	-2756	6733	15927	1163	-8636	17632	19944	8862	-29237	1865	-8952	456	2316	5938	-2319	240	-24356	-1728	-3836	5249	-24125	1560	127	125	1
-10692	-5724	11384	3285	335	3661	-17408	740	-1736	2369	5969	912	-15628	-3104	-104	7764	15211	930	1556	13012	13024	7572	-31880	5502	-8408	-2020	2372	5567	-11494	-707	-21144	244	-6888	8964	-18385	2989	122	122	1
-10356	-3992	12020	2057	623	1746	-15692	5312	-816	6032	4170	1001	-16120	144	1348	8374	14824	-657	-3400	8212	10432	8833	-29776	10600	-7732	96	-492	6174	-18617	-2042	-20536	620	-7684	8206	-17970	3230	114	124	1
-9504	-4860	11132	1155	1032	859	-16208	4760	-1048	5206	4380	233	-15036	892	320	6479	15188	-1365	-6864	8236	9580	11121	-30269	15269	-7248	1364	-1980	5501	-25287	-2705	-14144	2484	-9096	-3657	-18272	3345	121	121	1
-9224	-5588	11060	902	1115	983	-15396	2896	-1072	1464	5491	46	-15532	876	296	5840	15062	-1471	-10056	5532	9488	13116	-32062	19050	-7504	1272	-2264	5447	-26341	-2763	-12296	2944	-9184	-7569	-17864	1773	123	120	1
-8628	-6972	10272	1353	1098	2088	-15464	988	-264	-3382	6999	66	-14524	-1632	2520	-4621	15927	-2778	-16324	3804	10384	15685	-32768	22876	-10692	760	-4976	7977	-32768	-1968	-9992	3160	-9036	-9649	-15742	2504	125	122	1
-9300	-6452	10880	2261	1141	3615	-16480	1316	-644	-2068	6859	-48	-14716	-3220	1476	-6065	18919	-3251	-17168	3312	11544	17619	-32768	25984	-13000	408	-4548	7524	-32768	-2598	-8864	4756	-9272	-13463	-13762	1929	124	124	1
-10648	-4220	11852	2007	1168	3046	-16472	4276	-2332	888	6289	596	-15412	-1020	652	-3200	20836	-3387	-14500	3180	11864	19741	-32768	26607	-17016	-508	-3412	3102	-32768	-1987	-7952	6652	-10904	-18593	-13330	2021	123	120	1
-11208	-3908	11764	1052	1344	1770	-16132	5172	-3196	-958	7950	700	-15776	168	-48	-646	20738	-2891	-19976	-252	13796	24012	-32768	27388	-19788	-1904	-10052	647	-32768	-1470	-7448	3260	-11632	-23287	-12638	981	124	124	1
-10812	-4924	10980	428	1448	1014	-15124	2248	-1572	-2676	9239	590	-15140	-1012	-808	-641	18146	-3050	-30608	756	16368	25021	-28388	31201	-22020	-708	-12736	1269	-32768	-5236	-7852	-2800	-7792	-18757	-12698	-1356	123	123	1
-10536	-4688	11236	639	1202	1108	-14936	808	-648	-232	9453	869	-16956	-2728	1888	547	14733	-3736	-32768	860	21732	21211	-31486	30515	-29260	-6552	-16352	11001	-32768	-3255	-10192	-7040	-3996	-14875	-15370	-3502	127	127	1
-10324	-5280	11468	410	1462	1359	-17008	1076	-564	1214	9968	2062	-18840	-4528	3448	-674	11708	-3647	-32768	-7892	14384	23284	-32768	32767	-25768	-1592	-18876	20666	-32768	-1024	-10520	-3812	2488	188	-10222	-93	124	121	1
-10296	-5772	11776	-18	2066	2194	-17916	1584	-404	159	11581	2985	-19112	-4068	4532	-2219	10117	-3885	-32768	-9456	6068	19451	-32768	32659	-27328	6064	-20328	17007	-32768	559	-13876	-388	4696	17066	-1329	7889	121	124	1
-10936	-5188	12212	-399	3383	2807	-17148	1260	-364	425	13632	3928	-18332	-2004	6312	-5307	9547	-3398	-32768	-15856	-4148	15614	-28452	27734	-25684	-1224	-21372	9129	-32768	3392	-14372	-2916	13104	4401	1346	7958	125	120	1
-10452	-6456	13040	-570	5552	3768	-17836	852	332	2707	15759	4648	-18116	-156	4000	-8424	6616	-2422	-32768	-21524	-17172	11124	-16386	23296	-15776	3448	-25612	4211	-21465	7269	-16860	-1744	20436	-1241	-1693	7514	125	120	1
-10996	-6160	13876	113	11099	5741	-20784	2780	-1000	5659	16721	5776	-20988	-3788	3272	-10070	4312	-2029	-32768	-32768	-24964	6544	-2004	18434	-6808	1696	-26572	-4374	-6656	6235	-14968	-7740	26364	-2426	-1183	5106	127	116	1
-11020	-7216	14696	893	15035	8066	-18992	3828	-1120	9519	18586	6530	-19196	-6600	2900	-8273	1338	-892	-32768	-30000	-20700	-1561	8998	12852	-8300	3324	-24836	-9878	10249	5123	-15388	60	21484	-5636	-5004	5638	125	124	1
-10980	-6856	15416	2056	21655	11016	-21244	5668	-3152	10277	19676	6287	-19940	-4828	3676	-7074	-312	1039	-1348	-14548	9832	-15125	12812	2903	-19744	16	6620	-15495	18222	2807	-11476	4252	4488	-6578	2580	7600	127	117	1
-7768	-4040	16572	2892	28323	13930	-22844	9228	-4032	7518	20315	5909	-21856	-1900	7944	-7882	-4739	2349	22940	32767	32767	-13196	12305	-5371	-32768	-26200	32767	-16340	-1004	3529	-14756	1092	-8528	-17084	22768	7321	118	118	1
-6444	-7480	17888	2755	32767	16345	-32348	7884	6332	1049	22586	7464	-25648	-1044	20312	-953	-20682	713	-26552	-32768	-6856	-24185	21312	-14409	2784	-21472	-21664	-32768	4473	-627	-26636	-11364	9044	-20141	2328	-3625	113	124	1
-4412	-11360	17336	4102	32767	23242	-27480	14040	10316	-4248	25781	3642	-22984	21068	18448	-3315	-15606	7254	-21288	-6540	25232	-5934	27299	-805	-30504	-17252	-5412	-17758	12991	4538	-18764	-21804	6952	-32768	8104	-3484	120	130	1
-19300	-8088	16128	1172	32767	23257	-27540	13032	9028	-20177	31141	3276	-22956	12216	11316	-24272	-12916	9794	-28908	3408	15328	5901	22387	-10333	-21292	-5352	-6984	-3164	17019	5175	-9996	-23020	-476	1836	14297	-1202	118	122	1
-32768	-6688	7584	-1973	32767	24490	-26596	-2176	-13504	-12483	32767	6173	-24212	-6500	-11164	-32768	-19352	10073	-32768	30896	5120	-6770	8858	-3408	-26456	19524	-5148	317	16167	10324	-22196	16180	-5212	20565	8897	770	122	117	1
-32768	-16416	16992	-2165	32767	26241	-28760	408	-13416	-631	26528	8609	-26436	-19832	-18624	-29016	-21904	-146	-16624	2420	10820	-5143	3690	-6398	-18772	2264	-5416	-9840	11189	4973	-19792	22112	-8316	5613	10592	13823	135	149	1
-25108	-18440	26728	-7043	29010	22953	-22568	-2600	-6400	2359	20810	9204	-29108	-19356	-11352	6051	-25040	-6488	-13608	2220	12440	-7387	1267	-6957	-16248	1696	-4992	-8124	8689	2968	-16424	6596	-6176	-2615	9526	9530	136	140	1
-32768	-14532	24692	-2275	-1143	14586	-12892	2260	-9400	6831	7767	6834	-28728	-7964	-6888	16591	-24022	-4780	-12616	2288	12868	-4441	31	-5171	-17820	-5492	-3292	1433	9325	2623	-17156	2576	-4248	-4052	9206	4437	136	137	1
-7304	-12716	22296	-2184	-32768	1006	-8908	-1864	1188	-1539	-1059	5343	-26728	-2892	-4348	14406	-23822	-5661	-12216	2612	12328	-2715	-9	-4358	-17648	-1220	-3228	5958	9187	3349	-13484	1428	-2428	-2406	12177	3967	130	131	1
5536	-12924	13388	-6099	-32768	-2587	-9248	1264	3092	-4377	-9892	-1067	-22636	-1640	-5748	10016	-22447	-7142	-11968	2988	12392	-1723	-616	-4045	-17900	132	-1812	1278	7031	2602	-16684	1056	-576	-5343	11358	3184	135	125	1
2660	-10280	9032	-5504	-31953	-4493	-8784	1260	3072	-4648	-11212	-1566	-17568	-296	-7080	10838	-19015	-5745	-11420	3584	11844	-1413	-452	-2926	-17404	-176	-1476	-5045	4849	1926	-16044	520	-436	-6303	11187	2972	131	126	1
-4472	-9648	7828	-3570	-32768	-8521	-5228	544	-204	-6131	-18209	-3292	-14752	1084	-7680	12057	-17088	-5079	-10784	3820	11816	-1299	-174	-2282	-16448	-2936	-1420	-6517	4069	1632	-15276	-996	-1724	-7906	11211	4300	127	135	1
-7124	-8216	8428	-2678	-32768	-14778	-6368	2980	-3556	-5131	-30255	-5860	-12168	116	-7664	11723	-14978	-4019	-11220	2476	12060	-639	112	-2017	-14748	-5088	-768	142	5644	2445	-15712	-1688	-1184	-7575	11278	4559	115	133	1
-10732	-6128	9352	-4172	-32768	-22170	-9700	3720	-4520	-8343	-32768	-7220	-11228	-1736	-7384	10517	-13406	-3630	-10244	4388	11568	-345	616	-1501	-15820	-3300	1584	7673	8201	3591	-14780	-5336	3204	4839	11504	6010	115	133	1
-16416	-6544	10248	-5337	-32768	-26648	-11580	2500	-5508	-7885	-32768	-9517	-10244	-2128	-8700	14813	-12063	-3798	-9748	5900	11300	-1901	1080	-2610	-16644	-732	552	9267	8501	4431	-14292	488	1204	13284	14742	6229	114	134	1
-16116	-5384	11164	-4757	-32768	-26682	-12132	2476	-5548	-7474	-32768	-9867	-8276	-332	-9184	20016	-11675	-2858	-10964	1616	11860	-2976	1033	-3016	-17320	1156	-1648	3645	7606	3181	-15888	3432	-772	12136	17274	7364	120	138	1
-18108	-5784	12936	-5224	-32768	-25429	-17068	5060	-6032	1066	-32768	-11695	-7200	1288	-9540	19151	-11027	-2933	-12588	2736	12232	-3361	826	-1953	-16848	-2000	-3212	-577	7261	2584	-16236	860	-2352	4723	17454	7601	122	137	1
-23020	-7916	16608	-5086	-32768	-26793	-20344	7256	-9160	11	-32768	-11633	-6812	2072	-8248	13193	-7681	-2136	-11424	1876	12284	-1529	1073	-957	-16104	-3896	-1564	3521	9189	3022	-15708	-1896	180	2487	16926	5940	127	134	1
-29388	-3792	19568	-9259	-32768	-30847	-23832	11480	-10140	-3146	-32768	-10769	-7844	2800	-6204	5747	-3554	-1297	-11376	3656	12056	-1110	1357	-1809	-16900	-332	-596	7354	10686	4333	-16084	-28	2468	-191	17336	7785	128	137	1
-32768	-6736	21280	-12322	-32768	-30435	-29364	10080	-13408	-11860	-32768	-11753	-10224	5520	-952	4850	-1083	-399	-11880	3628	11968	-1716	1230	-2552	-17372	1564	176	2808	10305	3431	-17912	2116	3104	-3976	16384	8400	129	135	1
-32768	-1956	17080	-11515	-32768	-25552	-31212	7636	-19320	-14282	-32768	-11948	-12168	-664	4600	2236	-3939	-984	-11328	3396	12580	-1851	1904	-2489	-17220	8	1648	-13	11637	1938	-20392	2776	4160	-2211	10473	6247	127	135	1
-32768	1944	2844	-10976	-32768	-21786	-25740	9548	-21836	-11591	-32768	-10471	-18952	-7644	15184	-1619	-3524	-4965	-12112	2788	12772	-1792	2924	-3627	-17808	-52	1148	891	14488	1939	-19072	240	6200	2088	8418	5497	125	137	1
-32768	9644	-11516	-12484	-32156	-18381	-18884	8740	-26308	-12977	-26592	-12040	-18328	4124	23788	5703	-1890	-7136	-12428	4428	13436	-2521	5469	-4775	-19204	-84	-392	203	16767	1525	-18728	-2008	4532	5167	8836	5537	126	135	1
-32768	25528	-25796	-19277	-20540	-13771	-6092	7296	-25852	-11548	-9569	-9420	-15236	4192	32767	-6644	-453	-1254	-12264	1852	15560	-4272	9578	-5955	-20352	-3784	-2412	-2484	18220	405	-19416	-820	1468	8331	7441	4762	120	133	1
-32768	22176	-29124	-14632	1031	-7670	-3680	2272	-21116	-5103	10192	-835	-15048	-428	25356	-9830	-7101	2104	-11620	1428	16048	-5431	14434	-6580	-21052	-3536	-3300	-5609	19372	159	-20064	1908	888	8668	6223	1798	121	128	1
-32768	5660	-15520	9131	17423	6782	-11056	2540	-21008	8531	19627	3539	-13128	-6948	13716	-6784	-2951	309	-12148	3348	16220	-5797	15295	-6762	-22508	-4068	-2760	-7296	19715	692	-20712	1412	1208	7960	4364	364	120	126	1
32767	-27552	32767	19211	25643	13867	-32768	-4460	32767	-8452	15218	6256	-13280	-5908	-6676	-2621	12322	-1246	-9196	3628	18272	-7953	26937	-9924	-26512	-4540	-1244	-5917	20755	1175	-24424	1016	3696	8011	-1020	-885	122	127	1
-9800	9688	1360	18456	27957	22841	-3608	10012	-11508	32767	3389	-2986	-17128	-4472	-4084	-1101	13010	-1495	-6916	4316	18708	-8333	32767	-11605	-26496	-12432	1100	-1540	22278	2348	-24592	-5248	15636	4899	-11479	-2889	135	125	1
-16992	-1744	23284	5981	28125	8267	-20816	16880	-156	15562	13613	10912	-15756	-1192	9848	31019	1647	-1216	-9044	7856	19024	-7777	32767	-11611	-32624	-20192	15800	13813	26853	2998	-18484	-21724	12704	5352	-13745	-12877	116	122	1
-32768	1192	25896	-2216	18370	14375	-26600	23208	-9540	6227	18244	2422	-25932	17748	2484	23629	13385	553	-20072	7056	16832	-12059	32767	-27471	-32656	-1896	13060	13919	29473	3802	-22396	-13172	15072	10031	-19134	-15867	125	123	1
-17120	-15084	11540	663	12039	4211	-19060	1148	-4996	1281	20636	-558	-18580	5772	-8064	-9640	16990	1649	-32768	3128	7572	-9284	32767	-32768	-32548	5448	-11336	-1490	30066	3227	-19284	5072	680	25121	-14232	-14049	135	126	1
-11876	-2472	12932	-853	9148	5436	-14292	1488	-6012	6734	13510	-15	-7848	-12056	-9720	-14022	15672	-4430	-32768	5184	18672	-10105	32767	-32768	-28348	-1456	-9196	-9558	22602	2485	-27992	4952	-13808	31902	-10409	-8074	128	128	1
-16412	-18004	4916	3409	4002	3028	-19240	-5156	-7984	5121	11101	-1352	-16824	-10528	-7084	-4665	7506	-1620	-24588	7056	27580	3263	32767	-25940	-19976	-1764	-1556	-12705	15123	2980	-32768	-1980	-14664	17460	-22466	2419	128	134	1
-10568	-4548	11724	5262	1160	5057	-16348	5928	-3912	5434	7582	157	-18948	-3388	-4856	-1218	8914	-7009	-32768	272	12660	6119	25686	-16079	-15376	2572	-15900	-5295	10993	1362	-28088	96	-9100	6953	-31788	2373	132	130	1
-11020	-3428	12824	4900	2127	3826	-16572	5272	-3492	-817	7977	-899	-14968	-3488	-1412	-1684	15676	-3641	-24032	16636	21552	8558	-27652	4468	-8896	2884	-1724	9147	4687	-1149	-26492	-2148	-1576	5261	-32469	-795	135	125	1
-10708	-4472	12480	3293	1362	2737	-16708	4072	-1832	-3853	7832	-1103	-15748	-4316	-100	-2160	15537	1271	-1472	13172	15556	4163	-32768	7728	-8944	360	2880	10904	-6354	1763	-24416	1816	-6848	8663	-23284	1168	131	115	1
-10888	-3812	12456	1552	695	1438	-16804	2640	-832	-2219	6804	-792	-16620	-2980	2216	586	14232	888	1836	6092	11484	6638	-32768	8432	-6032	784	696	7189	-15204	299	-18436	3372	-9616	7215	-18988	1969	122	116	1
-9224	-5204	11672	800	700	817	-16960	1708	404	1514	5609	-639	-15672	-2260	2732	2006	14693	-894	-3768	3916	9316	11388	-32768	9460	-5720	2348	-1292	6620	-22036	-2064	-15804	3688	-9700	1048	-18172	2292	122	116	1
-9012	-5584	11400	837	640	870	-16032	2248	1128	3758	4819	-410	-15100	-1612	2788	1141	15568	-2626	-5384	5000	8456	15746	-32768	10383	-7028	408	-1764	6181	-28797	-3095	-12952	3016	-10120	-4420	-17372	1285	125	117	1
-8972	-5248	11464	1263	1165	1844	-15128	2492	308	1082	6184	-425	-14692	-996	3788	357	16426	-2732	-9696	4396	9108	17535	-32768	12783	-7368	-1116	-3876	8028	-32768	-3236	-10692	3152	-10716	-7427	-16221	1647	121	124	1
-9556	-5328	11172	1631	1279	2128	-15852	1452	-304	-1708	7548	195	-15128	-456	4192	-2439	17711	-2735	-14768	3868	10196	18335	-32768	17404	-9572	-552	-5648	10900	-32768	-3592	-7888	3876	-10836	-10188	-13764	730	127	126	1
-9260	-5588	11576	2223	1181	2698	-16672	1996	4	-2421	8621	391	-13812	-1624	4652	-129	21645	-4873	-16244	2184	12152	20385	-32768	23170	-12320	-1676	-5356	10826	-32768	-4110	-6844	4712	-11276	-15115	-11800	-499	130	125	1
-9952	-3632	12088	1990	1096	2339	-15940	4024	-1948	394	8626	791	-16020	-2376	112	1155	22373	-4231	-16444	1524	12596	25195	-32768	27643	-17244	-1996	-5048	8852	-32768	-2973	-6228	6064	-12348	-20572	-10994	-507	125	123	1
-9936	-4032	12352	1213	1461	1649	-16432	4548	-1856	-114	9755	586	-17188	-1916	-5120	1596	16894	-3576	-20200	-40	15796	27029	-32279	27115	-21812	-2564	-9912	9681	-32768	-2651	-7324	2896	-10840	-20371	-10261	-719	125	122	1
-10512	-4132	12352	919	2069	1337	-16636	3156	-2236	169	9904	317	-17696	-1556	-2840	1534	12532	-2985	-32768	2804	19448	26562	-30159	27106	-25384	-564	-14884	5468	-32768	-3636	-8724	-3740	-6184	-15902	-10175	-2039	130	120	1
-10800	-3760	11528	471	1989	882	-15408	3072	-1788	-1556	10824	1033	-15576	-2008	2764	-2354	12149	-3570	-32768	-6336	21548	23326	-32768	28727	-30708	-6844	-15876	14401	-32768	-4076	-9548	-7028	-504	-11413	-10861	-2675	131	123	1
-10180	-4792	11924	36	2281	816	-15932	-36	192	-1969	11915	1745	-17076	-2296	5044	-4565	11310	-3557	-32768	-7808	13328	22946	-32768	32767	-27772	-2260	-19376	22192	-32768	-1895	-11168	-1224	8260	10357	-5751	2492	124	125	1
-10268	-5112	12140	-52	2787	1784	-16716	-100	664	529	13313	3000	-18272	-3292	6180	-4278	8730	-3899	-32768	-11424	1912	15066	-32768	27673	-26724	3064	-19400	12792	-32768	-279	-19136	-1860	12692	10051	-1083	8327	125	123	1
-10464	-5232	12940	-3	4334	2955	-17840	476	-456	2596	15004	4074	-17708	-4120	6384	-6838	8390	-3585	-32768	-13288	-1120	13853	-32768	26524	-19476	3068	-22784	7145	-26375	3289	-18220	-7208	20356	5503	-610	4922	127	120	1
-10548	-6628	13596	1285	7727	5493	-19456	1948	-688	4478	16925	4641	-18992	-3316	3096	-7800	6533	-2939	-32768	-32768	-26484	8915	-8176	15564	-10276	480	-26028	3182	-11452	7111	-15568	-9168	29428	-3831	475	3242	128	113	1
-10768	-4864	16048	2579	12447	7906	-19648	4688	-1204	8294	18187	5366	-19800	-5256	3276	-6735	3953	-2171	-32768	-32768	-24232	8708	6594	12702	-5516	4812	-24684	-4689	6957	5009	-14712	-9716	30016	-3243	-277	3020	126	117	1
-10672	-4740	16568	3123	17545	9574	-20884	5500	-3388	10072	19506	6086	-19664	-5616	2032	-4928	2614	-746	-32768	-19620	-12672	-11594	13676	4740	-10904	3408	-20576	-14678	18509	2908	-14872	5144	12684	-3948	-1606	5865	127	119	1
-8292	-4416	16356	3549	23172	11496	-22384	7132	-3640	9156	19979	5459	-20504	-2252	2808	-6080	456	724	7640	32767	32767	-14234	4207	-5060	-32768	-25584	32767	-14376	5286	-3543	-10736	140	-8600	-21819	17944	6400	129	126	1
-9200	-5844	17624	3690	31319	14440	-26132	7576	-1404	5868	21337	5525	-20840	-1956	3456	-6594	-48	945	-9164	-27068	-528	-29281	18380	-24553	1864	-9844	-19052	-32768	-777	7427	-28780	-11336	3704	-9570	13846	1316	133	121	1
-4644	-3888	19080	3296	32767	15358	-31096	12272	8968	-2754	23549	7375	-19264	4948	16404	-11276	-22736	626	-23564	-8980	26832	-3549	29144	5210	4412	-18456	-21944	-32768	2065	3322	-17760	-12140	12228	-32768	-382	-6675	116	135	1
-7904	-7668	16872	2256	32767	16829	-27488	17836	14952	-17557	28836	3894	-23888	22948	9768	-15075	-14216	8822	-21976	-12960	20860	5529	22771	-13481	-19288	-8940	-4616	-8521	16446	4764	-14276	-20456	716	-8704	11989	-461	123	131	1
-32768	-5556	11592	-6326	32767	20657	-25036	4132	-6196	-22433	32767	3493	-21988	6896	3368	-32768	-15873	10958	-18316	21632	7972	-2880	14986	-6934	-22424	6160	-2500	-5583	15319	8786	-16492	8868	-7132	19659	14840	696	116	125	1
-32768	-5248	3752	-1080	32767	26734	-30956	-3944	-8848	-7127	30810	7272	-24836	-9892	-17520	-32768	-18096	7474	-13500	-4788	14060	-9826	5829	-9665	-17808	7136	-4972	-14174	10909	5745	-19124	27876	-8984	2962	10732	9995	131	133	1
-32768	-12660	19936	-1076	32767	28519	-22784	1588	-10808	-202	22368	6683	-27184	-19488	-18412	-14661	-22920	-3650	-15352	8068	10296	-9714	3570	-8104	-16832	1728	-4744	-10648	8854	3541	-17264	2208	-5468	-10497	9919	9734	131	139	1
-11188	-18948	30496	-5603	19673	19386	-16524	1072	-13364	6284	16367	8406	-26136	-12156	-8912	9103	-24559	-4482	-13888	1232	13608	-7192	1772	-7447	-16656	1096	-4712	-9917	8536	3587	-15804	972	-3732	-4312	9188	6464	137	145	1
-16640	-21904	25700	-3141	-23798	4617	-13552	-3832	-2948	-3634	5193	4647	-26984	-3952	-4276	14159	-23819	-3732	-13148	-168	13864	-2803	255	-4352	-18384	-4348	-3864	6268	9892	3498	-14128	260	-2540	-874	11390	5021	125	136	1
2020	-13016	14336	-4948	-32768	-1195	-10344	-1436	3712	-5093	-3083	-1007	-23160	-2552	-5748	7446	-21169	-5224	-11952	3120	12552	-1862	323	-2972	-17916	-152	-1968	5841	9226	3363	-16344	1252	-1104	-894	11829	3361	128	123	1
2684	-7668	9900	-6728	-31989	-833	-7692	196	1744	-3451	-12191	-3882	-18816	-4036	-6280	5458	-19569	-5585	-12104	3020	12088	-1533	728	-1425	-17348	140	-1672	-25	7107	2009	-16452	2588	-1184	-2985	10366	2089	130	128	1
-1412	-8152	7764	-6351	-30886	-3343	-5648	-660	-1448	-460	-19319	-4787	-16176	-2732	-6804	8754	-17673	-5615	-11204	3632	11824	-1375	643	-952	-16868	-2284	-1348	-2724	5760	1442	-16096	508	-2388	-6250	10639	3539	132	133	1
-4604	-9324	7820	-5248	-32768	-9727	-6024	2160	-3056	-681	-25589	-5124	-13504	-1772	-7524	11984	-15856	-5141	-10860	2812	12100	-953	712	-864	-15584	-4296	-1212	1713	6105	2079	-14600	-4408	-1780	-3696	10777	5440	128	132	1
-6968	-7912	8492	-4537	-32768	-16859	-8724	3540	-4756	-5569	-30928	-6030	-12952	-3264	-6512	13942	-14192	-4050	-10764	3304	11936	247	739	-698	-15444	-4036	-416	7406	7281	2714	-14068	-4340	496	5503	11546	5886	123	130	1
-12820	-6548	9244	-5647	-32768	-22286	-10748	1772	-4828	-6373	-32768	-7576	-12124	-3820	-7968	16561	-13033	-3775	-10924	3516	11992	352	760	-754	-16812	-828	184	9286	7497	3194	-15080	-584	972	12399	13594	5562	122	131	1
-15216	-7068	9572	-6185	-32768	-24301	-11032	2792	-5480	-6027	-32768	-9421	-10512	-916	-8508	20771	-12382	-3842	-11564	3184	11612	-569	800	-1661	-16696	-216	-600	5584	6907	2711	-15024	180	732	13500	15868	6210	121	132	1
-15732	-6740	10292	-6414	-32768	-24236	-13764	2796	-5468	-5316	-32768	-11726	-8636	1716	-9148	20540	-11884	-3447	-10556	4720	11284	-767	844	-1661	-17024	-1536	952	2477	6735	2103	-15908	1596	-408	11161	16933	6827	125	132	1
-17252	-7796	11484	-6645	-32768	-24870	-16224	3924	-5860	-3019	-32768	-13204	-7184	2632	-8748	13284	-9233	-2873	-10304	5456	11700	-2363	1237	-2442	-16664	-456	664	2281	6968	2542	-16204	1328	552	4778	17463	7523	123	132	1
-18872	-7184	15504	-8314	-32768	-26572	-21092	6256	-6896	-1358	-32768	-13786	-7264	1988	-7684	6561	-4764	-2118	-11944	3676	11292	-3040	847	-3430	-16564	-892	-252	4199	8461	2525	-15364	-224	4024	-2588	18869	8573	122	131	1
-32712	-6516	21308	-13047	-31147	-29694	-24860	10344	-12452	-4296	-32768	-14463	-8908	4048	-4764	3690	-1723	-1483	-12264	3568	11268	-3205	-615	-4113	-15104	-464	488	4023	10427	3364	-16476	1052	3252	-2000	18482	8234	129	132	1
-32768	-4828	22844	-14928	-32768	-29828	-31876	11592	-14060	-7932	-32768	-15183	-11172	4520	1724	5330	-3683	-1201	-11624	1208	12188	-3279	-549	-3471	-16016	136	2092	650	12050	2336	-19404	2432	3948	-969	11126	4909	126	131	1
-32768	2908	14792	-14915	-32768	-27495	-27796	10112	-18620	-11799	-32768	-12760	-14220	-3824	5612	1738	-5771	-4087	-11184	3680	12304	-3676	208	-3671	-17392	164	2112	-3362	13363	1606	-19692	1292	5116	-2751	7186	3701	125	133	1
-32768	1304	2144	-5971	-32768	-21684	-22576	8924	-21948	-8148	-32768	-10635	-18948	-4976	10184	2632	-1262	-9460	-11916	1428	12988	-3281	1807	-4882	-17812	-660	-400	-2437	16121	1184	-17828	20	5524	-2170	8554	5066	131	132	1
-32768	12272	-11584	-3177	-27721	-16508	-18060	9276	-24912	-8361	-24490	-10857	-19460	3232	23800	3039	-3218	-6335	-12124	3264	13792	-3263	4606	-6598	-18968	-640	-932	-2252	18372	754	-18372	-2308	2764	2047	7863	5931	122	132	1
-32768	29292	-24052	-14069	-15772	-11397	-5676	8840	-26072	-7149	-8906	-8334	-14396	4736	29876	-5980	412	-847	-10360	-612	17348	-5388	8254	-8197	-19816	-5276	-3816	-2946	19828	74	-18208	-1012	424	6292	5302	3755	123	130	1
-32768	23620	-25716	-11715	-1349	-4901	-4660	4540	-22132	-2219	9310	-1012	-13756	-1324	23160	-8216	-5885	2560	-12148	1316	16804	-6539	14372	-8370	-21756	-5096	-4892	-6237	20285	39	-20776	1112	-1460	6907	3954	1459	115	127	1
-17844	13088	-1844	19951	7612	10914	-18696	6588	-296	-3636	17985	5033	-12072	-6648	8396	-7476	64	-80	-10200	1760	18088	-8174	19517	-9810	-22752	-5236	-3608	-8054	20163	627	-21068	1448	2776	7718	1335	-650	126	126	1
-23244	-8004	8788	19777	3886	13068	-32768	-464	32580	6401	7049	-41	-19564	380	-1932	-7573	12848	314	-10012	3216	18116	-9061	26224	-10320	-26372	-5788	-1196	-6301	21404	761	-25032	-564	11280	5979	-7229	-1639	122	125	1
-14456	21712	4332	7575	26014	13513	3316	26128	-9700	18426	10499	2402	-23044	1944	10144	5525	1631	4640	-4296	5916	19736	-10237	32767	-14144	-30220	-11272	7696	39	24423	2219	-22132	-9480	15188	-697	-14181	-4811	123	129	1
-26704	356	22804	-2148	28207	7890	-28292	12268	-3484	2206	19631	6264	-13908	7192	11488	18927	7174	3569	-5192	5756	22272	-12507	32767	-20151	-32768	-22676	15428	9779	27871	4349	-19232	-23972	14972	4291	-15378	-14459	127	119	1
-25524	-12084	12420	-4792	17343	14320	-25236	1048	-7876	-404	20258	1588	-20604	7172	-84	2538	11680	3450	-18588	9144	20196	-14900	32767	-26559	-30040	-6984	7140	14645	30347	4340	-20720	-12820	10576	8438	-17541	-16301	137	132	1
-31692	-27588	3844	8689	10164	7452	-25188	-11328	-14160	5822	18217	-1066	-18928	-10940	-6372	-16111	11479	341	-32768	2360	2136	-5146	32767	-27236	-28504	6756	-13440	4659	31607	3728	-21684	6872	-2020	32767	-7257	-14504	140	127	1
-16448	-2896	12048	6652	1322	7426	-15408	5476	-8664	13809	9829	2553	-14008	-14648	-11736	-3508	12685	-6670	-32768	4368	18760	-8462	32767	-32768	-25592	5696	-7652	-3795	22652	3434	-32128	6532	-15140	32767	-12154	-5562	127	133	1
-12448	-1016	13392	5156	1063	5869	-14816	6844	-7572	4078	9293	760	-16304	-3236	-7572	1188	11812	-3207	-24036	15472	27828	-1180	32767	-31538	-19892	-1708	-2424	-11800	13615	1842	-32768	1956	-16692	9207	-25572	5757	130	134	1
-12004	-3212	13120	2354	1965	2478	-18012	6592	-3904	-4548	9894	295	-17200	-2620	-3820	2227	11480	-1632	-32768	2036	20868	-4142	13564	-20330	-12436	2756	-14244	-6113	6460	2420	-26496	-456	-4160	2455	-32768	835	135	135	1
-10792	-4640	11916	1385	681	1113	-17532	3456	-1872	-5196	9333	-36	-16292	-3032	-496	1636	13704	-528	-18492	8988	21364	6889	-25915	3736	-6812	-1336	-2936	4150	163	-1288	-24500	-512	-944	5668	-28736	-100	126	127	1
-10256	-5356	11412	948	830	586	-17108	404	-864	-227	7196	98	-15608	-2872	988	920	13560	1017	-1104	12384	13540	8614	-32768	11674	-8328	-2068	1508	8803	-8492	-1063	-23592	2200	-7844	9805	-19302	2334	120	119	1
-9744	-5300	11320	1017	617	467	-16424	1544	-700	5412	4820	522	-15364	-3076	1644	2195	13570	515	48	8384	9268	8065	-31256	13564	-5720	1668	-56	5809	-16233	-1372	-17564	3416	-10028	5759	-17569	3142	121	117	1
-9716	-5148	11264	1054	407	472	-16264	3004	-1012	5144	4518	543	-15264	-2836	1696	3268	14750	-592	-5084	5232	8488	7529	-31712	13150	-5356	3456	-1684	3433	-23330	-2522	-14344	4004	-9608	-702	-17414	2583	119	114	1
-9376	-5364	11136	1129	341	619	-15320	2476	-200	390	6355	866	-15068	-1412	2800	35	15594	-1871	-8160	1900	8720	12457	-32768	13007	-6820	1164	-2896	3273	-29453	-3566	-12184	3436	-9556	-5702	-16607	2255	122	118	1
-8588	-6548	10760	1467	331	1791	-15668	296	592	-4232	8293	849	-14020	-2056	3544	-4003	16373	-2836	-12284	2364	9332	17609	-32768	15796	-8124	-168	-4288	6695	-32768	-4042	-10528	4044	-9520	-9825	-15657	1901	127	122	1
-9484	-6140	10608	2521	-27	3407	-16352	-832	-564	-2648	8678	882	-13672	-1724	2512	-3623	19416	-4181	-15712	2896	9472	19783	-32768	19090	-9868	-236	-5204	8987	-32768	-4051	-7892	3912	-10264	-13886	-13690	715	131	126	1
-10584	-2392	12516	2198	-232	3148	-15440	5912	-2100	1919	7609	1862	-15184	804	3368	-932	20173	-3404	-14448	2104	10072	20838	-32768	23117	-12312	-2532	-4308	9540	-32768	-4356	-7008	3980	-11152	-19948	-11669	-749	125	124	1
-10556	-3260	12352	939	487	1297	-16984	5432	-1668	-928	9232	1278	-16300	-1324	-1080	-2228	19519	-2109	-16552	1356	11584	23609	-32768	26703	-16396	-2316	-5076	7604	-32768	-3074	-5888	3628	-12452	-24111	-10293	-1190	122	120	1
-10316	-4500	11584	508	620	833	-15600	1852	-1932	-1481	8983	1282	-17324	-2940	-4136	349	14519	-2340	-25520	828	15636	25211	-32768	28940	-21028	-1420	-10976	7439	-32768	-2668	-6076	1260	-10800	-20965	-8456	-1416	124	118	1
-9800	-4852	11524	434	835	1488	-16568	2492	-2080	-662	8200	1402	-16720	-3196	-420	1426	12323	-3468	-32768	-1016	18668	26120	-31749	30588	-26488	-3044	-13568	6892	-32768	-4349	-9812	-4104	-3724	-14205	-10634	-2857	123	119	1
-10524	-4068	11852	9	1159	1838	-16192	3248	-2364	-949	8710	1692	-15368	-2252	2248	-1438	13821	-3208	-32768	-8128	20976	25629	-31976	32047	-30152	-6340	-15896	12714	-32768	-4159	-10680	-7192	-488	-9969	-6224	-1061	124	121	1
-10468	-4192	11916	-308	2023	1528	-16320	1356	188	-1619	10418	2418	-18380	-2684	3288	-3228	11818	-2016	-32768	-9912	14320	23227	-32768	32767	-29308	-1344	-19512	19305	-32768	-3090	-12640	-2196	9692	14267	-3938	3989	120	126	1
-10224	-4908	12240	-342	2743	2242	-16312	404	1040	569	12696	3241	-18708	-3076	7004	-3129	8721	-2732	-32768	-12508	292	14326	-32768	32767	-25184	472	-19840	11583	-32768	-1482	-20220	-2620	13932	10431	-1216	8381	121	121	1
