#Activity	walking 
#ActivityID	1 
#Date 09-07-16-13
acc_rf_x	acc_rf_y	acc_rf_z	gyro_rf_x	gyro_rf_y	gyro_rf_z	acc_rs_x	acc_rs_y	acc_rs_z	gyro_rs_x	gyro_rs_y	gyro_rs_z	acc_rt_x	acc_rt_y	acc_rt_z	gyro_rt_x	gyro_rt_y	gyro_rt_z	acc_lf_x	acc_lf_y	acc_lf_z	gyro_lf_x	gyro_lf_y	gyro_lf_z	acc_ls_x	acc_ls_y	acc_ls_z	gyro_ls_x	gyro_ls_y	gyro_ls_z	acc_lt_x	acc_lt_y	acc_lt_z	gyro_lt_x	gyro_lt_y	gyro_lt_z	EMG_r	EMG_l	act
-8336	-5652	12600	24	175	164	-10808	-11968	848	-565	1	535	-13952	-3632	648	-276	2447	1729	-10752	2832	16072	791	-5443	2839	-13928	640	-2048	-1326	-4509	2536	-5024	2440	-13760	-1815	-2172	-158	125	117	1
-8408	-4780	12548	68	185	217	-13216	-10136	-248	-301	294	562	-11432	-1888	5440	315	3188	1474	-15216	4600	18400	959	-5454	2476	-16080	968	-3720	-1034	-4972	2798	-3312	2184	-13640	-1858	-1877	-366	124	125	1
-8892	-4828	12344	108	163	255	-12720	-8664	-16	-519	313	572	-13912	-1616	4016	-1224	2928	1419	-19376	7216	20600	1076	-5556	2356	-19120	2224	-4816	-1032	-5207	3089	-1344	3024	-14448	-1555	-1352	-462	128	124	1
-9812	-3612	12364	122	50	314	-10672	-7992	1560	-907	311	655	-17880	-2784	-7056	-514	2108	1118	-21976	9016	21976	1338	-5332	2456	-23656	4528	-4648	-1097	-5421	3347	-256	3136	-13240	-998	-671	-373	128	183	1
-8268	-4812	12596	240	11	344	-10560	-9752	1056	-894	449	681	-17984	-656	-4648	443	1594	737	-28496	13144	28376	1672	-4833	2496	-31472	6088	-6632	-1337	-5446	3600	-2904	-968	-6696	-426	-470	-269	126	189	1
-9692	-2616	13756	241	84	407	-16792	-8336	40	-607	731	680	-16152	552	-1664	-108	1586	833	-32768	18288	32712	1611	-4760	2970	-32768	6840	-11200	-2137	-5278	3944	-9888	-7856	-80	-552	-1262	-524	126	178	1
-10128	-5268	14676	175	270	420	-14224	-10232	464	-900	684	725	-16736	-1384	-304	-795	1553	1066	-32768	19392	25440	816	-4714	3812	-32768	184	-14608	-2632	-4854	3447	-22536	-1952	6912	-1182	-1755	-767	125	170	1
-9808	-5104	14072	194	456	590	-12360	-11728	2192	-1150	825	871	-19648	-4656	3336	-563	1417	835	-32768	-6640	9192	-362	-4269	4195	-29672	-1384	-21784	-3212	-3665	2318	-32768	-13856	5928	-2203	-2693	-362	123	152	1
-8660	-5204	14248	288	690	718	-14152	-10616	1816	-1344	1063	1097	-21656	-6464	3592	-837	1157	585	-32768	-3984	-17320	-1776	-3557	3529	-20856	-8720	-32768	-3666	-1923	1720	-4544	-14944	25344	-1344	-2761	93	123	179	1
-6260	-5136	17132	326	1024	876	-18040	-10904	2904	-1514	1326	1304	-20872	-4304	1408	-1107	803	563	-32768	-32768	-32768	-193	-1750	1776	-2888	-16240	-32768	-1546	-96	857	-9040	-18656	30728	-2576	-12	-73	119	206	1
-8740	-5188	16824	320	1698	988	-17128	-11768	1208	-1480	1712	1492	-19384	-6464	1000	-965	318	629	-32768	-8448	-24808	-894	3080	1126	-17376	-8480	-32768	-960	2625	-712	-23064	-22160	8168	-1916	912	527	118	163	1
-10288	-5052	18208	503	2458	1134	-20976	-13384	840	-1432	2111	1656	-23336	-7296	3824	-840	-420	607	3432	-4456	32	-1150	3252	858	-26160	-6224	-10680	281	2875	-1553	-24624	-8264	-5088	1004	661	-285	125	138	1
-10200	-8200	19588	593	2558	1139	-23328	-16088	1120	-1646	2450	1726	-28128	-10832	8704	-821	-1560	417	-10936	-13192	32767	-310	4360	-2244	-28544	10896	13456	645	2108	-711	-17912	-13232	-3032	-441	-1299	-237	124	145	1
-10156	-12228	21744	758	4431	2403	-26736	-25040	4256	-1881	2623	1751	-29176	-15056	15584	-311	-3153	-166	-32768	13928	25072	-447	3881	-2129	-31952	-9616	-9496	408	3363	-1444	-21280	-3848	2312	670	572	561	123	124	1
-14424	-19836	21492	629	5546	3943	-25584	-32768	8672	-2341	2605	1550	-28800	-10512	16632	-632	-3771	-629	-32768	32767	26008	-2674	2268	-1390	-18472	15136	-17592	501	3048	-820	-18240	3016	-7056	378	1205	1233	112	40	1
-14084	-21676	24240	214	6902	5898	-32768	-30296	9656	-3017	2359	1266	-25880	4264	12712	-244	-2449	-504	-11200	-14216	27440	-1071	746	-729	-24640	-9960	-8432	-841	2656	-776	-11984	10920	-18288	1238	1440	794	125	49	1
-21132	-12684	31316	-946	9078	6244	-32104	-28664	14544	-3546	1128	1897	-28520	-200	-13896	643	-1523	-302	-18080	5256	13672	-538	98	-268	-13336	5336	-13704	287	2044	-543	-13352	3520	-13176	-75	1276	1064	110	85	1
-32768	-32768	31796	-3393	6588	5468	-7792	-26744	-432	-4335	685	2081	-25144	2080	-5592	23	-2474	-938	-9608	4000	16224	-179	45	-115	-19808	-1832	-6120	679	1311	-454	-20608	2744	-10496	508	1484	804	124	96	1
8740	-32768	32767	2180	2948	4855	-9840	-22192	-5672	-1813	819	629	-31680	6752	-4056	-449	-2922	-1637	-7368	3536	14872	-69	66	-55	-20272	-936	-5504	821	1270	-416	-17200	3976	-6144	634	1731	651	110	96	1
-23956	-27088	26792	3728	-505	-1313	-12784	-7304	960	625	1060	-633	-28896	-3496	-8136	381	-2324	-2013	-7512	3912	14928	-11	139	-72	-16336	5784	-2944	972	727	-232	-16904	2816	-4624	61	1692	652	110	99	1
10440	-16884	15776	1090	-1318	-4850	-3120	-13464	9856	2503	1183	-737	-27896	192	-10928	1473	-2250	-2385	-6896	3904	14704	46	197	-102	-16984	5832	-1176	316	742	-153	-16984	-312	-3512	-179	1751	613	117	103	1
8644	-12720	10644	618	-841	-4639	1440	-8448	5712	3370	766	-1431	-20032	7640	-10536	1276	-2136	-2208	-7384	4592	14424	43	262	-109	-16992	4232	-1800	-2	647	-150	-15584	-344	-2272	-284	1843	543	128	110	1
-1900	-5108	16236	254	-1815	-3885	-3368	-4936	32	3581	10	-1784	-13984	9168	-9088	340	-2069	-2025	-7992	4608	14888	27	259	-99	-15624	3616	-1880	164	530	-163	-14712	-2208	-328	-101	1870	573	132	106	1
-7564	-3588	18400	-183	-3578	-3377	-6480	-1976	-912	3321	-1095	-2022	-10664	6096	-8192	-250	-1706	-2049	-7576	3720	14352	37	235	-108	-14984	4520	-1496	551	372	-193	-14080	-2480	1440	504	1921	534	124	104	1
-5988	-836	16840	-755	-4915	-3053	-10016	-248	2048	2840	-2594	-2112	-10648	4328	-9648	-296	-1501	-1925	-7912	4728	14384	23	195	-120	-14360	6864	-704	792	399	-267	-14176	536	2008	1002	2136	502	130	112	1
-7004	-408	14512	-1238	-5441	-2858	-11848	-1920	2848	2453	-3735	-2169	-9768	5816	-10352	-260	-1446	-1674	-9096	4680	15232	-32	118	-169	-13984	7432	-416	521	590	-356	-13640	864	2304	932	2379	527	130	119	1
-10532	-1936	15108	-1309	-5565	-2906	-13592	-3728	1624	2268	-4175	-2107	-9840	6080	-10336	-217	-1435	-1655	-7896	4032	14296	-83	126	-177	-14400	5704	-1184	189	780	-460	-14176	-1224	3472	568	2450	593	134	141	1
-12560	-4964	16564	-984	-5574	-3276	-16592	-7928	480	2596	-4632	-2059	-7288	7712	-10432	-17	-1162	-1542	-7456	4224	14216	-109	106	-220	-15088	4528	-920	307	850	-494	-16880	-2304	3952	214	2193	763	130	149	1
-14084	-4064	18120	-768	-5266	-3240	-19616	-10632	312	2896	-4973	-2228	-4264	6008	-10536	28	-830	-1056	-7232	4376	14056	-145	103	-292	-13992	5688	-832	530	933	-558	-18200	960	128	220	1746	670	132	173	1
-17644	-6016	21040	-1113	-4763	-2672	-19984	-11248	96	2939	-5025	-2265	-3576	5768	-10240	715	-261	-826	-11200	5952	13808	-138	52	-424	-15248	4544	-2424	500	1060	-584	-16984	48	-1536	62	1373	595	130	203	1
-30044	-9336	30028	-1631	-4653	-2384	-30336	-16352	-6208	3328	-5216	-2839	-4688	8912	-7968	1188	385	-838	-8328	2712	14120	-126	219	-374	-16736	2280	-2664	555	1130	-622	-13928	56	-1576	84	1646	547	123	168	1
-32768	-13176	32767	-2142	-5215	-2950	-32768	-19440	-7544	3513	-5198	-3064	-8120	6312	-2176	1679	65	-791	2904	-1240	7288	-31	295	-399	-16584	4520	-3088	644	1164	-647	-14920	-240	-1104	114	1749	485	121	184	1
-32768	-24	29152	-2260	-5067	-3936	-32768	-10040	-12000	3260	-5393	-2806	-15320	3560	1736	1318	-417	-927	-8680	3704	14864	8	479	-401	-17016	5840	-2720	693	1294	-797	-17576	-24	1232	293	1461	634	125	154	1
-32768	6592	20536	-1889	-4638	-3987	-32768	-13032	-20496	2077	-5012	-2212	-25328	-2688	15576	124	-628	-1965	-8936	5056	14864	30	690	-526	-17664	6592	-2976	768	1384	-918	-22064	-56	864	587	1560	654	105	172	1
-32768	10400	-6832	-343	-4524	-2326	-27216	-10136	-32768	1679	-3965	-1658	-20616	-8960	23928	-713	759	-2009	-6856	2736	18184	79	1040	-610	-22424	2632	-808	962	1496	-1054	-22360	-5664	3240	605	1400	529	26	163	1
-8112	-6084	12528	-90	70	67	-10864	-12312	320	-1123	-126	519	-14960	-3664	-2168	-1017	1900	1659	-8544	1200	16416	757	-5219	3006	-11648	-616	-1496	-1613	-3768	2471	-6608	3040	-14344	-1048	-2437	84	135	124	1
-8664	-5012	12464	39	91	142	-10696	-11840	416	-828	17	527	-13568	-3880	-168	-474	2033	1618	-12856	2896	18648	1114	-5426	2969	-13208	616	-2336	-1300	-4363	2667	-4912	4096	-14384	-1501	-2280	-15	130	128	1
-8444	-4772	12552	111	112	152	-11312	-10128	664	-363	466	541	-12992	-2128	1616	205	2303	1544	-10392	2856	18200	943	-5676	2588	-15624	648	-3496	-1246	-4871	2910	-3624	3168	-14392	-1796	-2099	-178	124	159	1
-8708	-5684	14104	153	102	211	-12912	-10040	160	-302	689	511	-13832	-2128	4144	150	2642	1374	-18512	4600	20432	1089	-5840	2375	-19280	800	-4328	-1193	-5169	3076	-1808	3880	-14968	-1607	-1587	-324	126	192	1
-8584	-5100	12076	130	154	237	-13272	-10376	-64	-583	646	588	-16432	-2024	1168	-656	2530	1324	-18272	6712	20040	1302	-5519	2376	-22784	4152	-3792	-1176	-5443	3291	472	4344	-14224	-1202	-951	-288	127	201	1
-7652	-5420	12548	169	168	336	-11648	-10000	1112	-943	566	647	-16824	-1608	-4552	-337	2114	1080	-27104	13016	28104	1584	-4759	2429	-29952	4872	-7240	-1469	-5453	3528	-2272	-96	-8024	-750	-637	-164	127	182	1
-8228	-4812	13100	174	213	422	-13224	-10304	232	-1077	531	714	-18008	-1928	-3648	-292	1674	886	-32768	19976	32767	1431	-4759	3153	-32768	6800	-12672	-2314	-5301	3838	-7264	-6496	-816	-586	-1257	-516	127	177	1
-5988	-4276	12116	196	345	565	-14712	-10144	656	-1047	679	747	-18136	-1880	-2056	-558	1639	854	-32768	11592	22744	567	-4853	4109	-32768	3064	-13736	-2966	-4940	3430	-18976	1400	2192	-889	-1538	-855	126	168	1
-10828	-7036	15444	181	543	611	-14392	-11136	536	-1163	767	871	-18240	-4968	768	-774	1504	879	-32768	6296	10152	-88	-4125	4537	-29112	5216	-20896	-3430	-3894	2568	-32768	-11120	4592	-2401	-2820	-524	125	160	1
-8872	-5772	13540	163	737	707	-12328	-11304	1744	-1368	994	1008	-19136	-5056	4168	-705	1295	730	-32768	-3720	-13776	-1577	-3469	3890	-23800	-7792	-32768	-4013	-1957	2052	-10816	-21808	22672	-2247	-3015	-352	124	154	1
-8316	-4272	16060	303	1131	833	-17464	-10160	2336	-1441	1320	1197	-21192	-4240	3336	-827	954	639	-32768	-30320	-32768	470	-1569	2947	-2800	-15720	-32768	-1842	-468	1024	-7776	-14552	32767	-2976	-387	-34	123	187	1
-9224	-3832	16916	280	1665	918	-17152	-11072	1328	-1474	1685	1366	-19696	-7456	1536	-978	512	722	-27376	-15904	-30720	-523	1940	1775	-12456	-4840	-30272	-1303	2484	-499	-22848	-21824	11024	-2548	624	681	122	154	1
-8736	-6844	17780	444	2481	1019	-19608	-14776	928	-1427	2073	1543	-21200	-6720	3592	-825	-190	690	-32768	-16800	14432	-2203	3024	1335	-16160	-2760	-29816	-831	3413	-989	-22536	-8440	-744	269	683	-32	122	117	1
-11564	-6480	17904	605	3295	1499	-22368	-15296	1040	-1603	2444	1587	-27776	-10040	8544	-892	-1225	551	3040	-26472	32767	267	4773	-241	-32768	-1832	32767	232	1641	-1404	-11272	-8200	-11208	-6	-2392	-458	120	130	1
-12024	-13348	20108	733	4418	2204	-25736	-24760	4712	-1979	2605	1691	-28816	-14664	17904	-557	-2602	13	-29800	-32768	31216	-129	4181	-3100	-21912	-15152	-14432	-263	3342	-1057	-9096	-5288	2768	474	-58	288	121	115	1
-17408	-17216	22984	592	5491	3541	-25072	-32768	8616	-2445	2670	1655	-28240	-16360	17456	-903	-3469	-669	-17448	15080	32767	-639	3334	-1982	-22304	15880	-11416	1541	2842	-1183	-25560	-3896	-3440	-274	935	690	120	96	1
-19140	-24788	24640	125	6926	5520	-32768	-32648	9696	-3141	2590	1214	-23704	952	12704	-459	-2312	-795	-32768	-8944	32767	-1955	1580	-750	-23216	2096	-7848	-1648	3252	-239	-15104	8184	-7680	1348	1148	917	126	51	1
-21876	-15920	30708	-686	8912	5844	-32768	-29624	16392	-3494	1511	1813	-28648	-1536	-12816	568	-1576	-253	-22016	32767	4312	-257	361	-15	-22400	-3568	-19536	74	2927	-1036	-11784	6336	-17976	-30	1600	1022	123	83	1
-32768	-28988	32767	-3153	7430	5098	-9208	-26536	6984	-4409	721	1995	-26184	3224	-7600	215	-2695	-926	-9064	-2336	17736	-365	79	-281	-13984	-5416	-6520	340	1602	-564	-17872	2008	-12000	655	1360	848	107	101	1
5724	-32768	32767	907	2769	4656	-12400	-21568	-4688	-2140	945	688	-32768	7200	-3112	-527	-2921	-1553	-7696	4160	14968	-190	54	-160	-19792	3080	-6336	1616	1129	-341	-17960	5072	-9320	1086	1600	595	101	95	1
-10284	-23884	31908	2089	-1411	-963	-9336	-10208	6056	120	453	-760	-31064	-1808	-8368	459	-2455	-1868	-7272	4224	15272	-108	105	-139	-18912	6288	-3440	1283	853	-305	-18840	4064	-6624	350	1680	528	109	95	1
15524	-18192	17376	141	-1813	-4066	-3824	-18856	16264	1746	253	-949	-29704	3888	-10800	1179	-2427	-2195	-7272	3960	14592	-31	190	-162	-16920	5544	-1288	411	890	-261	-17384	640	-4568	-134	1811	600	119	101	1
10764	-13168	13240	-120	-1379	-3750	808	-7800	8936	2634	-224	-1735	-19232	10280	-10160	627	-2299	-1969	-7408	3608	14648	-13	270	-136	-16664	2856	-2152	-183	868	-270	-16000	-1256	-3600	-391	1839	555	127	102	1
-1908	-4776	20568	-699	-2378	-3445	-7168	-3424	1272	2951	-1058	-2144	-17640	10440	-10048	439	-2271	-1918	-7272	3696	15200	30	332	-109	-16488	2264	-2896	-30	683	-210	-14848	-3792	-1760	-318	1895	552	118	100	1
-9840	-3428	22408	-1246	-4302	-3420	-10664	-920	1048	2636	-2392	-2358	-10328	6240	-9208	-1034	-1718	-1849	-7264	3464	14304	62	348	-130	-16464	2672	-3032	47	641	-194	-14840	-1888	-80	330	1941	527	140	99	1
-8304	-344	18928	-1394	-5616	-3255	-11224	-848	3408	2351	-3574	-2480	-8752	5400	-10448	-1011	-1484	-1667	-7696	4912	14288	44	329	-188	-15080	6464	-2080	754	402	-207	-15192	992	-88	773	1992	521	135	110	1
-7568	1824	16216	-1554	-5827	-3309	-14256	-2128	4576	2462	-4078	-2507	-7552	6752	-12192	-800	-1470	-1614	-8032	3520	14168	-25	236	-204	-14824	5504	-1216	669	469	-293	-13408	2064	656	671	2183	508	131	104	1
-8624	-1368	17184	-1151	-5403	-3525	-16976	-5856	4136	2948	-4240	-2338	-7192	5248	-11240	-335	-1279	-1546	-7448	4816	13968	-89	196	-218	-14032	7016	-1592	387	630	-382	-13456	536	-240	608	2488	490	130	107	1
-12656	-2236	20904	-551	-4893	-3635	-21544	-8584	816	3465	-4511	-2323	-4464	5896	-11400	-144	-990	-1094	-8168	3936	14048	-93	156	-268	-16336	4256	-3296	182	718	-497	-14768	-536	544	564	2710	592	127	107	1
-20600	344	27020	-743	-4728	-3357	-26576	-11136	-2808	3814	-5017	-2326	-2704	3672	-9800	572	-592	-766	-8120	4432	13864	-157	218	-311	-16488	4600	-3272	470	663	-504	-15808	-1376	3392	12	2558	884	135	121	1
-32440	-2664	32428	-1363	-5190	-2807	-31000	-13488	-7312	3670	-5337	-2335	-1576	6952	-7464	1384	2	-841	-7872	4488	14104	-221	212	-432	-15112	4360	-1712	941	611	-524	-17880	1248	-968	38	1914	976	130	120	1
-32768	-5328	32767	-1731	-6000	-2477	-32768	-14936	-8056	3533	-5477	-2288	-3936	4712	-2024	2143	13	-890	-8016	3160	14528	-215	225	-489	-14840	3520	-224	941	730	-587	-18904	1240	-2360	68	1383	734	126	131	1
-32768	-8648	25072	-1586	-6273	-2572	-32768	-11944	-13432	2807	-5730	-2451	-12672	6128	-1480	2408	-336	-807	-8208	1864	15488	-102	355	-421	-17336	3008	-240	523	1004	-747	-16768	-3256	1208	-53	1729	571	131	127	1
-32768	-2464	12968	-1901	-5806	-2805	-32600	-15096	-20944	1862	-5478	-2309	-26240	9208	8480	1687	-829	-1209	2128	3600	9704	246	537	-525	-17656	4856	-1216	620	1197	-867	-17992	-5704	5848	324	1921	659	115	99	1
-32768	10148	-2916	-2194	-4616	-2066	-31640	-15336	-22168	1719	-5304	-2331	-32768	-2992	21776	23	-1015	-1655	-6384	3848	16776	153	913	-547	-18936	5160	608	991	1369	-1069	-22080	-4896	8456	709	1475	661	49	159	1
-32768	25172	-19144	-2169	-2511	-1495	-23720	-1040	-32768	643	-2617	-1394	-8960	-28552	32767	-1425	-742	-407	-9440	3216	16368	154	1536	-608	-19112	5136	1384	864	1772	-1322	-22312	-2976	7608	889	1303	441	37	159	1
-32768	32764	-32768	-882	-555	-504	-11088	14152	-32768	-1279	-316	59	-15624	-10040	25368	-569	111	85	-8304	2592	18000	180	2272	-662	-21672	3808	-352	566	2154	-1567	-22048	-736	5832	598	1026	-50	77	100	1
-32768	12596	-17128	1007	1820	572	-15992	-4600	-29160	-1571	2201	1052	-26744	-1328	8656	-977	149	326	-8128	5528	17480	50	3200	-782	-24496	4952	-2704	511	2426	-1696	-24584	-2088	8368	1	373	-389	128	171	1
-12036	7296	22076	3993	3471	-86	-17432	-21712	32224	623	3640	1239	-15576	1576	-6448	-110	1017	208	-9472	4984	19816	210	4278	-946	-28880	7240	-1072	654	2523	-1810	-28576	-1216	14024	-310	-494	-558	147	194	1
8676	10100	21568	884	5371	541	-23360	-2408	4952	1995	4309	505	-21128	-3216	4696	-1002	512	102	-12832	10096	24400	86	5351	-1641	-32432	15768	2312	988	2626	-1936	-32576	-4016	19640	-1789	-2102	-1037	137	181	1
-524	18000	19756	610	5412	813	-23384	2376	-5944	5	4290	1142	-11072	-9768	16192	1442	-675	616	-9416	12712	21768	-518	6743	-3477	-32768	18904	6184	1433	3041	-1796	-23528	-14024	17480	-2240	-1519	-1070	156	212	1
-17108	-18344	13532	283	2790	2652	-25568	-14432	-4920	-686	2917	866	-20176	4704	-5376	2101	1337	447	-15592	13744	25816	-245	6858	-3661	-32768	10032	4960	2245	2951	-1545	-24920	-15816	15680	404	-1128	-1099	155	86	1
-32768	-32768	21000	2555	1949	1028	-11160	-23816	-13104	-1071	2104	320	-17352	14544	-11288	340	827	369	-32296	24664	32767	1240	8606	-5049	-32768	20720	7592	3346	2266	-1656	-28432	1384	-3400	3745	-126	-1399	122	86	1
-20184	8512	31084	847	301	937	-31592	2280	-6216	-539	2226	518	-10984	704	-6856	-1063	641	362	-32768	17448	32767	2234	6960	-4471	-19792	20864	-1816	2764	2034	-2071	-31320	3416	-10048	4576	-470	-1337	133	94	1
-15936	644	14848	519	115	376	-18280	-7400	-6400	-1428	1420	705	-22760	6160	-9096	-1118	1578	603	32767	32767	32767	590	2710	-3857	-19344	8448	-10672	-230	2085	-1229	-32480	3264	-15504	2586	-1360	-112	136	98	1
-9932	-6076	13380	31	252	69	-18640	-9200	-2576	-1769	744	674	-15184	2824	-6472	-1375	1345	738	-10304	32767	32767	-2318	-1860	489	-12032	4464	-4736	-1046	858	-203	-32768	7192	-14592	250	-1740	173	128	95	1
-8488	-4312	13916	-79	253	26	-13688	-11696	-1512	-1652	349	345	-15208	32	-7432	-1238	1498	891	11176	9432	18688	-1923	-3832	2079	-10856	9680	9416	-1079	-791	444	-27144	5952	-16784	-560	-2633	314	134	93	1
-7292	-5332	13060	-129	250	111	-12224	-13480	-1168	-841	652	159	-19552	664	-5152	-1127	1488	978	12552	3352	12544	183	-2987	2275	-5976	4656	6952	-1415	-1305	785	-17928	-2680	-12936	-880	-2885	490	131	103	1
-8072	-5592	12460	-105	189	198	-14280	-11440	-752	-156	839	122	-18144	-1896	-4680	-912	1676	1351	3528	8408	13872	1083	-2935	2404	-4976	3992	2000	-1284	-2008	1214	-12648	-3712	-13040	-571	-2911	209	135	122	1
-8256	-5428	12896	-70	202	146	-15152	-9064	-1344	-275	679	234	-14376	-2168	-4472	-878	1813	1606	-7232	11336	18560	376	-3831	2281	-4608	2672	-2456	-1461	-2608	1715	-10136	-784	-12344	-520	-2841	141	139	129	1
-8060	-5892	12256	-86	183	92	-12976	-10032	-528	-869	262	418	-15680	-216	-4440	-1099	1954	1640	-4864	2328	14200	-41	-5069	2421	-8280	144	-2264	-1660	-3202	2153	-7648	1280	-12696	-674	-2670	93	133	130	1
-8924	-5436	12412	-60	49	99	-11624	-11088	416	-1262	-153	537	-14824	-3848	-2112	-1077	2063	1720	-6896	1336	13728	597	-5616	2557	-11584	-736	-688	-1327	-3916	2327	-8760	3528	-14008	-826	-2420	88	125	132	1
-8684	-5548	12344	21	44	138	-9992	-12712	520	-920	10	579	-13344	-5328	1216	-546	2169	1640	-8120	2376	14280	1103	-5506	2526	-13256	248	-1000	-872	-4548	2530	-5304	3208	-14864	-1252	-2261	-40	126	136	1
-8184	-5316	12196	112	87	209	-11056	-10576	776	-407	510	576	-11872	-3160	2664	137	2413	1455	-15104	6056	19176	1120	-5432	2354	-14624	1464	-3928	-757	-4969	2834	-3880	3144	-14704	-1458	-2016	-201	124	138	1
-8052	-5504	12184	170	130	282	-12104	-9576	1128	-353	756	565	-12768	-1976	7608	-196	2778	1321	-19056	7576	21832	1037	-5704	2271	-18320	3072	-4888	-1079	-5226	3182	-1152	3488	-15768	-1357	-1521	-267	128	211	1
-8960	-5432	12356	214	130	347	-12304	-9728	1296	-382	781	568	-17008	-2792	-1632	-810	2320	1220	-21048	8608	22600	1272	-5693	2368	-23088	3536	-5272	-1265	-5412	3424	280	2992	-15552	-1161	-784	-229	131	208	1
-7920	-5928	12348	288	122	461	-10912	-10320	1776	-1035	731	756	-19600	-4168	-6256	-328	1661	950	-27272	13328	28736	1719	-5241	2544	-30928	3832	-7008	-1464	-5556	3790	-2800	-1160	-9016	-846	-581	-229	126	192	1
-6264	-5936	14228	374	153	650	-13928	-10736	472	-951	854	764	-18392	-2856	-2264	-65	1470	776	-32768	17376	32767	1761	-5052	3253	-32768	3432	-11872	-2172	-5441	4094	-5144	-6552	-3160	-913	-1070	-596	127	181	1
-8656	-3480	14340	339	455	684	-17456	-9128	104	-966	958	827	-18168	-1432	-416	-605	1385	892	-32768	6600	26616	1533	-4331	3930	-32768	1400	-12008	-2471	-5162	3570	-18720	608	4504	-1371	-1634	-700	127	179	1
-9788	-4484	13772	301	702	675	-13592	-10480	416	-1236	971	932	-17064	-4848	2888	-832	1285	960	-32768	22984	-2512	-335	-4266	4359	-28240	6448	-26320	-2970	-3722	2553	-32768	-12232	3992	-2124	-2940	-283	125	159	1
-7276	-6016	13040	362	854	888	-12640	-10656	384	-1334	1267	1088	-17824	-5664	4824	-724	1054	755	-32768	-12472	-22792	-1385	-3525	3128	-21992	-12104	-32768	-3491	-1772	2086	-12416	-24832	25264	-2088	-2763	-553	122	163	1
-6456	-4604	17472	297	1143	1082	-18688	-10408	2344	-1539	1578	1273	-19808	-4744	3960	-910	787	619	-32768	-32768	-32768	1407	-984	2079	-168	-18440	-32768	-966	65	811	-3032	-19344	32767	-1913	-446	403	122	182	1
-9456	-4840	17768	504	1879	1171	-19312	-11488	2248	-1643	1826	1430	-20736	-7824	4912	-946	221	673	-32768	-2536	-16688	-73	2850	692	-16088	-9312	-31544	-87	2583	-730	-21056	-21688	5696	-1324	1332	854	120	145	1
-9664	-6308	17448	473	2841	1410	-20048	-15232	1304	-1709	2373	1611	-23920	-9928	11376	-783	-833	666	2632	-7184	12360	-1767	2697	840	-32280	-2336	13192	667	2170	-1384	-19328	-4952	-13280	2237	1207	-83	123	127	1
-11456	-14040	21972	794	3801	2078	-23992	-21928	5664	-2019	2737	1619	-28512	-13000	15968	-668	-1988	381	904	-21248	32767	-327	5744	-2444	-26688	8408	9392	-149	2728	-938	-19440	-8160	11928	-199	-1529	-2	114	130	1
-10636	-15628	26732	1005	4994	3134	-30408	-31744	6608	-2215	3003	1595	-30296	-21344	22352	18	-3676	-359	-32496	12632	24544	-445	4363	-2863	-32768	-10504	-8392	-452	3517	-1484	-24360	-2640	-4304	-1149	166	343	121	126	1
-19376	-20844	26288	511	6618	4932	-30848	-32232	6640	-2240	3036	1588	-30048	-3112	20744	398	-1840	-880	-32768	32767	12384	-1613	2932	-1102	-16904	22016	-29304	-397	3653	-602	-22240	1984	-11520	44	626	1087	115	50	1
-12576	-17072	32767	818	8876	6214	-32768	-30128	15688	-3305	2082	1554	-28280	-792	-8504	727	-1698	-199	-10432	-16000	21144	-579	538	-703	-28640	-20016	-11752	-858	2935	-1161	-8480	7512	-21712	744	1393	748	125	57	1
-32768	-11920	25508	-1435	8937	5569	-21480	-17640	312	-4049	795	1980	-27936	4592	-16520	871	-2316	-638	-7432	-4096	18488	-557	-9	-315	-11576	2736	-8160	764	1726	-446	-12400	168	-14360	473	1560	931	110	93	1
-11772	-32768	32767	-1397	3535	3704	-14920	-27200	-7424	-3098	1079	1608	-32768	8176	-4736	-89	-3040	-1444	-9160	7872	14120	-88	84	-36	-19208	128	-7184	1598	1363	-408	-18296	4624	-12056	1316	1614	594	96	83	1
-17108	-32768	32767	2422	-736	-725	-5752	-13728	5104	-160	970	-341	-32768	1992	-6688	359	-2442	-1688	-7960	4056	15056	-26	122	-73	-20016	5976	-4840	1563	844	-234	-18808	8224	-8176	548	1694	458	105	84	1
18016	-13108	18828	497	-1440	-3677	-3992	-12352	16552	1969	514	-757	-29720	408	-11800	1390	-2213	-2187	-7424	3808	15008	35	213	-100	-16968	7160	-2016	597	866	-277	-16840	1272	-4992	-397	1876	564	112	85	1
15060	-9672	14408	-225	-1130	-3739	2184	-6464	8768	2371	-83	-1177	-19696	8968	-10624	1021	-2231	-1816	-6544	4360	14736	68	303	-117	-16464	4552	-1816	-152	900	-231	-16536	-1584	-3712	-606	1864	665	130	89	1
2996	-4440	20872	-247	-2140	-3129	-5632	-4224	4880	3025	-902	-1609	-15472	9208	-8328	111	-2137	-1633	-7544	4248	14016	49	335	-151	-16976	3216	-2624	-172	750	-182	-15448	-1560	-1416	-293	2030	643	127	92	1
-4584	-1304	21232	-349	-3804	-2614	-9240	-832	3072	2695	-2088	-1795	-9904	6512	-8744	-523	-1814	-1731	-8440	5688	13984	4	301	-159	-14976	5528	-3088	278	502	-242	-14880	-232	-760	405	2162	670	125	101	1
-6064	356	19420	-918	-5071	-2380	-10736	304	2896	2262	-3308	-1913	-8432	3864	-9752	-633	-1748	-1641	-8240	4632	13808	-57	223	-237	-14280	5344	-2552	761	378	-314	-14056	984	384	981	2266	575	135	82	1
-7584	-2408	17744	-1219	-5755	-2520	-11832	-3216	2800	2364	-3985	-2011	-8736	5080	-10176	-608	-1616	-1507	-8000	4312	14104	-123	140	-263	-14488	5792	-848	898	364	-369	-13032	1984	880	980	2351	509	131	83	1
-8104	-3480	15724	-950	-5812	-2835	-15024	-6112	3096	2831	-4260	-2038	-9224	5072	-11376	-138	-1513	-1449	-7432	4032	14160	-156	121	-286	-13928	7104	-352	449	588	-456	-13912	504	1232	554	2585	485	127	82	1
-9104	-4340	17140	-639	-5286	-2965	-19032	-8560	1784	3261	-4553	-1997	-6784	6648	-10472	329	-1339	-1206	-7976	3552	14176	-161	149	-294	-15248	4496	-872	12	819	-570	-16120	-1992	3264	76	2452	609	127	27	1
-13808	-5312	19320	-711	-4726	-2889	-21016	-11096	-1296	3471	-4962	-2116	-5480	7232	-10072	789	-1035	-965	-7832	4320	14040	-174	128	-315	-15368	3752	-1112	379	865	-608	-16360	-2448	3568	-301	1915	784	131	56	1
-23956	-8300	25076	-916	-4369	-2606	-24872	-14192	-5520	3405	-5188	-2335	-3896	8704	-8696	1264	-433	-767	-7632	4000	13952	-189	108	-387	-13968	4520	-824	663	979	-636	-17616	-1256	-368	-197	1511	797	131	72	1
-32768	-9212	32084	-1618	-4816	-2796	-32184	-17536	-7448	3608	-5249	-2567	-3096	8728	-9216	1255	-351	-802	-11464	4104	15832	-152	83	-466	-15912	3240	-1688	530	1132	-680	-16104	-256	-1976	-64	1516	600	119	82	1
-32768	-13208	31032	-2188	-5327	-3267	-32768	-19296	-11000	3559	-5348	-2734	-8792	4584	-1824	1680	-610	-862	-8136	3360	15136	-134	292	-395	-17168	3664	-2640	485	1245	-761	-14376	1104	-904	6	1686	554	119	91	1
-32768	-3896	23352	-1962	-5360	-3878	-32768	-11344	-17728	2990	-5444	-2617	-16104	5472	-368	1099	-465	-1012	-8128	3520	15200	-80	494	-384	-17776	4280	-2728	518	1289	-871	-17680	-768	1064	95	1611	613	120	113	1
-32768	5528	11516	-1076	-4794	-3587	-29920	-17872	-27168	2231	-4431	-2276	-26344	4344	10992	339	-463	-1846	-8864	4136	15280	28	692	-525	-17984	5008	-1640	669	1381	-973	-18672	-3352	3264	478	1569	757	89	109	1
-32768	14820	-8720	-802	-4022	-2223	-31816	-7616	-32768	1681	-3181	-2146	-17744	-17768	31064	-1322	-901	-1629	-7608	4360	16720	-18	1297	-564	-18272	4912	-2048	693	1402	-995	-23184	-5168	3496	840	1595	612	76	115	1
-32768	32767	-30836	-2112	-2340	-803	-20192	15360	-32768	-461	-2588	-1210	-13416	-24552	30480	-586	-94	136	-7736	3208	17600	93	1900	-667	-20208	4512	-392	842	1856	-1341	-21216	-3704	6176	947	1254	226	79	120	1
-32768	29460	-32768	-426	40	315	-11472	6616	-32768	-1774	1070	460	-21872	-8992	16744	-642	375	161	-9824	6272	20816	-73	2567	-753	-22968	5288	-168	695	2158	-1549	-22328	-696	7408	570	857	-44	126	120	1
-27428	-1168	-26416	3948	2568	1111	-23912	-6384	-11032	-1292	2659	1227	-22616	-2312	336	245	384	-5	-9240	4984	18256	-51	3618	-944	-25528	5632	-1896	741	2401	-1663	-26872	-1872	12544	115	74	-271	130	130	1
2356	-32768	32767	1416	4708	-180	-29168	-32768	32767	1640	2753	817	-19936	2536	-6712	583	1321	356	-8000	9112	21488	-48	4697	-1343	-30952	13408	1152	1012	2545	-1786	-31264	-1272	18152	-453	-1079	-491	134	133	1
-22960	32767	23996	475	4992	1561	-32768	20824	-11984	1183	4796	921	-17880	-9080	20200	404	-1158	483	-15464	15376	21904	-308	5962	-2562	-32768	19216	4608	1401	2882	-1882	-27472	-6560	13312	-2102	-1774	-1053	145	129	1
-21544	6372	31724	355	3119	3010	-30864	-12288	-3368	-383	3360	686	-15272	40	1600	2045	1669	403	-20136	12864	27048	-174	7446	-4346	-32768	15696	6184	1884	3116	-1558	-21040	-17584	15216	-782	-1365	-1059	125	134	1
-32768	-32768	8428	962	1859	1287	-10712	-27176	-12224	-1751	2563	523	-22656	20864	-13776	808	726	409	-18736	6824	29704	1412	8477	-4955	-32768	12568	8704	3007	2695	-1404	-30568	-5768	3264	2037	-763	-1091	102	202	1
-18508	25368	32767	805	569	1081	-22304	-592	-7296	-591	2323	226	-9296	3784	-14224	-1439	491	423	-32768	18112	32767	3365	8171	-4752	-25912	17392	2856	3816	1929	-1562	-30328	-1208	-17856	5012	-246	-1536	112	182	1
-21580	-25484	7476	512	497	629	-9760	-11944	-10096	-1800	1254	741	-16912	7728	-9400	-1668	1179	795	-26728	32767	32767	2574	4924	-4546	-20072	11296	-10512	2563	2214	-1501	-27576	-2696	-15360	3965	-1300	-698	120	167	1
-6904	-3384	14688	162	179	225	-22496	-6648	-1080	-1492	960	668	-19168	1144	-11080	-1351	1541	586	-32768	28920	32767	-2455	754	-1426	-8392	-760	-10280	189	1210	-301	-29736	3960	-12912	2317	-1526	-65	131	155	1
-8188	-2872	14640	85	148	136	-16560	-12080	-1128	-1682	428	432	-16136	-1536	-7224	-886	1377	734	4952	21696	22784	-1646	-3305	2080	-10192	8888	6032	-267	-244	815	-31312	7144	-16024	594	-2023	230	125	144	1
-7972	-5604	13288	-8	207	163	-11704	-13872	40	-1004	566	289	-19328	1160	-4392	-566	1446	881	14696	5008	14216	-102	-2840	2734	-6560	9504	9640	-746	-899	1113	-21568	952	-14112	-122	-2559	668	127	144	1
-7372	-5028	13192	40	282	244	-13424	-11344	600	-168	983	146	-17256	-680	-3072	-483	1535	1122	9856	4528	11576	1279	-2362	2541	-4360	5160	5224	-1441	-1420	1486	-13080	-4248	-12296	-271	-2830	568	138	151	1
-7720	-5208	13272	52	358	245	-15584	-8568	-528	18	975	142	-16576	-848	-2584	-381	1658	1349	-2328	9888	17200	1125	-2793	2480	-3912	2608	-440	-1612	-1925	1876	-10880	-1600	-13144	-171	-2686	421	135	158	1
-8560	-4528	12916	-33	333	129	-15216	-8512	-1176	-595	550	289	-15168	752	-3312	-660	1840	1479	-8168	7848	18696	351	-3987	2612	-7128	-200	-2232	-1790	-2565	2381	-9288	1888	-13040	-361	-2578	282	137	157	1
-9164	-5392	12416	-45	201	101	-12864	-9768	-520	-1152	59	398	-14624	-112	-3208	-1028	1939	1592	-9688	2784	19472	647	-4869	2876	-10824	-1832	-648	-1576	-3353	2642	-7088	2432	-13064	-522	-2438	213	134	160	1
-8852	-4352	12684	-33	109	106	-12008	-11128	552	-1104	-114	478	-14864	-3224	-2096	-955	2009	1653	-8736	640	16560	1117	-5350	3025	-13568	-1496	-544	-1190	-4061	2763	-7088	3720	-14568	-793	-2202	163	127	222	1
-8788	-4664	12560	32	109	124	-11080	-11056	648	-601	257	506	-13856	-2728	336	-229	2271	1576	-11400	2272	18656	1162	-5418	2914	-15080	608	-2040	-961	-4652	2954	-4488	2688	-14328	-1229	-2041	-2	124	227	1
-8240	-4372	12860	83	146	158	-12856	-9416	728	-273	608	484	-11840	-976	3872	298	2698	1445	-17264	3304	21848	1108	-5512	2624	-18008	1008	-3728	-968	-5087	3147	-3624	5736	-14184	-1308	-1679	-87	122	207	1
-8540	-4384	12812	66	180	184	-13384	-9272	632	-403	702	498	-14160	-2104	6480	-417	2915	1343	-19672	4808	22152	1314	-5561	2397	-22392	2664	-4768	-985	-5364	3348	-320	6096	-15344	-1348	-1054	-80	125	197	1
-8948	-4776	12272	97	197	258	-13448	-9152	648	-470	693	515	-17016	-2576	-1472	-638	2399	1212	-25392	7400	26512	1690	-5122	2194	-27008	3224	-5648	-981	-5614	3525	-448	5848	-15168	-1299	-911	-50	131	190	1
-7980	-4480	12988	134	197	352	-11744	-9224	1808	-1188	503	645	-18712	-4824	-5368	-227	1751	903	-32768	14360	32767	1998	-5057	2334	-32768	4352	-9384	-1447	-5475	3818	-5336	-1336	-2296	-767	-1028	-189	125	180	1
-8344	-4508	13324	163	252	427	-13680	-10832	152	-977	770	735	-18264	-1752	-3160	-11	1613	790	-32768	17264	31760	1745	-5359	3253	-32768	4040	-9600	-1580	-5399	3880	-13824	-6576	1160	-639	-1637	-635	124	168	1
-10116	-4812	13296	126	465	464	-16480	-9664	-24	-922	979	801	-18160	-1472	-2664	-66	1585	784	-32768	6680	16112	860	-5036	4195	-29496	424	-15400	-2048	-4863	3340	-26528	-8616	4936	-831	-1908	-578	125	159	1
-8432	-5236	13656	162	716	540	-13408	-10952	1136	-1117	1067	890	-17992	-3512	2976	-725	1400	957	-32768	3400	-2016	-14	-4031	3903	-25216	4648	-25384	-2664	-3230	2687	-32768	-17128	28384	-1993	-2960	-132	122	137	1
-10180	-4920	13584	164	896	720	-13960	-9968	1320	-1403	1262	1043	-19704	-2576	5144	-591	1133	638	-32768	-32768	-32768	301	-2692	2610	-14368	-20192	-32768	-2024	-1511	1755	-32632	-19144	32424	-2135	-3451	-278	119	169	1
-7572	-4100	17192	277	1372	762	-18880	-10272	3344	-1477	1535	1279	-21176	-4448	3432	-985	778	571	-32768	-28824	-32768	446	411	1686	-2976	-10528	-28784	-898	1510	-33	-13728	-23072	20760	-2145	-355	680	118	178	1
-8664	-3988	18132	290	2072	845	-19360	-11776	1736	-1436	2017	1447	-19256	-8024	2856	-996	65	648	-32768	9832	1032	-1854	3627	850	-21536	-7160	-26704	-555	3135	-991	-20824	-16008	-1368	-565	1128	433	121	135	1
-11252	-8464	17564	400	2880	1150	-20544	-14904	1024	-1516	2365	1478	-25056	-5560	6816	-755	-795	566	-5544	-15040	16968	-2330	2677	889	-29848	-3480	13888	92	2464	-1207	-16048	1296	-10696	1231	334	-166	119	118	1
-11508	-8620	21116	467	3880	1678	-24552	-18368	3936	-1786	2587	1573	-29080	-10160	12872	-788	-1719	320	-2896	-29592	32767	-695	5177	-1638	-25728	5448	12296	-509	2942	-1164	-5448	3104	-4368	-545	-988	194	115	132	1
-10944	-11280	22400	547	5066	2685	-27912	-25704	6224	-2186	2700	1580	-27568	-16472	21552	-107	-3323	-292	-32768	-864	32767	-403	3569	-2860	-31064	-16208	-15776	-1085	3849	-1680	-20136	-2272	2512	-1403	57	108	116	116	1
-19908	-22608	27796	50	6581	4288	-32672	-32768	12080	-2730	2683	1432	-29144	-7760	13720	-820	-1726	-719	-32768	32767	-12112	-1985	2633	-889	-18552	25496	-24184	-53	3438	-807	-22976	-4272	-10816	-1093	1027	856	117	56	1
-18164	-13124	27360	-140	7983	5855	-32768	-30856	17264	-3109	2253	1512	-26072	-1400	-2416	250	-1717	-179	-7544	-32584	27144	-891	164	-1034	-26656	-22776	-8776	-1764	3074	-1300	-8992	7816	-19560	491	1971	549	116	67	1
-32768	-20052	32767	-1535	8804	5113	-20640	-25072	10072	-3574	1219	1960	-26904	1800	-17656	1130	-2244	-494	-5752	-5552	17880	-822	-97	-449	-12144	3392	-8760	622	1767	-521	-13736	-4264	-13712	-134	1225	1068	113	89	1
-26768	-32768	32767	-1392	4519	5069	-11312	-26776	-11128	-3605	1309	1815	-30160	2968	-8264	-110	-2781	-1424	-6344	8240	14592	-165	98	-49	-20800	-88	-7872	1737	1243	-396	-19976	1664	-12840	1886	1567	771	103	91	1
-32768	-26492	32767	5276	661	2363	-5616	-10896	-6888	-137	1458	82	-32232	1016	-4664	215	-2560	-1639	-9048	4256	15024	-110	74	-113	-18848	6416	-5568	1774	742	-253	-18480	8088	-6464	1512	1910	506	89	88	1
8884	-25476	27092	1208	-2459	-3002	-7504	-8544	13632	2084	491	-583	-32768	-88	-11992	1292	-2252	-1987	-6656	4624	14984	-33	145	-118	-16824	8864	-816	751	812	-363	-17824	4960	-4240	105	1847	419	111	103	1
19092	-14428	13452	-9	-1911	-3785	-1360	-11256	13064	2375	-340	-1031	-24752	9240	-10648	1492	-2226	-2053	-7448	4696	15008	-35	246	-180	-16304	4616	-2112	-110	915	-353	-17344	-264	-3968	-519	1776	514	124	102	1
6780	-8060	17268	-275	-2049	-3254	-2256	-4392	5760	2729	-1048	-1563	-15856	10880	-9208	566	-2138	-1696	-6592	4496	14352	12	300	-126	-17608	2824	-3808	-248	777	-367	-15448	-928	-2840	-352	1957	528	134	102	1
-6308	-4824	21664	-614	-3553	-2944	-8680	-1896	1680	2535	-2137	-1892	-10696	9088	-7760	-499	-1964	-1593	-8016	4520	14008	21	270	-130	-15152	4160	-3592	325	498	-317	-15312	-1864	-1576	285	2052	575	122	101	1
-9740	-2416	21128	-956	-5215	-2940	-11088	-1520	2688	2306	-3207	-2040	-9232	4064	-8512	-860	-1635	-1675	-7952	5296	14128	-30	216	-182	-14424	6208	-2568	814	331	-344	-14696	1960	-136	1047	2161	392	136	109	1
-8928	-1848	17200	-1090	-6010	-3048	-12528	-3408	3672	2426	-3990	-2187	-8880	4248	-9008	-822	-1610	-1652	-8136	4808	14096	-106	136	-241	-14704	7048	-1640	774	361	-394	-13840	3744	-88	943	2322	373	128	111	1
-9328	-2368	16084	-904	-5922	-3275	-15704	-5800	3288	2978	-4208	-2251	-7536	5912	-12248	-312	-1431	-1376	-8896	3944	13928	-159	69	-283	-13832	6040	-1800	278	553	-518	-13224	936	1232	474	2575	370	131	88	1
-12060	-3944	18004	-541	-5535	-3484	-18368	-7984	1616	3517	-4298	-2176	-6168	7440	-10568	160	-1221	-1228	-7832	4016	14256	-179	85	-284	-15888	3976	-2176	132	634	-575	-15240	-2800	2624	179	2676	534	136	150	1
-15080	-3948	20776	-465	-5156	-3411	-21624	-10640	232	3844	-4688	-2246	-3664	8088	-10160	615	-904	-936	-7768	4216	13920	-215	45	-330	-14840	4432	-1592	462	677	-601	-15400	-2568	5128	-71	2314	800	129	196	1
-21876	-6272	25644	-680	-4718	-3062	-27312	-13776	-3096	3824	-5057	-2323	-2824	7704	-9128	989	-310	-591	-7664	4240	14000	-262	-23	-393	-13336	5320	-760	628	800	-666	-16504	-248	-424	2	1734	828	130	198	1
-32768	-8532	32767	-1193	-4930	-2984	-32768	-18312	-7280	3871	-5363	-2493	-2792	4952	-3528	1367	-62	-404	-7624	3296	14704	-287	48	-494	-15808	3216	-1696	499	974	-700	-18984	-296	-2768	87	1423	590	122	190	1
-32768	-9136	32767	-1586	-5407	-3242	-32768	-20144	-7448	4038	-5399	-2374	-6664	-96	-3120	1941	-445	-976	-10280	4240	16760	-177	141	-520	-18696	2520	-2800	473	1057	-761	-17008	568	-1280	128	1759	395	125	162	1
-32768	-3964	24752	-1072	-5291	-3565	-32768	-12056	-19216	3376	-5433	-1845	-19872	-2288	888	1480	-672	-1524	-8576	3296	14840	-146	451	-437	-16736	4880	-1976	591	1116	-851	-16992	176	2736	99	1927	427	124	143	1
-32768	-5164	2384	487	-5497	-2833	-32768	-12152	-20176	3306	-5285	-1884	-32320	8720	19760	1927	-215	-1953	-8744	4384	14848	-57	670	-512	-16648	5736	-1256	558	1353	-1026	-18560	-5424	7752	53	1493	536	103	234	1
-32768	26260	-18732	-627	-4318	-1086	-26064	4296	-32768	1871	-2634	-2218	-17712	-8288	32767	814	-2167	-1482	-7104	5928	18896	144	980	-708	-19648	3616	344	840	1666	-1223	-20952	-5464	8624	665	1455	578	55	186	1
-32768	32767	-32768	-3858	-2123	-640	-14808	12392	-32768	-1479	-2317	-419	-7448	-18680	32767	-518	-517	648	-9648	4496	16856	-51	1813	-670	-20104	6056	-648	711	2014	-1482	-23000	-1936	6288	1058	1223	275	67	161	1
-32768	17124	-31604	29	166	472	-10008	1632	-32768	-2222	793	813	-22160	-1288	9688	-1341	803	337	-7584	5096	18256	-275	2577	-856	-23744	5592	-2184	544	2353	-1677	-24592	-816	6600	523	697	-111	90	220	1
-16212	-2832	728	3168	2106	777	-25248	-13176	5568	-1995	2853	1473	-23552	-464	-6696	-788	419	-152	-10240	7416	20576	-309	3662	-1137	-27440	7144	-2248	805	2568	-1765	-28640	-2192	16240	106	-209	-435	146	226	1
16004	-2396	32767	733	4727	952	-27888	-13280	21672	1953	2950	136	-20344	2560	11112	-1342	290	530	-9824	9512	23184	-512	4851	-1807	-32768	16432	1552	1122	2757	-1875	-31672	-200	21960	-886	-1535	-538	135	253	1
-31220	15352	26004	1647	5316	2464	-26984	648	-7832	581	4287	1049	-14680	-14608	17216	8	-375	78	-12080	15656	21720	-917	6110	-3348	-32768	20776	3984	1298	3308	-1847	-27840	-10408	17008	-2704	-2087	-1045	140	120	1
-23716	-4320	19748	324	3252	2710	-27768	-13072	-5480	-681	3305	729	-20712	-3776	-5272	1928	1550	381	-12264	12472	21656	-974	6323	-3771	-32768	14424	7504	2202	3300	-1458	-23960	-20520	11832	-164	-1378	-827	161	0	1
-18424	-27236	28748	1075	2336	1160	-16296	-17576	-7872	-1615	2048	645	-18560	19536	-10504	850	341	430	-19880	7176	30944	1625	8630	-5334	-32768	13088	6288	3709	2582	-1426	-30920	-1928	-5536	3518	-76	-1241	148	1	1
-10136	17736	23424	948	538	1164	-23152	-3480	-5048	-518	2554	218	-16464	17688	-10256	292	290	455	-32768	21040	32767	3552	7547	-4950	-22016	17288	-608	4115	1812	-1813	-30592	-4784	-12952	4410	-930	-1283	133	19	1
-18372	-12460	12512	701	340	592	-14240	-8904	-7848	-1307	1641	612	-21632	6168	-13448	-1271	1458	585	-4504	32767	32767	1548	3413	-4388	-17736	5184	-15328	1357	1992	-849	-27936	-3624	-16384	3657	-1382	-407	119	34	1
-12272	-7712	12684	208	113	234	-19864	-9312	-3840	-1609	884	679	-18696	1216	-10432	-1095	1604	682	-17256	32767	26104	-1554	-1076	1373	-10776	5600	832	659	653	431	-32768	7344	-15472	1976	-1622	7	131	50	1
-8652	-3156	14480	86	102	143	-17064	-10232	-1512	-1515	368	399	-16216	0	-6360	-806	1427	805	13224	11968	17256	-972	-2404	3338	-8088	16800	10872	-470	-441	981	-27096	7288	-16464	479	-2284	540	144	58	1
-7916	-4812	13736	0	180	162	-13168	-12224	-376	-857	486	262	-18648	2224	-5320	-573	1540	1049	12328	6024	12800	315	-1554	3159	-2800	9104	7728	-1957	-691	1321	-17816	-504	-13304	-103	-2607	808	130	74	1
-7580	-4592	13420	-4	218	187	-14688	-10832	560	-219	748	129	-16888	64	-3104	-550	1617	1249	2248	6432	17976	728	-1894	2964	-5000	3352	936	-2396	-1169	1623	-12184	-3248	-12728	-356	-2876	736	135	101	1
-8856	-4016	14016	-8	298	148	-15416	-8304	352	-5	755	126	-16432	-688	-2392	-402	1725	1488	-6072	4928	20992	425	-3247	2687	-6552	-936	-1464	-2386	-1915	2097	-8776	-936	-11288	-289	-2628	560	136	119	1
-8540	-5244	12628	-50	313	67	-14728	-8144	-416	-554	352	229	-15632	-152	-2384	-591	1894	1546	-5320	-848	18848	698	-4513	2628	-9984	-4080	464	-1802	-2805	2492	-10560	40	-13240	-595	-2532	395	138	120	1
-8756	-5228	12472	-71	212	49	-12752	-10008	744	-1017	19	404	-14576	-1672	-1816	-841	1928	1625	-4832	-1344	17656	1215	-4913	2546	-12272	-2280	928	-1127	-3639	2643	-7424	864	-14160	-766	-2568	303	134	154	1
-10060	-5176	14196	-33	73	86	-10936	-11360	920	-1000	-20	499	-14144	-2864	-72	-747	1924	1604	-8928	1288	19136	1382	-5060	2527	-13656	-1960	-1200	-788	-4223	2760	-6168	1608	-14008	-929	-2353	122	125	176	1
-8528	-4840	12804	69	63	96	-10488	-10696	992	-590	314	536	-13208	-2920	2864	-212	2143	1561	-13344	2360	22280	1139	-5353	2427	-15792	-752	-2712	-694	-4738	2983	-3560	2520	-13864	-1088	-2076	-115	123	182	1
-7156	-4608	11568	192	92	168	-12264	-9464	944	-331	641	522	-11720	-1352	6192	194	2814	1304	-15880	2144	22576	1430	-5591	2269	-19216	1232	-3496	-622	-5180	3200	-3312	5976	-13640	-1058	-1709	-222	123	171	1
-8044	-5000	12556	144	88	187	-13072	-9464	920	-491	724	561	-14976	-2296	5384	-1035	2773	1361	-17640	4368	21800	1839	-5332	1987	-23016	3488	-3648	-620	-5458	3448	-1064	6400	-14728	-1090	-982	-157	124	176	1
-8164	-4816	12272	203	76	271	-12536	-9400	1856	-882	661	702	-15376	-2168	4168	-1105	2672	1342	-27984	9960	29056	2214	-4816	1884	-26952	2176	-6712	-732	-5505	3725	-2552	1120	-11096	-796	-505	-166	127	185	1
-9020	-4172	13324	235	52	375	-12136	-8672	1784	-1093	624	699	-20056	-3104	-3568	16	1575	836	-32768	13704	32767	2375	-5027	2390	-32768	3072	-8224	-1382	-5294	4042	-4480	-3792	-3056	-496	-893	-270	125	176	1
-9000	-3492	13244	204	189	457	-15992	-8480	392	-983	821	724	-16952	144	-800	-62	1615	792	-32768	13784	31432	2087	-4951	3243	-32768	2312	-10224	-1752	-5079	3983	-15368	-8120	3704	-648	-1751	-769	125	172	1
-8060	-4340	14176	166	440	467	-15360	-9944	504	-1014	875	794	-15520	-2344	-176	-674	1550	997	-32768	1424	20608	1358	-4434	4185	-32536	-976	-15256	-1859	-4811	3298	-29072	-8704	3152	-635	-1769	-468	126	156	1
-8596	-5128	14200	184	637	594	-13560	-11560	928	-1193	968	901	-18464	-3760	2568	-652	1459	971	-32768	1648	3832	-61	-3935	3683	-25024	3016	-26440	-2479	-3233	2612	-32768	-14440	32767	-1592	-3326	212	120	150	1
-8900	-5200	14404	244	853	781	-14696	-10120	2576	-1401	1184	1074	-20040	-3392	3048	-524	1149	702	-32768	-32768	-32768	117	-3198	2050	-10576	-18880	-32488	-1685	-1479	1742	2056	-9000	32767	-928	-1016	-453	119	177	1
-7228	-3192	17620	345	1326	812	-20072	-9568	3272	-1450	1443	1307	-21456	-1544	864	-831	916	691	-32768	-31072	-32768	219	370	978	-4352	-11272	-27384	-912	1581	-104	-14184	-20536	20624	-1677	-213	585	115	183	1
-8020	-4424	17960	230	2017	883	-19440	-11792	1936	-1302	1827	1459	-19032	-5104	608	-746	249	824	-32768	-9808	-4016	-1070	2946	211	-21256	-13288	-27368	-477	3185	-1213	-20480	-15736	-2792	-858	1045	234	118	147	1
-8536	-9300	19220	479	2727	1033	-20184	-15280	2992	-1291	2125	1551	-23528	-5072	5272	-707	-475	729	-8896	-6264	10024	-3104	2818	365	-27600	-1080	2688	444	2899	-1028	-16896	1264	-8304	910	178	-327	120	133	1
-10064	-7144	18780	550	3636	1537	-23600	-15928	2336	-1524	2382	1639	-28064	-10600	10776	-558	-1393	402	8224	-18424	26616	-152	4373	-260	-27880	4696	27168	-192	2336	-1130	-5056	11008	-14688	542	-231	435	119	143	1
-11272	-11936	21468	621	4683	2368	-24816	-24760	6160	-1919	2418	1736	-26576	-16640	17824	-87	-3011	-210	-32768	-20344	32767	-627	4841	-2437	-20768	-11824	-17296	-1341	3652	-1691	-27616	-6304	8672	-1371	-1132	53	121	126	1
-14748	-19212	20492	485	5954	4145	-25840	-30760	9600	-2421	2578	1576	-26064	-9208	11952	-1116	-2199	-661	-10728	28856	32767	-1559	2831	-1684	-28456	12224	-11984	-546	2990	-1123	-26024	-4936	-8296	-2266	1177	777	123	103	1
-22492	-16140	27360	232	7078	5777	-32768	-27216	10976	-2933	2407	1392	-24352	-1688	4000	-35	-1801	-153	-6960	-32768	32767	-2107	769	-1115	-24032	-8896	-6928	-2115	2985	-880	-11632	4056	-14360	249	1718	597	121	40	1
-25660	-17712	31416	-808	8655	5729	-26024	-28424	13976	-3264	1395	2003	-26744	-1024	-15072	853	-2304	-401	-18416	32767	10344	-820	414	-350	-15288	4392	-16432	661	2250	-722	-11888	-5288	-13416	-186	1354	1242	107	75	1
-32768	-32768	32767	-2320	5730	5195	-10568	-27808	-6896	-3822	1298	1995	-25456	880	-8048	-116	-2708	-1248	-8168	3640	15680	-127	67	-117	-19816	-5464	-6264	1266	1241	-499	-19992	2016	-12584	2138	1654	874	94	82	1
32767	-32768	30352	5072	2793	4746	-6096	-19136	-7440	-583	1267	151	-32168	2512	-4072	-131	-2462	-1592	-7864	2304	15368	-60	33	-68	-19448	6168	-6080	1882	809	-298	-18008	10232	-7368	1939	1802	587	105	83	1
-1880	-19716	31940	2461	-2050	-2744	-11256	-3856	4888	1599	575	-762	-32768	-4320	-11880	1068	-2099	-1813	-7472	4816	14968	19	52	-19	-16408	9344	-2832	1202	677	-383	-17872	9568	-5088	327	1892	484	103	84	1
18592	-17548	15768	492	-2048	-4697	-3064	-21720	15280	2747	208	-819	-29528	6600	-10248	1875	-2287	-2145	-6720	5040	14512	12	147	-68	-15472	7736	-1224	-11	876	-380	-17320	1120	-4272	-866	1693	645	128	95	1
9696	-9156	14952	425	-1828	-3897	-2376	-6768	7928	3511	-143	-1543	-18160	10776	-9208	1081	-2141	-1991	-7008	4272	14256	-19	206	-111	-16760	3144	-2520	-471	857	-311	-15752	-2384	-3440	-800	1765	512	130	94	1
-2152	-3632	20872	-527	-2805	-3257	-7864	-2784	2488	3073	-1525	-1754	-12712	9400	-7496	-4	-1973	-1768	-7472	4288	14744	-34	233	-122	-17176	1824	-3072	-105	575	-232	-15624	-5408	-2104	-401	1913	698	132	97	1
-10168	-3772	21700	-1022	-4535	-3025	-10784	-2328	416	2455	-2855	-1903	-9872	4984	-8104	-443	-1655	-1843	-7584	4520	14248	-26	208	-113	-15840	3648	-2760	605	332	-208	-14696	-3216	-240	823	2123	565	133	98	1
-9608	-2300	18372	-1302	-5742	-3089	-12320	-1872	2584	2190	-3957	-2026	-6976	5232	-10432	-465	-1398	-1570	-8504	4256	14120	-46	147	-134	-14352	6680	-1392	1000	212	-231	-13984	1832	856	1231	2183	515	133	93	1
-9836	-2204	15952	-1431	-5917	-3307	-14504	-4080	2920	2330	-4521	-2102	-6872	6512	-12360	-298	-1226	-1453	-8256	4744	14264	-93	65	-128	-12224	8088	-344	647	467	-357	-13768	2584	2408	863	2216	416	131	69	1
-12092	-5428	16216	-978	-5689	-3605	-15280	-7768	1720	2811	-4625	-2084	-5952	7120	-11224	-186	-994	-1160	-7736	4552	14400	-144	17	-146	-13128	7160	-184	118	796	-489	-14784	-712	2968	467	2325	345	137	86	1
-15200	-6084	18484	-362	-5295	-3524	-18920	-10632	704	3383	-4714	-2237	-4192	6032	-10824	498	-823	-981	-7248	4256	13936	-164	17	-191	-15720	4672	-1464	107	920	-555	-15704	-1144	3320	337	2323	480	133	143	1
-15992	-5824	18708	-329	-5230	-3466	-24568	-14784	-1288	3904	-4814	-2356	-2048	6784	-10432	1186	-225	-704	-7744	4128	14184	-203	6	-265	-15040	4688	-2840	424	919	-581	-15400	-1480	2768	278	2215	708	131	110	1
-29628	-12444	29860	-707	-4509	-3092	-32768	-17640	-5528	4293	-4838	-2558	-1456	7152	-5128	1692	239	-588	-7632	3768	14160	-245	-8	-315	-14088	4920	-1848	629	932	-606	-14432	-1184	1592	208	1920	917	131	138	1
-31164	-13124	31020	-775	-4542	-3151	-32768	-22296	-5928	4618	-4733	-2662	-6176	104	2104	2418	-407	-842	-6744	4712	14680	-279	102	-451	-16304	6176	-1920	620	1044	-637	-15624	1440	-128	290	1766	913	131	162	1
-32768	-6164	24364	-1201	-4669	-4943	-32768	-12928	-11984	4194	-4951	-2076	-17376	-784	4480	2501	-867	-1216	-7032	3184	15344	-219	282	-487	-17720	4064	-1544	601	1196	-795	-18472	1672	1376	387	1672	812	123	128	1
-32768	-13544	3516	211	-4442	-4770	-18360	-22320	-25520	3452	-3875	-1757	-32768	10864	14768	3180	-220	-1841	-8232	3856	15288	-121	509	-571	-15888	5864	-1232	737	1373	-905	-19872	-2928	4304	564	1736	742	124	217	1
-32768	14332	-12832	771	-3997	-2655	-31248	-800	-32768	3417	-1947	-2306	-27448	3928	29712	1297	-1977	-1687	-6048	4552	16080	-91	781	-682	-17728	5600	-1344	824	1607	-1073	-20392	-2032	6192	773	1453	644	64	253	1
-32768	32767	-32768	-3153	-2081	-1626	-19200	16128	-32768	-1006	-2187	-763	-6176	-28168	31832	415	-858	119	-9712	2696	17072	106	1151	-770	-19232	4296	-1984	768	1934	-1336	-19592	-2040	7112	804	1262	474	43	122	1
-32768	23188	-32768	-1400	295	154	-6080	-472	-32768	-2169	499	519	-15800	368	14384	-960	912	193	-9176	3832	16944	-18	2165	-736	-22968	5008	-2400	762	2196	-1528	-22344	-256	6752	582	909	148	110	155	1
-32768	-1968	-15820	2925	2771	1343	-23800	-9544	-17816	-1863	2593	1113	-22760	-88	-528	-1095	277	-68	-10280	6344	21720	-311	3030	-943	-26008	7344	-1712	848	2423	-1676	-27352	-1192	12224	299	285	-96	120	136	1
32767	-19392	32767	2298	4128	936	-28720	-32768	32767	539	2668	1223	-21760	5888	-3512	-871	437	430	-11416	9416	22248	-378	4399	-1297	-30864	12400	-1832	1056	2717	-1791	-32768	-1648	19912	-63	-1043	-369	148	253	1
-24796	24532	24988	2023	5349	2512	-32768	4200	-11480	1070	4946	795	-15744	-7152	4240	-794	-283	-210	-12216	16744	25072	-579	5763	-2547	-32768	21432	3088	1375	3221	-1760	-32768	-9280	15416	-1736	-1805	-889	121	104	1
-26872	5812	28492	439	2814	2859	-29760	-9760	-4904	-748	3716	962	-15360	-4664	-2856	1860	1362	403	-10352	12376	25184	-878	7184	-4554	-32768	17080	6976	1995	3492	-1437	-25632	-15200	9832	-878	-1198	-996	143	126	1
-32768	-32768	16080	1545	1687	1105	-9992	-20432	-19336	-1423	2377	570	-21056	21600	-11216	1491	500	418	-20744	8816	32767	269	8398	-5552	-32768	10312	5712	3558	3091	-1201	-28464	-11640	5064	1897	-1039	-938	148	91	1
-6684	11168	24968	743	354	996	-31680	1440	-1496	-647	2268	212	-9768	6904	-15560	-666	654	486	-32104	19120	32767	2877	9014	-5242	-30632	17216	7048	4535	2109	-1213	-32768	-5544	-18864	5388	-342	-1527	120	93	1
-13852	-6144	13948	509	97	439	-13952	-9640	-6160	-1185	1705	443	-20280	9448	-14632	-1051	1589	734	-32768	17992	32767	3148	8648	-5254	-18264	11296	-7048	4055	2020	-1385	-27352	-7240	-17936	4726	-1170	-788	122	88	1
-10188	-7752	12380	195	132	118	-19840	-8656	-2712	-1512	967	612	-19648	2680	-10296	-1190	1549	709	-32768	32767	32767	-1701	3540	-3406	-9680	-848	-7640	1221	896	134	-30208	152	-15320	3383	-1502	159	129	91	1
-8408	-3672	14192	88	93	88	-17896	-10144	-272	-1595	338	392	-16376	-2080	-4464	-986	1578	858	5048	32767	28264	-445	-2387	3130	-6336	-1776	-6560	1197	832	297	-31136	10144	-19848	1696	-2067	290	126	97	1
-7392	-5160	13540	-52	168	142	-13104	-12016	-224	-956	424	228	-18224	1392	-3056	-563	1626	1078	17912	8584	15256	0	-2059	4196	-3136	15584	11920	-880	-788	1838	-20880	2696	-15152	397	-2358	869	131	104	1
-6900	-4284	13776	-22	230	168	-15128	-9808	1008	-340	762	130	-15624	88	-1504	-558	1583	1301	6952	1080	18120	833	-2064	3628	-3904	7080	6088	-2272	-1042	2005	-12288	-1824	-14072	13	-2909	893	134	133	1
-7716	-4536	13624	-70	387	112	-15872	-8208	128	-117	760	164	-16656	-392	-2152	-369	1771	1576	-5048	3272	24808	1008	-3323	3031	-6448	808	-992	-2710	-1582	2339	-10192	-2488	-12176	-120	-2774	811	139	138	1
-8088	-5452	12316	-149	411	9	-13776	-9400	624	-547	528	315	-14904	-1232	-3624	-534	1941	1667	-6296	-1088	22888	886	-5060	2578	-10064	-3648	-400	-2418	-2625	2827	-8424	1448	-13312	-562	-2646	613	139	137	1
-8636	-6132	12328	-78	313	80	-11624	-11400	464	-910	133	496	-14648	-2592	-3424	-664	2017	1816	-10128	-3480	18456	1514	-6069	2409	-13256	-4048	1808	-1520	-3517	3106	-7240	704	-13896	-774	-2639	400	130	138	1
-8724	-5624	12856	8	224	192	-12152	-11568	904	-851	22	551	-14880	-2584	-896	-337	2137	1762	-6192	-2296	17336	1898	-5963	2336	-15768	-3176	2120	-845	-4298	3154	-4048	-40	-14584	-886	-2384	142	121	215	1
-8732	-4420	12844	117	215	263	-13112	-9232	152	-448	286	529	-13440	-288	1328	333	2455	1671	-5376	1080	19288	1853	-5574	2373	-17032	-2472	-1000	-488	-4916	3312	-2768	1448	-13736	-832	-2016	-190	114	190	1
-8412	-4328	12588	103	214	266	-13584	-8152	256	-409	407	544	-12848	-568	5136	-63	2851	1648	-5512	2328	19264	1722	-5438	2261	-20392	824	-2832	-372	-5300	3483	-1768	5016	-13464	-690	-1560	-283	119	184	1
-8648	-5228	12328	97	178	295	-13056	-8952	1504	-714	466	638	-14584	-1976	3400	-975	2612	1545	-18016	2472	25984	1836	-5046	1771	-25024	3552	-3736	-462	-5565	3762	-1456	6144	-12960	-560	-845	-141	123	185	1
-8320	-5048	12480	174	167	389	-11776	-9472	1888	-922	529	729	-18568	-1960	-5464	-244	2056	1222	-30104	4536	32767	2497	-4797	1534	-32000	1896	-7496	-565	-5633	3974	-4880	4584	-8648	-256	-493	-130	123	174	1
-9420	-3912	13552	227	164	482	-13256	-8800	1288	-909	670	761	-19816	-2608	-1776	220	1668	941	-32768	8152	32767	2855	-5278	2008	-32768	296	-8400	-1017	-5508	4104	-8984	-200	-424	-711	-1094	-65	123	167	1
-8196	-3416	13748	219	295	486	-16128	-8304	1104	-890	806	838	-17112	368	-888	-33	1663	938	-29248	-14312	25288	1250	-5368	1581	-32768	-2032	-9496	-1594	-5315	3832	-21480	-3640	5576	-958	-1706	-303	125	168	1
-8576	-4216	14084	146	532	535	-15672	-9896	1632	-995	843	935	-17496	-2448	1704	-588	1456	1073	-32768	-8752	17888	1015	-4384	2992	-32768	-4592	-18368	-1685	-4293	2485	-29200	-14616	5144	-681	-2612	-66	124	150	1
-8292	-5752	15524	186	839	681	-16200	-11688	3776	-1220	997	1120	-20576	-1960	4856	-522	1385	934	-32768	-7432	-9752	431	-4488	2696	-19736	-6312	-30064	-2437	-2740	2093	-12384	-16232	27736	-166	-2529	-155	124	150	1
-9428	-4572	14752	234	1333	907	-16704	-8640	3952	-1341	1265	1278	-24728	-1344	4464	-642	1100	734	-32768	-32768	-32768	1437	-2007	1221	-6080	-20104	-30888	-905	-668	1161	-5120	-9848	32767	-366	20	-820	118	187	1
-8024	-3832	18692	306	1930	933	-20760	-9976	3184	-1309	1642	1532	-23360	-4408	3016	-928	845	733	-32768	-18272	-32768	-1860	1836	493	-13304	-11128	-30880	-910	2046	-688	-20384	-14632	13848	-2565	539	365	120	167	1
-7784	-7728	19544	404	2725	1049	-20416	-13968	4816	-1183	2040	1692	-20880	-7976	3984	-742	-158	824	10552	-29744	-1760	-2522	3255	91	-24520	-8872	-12568	9	3027	-1610	-25624	-14296	-3440	-1090	883	166	124	138	1
-9444	-7352	19204	518	3666	1487	-21928	-16840	5416	-1203	2442	1848	-27544	-12520	9528	-452	-1205	758	-13704	-21064	32767	-885	5211	-1135	-30376	10232	11936	218	2158	-1134	-27224	-9032	7280	594	-658	-124	121	133	1
-10508	-13164	20024	635	4675	2309	-25880	-23936	7120	-1416	2814	1872	-31448	-16480	16840	285	-2891	80	-32768	-8144	25528	-820	4115	-2194	-32192	-10928	-12320	-99	3507	-1682	-8368	-6216	-1952	-613	-18	203	118	35	1
-14060	-14036	24180	676	6157	3940	-30344	-32768	11168	-1653	2628	2063	-24880	-22096	20472	-2235	-4347	-778	-32768	32767	22320	-2154	2151	-1385	-21600	15352	-14992	315	3402	-1198	-23808	7520	-11208	1219	2270	393	113	14	1
-25396	-20024	25296	746	6986	5911	-32768	-31512	12216	-2400	2415	1680	-27032	2504	-4152	468	-2114	-831	-7320	-21800	24856	-1169	665	-964	-19648	-7408	-8600	-1078	2980	-1131	-9256	12552	-17920	898	1899	887	128	58	1
-29256	-17228	31980	-600	8512	5694	-19584	-31072	15768	-2785	1491	2529	-23608	-3560	-19568	1318	-1720	-469	-16504	7512	12480	-445	99	-271	-11568	2768	-15368	886	2029	-817	-10264	10048	-17240	678	1237	638	118	90	1
-32768	-32768	32767	-876	4609	5040	-10960	-32768	-10032	-2943	1681	2320	-21184	-960	-6592	213	-2942	-1114	-10232	3648	14752	-307	-2	-238	-19072	520	-7688	1039	1332	-599	-20056	416	-12144	763	1410	909	107	91	1
-23228	-32768	14984	6886	2021	4179	-7680	-19224	-7520	724	2211	263	-31584	2224	-3160	603	-2512	-1756	-7688	3760	15024	-155	95	-155	-21544	2360	-4720	1533	789	-473	-20600	6760	-8528	1090	1835	518	115	91	1
9256	-26124	26792	3146	-2182	-3316	-7976	-12120	10384	3045	1765	-556	-32768	-5288	-11200	1829	-2162	-1937	-8320	4104	14736	-51	125	-105	-16040	9032	-3064	939	753	-394	-16960	4064	-4552	198	1864	536	126	95	1
19128	-13220	16992	1077	-1531	-4023	-4384	-10616	14216	3631	942	-825	-26248	8360	-10672	2313	-2347	-2233	-7400	3944	14880	10	183	-131	-15760	5264	-1912	-172	901	-409	-16144	-1656	-3640	-427	1959	624	132	94	1
9928	-7272	17472	-439	-1585	-3549	-3968	-4336	7760	3245	-304	-1131	-18616	11008	-8952	1184	-2266	-1987	-8040	3504	14480	62	231	-96	-17784	1752	-3744	-141	727	-334	-15152	-2856	-1760	-112	1912	358	135	100	1
-3092	-9968	21536	-543	-2861	-2932	-7632	-4656	2056	2389	-1972	-1412	-13904	9824	-8392	158	-1954	-1734	-7944	4480	14328	65	209	-87	-15568	5072	-3320	671	438	-286	-14720	-1400	-248	760	2089	513	124	98	1
-7764	-5652	19972	-440	-4519	-2702	-10384	-2904	1384	1851	-3184	-1722	-10968	5592	-9048	-380	-1665	-1740	-8088	5928	13720	-19	159	-157	-13464	7968	-2136	1226	348	-357	-14808	2176	1768	1755	2295	430	126	102	1
-5820	-1596	16224	-1052	-5390	-2876	-12304	-2408	2088	1804	-4223	-1777	-9160	3928	-10984	-418	-1478	-1593	-8368	5280	13640	-119	103	-225	-13888	9616	-1048	984	455	-463	-13080	6704	2608	1634	2540	383	140	111	1
-10516	-4024	15612	-1255	-5804	-3077	-13344	-6040	1664	2074	-4597	-1896	-8056	5424	-12776	-197	-1291	-1440	-7960	4520	13928	-164	58	-249	-13280	7944	-976	257	752	-648	-12800	2080	3640	755	2678	478	129	109	1
-12716	-6500	16092	-948	-5684	-3257	-15328	-9128	1216	2571	-4656	-1967	-6976	6496	-12216	94	-1079	-1296	-7872	4096	14016	-214	49	-315	-14632	5104	-2480	40	890	-714	-17280	-2232	4112	70	2545	668	134	125	1
-16348	-8376	18300	-544	-5478	-3133	-18224	-12576	-376	2971	-4836	-2246	-3808	6264	-11576	492	-729	-1108	-8520	4192	14344	-229	87	-382	-15640	4696	-2376	487	856	-743	-18632	456	-416	392	2013	646	131	121	1
-20756	-10684	21648	-704	-5086	-2904	-24112	-16632	-2752	3581	-4906	-2541	-2568	8008	-10520	962	-39	-826	-8496	3440	14624	-221	107	-421	-14720	4656	-3320	803	879	-752	-16152	800	-1600	370	1665	603	133	120	1
-31848	-14344	27680	-1217	-4938	-3068	-32576	-18336	-6752	3854	-4939	-2755	-3288	6776	-4240	1458	-46	-846	-7736	3408	14168	-198	181	-460	-15608	4304	-2864	701	968	-754	-13960	-112	-1488	314	1836	687	128	120	1
-32768	-20516	30176	-1625	-5206	-3972	-32768	-21912	-9776	3990	-4748	-2997	-10216	3264	2504	2619	-1289	-1123	-7840	3960	14384	-177	337	-443	-16072	3616	-2512	756	1044	-775	-14432	-112	-64	267	1847	498	126	126	1
-32768	-19280	19068	-747	-5261	-4923	-32128	-18416	-12880	4150	-4403	-3199	-18176	3512	-1848	2735	-1210	-1346	-7936	3168	15040	-75	527	-452	-17464	5208	-2056	670	1202	-893	-18704	240	1176	329	1734	467	121	166	1
-32768	-1508	4276	-752	-3969	-4706	-27568	-14216	-25040	3319	-3667	-2568	-28000	6464	9664	1819	-387	-1898	-9712	7264	16680	203	770	-559	-17528	5384	-2280	662	1424	-1074	-21312	-1736	3528	426	1773	495	104	253	1
-32768	7092	-3816	-677	-3129	-3365	-32768	-11912	-32768	2849	-2064	-2495	-16488	-14000	26712	622	-1129	-2328	-8104	4328	17016	18	1457	-520	-22248	5640	-1048	908	1559	-1268	-22656	-2712	6080	683	1672	425	43	253	1
-32768	32767	-31780	-1874	-1851	-1458	-20264	12704	-32768	-9	-1499	-1464	-11592	-17144	32767	1008	-271	-332	-8048	5728	18680	84	2189	-691	-20952	5632	-720	987	1897	-1471	-22720	-3096	8728	817	1415	117	69	212	1
-32768	31664	-32768	-2211	762	-347	-11448	8704	-32768	-2171	612	239	-23688	248	14984	-1086	506	-9	-7232	4944	17680	-127	3014	-771	-24256	7816	1168	869	2219	-1708	-24896	-2472	11784	629	898	-122	121	223	1
-32768	-5440	-15012	2396	2718	281	-22944	-7656	-18480	-1965	2183	769	-21184	2040	864	-1377	430	-97	-9040	7376	19664	-125	4191	-1084	-26784	9128	-392	927	2642	-1832	-29632	-5048	19000	283	-82	-352	151	212	1
32767	11924	32767	3057	5669	-475	-32768	-32768	32767	1436	3844	1190	-17496	-5536	-4992	-850	1125	-95	-10656	10536	23352	-261	5486	-1823	-32768	17200	2696	1299	2879	-1948	-32768	-3136	26120	-394	-1795	-686	121	1	1
-32768	32767	32767	2231	5516	2254	-32768	-30656	32767	2678	4146	581	-19576	-20712	12104	1141	-728	-509	-11040	18664	22568	-605	7247	-3642	-32768	22672	7104	1819	3363	-1850	-24080	-9568	15272	-2385	-1084	-1019	133	127	1
-26928	-32	26788	-9	2927	3197	-32768	-5368	-6880	205	4243	840	-21624	2592	-2864	3858	1733	654	-17568	10072	29576	267	8633	-5235	-32768	14336	7616	2596	3338	-1453	-21416	-21120	13008	66	-1409	-835	144	24	1
-32768	-32768	9316	1638	2094	442	-7264	-28080	-18880	-1636	2964	401	-19608	29360	-15760	2168	750	199	-26048	21528	28104	2633	9709	-5285	-32768	17696	9312	3929	2452	-1490	-32768	-4352	-9296	4704	-480	-1505	138	29	1
-4468	26292	27688	493	487	1225	-31960	7672	-5008	-771	2279	154	-7296	12088	-13536	-1393	566	805	-32768	32767	32767	4185	7235	-5499	-19392	23712	-344	4333	2094	-1896	-31848	104	-13608	5430	-1203	-1459	122	42	1
-15404	624	19772	497	366	571	-11792	-7224	-8464	-2405	855	385	-21840	9568	-17864	-2664	1412	655	32767	32767	32767	-406	3012	-4494	-11456	9616	-16352	784	1821	-355	-32768	936	-17480	3565	-1553	54	121	56	1
-13504	-10388	11872	72	261	111	-18880	-12792	-4872	-2672	149	611	-19336	-4232	-12000	-2067	1809	856	-64	32767	24440	-1920	-2559	1692	-8464	8920	1544	-9	307	1082	-32768	8816	-18208	1224	-2099	463	128	77	1
-8600	-4492	14108	-80	285	54	-16720	-15112	-1384	-1647	342	372	-18832	-4976	-5720	-1065	1562	1008	17608	9336	17496	-853	-3260	3559	-7056	15848	11376	-856	-794	1653	-24168	3760	-17304	268	-2414	836	132	89	1
-8260	-5932	12812	-24	271	170	-12088	-11976	-1104	-433	927	203	-19376	2280	-4992	-372	1819	909	8184	448	18056	1261	-2615	3322	-5384	3352	6928	-1876	-1299	1988	-16000	-1952	-15840	-22	-3144	803	136	104	1
-7452	-5188	13100	64	247	203	-13240	-9720	856	288	1309	64	-15720	1168	-2248	-514	1959	940	-7784	4072	26976	1865	-3776	3431	-8120	-1296	-72	-1808	-1957	2266	-10024	-2376	-13192	-116	-3155	636	139	117	1
-7812	-5340	12876	72	304	142	-15384	-8056	360	117	1067	127	-14136	-4984	-3968	-479	1946	1605	-9488	-392	25696	1082	-5560	3174	-10512	-2008	2736	-1784	-2966	2814	-10712	-288	-14216	-246	-2813	507	140	128	1
-8556	-7776	11688	135	133	168	-11160	-11304	-1232	-800	515	300	-15064	-3496	-4800	-334	2223	1641	-4536	-6656	18920	906	-6152	2867	-13664	-4496	4672	-1407	-3781	2939	-7720	3304	-15392	-549	-2846	424	135	223	1
-8964	-6920	11740	326	-106	293	-10592	-12792	88	-813	375	470	-13600	-5912	-1632	-194	2417	1751	-6648	-5776	19848	1544	-5896	2806	-16392	-4328	2232	-1193	-4545	2906	-4816	2584	-15672	-1224	-2724	240	131	213	1
-8548	-4736	12604	450	-157	324	-11552	-10568	760	-350	645	559	-12696	-4304	2448	542	2430	1589	-13152	1160	24280	1366	-5889	2664	-17600	-2056	-528	-1049	-5230	3084	-1832	2856	-16528	-1651	-2553	-163	123	195	1
-7436	-4100	12920	412	-66	339	-12840	-8248	1320	12	1066	515	-12448	-120	4568	808	2548	1410	-15408	912	25064	996	-5857	2507	-22864	-64	-2352	-1289	-5723	3278	368	6448	-16440	-1556	-2130	-347	119	174	1
-8920	-2684	14068	280	4	389	-14928	-8184	-48	-174	1139	515	-16376	344	4128	-147	2612	1408	-19288	3848	28104	1298	-5290	2278	-23744	288	-2488	-1295	-5819	3296	896	7592	-15888	-1309	-1052	-180	120	174	1
-8304	-4604	12676	282	54	400	-13120	-9000	1632	-675	1092	652	-18648	1616	2344	-813	2296	1304	-32768	12344	32767	1954	-5163	2596	-32768	544	-12008	-1732	-6065	3656	1888	-1600	-10840	-1642	-676	-265	121	168	1
-7860	-3776	12788	285	92	500	-12128	-9128	2184	-1267	800	641	-18336	-1904	3464	-394	1901	821	-32768	17624	26064	1840	-5591	3498	-32768	1256	-17552	-2278	-5437	3843	-448	-10544	-6344	-786	-203	-438	118	168	1
-8740	-3804	13600	316	286	635	-14912	-9712	864	-1305	913	669	-19424	-3472	-1280	-675	1854	625	-32768	5792	13072	1205	-5013	4402	-32768	2496	-20016	-2453	-4974	3458	-20832	-6736	9824	-1307	-1979	-1114	122	63	1
-8508	-4476	14424	256	575	663	-15856	-10416	360	-1305	1108	824	-19448	-2896	1632	-852	1707	535	-32768	-944	-1344	73	-3857	4430	-28176	160	-26904	-3476	-3310	2395	-32768	-17280	4632	-1515	-3232	-809	125	160	1
-10200	-4156	14308	124	923	778	-15992	-10064	408	-1405	1283	910	-18272	-4696	5248	-1051	1671	731	-32768	-12096	-22664	-1299	-2519	3684	-16968	-14160	-32768	-3661	-1399	1442	11992	-14544	32767	-1669	-1028	-602	122	213	1
-8824	-4648	16128	316	1542	880	-16168	-9288	3192	-1499	1664	1058	-19608	-6536	8672	-851	1041	705	-32768	-32768	-32768	403	-918	2464	-616	-17856	-32768	-580	422	355	-12480	-26000	21296	-1945	1072	918	118	204	1
-9716	-3528	18504	516	2069	995	-17128	-12168	2976	-1567	2233	1309	-20704	-12664	7584	-869	77	612	-32768	-13760	-27984	-766	3231	319	-16832	-8952	-30504	89	2231	-819	-28328	-13696	1984	-237	1275	340	113	154	1
-8808	-8576	19916	669	3000	1303	-22960	-16520	1072	-1891	2650	1413	-25560	-9440	6376	-963	-898	344	6080	-7344	19736	-1239	5145	-1336	-32768	4848	30744	1084	1326	-1725	-19856	4256	-10672	2450	186	-322	122	130	1
-11708	-10464	24988	693	4219	2060	-30344	-22760	3456	-2333	2698	1416	-32224	-12328	13744	517	-2180	71	-32768	-13760	32767	-1610	5589	-3595	-26480	528	-13096	-53	3447	-1033	-26328	896	12744	469	-1980	-511	123	117	1
-12672	-14920	27552	646	5756	3288	-32768	-32768	11384	-2701	2691	1439	-29592	-11856	17864	-1494	-1740	-420	-32768	32767	32767	-3339	3332	-2324	-32768	7104	-22128	32	4269	-1542	-6848	22792	15872	-1524	1316	650	114	81	1
-17044	-19436	30076	344	7330	4942	-32768	-32768	17696	-3005	2681	1279	-30440	-7800	17240	-584	-1662	-555	-9024	-28584	30472	-1578	757	-916	-32768	-14608	-6528	-2086	3426	-1423	-10248	-600	-27280	-335	1470	1529	114	76	1
-11452	-17536	32767	214	9866	5620	-32768	-32768	24072	-3154	1723	1590	-32584	-4616	-10752	-89	-2756	-159	-14816	9856	14784	-398	33	-193	-7024	1152	-18816	-144	2730	-1108	-3208	1992	-22640	-670	989	525	97	108	1
-32152	-26236	32767	-1799	9168	4798	-16536	-20808	5936	-3591	1060	1976	-29192	2184	-11648	92	-2478	-1091	-9432	3240	15848	-286	-102	-112	-13968	-6528	-6896	196	1717	-524	-18312	-2960	-13752	-196	1335	1054	72	84	1
-18164	-32768	32767	1205	4337	4555	-8320	-15136	-8056	-2220	878	836	-23864	4584	-4912	-16	-2228	-1382	-8152	5272	14264	-10	7	1	-25904	3464	-5840	1232	1204	-373	-19816	3360	-8648	1149	1837	506	104	68	1
-24792	-32768	32767	1333	-1626	-2215	-3456	-3440	6376	455	54	-349	-32024	-2528	-11808	1030	-2535	-1791	-6896	4616	15280	-52	88	-96	-17832	9176	-3656	990	999	-372	-19856	7920	-5192	795	1868	380	101	76	1
25424	-19400	20572	852	-2344	-3942	-1304	-22720	22696	2663	-227	-768	-29352	5448	-11296	1955	-2515	-2121	-7328	3352	14944	-70	84	-160	-16168	3720	-2184	604	833	-389	-16392	2328	-4912	-134	1907	551	118	104	1
10728	-3656	21680	-103	-2251	-3533	-3776	-1272	8824	3329	-481	-1258	-17032	12432	-9712	1304	-2344	-1843	-7648	4384	14472	-12	220	-100	-15752	3184	-2568	260	767	-426	-15544	-2496	-3712	-132	1887	463	123	100	1
-4704	-7232	26408	-1057	-3992	-3716	-10208	-1640	4544	3053	-1935	-1363	-11104	11336	-7912	-44	-2214	-1546	-8040	3992	14072	-5	217	-53	-16056	3792	-3344	180	536	-349	-14704	504	-1960	337	1994	471	126	94	1
-10080	-5812	23836	-266	-5847	-3431	-12048	-2192	4936	2545	-3294	-1665	-10488	6352	-9752	-742	-1824	-1554	-8304	4744	14040	-45	138	-70	-14728	5712	-3776	258	443	-394	-15152	1816	-96	543	2197	481	128	98	1
-9388	1664	19776	-319	-6796	-3294	-14816	-1080	4136	2547	-4332	-1810	-7928	4424	-11776	-744	-1551	-1326	-7520	5032	13152	-145	33	-120	-14088	5568	-1296	611	442	-455	-14088	1848	2104	388	2197	400	138	109	1
-8508	940	16876	-801	-6704	-3322	-16400	-4704	4272	2900	-4840	-1764	-6328	4624	-13480	-176	-1283	-1101	-7136	4992	13552	-237	7	-224	-14360	5688	152	616	572	-446	-13984	1728	2112	327	2203	391	115	111	1
-11948	-4040	19172	-547	-6065	-3186	-18960	-9464	1400	3336	-4991	-1669	-5400	5368	-12248	530	-992	-869	-7568	3360	13960	-305	35	-267	-15536	4352	-136	280	816	-529	-16440	-3480	2048	-66	2228	417	136	118	1
-20276	-8068	23604	-148	-5824	-3017	-23248	-12176	-2752	3859	-5184	-1769	-2864	8592	-11064	1036	-565	-621	-5936	2728	14344	-319	-17	-269	-15712	4104	-984	102	997	-609	-14752	-2648	1904	146	2314	530	130	143	1
-25636	-10912	26732	-238	-5780	-2984	-27848	-15600	-3592	4031	-5449	-1860	-1728	10920	-7800	1323	208	-495	-6064	5304	14888	-391	59	-400	-15424	6032	-1984	212	1084	-635	-14360	-1440	1784	207	2432	584	136	186	1
-32768	-17216	32312	-731	-5813	-3042	-32768	-19328	-7528	3914	-5663	-2170	-784	7480	-1648	1603	-356	-386	-9776	5048	13464	-460	-11	-553	-16512	3704	-2480	468	1124	-705	-16328	-1992	2024	-39	2278	788	127	186	1
-32768	-24084	26436	-899	-6151	-3686	-32768	-25288	-11928	3765	-5404	-2679	-6512	6376	456	2256	-1496	-492	-8448	3712	14824	-349	225	-613	-16504	3480	-1992	817	1124	-712	-17120	-1264	3272	-4	1928	849	124	228	1
-32768	-4700	4032	-1271	-5193	-3899	-30520	-18096	-22080	3494	-4687	-2437	-22272	-2392	8800	1751	-1942	-983	-8768	5744	16608	-215	418	-696	-16728	4496	-456	781	1334	-859	-18080	-664	6464	169	1637	726	121	254	1
-32768	5112	960	-905	-4124	-3507	-31024	-9496	-32536	3332	-3102	-2175	-32768	2744	28880	1594	-857	-1783	-8368	3600	15840	-84	800	-655	-16352	6648	-464	662	1661	-1119	-19440	-2096	8344	412	1599	678	59	253	1
-32768	28936	-24584	-1442	-2450	-2533	-25792	6408	-32768	867	-2065	-1289	-3176	-31760	32208	378	-629	-1720	-5496	2560	18920	169	1277	-829	-20296	4408	-544	652	2039	-1397	-23624	-4808	8704	597	1442	457	38	253	1
-32768	32767	-32768	-1691	-1480	-157	-5616	11344	-32768	-2334	-1000	43	-12544	72	24032	-1651	118	552	-9728	5008	19456	-154	2290	-980	-21704	5888	-2472	801	2388	-1588	-22368	-3216	13808	682	961	162	91	215	1
-32768	13732	-17476	902	1716	1163	-22192	-1776	-25392	-2850	1663	1170	-22448	912	1784	-2283	249	199	-7744	8488	22256	-339	3298	-1233	-27064	8992	-1208	887	2785	-1810	-27008	-2320	19872	262	51	60	85	242	1
25232	-8816	32767	760	5257	554	-27472	-32768	32767	-803	2638	2278	-31448	664	3712	-1132	118	-225	-12416	10080	24240	-782	4588	-1885	-32768	16536	-776	1114	3102	-1947	-32768	-1992	24448	-707	-1289	-271	144	223	1
-32768	32072	32028	1194	6217	3418	-32768	4488	-22896	1524	5343	606	-16232	-18464	26256	-1074	-372	486	-10824	16856	27104	-1090	6130	-3572	-32768	24200	5176	1523	3685	-1798	-32112	-13640	19096	-1821	-1309	-636	158	194	1
-28136	-3200	29948	229	3466	3199	-32768	-13816	-4600	-849	3809	879	-21928	1232	-12992	3042	1592	448	-12816	11744	32767	-960	7739	-5605	-32768	16840	9568	2481	3789	-1430	-27704	-19264	11432	-62	-1237	-306	151	117	1
-32768	-32768	-4492	1079	1984	1348	-4512	-21656	-23416	-1533	3283	352	-18344	23000	-15536	804	18	217	-19568	12352	32767	943	8986	-5975	-32768	18160	8472	4258	2916	-1418	-32768	-11448	-10704	4247	-878	-1291	142	0	1
-7572	5816	18408	564	411	1109	-26808	3352	-7008	-1066	2051	316	-8648	9696	-15080	-1350	740	401	-32768	32767	32767	2921	8257	-6093	-21192	12168	304	4482	2161	-1532	-28040	-15648	-17312	4997	-1520	-1070	136	0	1
-11872	4884	19492	513	225	565	-14736	-6560	-8200	-1591	1511	386	-20800	4336	-18552	-1638	1266	971	7544	32767	32767	3	4027	-5015	-15896	-592	-16400	2693	1814	116	-29736	-10600	-19936	4905	-1360	-89	142	0	1
-9692	-5692	12568	368	20	268	-17736	-10968	-4024	-1825	691	543	-18776	-416	-10896	-1227	1587	943	-1320	32767	32767	575	-674	3561	-9112	1536	2360	2028	450	1639	-32768	9144	-22168	3312	-1810	286	123	17	1
-7740	-4436	13832	345	27	251	-18656	-12080	-472	-1304	416	445	-19000	-3144	-7456	-675	1499	1082	22664	17928	16056	230	-954	5140	-1488	26512	12984	-382	-320	2302	-25088	2024	-18152	1324	-2320	1146	137	23	1
-8116	-5260	13196	90	198	196	-14984	-11280	-952	-616	637	363	-18328	-1096	-4968	-163	1714	1069	8192	944	21192	1372	-792	4941	-3432	8488	6792	-2911	-247	2581	-13936	-2728	-16240	842	-2728	1158	133	46	1
-4612	-3968	12236	151	307	217	-14688	-9160	1560	-75	776	315	-13928	-952	-904	23	1586	1430	-6152	1976	30656	1859	-2413	4370	-9192	-784	-424	-3384	-1038	2963	-10080	-832	-14072	516	-2837	1146	134	85	1
-7596	-4348	13744	14	422	138	-16176	-6856	864	-16	752	339	-16056	824	-1504	155	1822	1610	-9288	-5160	28176	1366	-4465	3475	-11272	-6088	1312	-2807	-2280	3447	-10984	1240	-14960	-96	-2609	965	138	91	1
-7880	-5428	13056	-76	430	93	-13864	-8792	1376	-507	484	426	-17176	944	-1320	-45	1978	1647	-5336	-10176	21960	1895	-5507	2971	-14104	-7600	3536	-1643	-3264	3636	-7016	-304	-15264	-380	-2667	799	132	185	1
-8456	-5772	12328	-104	376	142	-13088	-10536	616	-925	85	581	-15832	-216	-224	-340	2039	1875	-7152	-5952	21944	2175	-5720	2730	-15472	-5472	3552	-994	-4043	3529	-2880	-632	-15392	-666	-2605	630	132	172	1
-10428	-5072	14828	-29	262	287	-13824	-9224	960	-892	10	572	-15368	-8	1256	-247	2091	1901	-10760	-4320	24344	1610	-5786	2632	-18472	-5584	1128	-837	-4696	3613	-1968	1264	-13248	-835	-2350	193	113	166	1
-8492	-4688	12596	46	294	288	-12160	-9360	1392	-682	181	637	-13808	-2664	3840	-34	2113	1866	-12792	-7008	24592	1542	-5618	2330	-22432	-2448	-440	-469	-5297	3583	-1216	5920	-11024	-680	-1902	-75	101	165	1
-8904	-5972	13712	44	205	388	-11960	-9232	440	-661	413	679	-13528	-1768	4216	-182	2278	1691	-16408	-3920	27312	1839	-5089	1470	-26880	1104	-3240	-278	-5654	3713	104	6736	-11400	-408	-1150	12	108	159	1
-8712	-6320	11648	175	219	487	-11760	-9464	1808	-864	552	735	-15872	-1488	4128	-550	2239	1503	-30360	848	32767	2361	-4892	1032	-31840	-1024	-6616	-376	-5731	3858	-856	4320	-8704	-472	-568	-51	114	158	1
-8956	-3980	13060	241	206	613	-13176	-7744	2064	-1130	608	827	-17376	-1120	2568	-578	1795	1265	-32768	4848	32767	2315	-5302	1252	-32768	-2528	-7720	-712	-5639	3945	-8376	-144	-496	-760	-773	-67	118	151	1
-7096	-6116	13576	318	255	747	-14000	-9352	2768	-1250	821	911	-17440	-1232	1600	-438	1710	1070	-32768	-3624	28200	2203	-5480	2297	-32768	-8488	-9512	-845	-5211	3542	-18784	-6384	2720	-673	-1503	-254	122	66	1
-7792	-4032	14528	397	587	742	-17592	-9208	2424	-925	1130	1084	-19440	-2040	1392	-373	1700	1070	-32768	3768	7960	650	-4836	2731	-29736	-1000	-13592	-1145	-4615	2839	-25624	-12296	5344	-289	-2631	-646	114	52	1
-8148	-4544	15552	325	978	876	-18344	-8784	728	-972	1268	1170	-21264	-2560	2560	-527	1665	1237	-32768	-14248	1336	-215	-4422	2024	-26608	-4864	-24880	-2145	-3213	1917	-11512	-13112	28120	583	-2254	-538	110	168	1
-9540	-4532	16224	317	1481	972	-17768	-9064	3528	-1150	1411	1354	-23800	-3256	5760	-197	1238	1063	-32768	-32768	-28880	969	-2937	81	-8536	-23240	-31824	-635	-1345	1078	-10168	-13984	32767	125	428	-707	117	191	1
-7764	-4724	19652	410	2132	1058	-20832	-10624	6304	-1141	1769	1530	-22752	-2584	8680	-66	647	743	-32768	-19928	-28344	814	-192	-355	-8800	-10664	-28488	1159	1035	-580	-21512	-21120	17880	-1467	524	-152	113	170	1
-8912	-4112	18928	531	3086	1223	-20808	-11816	7416	-1116	1840	1560	-21296	-8160	13232	-612	-696	898	-32768	-5504	-9232	-2968	2102	-1346	-19776	-5472	-24496	629	2532	-1219	-23256	-13552	3464	-183	1099	-203	116	147	1
-9136	-10200	19128	578	4039	1613	-21128	-17896	6600	-999	2718	1858	-22264	-13896	17064	72	-1526	721	15704	2640	28136	-1486	3402	285	-32768	10712	32767	640	1355	-1834	-7904	-5464	-28824	-758	-1666	329	96	120	1
-12028	-10992	24104	691	5185	2586	-26752	-24536	9584	-1087	2871	1891	-29040	-19816	11872	-338	-2628	163	-20936	-29904	23952	-1841	5339	-1952	-22888	-4240	-7488	-1399	3190	-1712	-26248	6376	12168	880	-612	872	78	98	1
-13632	-17940	27068	965	6791	4038	-32768	-32048	12088	-1254	2518	2140	-30072	-6624	5976	997	-1978	-571	-32768	3080	30752	-1122	3018	-2114	-32752	2008	-16944	-749	3657	-1709	-22616	6336	-12528	-1174	1539	-179	65	49	1
-22324	-14492	25140	1531	7833	5408	-27312	-29784	16528	-1438	2294	2137	-27648	-464	80	430	-1915	-457	-32768	16352	20880	-2003	1603	-567	-14664	13232	-16736	-615	3182	-1003	-12856	-8752	-13112	-1087	819	877	81	54	1
-32768	-21200	28252	365	7453	5197	-14368	-26408	9648	-2112	1670	2372	-23648	-5664	-24480	445	-1657	-195	-11208	5336	15176	-731	626	-971	-19392	-12208	-13160	174	2415	-1353	-6328	2816	-18272	1165	1581	630	103	88	1
-32768	-32768	32767	-146	4097	4242	-10960	-31864	-11256	-1259	1652	2308	-20368	-5312	-10752	660	-2143	-1126	-5624	-7152	19224	-502	70	-382	-19128	-3536	-5536	1459	1364	-612	-20168	-872	-12704	1932	1451	907	102	102	1
-32768	-8144	19904	6137	367	2550	-416	-21320	-5032	2000	1683	584	-29256	-4296	-8744	1585	-2238	-1649	-9624	7800	14584	-67	148	-213	-19912	6952	-8832	2230	1089	-512	-21192	8704	-10456	2637	1845	394	136	92	1
4996	-28476	26156	2319	-3476	-2383	-3968	-13384	7744	3488	1401	-11	-31584	-392	-11592	2532	-2200	-1663	-8672	4560	14592	-72	109	-241	-15072	9440	-4272	1324	863	-424	-16640	12592	-6016	1049	1768	291	151	101	1
12500	-16344	12748	629	-2746	-2483	-3480	-18672	13264	3303	1528	8	-24456	7472	-11544	2270	-1840	-1793	-8016	4824	14712	-13	204	-236	-16312	6928	-3568	46	1045	-473	-18136	3784	-5360	-258	1879	537	165	102	1
-3524	-17028	17076	-692	-3159	-3114	-7736	-5328	1752	2647	-1207	-584	-18920	8088	-9088	1222	-1747	-1779	-8096	4560	14144	-7	278	-186	-16768	3592	-4056	-282	897	-373	-17216	-56	-4360	-276	1866	571	162	109	1
-7380	-19216	15612	-384	-4527	-3731	-7232	-11544	1632	1942	-2761	-1035	-15120	7104	-7856	636	-1754	-1720	-8352	4344	14240	20	262	-153	-16256	3744	-5208	108	640	-311	-15688	-1800	-1760	232	1990	508	153	108	1
-8192	-12584	14124	152	-5242	-3786	-9744	-9144	2072	1998	-3670	-1448	-11944	6184	-9736	523	-1483	-1739	-7648	5936	13216	5	281	-187	-14384	6224	-4656	728	344	-274	-15224	-816	440	1247	2107	443	150	108	1
-10968	-6480	13232	-290	-5538	-3814	-11000	-8960	-152	2446	-4032	-1691	-9592	5576	-11464	579	-1216	-1743	-8344	5848	13464	-88	264	-243	-14496	8392	-3752	1022	235	-326	-14392	4856	1464	1649	2185	410	143	109	1
-14448	-9996	14676	-759	-5572	-3780	-14424	-12136	-392	3026	-4127	-1891	-8304	5048	-11072	602	-1108	-1483	-9408	5072	13800	-146	215	-255	-13640	7952	-2432	585	438	-464	-13864	6168	1192	899	2206	415	139	119	1
-15720	-12560	16052	-739	-5419	-3652	-17144	-13328	-1448	3257	-4324	-2131	-7120	7032	-10728	1033	-967	-1384	-8872	4000	13576	-140	174	-259	-13592	5264	-3032	236	629	-545	-13664	88	1032	301	2275	530	138	222	1
-21316	-15440	19188	-726	-5317	-3750	-20144	-14712	-3064	3612	-4459	-2514	-6992	7408	-10616	1133	-935	-1378	-8496	3592	13904	-158	113	-270	-14536	4720	-2408	305	724	-550	-14112	-3432	3168	413	2324	712	130	227	1
-24708	-18760	22396	-719	-5113	-4165	-26424	-17376	-3224	3954	-4512	-2822	-3568	10320	-6888	1956	-382	-1016	-8112	5728	15264	-153	117	-315	-14632	6408	-2872	539	815	-580	-17104	-1256	2816	394	2067	766	128	237	1
-29124	-21892	25332	-727	-4650	-4648	-32136	-23064	-5320	4402	-4498	-3211	-5296	6776	-1712	2349	-1109	-890	-8608	3624	13912	-258	166	-426	-15000	4816	-3104	633	942	-615	-17560	-144	1000	349	1564	783	133	207	1
-32768	-16316	22612	-740	-4201	-5027	-32768	-19184	-11088	4837	-4061	-3200	-10024	1504	760	2290	-1456	-1192	-8656	3408	14232	-174	270	-481	-15784	4768	-2352	801	1051	-630	-15880	-1072	3432	610	1614	771	128	137	1
-32768	-9804	12636	-1429	-3625	-5483	-26000	-17760	-19304	4032	-3450	-2461	-21800	-1392	6192	2603	-1015	-1987	-10056	3784	14760	-19	425	-514	-15816	5648	-2272	821	1261	-724	-17208	-368	4720	895	1795	671	129	142	1
-32768	-10600	-2984	-121	-2912	-4620	-26944	-14368	-28888	4123	-1912	-2260	-30704	3736	24832	3102	-574	-2235	-7240	4536	15784	93	572	-624	-16072	5248	-2016	794	1570	-857	-20736	-1864	6136	690	1566	583	35	188	1
-32768	24752	-15644	-927	-1518	-3944	-27168	8968	-32768	2301	-1906	-1797	-8224	-21144	29568	2259	-1761	-1418	-8792	3464	15608	139	1174	-584	-17480	5176	-1648	746	1908	-1071	-18368	-2432	9696	814	1331	567	51	134	1
-32768	29940	-30404	-1975	-220	-2452	-8432	12376	-32768	-588	-87	-482	-19280	-2488	20112	-213	359	84	-8104	4136	16176	89	1801	-578	-18856	6904	-2192	680	2300	-1276	-19168	-696	13480	756	1022	290	83	197	1
-32768	12348	-17612	-254	1641	-1073	-17416	-712	-32768	-879	2064	547	-16824	-2096	480	-620	63	48	-8664	6864	18480	-200	2600	-814	-22304	9296	-3784	891	2760	-1456	-22688	-3760	18992	335	-30	39	122	51	1
-32768	11156	-29656	1048	4045	43	-25176	-1792	-16544	-291	3449	912	-20920	-4600	4008	-473	-331	-312	-8320	7192	18512	-219	2763	-896	-30048	14152	-3008	1357	3171	-1534	-28408	-3792	24160	-47	-1030	-244	122	51	1
-10664	-720	32767	1753	7131	2005	-32472	-32368	25840	1942	3948	649	-15584	-7944	800	-715	587	721	-12384	18272	25984	-460	5792	-2552	-32768	23608	232	1936	3691	-1436	-30728	-9600	17960	-654	-1059	-508	160	81	1
-32768	6548	32767	488	4725	3169	-32768	9752	-15848	1209	5516	1170	-22840	-5592	11792	3346	217	-643	-12976	13184	32048	-213	7774	-4510	-32768	19112	3992	2600	4157	-1010	-32768	-22600	7608	322	-457	-1023	132	0	1
-32768	-32768	7324	950	2274	1700	-21112	-15200	-25624	-1320	3088	883	-22712	20832	-17080	2576	609	55	-22400	8496	32767	1425	8840	-5452	-32768	9688	3976	4287	3519	-606	-30040	-18192	-1056	3534	-839	-1114	129	44	1
-32768	26136	32767	1491	627	1785	-29768	1608	-16576	-363	2830	-94	-7392	15504	-12728	-428	257	157	-21880	12096	32767	1746	9032	-5397	-31888	12408	7976	6106	2065	-450	-32768	-15368	-27128	6057	-695	-1298	101	74	1
-15712	-14172	12308	851	456	537	-9744	-13864	-8920	-1436	1711	338	-23192	12800	-20040	-1205	1297	649	-32768	32767	32767	4550	5690	-4920	-17096	-1024	-10200	4995	1884	-199	-29936	-12520	-26272	6480	-985	-321	98	94	1
-12372	-7228	11808	400	158	249	-17936	-6352	-7208	-1356	1402	318	-19200	1792	-13888	-777	1462	970	-32768	32767	28128	1438	95	-1467	-4040	7064	-3280	3474	448	1457	-32768	1224	-20496	4151	-1537	97	119	21	1
-8556	-5096	14356	188	229	168	-21232	-10368	-2504	-934	799	216	-22824	2456	-9384	-153	1708	914	21856	27400	21736	1004	-2365	2191	-3176	20272	15560	1409	-341	2421	-32768	5368	-23560	3741	-1500	87	126	71	1
-6980	-5672	13464	0	419	164	-19200	-10312	-1088	-698	399	163	-20600	2960	-7040	-361	1630	1165	17288	6368	14920	1448	-873	3750	-5592	8560	13360	-1493	-329	2788	-17200	-2360	-16672	1081	-2488	1049	125	88	1
-7100	-5468	13896	-40	503	200	-16696	-8392	1008	-519	246	122	-19312	96	-3712	-465	1758	1369	1304	3288	26848	2416	-1443	4757	-9232	-416	2880	-2534	-882	2889	-10384	-3144	-14184	885	-2882	922	135	116	1
-6868	-5728	13864	-112	628	140	-14704	-9768	1512	-419	226	183	-16112	-848	-2008	-326	1707	1623	-9376	488	31456	1405	-3469	4246	-9480	-2152	1392	-2747	-1887	3467	-8120	-256	-13864	611	-2536	784	129	124	1
-8012	-5856	12672	-92	651	205	-14176	-9384	640	-385	228	311	-17160	-1560	-1888	-205	1878	1550	-7904	-14792	28368	1102	-5136	3373	-13464	-6768	3432	-2522	-2858	3661	-10144	2896	-14568	40	-2483	735	128	197	1
-9728	-6172	11304	-39	560	251	-13096	-9784	672	-496	88	437	-15720	-2696	-144	-122	1939	1719	-7400	-16064	25048	1917	-5907	2511	-18720	-7936	4520	-1902	-3774	3437	-5592	3512	-13520	-602	-2535	494	125	197	1
-9348	-5360	12232	-46	495	294	-13272	-8984	1248	-494	72	542	-14848	-3128	1520	312	2025	1802	-8184	-11064	24664	1854	-5966	1868	-21880	-9216	2696	-1112	-4639	3123	-3600	2696	-11504	-1049	-2365	88	120	188	1
-8940	-5108	12196	-55	395	332	-13424	-8088	888	-426	161	597	-12728	-432	3504	719	2046	1657	-12568	-9200	26392	1339	-5752	1693	-23144	-8432	144	-406	-5383	2967	-3424	3960	-10448	-1049	-1938	-201	116	185	1
-9744	-4888	11536	118	309	355	-12584	-7264	600	-484	235	629	-11696	616	3776	425	2404	1536	-13920	-7680	25968	1224	-5300	1399	-23576	-7848	-16	-341	-5463	2958	-2072	5208	-10464	-728	-1486	-422	108	176	1
-9036	-5352	11600	198	186	405	-11656	-7952	1144	-534	464	700	-14000	-888	4752	-359	2401	1721	-22736	-1912	32648	1373	-4847	960	-26464	704	-4824	-175	-5980	2939	-448	5000	-10880	-638	-1011	-376	105	168	1
-8936	-5052	11604	259	71	462	-12456	-6928	1384	-662	579	748	-16712	1304	88	-593	2126	1542	-27784	3832	31640	1266	-5129	744	-31744	2192	-3528	-799	-5926	3181	-3208	2320	-8352	-523	-870	-273	104	166	1
-8932	-3356	12040	260	4	571	-13952	-6656	1344	-780	611	786	-16520	2744	-736	-122	1934	1259	-29208	4560	30096	1324	-4711	777	-32768	2048	-3656	-921	-5902	3222	-6576	-6528	-3512	-355	-1194	-481	105	164	1
-11260	-2412	13956	224	203	615	-17992	-6736	1560	-761	666	860	-17232	2080	-1192	81	1899	1091	-26352	-1048	24392	1358	-4594	922	-32768	-1400	-10136	-1640	-5263	3256	-16600	-12920	7464	-556	-2324	-1610	109	143	1
-10372	-3652	14412	156	575	557	-18032	-8272	3088	-787	659	992	-19344	48	936	-211	1712	1124	-32768	-14032	25800	1478	-4549	2480	-32768	-8184	-19344	-1439	-4712	2204	-24872	-10240	21280	-585	-2428	-1593	105	145	1
-10116	-5348	14296	226	892	651	-16384	-10696	2832	-777	898	1153	-21896	-3688	-1344	-311	1350	1154	-32768	-17792	-3416	898	-5051	2007	-17656	-2328	-32768	-608	-3656	1044	-9696	-20224	20144	574	-1117	117	110	156	1
-9744	-6256	15132	296	1294	811	-16944	-10264	3816	-685	1213	1357	-26072	-3064	4208	43	1204	990	-32768	-32768	-32768	634	-3658	-1807	-2688	-18824	-32568	714	-1290	864	-14744	-24592	32767	806	-41	-652	108	168	1
-7876	-4980	18200	327	1924	1009	-22128	-10480	6808	-719	1463	1544	-25328	-2024	6968	-17	630	867	-29792	3520	-23320	1186	268	-1874	-13600	-3624	-27440	2754	935	-793	-21384	-16200	13872	187	672	-97	108	159	1
-8904	-5832	17008	500	2770	1187	-20632	-11440	7104	-678	1827	1768	-22424	-7120	8144	-511	62	1027	-32768	-6448	-13776	-2999	2176	-1707	-17800	-3536	-25848	1589	2567	-1369	-19376	-9280	1488	283	846	-41	106	113	1
-9820	-8588	18492	449	3772	1611	-21312	-14832	8784	-724	2169	1974	-26808	-11552	10920	279	-1103	726	5792	22208	32767	-722	4105	253	-32768	16808	32767	1424	967	-1697	-11552	-8256	-22792	-598	-1884	40	87	105	1
-12780	-12028	17224	591	4941	2509	-23240	-22128	11176	-865	2413	2162	-28960	-14728	15160	833	-3174	112	-31736	-29824	25288	-1116	4255	-1848	-21144	-13456	-15464	-1122	3318	-1661	-13904	4040	648	846	-113	193	99	124	1
-15984	-17796	21232	862	6165	4349	-26120	-28064	12368	-835	2332	2121	-23888	-18416	23880	-1059	-5107	-683	-21192	8456	23000	-464	2551	-1510	-30344	6776	-10024	-205	2889	-1390	-26168	6864	-11896	221	1761	179	106	88	1
-31756	-29680	19988	1534	6273	5786	-29200	-32000	10496	-1463	2382	2028	-29720	-3760	-11808	68	-1398	-599	-19016	-1728	29664	-2098	1449	-750	-15648	6424	-12984	-1190	2734	-887	-12936	3568	-9768	-154	975	1192	126	104	1
-32768	-32768	24088	635	6266	5938	-13240	-32768	2384	-1952	1951	2671	-23288	-7152	-18896	1211	-1337	-749	-14048	18272	11576	-533	508	-470	-20592	-6480	-10848	714	1997	-1031	-9784	3448	-14032	876	1795	646	117	41	1
-32768	-32768	28680	1588	2509	5380	-8952	-32768	-13688	-1537	2521	2147	-20352	-3552	-4592	898	-2919	-1170	-9712	-7480	18240	-408	76	-384	-16432	-512	-6856	1495	1207	-549	-17072	-1120	-8320	1934	1520	836	126	65	1
-15444	-32768	1212	7961	2036	4811	-8848	-20480	-7664	2041	3163	53	-32400	1144	-5704	1414	-2314	-1595	-8616	4568	14568	-131	140	-187	-19744	5024	-5872	2179	736	-514	-21200	9576	-8552	2155	1637	504	139	79	1
2128	-15360	17980	3757	-1586	-2361	-11672	-14664	2464	3659	2668	-523	-32768	-5368	-13032	2191	-1921	-1969	-8464	5032	14672	-11	146	-108	-15336	11016	-3168	1146	712	-375	-16856	8600	-4496	703	1789	436	149	86	1
11524	-13296	14752	953	-1110	-4027	-6680	-12096	9984	3390	1669	-426	-26376	3752	-12792	2242	-1989	-2157	-7296	4584	14088	10	211	-149	-15040	7592	-2568	-304	970	-418	-17296	2272	-4504	-455	1848	619	154	96	1
5292	-11700	13328	-88	-923	-3622	-3336	-5712	5008	2983	131	-739	-19640	7832	-11376	1165	-1866	-2159	-6992	4000	14640	-14	262	-130	-17040	3712	-4424	-506	833	-338	-15896	-1664	-2456	-240	1669	436	151	96	1
-5572	-11680	16708	-60	-2201	-3312	-4376	-7120	-1608	1765	-1444	-901	-15768	4984	-9728	385	-1701	-2142	-8552	3960	14528	19	235	-122	-16984	2936	-5232	370	396	-326	-15352	-1056	-800	474	2034	644	144	94	1
-8016	-9812	15752	187	-3921	-3154	-5888	-8432	-824	2010	-2289	-1220	-13776	1272	-10568	380	-1419	-2303	-8208	5544	13592	-4	187	-133	-13768	7456	-3672	1275	73	-303	-14992	768	184	1516	2146	563	140	96	1
-6456	-6788	12740	-16	-4802	-3144	-8512	-6896	584	2450	-2969	-1341	-11320	2536	-11632	686	-1450	-2419	-8120	5600	13752	-84	138	-184	-13464	9920	-1664	1302	75	-356	-14128	4640	984	1839	2218	439	137	94	1
-9548	-6956	12016	-418	-5012	-3289	-9224	-6704	-872	2716	-3467	-1467	-10120	4600	-12792	722	-1218	-2172	-8720	4600	14152	-124	91	-222	-13024	9032	-992	551	373	-502	-12768	5048	2584	1261	2332	273	124	86	1
-13084	-11180	11860	-479	-5388	-3625	-11552	-9904	-1920	2958	-3722	-1603	-10624	5752	-12080	965	-1064	-2024	-8088	4480	13752	-121	67	-225	-13832	6064	-1536	126	615	-614	-13096	-1664	4904	764	2527	571	126	30	1
-15580	-14440	12380	-192	-5486	-3780	-12328	-12472	-2200	3165	-4145	-1904	-6760	7336	-11824	1318	-974	-1675	-7504	5048	14072	-152	69	-279	-14488	6264	-832	469	671	-609	-16096	-2384	6984	441	2386	816	127	120	1
-19536	-16248	14132	-206	-5470	-3936	-16152	-16064	-4320	3538	-4329	-2352	-5888	8352	-12552	1970	-545	-1474	-7096	5320	13768	-171	117	-392	-14264	6448	-840	537	682	-611	-19112	1008	80	694	1925	718	126	141	1
-24396	-19168	17496	-626	-5359	-4310	-21000	-18984	-5536	4162	-4369	-2806	-4144	13400	-12632	2297	-44	-1123	-10016	2424	13784	-142	152	-499	-15064	4632	-2680	648	998	-705	-19008	-488	-856	438	1511	492	128	136	1
-29976	-22780	22544	-1309	-4989	-4749	-30368	-21696	-7184	4447	-4444	-3324	-6496	11032	-6216	2738	-310	-996	-8072	3856	14632	-133	254	-469	-15880	4952	-1880	738	1118	-728	-14112	-1584	824	366	1636	640	127	130	1
-32768	-28284	24664	-1405	-4517	-5219	-32168	-22928	-7800	4463	-4453	-3436	-9912	9176	-3672	2726	-790	-837	-8664	5616	14208	-140	429	-487	-15744	6352	-3944	786	1226	-774	-14968	960	1992	665	1715	560	125	143	1
-32768	-1532	20328	-1722	-4014	-5785	-32768	-15832	-16240	3638	-4389	-3006	-15784	0	6336	1604	-946	-1571	-9008	4088	14016	-117	454	-498	-16224	5472	-3584	847	1333	-872	-18416	-48	2696	656	1604	570	126	234	1
-32768	-11004	3340	-833	-3546	-4684	-29128	-20272	-28256	3023	-3269	-2668	-17320	-768	7944	1478	-929	-1779	-8520	3920	15400	278	696	-797	-17368	5688	-2912	1144	1496	-941	-21040	-2264	2696	856	1583	544	91	252	1
-32768	24904	-14212	-788	-2856	-2507	-31576	4568	-32768	1984	-2527	-2278	-17752	-14960	32767	1076	-49	-2465	-10152	4248	18392	157	1488	-702	-21712	3664	-2736	1128	1679	-1111	-20968	-5096	4552	1075	1533	437	68	196	1
-32768	32767	-32768	-2312	-1454	-778	-11808	18784	-32768	-736	-99	-725	-16536	-12856	28384	-657	58	-272	-8208	2736	17744	229	2174	-692	-20008	5544	-576	1024	1989	-1252	-19688	-3176	7992	1065	1250	234	95	218	1
-32768	15808	-17644	9	1450	-131	-21176	4992	-32768	-1230	2171	541	-17696	-400	6424	-517	668	143	-7112	6016	17424	-9	2975	-738	-23208	6688	-520	1087	2294	-1399	-24144	-5592	12544	792	566	75	115	253	1
-32768	9316	-7572	4053	3227	903	-27472	-7784	-14216	-764	3496	791	-14832	-1288	-11560	-536	671	11	-10312	6840	19760	95	4158	-1108	-25432	8520	-128	1369	2695	-1452	-27736	-5272	19952	418	-443	-245	135	213	1
17108	9176	32767	2704	4701	1018	-32768	-32768	32767	2401	3040	434	-14880	-10520	-14224	-501	27	163	-10720	8496	22632	279	5622	-1658	-32768	17392	2592	1760	2996	-1560	-30640	-4968	22288	-381	-1695	-658	130	149	1
-32768	29820	30604	2010	4867	3357	-32768	12824	-20600	1539	4974	898	-24056	-18688	32767	2222	-1383	-92	-11752	13728	23040	516	7548	-3101	-32768	18280	5760	2107	3470	-1528	-27688	-16480	11200	-721	-1114	-1164	126	152	1
-23828	-17864	14992	837	3977	2580	-29040	-17216	-3496	-734	3466	1100	-25648	11088	-6808	4155	1489	538	-21152	9672	28920	2465	9008	-4097	-32768	10784	6040	3184	3270	-1149	-25384	-20648	7512	1431	-862	-1113	136	190	1
-32768	-32768	20524	2567	1995	1217	-12704	-17824	-25208	-737	3007	282	-15592	24248	-8400	1307	476	8	-23584	18568	30032	4482	9481	-4204	-32768	10848	3584	4776	2208	-939	-28488	-8104	-13840	5130	-397	-1587	103	8	1
-4724	1136	18892	699	754	1035	-30528	880	-1760	-950	2386	548	-11944	14168	-12144	-1149	675	470	-32768	22864	32767	5925	6517	-4514	-19360	16368	-3984	5193	1598	-1535	-31600	-128	-14008	6266	-725	-1513	119	98	1
-13728	5228	17052	397	264	350	-19808	3408	-8112	-1792	1708	341	-21416	8080	-15832	-2422	1315	664	32767	32767	32767	2874	2478	-3868	-14384	11656	-13304	2504	1337	-326	-31280	928	-19392	6203	-811	-1190	113	50	1
-11068	-3652	14184	48	203	86	-17880	-13008	-3592	-2032	755	380	-16456	-2672	-10624	-2087	1351	925	-8928	32767	23552	-466	-2623	57	-5176	11352	-1712	810	273	704	-31888	11592	-16592	1220	-1929	238	116	0	1
-9312	-5552	13804	-66	281	124	-15296	-14032	-1016	-1507	546	179	-19000	-4504	-7152	-937	1407	877	15496	11792	15328	-988	-3913	1284	-6776	13024	9376	-304	-838	1285	-23136	4840	-15664	27	-2286	651	130	24	1
-8236	-5344	13268	-125	358	136	-14456	-12144	-1296	-732	718	150	-18680	2064	-6264	-434	1663	733	14088	3704	10048	421	-2794	1799	-6016	4272	8200	-1286	-1249	1620	-16872	-232	-12880	-204	-2720	566	131	147	1
-7560	-4736	13576	-201	465	103	-15304	-9152	-920	-219	871	113	-17272	1544	-4600	-721	1680	974	1576	7144	13608	1475	-2352	2622	-5904	-72	1848	-1344	-1829	1799	-10960	-1816	-12544	-169	-2705	384	134	110	1
-8608	-4456	13188	-208	537	25	-16344	-8016	-1640	-253	709	111	-15224	-1168	-4488	-661	1791	1470	-8880	11088	19400	1085	-3365	3226	-5952	16	-2536	-1615	-2459	2227	-9904	760	-12784	-281	-2503	248	135	97	1
-9332	-5684	12560	-236	502	-51	-13832	-9528	-2008	-767	173	185	-17144	248	-5792	-707	2065	1609	-9944	5248	19184	138	-4624	3535	-9056	-152	-1200	-1814	-3135	2599	-10512	3304	-13696	-577	-2414	336	135	105	1
-8656	-5472	12148	-245	489	-65	-11920	-11888	-1224	-948	-180	312	-14792	-2432	-3320	-682	2260	1787	-10008	-2128	18040	153	-5411	3505	-12280	-1544	488	-1868	-3780	2678	-6288	4760	-13400	-1126	-2379	172	129	115	1
-9664	-5792	11820	-110	283	53	-11568	-11272	160	-687	-72	394	-13720	-3472	-1584	-396	2385	1851	-10312	-3592	18560	455	-5633	3053	-15504	-616	-208	-1588	-4378	2636	-4448	3976	-12544	-1737	-2293	12	119	147	1
-8924	-5448	11896	-32	211	103	-10528	-9736	232	-414	242	395	-11520	-2880	2400	363	2563	1589	-10784	-3096	18968	476	-5643	2923	-18608	-1800	-2656	-1374	-4965	2697	-3888	4056	-12376	-2077	-1995	-93	116	150	1
-8952	-5972	11904	55	130	173	-10488	-9488	760	-393	286	397	-10816	-2608	7440	219	2966	1315	-18016	1744	21576	816	-5788	1917	-22016	-1304	-3592	-1005	-5384	2756	-2240	4464	-13056	-1824	-1580	-284	118	143	1
-8912	-6020	11504	161	47	278	-11160	-10376	560	-604	568	499	-16064	-2576	2744	-1152	2598	1269	-21872	6360	23240	1068	-5356	1780	-24448	2280	-4240	-818	-5610	2872	-688	2432	-12256	-1136	-994	-375	118	148	1
-8864	-4924	11928	226	-41	355	-11744	-8432	1056	-912	645	654	-20168	-3520	-6816	-597	1848	1006	-30104	14336	26592	1134	-5036	1990	-27984	4512	-7072	-1206	-5430	3063	-2120	-232	-7544	-612	-769	-474	114	155	1
-9892	-4408	13048	243	-6	416	-13472	-8584	408	-976	651	631	-17536	-504	984	43	1737	744	-32768	21904	27912	992	-5175	2687	-32768	4880	-11208	-2112	-4988	3404	-8400	-9064	-1752	-784	-1338	-699	116	167	1
-8272	-3652	13316	254	126	418	-15704	-8416	1016	-858	858	661	-15496	64	-1992	-439	1744	828	-32768	19312	18944	570	-4846	3911	-32768	3600	-12064	-2792	-4649	3409	-16232	-10968	-4024	-914	-1627	-1276	117	157	1
-8840	-3648	13368	247	160	412	-14112	-11160	664	-900	991	779	-16176	-3480	1328	-725	1575	933	-32768	5288	8520	549	-3627	4720	-26848	4120	-16624	-3002	-4020	2780	-27336	-11776	4488	-1764	-1961	-1193	117	141	1
-10820	-6612	15028	224	630	588	-14672	-10720	1632	-1051	1210	898	-20688	-3784	3256	-259	1510	629	-32768	-2512	-3560	-670	-2640	4240	-27424	-2800	-32024	-3547	-2398	2054	-15848	-20024	29536	-1991	-3053	-347	116	173	1
-9084	-4800	14912	255	981	694	-15368	-10232	2384	-1267	1485	1135	-22648	-5480	688	-626	1153	647	-32768	-31768	-32768	-371	-2009	2288	-3032	-11984	-32768	-1527	-739	1019	-11816	-15216	32767	-2376	-433	607	119	183	1
-9672	-4892	16416	375	1607	810	-19336	-11352	296	-1220	1897	1312	-19728	-6416	1200	-642	646	757	-32768	-23944	-28864	149	650	132	-9440	-7744	-28672	-172	1738	-364	-22816	-21824	14120	-1311	222	727	120	163	1
-8640	-6648	18172	344	2406	930	-20120	-14832	1792	-1272	2191	1524	-21136	-7008	4832	-697	-38	777	-32768	20608	1296	-1732	3782	-268	-25760	-9176	-21960	775	2914	-1013	-23296	-9704	-4336	1255	964	-29	119	145	1
-10232	-6676	17684	490	3249	1451	-22216	-15320	544	-1545	2464	1552	-28736	-8256	10816	-606	-933	472	792	-9504	31064	-986	4369	213	-32768	-1688	32032	1009	1533	-1535	-10368	-4416	-10840	1378	-924	-219	118	138	1
-11800	-12344	23800	614	4373	2217	-25768	-22208	6160	-1904	2700	1689	-29768	-12888	18632	-282	-2324	-52	-26688	-32768	32767	-1983	4502	-2494	-19944	640	-20280	-854	3636	-1146	-20272	6320	18152	939	-800	376	120	139	1
-14252	-12888	28612	499	5769	3607	-30408	-30224	8608	-2201	2757	1722	-27536	-22016	26776	-1617	-4565	-713	-12144	32767	2392	-2270	578	-686	-32768	2224	-7336	-1252	4034	-1060	-31424	16464	-18624	-1591	1314	604	124	103	1
-19896	-25864	23688	225	7711	5483	-32768	-32768	14352	-2883	2543	1355	-27248	784	2816	-301	-2003	-980	-7624	-23016	25200	-718	583	-640	-16968	-11760	-7448	-1307	3411	-1365	-11888	-4976	-22832	-1783	1636	1470	136	49	1
-23320	-21592	31480	-336	9828	5657	-28240	-28752	16824	-2944	1779	2103	-29376	-376	-7832	1591	-2291	-539	-6928	8728	13264	-527	293	-101	-2696	1984	-11784	48	1985	-720	4784	24	-16112	-269	1569	251	103	93	1
-32768	-32768	30068	-2583	6360	5078	-10488	-25872	-3328	-4244	1608	2019	-25360	4640	-968	325	-3072	-1273	-9960	3872	17544	-294	201	-259	-20624	-5328	-10408	1164	1186	-303	-22496	840	-14840	1194	1034	910	89	73	1
32767	-32768	32767	4424	2293	3712	-10112	-19800	-10592	-962	1578	125	-32768	12064	-3728	-257	-2815	-1794	-4528	4848	15352	-181	138	-169	-24800	8624	-4328	1743	535	-202	-23184	9184	-9504	1813	2310	584	95	51	1
8428	-23536	29788	1777	-2635	-3190	-10784	-10512	12904	1480	522	-1058	-32768	-1376	-10280	432	-2410	-2009	-4512	4128	14872	-225	197	-201	-16680	8872	-632	589	612	-262	-19136	8896	-5376	-40	1988	486	114	79	1
23624	-13608	16256	-193	-2232	-4146	672	-11248	16872	2261	-15	-1348	-26712	9584	-10544	1398	-2360	-2245	-3720	4416	15056	-242	225	-217	-15344	5600	-960	-331	643	-248	-16032	-2032	-4208	-1039	1951	679	129	104	1
11452	-6512	19728	-1308	-2495	-3337	-2160	-3744	8672	2632	-803	-2045	-14760	12400	-9792	489	-2338	-1829	-4880	3088	15896	-458	737	-321	-17688	6200	-424	-454	454	-260	-16344	-2112	-1392	-299	2048	475	127	98	1
-3080	-5328	23516	-1580	-4097	-2900	-9888	-888	5008	2193	-2358	-2337	-11064	13168	-9240	-942	-2162	-1794	-2984	7512	15304	-682	955	-656	-16944	8480	-2400	216	201	-254	-16080	-24	1200	563	2425	507	134	96	1
-4232	-344	21576	-1653	-5754	-2706	-11760	488	6304	1653	-3646	-2536	-9344	5392	-11416	-1690	-1661	-1615	-6776	4088	14968	-848	1037	-985	-15568	5992	-904	757	-24	-219	-11912	1512	3528	990	2796	666	139	102	1
-1540	1696	16932	-1884	-5923	-2777	-13312	-2104	6560	1745	-4485	-2591	-6624	4312	-13232	-1708	-1439	-1557	-7408	3472	14472	-818	1038	-1021	-14104	5624	512	804	15	-319	-12688	-2112	9384	25	2509	1091	135	104	1
-5352	-1712	17436	-1611	-5326	-3141	-16088	-4240	3616	2416	-4640	-2530	-5952	6160	-14568	-1161	-1199	-1440	-6992	480	14640	-813	963	-985	-12240	5560	1472	519	240	-433	-16192	2336	2408	-99	2387	910	127	55	1
-11284	-5060	22224	-846	-4911	-3603	-18920	-8624	560	3427	-4598	-2546	-3480	5456	-13616	-634	-870	-1301	-7952	-9744	21704	-566	779	-887	-11984	3568	1296	260	614	-583	-25264	-3336	1752	17	1925	314	133	107	1
-18280	-5816	27096	-572	-4932	-3671	-24600	-11896	-1552	4101	-4799	-2573	-2880	5816	-12480	325	-196	-895	-19560	-4944	19648	-231	679	-691	-16408	4664	2920	530	739	-743	-16064	-6616	3400	-409	1352	144	133	183	1
-25264	-10160	32492	-741	-5218	-3573	-25336	-12480	-2296	4184	-4861	-2555	112	10984	-10688	897	920	-178	-10416	-864	15640	-233	731	-595	-15512	2640	264	582	1036	-831	-13936	-5896	5344	17	1814	465	129	193	1
-32768	-12828	32767	-1228	-5614	-3362	-32768	-19880	-5704	4203	-5697	-2726	-1096	7208	-3160	1962	581	-512	-8776	816	14288	-146	700	-442	-14944	3896	232	773	1190	-945	-14248	-2952	2584	365	1969	514	122	164	1
-32768	-10312	32767	-1799	-6178	-3500	-32768	-18328	-8600	3701	-5758	-2971	-6288	4056	-280	2283	-647	-1147	2816	-4624	8312	-108	623	-441	-15576	3912	-280	782	1366	-1083	-16464	-224	360	271	1602	443	123	142	1
-32768	4120	24068	-2231	-5807	-3284	-32768	-14504	-17256	2609	-5680	-2279	-23880	-8024	14808	860	-1810	-2196	-9416	368	15312	-56	828	-408	-16216	3936	-1344	764	1535	-1249	-17784	-1584	2504	283	1438	279	138	148	1
-32768	11728	-4612	-1688	-4808	-1543	-32768	-3448	-32768	1183	-5299	-1867	-32768	15544	32767	2059	-823	-2676	-8672	2336	15528	18	992	-467	-17192	4336	8	784	1771	-1396	-17512	-5256	5816	297	1448	264	60	200	1
-32768	32767	-28808	-3569	-3264	390	-18232	26968	-32768	-1754	-4053	-865	-8112	-32768	32767	-1909	-1875	-604	-2560	752	21272	74	1301	-553	-17424	2264	904	985	2107	-1579	-18200	-4520	9008	572	1088	223	82	163	1
-32768	27336	-32768	-1439	-932	1682	-2048	2040	-32768	-3222	-521	1147	-8824	-7248	27904	-1267	68	602	-8664	1560	17440	140	1967	-492	-20352	3856	416	766	2376	-1845	-19272	-5632	8832	527	737	-4	98	214	1
-26972	-16020	7128	3372	528	1226	-23424	-2936	-22096	-2231	2252	1763	-21784	5408	-1280	-1604	145	500	-8112	2000	18184	180	2837	-686	-23888	2760	-1920	788	2670	-1967	-24000	-5056	11752	397	-23	-542	131	253	1
8604	-6868	32767	3124	2475	1153	-15584	-32768	32767	-1078	3548	1517	-25512	-4184	10000	-1798	-574	35	-10000	5808	19224	191	4070	-829	-32096	7568	-336	1079	2757	-2214	-27336	-1264	14416	-464	-1117	-737	149	253	1
-1548	14972	9784	2862	6312	2260	-26504	-5240	-3736	2494	5464	799	-17776	-12880	5920	201	497	776	-13168	11224	30480	560	5600	-1519	-32768	22640	7824	1188	3010	-2253	-26296	-7264	12208	-1997	-822	-809	135	0	1
-32768	-12612	32767	1603	4411	2499	-32768	-17896	-7632	83	4634	1805	-22416	-10968	5800	4135	325	-461	-16480	12296	28472	-496	7127	-3330	-32768	17168	7456	1610	3161	-2123	-28936	-16560	11448	-278	-1111	-913	143	3	1
-32768	-32768	7208	1471	2410	1422	-14384	-20800	-20504	-1146	3284	732	-22040	18584	-9440	2881	372	119	-16936	10584	32584	998	8267	-4192	-32768	12872	9896	2462	2780	-2111	-30944	-360	-208	2727	177	-1158	141	0	1
-32768	-32768	15796	1965	2141	968	-32768	6048	-304	-1066	2502	680	-20528	21952	-11768	2458	307	-111	-16344	13280	31144	1354	8306	-4214	-24584	19888	808	2866	2294	-2144	-27792	-1448	-13096	3761	-539	-1215	119	14	1
-15684	-14372	11244	337	382	447	-9160	-9288	-9144	-2097	1715	577	-14008	14456	-15136	-2383	1074	692	-23960	32767	32767	233	4411	-4512	-20672	9360	-10224	773	2355	-1624	-27240	1152	-16560	3134	-1186	-708	122	27	1
-11156	-4392	13280	236	210	244	-18160	-6696	-6040	-2213	944	598	-21232	-4744	-13944	-2805	1363	1030	-32768	7872	32767	-2337	-501	-992	-9744	6792	-4808	-111	954	-458	-32768	8472	-16008	1256	-1420	-306	115	38	1
-6848	-4520	14288	30	170	129	-18048	-17016	-3968	-1578	693	440	-21280	-6800	-10112	-1303	1382	1016	11128	12184	22856	-727	-3024	1715	-12296	13968	10816	-603	-516	126	-31352	8080	-16296	-291	-1855	90	127	51	1
-8416	-5260	13412	40	228	211	-14304	-12184	-4880	-811	902	312	-19584	1552	-6520	-425	1551	1012	14712	6416	10392	149	-2478	1642	-3016	7456	8304	-730	-1154	477	-19408	672	-14224	-719	-2261	302	132	69	1
-8336	-5172	13200	70	267	172	-13640	-10048	-3152	-283	988	197	-17752	4040	-5600	-601	1628	775	4616	9200	15008	580	-2467	1708	-2344	7056	6352	-889	-1165	580	-13120	-2392	-12440	-838	-2673	95	130	91	1
-9892	-4120	14108	38	330	66	-16208	-8304	-2664	-48	926	115	-15872	-1368	-3984	-804	1607	1477	-4696	11072	17456	282	-3367	1925	-6368	1912	-2152	-1408	-2296	1352	-11480	-768	-10800	-730	-2441	-8	140	225	1
-9044	-4916	13044	-81	349	-9	-15728	-9328	-2504	-602	392	188	-19600	808	-5208	-650	1842	1641	-5824	7184	16048	193	-4375	2299	-8736	888	-1296	-1427	-2943	1792	-11400	680	-11680	-868	-2281	25	135	97	1
-9300	-5436	12548	-138	339	37	-12872	-12232	-2232	-953	-131	307	-16944	-2008	-4848	-972	2061	1763	-4496	4920	13208	614	-4785	2602	-11744	1296	-600	-1232	-3532	2039	-9128	1168	-12240	-1122	-2336	-12	131	105	1
-9048	-5428	12060	-111	315	139	-11864	-12632	-1808	-890	-237	353	-14288	-5240	-3408	-1027	2124	1902	-8600	5968	15064	893	-4694	2631	-13320	2000	-1888	-994	-4046	2237	-8192	1080	-11360	-1119	-2194	-116	122	113	1
-8884	-5448	12160	-41	281	194	-10336	-11400	-272	-550	54	418	-13888	-4112	-752	-627	2145	1619	-12736	7448	17896	809	-4766	2507	-15480	3320	-4000	-1033	-4418	2525	-5816	944	-10688	-1039	-1999	-282	115	119	1
-8676	-5528	12068	42	278	243	-10712	-10336	-1008	-357	358	468	-12560	-3688	1904	-317	2188	1455	-15272	7752	18344	863	-4835	2374	-17848	3632	-4464	-1208	-4641	2755	-5216	3368	-10896	-870	-1726	-356	118	121	1
-8948	-4992	12052	94	249	279	-12832	-9576	-928	-569	336	542	-13200	-2056	2496	-215	2470	1257	-15712	7880	18080	898	-4814	2363	-20688	4616	-5000	-1301	-4763	2948	-2624	3560	-11344	-874	-1269	-337	120	120	1
-8720	-5524	12072	171	213	344	-11576	-9904	0	-852	331	575	-14536	-2072	1496	-668	2464	1252	-22768	14152	22744	1229	-4305	2640	-23728	5216	-6352	-1666	-4773	3180	-3656	1840	-9640	-874	-980	-293	119	122	1
-8648	-4624	12120	255	241	454	-12512	-9216	-624	-880	523	623	-16784	-3040	1448	-768	2151	1139	-27048	17056	25632	1254	-4217	3280	-30216	5512	-7480	-2233	-4742	3346	-5336	-832	-5008	-1010	-1216	-331	124	124	1
-7496	-3248	10952	265	298	476	-13104	-8624	-1208	-837	706	724	-16424	-1736	-1360	-315	2020	951	-29440	19904	24552	943	-3908	3993	-32768	7632	-8472	-2803	-4715	3424	-11048	-3888	-2176	-1271	-1773	-507	120	128	1
-10368	-4320	14320	169	351	457	-14088	-9304	-960	-783	865	765	-15400	-2800	-3264	-357	1763	942	-32768	18312	19712	397	-3255	4502	-31032	7528	-13568	-3211	-4515	3166	-19216	-3808	-1920	-1295	-2005	-510	131	130	1
-9532	-4036	13604	183	561	464	-14376	-10712	-776	-944	931	836	-19208	-3240	-2848	-371	1390	974	-32768	12096	11472	267	-3173	4893	-23648	6752	-21848	-3400	-3549	2712	-25264	-9280	6328	-2066	-2608	-297	122	128	1
-8384	-5776	14792	209	790	607	-15544	-11016	-24	-1130	1026	933	-21056	-3112	2224	-451	1379	918	-32768	-3040	-11312	-312	-3014	4186	-24416	-7304	-31456	-3448	-2183	2272	-10632	-21304	26832	-3073	-3114	213	122	214	1
-9868	-3960	14640	236	1204	761	-16224	-9696	280	-1305	1217	1070	-18696	-4072	3304	-775	1194	791	-32768	-25592	-32768	902	-1336	3206	-3808	-14184	-32768	-1283	-559	1275	-10952	-16520	32448	-1986	-732	435	121	225	1
-9648	-4228	15968	218	1749	837	-17232	-11128	368	-1359	1545	1242	-17568	-5608	3840	-1044	685	726	-32768	-17864	-26808	1176	1089	1598	-11144	-5104	-27800	-110	1714	-78	-20336	-16256	9144	-820	83	652	121	210	1
-9084	-6244	17140	371	2333	1038	-18320	-14112	-104	-1521	1877	1349	-21792	-7384	3560	-993	-64	593	-32768	-7616	-21000	122	3151	561	-20536	-10176	-17448	177	2529	-460	-17440	-6720	-3696	654	211	258	123	179	1
-11248	-8780	16336	499	3109	1541	-19792	-16912	840	-1910	2160	1465	-26736	-8040	6416	-1138	-967	340	-19376	-17064	14240	-1799	7328	450	-32768	-512	18800	-218	2528	-1503	-26160	-200	4672	1245	-788	-214	123	147	1
-12080	-11460	21412	443	4139	2383	-26120	-22976	3224	-2417	2388	1508	-27776	-12504	15680	-470	-2458	-119	-32768	-32768	32767	-1298	4234	-3308	-32768	-16536	-16784	-2217	4778	-1311	-7104	8704	3336	-603	-271	573	122	152	1
-21488	-19664	26952	310	5236	3669	-26872	-24800	4336	-2479	2383	1496	-25864	-9000	22752	-1422	-2211	-810	-18688	32767	-6648	-2111	823	-1653	-30024	13416	-12208	482	4453	-1151	-24592	-5584	-17944	-1866	1057	1074	116	138	1
-15600	-12456	28920	-522	7789	5239	-32768	-32768	16784	-3132	2467	1335	-32768	-640	1744	-1309	-1736	-677	-1640	-32768	32248	-1612	291	-1384	-16424	-11808	-6408	-2399	3893	-599	-6624	4456	-15536	-64	1949	606	110	80	1
-17308	-13236	29840	-870	8289	5382	-29760	-29080	17592	-3615	1495	1542	-28648	4576	-11456	883	-2457	-853	-3232	1496	16696	-1021	-131	-557	-11448	1808	-13592	535	2115	-683	-9288	3184	-19336	-504	876	994	104	77	1
-32768	-29904	32767	-3056	6476	4634	-17888	-13712	-7912	-4331	1398	1852	-24984	7256	-4856	-617	-2434	-1449	-6728	2880	16928	-348	-21	-243	-23352	-2840	-8352	1800	1442	-445	-25144	5384	-16880	1570	1522	610	101	76	1
32767	-32768	27808	3006	2042	3661	-7904	-18120	-8496	-2130	888	-218	-32768	9744	-2520	-837	-2479	-1394	-6024	1000	16072	-242	31	-214	-22024	10160	-3552	1230	994	-198	-22168	9000	-7376	823	1712	550	131	86	1
10120	-30524	25464	806	-2059	-3074	-8976	-8576	12216	783	-203	-1137	-32768	1816	-10960	396	-2084	-1701	-7184	3424	15336	-157	232	-289	-18040	3432	-2856	-43	1096	-478	-18792	4760	-5568	-773	1759	491	117	106	1
21500	-15148	11728	-213	-1175	-3575	2608	-12096	13128	1707	115	-1721	-26472	12192	-9056	1028	-2221	-2170	-7448	3480	15544	-35	441	-195	-18320	1600	-3712	-362	939	-434	-17512	-4912	-6216	-1129	1676	812	123	100	1
6292	-5752	22200	-1160	-1651	-3235	-7488	-3584	6288	2816	-235	-2436	-17312	16224	-7592	-158	-2248	-1987	-8104	3488	15080	85	549	-147	-18920	-136	-5400	-2	550	-328	-15848	-3128	-4384	-220	1860	616	122	99	1
-3584	-3460	25764	-1615	-3483	-3035	-12168	-320	5168	2556	-1744	-2821	-11440	11728	-7432	-1561	-1895	-1818	-8064	3824	14184	77	534	-182	-16160	3448	-3984	752	120	-234	-16672	688	-3600	545	2121	533	114	100	1
-5624	484	24472	-1837	-4899	-2855	-15176	2184	5992	1765	-3206	-2976	-10608	6080	-8696	-1975	-1656	-1742	-8240	4128	14224	65	478	-205	-15080	4936	-1384	651	100	-247	-15696	1488	-2224	460	2135	484	113	101	1
-1120	3344	21428	-2052	-5330	-3093	-17272	-1896	6000	1713	-4101	-2940	-9448	5224	-9880	-1830	-1484	-1561	-8224	3976	14496	21	449	-238	-14496	5192	-1184	319	269	-331	-14560	792	-1136	61	2047	297	123	105	1
-7856	2248	22872	-1694	-5465	-3163	-18888	-5776	4408	2283	-4355	-2823	-8264	5888	-10560	-1438	-1223	-1508	-8848	3560	13896	-57	394	-298	-14784	4208	-1928	55	445	-412	-12904	-264	712	-202	2298	340	125	60	1
-9504	3340	24340	-1394	-5285	-2765	-23984	-6768	3032	2917	-4598	-2718	-6560	3872	-10056	-918	-973	-1408	-8336	3144	14032	-58	336	-324	-15184	2600	-2232	60	526	-452	-13320	-4728	2592	-85	2591	383	124	81	1
-13476	2464	25352	-1586	-4804	-2203	-26016	-8280	280	2997	-5089	-2547	-5416	3312	-10240	-179	-596	-1118	-8880	3680	13704	-131	362	-336	-15744	2984	-2040	356	534	-489	-14992	-5240	4488	-240	2460	627	119	210	1
-32768	5612	32767	-1717	-4651	-2106	-30896	-8000	-8800	2994	-5260	-2439	-2680	6152	-7680	617	-162	-967	-8824	3448	13480	-170	323	-389	-15632	3272	-1944	398	552	-494	-17952	-1304	-1552	-130	2065	615	142	235	1
-27188	-5548	32767	-1495	-4850	-2104	-32768	-16264	-5128	3231	-5582	-2589	-3560	4568	-4000	1475	-317	-1138	-8560	3648	13992	-152	296	-434	-14432	2920	-1288	528	749	-610	-20792	-1000	-1680	-127	1453	398	139	226	1
-32768	-7428	32712	-2063	-4954	-2336	-32768	-13376	-10072	2997	-5675	-2807	-7704	4000	192	2037	-1037	-1232	-8680	2128	14320	-135	389	-436	-17048	2152	-1128	516	856	-699	-14744	-2224	1944	-470	1290	499	129	191	1
-32768	3408	32767	-2361	-5137	-2711	-32768	-8704	-14928	2142	-5601	-2615	-16200	5840	5128	1433	-1068	-1400	-8880	2544	14832	-83	545	-409	-16424	3056	-656	586	956	-834	-14488	-2184	5656	18	1766	538	112	100	1
-32768	19192	16660	-2690	-5325	-2066	-32432	-6968	-22992	1677	-4699	-2047	-23928	-3664	14032	-70	-913	-1972	-8984	2768	15064	-62	757	-442	-15704	4088	872	602	1203	-1009	-20056	-6984	6848	128	1675	486	93	98	1
-32768	16000	-6904	-1617	-4586	-1022	-25120	0	-29272	851	-3767	-1534	-18928	-6416	15832	-409	-435	-1665	-8520	2808	16096	-145	1035	-488	-17304	3912	1984	537	1581	-1243	-22168	-9200	8272	272	1103	345	93	116	1
-32768	32767	-24968	-2151	-2592	286	-19616	19776	-32768	-983	-2671	-805	-9776	-18616	29504	-1294	-1153	18	-8536	2992	17592	-181	1627	-568	-21784	2760	952	489	1960	-1449	-21832	-7008	10192	593	716	102	73	94	1
-32768	26076	-24564	-1008	-473	560	-14568	7024	-32768	-1938	25	519	-13736	-5400	17328	-1170	-237	671	-9616	3624	17592	-192	2348	-669	-21776	4272	16	517	2280	-1659	-21896	-4456	15504	492	101	-191	122	182	1
-32768	23680	-26020	3888	1823	1030	-15656	-3592	-29984	-788	2219	1057	-21856	-3624	840	-350	498	321	-9104	7248	18968	-106	3285	-972	-25704	8472	792	606	2617	-1816	-23096	-5344	18072	-1009	-804	-387	121	246	1
32767	-27212	32767	1744	4463	871	-26360	-32768	32767	1041	2197	1343	-23944	-3664	5776	-480	-159	-191	-10232	7752	23736	-119	4622	-1733	-32768	13240	1992	1019	2820	-2026	-24208	-4928	22448	-1750	-1584	-539	140	241	1
-32768	21852	24180	1769	4504	2620	-32768	12728	-15064	596	4715	995	-23040	-11344	21680	-285	-986	213	-15824	16576	25664	-660	6337	-3300	-32768	16936	8688	1398	3105	-2161	-32600	-9632	1576	-435	-621	-982	142	16	1
-32768	5468	23588	1788	4265	2433	-27248	-22304	-2136	-1155	3188	1334	-19872	-5952	-2968	1549	763	354	-13728	10920	29552	-282	7511	-4373	-32768	7824	4056	1685	3031	-1961	-25984	-12088	6304	1349	-861	-832	150	35	1
-27248	-10280	17304	1838	1644	926	-9248	-16760	-11440	-877	2740	626	-14664	15776	-15296	1051	55	165	-24408	13040	27720	1496	8461	-4203	-32768	7344	4096	2627	2238	-1935	-29688	-760	-12536	2946	-512	-1153	158	47	1
-15180	-7216	19056	332	497	908	-19112	-2384	-9616	-1134	2018	955	-5344	13296	-10792	-830	132	427	-32768	19616	32528	2254	6235	-4060	-17040	13736	-6104	2611	1791	-2169	-24360	7024	-13392	3753	-1092	-1395	127	58	1
-8112	-1308	16076	330	53	390	-16384	-3976	-4880	-1530	1410	461	-17968	5672	-11552	-1617	1138	721	13960	32767	32767	-474	3117	-3913	-11792	9656	-14624	314	1632	-1139	-28384	8328	-14400	1628	-1346	-594	131	74	1
-8520	-3868	13804	46	106	159	-19000	-14120	-2392	-1653	760	513	-21240	1104	-9784	-1687	857	620	-13544	27816	30512	-2659	-854	105	-7312	5120	-4696	-983	484	-495	-30208	9648	-13712	-147	-1374	-156	139	76	1
-8472	-4868	13556	9	136	184	-14400	-13632	-1624	-1310	713	293	-18696	-1824	-5528	-1093	991	615	7784	7344	14344	-1949	-2597	1799	-9704	9352	3304	-1654	-468	-82	-24680	5024	-15312	-1011	-1835	125	127	75	1
-8596	-5376	13132	-51	212	163	-14320	-13056	-1736	-1221	732	275	-18960	1624	-5424	-797	1138	702	7392	4112	8656	-539	-2016	1680	-6632	4000	2064	-1764	-940	220	-18992	-272	-12624	-1076	-2201	175	129	89	1
-9256	-5344	13264	-92	299	100	-14208	-9744	-2224	-451	809	144	-18856	1792	-5944	-939	1322	830	456	7512	10896	129	-1892	1770	-6584	3304	1688	-1787	-1031	282	-14384	-2448	-11504	-895	-2339	14	133	100	1
-8664	-5104	12552	-145	303	-39	-14640	-9952	-3768	-449	498	89	-16832	336	-6488	-1120	1330	1277	-5976	10480	14808	113	-2563	2049	-6264	776	-4864	-1449	-2222	946	-13696	-1336	-11328	-728	-2253	31	141	110	1
-10208	-5372	12720	-177	263	-69	-13968	-12080	-2032	-755	-41	161	-17672	-2560	-6952	-1303	1499	1356	-8488	9920	14064	-240	-3657	2354	-7632	1984	-5408	-1258	-2850	1412	-12816	-336	-12080	-758	-2224	-155	136	130	1
-8840	-5976	12136	-158	239	6	-11592	-13232	-1752	-796	-276	187	-16080	-6456	-5472	-1269	1614	1461	-8984	6288	12680	-43	-4386	2511	-9864	1312	-4464	-1058	-3403	1702	-11912	432	-11928	-836	-2208	-162	135	131	1
-8968	-5636	12300	-143	233	5	-10440	-13072	-1320	-458	-142	258	-15296	-6672	-3184	-874	1669	1403	-10424	4848	12008	690	-4750	2459	-9984	1272	-4704	-995	-3491	1747	-9120	-216	-11376	-708	-2186	-176	128	132	1
-8928	-5604	11824	2	152	100	-10680	-11224	-576	-162	76	324	-14168	-2808	-1568	-538	1768	1237	-14256	5368	12472	1417	-4953	2092	-12072	2984	-7104	88	-4409	2499	-7112	2512	-11968	-625	-2005	-259	130	130	1
-8972	-5468	11892	48	103	126	-11936	-10504	-192	-247	83	351	-13600	-2192	-120	-374	1916	1136	-18480	6720	11384	1853	-5164	1576	-13456	4120	-8440	258	-4562	2983	-6000	5176	-12384	-920	-1758	-154	120	128	1
-9112	-5008	12032	77	81	143	-12728	-9776	-88	-483	-33	362	-14312	-1192	1136	-323	2155	1058	-21272	9272	11568	2050	-5088	1423	-15992	2288	-7848	-245	-4469	3356	-3456	2928	-12704	-1169	-1456	53	115	134	1
-8936	-4784	12232	61	59	144	-12408	-9848	-64	-604	-47	370	-14712	-2176	2672	-337	2337	1009	-23040	14304	14560	1985	-4611	1929	-21168	2032	-7432	-739	-4222	3554	-3704	32	-11272	-697	-1123	-11	115	136	1
-8956	-4672	12160	55	61	147	-11104	-9624	24	-558	118	404	-15888	-3272	984	-731	2071	953	-28880	18832	18536	1543	-4104	3107	-28136	1688	-10664	-1377	-4208	3710	-7968	-48	-9008	-573	-946	-25	113	134	1
-9136	-5012	11980	91	-10	123	-10496	-10128	-272	-463	342	455	-15968	-3296	-2992	-498	1487	803	-32768	18624	18784	930	-3901	4364	-28992	5584	-11424	-1967	-4172	3764	-13096	960	-5464	-373	-1041	154	116	134	1
-8684	-5368	12276	133	-22	164	-12232	-11384	-312	-496	427	484	-16888	-5008	-3680	-535	1235	756	-32768	14624	15056	392	-3444	4854	-28336	9416	-11528	-3057	-3663	3547	-17464	168	-2224	-695	-1367	184	117	136	1
-10084	-4964	12748	111	8	261	-13248	-11320	-296	-693	354	548	-17304	-4456	-984	-558	1212	728	-32768	12088	10216	68	-2780	4757	-29944	7568	-13800	-3957	-3011	3198	-18792	-6888	1480	-1177	-1548	-16	116	140	1
-8868	-5448	12760	141	84	312	-11848	-11168	672	-881	397	637	-16648	-4048	1912	-643	1179	636	-32768	8344	-2512	-502	-1975	4705	-25008	1960	-17936	-4384	-2119	2711	-20192	-11488	9584	-2262	-1280	267	116	137	1
-8804	-5720	12620	166	202	421	-11688	-11048	1312	-989	611	737	-16808	-4976	984	-666	1016	497	-32768	-5680	-13424	-1065	-763	4703	-19048	-9376	-27536	-4123	-782	2060	-20952	-13480	30040	-4646	-2230	777	116	141	1
-8960	-4748	12928	208	349	497	-12016	-11048	808	-1029	905	866	-17344	-5816	-3280	-772	658	533	-32768	-24984	-27320	-632	670	4011	-5448	-10688	-23216	-2539	662	1001	-12712	-11984	24640	-3579	-1128	509	120	150	1
-9552	-5448	13352	146	517	610	-14512	-11552	-816	-1006	1230	942	-17440	-5432	-488	-849	318	535	-32768	-19712	-14048	-119	2605	2472	-14232	-5208	-19504	-1937	2273	-56	-13248	-12680	22752	-3257	-857	477	122	189	1
-8316	-4888	15316	236	861	702	-15888	-10984	-504	-1202	1350	1054	-17472	-2928	296	-935	27	477	-32768	-13344	6616	-1304	3533	1788	-20104	-5000	-16920	-1250	2729	-331	-13512	-8680	-1448	-851	728	299	121	210	1
-9176	-6696	15220	132	1250	892	-16024	-10952	-1376	-1461	1462	1087	-18928	-504	2856	-1040	-439	336	7200	-11216	8256	-2123	2869	1203	-24696	-10512	6512	-463	2398	-700	-16208	-1776	-5064	334	7	134	121	194	1
-9308	-6712	16380	142	1829	1108	-19040	-12296	-1008	-1776	1504	1107	-21776	-608	5256	-1288	-808	158	-15040	-26264	32767	-1485	3915	-1115	-27144	6688	18112	-281	2216	-876	-12528	1864	1400	-379	-1048	0	123	181	1
-10008	-6700	16784	230	2603	1511	-20080	-14976	-656	-2093	1657	1113	-22608	-3984	7832	-1365	-1466	-53	-30048	-9800	26936	268	2516	-2402	-27992	-17216	-7520	-946	3129	-1131	-18504	-13664	1032	-1720	-839	249	123	88	1
-12628	-10580	18728	239	3477	2237	-22072	-20680	1984	-2368	1823	1027	-25928	-8616	13488	-1192	-2465	-316	-16072	32767	2032	-1514	1484	-746	-18008	22096	-11800	258	2942	-495	-19520	-4144	-4472	-287	770	826	122	90	1
-16164	-13452	18984	-432	4538	3213	-24416	-25000	3272	-2913	2033	800	-26000	-9296	14312	-1133	-2570	-380	-6704	-21640	23024	-788	332	-884	-22616	-12216	-6552	-1634	2986	-687	-11088	8584	-12880	540	1531	868	119	116	1
-14340	-14276	18492	-1328	5711	4396	-29120	-26152	6272	-3626	1996	611	-25016	1560	11456	-934	-2420	-297	-7688	1824	14456	-721	-52	-308	-22304	-14336	-10280	-1362	2884	-857	-12176	6088	-16000	-556	830	860	113	115	1
-15232	-15172	26592	-2342	6982	4973	-31184	-24752	9200	-4040	1212	721	-28272	3856	-3392	-1111	-2120	-240	-10128	4952	14584	-484	-190	-223	-17728	-504	-7376	392	1306	-270	-21352	2752	-11304	-244	855	788	99	109	1
-27652	-13436	25828	-3154	6940	4787	-19248	-15032	2528	-4645	-13	864	-27384	8576	-15472	-825	-1806	-433	-8688	4272	14888	-287	-111	-122	-21576	3120	-3528	553	892	-147	-19904	3664	-5424	-266	1108	575	103	101	1
-27888	-32768	30300	-3050	3510	4386	-12352	-15688	-14024	-4842	-41	958	-24672	3488	-7576	-1427	-2044	-1144	-7632	4144	14744	-171	-27	-77	-17536	5696	-1312	-18	920	-189	-17448	-1080	-2040	-897	1136	662	101	39	1
-32768	-24968	23736	1444	221	2701	-2568	-9152	1608	-2091	-37	-257	-26880	3792	-2616	-991	-2070	-1463	-7976	2768	15360	-90	69	-89	-16176	2096	-2152	-320	903	-154	-16912	-3880	-2384	-870	1167	671	120	123	1
10800	-23448	18052	-756	-2023	-1565	-1848	-7880	10144	69	-118	-1100	-26000	2000	-9400	-187	-1818	-1748	-7872	3336	15000	29	241	-67	-18520	1792	-3464	-129	668	-116	-16488	-4024	-2400	-394	1257	535	117	117	1
17148	-14772	6872	-1265	-1147	-2582	280	-9640	10256	732	-429	-1739	-21496	5832	-8736	-218	-1712	-1748	-7696	3600	15072	47	256	-58	-16768	2944	-3784	310	386	-60	-16360	48	-3024	218	1422	592	118	115	1
16332	-14040	7692	-1275	-1054	-2648	-4744	-7168	6704	1664	-676	-2201	-14680	6752	-7728	-870	-1680	-1594	-8216	4312	14224	59	251	-76	-15712	4568	-4128	452	209	-16	-16040	2760	-3800	309	1441	557	124	116	1
-1604	-8112	19480	-1160	-1820	-3127	-7912	-4184	3416	2037	-1403	-2540	-10912	4320	-6696	-1303	-1407	-1703	-8248	4064	14032	40	196	-81	-15784	3808	-3096	271	131	-16	-15520	1560	-3632	-56	1419	532	129	125	1
-4840	-2808	20812	-1237	-3101	-3120	-10208	-2696	3376	2097	-2245	-2757	-8856	1720	-7640	-1346	-1237	-1627	-8112	3600	14352	51	159	-55	-15568	2760	-1960	126	137	-10	-15216	-1416	-2184	-84	1453	448	127	142	1
-5964	1672	20508	-1639	-4048	-3142	-13016	-1568	3712	2287	-2976	-2845	-10568	2872	-8544	-998	-1165	-1539	-8248	3976	14232	49	113	-33	-14664	4336	-1680	160	166	-45	-14576	-1728	-776	190	1674	435	137	160	1
-7648	1040	19872	-1697	-4564	-3087	-14968	-3776	3792	2402	-3490	-2763	-8560	3808	-9352	-755	-1003	-1318	-8216	4120	14136	14	57	-38	-14760	4472	-1624	84	273	-76	-13928	-1288	456	373	1969	428	133	203	1
-8732	336	20208	-1279	-4708	-2815	-18480	-5264	3144	2663	-3902	-2609	-6808	3584	-8696	-322	-906	-1087	-7824	4064	14112	-26	13	-53	-14968	4024	-1344	123	338	-122	-13056	-1888	672	291	2189	485	122	215	1
-10496	2308	20072	-1173	-4355	-2500	-23328	-6376	1792	2797	-4531	-2434	-6896	2400	-9160	379	-515	-664	-7992	3872	14336	-52	-8	-68	-15024	3992	-904	188	411	-143	-15240	-3880	3352	-106	2076	688	124	192	1
-11704	2340	20656	-1191	-4243	-2437	-25472	-8872	-2672	2743	-4790	-2382	-6680	5648	-8184	719	154	-483	-8312	3704	13984	-61	-21	-73	-14736	4120	-1656	108	518	-185	-16864	-1784	424	-385	1429	944	131	176	1
-28440	-6076	31060	-1594	-4513	-2380	-26272	-9080	-3488	2753	-4801	-2376	-6664	3320	-3920	1178	365	-587	-8336	4144	14392	-80	-48	-71	-14400	4272	-2056	143	609	-270	-20744	368	-2072	-93	1049	663	131	253	1
-32768	-7840	27088	-1711	-4732	-2820	-32768	-15400	-6304	3050	-4934	-2568	-6144	2640	-2896	1332	363	-594	-7864	3832	14344	-81	-41	-97	-16312	4496	-1480	218	694	-331	-17808	-408	1208	-190	1049	494	123	133	1
-32768	-1700	23736	-1714	-4398	-3546	-32768	-8808	-11344	2903	-4780	-2267	-14944	5680	4664	2086	247	-888	-7528	4264	14688	-82	20	-133	-15416	5160	-608	319	809	-423	-16168	-2696	4552	31	1335	574	125	100	1
-32768	8124	12816	-437	-4478	-2906	-29072	-15376	-15136	2698	-3907	-2156	-23600	-1984	10632	260	-27	-1435	-7632	3912	14736	-74	98	-192	-15200	4856	-648	322	839	-442	-17424	-4736	5088	226	1123	689	123	114	1
