#Activity	walking 
#ActivityID	1 
#Date 08-22-18-24
acc_rf_x	acc_rf_y	acc_rf_z	gyro_rf_x	gyro_rf_y	gyro_rf_z	acc_rs_x	acc_rs_y	acc_rs_z	gyro_rs_x	gyro_rs_y	gyro_rs_z	acc_rt_x	acc_rt_y	acc_rt_z	gyro_rt_x	gyro_rt_y	gyro_rt_z	acc_lf_x	acc_lf_y	acc_lf_z	gyro_lf_x	gyro_lf_y	gyro_lf_z	acc_ls_x	acc_ls_y	acc_ls_z	gyro_ls_x	gyro_ls_y	gyro_ls_z	acc_lt_x	acc_lt_y	acc_lt_z	gyro_lt_x	gyro_lt_y	gyro_lt_z	EMG_r	EMG_l	act
-32768	4836	-8704	950	-111	1984	-8536	-5480	-16720	-2429	1536	-261	-12992	-10184	4400	-2078	904	-413	-4424	10504	15568	371	1550	-885	-20128	1072	-4560	128	2123	-243	-18824	6992	784	868	840	-283	120	122	1
-31300	924	-1168	1548	602	1892	-12968	-7792	-16896	-964	2637	96	-13704	-7896	5976	-1768	63	-430	-4288	10680	15584	552	2012	-1146	-18920	984	-4592	190	2413	-327	-17576	6552	2624	231	351	-372	128	126	1
4540	-32768	25792	3743	2654	2862	-22648	-28664	32767	-4539	2066	285	608	-2104	-13048	-953	937	134	-4152	10336	16632	880	2515	-1478	-20192	1624	-6456	240	2647	-378	-17568	9384	4648	454	-172	-239	129	131	1
-24956	17628	2392	1144	6148	1818	-32768	-2032	304	6804	3137	-1374	-31192	-18600	12664	37	1316	-61	-3064	13384	16528	1410	3240	-1944	-27392	928	-5632	206	2843	-720	-24328	13192	9552	881	-653	289	139	131	1
-31248	13988	32767	822	3191	2476	-13688	15904	-15368	7398	2908	1578	-27256	-3160	17720	3732	1318	-85	-4544	16616	16232	1805	3899	-2877	-29480	-6992	2864	1547	2945	-581	-23304	3280	13176	-84	-1487	33	128	136	1
-32768	-32768	-5148	1106	804	480	-23656	-4768	-5504	-228	3015	89	-24536	12752	-8528	2783	1878	1060	-4936	18352	19880	1398	4820	-3852	-29792	-5968	3280	2810	3270	-347	-21696	-6616	16200	-1339	-1548	-591	121	125	1
-2808	-2848	8168	528	185	438	-18008	-5984	-8808	391	2087	-1478	-11648	4344	-15432	794	1727	273	-16264	25024	22112	773	5542	-4709	-32768	6472	-992	2397	3633	-580	-24720	-4168	11752	265	-1608	-630	119	122	1
-10064	-2980	14740	438	-2	157	-13568	-6408	-11872	1042	1702	-347	-2576	3920	-7760	-903	1774	657	-10232	28352	19920	-2	5721	-5070	-28064	10104	1960	1537	3505	-865	-24304	5632	-5160	2790	-1638	-282	120	126	1
-8420	-4644	14200	321	-59	90	-11280	840	-9008	890	1254	-205	-17184	-1664	-11520	-1235	1584	326	-15328	24040	23816	379	5102	-4604	-22856	5072	-9808	-610	3516	-814	-25360	9080	-10432	2657	-1763	604	124	122	1
-8344	-7064	12660	143	15	27	-20840	1192	-5704	-609	1030	-295	-20792	-128	-5080	-732	1409	-449	-30232	32767	32767	131	2660	-3641	-16760	-936	-23648	-2401	2847	-1029	-27960	5616	-6848	292	-2652	1118	113	123	1
-8008	-6724	12316	-13	88	6	-20000	-576	-4096	-2134	638	-425	-18000	760	-1864	-486	1633	-200	8152	21344	21112	-1643	-1205	-1307	-20712	-3224	-3896	-636	1603	-669	-31216	1400	-5448	-1594	-3306	741	81	124	1
-8032	-6888	12360	-115	139	16	-15408	-8480	-1688	-1927	443	-609	-16728	-1960	-1808	-1087	1510	532	7840	6232	10616	-980	-1478	-1494	-14424	-5544	-4336	695	72	-48	-25128	152	-6176	-1708	-3029	1027	150	123	1
-8340	-7484	11648	-120	117	37	-12928	-10224	-2368	-404	577	-474	-15288	-7144	-4248	-1084	1425	1000	7384	12864	9368	-518	-1902	-606	-6112	-2944	-7240	1410	-727	83	-21896	-1320	-6536	-600	-3034	1477	150	125	1
-8152	-7516	11684	-80	92	62	-14512	-7536	-1480	962	771	-1	-13296	-7632	-1552	-182	1258	866	8000	9880	7896	-905	-2037	662	-3592	-4320	-5256	2109	-1290	59	-18552	-928	-6592	748	-2680	1398	140	125	1
-8392	-7860	11228	24	54	98	-14800	-6528	-1376	1058	780	53	-14384	-5376	-1080	464	1251	663	5920	6632	7584	-491	-2088	1643	-6776	-456	-4816	2047	-2137	140	-17576	360	-7376	1178	-2416	1312	123	126	1
-8164	-6872	12020	78	44	94	-16912	-520	-2184	-182	663	-247	-16472	-992	-16	667	1352	705	3696	8816	8480	-158	-2241	2347	-6696	1352	-5632	1107	-3015	310	-16128	1096	-7904	803	-2337	1158	121	125	1
-8396	-6776	12064	6	96	69	-15224	-3688	-1256	-753	636	-249	-15520	456	576	718	1612	811	1200	9384	10448	-171	-2622	2788	-5568	1336	-5472	200	-3859	573	-14104	1264	-8544	65	-2062	747	119	125	1
-8364	-7400	11684	14	89	92	-14968	-6640	-1592	-613	715	-216	-14512	-2376	992	381	2031	705	-1576	10192	12832	16	-3292	3078	-6232	1640	-7328	-546	-4334	738	-12784	1104	-9016	-389	-1862	467	120	126	1
-8540	-7204	11616	52	61	115	-14704	-5688	1888	-156	775	-170	-14912	-3608	856	-112	2402	465	-4224	12456	14176	240	-4187	3311	-8000	504	-7864	-883	-4843	712	-10336	1344	-9256	-768	-1531	388	119	127	1
-8592	-6932	11704	82	46	136	-14728	-3808	-1984	-66	854	-162	-15544	-1824	-1416	-355	2184	256	-6024	13784	15344	327	-4894	3362	-10232	-104	-9432	-909	-5491	859	-7360	536	-9112	-1204	-1163	412	119	127	1
-8488	-6844	11916	103	28	143	-14440	-3504	-2184	-276	922	-174	-17016	-864	-3096	-500	1586	138	-9216	14160	16912	714	-5371	3283	-12704	-616	-9432	-801	-6134	957	-6840	-152	-8296	-1757	-702	291	120	127	1
-8340	-7000	12212	84	41	166	-15160	-4584	-3120	-397	977	-179	-17272	-3784	-2992	-547	1284	198	-12168	17304	17288	1118	-5581	3093	-14232	-3824	-8304	-311	-6379	1004	-6064	-904	-10320	-2477	-665	82	119	126	1
-8396	-6856	12288	35	65	197	-16408	-4528	-4168	-423	1006	-177	-15552	-4784	-4008	-512	1422	264	-13552	22936	19432	1150	-5230	3246	-16936	-2976	-10952	466	-6361	1118	-6040	-5568	-10736	-2872	-581	-192	121	126	1
-8388	-6700	12272	-86	126	271	-15968	-4360	-4632	-460	984	-160	-14224	-1024	-4816	-365	1502	284	-17672	30720	24688	931	-4593	3959	-26936	-80	-16656	862	-6592	1432	-6816	-6872	-6872	-2267	-359	-409	122	126	1
-8616	-7008	12368	3	353	340	-15040	-3472	-3864	-458	1009	-179	-15320	648	-3352	-131	1334	349	-28952	32767	24752	658	-4157	4915	-30552	640	-16720	857	-6782	1687	-9984	-2232	1960	-1138	-390	-303	122	126	1
-8604	-6108	12996	-137	506	342	-15192	-3992	-2104	-669	1127	-111	-17112	-3032	-280	-254	1204	335	-32768	21432	21088	2411	-3466	5042	-26696	4888	-15888	739	-5919	1466	-16512	5192	13752	-537	-958	789	99	127	1
-8184	-7300	12948	-92	734	378	-16216	-4760	-1176	-578	1337	-105	-17432	-6248	1032	-404	1148	268	-32768	18744	12232	1843	-2787	3907	-20080	9672	-15184	-573	-4517	1411	-24400	5672	20032	1178	-628	1571	120	126	1
-8740	-6768	13064	-115	1023	438	-17096	-5208	-2752	-326	1623	-13	-16856	-5744	344	-188	1197	221	-32768	-8640	7056	1936	-1588	2319	-18056	2904	-26576	-3018	-2930	975	-16744	13256	32767	3746	86	755	120	125	1
-8824	-6168	13504	-144	1350	492	-16808	-4328	-3496	-232	1842	63	-15104	-3824	-416	-129	1234	214	-32768	-528	-2328	1969	-1440	513	-5800	-6896	-21256	591	-734	507	-15864	21808	24624	2266	132	902	117	125	1
-9028	-6652	13384	-234	1763	543	-16960	-3840	-3792	-105	2048	187	-16688	-3200	-600	-155	1157	344	-32768	-208	-2944	-364	-103	-1402	-2520	2064	-15960	2916	1776	697	-16424	12592	8264	954	253	793	110	125	1
-9368	-7084	13124	-344	2170	696	-17040	-4448	-3248	-124	2263	245	-17712	-3696	752	-330	818	440	-29744	8216	3984	-1236	1046	-1845	-12848	4448	-18048	1936	3157	177	-9072	8480	2184	438	377	372	117	124	1
-9056	-7688	12656	-473	2567	982	-17216	-3488	-3032	-316	2484	253	-17312	-3040	2536	-482	280	320	32767	32767	4272	-5423	5523	-1714	-18440	9976	-8704	544	3386	-40	-1840	10384	48	-214	-543	-83	125	125	1
-9204	-7584	12904	-719	3047	1308	-18352	-896	-2968	-869	2668	247	-17832	-4000	5488	-709	-470	161	6112	-32768	30280	-1311	5641	-1629	-32768	-6168	31576	-2287	548	-1012	-17808	25264	-10640	33	1788	-251	140	127	1
-10180	-8812	15120	-880	3944	1696	-24688	-4344	-1440	-1709	2768	451	-21000	-9432	10920	-1232	-1289	-373	-30528	-3848	32767	-640	4424	-2679	-11920	-5936	-12120	-7968	1244	-504	-30352	9424	21320	-4221	1555	1236	137	126	1
-11808	-13536	14404	-898	5038	2662	-31216	1520	7104	-2589	3005	384	-24032	-1248	13072	-947	-2068	-73	-15920	30560	9888	-354	2999	-2726	-28024	-9320	-12472	-4980	3562	-1725	-21880	-25064	-8504	-5772	1958	-1461	121	123	1
-15944	-18988	18880	-473	6009	3886	-30024	-672	4048	-3267	3263	265	-23848	9736	14352	-83	-2070	559	-6544	-23464	32767	-1528	-65	-617	-20880	2472	-14136	-4703	2371	599	-19328	-8096	-13416	-2035	193	140	119	123	1
312	-8424	11732	256	-3500	-1205	-3584	5264	-5808	-175	-2374	-283	-16448	1704	-8184	-951	-2437	-1025	-4528	10608	12200	73	36	-121	-17104	-432	-4176	-2958	421	-343	-14200	7136	-1320	-69	1427	-704	128	133	1
-1440	-5584	12052	-284	-3729	-1879	-7952	1648	-6680	-664	-3173	-167	-13752	-480	-8032	-563	-2234	-1138	-4416	9776	12688	17	43	-112	-17984	-7120	-4480	-507	342	225	-16776	2696	1312	-388	1532	-344	138	133	1
-2164	-5940	12192	-365	-3776	-1975	-8056	864	-6168	-476	-3929	-278	-12048	-216	-8704	234	-1952	-1041	-4288	9712	12952	54	68	-105	-15096	-2456	-2936	2004	517	459	-15040	-104	1608	-121	1511	-512	137	134	1
-6868	-6792	12544	-461	-4557	-2620	-6616	1208	-6840	-289	-4499	-348	-11280	328	-9464	910	-1748	-740	-4464	10304	12264	22	58	-109	-15096	5432	-1736	2451	659	435	-14088	2320	1888	269	1698	-567	101	134	1
-9036	-8052	13352	-656	-4884	-2810	-7384	-336	-6952	60	-4959	-436	-9320	1760	-9480	1233	-1598	-545	-4384	10032	12568	-58	45	-114	-15032	7856	-920	1268	622	226	-14264	6608	3328	579	1992	-598	117	133	1
-11588	-9552	13960	-808	-5184	-2954	-10504	-2104	-8400	683	-5436	-539	-7560	2840	-9872	1297	-1385	-439	-4592	10192	12464	-122	45	-120	-15440	6960	-1552	-255	702	26	-15472	8600	3008	804	2185	-485	118	134	1
-14204	-11364	13776	-1092	-5274	-3029	-12848	-1928	-8192	1317	-5869	-608	-6408	3664	-10096	1470	-1136	-282	-4560	9976	12816	-144	56	-152	-15584	3176	-2280	-1039	887	-47	-16256	7360	-1568	643	1876	-340	122	135	1
-17560	-15284	15016	-1006	-5036	-3104	-15096	-1240	-9632	2022	-6165	-663	-5928	4552	-10464	1513	-893	-28	-4448	9992	12952	-127	74	-169	-16128	544	-3560	-574	1084	29	-17312	6584	-1520	49	1418	-119	124	137	1
-24368	-20428	18344	-1092	-4675	-3661	-19576	-688	-13848	2170	-6361	-652	-6696	7208	-9168	2003	-829	244	-4848	9744	13176	-103	96	-212	-16040	720	-4144	151	1130	81	-15360	4864	-768	-123	1381	-101	122	135	1
-31640	-24664	19420	-657	-4250	-4689	-26800	-3064	-17096	2011	-6688	-535	-6104	7136	-5256	2069	-896	626	-4168	9992	13128	-68	137	-271	-15784	664	-4416	221	1133	92	-14528	3040	-1280	31	1334	-191	121	136	1
-32768	-8136	17348	-1882	-3089	-5419	-25472	-3544	-18304	1560	-6452	-432	-9576	320	376	2184	-1195	432	-4768	9480	13072	-70	245	-375	-15888	2520	-3624	572	1262	166	-15224	2352	720	235	1222	-303	122	133	1
-32768	-6840	11068	-3088	-1974	-4933	-27144	-5872	-18520	-404	-5631	-447	-18648	-7288	9560	1562	-1250	-834	-5152	8592	14096	46	334	-421	-15864	3904	-3304	408	1437	94	-14624	4568	2568	603	1193	-237	121	133	1
-32768	-2680	2916	-1665	-1758	-3934	-15856	-7312	-23352	48	-4221	-1042	-23232	-6072	23704	-680	-789	-1400	-4520	9624	14368	157	619	-502	-17600	2272	-3944	124	1653	-26	-16192	5504	1632	1040	1273	-26	123	136	1
-32768	19288	-8564	-1475	-1741	-2069	-12336	-5504	-19544	-1393	-2711	-839	-18576	-5608	25136	-2260	705	-439	-3320	11384	15536	183	920	-673	-18752	1848	-4088	98	1829	-90	-17568	6896	496	1104	1287	-88	72	135	1
-32768	22464	-18000	-1754	-1441	254	-4608	-4888	-17592	-2691	-293	-1065	-17912	-10656	15184	-2090	205	-536	-4280	9584	15664	372	1439	-788	-19808	488	-4472	207	2034	-170	-18192	7536	800	759	1130	-243	117	129	1
-32768	4640	-12792	773	-81	1684	-5552	-8176	-16160	-746	1814	-374	-14840	-12168	7120	-1758	749	-566	-4336	9616	15872	563	1915	-991	-18704	2080	-3248	182	2325	-281	-17424	7176	3728	330	695	-377	121	139	1
-32672	-672	-3056	2175	1321	1012	-12400	-5088	-17760	1724	3215	168	-16264	-11184	11560	-513	-373	-1082	-4344	10480	15440	839	2414	-1270	-18496	2272	-3176	-40	2684	-390	-16816	7552	6976	389	144	-308	123	131	1
12768	-32768	13080	6132	3253	1359	-23648	-19832	32767	-2110	2171	293	352	-3432	-17424	-419	1770	85	-3920	10056	17400	1399	2937	-1755	-21944	1096	-4392	-11	3022	-447	-17064	7656	7776	489	-32	-243	125	127	1
-31648	20532	21384	1071	6994	1278	-32768	11048	-6792	8248	3414	-946	-32160	-22016	16360	1935	701	-124	-2208	16840	15864	1964	3839	-2573	-32768	-4912	-136	936	3376	-623	-25352	8664	16600	859	-1179	209	124	138	1
-31464	9960	32767	773	2878	2914	-15856	16096	-16224	7134	3534	1991	-27512	9952	11416	5613	1361	139	-1072	21392	19280	1827	4665	-3871	-32768	-9280	5200	2899	3457	-166	-24336	-6752	17936	-804	-1403	-406	129	126	1
-32768	-32768	-5876	1596	928	575	-19840	-8408	-9432	-1064	3336	-254	-23744	20584	-11112	3851	1593	923	-8632	22848	21104	1381	5767	-4977	-32768	2664	1272	3735	3737	-98	-25608	-6904	13776	841	-1342	-793	142	131	1
-11096	-12728	6448	653	153	514	-15472	-9056	-12960	1901	2183	-1858	-11920	8160	-14248	-299	1281	73	-6088	30008	18632	562	5816	-5596	-31184	12784	4952	3563	4030	-502	-26880	-536	-8312	3186	-1330	-246	122	127	1
-10312	-4520	13412	429	-6	240	-15304	360	-13912	1321	1777	-616	-4256	6472	-10392	-2624	1666	166	-11416	23584	22472	1129	5113	-5211	-22296	6304	-14320	-92	3837	-540	-27376	10552	-11608	3238	-2087	723	119	129	1
-8376	-5140	13116	233	37	180	-14400	4144	-8528	-1804	1187	-351	-19416	-5784	-11832	-3267	1449	-271	-31424	32767	32767	1132	2502	-4175	-18208	-2032	-21592	-1607	3058	-762	-29640	9904	-7984	416	-3201	1343	119	124	1
-8704	-5952	12708	115	57	124	-19584	-5032	-6480	-3046	858	-582	-19840	-7720	-4352	-1751	1496	-924	10640	21800	20160	-1780	-1497	-1814	-22304	-456	-3272	320	1596	-370	-32432	2576	-7024	-1696	-3644	868	119	131	1
-8500	-7560	12064	-18	142	104	-17568	-9528	-2728	-1948	735	-521	-19056	-4280	-4880	-713	1543	265	7792	6432	11128	-786	-1633	-1860	-13544	-5288	-6344	499	-34	217	-24808	-1824	-7032	-1722	-2803	1104	117	122	1
-8668	-7032	12112	-54	148	115	-14824	-11152	-5048	-83	869	-451	-16928	-4720	-4400	-379	1431	1006	9216	15904	8360	-436	-2008	-553	-5528	-4088	-6672	1274	-776	300	-23688	-1928	-6896	-595	-2844	1413	120	123	1
-8716	-7660	11744	-62	117	119	-14160	-6160	-3616	1508	886	30	-16080	-4704	-3760	-272	1412	1100	8632	8856	7800	-700	-1950	920	-5376	-4768	-4392	1944	-1346	323	-20128	-2176	-7320	502	-2896	1318	120	123	1
-8696	-6984	11916	-6	75	120	-15768	-144	-4248	1021	812	-1	-14688	-3480	-2536	634	1394	758	6184	7448	8496	122	-1925	2081	-7152	-256	-4904	1474	-2364	495	-18072	-560	-7248	851	-2578	1372	120	122	1
-8396	-6572	12248	-12	98	81	-17920	432	-3560	-5	628	-214	-17656	976	-1080	540	1293	629	3456	9696	10240	211	-2156	2862	-5624	472	-5192	408	-3225	637	-16312	-416	-8176	723	-2501	1248	121	125	1
-8416	-6604	12288	-62	134	62	-15808	-2232	-2744	-798	528	-369	-17024	3640	440	-32	1434	658	3112	9592	10864	177	-2228	2957	-4480	-440	-5752	-323	-4027	910	-15520	24	-8384	571	-2435	1172	122	127	1
-8568	-6924	11940	-95	152	69	-15336	-4576	-2136	-994	608	-309	-13768	1688	440	-708	1657	564	-1136	7984	14520	467	-3564	3469	-5784	-40	-7056	-790	-4558	1038	-12232	912	-9416	-304	-2018	447	120	127	1
-8604	-7008	11628	-82	135	78	-13888	-5600	-2600	-668	672	-233	-14352	-2272	-136	-944	1790	519	-3744	10616	15784	659	-4480	3490	-8624	-1064	-7608	-795	-5163	1042	-9824	88	-9888	-538	-1638	345	121	127	1
-8668	-6916	11704	-58	107	100	-13552	-4760	-2592	-326	772	-248	-15200	-3712	-264	-750	1909	325	-6856	13048	17400	627	-5256	3457	-10288	-1952	-8944	-557	-5812	1232	-8192	-800	-9568	-798	-1316	358	122	126	1
-8244	-7148	11696	-28	140	154	-14760	-4120	-2976	-215	870	-233	-15040	-4224	-1768	-670	1845	120	-9256	12088	17648	1030	-5671	3360	-11968	-1840	-7416	-329	-6335	1273	-6368	-1264	-10992	-1115	-544	139	117	127	1
-8792	-6684	12040	44	226	233	-15568	-3960	-4216	-360	899	-213	-16224	-5776	-5016	-770	1518	195	-9808	11856	17048	1144	-5684	3322	-14592	-5032	-9552	-80	-6456	1242	-5144	-2840	-12072	-1835	-342	18	120	127	1
-8932	-6768	11840	10	269	267	-15368	-4016	-5192	-493	904	-189	-16848	-5544	-6664	-683	1214	434	-16824	25056	24360	1311	-4535	3150	-19344	-5408	-13632	823	-6488	1164	-4360	-4904	-11088	-2575	-431	-154	121	127	1
-8904	-6836	11856	-20	322	307	-15296	-3448	-6856	-441	856	-195	-14760	-440	-4768	-166	1272	541	-24584	32767	28936	1022	-4768	4249	-32520	72	-21352	1154	-6649	1936	-4992	-3672	-5984	-2741	-687	-127	124	127	1
-9044	-5832	11976	-86	389	294	-15104	-3072	-5544	-586	797	-186	-13544	1496	-3120	-91	1309	687	-31344	22448	25152	1507	-4392	5349	-27536	1072	-17552	690	-6789	1757	-9480	608	616	-2294	-1029	106	124	127	1
-9032	-6328	11928	-100	492	257	-14944	-4088	-4176	-657	833	-129	-15096	-1024	-1096	-443	1471	633	-32768	23824	20696	1553	-3278	5200	-24344	5480	-17832	-432	-5640	1331	-22576	6400	15368	-1446	-1086	1093	139	126	1
-9060	-6416	12040	-106	508	264	-15664	-4952	-2320	-625	1001	-114	-16736	-4624	808	-579	1445	455	-32768	12696	11016	383	-2275	4389	-20752	6640	-18216	-2736	-4232	848	-21784	9080	24064	598	-378	1264	119	126	1
-9188	-7364	12384	-98	841	404	-16664	-5008	-2200	-537	1255	-55	-17152	-6616	1136	-549	1388	306	-32768	-7128	2728	1335	-1504	2444	-17856	-1528	-21952	-2695	-2855	126	-15808	9384	32767	334	284	527	119	126	1
-9260	-6380	12752	-88	1118	465	-16528	-4616	-2304	-462	1525	40	-16104	-7040	496	-369	1309	286	-32768	-6368	-4752	1147	-999	112	-1216	-2416	-18328	282	-277	734	-20616	5248	22632	-203	50	829	114	126	1
-9152	-6460	12788	-112	1479	512	-16392	-5152	-2912	-160	1788	189	-15920	-7048	296	-335	1305	308	-32768	3920	2224	-865	906	-1189	-3888	-584	-18336	1212	2151	334	-16304	7424	10416	852	204	-26	120	125	1
-9368	-7320	12736	-166	1855	688	-16328	-5448	-3096	-108	1833	205	-17920	-5696	88	151	959	603	-27648	7016	6384	-1527	1589	-1123	-15904	2520	-16792	1228	3197	-181	-9536	4000	592	1211	443	334	129	125	1
-9832	-7784	12504	-200	2226	969	-17584	-3720	-2752	53	2303	279	-18072	-5512	8	171	911	611	32767	32767	6008	-4660	5257	-1415	-18888	11440	-9416	665	3248	-157	2672	2216	-3784	1388	-60	200	153	124	1
-9480	-7808	13136	-327	2659	1279	-18616	-1984	-3656	-454	2512	289	-17368	-3968	2856	-69	128	360	-5472	-32768	24840	-426	5325	-1887	-32768	-14120	10824	-3448	598	-217	-19952	20944	-12496	2345	2184	-176	145	126	1
-9440	-7896	14492	-371	3441	1578	-22968	-4304	-2792	-949	2647	502	-21128	-7712	6640	-497	-231	-10	-23968	-3192	32767	-474	3901	-2560	-9696	-13544	-5192	-7481	1162	-459	-32032	8104	25296	-3223	922	1830	132	126	1
-9296	-10216	14980	-1135	4540	2359	-29672	-568	1552	-1410	2816	548	-25224	-7184	12776	-583	-1931	-171	-17528	29024	13568	-18	2880	-2436	-30976	-12144	-10768	-3624	3319	-1406	-23560	-17256	-4784	-3823	1954	-1150	116	125	1
-15168	-17560	14884	-699	5624	3443	-30720	5472	6888	-3652	2836	245	-21896	7208	16304	87	-1889	572	-29568	10680	28680	-1547	247	-781	-18192	9680	-24456	-2370	2392	772	-21328	-6368	-1600	-1693	212	289	129	121	1
-27136	-13684	20568	-107	5909	4176	-25640	-10144	-2472	-3996	3168	400	-22000	4224	4976	-685	-1617	538	-6920	13144	11136	-621	0	-408	-15296	2136	-12792	-2711	1786	638	-8016	3304	-11368	1844	1611	-408	119	124	1
-25812	-19396	25452	462	5520	4399	-26640	-13288	-1664	-2772	3072	747	-25448	-6176	-9176	-2091	-1238	-434	-5744	11280	13816	-352	-12	-167	-19688	-4640	-12976	-1473	1228	6	-16984	2112	-11776	1597	2069	526	122	129	1
-18088	-19432	19876	-449	5496	4247	-23680	-7472	-8040	-87	3211	929	-28520	-4400	-9576	-1289	-2002	-1108	-4744	10608	13176	-220	-16	-102	-16176	-6536	-8528	2313	1121	533	-20392	4304	-7320	1616	1844	377	129	130	1
-22236	-31964	22356	-1024	3385	3307	-18048	-568	-22360	1879	2792	912	-29952	-40	-9160	33	-2670	-1158	-4536	9600	13480	-109	7	-68	-17952	-464	-7288	4263	979	798	-15736	4488	-2632	930	1480	356	127	129	1
-8964	-32224	26940	1361	-1240	559	-18800	-1960	-5208	121	1254	530	-29248	2056	-7000	1052	-2916	-1194	-4160	9680	13320	42	39	-61	-18864	6840	-2888	3444	651	998	-15888	5032	-1224	628	1474	-310	118	130	1
5680	-6900	13692	776	-1814	576	-15544	96	-3120	-261	-97	73	-27024	2920	-8760	995	-2941	-1441	-4176	10040	13056	133	70	-68	-15184	11088	-1688	791	492	596	-16256	5416	-1984	584	1330	-984	128	130	1
568	-10968	11564	-272	-2159	143	-10112	-2136	-8304	359	-866	46	-22152	3280	-7360	173	-2722	-1481	-4288	10272	12688	145	61	-90	-14768	9600	-2296	-1625	735	-90	-14456	6592	-200	427	1286	-831	135	133	1
-468	-13188	10492	220	-2823	-663	-4312	1856	-7056	426	-1685	-161	-21592	3200	-7536	46	-2678	-1459	-4120	11392	11616	0	2	-136	-16520	2968	-2040	-2408	571	-347	-13848	7272	-128	131	1410	-568	127	132	1
-260	-8116	10808	148	-3156	-1510	-5776	3536	-6496	-78	-2452	-176	-17016	2192	-7744	-599	-2417	-1306	-4288	10056	12624	-77	4	-150	-17976	-4624	-2960	-1196	464	63	-14920	4712	1896	-200	1428	-399	218	133	1
-2388	-7880	11368	-369	-3415	-2217	-8632	1040	-7984	-182	-3281	-148	-15072	1576	-7800	-141	-2154	-1338	-4456	9864	12680	-20	52	-137	-16128	-2016	-2808	868	603	311	-14536	1552	2664	-427	1459	-441	148	134	1
-5556	-7692	12136	-571	-3895	-2683	-7816	1328	-7392	-234	-4023	-303	-13704	2064	-8864	339	-1948	-1148	-4440	10360	12480	-22	64	-138	-15544	4272	-1528	1644	782	354	-14808	3080	2744	-149	1592	-434	106	134	1
-7248	-7220	12676	-831	-4398	-2927	-6864	712	-7072	-133	-4603	-442	-12328	2664	-8872	685	-1732	-901	-4528	10000	12712	-83	52	-139	-15504	6416	-1360	958	785	169	-14760	6456	3808	322	1925	-366	99	134	1
-7564	-7360	12828	-886	-4463	-2944	-8384	-272	-7848	247	-5146	-699	-10328	3392	-8912	886	-1560	-744	-4560	10192	12744	-124	40	-149	-15744	6544	-1464	845	722	160	-15424	7024	2136	703	2022	-344	115	135	1
-12204	-8580	14036	-1382	-4972	-3064	-11128	-1216	-8400	581	-5687	-851	-7832	3664	-9976	1127	-1347	-576	-4504	9928	12952	-132	46	-147	-15640	3256	-2024	-673	1005	-15	-16760	6160	-1176	521	1726	-286	116	134	1
-14944	-10716	13992	-1665	-4893	-3059	-13016	-600	-9128	1162	-6094	-963	-5632	4352	-10408	1437	-1098	-337	-4544	10024	12792	-114	63	-159	-16272	1656	-4248	-601	1144	1	-16632	5808	-2016	176	1306	-221	124	135	1
-15468	-11424	14104	-1653	-4835	-3053	-15096	416	-10568	1671	-6236	-998	-4096	5752	-9624	1548	-895	-15	-4472	10136	13064	-81	92	-191	-16568	1040	-5160	-149	1149	25	-15256	3944	-1696	140	1484	-196	124	136	1
-26808	-21260	21444	-1333	-4451	-4134	-21320	128	-15648	2005	-6380	-953	-4576	8032	-7864	1681	-829	272	-4448	9936	13032	-79	92	-202	-15992	896	-5456	288	1123	123	-14848	1400	-2440	192	1505	-141	124	135	1
-31388	-16612	22592	-1111	-3884	-5333	-28272	-1656	-16264	1763	-6793	-678	-5152	5120	-4528	1545	-737	546	-4400	9840	13376	-36	283	-364	-15904	1664	-3984	504	1180	174	-15896	1696	-1520	253	1326	-279	121	135	1
-32768	-6764	19984	-1836	-2981	-5615	-26400	-3552	-19488	836	-6420	-423	-9008	-4032	3720	1587	-628	-92	-3832	10232	14000	150	329	-412	-15528	2448	-3304	493	1301	150	-15616	4360	1160	468	1132	-295	121	132	1
-32768	-4740	10196	-1583	-2517	-4599	-23984	-5248	-14576	-196	-5340	-651	-23008	-10368	16600	852	-1235	-1468	-4248	9392	13904	167	578	-431	-16288	3640	-2728	324	1522	59	-14808	5920	2752	896	1167	-172	122	130	1
-32768	11264	-2748	-586	-2183	-2858	-15696	-7568	-20880	717	-3600	-757	-24528	-7112	28904	-955	-149	-909	-4376	10136	14368	151	829	-594	-17720	2992	-3576	94	1728	21	-15944	4904	1960	983	1206	8	113	140	1
-32768	31388	-10804	-2071	-1655	-967	-9728	-392	-19888	-947	-1668	-672	-21120	-10536	26368	-1573	-91	-194	-5008	9560	14968	251	1120	-664	-17760	1784	-4424	156	1933	-93	-15960	7184	1232	957	1136	-54	106	134	1
-32768	15016	-16992	-983	-811	941	-3280	-3960	-14736	-2170	734	-385	-18240	-8928	11272	-1847	365	-15	-5064	10256	15008	401	1531	-794	-18144	2736	-3984	59	2165	-227	-17072	8872	1528	921	953	-133	119	133	1
-32768	2564	-8672	2154	382	2185	-9352	-7376	-17576	-896	2292	7	-13552	-10504	3256	-1214	692	-339	-4384	11384	15352	546	1959	-1081	-18168	3008	-4096	33	2209	-234	-17888	8168	3632	669	477	-232	127	133	1
-31448	-916	1012	1871	1164	1258	-13128	-6104	-17744	835	3279	270	-12768	-10208	2536	-1104	602	-425	-4120	10896	15712	813	2442	-1482	-20512	488	-3376	22	2743	-345	-18064	8360	8480	385	-408	-142	126	124	1
32767	1368	15240	2997	3715	3014	-32768	-4224	32767	-1589	433	-66	-10992	-12160	-9280	-785	1436	565	-2976	11176	18696	1431	3146	-1962	-26432	1320	-2856	592	3123	-492	-19944	13512	10256	1062	-1048	154	126	140	1
-32768	-764	32767	1495	4849	2240	-20720	-9840	-21816	5227	2888	-524	-32768	-14120	26560	4155	-211	-700	-2496	18544	16048	1882	3984	-3004	-32712	-7120	3432	1820	3173	-504	-23896	2216	12896	108	-1243	143	127	128	1
-32768	-32768	32767	1946	1418	2361	-16464	12504	-22736	3446	3840	1014	-26328	17520	-1320	4154	1942	787	-7272	19040	20480	1621	5067	-4275	-31864	-6536	2272	3129	3490	-129	-24936	-6128	18576	-1240	-1827	-653	133	137	1
-7508	11672	32468	781	-13	366	-24824	3136	-19464	1800	3138	-990	-16832	11528	-18056	1654	1786	160	-18752	23392	23112	1136	5940	-5287	-32768	6176	-3584	2793	3771	-397	-25216	-4264	8144	572	-1738	-747	124	127	1
-8608	-2276	15576	555	-105	188	-15744	1320	-12160	1372	1866	-901	-7216	9400	-11184	-709	1609	305	-11928	26368	26736	137	5865	-5542	-32768	8816	-4896	2558	3836	-440	-26112	4520	-8536	3194	-1537	-206	120	124	1
-9080	-6052	13816	308	-39	123	-12208	3648	-8192	-418	1223	-352	-11216	1288	-11152	-1766	1826	388	-9856	24384	25552	1290	4703	-4670	-23440	5072	-14888	-441	3574	-629	-28624	9880	-11560	3158	-1764	731	113	123	1
-9156	-7832	12248	95	43	54	-17576	-3216	-7688	-2364	937	-528	-20680	-6192	-8128	-1725	1522	-381	-23552	32767	32767	112	965	-2878	-17272	184	-24984	-2049	2637	-803	-30352	5520	-6000	603	-2819	1107	119	125	1
-7964	-6572	12672	-49	129	30	-20800	-5760	-4472	-1920	741	-471	-19112	-1024	-2904	-489	1509	-402	9432	13336	15904	-2198	-1259	-1408	-21632	-1584	-1128	483	1256	-401	-32352	2496	-7088	-1521	-3468	918	99	124	1
-8060	-6876	12360	-134	186	56	-15768	-9232	-2488	-725	742	-565	-18528	-1680	-2608	-674	1552	436	5424	7120	9840	-578	-1495	-1446	-11856	-3736	-7936	408	-244	88	-25688	2320	-6560	-1451	-2979	1336	36	123	1
-8368	-7132	12056	-155	180	61	-14312	-8280	-4120	503	777	-408	-15544	-5096	-4304	-999	1537	1042	7136	16136	6904	-543	-1926	-315	-4688	-2256	-7336	1117	-811	134	-22192	-1728	-6632	-558	-2981	1503	182	124	1
-8512	-7648	11884	-123	159	80	-14632	-3848	-3712	781	660	-35	-13904	-6456	-3656	-426	1469	918	6480	8576	6344	-855	-2021	947	-4848	-2536	-4952	1676	-1408	253	-18112	-1712	-6760	592	-2577	1367	152	125	1
-8500	-7032	11792	-59	121	71	-16728	-704	-3368	-170	635	-168	-14792	-4512	-2584	196	1392	714	4688	7616	6232	-27	-2083	1901	-6240	848	-5168	1210	-2370	416	-16960	-160	-6640	824	-2444	1374	126	126	1
-8232	-6684	12420	-85	151	59	-17432	-2080	-2768	-753	480	-316	-15352	-3544	-2624	271	1392	705	2440	10000	7712	134	-2252	2548	-4784	1128	-4920	342	-3144	552	-15296	160	-7344	420	-2364	1042	122	125	1
-8304	-6672	12224	-142	181	54	-15224	-4264	-2640	-846	457	-375	-15816	3296	-272	165	1658	894	664	9032	9768	100	-2720	2966	-3872	1408	-5136	-299	-3811	836	-13216	264	-8000	-88	-2169	646	120	126	1
-8460	-6932	11828	-157	186	60	-14648	-5752	-2016	-573	557	-277	-14352	416	-64	-225	2036	700	-984	9408	11376	306	-3325	3140	-6000	1424	-6856	-863	-4307	999	-11672	1112	-8592	-311	-1991	394	119	128	1
-8680	-7128	11648	-132	154	77	-14120	-5432	-2704	-175	633	-227	-14576	-3520	648	-434	2275	447	-3520	10808	13808	542	-4050	3206	-8472	1008	-7336	-818	-4903	1009	-9432	1656	-9040	-396	-1550	418	117	128	1
-10988	-3292	12448	-147	165	-55	-2528	-6672	-16592	-806	1791	916	-15208	-3736	-1368	-822	2235	-26	-6616	14552	16064	712	-4754	3353	-9408	-632	-8664	-690	-5503	1103	-7528	1248	-9448	-709	-1131	484	117	128	1
-8728	-11668	11632	-152	168	271	-19232	-536	-1360	-1309	540	-1326	-16304	-3464	-3768	-1088	1695	-11	-8680	14136	16640	861	-5265	3452	-11504	520	-8344	-375	-6007	1044	-6192	704	-9864	-1284	-536	316	116	127	1
-8376	-6164	12008	-57	188	232	-21544	-2144	-696	-1264	367	-800	-17120	-5528	-4248	-965	1379	118	-10288	16688	17248	1175	-5479	3485	-12280	-1704	-8664	-205	-6352	1132	-4456	-160	-13256	-1833	-330	159	117	127	1
-8252	-7256	12004	21	316	264	-16832	-5128	-4040	-297	1058	-240	-16400	-5176	-3984	-531	1306	280	-12416	24488	20456	1079	-5184	3765	-15968	-1216	-12496	-52	-6629	1191	-4040	-3360	-13536	-2632	-103	3	120	126	1
-8924	-6272	12208	-104	421	343	-16024	-5544	-3816	-59	969	75	-14488	-2536	-4472	-232	1269	415	-18432	32767	25896	460	-4558	4666	-28648	2064	-15976	63	-6959	1319	-5168	-5344	-10120	-2407	180	-126	120	126	1
-8940	-6412	12068	-71	550	310	-14984	-2832	-3904	-217	1028	45	-15280	-2568	-2752	-115	1192	555	-29840	21960	28848	1313	-3917	5810	-32768	1472	-17336	-459	-7293	1276	-9480	-656	-1104	-1442	-5	-83	126	126	1
-8896	-7004	12200	-145	695	381	-16288	-3184	-2400	-798	1040	-216	-17936	-3496	824	-118	1227	462	-32768	31704	21192	2138	-3475	5379	-29328	6600	-19208	415	-6132	1050	-19416	8512	13720	-1548	-722	1281	126	125	1
-8840	-6556	12588	-213	907	452	-16568	-3440	-1048	-1026	1275	-173	-17616	-4056	3464	-325	1122	359	-32768	15224	5688	293	-2869	3950	-18704	9072	-16008	-1242	-4642	1451	-32768	7472	28784	-1208	-538	2660	57	124	1
-8872	-7120	12856	-251	1220	522	-16864	-4512	-856	-820	1600	39	-16504	-2928	3320	-540	1131	166	-32768	-20968	3352	3220	-1602	1638	-17792	3368	-28280	-3148	-2749	912	-13632	10880	32767	690	404	105	136	125	1
-9276	-6544	12788	-243	1587	603	-16904	-4200	-1128	-752	1652	64	-15688	-2256	1280	-839	1217	85	-32768	-744	-4104	1495	-840	-64	1296	-5712	-19920	1144	353	674	-20088	11184	22536	107	30	273	114	125	1
-9180	-6612	12968	-253	1972	665	-16528	-4656	-3496	-28	2140	256	-15864	-5104	-1176	-1002	1163	301	-32768	80	1464	-1584	1363	-1823	-5040	192	-17176	2255	3002	216	-15008	5872	8240	276	394	715	102	125	1
-9436	-6776	13032	-264	2038	678	-17296	-4456	-2952	135	2344	334	-17328	-6024	-1056	-788	779	490	32767	32767	21800	-1721	2114	-1749	-17432	6448	-21520	1195	3815	-165	-12704	5048	6048	178	479	716	132	124	1
-9948	-8172	11900	-482	2769	1227	-17592	-2040	-3088	-314	2530	257	-17136	-5632	1280	-393	193	487	26144	-32768	29656	-3046	4963	-2585	-32768	9112	32767	2142	584	-969	-13456	13192	-5360	2232	638	-965	158	125	1
-9688	-7596	14276	-511	3418	1515	-20032	-4584	-2408	-1080	2645	389	-18416	-8968	4368	-239	-253	155	-32648	-328	32767	-535	5400	-2331	-6288	-1472	-20624	-6533	1006	29	-25688	21312	18280	-1	1373	2160	153	125	1
-9876	-9236	13372	-1036	4471	2183	-28032	-1440	-1136	-1440	2848	563	-25176	-9848	14312	-550	-2036	-176	-17800	24072	17080	82	3721	-3305	-25344	-7792	-15144	-5004	4281	-1710	-19728	-21232	-2648	-4286	1941	-1424	125	125	1
-15860	-19016	14464	-965	5574	3254	-30392	3568	8328	-3306	2916	341	-21344	5296	13944	-133	-2151	497	-12528	-24200	32767	-1759	167	-730	-26568	1408	-14872	-3778	2621	801	-23232	-7912	-21248	-2145	336	407	135	121	1
-28916	-14916	22024	-47	5777	4142	-26952	-8928	-2264	-3730	3202	333	-22728	5408	5536	-620	-1545	785	-5600	7832	15368	-716	-138	-195	-21336	-6056	-11392	-3859	2129	410	-12080	-3176	-13400	600	809	514	116	124	1
-24984	-23328	20916	415	5617	4466	-27416	-13888	-536	-2938	3203	894	-26672	-5248	-9064	-2217	-1076	-266	-5376	11312	13240	-246	-22	-114	-9144	-7696	-6848	883	1257	392	-12016	-1120	-12264	1717	2437	-763	129	128	1
-20552	-15772	22800	-402	5654	4113	-24624	-7368	-9040	80	3358	907	-29296	-4144	-10576	-1386	-1776	-998	-4784	10016	13312	-74	20	-38	-12280	-3752	-10232	4764	1230	933	-20352	6872	-12216	2239	2110	623	129	132	1
480	-24428	19328	-2236	4088	2904	-20792	504	-16592	1556	2806	992	-31784	1544	-8440	-280	-2653	-1069	-4544	9480	13312	-9	22	-23	-25720	6640	-5920	5137	949	950	-16312	7464	-3720	1376	1639	774	129	129	1
-17016	-32768	28592	984	-617	813	-18360	-3976	-12752	288	1414	640	-26688	1256	-7120	646	-3098	-1086	-4248	9816	13064	82	52	-28	-18576	11992	-2384	2271	344	893	-17752	6408	-2416	664	1343	-376	127	129	1
4168	-7604	15476	1070	-1936	524	-16088	24	-1672	-798	91	108	-27416	2432	-9000	738	-3024	-1388	-4288	9944	13048	174	77	-56	-14448	9808	-2840	-730	558	412	-17128	5664	-3144	-56	1228	-871	125	131	1
700	-8316	11332	-186	-2178	453	-11856	-3688	-6992	-177	-717	105	-22688	1568	-8064	11	-2899	-1464	-4208	10488	12488	199	69	-88	-14656	8040	-3232	-2641	604	-271	-14720	4176	-1048	-161	1213	-866	129	131	1
-2092	-14568	10120	209	-2857	-206	-5672	-1352	-8248	348	-1476	-9	-19368	536	-8208	-486	-2686	-1326	-4480	10456	12384	105	46	-101	-16520	-480	-3800	-2520	380	-242	-13104	6472	-1832	228	1504	-605	118	131	1
-1820	-11136	9632	616	-3382	-1055	-4824	944	-6824	113	-2168	-52	-17288	-600	-8640	-517	-2564	-1428	-4472	10120	12776	107	55	-90	-17200	-1904	-3864	-2257	349	-131	-15496	2760	1328	128	1525	-249	144	131	1
-3232	-9624	9476	208	-3655	-1856	-7504	-1352	-7384	214	-2994	81	-15480	-1336	-8176	251	-2348	-1486	-4376	9832	12936	157	80	-83	-16584	-1080	-3176	2117	361	532	-15160	744	1608	210	1687	-434	131	134	1
-4972	-9768	9016	-29	-4027	-2379	-7688	-1528	-7456	449	-3721	-1	-14096	96	-9056	885	-2111	-1271	-4432	10376	12368	129	80	-84	-15184	5840	-912	2507	475	465	-14552	3696	2912	531	1841	-364	111	133	1
-6496	-9156	9428	-240	-4360	-2685	-7376	-1240	-7640	512	-4279	-137	-12960	1144	-10128	1133	-1845	-971	-4312	10432	12048	54	58	-89	-14472	9168	232	1362	477	268	-13208	5320	2432	840	2045	-52	100	134	1
-9452	-11024	10656	-584	-4633	-2988	-8296	-792	-9000	714	-4788	-275	-10064	768	-10824	1301	-1598	-727	-4536	10360	12264	-42	42	-103	-14600	7824	864	-100	633	112	-15816	10344	336	1140	1689	-275	114	134	1
-12368	-12320	11952	-778	-4883	-3316	-9416	-3088	-10176	852	-5424	-364	-9200	592	-11720	1820	-1462	-784	-4400	10368	12232	-56	35	-104	-15112	3832	-1304	-785	912	19	-16824	10760	48	300	1359	-27	123	135	1
-15096	-11860	12220	-1151	-4959	-3543	-10904	-2576	-9568	958	-5951	-376	-6856	1880	-11992	2276	-1217	-567	-4384	10080	12624	-109	36	-134	-16560	2376	-2936	-584	1045	-8	-16304	7624	-280	-184	1344	-76	123	135	1
-18236	-15480	12200	-1224	-4792	-3623	-13000	-2264	-11104	1441	-6300	-553	-5080	3960	-12464	2809	-881	-226	-4520	10208	12816	-70	66	-146	-16648	1408	-3272	-111	1054	40	-15640	3816	-1336	-205	1317	-84	124	135	1
-25388	-21384	15476	-757	-4452	-4002	-17168	-2336	-14584	1947	-6514	-679	-4904	8896	-11008	2441	-728	158	-4520	10048	12944	-19	90	-175	-15728	1640	-3704	249	1114	122	-15448	1976	-1072	-139	1221	-122	122	134	1
-32768	-20500	17620	-609	-4032	-5110	-24648	-4544	-17712	2368	-6621	-574	-5608	10272	-5768	1788	-902	509	-4272	10208	12984	66	112	-226	-15512	2736	-3624	298	1202	167	-15448	1576	304	181	1157	-199	123	132	1
-32768	-9336	15432	-1235	-3112	-5486	-27968	-4600	-19752	1930	-6346	-293	-8488	552	5048	1935	-1069	68	-4328	10304	13120	81	237	-340	-15944	2816	-2944	258	1270	203	-15200	2216	1448	679	1101	-196	125	133	1
-32768	-2156	10308	-2346	-2211	-4801	-25456	-2128	-20000	132	-5464	-411	-17792	-5488	11088	885	-695	-1279	-3880	9752	13752	130	435	-406	-16232	3080	-2640	323	1441	182	-14760	4352	1848	1082	1090	7	116	133	1
-32768	-96	1528	-1635	-2063	-3530	-15472	-5088	-20056	-301	-4237	-1039	-24608	-1304	19168	-498	-165	-977	-4648	9200	13800	291	666	-514	-17960	2928	-3824	339	1630	117	-15880	5272	680	1286	1185	169	110	134	1
-32768	14132	-7084	-1055	-2014	-1849	-14304	-4296	-19232	-1002	-2629	-999	-19872	-5440	21256	-2467	606	-277	-4952	8856	14896	325	952	-647	-17648	2192	-4104	423	1764	128	-16160	7352	-584	1376	1193	-6	120	140	1
-32768	23424	-14056	-1692	-1251	-54	-8960	-3056	-17832	-2068	-647	-892	-17432	-13456	16488	-1847	364	-376	-4520	10440	14808	532	1352	-757	-18632	2312	-4576	323	1949	-25	-16768	8400	-256	961	1038	-56	127	131	1
-32768	8500	-13300	-141	-36	1255	-5456	-6112	-15208	-968	1410	-314	-13856	-12768	7440	-1307	802	-446	-4576	10944	15344	747	1752	-945	-18432	3304	-4448	154	2191	-84	-16888	7920	1552	520	743	-201	123	133	1
-32552	1548	-4708	1871	1097	1271	-10096	-5064	-17576	947	2763	64	-11216	-9224	888	-384	764	-582	-4776	10872	14296	881	2147	-1203	-18600	2824	-3480	-8	2428	-166	-16072	6296	2832	239	419	-225	83	133	1
-6712	-22508	5296	2107	2436	431	-11616	-4504	-17096	1805	3480	299	-3456	-7400	-7072	239	-131	-423	-4640	10360	14488	1303	2554	-1518	-18720	416	-4912	-4	2659	-200	-16752	6432	5984	420	-288	-94	124	127	1
21720	32767	24280	1766	4961	1765	-32768	8360	6512	4904	1535	-168	-26976	-15272	-4328	303	1612	318	-3160	11296	16832	1966	3225	-1890	-25264	600	-2304	506	2938	-346	-19840	10480	10624	1030	-820	193	125	137	1
-32768	7420	32767	1582	3638	2511	-17392	-3488	-10712	7513	2458	174	-32768	-9616	26736	5193	187	-1249	-3088	14992	15456	2535	4063	-2814	-30776	-11008	1104	1472	3126	-266	-25520	-864	17384	32	-1716	60	128	126	1
-32768	-32768	25940	1495	823	2131	-16512	8368	-19336	2391	3511	548	-24808	17360	-520	3705	2234	1231	-2424	17792	19584	2602	5225	-3778	-30568	-9408	3736	3526	3498	82	-21000	-10336	15936	-585	-1619	-840	128	129	1
-5448	16536	32767	1246	-83	578	-22432	-1600	-15640	1474	2681	-1306	-15376	12568	-14944	2154	1789	616	-17072	29952	21320	2281	6042	-4432	-31208	-8600	3560	3723	3534	97	-26064	-4480	8832	1872	-1456	-1005	122	125	1
-8144	-2300	14576	837	-166	307	-15080	-712	-9384	2341	1970	-792	-3176	9048	-9104	-869	1572	583	-13712	29104	21104	1512	5980	-4955	-27688	12992	1032	2282	3662	-491	-27184	8544	-8448	4175	-1463	-387	127	125	1
-7500	-584	17444	718	-129	264	-13960	4536	-9904	438	1476	-322	-9344	5928	-10864	-2181	1469	266	-13216	27224	24328	2549	5047	-4409	-25792	5392	-10680	-684	3496	-792	-28328	11888	-11624	2782	-2021	689	117	123	1
-8520	-7592	12300	151	46	85	-18832	1968	-7432	-2802	939	-490	-22816	-4736	-11720	-3088	1547	-689	-26264	32767	32767	1761	1893	-3838	-17672	-656	-24520	-1989	2661	-790	-28680	8120	-5176	-233	-3200	1150	95	125	1
-8188	-6280	12596	31	98	46	-19896	-4696	-6472	-3759	507	-694	-19640	-4512	-4360	-1872	1744	-677	8064	22184	23296	-2067	-2093	-1552	-20232	-736	-2320	-48	1397	-412	-29920	6328	-4256	-856	-3298	1123	118	126	1
-8264	-6380	12568	12	102	42	-16272	-10608	-2416	-2375	415	-636	-16680	-5072	-4928	-1280	1647	791	7520	6408	12664	-1228	-2990	-1889	-14408	-4256	-4288	792	-158	331	-26384	-1240	-5728	-1391	-3012	1021	169	124	1
-8232	-7064	12232	-98	154	55	-13384	-12976	-4008	144	634	-389	-16128	-6920	-5344	-555	1535	1324	7584	14384	9336	-940	-3583	-1139	-6792	-2800	-6256	1313	-1081	362	-22696	-2352	-7248	-58	-3050	1258	136	126	1
-8400	-7892	11544	-59	130	89	-13552	-7184	-2968	2089	848	170	-12968	-6024	-3248	594	1468	1133	7992	10104	7816	-1361	-3503	196	-4576	-6536	-5248	2159	-1701	405	-19240	-1360	-7256	1325	-2816	1188	129	125	1
-8348	-7072	11904	69	67	90	-17320	-48	-4000	1638	821	-54	-14424	-3456	-2264	1111	1569	860	5608	7120	8208	-583	-3245	1491	-7184	-2040	-5672	2276	-2557	476	-17832	1120	-7800	1463	-2610	1165	123	125	1
-8232	-6408	12544	38	95	77	-17704	2680	-2024	24	535	-219	-16856	1264	208	1219	1608	885	2912	9592	9920	74	-3119	2556	-7512	-424	-6368	1460	-3440	560	-15752	1736	-8792	933	-2439	1001	120	124	1
-8184	-6736	12320	-15	136	52	-15280	-2696	-1816	-1185	510	-355	-15840	1280	1360	907	1982	880	64	9504	12784	219	-3397	3302	-6384	72	-6760	830	-4322	848	-13040	2192	-9408	70	-2195	625	117	126	1
-8288	-6840	12012	-31	140	70	-15056	-6264	-360	-1180	589	-272	-14064	-2288	2160	373	2279	652	-2576	8416	14288	508	-4012	3515	-6720	1112	-6584	357	-4862	963	-11776	2064	-10016	-548	-1952	463	117	128	1
-8496	-7020	11736	-1	118	96	-13256	-7504	-248	-474	763	-196	-15504	-3552	1440	-182	2281	249	-5944	11448	15136	733	-4772	3359	-8672	504	-7160	-21	-5324	1065	-9136	104	-9872	-925	-1670	366	117	127	1
-8352	-7020	11736	53	84	118	-13448	-5408	-144	111	997	-171	-16472	-4256	-1920	-182	1759	1	-7832	12600	17200	635	-5363	3161	-9936	160	-9712	-369	-5870	1270	-7040	-1432	-9944	-1158	-1191	314	117	127	1
-8280	-6928	11992	78	65	158	-14960	-3632	-2176	198	1149	-147	-17888	-3224	-2280	-323	1365	-21	-10872	15280	17640	945	-5820	2991	-12304	-1816	-7840	-432	-6286	1274	-5232	-1656	-10952	-1295	-795	59	117	127	1
-8180	-6672	12548	42	118	219	-16592	-2920	-4104	-160	1171	-173	-16464	-3224	-3568	-581	1319	200	-11368	16512	17664	955	-5857	2980	-14192	-3912	-10392	-252	-6451	1321	-3784	-3168	-12368	-1791	-546	-127	118	127	1
-8200	-7124	12832	88	354	339	-17504	-3040	-4160	-576	1063	-188	-15448	-1168	-4568	-566	1381	337	-14336	27664	23456	812	-5166	3855	-20800	-3192	-15200	76	-6606	1261	-3728	-5560	-11520	-2076	-463	-329	120	126	1
-8580	-5588	12564	-57	507	331	-15520	-3336	-4536	-808	1093	-156	-15184	776	-3528	-293	1281	303	-22888	31264	26760	557	-4365	5159	-32768	424	-19248	298	-7026	1502	-6136	-2624	-7656	-1740	-148	-334	120	126	1
-8496	-6772	12944	-62	671	336	-14600	-5136	-2984	-654	1183	-113	-16104	-1360	-1464	-494	1224	268	-32768	29208	24232	1437	-3309	6052	-30256	4240	-19400	-91	-6745	1295	-11480	4384	4968	-1714	-504	290	121	126	1
-8740	-6648	12868	-82	891	391	-16344	-4496	-1912	-443	1384	-85	-17600	-4752	656	-771	1202	221	-32768	28992	12560	771	-2517	5350	-24632	11512	-17056	-1336	-5430	1121	-27336	10664	20592	-1505	-1166	1844	126	126	1
-8716	-6952	13292	-96	1164	459	-16872	-4888	-1896	-405	1629	-9	-16768	-6952	896	-552	1191	199	-32768	-1544	1664	883	-1413	3538	-14992	5664	-20792	-4717	-3257	714	-22376	7368	32767	-4	-101	1235	122	125	1
-8968	-7028	13256	-103	1497	604	-17288	-3912	-2960	-389	1885	31	-15720	-5216	-16	-358	1073	153	-32768	-3568	-2032	3795	-816	1435	-14880	-10592	-24536	-2396	-1571	-66	-17176	15960	32767	195	157	140	124	124	1
-8984	-6232	13528	-126	1892	662	-16680	-4312	-3552	-352	2094	166	-15160	-4600	-352	-268	1116	246	-32768	1448	-3864	-175	385	-587	2872	1496	-16168	2545	1456	742	-17192	8200	11776	235	393	466	110	124	1
-9008	-7492	13256	-160	2292	785	-16712	-5328	-2768	-69	2302	307	-16480	-5088	-328	-353	903	421	-32768	5936	2728	-1979	1511	-1752	-9296	4296	-20104	2615	3429	355	-11112	6456	4480	515	493	602	89	123	1
-9516	-7904	12724	-263	2684	1089	-17312	-3720	-3048	-19	2535	310	-17752	-3784	1472	-321	376	492	30848	32767	11008	-4467	4096	-2976	-32768	27544	32767	5795	3067	-87	-5472	6592	5928	1347	-507	1	144	123	1
-9728	-7408	13432	-420	3132	1452	-18328	-2416	-3352	-591	2702	291	-16752	-4776	3136	-421	-243	349	-23168	1808	20608	124	5971	-2260	-20256	-10328	-5432	-4629	1928	174	-13176	21736	-1600	714	1514	340	156	125	1
-10428	-9060	13304	-569	3928	1917	-23688	-3000	-5000	-1003	2825	463	-22304	-8952	9704	-639	-1095	-162	-22352	-2872	32767	222	3982	-2573	-7120	-17464	-4872	-6739	3009	-1031	-26784	3072	12896	-1615	2103	236	153	124	1
-10728	-14596	13956	-784	4862	2968	-31336	-240	6344	-2246	2788	333	-22096	-2200	9320	-604	-1699	68	-10152	27424	6288	-404	2750	-2394	-28048	-4568	-9072	-3213	3668	-1045	-21128	-20080	-13768	-3965	1295	-839	127	122	1
-21128	-16468	16472	2	5496	4027	-26904	-1008	3136	-3756	3010	190	-22144	-1136	9448	-564	-1646	205	-5248	-18160	32767	-1575	10	-734	-17008	4008	-14976	-4479	2112	780	-13000	-576	-9872	-584	-52	720	124	123	1
-24956	-20996	23704	304	5397	4306	-26160	-13240	-2344	-3725	3284	428	-22304	1576	-1200	-1313	-1334	194	-5632	7000	16800	-852	-109	-266	-18704	-7480	-19992	-3726	1688	110	-10984	-4288	-7592	1516	1550	-437	118	127	1
-21864	-17960	19568	580	5393	4506	-24872	-9208	-5312	-1861	3148	516	-27328	-3584	-11264	-1888	-1197	-705	-4608	11040	13344	-350	-32	-167	-16624	-12072	-10504	1754	1634	287	-19016	824	-12904	2120	2213	170	128	128	1
-18320	-18204	24580	-1582	4900	3384	-22368	-3432	-8840	287	3091	806	-29936	728	-9080	-1173	-2228	-1201	-4640	9984	13112	-147	16	-117	-16136	-440	-8704	5414	1363	1009	-18728	6888	-7168	2019	1673	648	127	129	1
-32768	-32768	32767	-609	787	1889	-18624	-592	-23512	1030	2288	528	-27376	3568	-7168	-143	-2855	-1255	-4616	9200	13568	-59	41	-85	-20360	7856	-5232	4634	1118	916	-15088	8984	-2976	1205	1534	225	127	129	1
2280	-19164	19680	1093	-1996	655	-19032	376	136	-1211	510	-58	-29600	4296	-8072	453	-3116	-1388	-4200	9776	13216	37	66	-84	-16320	13600	-2032	1370	618	678	-16456	9400	-3824	528	1350	-577	127	128	1
3080	-6124	12660	-347	-1937	478	-13512	840	-6944	-656	-518	-368	-24888	3328	-8216	-110	-2911	-1602	-4408	9728	13408	94	80	-103	-13536	8888	-4800	-2083	901	22	-15056	6360	-3688	-469	1280	-894	125	132	1
372	-13512	10976	-810	-2409	-463	-7320	952	-7256	-329	-1280	-419	-20488	4040	-7240	-684	-2716	-1556	-4536	10104	12576	91	62	-106	-15984	3816	-5848	-3238	840	-528	-14776	3888	-3112	-553	1501	-823	126	132	1
1720	-8684	10404	-305	-2739	-1353	-4584	5280	-5192	-429	-2051	-602	-17504	3880	-7320	-1007	-2539	-1349	-4384	9960	13040	28	50	-91	-18872	-3720	-5680	-2562	468	-216	-16224	3096	-1712	-642	1685	-525	111	132	1
-352	-5684	12168	-787	-2730	-2179	-7944	3272	-6568	-373	-2796	-571	-15752	2520	-7312	-873	-2421	-1351	-4368	9360	13256	72	82	-82	-17312	-7776	-4336	-178	316	277	-16968	-1336	-232	-658	1727	-428	153	133	1
-1000	-5976	12592	-854	-2761	-2298	-8056	2728	-7608	70	-3547	-676	-14560	2128	-7224	-131	-2246	-1211	-4480	9672	12744	128	107	-78	-15200	-768	-3528	1904	481	573	-15144	-1440	744	-36	1842	-597	135	134	1
-6220	-4608	15024	-1216	-3782	-2992	-7368	3920	-6672	51	-4200	-813	-13400	2424	-7352	502	-2010	-871	-4632	9864	12608	87	87	-80	-15504	5376	-2424	1986	552	459	-13776	2128	648	470	1994	-590	118	133	1
-7844	-4268	15828	-1493	-4280	-2979	-8216	2704	-6976	153	-4731	-979	-11272	3512	-8376	825	-1805	-587	-4376	10056	12648	23	74	-99	-14904	7016	-2008	775	498	298	-14176	5616	2192	536	2046	-566	115	134	1
-10048	-5372	17244	-1656	-4670	-3029	-10616	1200	-8088	634	-5240	-1106	-8736	3992	-9152	825	-1609	-442	-4520	9768	12808	-40	67	-120	-14976	4520	-1264	-407	611	154	-15272	7616	2856	511	2191	-445	122	133	1
-13036	-7492	17400	-1721	-4975	-3160	-12048	1360	-7376	961	-5700	-1006	-6536	3504	-10464	779	-1359	-370	-4680	9592	12960	-52	70	-121	-15072	4008	-1584	-542	638	140	-16104	6720	-232	479	2159	-379	119	133	1
-15444	-10880	17468	-1371	-4994	-3293	-13488	1128	-9040	1403	-6015	-877	-4536	3384	-10272	785	-1073	-238	-4632	9936	12992	-53	89	-143	-16000	1728	-3392	-364	988	151	-17288	7320	-1976	-83	1765	-205	122	134	1
-18624	-13708	19064	-1034	-4660	-3577	-17192	960	-10160	1745	-6317	-716	-4664	3552	-9936	1199	-788	-43	-4592	9888	12744	-58	110	-201	-15848	2224	-3512	108	1040	164	-16136	6040	-1632	-472	1494	-148	123	136	1
-26760	-19980	21864	-757	-4321	-4273	-23064	-432	-14872	1859	-6589	-566	-3808	4992	-8312	1608	-429	214	-4448	9848	13168	-88	199	-288	-15768	2136	-4000	299	1104	182	-15424	4824	-1648	-344	1436	-178	124	135	1
-32768	-15732	21660	-341	-3690	-5101	-28072	-5000	-16456	1796	-6704	-415	-5776	3208	-3608	1920	-533	327	-4232	9176	14136	-45	338	-362	-16408	2184	-3440	302	1207	168	-16120	3448	560	-74	1366	-256	121	134	1
-32768	-5588	16740	-1383	-2822	-4993	-29192	-7136	-18920	1213	-6096	-169	-13856	-5944	8120	1867	-1177	-418	-4600	9232	13992	102	520	-383	-16640	1992	-2808	236	1379	87	-16344	2704	2920	117	1277	-166	122	136	1
-32768	-3508	3748	-1869	-2361	-4007	-21328	-4240	-19824	1169	-4666	-579	-29576	-7336	22088	1282	-1980	-1607	-4160	10256	14728	311	724	-507	-17376	4216	-2384	93	1650	27	-16536	3144	4312	636	1247	-29	122	134	1
-32768	21068	-6708	-2414	-1719	-2554	-18664	-4624	-21312	1296	-4387	-688	-20520	-3120	28448	-1154	259	86	-4312	10312	15328	264	1099	-687	-19312	1712	-3560	82	1870	12	-17552	5048	3416	1149	1355	98	90	140	1
-32768	24840	-16052	-3279	-1131	-706	-4160	2416	-18224	-3620	-1009	-732	-19232	-8824	17728	-2675	229	210	-4416	9744	16080	415	1563	-822	-19624	1168	-3968	232	2137	-159	-17728	8624	1376	1411	1284	27	127	144	1
-32768	9492	-16196	231	-895	1917	-4648	-8848	-19200	-4537	1094	-591	-16520	-11464	7584	-2600	863	-207	-3624	10616	15728	618	2084	-1051	-19736	2312	-2712	277	2399	-261	-18256	9528	2160	1166	945	-195	125	128	1
-32768	7696	-14932	756	-771	2205	-12952	-13008	-18584	-1571	2716	2	-9768	-11720	2544	-1136	590	-847	-4208	10144	16008	639	2173	-1102	-19120	1768	-2840	167	2734	-362	-17696	8936	5536	432	201	-338	124	133	1
13928	-32768	-3556	5482	1815	3444	-26168	-24864	32767	-3672	2019	487	-400	-5952	-8104	-1013	231	-290	-3136	9648	18432	1421	3170	-1843	-21400	1272	-5064	233	3099	-499	-17656	12840	10888	532	-915	-177	127	124	1
-32768	5784	22364	1470	6108	1623	-26288	928	-15944	8169	3595	-352	-27392	-22616	13336	989	1431	-358	-2888	17128	15384	1951	4086	-2608	-32768	-3872	1056	913	3362	-859	-22648	10136	15240	454	-1241	304	127	138	1
-26060	12916	32767	800	2591	2928	-17960	13664	-16056	7541	3940	1884	-26424	2576	9008	4748	1436	714	-2000	21128	18832	1505	4867	-3921	-31792	-5248	5856	2592	3479	-435	-23480	-5160	15344	-1016	-1680	-330	139	124	1
-12848	8768	21604	2584	84	1020	-21896	-6360	-6920	-667	3578	-219	-18264	18488	-19464	4305	2098	965	-12208	26712	23128	724	5688	-4970	-32768	5816	992	2952	3731	-372	-25744	-4720	14208	-482	-1905	-635	125	130	1
-19088	-19304	5828	848	-100	279	-16032	-7992	-11136	3045	2466	-1377	-11288	9600	-12512	671	1335	141	-8104	30096	23920	-320	5907	-5476	-31176	11720	4344	2321	3891	-833	-24632	2104	-6960	2086	-1500	-186	121	119	1
-11356	-10060	10840	588	-151	273	-12760	4440	-12168	1303	1931	-381	-5944	9360	-9304	-1703	1691	523	-14160	22440	27256	267	5391	-4795	-22672	5176	-11936	-541	3943	-735	-28936	6592	-11072	2559	-1661	555	118	127	1
-8628	-5488	12948	287	-37	179	-13872	6432	-9928	-3133	1223	-356	-19360	-3224	-12616	-2818	1532	-250	-32768	32767	32767	819	2799	-3604	-17664	-2600	-25536	-2428	2909	-878	-28992	3992	-6152	649	-2668	1069	123	125	1
-8424	-5476	13104	127	51	109	-22616	-6088	-7480	-4249	773	-582	-19416	-4016	-4568	-2133	1583	-939	13416	20784	20896	-1625	-1317	-1214	-23688	-3800	-144	141	1444	-331	-32768	-8	-5632	-1164	-3406	858	113	127	1
-8380	-7120	12268	13	125	94	-17376	-12352	-3160	-2561	689	-624	-18864	-5496	-5976	-1498	1765	358	7984	7256	12976	-334	-1606	-1523	-14240	-6696	-5376	835	-220	428	-26488	-2464	-6392	-1326	-3105	1200	109	123	1
-8344	-6804	12520	-20	146	95	-13320	-13008	-5432	420	920	-311	-17200	-6216	-5800	-992	1627	1265	9824	17128	10824	-57	-2368	-295	-5776	-4424	-6232	1754	-942	566	-24064	-3880	-6552	31	-3062	1359	111	124	1
-8508	-7708	11856	-4	146	123	-13152	-6960	-4704	2391	1002	307	-13680	-7280	-5144	74	1574	1393	8960	9400	10048	-384	-2513	1110	-5864	-5600	-4312	2580	-1581	692	-20520	-3048	-7424	1445	-3061	1225	114	125	1
-8452	-6836	12088	97	85	95	-16840	696	-5296	1760	966	191	-13464	-4816	-4280	899	1597	1010	5936	7744	10360	405	-2607	2343	-8448	-808	-5088	2138	-2633	883	-18176	-32	-7920	1831	-2704	1302	141	124	1
-8304	-6304	12664	55	101	63	-19408	3488	-3896	120	596	-87	-17416	2720	-1720	1281	1573	944	3136	8848	12576	476	-2772	3188	-7096	-808	-5056	953	-3582	1108	-17552	416	-8480	1801	-2683	1312	123	125	1
-8028	-6264	12720	-34	149	42	-15608	-1000	-4088	-1159	443	-295	-17232	5848	-272	805	1864	1121	464	7272	14928	553	-3232	3648	-5968	-552	-5192	-21	-4325	1266	-13224	1664	-9696	548	-2185	798	118	126	1
-8256	-6464	12552	-83	181	53	-15864	-4304	-2512	-1321	461	-223	-15256	2864	256	82	2296	1032	-2800	8800	17440	827	-3999	3801	-7688	-448	-6656	-748	-4813	1227	-11232	1624	-9888	-247	-1912	561	119	127	1
-8468	-6836	12088	-104	199	74	-14368	-6584	-2264	-702	573	-119	-14288	-3880	712	-121	2489	887	-5520	10928	18912	769	-4864	3741	-9816	-1744	-7720	-1032	-5450	1178	-9328	264	-9816	-702	-1633	448	119	128	1
-7720	-7744	12048	70	305	196	-14176	-5584	-1296	35	764	-130	-15816	-4928	-264	-285	2370	462	-7688	11304	20448	814	-5544	3583	-12080	-2472	-8552	-1033	-6124	1304	-6160	-1032	-10528	-1069	-1154	409	119	128	1
-8560	-6648	12020	99	337	270	-14640	-3776	-1904	180	928	-131	-16632	-3336	-2552	-180	1779	242	-10328	14416	20064	1021	-5826	3338	-14760	-5312	-7064	-600	-6519	1161	-5344	-1936	-11792	-1244	-650	227	118	126	1
-8724	-6596	12144	148	368	313	-15080	-3240	-3192	-215	1038	-103	-18104	-2984	-2560	-300	1465	208	-11576	19808	21936	684	-5184	3395	-17360	-6520	-10400	23	-6669	986	-4352	-3880	-12888	-1965	-586	14	118	126	1
-8676	-6300	12600	135	454	380	-16216	-3120	-3768	-517	1065	-129	-16472	-2464	-2640	-465	1365	367	-17760	30352	29256	532	-4583	4066	-24880	-5584	-17920	772	-6718	1086	-3808	-4648	-9600	-2637	-569	-80	119	126	1
-8948	-6136	12388	100	559	417	-15464	-3544	-3512	-666	1128	-82	-14992	-992	-2808	-480	1259	439	-25544	31768	29496	43	-4536	5427	-31336	880	-18704	701	-7021	1560	-6200	-1448	-4376	-2780	-638	-90	121	126	1
-8996	-6628	12656	120	699	482	-14968	-5040	-3680	-513	1229	-33	-16072	-800	-2120	-450	1162	398	-32768	28448	22592	637	-3622	5982	-27808	5824	-16608	-594	-6695	1305	-11256	2360	7080	-3103	-1017	373	125	126	1
-9244	-6668	12560	127	875	602	-16408	-4008	-2784	-473	1395	-24	-17600	-1648	-280	-724	1121	267	-32768	20952	11992	-74	-2317	5432	-20864	8968	-18040	-3629	-5268	939	-29024	8048	20608	-3105	-1262	1593	134	126	1
-9108	-6252	12976	137	1092	684	-16408	-3152	-2528	-706	1590	36	-16016	-3656	1616	-1098	1112	174	-32768	-9424	5960	847	-617	3876	-19552	4520	-32768	-6895	-3224	-92	-14856	12240	32767	-1038	46	-438	126	126	1
-9420	-5396	13112	132	1382	729	-15856	-2768	-3248	-893	1856	108	-14688	-4832	1648	-1061	1079	87	-32768	-168	-2272	1422	-872	1201	-6384	-7432	-26544	-2354	-1037	-330	-23552	5288	32536	-1599	-86	377	124	125	1
-9112	-5532	13640	121	1773	718	-15664	-5064	-3392	-609	2141	304	-15160	-7232	-8	-875	1045	216	-32768	-5576	-1008	-1282	332	-1192	2752	800	-19464	1181	1819	486	-16960	3616	15344	-114	-206	104	98	124	1
-9592	-7588	13940	136	2216	918	-15848	-5560	-3088	-511	2186	340	-18160	-7496	-504	-651	736	425	-32768	7416	3616	-1611	1163	-1808	-10296	2032	-21632	2311	3604	-136	-10272	-168	5136	1068	-41	5	166	123	1
-10280	-7796	13140	54	2666	1388	-20104	-3312	-2328	59	2737	438	-19360	-5176	2312	-286	188	581	32767	27432	144	-1905	3841	-3897	-32768	21272	32767	8604	3520	-154	8968	-6872	-2008	3138	1194	-1270	150	122	1
-9680	-9580	14808	-2	3130	1957	-19808	-4392	-1056	-801	2890	406	-17504	-7872	5616	-312	-552	423	-32768	24440	16448	841	6182	-3726	-6792	3408	-18880	-1826	2278	1566	-29592	9104	2608	3393	1918	-149	144	125	1
-9824	-8684	15776	60	3224	2020	-27360	-3928	-3016	-1124	3081	563	-24640	-12896	14400	-645	-1730	-341	-32768	28920	26120	846	5902	-3322	-11768	-8376	-16368	-3319	3772	-433	-25920	-936	2528	46	762	969	116	124	1
-13044	-15824	15028	-18	5089	3955	-32768	672	5656	-2478	3045	403	-24744	-11680	14104	-526	-1937	-432	-32768	32767	32767	-949	2339	-2183	-24952	4296	-22072	-2364	3643	-381	-20352	-1080	1576	-40	740	660	130	122	1
-24900	-21096	19228	860	5532	5161	-27248	-8040	1600	-3921	3227	232	-23408	6872	10200	-177	-1931	554	-9376	6928	21712	-767	-56	-392	-18592	-4080	-19592	-3558	2078	459	-16736	7392	-22232	1266	1368	1155	129	121	1
-25444	-11992	23444	1349	5442	5223	-27864	-12128	-2152	-3843	3198	327	-24280	-2904	-6744	-1980	-1223	-140	-5336	5880	16616	-567	-64	-190	-18456	-3368	-15464	-2084	1303	175	-16264	9448	-11800	285	2429	-541	127	129	1
-22056	-18456	23860	-211	5251	4446	-24768	-9968	-9208	-1889	3416	854	-31080	-5688	-12968	-1792	-1682	-1132	-4592	8752	14520	-250	-1	-74	-16296	-4224	-8880	-497	1026	125	-17432	3904	-8960	-1582	2007	-458	129	129	1
-18328	-24012	19884	-772	3213	4234	-21096	-1176	-21776	505	2848	740	-32768	2648	-9528	-485	-2646	-1524	-4432	9520	13352	-62	46	-35	-16408	-3504	-7576	1787	1117	534	-19080	592	-4232	-2183	1752	-71	124	129	1
-13792	-32768	25188	1150	-1116	903	-20016	-1496	-8152	-305	1370	369	-32352	3336	-9032	-239	-2717	-1520	-4024	9736	13432	59	61	-47	-18944	3104	-4024	2012	991	535	-16536	-88	-152	-1199	1658	65	125	127	1
5164	-11244	12072	1516	-1486	162	-16912	-16	-4512	-804	-11	-85	-28056	1816	-8776	767	-3170	-1889	-4048	9616	13208	154	89	-70	-17104	7232	-3368	809	656	648	-16480	1056	-672	-101	1576	-15	126	130	1
5376	-9068	11344	1222	-1400	50	-15968	-816	-5184	-702	-143	-110	-23704	1584	-7680	-24	-2900	-2231	-4168	9880	12784	176	92	-81	-16072	5328	-4096	-514	595	442	-15776	3160	-992	855	1610	-223	128	133	1
784	-13356	8720	-214	-1519	-1615	-3672	-328	-6720	612	-1489	-242	-19560	3624	-7248	-491	-2587	-2167	-4280	10392	12904	176	94	-95	-16224	2144	-3888	-881	493	45	-15184	4088	-760	1235	1617	-406	103	134	1
128	-7416	10492	-138	-1908	-2468	-3344	2248	-6056	1119	-2170	-342	-15928	3392	-7624	-519	-2472	-2036	-4616	10088	12368	121	86	-101	-16312	-392	-3528	-478	452	119	-14432	4144	80	1058	1685	-518	157	131	1
-1880	-5976	12332	-648	-2369	-3102	-5424	1496	-7280	1628	-2898	-392	-14552	2824	-7360	-63	-2224	-1858	-4384	9856	12960	126	107	-94	-16656	-536	-3072	179	411	457	-16144	2472	1032	705	1656	-579	121	134	1
-4528	-5992	13976	-960	-3133	-3491	-6712	2640	-8672	1783	-3679	-510	-13424	3784	-7872	180	-1878	-1486	-4496	10056	12728	173	122	-92	-16296	1144	-2304	849	478	454	-14792	1104	1112	420	1574	-514	114	133	1
-6308	-5300	14656	-1253	-3880	-3682	-7208	3456	-7488	1362	-4476	-576	-12664	2328	-8392	383	-1506	-1044	-4560	10416	12024	166	120	-102	-15472	4312	-2232	895	597	381	-14464	3080	1304	520	1772	-535	102	135	1
-8660	-4916	15224	-1553	-4483	-3606	-7952	2416	-7496	954	-5146	-722	-11056	2216	-8432	1047	-1291	-722	-4504	10216	12304	106	98	-108	-15840	4976	-2136	432	634	283	-15024	6072	2816	753	2071	-295	114	134	1
-11960	-6240	16288	-1883	-4992	-3460	-9120	2112	-9184	972	-5703	-838	-10584	2608	-8712	1141	-1272	-691	-4416	10104	12232	58	90	-122	-15320	3376	-1736	115	695	239	-15352	8720	2480	1104	2317	-249	120	134	1
-13888	-6660	16780	-2165	-5212	-3317	-11560	1896	-8016	695	-6227	-882	-5536	4000	-10448	2273	-967	-151	-4344	10224	12784	20	100	-141	-14800	2656	-1680	145	893	216	-15400	9008	-232	1022	2094	-380	119	134	1
-16972	-11556	17572	-2107	-5071	-3294	-13800	1584	-9344	762	-6533	-979	-3312	4912	-11832	2405	-686	108	-4448	10256	12600	11	112	-167	-14936	3712	-2528	172	1117	181	-16872	7128	-1264	7	1540	-171	122	135	1
-22316	-17028	21136	-1510	-4723	-3710	-18312	592	-11048	923	-6731	-995	-2064	6864	-11304	2428	-463	441	-4416	10368	12488	5	140	-218	-15888	3384	-3432	-13	1231	155	-15824	5008	-1360	-471	1302	46	122	133	1
-29096	-19784	24940	-1066	-4215	-4848	-19368	512	-12040	1007	-6757	-997	-2376	7088	-7752	2012	-383	656	-4752	9744	12960	91	154	-323	-16000	2416	-4704	-111	1308	159	-14856	2408	-1112	-151	1298	-25	123	135	1
-32768	-11856	23892	-1372	-3312	-5805	-29032	-4016	-16800	1682	-6833	-552	-6728	2672	920	1920	-687	269	-4424	9320	13640	65	397	-431	-16280	352	-4432	105	1360	194	-15952	2248	144	393	1164	-201	121	131	1
-32768	-6560	15624	-1796	-2599	-5337	-28016	-7632	-17152	760	-5888	-533	-18504	-5392	16872	1856	-1455	-1072	-4688	9936	13848	251	583	-473	-16816	920	-4400	464	1478	179	-15696	2456	1488	852	1140	-142	115	133	1
-32768	4992	2472	-971	-2116	-3853	-18024	-7408	-18528	2073	-4165	-969	-32536	-4024	25976	595	-1068	-1880	-4136	11216	14016	424	807	-622	-17960	3424	-2920	670	1678	165	-16064	3120	2872	1217	1170	29	107	142	1
-32768	32767	-6444	-2498	-1074	-2012	-16264	-3504	-24024	777	-2370	-518	-23008	-1568	32767	-1906	142	-54	-4960	9360	14736	432	1150	-709	-18352	2384	-4800	614	1855	89	-15888	6360	1896	1670	1332	63	105	137	1
-32768	19836	-15992	-2525	-770	-23	-1224	3184	-17424	-3047	84	-348	-18784	-6248	15312	-2743	343	-265	-4848	10424	15400	714	1596	-818	-19408	2168	-4520	332	2088	-136	-18112	10200	560	1686	1308	-35	119	127	1
-32768	8416	-10352	1202	-280	2646	-8120	-6704	-17960	-3792	1786	-472	-16560	-9424	2856	-3315	908	123	-4272	11168	15352	993	2094	-1091	-20256	2472	-3168	98	2349	-230	-18840	10672	3800	1093	838	-271	122	136	1
-32768	484	1076	1414	483	2565	-10224	-8040	-18584	-3536	1971	-423	-13552	-10064	13536	-2216	-330	-611	-3768	10824	15904	1373	2623	-1499	-20416	88	-2008	53	2739	-326	-18520	9840	9464	227	-10	-336	126	130	1
15880	-32768	652	5707	1179	3682	-25928	-21392	32767	-4850	1862	228	464	-5016	-15704	-1482	1069	345	-2336	10832	17856	2084	3356	-1976	-25224	-2120	-1096	530	3174	-459	-18720	11648	14656	468	-1209	-53	128	131	1
-32372	6888	20824	978	6346	1613	-27080	2184	-16520	6981	3246	-443	-31056	-27296	15600	1442	589	-304	-1656	16432	16696	2325	4584	-2888	-32768	-8928	3168	1693	3498	-630	-26368	2160	20944	-262	-1780	71	130	130	1
-25712	7736	31288	1011	2375	2694	-18384	4464	-19088	7037	3719	1959	-25416	9000	4504	5615	1691	420	-2848	22008	19464	2805	5873	-4133	-32768	-6072	5208	2759	3775	-405	-22176	-9344	17488	-558	-2116	-742	137	129	1
-12384	11812	28388	2590	121	1020	-24072	-1264	-14760	1040	3694	-235	-19768	17968	-20376	3905	2134	755	-18272	32767	29008	1691	6451	-5112	-32768	10224	-2440	2649	3685	-458	-25136	-2568	3184	1624	-1408	-1057	126	110	1
-17904	-15340	10216	914	-243	244	-15608	-2904	-10880	3087	2308	-1116	-10600	10560	-10528	226	1241	319	-12040	27584	27912	559	6138	-5703	-27368	12560	3960	1866	3894	-835	-28992	13104	-12208	3140	-1284	-150	120	126	1
-10444	-8400	12340	516	-94	136	-13032	7376	-11744	1066	1635	-429	-10920	5376	-11512	-1756	1728	472	-9808	26616	23472	2583	4851	-4649	-26016	3760	-8112	-1175	3517	-1291	-27656	12584	-7696	1340	-2248	777	117	127	1
-8412	-7620	12272	178	46	50	-18112	-1216	-8504	-2155	953	-480	-17960	-4872	-12968	-2437	1562	-275	-5240	32767	32767	-53	-144	-1906	-17328	6048	-19944	-2560	2111	-794	-30776	6968	-5144	-1256	-2954	873	121	122	1
-8188	-6820	12548	111	47	80	-19712	-2064	-5920	-4052	627	-437	-19392	-3352	-4224	-1666	1617	-830	14696	9592	18296	-2299	-2449	-1117	-23584	-3088	5272	483	805	-435	-32736	-1240	-6304	-2436	-3224	877	117	126	1
-7920	-6364	12768	-5	110	49	-16560	-8408	-4288	-3701	435	-616	-18112	-4816	-3720	-1267	1807	197	8752	12232	14152	-1079	-3560	-1408	-11672	-848	-6176	245	-927	186	-26176	-3616	-6200	-1397	-2983	1349	119	124	1
-7816	-6424	12788	-22	121	48	-13960	-14256	-2720	-840	539	-339	-16344	-4504	-4536	-1267	1573	1151	9440	17880	9680	-1652	-4281	-112	-5312	-3160	-5248	953	-1759	129	-25176	-3704	-6576	-1031	-3027	1395	120	124	1
-8168	-7068	12100	-58	141	59	-13224	-10000	-3568	1660	762	-75	-16048	-5000	-4640	-1189	1545	1228	7088	9624	8008	-1519	-4263	1232	-7488	-5024	-5056	2102	-2513	311	-18664	-560	-7944	1560	-2780	1259	116	126	1
-8372	-7336	11676	31	111	73	-15336	-2800	-3024	2190	863	280	-13456	-5888	-2312	173	1508	1016	4344	9992	8616	-366	-4066	2384	-9936	-648	-7208	2135	-3571	571	-16496	1776	-8928	1505	-2420	1179	118	125	1
-8128	-6908	12092	94	75	67	-17608	840	-2872	761	798	-37	-15816	-2040	-632	498	1522	797	1160	11944	10704	41	-3904	3265	-7872	-216	-7360	1602	-4496	739	-13424	2400	-10184	697	-2016	1013	125	127	1
-8104	-6536	12268	55	97	70	-16168	160	-1456	-935	575	-206	-15688	2160	1440	402	1672	730	-2496	10912	13624	359	-4107	3683	-6912	1384	-6624	1181	-5135	1006	-11552	2472	-10280	-492	-1854	703	118	127	1
-8084	-6640	12160	22	106	99	-14152	-4624	-1568	-1619	577	-253	-13848	128	1872	-67	2046	788	-5960	14096	15672	622	-4646	3744	-8824	1840	-7416	310	-5514	1203	-9680	632	-10208	-1144	-1705	541	118	127	1
-8388	-6708	12048	56	84	135	-18240	-832	-3344	-1199	741	-107	-15256	-4160	2248	-601	2400	674	-8584	14672	17944	601	-5142	3649	-11128	472	-9440	-385	-5925	1315	-7736	-1552	-10120	-1395	-1553	392	117	127	1
-8192	-6972	11904	100	65	159	-13736	-6448	-2688	-429	908	-315	-14560	-5624	-584	-743	2355	344	-11656	18216	18816	811	-5580	3564	-14616	-608	-8616	-713	-6271	1401	-5368	-2640	-10976	-1581	-911	223	118	127	1
-8368	-6864	12276	124	53	198	-13976	-6216	-1528	-231	913	-239	-15904	-4048	-4640	-571	1798	168	-12400	21664	19488	686	-5482	3717	-17280	-2528	-10168	-1053	-6446	1343	-4568	-4344	-11520	-2047	-712	41	119	127	1
-8192	-6716	12612	84	95	268	-15640	-3752	-4664	70	1177	-30	-17704	-3656	-5104	-403	1505	292	-13304	27880	22376	662	-4829	4182	-22808	-3328	-14488	-989	-6710	1208	-4664	-5664	-9888	-2753	-905	-112	120	126	1
-8480	-5876	12740	64	231	407	-16968	-2728	-5168	-458	1097	-138	-15824	-3040	-4080	-353	1502	501	-21832	26752	27760	842	-3989	5193	-29032	-1896	-19808	-615	-7063	1400	-5056	-3272	-5936	-2609	-777	-119	121	126	1
-8420	-6072	13016	14	453	398	-16200	-2648	-3712	-1018	1092	-130	-15328	-2528	-2728	-195	1399	555	-32768	27920	25440	1793	-3178	5893	-28464	2808	-20584	-216	-6539	1243	-9384	3600	3208	-2665	-1003	432	123	126	1
-8640	-5924	13176	-62	682	442	-15544	-4944	-2360	-961	1238	-16	-16824	-3344	552	-126	1266	523	-32768	27024	14256	929	-2473	5155	-25840	9408	-17688	-1039	-5456	1065	-26768	10024	19616	-2210	-1453	1706	137	125	1
-8720	-6664	13712	-12	962	458	-16064	-6480	-1560	-533	1553	67	-17496	-5272	2944	-459	1287	398	-32768	2472	3440	621	-1493	3322	-14928	6104	-23728	-3690	-3514	721	-18072	4992	32767	-439	-396	782	85	124	1
-8724	-6900	13892	-29	1314	604	-17904	-4568	-1560	-256	1883	139	-17184	-4800	3096	-626	1241	204	-32768	-3744	-2760	2984	-1052	1096	-12696	-6600	-25568	-1817	-1646	184	-20824	5072	31368	144	101	501	108	124	1
-8312	-6200	14548	-4	1771	671	-17352	-3656	-1952	-388	2203	264	-16408	-6480	1816	-587	1214	281	-32768	4904	-2960	488	154	-452	656	1216	-19728	1633	1162	765	-17360	5520	11984	1238	345	353	100	124	1
-8484	-6416	14936	-30	2305	811	-18208	-4600	-2360	-261	2469	388	-17784	-6928	1312	-616	970	454	-32768	7960	1392	-1701	1440	-1264	-9232	4288	-20104	2045	3064	363	-12320	7224	2464	2112	343	616	132	123	1
-8976	-7236	14424	-139	2870	1116	-19160	-3616	-2320	-240	2737	391	-18440	-4896	3240	-426	507	582	-24008	6528	6840	-981	1961	-1080	-18584	7152	-16544	911	3186	-78	-4504	6352	13400	2333	-751	513	118	123	1
-8944	-7468	14544	-315	3448	1567	-19744	-1616	-928	-510	3002	428	-18032	-3992	6328	-305	-248	530	32767	-32768	20624	-1798	5479	-3282	-32768	1040	32767	4465	1056	-969	-13440	15264	-14144	1992	1714	-362	140	123	1
-9568	-8416	16652	-600	4318	2202	-24440	-5384	-2016	-1110	3179	504	-20664	-9760	11488	-858	-1260	96	-32768	12984	32767	-352	4809	-3157	-11920	16544	-26560	-4770	1304	621	-32768	16728	30912	-2666	607	2118	137	125	1
-10656	-17768	15908	-277	5295	3392	-32768	64	8680	-2331	3192	428	-23856	-3200	10288	-709	-1514	127	-17184	27776	12456	-211	2939	-2909	-26896	-12184	-16648	-4758	4169	-1499	-23592	-18208	-10664	-4200	2176	-1049	125	121	1
-22136	-17836	18672	406	6238	4587	-28744	-5376	1072	-3155	3480	376	-24376	4304	12800	-313	-1929	649	-32768	27024	26864	-2183	688	-1163	-16696	10248	-27024	-3063	2817	477	-20768	-9560	536	-2290	-57	459	130	121	1
-19052	-17988	18600	1271	6078	5062	-28536	-11624	3904	-3236	3466	491	-21664	-1368	-6088	-1158	-1291	231	-4448	8816	10904	-818	-122	-475	-13968	336	-15072	-3605	1833	665	-6608	688	-10976	1887	1403	-190	123	130	1
-22900	-14456	27988	528	6105	4516	-23648	-9136	-10256	-1420	3744	749	-28648	-6568	-11776	-1012	-1614	-672	-5496	11424	13416	-381	-17	-195	-20128	-8200	-14792	-1330	1533	163	-18016	2216	-13664	2111	2239	738	126	131	1
-1012	-27852	23896	-1532	4240	3111	-22608	-1848	-15368	362	3083	1092	-32288	1784	-8840	-37	-2734	-1285	-4544	11016	12832	-211	-11	-108	-16896	-6280	-9312	3303	1276	799	-21544	5656	-8832	2062	2064	553	127	129	1
-13244	-32768	30708	1302	-821	777	-21320	-4776	-8160	79	1391	353	-32768	5608	-8440	678	-3250	-1157	-4552	9480	13384	-100	19	-77	-18232	1760	-7816	4889	1050	984	-16352	6136	-2648	1108	1497	423	130	129	1
8904	-9140	16028	1094	-1600	577	-18512	120	-1944	-333	-66	-137	-31824	3864	-8648	568	-3302	-1352	-4096	9784	13144	86	69	-81	-18616	8304	-3936	3496	765	1041	-14768	7824	-2640	764	1608	-330	124	128	1
2196	-12796	13440	-622	-1816	-36	-12160	-896	-8544	224	-975	-77	-25144	3704	-8960	-342	-3138	-1663	-4280	10336	12392	169	104	-89	-15312	11560	-2664	240	585	575	-15272	6912	-2696	496	1529	-1023	123	135	1
544	-16124	12100	-131	-2715	-1119	-4776	1408	-7416	3	-1961	-317	-19880	4240	-8432	-988	-2755	-1514	-4248	10400	12544	172	90	-116	-14928	7368	-3960	-2161	798	-67	-14808	5720	-1432	113	1566	-908	133	134	1
-36	-8432	12532	-353	-3129	-2205	-4744	3088	-6832	-337	-2815	-466	-17024	2216	-9128	-1286	-2629	-1548	-4536	11160	11984	88	69	-136	-16856	1504	-4008	-2691	557	-339	-14904	5264	-2232	-166	1798	-704	223	133	1
-3724	-7984	13560	-1019	-3548	-3043	-9056	-696	-8664	68	-3674	-453	-14464	1504	-8664	-642	-2327	-1598	-4344	10096	12768	40	82	-128	-18392	-4816	-4504	-1385	351	191	-15488	2112	416	-492	2030	-444	151	133	1
-5804	-6992	13524	-1100	-4143	-3359	-7968	928	-7056	544	-4418	-652	-12872	2592	-9216	-88	-2034	-1377	-4536	9960	12632	105	109	-124	-16032	-3728	-3800	801	418	461	-14744	-728	1840	-530	2048	-518	111	134	1
-7424	-5468	13940	-1365	-4546	-3303	-7144	776	-6784	733	-5022	-718	-11792	2720	-9960	443	-1767	-1044	-4712	10368	12336	129	115	-121	-15104	2960	-1760	1875	589	518	-19344	-336	456	-228	2194	-525	115	134	1
-10784	-8196	15524	-1621	-4902	-3179	-8688	-1904	-8888	1296	-5662	-885	-8744	5640	-9104	831	-1763	-1003	-4816	10080	12344	90	108	-115	-14304	4968	-1360	1432	653	384	-14504	6960	4128	259	2156	-643	109	134	1
-13652	-8964	16968	-1889	-5198	-3244	-11848	-80	-9088	1253	-6038	-843	-4512	6432	-10752	605	-1615	-673	-4384	10448	12152	48	100	-114	-14112	6496	-152	171	816	235	-15048	8152	1984	783	2263	-320	118	134	1
-16096	-11384	17616	-2163	-5208	-3393	-14432	1424	-9680	1144	-6519	-805	-3792	4800	-11584	1054	-1008	-517	-4520	10400	12368	-4	93	-137	-15056	4832	-2000	-693	1046	175	-16536	8056	-624	246	1916	3	124	135	1
-20568	-16908	19340	-1973	-4907	-3709	-16632	1152	-11184	833	-6852	-879	-2016	5360	-10768	1336	-838	-216	-4584	10456	12640	-12	110	-167	-16288	2768	-3792	-751	1189	92	-15928	6168	-1400	-61	1684	49	124	135	1
-28324	-20780	23596	-1502	-4441	-4493	-22368	-2032	-17048	816	-7099	-905	-1776	5120	-8632	1378	-690	77	-4584	10240	12848	27	141	-207	-16120	576	-4120	-272	1220	147	-15328	3400	-1128	-98	1554	25	125	135	1
-32768	-13184	22332	-1821	-3669	-5336	-27728	-5272	-17752	828	-7157	-760	-2712	280	-5672	1727	-875	210	-4152	10424	13032	120	231	-290	-15464	976	-3704	373	1324	279	-15424	2824	-248	61	1353	-72	123	135	1
-32768	-6632	16240	-2606	-2787	-5017	-27168	-7760	-21160	276	-6448	-819	-8904	-6456	4192	2531	-1075	-702	-4656	9560	13440	189	463	-362	-16352	2320	-3264	647	1498	290	-15384	3776	1944	571	1225	-123	122	131	1
-32768	-4304	6320	-2293	-2278	-3933	-21560	-5128	-19616	421	-5137	-1197	-26664	-7440	18928	1100	-2160	-1887	-4152	10968	13664	385	699	-481	-17880	4016	-3352	464	1707	166	-16256	3464	2968	1069	1289	76	123	133	1
-32768	17656	-5196	-1977	-1999	-2509	-15024	-4736	-29192	324	-3305	-1149	-22720	-7352	32152	-1813	302	-380	-4560	9256	15208	406	1037	-700	-19032	1600	-3680	352	1873	163	-16728	4376	1832	1473	1342	117	125	139	1
-32768	31584	-18504	-3162	-1074	-965	-5512	3928	-18376	-2944	-1017	-768	-22944	-13400	19744	-2101	332	-272	-4432	10192	15360	667	1514	-797	-19672	752	-4848	360	2108	2	-17064	8048	328	1557	1368	3	113	126	1
-32768	13216	-18784	428	-203	1654	-3112	-7776	-18888	-3037	1555	-478	-16096	-12592	6544	-1533	1216	-102	-4712	10472	15264	998	2008	-989	-19288	2184	-3640	328	2358	-94	-18232	8728	2984	1150	1084	-167	116	132	1
-32768	3632	-3644	2575	970	2338	-13336	-10640	-21128	-23	3122	32	-8720	-11368	-152	-517	1253	-318	-4168	11888	15008	1340	2476	-1376	-19616	2544	-2328	121	2658	-170	-18072	7448	5752	476	455	-242	129	125	1
31100	-32768	18712	7094	3504	892	-11256	-8664	-9664	1965	4019	329	-360	-8024	-9440	-204	-332	-162	-3728	10248	15648	1943	3019	-1849	-21528	-2200	-3064	291	3009	-213	-18272	7408	12184	474	-739	-24	117	128	1
32767	32767	32767	3375	5115	1691	-32768	-2816	20584	4896	2032	-79	-25512	-26664	-5984	923	1659	348	-1200	13288	17168	2861	4072	-2388	-31176	-9152	1664	1483	3392	-466	-23440	4240	14288	1168	-1674	149	130	137	1
-32768	14244	32767	2166	3230	3343	-24288	7480	-8656	10534	3433	901	-32768	-7472	26224	7455	-33	-1661	-4640	15040	17344	3233	5466	-3508	-32768	-14912	4128	3310	3592	-169	-25624	-9304	19040	225	-2046	-412	129	130	1
-32768	-32768	-18280	1996	940	498	-23544	3416	-13096	-234	4085	464	-30456	32767	-16688	4772	2926	1825	-11904	25040	21008	2875	6437	-4516	-32768	4272	2720	4435	3493	-179	-23632	-4240	11280	2019	-1545	-1314	134	126	1
-9540	-9388	10332	938	-36	598	-17288	-11960	-16832	1599	2615	-1892	-11888	9104	-15504	1142	1329	348	-17120	32767	22776	1670	6291	-5164	-31264	17880	1080	2621	3806	-836	-25984	9624	-8080	4220	-1051	-588	126	122	1
-9180	-6080	13876	612	-106	254	-11000	-6696	-16528	2031	2168	-928	4024	6864	-11440	-1893	1807	702	-12880	31360	26088	2411	5702	-4946	-27464	5952	-8064	-1185	4008	-1503	-27896	16072	-11744	2384	-1882	715	119	128	1
-8968	-4920	13904	318	-37	168	-13744	7112	-11288	-980	1481	-67	-15120	-5904	-18136	-3332	1431	-316	-20624	32767	32767	1826	2919	-4395	-19552	944	-20080	-2706	2915	-1185	-28528	8184	-4792	-973	-3147	967	140	122	1
-8796	-5740	13052	201	5	79	-23688	-2472	-8944	-3444	924	-458	-24024	-7560	-7480	-2049	1727	-1587	9832	25224	27192	-1939	-1687	-1534	-21728	-792	-2320	-1350	1676	-781	-32768	-736	-6088	-2529	-3436	607	120	130	1
-8252	-6888	12392	43	118	68	-18152	-7448	-3744	-2775	598	-635	-19928	248	-5736	-400	1908	153	9016	12744	15464	-1324	-3000	-1910	-16968	-3136	-4592	264	-2	-13	-28144	-4072	-6592	-1891	-3100	914	116	122	1
-7888	-5948	13144	-63	161	53	-14760	-12320	-5016	-870	725	-582	-18496	-760	-3640	-846	1765	1163	7768	18064	11992	-1802	-4048	-1122	-8768	232	-7256	924	-1187	218	-24952	-2816	-7560	-103	-3274	1209	130	122	1
-8744	-8116	11684	-115	187	85	-13152	-9688	-3488	1522	831	130	-14400	-5520	-7256	-619	1740	1254	8200	11328	8184	-2051	-4428	69	-5752	-5400	-5336	1897	-1906	278	-20560	-784	-7672	1546	-3047	1320	155	124	1
-8364	-6976	12276	-23	147	83	-15824	-2888	-5280	1588	836	41	-13304	-6840	-3760	70	1711	1101	5480	9920	7232	-1256	-4324	1145	-7912	-1632	-6064	2583	-2821	389	-17984	2512	-8848	1753	-2690	1364	130	126	1
-8256	-6316	12580	-28	157	65	-19424	2904	-3208	257	529	-183	-13568	-5864	-3832	245	1678	1068	3344	11232	8160	-626	-4042	2217	-7984	656	-6768	2137	-3766	491	-14920	3576	-9584	1058	-2450	1176	121	125	1
-8144	-6324	12744	-119	216	45	-16048	-1560	-2640	-1204	387	-383	-16920	4864	144	588	1985	987	3024	11424	8480	-555	-4002	2380	-7096	1768	-6272	1588	-4597	710	-11536	3784	-10696	-22	-1994	862	118	127	1
-8152	-6388	12272	-172	250	51	-14944	-5760	-1648	-1409	425	-304	-15056	1312	1432	-58	2393	754	-2384	13688	11992	-124	-4080	3537	-8600	4320	-6800	751	-5092	883	-10024	2752	-10992	-734	-1691	685	119	128	1
-8284	-6872	11900	-154	238	78	-12496	-7512	-440	-801	589	-212	-14408	-4960	1368	-356	2496	366	-5176	15224	14432	22	-4505	3691	-10352	3400	-8392	-335	-5599	946	-9496	1440	-10936	-1073	-1391	553	118	127	1
-8456	-7980	11540	-76	266	166	-12696	-7152	-1184	-220	662	-249	-14336	-7008	-1632	-493	2095	129	-5728	15704	14904	64	-4592	3707	-11744	2336	-10128	-1090	-6175	1044	-7192	128	-11648	-1492	-1100	443	118	127	1
-8572	-7144	11392	70	230	216	-13960	-5632	-2184	-19	985	-167	-16408	-5592	-3808	-529	1592	87	-11656	19752	18136	562	-5425	3743	-14216	896	-9120	-1256	-6543	999	-5032	-1040	-12184	-2112	-861	353	118	127	1
-8596	-7328	11932	110	214	312	-15616	-4728	-3808	-303	1038	-178	-17184	-3992	-3576	-773	1497	170	-14128	26424	19592	635	-5525	3937	-16288	-1496	-12016	-1304	-6686	963	-3000	-4104	-12040	-3000	-741	191	120	127	1
-8744	-6464	12652	134	292	438	-16920	-3176	-3832	-759	996	-227	-16320	-448	-2992	-709	1451	181	-18080	32767	22696	188	-5048	4705	-24328	56	-16136	-966	-6997	963	-3248	-6408	-10728	-3103	-817	-109	119	126	1
-8608	-5444	12792	66	433	457	-15536	-2032	-3464	-1163	1037	-214	-15336	880	-1520	-662	1299	168	-28160	24312	25304	384	-4207	5647	-31512	-1096	-22544	-1005	-7223	1173	-6104	-3216	-2264	-2568	-748	-156	121	127	1
-8696	-5512	13000	9	650	386	-14408	-5232	-2040	-1107	1194	-130	-16288	-2512	-392	-957	1221	228	-32768	29200	20320	2157	-3211	5653	-27176	4072	-23744	83	-6263	1108	-13512	5104	6680	-2769	-888	848	123	126	1
-8956	-6824	12824	-27	862	471	-14632	-5616	-2184	-1007	1237	-119	-17048	-5856	288	-1363	1224	166	-32768	23784	11424	1277	-2731	4499	-21856	9040	-20784	-635	-5062	1486	-32608	4624	17696	-3066	-1153	2291	132	125	1
-8936	-7536	13352	-35	1184	629	-18088	-5280	-2320	-468	1732	-37	-17264	-6384	768	-1127	1291	31	-32768	-10584	6960	2425	-1675	2577	-18888	5968	-32768	-3066	-3265	1045	-11808	7376	32767	833	-75	-396	77	126	1
-8824	-6152	14168	-13	1591	783	-18160	-3264	-3112	-699	1953	19	-16472	-6208	-440	-713	1243	74	-32768	2112	-4584	2231	-1591	619	-3248	-5376	-25656	629	-992	727	-23344	8520	29696	432	156	825	112	125	1
-8808	-5752	14388	-93	2091	820	-17608	-3800	-3472	-653	2173	173	-16752	-5944	-32	-553	1189	321	-32768	160	-4352	-868	322	-1426	936	3248	-18976	2380	2075	673	-14872	8816	12216	1201	519	717	108	123	1
-8660	-6124	14208	-212	2617	940	-17960	-4936	-2136	-333	2417	275	-18384	-5024	1752	-440	916	526	-32768	9936	4024	-1625	1489	-1623	-14896	6216	-22136	1410	3732	57	-8712	3208	2464	1921	666	537	154	123	1
-9344	-8028	13552	-393	3132	1305	-18520	-4496	-1448	-131	2728	316	-18400	-4072	3368	-248	360	525	32767	32767	-4728	-6083	4748	-1932	-32768	26424	32767	6034	3011	-246	-312	1288	-6608	1707	566	-236	116	122	1
-9864	-7296	13856	-633	3777	1767	-19992	-3376	-2488	-657	2974	302	-18512	-3928	3648	-252	257	505	-32768	16696	28960	858	7066	-2089	-4368	-7744	-16848	-7085	1808	613	-26840	32767	9664	1666	2008	1494	140	126	1
-9004	-9088	15592	-1070	4915	2413	-28640	-1392	-2488	-1141	3154	456	-27256	-11624	16984	-960	-1962	-352	-19960	4872	32767	-71	3669	-3303	-13256	-9432	-22976	-5890	4643	-1097	-26656	-7680	6296	-4279	1941	-784	121	123	1
-17796	-17460	16588	-814	6120	3555	-32768	8304	10360	-3637	3147	235	-22112	5152	14368	-975	-2542	284	-9848	26384	7824	-338	3101	-1985	-27096	952	-9448	-3397	3547	-481	-23024	-18792	-16248	-4720	656	-395	120	123	1
-26836	-17364	26980	-424	6253	4317	-28160	-11232	1200	-4621	3504	279	-20992	9496	8200	-802	-1784	674	-7944	2904	21536	-1094	203	-652	-15472	1144	-14248	-4967	2160	660	-22232	-16512	-7448	-4207	109	33	121	125	1
-24420	-13932	23200	468	6175	4768	-27864	-12984	2200	-3141	3205	436	-25088	-4696	-11624	-2290	-1148	-233	-5832	5192	16888	-686	-77	-233	-16800	-8000	-16896	-3410	1404	197	-10984	3544	-10160	1331	2349	-100	121	133	1
-17492	-20280	21232	-1459	6111	4225	-24632	-6456	-7832	-515	3432	825	-30392	-4040	-9832	-1663	-2284	-1275	-4880	10312	13056	-346	-32	-113	-17376	-12008	-10616	1951	1453	209	-22008	1728	-12112	1467	2394	731	133	131	1
-32768	-32768	32767	-779	2103	2536	-17776	-1304	-30680	1514	2877	747	-31128	1904	-9152	-401	-3038	-1428	-4336	9448	13544	-232	-16	-82	-17680	-3512	-8376	5199	1071	956	-17832	2184	-2760	870	1539	774	129	130	1
-348	-26444	24504	1789	-1963	133	-21952	-640	872	-1060	603	-36	-32768	2840	-8632	789	-3335	-1323	-4024	9448	13248	-44	38	-71	-18280	4688	-5040	5072	979	1075	-15952	3992	-1288	877	1558	140	125	127	1
4896	-5280	14916	151	-1997	211	-16176	-512	-7536	-463	-437	-361	-29600	2352	-10128	495	-3235	-1814	-4024	9888	13248	108	81	-85	-16760	12728	-2240	2008	591	886	-16600	5664	-2712	976	1382	-791	123	131	1
-624	-15144	12900	-687	-2603	-672	-9216	-2744	-8744	601	-1288	-152	-23264	4504	-7896	-249	-3030	-1627	-4248	9880	13168	170	101	-101	-13872	9232	-4600	-1614	879	242	-15104	6000	-2704	708	1301	-931	124	135	1
436	-11092	11956	230	-3317	-1546	-3552	4696	-6760	632	-2117	-480	-19000	3896	-8400	-915	-2766	-1451	-4064	10536	12368	189	85	-108	-16824	5112	-4896	-3157	770	-427	-14656	5344	-1784	458	1503	-711	103	130	1
-636	-4036	13340	-461	-3431	-2344	-8408	3736	-6800	205	-2990	-297	-16864	1312	-8520	-715	-2631	-1530	-4496	10456	12272	83	54	-116	-17944	-3280	-4712	-2691	462	-188	-16032	4248	-1376	274	1734	-591	158	133	1
-5084	-6592	14624	-912	-3864	-2825	-8560	1584	-8328	225	-3886	-317	-14256	1192	-9144	-16	-2305	-1443	-4176	9760	12984	59	65	-105	-17112	-6472	-4768	-57	348	440	-16136	1592	552	27	1759	-440	149	132	1
-7032	-5884	14980	-914	-4514	-3048	-7320	3192	-7912	72	-4637	-448	-13120	1680	-9824	597	-2042	-1152	-4368	10320	12784	108	102	-104	-15352	-336	-3112	2018	593	567	-14552	104	1424	286	1864	-452	111	135	1
-8364	-5684	15156	-1157	-4940	-3071	-7728	1616	-7032	-48	-5238	-505	-11256	2528	-10200	987	-1866	-792	-4416	10424	12152	37	77	-119	-15504	5744	-2104	2230	632	520	-13536	4544	1432	561	2098	-558	110	133	1
-11272	-8208	16232	-1271	-5280	-3108	-10192	-176	-9208	455	-5767	-662	-8296	4000	-11112	1089	-1611	-550	-4520	10000	12576	-33	63	-126	-15232	7240	-1208	1069	624	276	-15440	8656	3144	518	2226	-528	121	134	1
-14452	-9356	16996	-1508	-5491	-3216	-12408	-32	-8984	706	-6289	-663	-5864	4384	-11688	1156	-1321	-394	-4424	10088	12792	-54	74	-132	-15000	5672	-1136	-260	795	106	-15168	9016	2976	470	2214	-551	117	134	1
-17684	-13744	17424	-1484	-5479	-3272	-13952	-120	-9592	1016	-6668	-717	-3248	4872	-11768	1207	-1020	-213	-4392	10144	12904	-43	96	-147	-15568	3432	-2104	-877	1028	64	-16464	7504	-1056	319	1940	-410	122	134	1
-23784	-19168	19936	-1100	-5239	-3612	-17824	-488	-11944	1399	-6879	-811	-2304	5816	-10536	1593	-784	32	-4552	10176	13000	-10	114	-184	-16016	1104	-3888	-622	1233	91	-17152	5296	-896	-376	1517	-82	122	135	1
-31480	-21920	22028	-664	-4737	-4611	-25024	-3696	-16680	1850	-7062	-715	-2592	6176	-7648	1935	-743	390	-4128	10376	13136	43	150	-282	-16376	888	-4288	1	1286	149	-15752	3328	-1024	-431	1549	-35	122	135	1
-32768	-12256	20232	-1225	-3771	-5491	-27536	-5120	-18344	2031	-6880	-494	-4744	728	-1936	2449	-1153	364	-4280	9576	13400	34	336	-417	-16368	984	-3912	495	1310	241	-15312	2560	-32	218	1454	-188	123	135	1
-32768	-4932	14264	-2095	-2934	-5185	-27832	-6768	-20472	994	-5904	-459	-14032	-6584	11584	3044	-1775	-882	-4424	8880	14600	138	554	-459	-16216	2200	-3528	706	1496	219	-15136	3064	2432	729	1335	-226	123	129	1
-32768	2788	3220	-1608	-2381	-4079	-17600	-4312	-24984	1563	-4462	-831	-26776	-4688	24472	1317	-1281	-1754	-4680	10208	13448	432	756	-595	-17896	3488	-3224	554	1744	106	-15968	2832	3024	1032	1347	39	124	135	1
-32768	6912	788	-1503	-2256	-3826	-13880	-3208	-21504	-505	-2887	-475	-21928	-2016	30336	-1546	409	-21	-4680	10056	15216	367	1106	-701	-18016	2176	-4248	426	1956	78	-16176	2736	3240	1109	1358	64	122	138	1
-32768	23964	-19540	-1602	-1017	130	-2096	-1424	-19992	-3245	-208	-815	-20264	-6984	16576	-2413	198	-207	-4184	10416	15400	512	1591	-839	-19416	2272	-3776	175	2191	-155	-17368	9808	592	1653	1407	-142	121	142	1
-32768	7552	-13736	1344	38	2075	-5480	-10280	-20328	-2286	2014	-261	-15632	-12184	5056	-2463	1033	-463	-4680	10360	15752	557	1652	-877	-20024	3016	-2888	60	2448	-244	-18440	10624	3336	996	1032	-282	118	127	1
-32768	108	-2064	2152	1175	1502	-12336	-9848	-19872	801	3468	234	-8304	-12672	6744	-1155	-953	-762	-3960	11568	15680	982	2640	-1536	-20528	1384	-2424	55	2836	-361	-17960	9344	6256	323	411	-276	129	131	1
32767	-7800	13652	3440	4541	3086	-32768	-6088	32767	-1257	433	252	-10592	-16272	-5264	-929	913	161	-3152	10832	18968	1408	3319	-2036	-25368	1480	-3152	446	3210	-515	-20760	14240	10016	663	-393	-39	118	127	1
-32768	1244	32767	1822	5563	2277	-19560	-14696	-22864	5376	3229	-808	-32768	-24136	31024	4976	-435	-1329	-1968	18144	16328	2048	4250	-2985	-32768	-7904	4432	1134	3416	-735	-25896	5784	16936	234	-1459	209	126	128	1
-25852	-8352	22452	772	2191	2599	-21704	20224	-20032	4096	4710	1310	-32768	-15808	25536	5754	-281	-1219	-4056	20632	20952	1810	5519	-4283	-32768	-7288	5336	2872	3762	-319	-24808	-4264	20968	-673	-2042	-633	130	118	1
-4144	24252	32767	1806	8	921	-20480	-1280	-21112	964	3463	-723	-14656	19104	-19200	3007	1688	699	-17008	26200	25672	1107	6249	-5280	-32768	9536	280	2712	3874	-435	-26232	-2720	10504	413	-1858	-739	136	128	1
-12112	-12384	10036	824	-184	278	-11456	-1264	-11344	1199	2002	-1514	-1400	9048	-9432	-1233	1560	665	-14288	24320	25440	-62	6450	-5708	-28760	10704	3800	1181	3826	-833	-24840	5648	-9864	2476	-1634	-37	124	125	1
-9984	-8620	12952	480	-95	183	-13512	1520	-11344	12	1682	-498	-9600	-2736	-15096	-2845	1673	83	-9816	29128	25896	1502	5430	-4847	-24848	3016	-8232	-693	4017	-905	-28640	6168	-10856	1796	-2181	853	120	124	1
-8572	-8292	11732	220	4	125	-20872	640	-7160	-2615	1224	-378	-22696	-9840	-11320	-2361	1706	-1089	-24520	32767	32767	598	1454	-3027	-16232	1352	-30472	-2788	2778	-718	-31056	2032	-5656	-98	-3085	1051	120	124	1
-8056	-5676	12920	134	44	85	-19792	-4872	-5984	-3107	922	-484	-20352	-2184	-2456	-477	1847	-599	14504	16360	19256	-1620	-1522	-832	-23376	-3856	1472	-46	1232	-200	-32768	-2712	-6504	-1268	-3693	898	118	125	1
-7828	-6216	12944	-5	137	89	-15464	-8152	-3440	-1695	795	-575	-19280	792	-2888	-381	1862	666	8880	7416	13032	-422	-1946	-1096	-13816	-5808	-6048	783	-565	478	-26848	-2968	-7664	-784	-3363	1318	110	123	1
-8180	-6648	12436	-69	174	78	-13688	-11832	-5712	390	882	-429	-15504	-4360	-5600	-857	1761	1212	9216	13888	11664	-218	-2641	133	-4456	-5312	-7096	1694	-1357	497	-23528	-1712	-7720	664	-3145	1493	39	124	1
-8204	-7112	12192	-57	164	90	-14816	-7464	-5112	2118	908	-69	-13088	-6048	-3608	-352	1673	1174	7896	7784	11048	-471	-2832	1483	-4464	-6280	-5056	2590	-1982	582	-18824	-1712	-8120	1739	-2993	1359	117	123	1
-8392	-7020	12096	32	118	74	-16696	200	-4632	1424	874	56	-14264	-5888	-4352	201	1668	921	4176	7072	11912	141	-2977	2533	-8392	-320	-5528	2310	-2936	698	-17848	856	-8592	1707	-2611	1350	117	125	1
-8032	-6612	12468	30	111	61	-17880	808	-4128	-107	624	-216	-18248	672	-1728	475	1649	761	1216	9104	13712	173	-3344	3219	-7408	240	-6464	1098	-3952	949	-14752	1368	-9488	934	-2392	1179	134	126	1
-8084	-6556	12652	-38	148	59	-16184	-1232	-3024	-1232	412	-384	-16752	5360	-960	277	2011	816	640	8944	13800	148	-3437	3290	-5896	472	-5624	256	-4683	1073	-12720	1232	-9864	-23	-2081	745	123	128	1
-8128	-6648	12448	-88	179	79	-15160	-5016	-2912	-1343	472	-374	-14424	2744	-112	-315	2191	880	-4440	9592	15912	337	-4896	3449	-6928	-72	-6520	-334	-5128	1126	-10648	-8	-9952	-662	-1945	475	119	128	1
-8256	-6592	12344	-120	183	97	-14504	-5880	-2840	-666	570	-266	-14360	-3000	120	-203	2385	920	-5624	11696	16312	335	-5565	3276	-9184	-1560	-7288	-597	-5671	1221	-7416	-968	-10224	-955	-1653	393	119	127	1
-8156	-6848	12176	-108	188	139	-14200	-4864	-2032	-168	705	-279	-15192	-5704	-32	-154	2432	677	-7944	13032	18624	695	-5923	3140	-12744	-1360	-9416	-641	-6375	1345	-4976	-1752	-10752	-1060	-881	168	119	127	1
-8080	-6428	12204	-12	324	232	-14568	-3984	-2264	-114	844	-268	-15216	-5352	-136	-182	2402	598	-10960	18784	19856	1068	-6062	3120	-15608	-3848	-8824	-282	-6723	1237	-3800	-2040	-12192	-1337	-700	40	119	127	1
-8432	-6488	12108	10	364	260	-15112	-3840	-3472	-376	952	-219	-16784	-3776	-3608	-480	1729	133	-13080	24976	22720	968	-5736	3530	-17728	-3704	-12280	293	-6877	1207	-3360	-4648	-12712	-1868	-575	-97	118	127	1
-8532	-6548	12216	-33	443	326	-15920	-4288	-4136	-562	986	-209	-17384	-2104	-2904	-510	1689	201	-19496	32767	27624	603	-5181	4512	-27584	8	-17864	731	-7088	1434	-3248	-3576	-10320	-2163	-512	-212	119	126	1
-8604	-6204	12568	-25	563	399	-16112	-3552	-4048	-735	1019	-218	-15960	-1984	-2000	-517	1587	325	-30768	26416	27184	947	-4459	5673	-31360	2560	-17096	535	-7215	1521	-7032	1872	-2704	-2111	-800	-61	118	126	1
-8696	-6384	12908	-44	765	429	-15944	-3424	-1696	-843	1160	-132	-16928	-4496	480	-450	1389	410	-32768	26280	26576	1187	-4318	5712	-27576	7576	-21040	-22	-6336	1451	-16216	8344	9664	-2476	-1336	1158	122	125	1
-8684	-6532	13260	-71	1018	470	-15920	-5320	-696	-727	1444	-54	-17904	-6744	2672	-482	1276	411	-32768	15072	8528	1287	-2883	3950	-19120	8104	-20072	-1989	-4532	1342	-32768	4000	24592	-1943	-1453	2084	132	124	1
-9020	-7664	13520	-92	1366	630	-17544	-5856	-368	-478	1814	13	-18392	-5616	3824	-505	1230	260	-32768	-14832	6008	2679	-1401	1985	-17896	2464	-32768	-3276	-2872	660	-13272	12256	32767	1212	135	9	137	125	1
-8704	-5988	14016	-32	1753	782	-17920	-3632	-1776	-522	2167	105	-16208	-4648	3192	-555	1216	161	-32768	-144	-4032	1018	-1292	0	456	-5320	-24048	1250	48	603	-19968	7472	23992	869	297	913	101	124	1
-8756	-6216	14228	-93	2271	837	-17104	-4000	-2608	-360	2447	301	-16856	-5552	1760	-711	1128	302	-32768	-760	-904	-1191	491	-1884	2280	-3320	-22288	1754	450	724	-14680	7136	8944	1443	261	706	145	123	1
-8940	-6988	14156	-237	2824	1083	-18624	-3400	-1840	-144	2730	355	-18936	-4256	2184	-766	605	467	16624	-5088	6464	-7359	4113	-5321	-32768	25072	27512	7119	3985	188	-16696	9240	5416	2470	-286	273	110	124	1
-9188	-7436	14816	-324	3403	1448	-19776	-4392	-2976	-413	2950	397	-17352	-6944	2352	-683	31	367	-32768	25944	17640	-573	5520	-2305	-19064	-9792	-5208	-4031	2041	-839	-11624	24744	18112	288	1028	1538	142	124	1
-10864	-8912	14480	-489	4323	2042	-25472	-4416	-3744	-528	3192	615	-24672	-14216	9320	-605	-1182	-179	-21832	2032	31752	675	4043	-2016	-10768	-14152	-20648	-5262	3837	-1589	-24576	-5216	7432	-1412	2475	-1545	146	125	1
-10548	-17988	15276	-600	5489	3218	-32768	3728	9696	-1913	3331	435	-24216	-2312	14448	-259	-2595	89	-8592	26456	4304	-125	2419	-2118	-18224	1624	-13152	-2779	3856	-789	-16296	-21080	-20144	-4704	478	-1121	133	121	1
-22068	-17084	19652	337	6079	4615	-30736	-2960	2624	-3386	3525	203	-22248	11600	13976	968	-2285	661	-6408	23248	3480	-212	2531	-1911	-12320	15624	-13232	-3963	2880	691	-11624	1648	-10728	-493	-235	202	123	124	1
-23568	-20456	24600	1064	6023	5048	-29760	-13080	1304	-3314	3355	461	-24768	2104	-7240	-1428	-1481	211	-7632	11112	14640	-840	-150	-212	-18800	-24	-18432	-4698	1600	346	-18728	5216	-13112	1484	1895	360	124	131	1
-18024	-16820	22644	687	6190	4782	-23320	-8680	-6408	-1716	3372	598	-27928	-4832	-12624	-2193	-1555	-993	-4648	11392	12840	-425	-60	-94	-21680	-13296	-13232	67	1686	-439	-21520	2304	-11944	1080	2337	698	135	131	1
-1756	-23548	14436	-1778	4826	3018	-21072	-624	-18248	405	2981	1049	-30920	-512	-9560	-1439	-2603	-1601	-4168	9816	13440	-313	-20	-72	-16016	-4696	-8608	4134	1299	813	-19112	3032	-3424	711	1601	651	128	129	1
-14164	-32768	31444	1180	-727	-87	-18544	-4448	-9040	43	1220	544	-30960	984	-7296	125	-3119	-1367	-3848	8824	13984	-142	16	-88	-16448	-800	-6192	5337	1100	894	-16344	1808	152	396	1642	290	124	130	1
9264	-6972	17292	1233	-1938	-56	-17800	-176	680	-1116	-195	-144	-31208	1664	-9056	944	-3150	-1573	-3888	9104	14056	49	69	-80	-18192	9736	-2472	3744	714	929	-16152	3488	232	662	1506	-721	126	128	1
940	-8704	14700	-925	-2302	-417	-11688	-3568	-8976	446	-962	-101	-23776	4088	-7504	207	-2937	-1651	-3896	9720	13416	122	98	-92	-14328	13000	-2848	9	723	490	-14272	6552	-2192	826	1369	-1008	127	131	1
-344	-15736	12448	-192	-3324	-1120	-4952	376	-6680	877	-1884	-295	-19184	4872	-7288	-620	-2587	-1265	-3984	10096	13040	110	83	-103	-14816	8408	-4624	-2693	955	-253	-14952	8144	-2496	637	1448	-681	122	133	1
24	-5828	12708	-186	-3734	-1796	-6832	5232	-6024	333	-2653	-455	-17264	1040	-7896	-1061	-2451	-1300	-4088	10208	12824	68	53	-118	-16944	2552	-5480	-3734	614	-558	-15856	5360	-952	232	1515	-468	98	133	1
-3152	-6964	12856	-903	-3902	-2299	-9960	888	-6712	-54	-3516	-279	-15352	-224	-7880	-289	-2223	-1436	-4088	10272	12696	59	55	-117	-18016	-6656	-5720	-2061	422	-38	-16384	2040	312	127	1538	-608	142	133	1
-6184	-7488	13664	-889	-4335	-2611	-8152	2040	-7624	51	-4303	-406	-13056	864	-8720	545	-2040	-1190	-4192	9488	13032	19	79	-92	-16280	-6056	-5040	1126	445	372	-15144	-384	648	383	1663	-454	134	134	1
-8172	-6596	14592	-1100	-4690	-2914	-7712	1992	-7168	-44	-4866	-437	-11152	1800	-9080	1053	-1804	-806	-4016	9832	12984	47	93	-88	-14896	936	-2728	2700	584	574	-15152	-424	1080	1081	1932	-540	107	133	1
-10244	-8972	15416	-1249	-4997	-3161	-9832	48	-8440	280	-5349	-570	-8488	2856	-9952	1157	-1591	-584	-4368	9960	12592	-2	80	-99	-15352	6400	-2496	2306	586	471	-14264	3640	488	1349	2043	-782	116	133	1
-12448	-9648	16452	-1294	-5200	-3361	-12608	-856	-8544	553	-5875	-593	-6792	3240	-10384	1133	-1377	-422	-4400	9768	12928	-50	73	-110	-15592	7984	-2488	786	635	169	-14848	8456	1864	1017	2212	-969	122	133	1
-15716	-12604	17696	-1360	-5237	-3557	-13120	-960	-8064	591	-5941	-595	-5688	3112	-10504	1227	-1095	-312	-4208	9960	13112	-92	77	-130	-15496	5640	-1872	-625	729	-10	-14744	10552	1984	608	2422	-831	120	134	1
-19248	-16424	18968	-1110	-5088	-3831	-16672	-1304	-9888	1681	-6495	-650	-4848	3280	-10736	1658	-832	-107	-4280	9656	13312	-106	89	-152	-15408	5152	-2472	-738	749	-5	-15200	8536	-1472	354	2154	-578	119	135	1
-24424	-20764	21820	-852	-4674	-4227	-23312	-2304	-13640	2142	-6807	-589	-4624	5376	-8448	2210	-719	158	-4240	9896	13152	-92	114	-209	-15416	184	-3584	-329	1153	39	-17824	4232	-1640	-422	1590	-142	122	133	1
-32768	-17612	22220	-898	-3963	-4904	-27336	-3040	-15424	2447	-6935	-390	-5992	5408	-4600	2756	-982	432	-3696	10344	13272	-69	175	-302	-16024	1704	-3824	336	1252	111	-16512	3592	808	-514	1377	-112	123	130	1
-32768	-8724	17864	-1482	-2857	-4950	-27240	-3320	-15752	2422	-6886	-382	-11544	-1880	6536	3473	-1651	-93	-4464	9624	13528	-107	330	-449	-16616	2080	-3856	590	1326	183	-14952	4936	2120	339	1424	-295	123	133	1
-32768	-4960	8248	-1699	-1945	-4130	-23792	-3368	-16136	802	-5067	-503	-25184	-6880	20448	2809	-2317	-1622	-3760	10456	14592	60	457	-537	-16808	3840	-3456	577	1560	85	-15216	5096	2648	765	1368	-282	120	136	1
-32768	11052	-1836	-1290	-1621	-3150	-13128	-6240	-26776	602	-3369	-701	-20368	2080	30816	14	-130	-218	-3320	11536	14752	225	754	-694	-18152	2960	-3104	429	1807	-19	-16600	3672	2736	782	1237	-58	122	140	1
-32768	28960	-12460	-2449	-1085	-1481	-9104	128	-18160	-1979	-1514	-574	-20056	-2992	20688	-2502	54	-223	-3976	9232	16704	181	1244	-763	-18736	2024	-3968	368	2076	-120	-17728	6328	3328	1118	1188	-128	118	142	1
-32768	13960	-16692	-400	-635	939	-3984	-7712	-19328	-2613	787	-537	-18160	-7184	9032	-3526	397	-332	-3896	10256	16536	333	1787	-985	-21008	1880	-3392	80	2345	-298	-19720	8416	3072	1430	1073	-234	129	136	1
-32768	4560	-8228	1992	261	1982	-4824	-8984	-19648	-2472	1099	-476	-14440	-13624	5096	-2637	336	-904	-3904	10656	16944	562	2399	-1291	-21048	1336	-3264	72	2673	-372	-19552	9104	6304	1256	597	-355	117	129	1
32767	-32768	1920	5857	3435	2217	-14648	-15680	1904	357	3622	207	7800	-8304	-9736	-1487	1038	-679	-3376	10928	17848	944	3008	-1793	-22208	-112	-3472	214	3078	-443	-19208	12880	10296	1351	-537	-199	124	138	1
-15208	23396	19664	864	6452	2322	-32768	14976	-15752	6779	3327	-232	-28544	-21776	5024	221	1130	4	-1960	17904	19384	1340	3881	-2462	-31488	560	640	796	3473	-693	-21096	14992	12656	1430	-934	136	123	119	1
-32768	4744	32767	1408	3652	2686	-20008	-8248	-5552	6234	3411	1118	-30728	1960	9728	4865	978	-159	-2432	17040	20712	1463	4642	-3658	-32640	-4752	1776	1366	3650	-480	-23944	1408	18352	-599	-1050	-163	132	134	1
-32768	-32768	23748	1659	1266	1762	-17576	5312	-18216	1376	3745	59	-24488	19344	-7712	4524	1719	929	-6864	23136	23456	916	5695	-4844	-32768	-1728	3744	2518	3802	-447	-26608	-5000	12856	-771	-1328	-550	134	120	1
-8372	9632	27632	786	-139	515	-17344	-4392	-19640	2138	2753	-1207	-12592	9144	-17536	738	1322	158	-5024	22504	23432	48	6155	-5623	-32768	8928	1472	2472	3803	-490	-27320	192	-1368	1063	-1813	-147	129	135	1
-6888	-172	17524	679	-205	277	-14552	1976	-13360	1991	1947	-878	-8416	6280	-8696	-1801	1743	233	-13136	29032	23424	212	6150	-5604	-23976	7232	-2856	1710	3978	-610	-25096	6096	-11512	1945	-2131	562	121	127	1
-7876	-5256	14104	275	13	101	-17624	3600	-10312	-174	1329	-446	-18320	-4824	-12584	-1957	1770	-57	15624	25824	28672	1154	3134	-3367	-20488	2144	-19256	-1175	3172	-907	-29632	6864	-10520	494	-2978	1159	119	125	1
-8444	-7680	12468	115	51	55	-18648	-752	-6496	-2630	982	-570	-19032	-4920	-5880	-924	1636	-600	11264	32767	23776	-1455	-607	-773	-23792	2656	-2912	-397	1805	-601	-32768	4352	-5952	-1203	-3515	1041	119	131	1
-7792	-6640	12728	5	114	55	-17720	-5984	-4616	-2949	830	-482	-18200	-2160	-3544	-511	1765	-223	10320	3040	12696	-1199	-741	-961	-17352	-4800	-4144	275	-4	57	-29240	-2480	-7336	-1311	-3253	1095	118	127	1
-8028	-6860	12564	-77	158	59	-15272	-10864	-4336	-1308	733	-468	-17408	-3056	-3960	-572	1795	587	9152	16504	11240	147	-1560	64	-6400	-3064	-7728	475	-886	154	-23824	-2744	-6912	-431	-2829	1537	117	124	1
-8272	-7024	12208	-76	134	69	-13864	-8696	-5328	843	790	-336	-14984	-3888	-3872	-589	1693	1071	9304	10088	10464	-657	-1944	1371	-4552	-4448	-4344	1488	-1395	235	-20080	-1848	-7272	679	-2907	1410	116	124	1
-8180	-6808	12296	-74	140	54	-16240	-3296	-5312	1571	717	-112	-14464	-3856	-2784	-117	1696	1070	5816	5896	10264	100	-2273	2368	-8112	-936	-5000	1138	-2509	410	-18008	216	-7624	1254	-2755	1536	119	123	1
-8120	-6976	12188	-56	144	31	-17040	104	-3048	879	581	-27	-16168	-2288	-1960	296	1633	966	2592	9072	12408	257	-2656	2959	-7368	-792	-6424	273	-3447	544	-15936	912	-8256	1006	-2436	1450	124	125	1
-8196	-6848	12276	-56	138	15	-15944	-1008	-2800	-358	538	-325	-16816	984	-712	218	1700	806	672	8208	13744	175	-3268	3340	-6264	-728	-5960	-165	-4232	723	-14328	1280	-9024	278	-2273	1130	120	126	1
-7988	-6720	12276	-76	148	27	-16096	-3688	-1952	-991	449	-395	-15584	2848	568	-169	1918	648	-2184	9456	14800	264	-3931	3429	-7168	72	-6336	-512	-4785	800	-13824	1776	-9168	55	-2218	1023	120	127	1
-8320	-6952	11920	-64	137	53	-14320	-5216	-1600	-972	493	-316	-13808	-64	600	-663	2026	605	-4856	11664	16552	321	-4653	3413	-9256	-704	-8384	-687	-5369	835	-9808	408	-9712	-987	-1754	581	120	128	1
-8228	-6852	11980	-27	112	79	-13784	-5376	-1024	-658	648	-254	-14120	-4056	1296	-681	2080	633	-7120	13960	18072	463	-5361	3422	-11072	-1160	-9576	-610	-5968	958	-7696	-344	-9768	-1366	-1397	579	120	127	1
-8160	-6864	12064	4	97	99	-13560	-4608	-1504	-284	829	-243	-15664	-5336	1536	-401	2172	404	-10264	15976	18896	735	-5803	3409	-13464	-672	-9104	-303	-6451	989	-6528	-1856	-10968	-1652	-652	356	119	127	1
-8256	-6816	12056	30	83	134	-14576	-4696	-2560	-156	985	-241	-14856	-4488	-2080	-470	1917	122	-11472	19384	18568	875	-5764	3420	-15336	-3160	-10016	38	-6657	1059	-5376	-3112	-12480	-2185	-527	141	120	127	1
-8180	-6856	12216	22	88	173	-15464	-4184	-3832	-266	1052	-184	-16832	-4344	-4848	-527	1553	121	-13640	24048	21824	915	-5050	3556	-19136	-2872	-13392	416	-6837	1147	-4672	-5528	-10920	-2687	-514	-85	122	127	1
-8160	-6864	12284	-11	117	270	-15672	-3504	-5112	-467	1028	-196	-16656	-2312	-4968	-364	1453	256	-22744	32767	27200	919	-4654	4367	-29680	-104	-21736	404	-6944	1635	-4536	-5104	-5976	-2622	-615	-177	122	127	1
-8304	-5168	13136	32	305	357	-16048	-2856	-5208	-629	974	-230	-15464	-1456	-4032	-291	1363	373	-32656	24624	27000	1757	-4102	5270	-28728	2200	-18024	414	-6873	1589	-8176	-1488	1592	-2286	-959	9	123	126	1
-8380	-5916	12668	-111	465	336	-16128	-3024	-3768	-818	1048	-132	-16160	-2400	-1296	-356	1268	407	-32768	25464	20544	2192	-3445	4755	-26312	7160	-19280	-115	-5846	1426	-20672	7416	16512	-1608	-1215	1105	129	126	1
-8232	-7388	13140	-171	663	377	-15712	-5584	-1984	-776	1238	-98	-16320	-4288	2680	-484	1290	318	-32768	8136	11096	979	-2488	3575	-19032	5984	-20184	-2015	-4078	1171	-25840	6312	29208	348	-509	1279	119	126	1
-8432	-6700	13524	-112	987	480	-17392	-4864	-1776	-523	1540	-41	-17584	-5384	2808	-627	1362	138	-32768	-8016	4008	2101	-1572	1445	-15672	-1208	-24888	-1526	-2443	364	-16920	11728	32767	1403	197	669	128	125	1
-8556	-6880	14280	-152	1414	567	-18384	-4264	-2648	-414	1840	116	-18096	-5960	1200	-644	1377	123	-32768	-5472	1824	2122	-1621	1086	248	-1152	-20688	1432	541	783	-19400	8240	17424	998	191	796	113	125	1
-8180	-6712	14632	-174	1938	673	-18584	-3824	-2368	-276	2098	223	-18320	-6808	448	-515	1149	451	-32768	3504	3472	-1031	827	-1730	-6696	56	-21408	1659	2848	329	-14240	6464	6696	1557	157	237	130	125	1
-8480	-7616	14344	-282	2439	871	-18232	-4040	-1256	-155	2382	311	-18808	-5920	2688	-193	662	595	-26904	6296	8264	-932	1509	-1491	-16208	360	-18168	1194	3517	-158	-10600	3096	4768	1906	147	66	139	124	1
-8688	-7884	13948	-439	2975	1205	-18616	-2256	-1536	-278	2694	313	-18784	-5160	5160	15	-12	469	32767	-30696	9432	-3565	4120	-3100	-32768	10160	32767	6290	1151	-691	-7472	9864	-15232	2051	1451	-892	160	123	1
-8356	-8068	16692	-611	3765	1624	-23496	-3336	-2536	-736	2942	421	-21688	-8816	9280	-246	-887	18	-32768	9944	32767	-557	4819	-2727	-5312	9080	-25112	-4814	956	391	-27016	24512	21408	-342	531	2187	137	125	1
-9828	-13960	13724	-854	4866	2430	-32288	3136	6512	-1789	3120	491	-24552	-3552	13760	-647	-2069	-255	-18280	20408	21328	136	2933	-2822	-25248	-7920	-15224	-4633	4167	-1550	-22288	-10520	4920	-4541	2350	-1117	121	126	1
-9564	-17696	18292	-620	6116	3625	-31400	3120	4640	-2816	3308	230	-23576	8472	18544	-44	-2492	644	-8936	15064	14872	-174	2413	-1268	-22664	1904	-10296	-3091	2733	-51	-23312	-18840	-12376	-3710	790	-450	125	123	1
-22764	-12964	19316	141	6654	4484	-29576	-5752	304	-3502	3340	332	-22536	6944	3240	-1157	-1657	838	-3344	2112	13136	-1089	62	-569	-12824	6656	-11656	-2988	2261	214	-10744	2032	-10304	1060	484	-87	118	128	1
-21812	-19284	25040	1062	6312	4866	-26256	-14832	1032	-2669	3145	803	-23528	-5424	-11144	-2709	-1257	-118	-8032	13024	14296	-597	23	-256	-15984	-512	-13704	-2251	1376	346	-11408	6432	-9720	1988	2300	-69	125	131	1
-17988	-22912	20392	95	6213	4389	-22736	-7920	-10536	-916	3288	794	-27952	-7096	-10184	-1720	-2020	-1371	-5024	10504	12888	-330	-18	-94	-20312	-5120	-10296	509	1235	119	-22272	4464	-12232	1805	2253	845	129	135	1
-13596	-32768	22136	-561	3639	3072	-16704	-2424	-24576	1623	2671	1074	-29824	-4488	-9128	-389	-2899	-1520	-4328	9872	13136	-267	-36	-46	-17680	-3784	-6664	2934	1001	561	-17928	4472	-2960	829	1565	378	126	130	1
-5296	-30532	28508	1323	-1535	17	-18648	-3264	-1240	100	963	576	-30880	-1520	-7344	1339	-3067	-1230	-4136	8960	13928	-89	0	-59	-16712	-808	-4880	4005	712	844	-15160	2344	192	226	1481	-105	135	130	1
7308	-8324	14152	631	-1976	424	-15144	-2016	-3176	22	-410	37	-28560	2456	-8192	1282	-3075	-1619	-4016	9752	13280	96	46	-58	-17992	8104	-2960	3206	539	859	-16336	4080	-1960	546	1523	-947	117	129	1
-464	-14532	12688	-194	-2670	-202	-9640	-4768	-8712	1187	-1148	168	-20984	3184	-7304	197	-2704	-1386	-3928	10352	12584	146	71	-69	-14736	12184	-1032	288	550	461	-14760	5816	-768	795	1482	-939	126	132	1
-228	-15504	10264	506	-3525	-1077	-4648	576	-6480	898	-1982	-51	-17872	1400	-7688	-541	-2435	-1242	-3856	10344	12648	113	26	-102	-14744	8576	-2416	-2211	662	-210	-14400	6072	-1144	468	1450	-796	130	131	1
-1036	-10112	9860	301	-3763	-1789	-8432	1128	-6648	13	-2786	-54	-17048	-216	-7392	-546	-2321	-1435	-4120	10880	12032	-2	-17	-141	-17112	1016	-2960	-2782	454	-263	-14840	4184	-1400	277	1574	-651	136	132	1
-4576	-10168	10000	-242	-3897	-2419	-9048	-2168	-8368	224	-3721	9	-15056	-784	-7808	405	-2056	-1430	-3960	10064	12760	-97	3	-161	-18104	-6328	-4328	-454	325	187	-14816	2608	1376	124	1737	-485	129	133	1
-7344	-9496	10756	-450	-4198	-2879	-6328	-208	-7408	328	-4386	-81	-12688	1232	-8536	1059	-1867	-1144	-4096	9688	12784	-47	56	-150	-15272	-1064	-3072	2016	531	459	-14632	3336	2640	28	1834	-376	117	134	1
-9360	-8900	11844	-764	-4536	-3160	-6688	-504	-7736	373	-4883	-194	-10608	3040	-9128	1389	-1604	-849	-4320	10536	12152	-45	68	-136	-15224	6512	-200	2464	649	426	-14544	7768	3672	536	2093	-440	108	133	1
-11188	-10256	12836	-968	-4832	-3294	-10256	-1416	-8784	622	-5373	-371	-8224	3848	-9744	1234	-1361	-693	-4472	10144	12448	-124	46	-121	-15064	9104	96	1217	733	145	-15576	10032	1432	939	2169	-589	118	134	1
-13864	-10720	14596	-1226	-4978	-3416	-12128	-1632	-9688	707	-5933	-399	-6656	3456	-10224	1145	-1110	-497	-4288	10368	12616	-190	43	-137	-15176	7896	1320	-349	923	-138	-17352	9472	520	380	1798	-421	119	134	1
-17676	-14040	16204	-1393	-5066	-3550	-13408	-1048	-10304	739	-6327	-524	-4976	3352	-10448	1333	-797	-267	-4104	10072	13152	-179	51	-169	-15696	4080	-208	-1233	1156	-157	-16776	6896	2456	-143	1323	-125	122	134	1
-22376	-19156	17596	-1018	-5026	-3790	-17352	-1696	-10976	874	-6595	-771	-4160	5392	-9576	1794	-467	-14	-4360	10024	13400	-130	80	-202	-16352	920	-2656	-884	1367	-113	-16192	3656	2176	-45	1278	-32	122	134	1
-28884	-20624	20068	-538	-4589	-4447	-23424	-4064	-16136	1698	-6741	-790	-4792	7008	-7048	1944	-452	250	-4152	9888	13480	-71	134	-238	-16360	144	-3736	-24	1453	-13	-15216	2640	984	391	1349	-68	122	132	1
-32768	-10140	19668	-1198	-3490	-5092	-27720	-4800	-17192	2278	-6599	-538	-7560	1272	800	2177	-906	256	-4184	10480	13080	46	167	-323	-16088	1792	-3400	664	1514	95	-15184	3408	280	746	1314	-180	123	135	1
-32768	-5028	13328	-2211	-2519	-4632	-27832	-4640	-17448	2249	-6481	-467	-15880	-6664	12600	2011	-1424	-978	-3560	10728	14160	31	413	-532	-16400	3488	-2872	816	1661	143	-14928	4168	536	1078	1193	-258	124	135	1
-32768	-780	2872	-1075	-2124	-3398	-17152	-3176	-20360	1020	-4285	-840	-26848	-4408	19792	892	-852	-1878	-5008	7792	15056	207	756	-636	-17984	1840	-4688	547	1843	40	-16008	4208	1088	1111	1195	-95	119	135	1
-32768	19976	-4964	-1128	-1726	-1886	-13536	-4632	-24384	-66	-2738	-694	-20368	-2432	27056	-1532	362	-89	-3976	9192	15848	321	1067	-747	-18504	1392	-4240	354	2029	-97	-16376	5072	784	1063	1179	-80	125	143	1
-32768	24740	-14224	-2347	-1211	-135	-6944	240	-19056	-2608	-576	-842	-19680	-7320	15840	-2292	93	-85	-4312	9368	15912	544	1578	-775	-19088	2560	-4824	118	2213	-215	-17384	8672	1096	958	1096	-224	121	143	1
-32768	10636	-13012	62	-366	1790	-5904	-7088	-17992	-2407	1398	-446	-16376	-10688	6160	-2253	761	-168	-3880	10744	16144	776	2092	-1028	-20176	2984	-3016	-193	2486	-327	-18864	9216	3616	591	721	-212	122	135	1
-32768	3572	-3332	1707	637	2036	-10664	-6640	-19792	-469	2856	-20	-13376	-8792	8664	-1406	140	-662	-3584	11336	16056	1035	2669	-1435	-21168	1224	-2432	-191	2824	-365	-19136	8184	8528	212	-90	-185	123	131	1
15180	-32768	12968	5686	2086	2652	-20352	-22704	32767	-3586	2179	234	2640	-864	-15288	-1457	1403	284	-3240	10928	18800	1806	3315	-2010	-24544	-1960	-2776	314	3191	-380	-18904	9240	14288	667	-1443	136	129	124	1
-27296	18672	18944	1080	5675	2210	-32768	4408	-10648	7276	3343	-1077	-31344	-24736	12200	892	905	-65	-1976	15800	17296	2295	4443	-2828	-32768	-8248	2408	1623	3487	-558	-24352	2760	18128	263	-1592	179	128	134	1
-28548	6368	30516	973	2400	2939	-18464	12088	-16224	6955	3399	1758	-30328	1240	12480	4545	1327	-147	-3000	20456	20384	2548	5664	-4187	-32768	-9856	5816	2906	3780	-265	-24952	-10376	18056	-798	-1933	-703	133	118	1
-31356	-17176	12692	1923	530	803	-20848	-8832	-2448	-1177	3233	-94	-21672	17576	-15128	3091	2170	883	-15296	27040	23736	1897	6526	-5183	-32768	6232	-3520	3433	3914	-269	-25816	-4584	8392	1610	-1993	-1177	127	127	1
-16804	-18956	6184	748	10	319	-13976	-8800	-12392	1501	2214	-1467	-12336	7408	-14280	-200	1460	267	-16160	32767	23648	815	6379	-5461	-27784	14200	3128	2815	3778	-801	-25312	7632	-13160	3996	-1275	-362	123	124	1
-10116	-7920	12280	499	-29	187	-14136	1608	-14856	1768	1896	-579	-3384	5824	-8880	-1661	1551	641	-9896	26544	24120	1567	4816	-4414	-23880	7120	-11584	-748	3411	-975	-29320	14544	-11088	2639	-2057	784	123	127	1
-8244	-5756	13428	187	60	117	-16168	6096	-9248	-1479	1170	-322	-19056	-4184	-13896	-2222	1541	-23	-12688	32767	32767	-54	593	-2394	-17176	2720	-21344	-2629	2454	-926	-29312	9664	-4264	-482	-3186	1114	119	126	1
-8000	-6532	12800	79	89	97	-20712	-3816	-5696	-3855	679	-517	-20304	-3064	-4624	-1525	1591	-717	13120	13880	18064	-1954	-1760	-1305	-21824	-696	2808	35	909	-537	-32496	3512	-5352	-2174	-3267	800	116	127	1
-7968	-6836	12584	-62	176	68	-16920	-10032	-3680	-2763	577	-742	-17608	-2256	-3984	-1139	1768	98	8336	12704	12768	-1232	-2552	-1492	-12144	-488	-5640	39	-580	-11	-25112	-768	-3576	-1655	-2955	1417	106	122	1
-8012	-6908	12556	-106	183	74	-14096	-13088	-3248	-161	727	-474	-17200	-4368	-4360	-1252	1609	935	9272	16528	8816	-1541	-3284	-329	-6104	-824	-5264	516	-1359	-48	-21416	-1928	-6808	-254	-2934	1372	114	127	1
-8500	-8000	11832	-100	185	108	-13168	-7896	-2840	1625	912	88	-14536	-7608	-4520	-468	1543	1154	7280	10664	7264	-1368	-3459	898	-6752	-2448	-4488	1317	-2074	56	-17856	800	-7016	1069	-2621	1441	133	126	1
-8212	-7004	12204	-8	121	101	-16432	-2056	-5000	1341	919	29	-13560	-6648	-3456	297	1649	1010	4392	11280	7680	-479	-3438	2074	-8576	896	-6336	1354	-3085	221	-16280	3496	-7832	912	-2349	1361	122	127	1
-8256	-6740	12236	3	117	83	-18336	1232	-3256	113	600	-152	-15456	-968	-2088	935	1631	935	2048	12584	8256	-188	-3401	2996	-7864	1192	-6600	980	-3892	315	-14304	3136	-8488	249	-2172	1027	124	127	1
-8112	-6576	12520	-53	147	62	-15656	-2576	-2152	-1119	489	-362	-16224	2432	632	794	1789	947	-1328	12432	10440	-99	-3576	3504	-7056	2960	-6272	599	-4566	544	-11864	2496	-9864	-577	-1842	736	118	126	1
-8188	-6832	12168	-73	146	68	-14928	-5336	-1256	-1327	559	-266	-15144	504	1992	64	2228	786	-4168	13424	12824	68	-4046	3670	-8832	4240	-8432	-113	-5048	744	-10144	2344	-9944	-1055	-1652	649	118	126	1
-8336	-6944	11884	-35	124	95	-29016	20464	14880	-1208	618	264	-14600	-4392	2240	-535	2418	554	-13088	12656	17000	443	-4677	3464	-9312	2968	-10944	-837	-5677	700	-8800	1432	-9520	-1317	-1372	633	118	127	1
-7540	-9348	11428	-38	92	168	-14944	8640	-16544	-1204	2516	-1231	-14928	-6008	104	-695	2168	278	-10704	16080	16928	423	-5210	3629	-12072	1584	-10928	-742	-6113	845	-7520	0	-9640	-1710	-905	657	118	128	1
-8148	-6584	12028	-37	107	104	-10864	-7920	-2576	60	1447	-209	-16240	-4128	-2928	-363	1646	132	-13816	18992	17536	879	-5689	3525	-14168	-464	-10280	-772	-6366	938	-6728	-984	-10200	-2559	-846	497	117	127	1
-7728	-8512	12388	177	248	316	-16584	-5720	-4288	621	1502	-215	-17912	-2368	-4128	-366	1483	123	-15752	23992	18696	937	-5696	3664	-16336	-2480	-11656	-305	-6391	1056	-6112	-5176	-10720	-3122	-816	197	119	126	1
-8340	-5732	13076	83	445	364	-19048	-1816	-5272	440	1353	72	-17136	-1240	-4584	-499	1574	333	-18232	30192	19440	368	-5022	4353	-22800	-2080	-13768	273	-6447	1338	-6328	-7280	-7088	-2771	-948	-32	120	125	1
-7972	-5780	13812	22	691	390	-18704	-1600	-4960	364	1302	90	-16080	-1048	-3152	-359	1413	526	-23968	19656	23840	1343	-3795	5246	-27696	-24	-16800	275	-6527	1527	-7008	-4008	744	-2225	-751	87	121	125	1
-8316	-6688	13252	-102	940	434	-16352	-3696	-2552	-1184	1168	-281	-17424	-2096	-712	-144	1242	523	-32768	26032	22264	2213	-2901	5283	-26264	4784	-19856	-30	-5833	1265	-10736	3248	9672	-1339	-302	913	125	125	1
-8752	-6528	12972	-149	1206	523	-16512	-5840	-1648	-968	1336	-233	-17952	-4536	2216	-463	1196	391	-32768	18568	14760	1058	-2355	4327	-21648	8672	-17712	-1451	-4679	1255	-25272	4000	17656	-55	301	1273	97	125	1
-8852	-7880	13264	-158	1499	668	-16800	-6512	-624	-663	1659	21	-16784	-6000	3368	-910	1238	228	-32768	216	5904	1162	-1486	2448	-17016	1824	-23728	-3319	-2786	725	-20488	8608	31392	2127	39	22	119	124	1
-8768	-7740	13324	-151	1877	840	-17296	-4632	-1480	-364	2089	71	-16992	-5592	2800	-841	1171	57	-32768	-1968	2592	1831	-909	546	-11768	-5976	-25040	-1079	-1075	273	-17744	18096	24712	1154	637	588	123	124	1
-8904	-5876	14072	-166	2345	953	-17792	-3296	-1512	-396	2369	210	-17280	-6120	2800	-674	1008	153	-32768	-2024	-64	-150	64	-1038	-920	-952	-19088	1759	1284	696	-16008	13040	13824	268	487	715	111	124	1
-8752	-7188	14216	-349	2892	1156	-18632	-3208	-552	-395	2667	328	-18248	-5672	4920	-632	519	313	32767	32767	13128	-1367	1501	-1721	-8000	4888	-22848	2203	3243	246	-9760	4400	3792	51	623	245	142	124	1
-9564	-7752	13452	-582	3502	1535	-19880	-2152	-696	-556	2964	295	-19016	-5040	7448	-540	-297	357	20232	-23176	32767	-2163	5227	-3978	-12152	9728	-13424	3045	3533	74	-23400	15144	16672	1328	-996	212	131	123	1
-10068	-9128	16272	-727	4473	2009	-24184	-4864	608	-1113	3187	418	-21024	-10696	13040	-795	-1292	-26	-26000	-6208	32767	-922	4372	-3242	-17440	-1456	-10144	-5393	1319	178	-22072	16016	19808	-805	1874	1365	133	124	1
-10464	-19156	15072	-887	5785	3054	-32768	2952	10312	-2219	3300	454	-22904	-2288	12168	-660	-2398	-117	-20640	22208	19584	138	2798	-2726	-20992	-8672	-12016	-3555	4452	-1446	-21904	-15984	-5392	-2239	2326	-1808	135	126	1
-23964	-17004	18172	107	6329	4433	-29344	-4816	-272	-3508	3486	196	-24528	8944	12032	-131	-2242	700	-32768	32767	27944	-1083	2073	-1404	-16008	11480	-17904	-2744	3024	106	-10312	-12976	-7512	-2568	-268	404	130	122	1
-23496	-19888	22640	844	6167	4889	-27568	-13672	1408	-3360	3374	481	-25288	-280	-8392	-1648	-1129	142	-8712	8912	21528	-1055	-26	-490	-12952	3528	-18064	-5488	2081	388	-8056	7576	-11504	2000	868	-128	126	129	1
-19088	-18136	21200	-235	6251	4381	-24128	-8888	-9512	-1565	3545	570	-29936	-5120	-13080	-1658	-1563	-857	-5048	6328	16584	-682	-89	-241	-19104	-13784	-13536	-3304	1692	-193	-19280	2056	-12624	1232	2000	574	118	130	1
-2420	-31812	22324	-2091	3782	2829	-21088	-912	-19752	796	2908	959	-30352	872	-8400	-841	-2745	-1455	-4032	10896	12560	-390	-35	-132	-19440	-9016	-10472	3567	1680	465	-20296	4128	-8536	1399	1960	428	124	130	1
-7684	-32768	29684	1228	-1388	413	-19328	-3720	-3424	-574	1108	247	-32352	2176	-7136	254	-3176	-1237	-4032	9472	13592	-301	-13	-118	-16376	736	-8248	5593	1345	926	-16472	3904	-2536	809	1416	522	127	129	1
7444	-6188	16348	172	-1851	424	-16040	648	-3896	-625	-266	-305	-29760	3224	-8176	483	-2973	-1565	-3792	9496	14104	-79	50	-124	-18264	6912	-3264	4431	917	917	-16472	3840	-1944	763	1621	-234	125	131	1
-664	-16900	14208	-930	-2455	-554	-10880	-2776	-8144	383	-1087	-218	-22472	4720	-7568	-416	-2811	-1428	-3896	9720	13328	69	99	-123	-14792	12096	-2824	785	703	507	-15320	5512	-2584	717	1460	-1011	125	131	1
-120	-14716	12832	175	-3340	-1541	-5400	2760	-6976	48	-2011	-524	-18720	2600	-7304	-1210	-2546	-1143	-4208	10152	13032	123	105	-132	-14416	8600	-4840	-2323	994	-103	-14272	6336	-2400	377	1494	-954	126	131	1
-1544	-6496	13100	-308	-3696	-2359	-8624	1160	-6632	-274	-2846	-362	-16864	-1304	-7856	-952	-2363	-1282	-4112	10448	12696	83	73	-143	-16872	4024	-5440	-3568	731	-486	-15376	4896	-1816	33	1638	-700	112	130	1
-5272	-6720	13316	-772	-4167	-2723	-8648	-448	-7152	274	-3686	-465	-14704	-528	-7952	163	-2124	-1315	-4160	10104	12512	17	76	-143	-18056	-4480	-5728	-2574	493	-106	-16816	1816	-1632	-94	1691	-543	140	132	1
-6668	-5236	13216	-927	-4681	-2816	-7040	1584	-7056	521	-4363	-519	-13272	792	-8832	897	-2040	-1037	-4192	9704	13240	16	103	-128	-16416	-6136	-5320	367	488	307	-15504	-1000	-8	207	1797	-380	131	132	1
-7872	-5904	13332	-1159	-4989	-2736	-8192	1200	-6744	503	-4875	-539	-11248	2632	-9736	1274	-1828	-788	-4312	9920	12712	54	122	-137	-14864	-728	-3384	2422	592	569	-14032	-264	536	828	1963	-471	93	132	1
-10348	-8328	14440	-1211	-5186	-2757	-11632	-176	-8192	730	-5312	-629	-10984	5480	-10912	1181	-1641	-600	-4472	9768	12712	34	114	-134	-15232	3624	-3160	2415	596	526	-14456	3416	1208	1446	1850	-1012	117	133	1
-12776	-9236	15916	-1395	-5255	-2967	-12352	240	-9456	724	-5902	-536	-6800	4272	-10608	969	-1320	-428	-4344	9704	13136	25	116	-141	-15592	7648	-1416	1247	638	290	-15472	9664	1608	361	2141	-924	123	134	1
-15796	-13408	17200	-1401	-5183	-3220	-13664	224	-9296	730	-6274	-543	-4736	3656	-10952	923	-1060	-352	-4272	10032	13064	12	119	-152	-15480	7184	-1560	-264	777	98	-14680	10912	1304	387	2272	-746	122	135	1
-19432	-16780	19044	-1121	-4982	-3535	-17520	528	-11912	794	-6568	-655	-3552	4888	-9520	1180	-823	-178	-4416	10248	12936	-9	138	-204	-15504	3448	-2728	-972	987	8	-16120	7192	-840	113	2134	-306	120	133	1
-25780	-17420	21696	-1223	-4474	-4071	-23280	-1864	-15248	803	-6908	-692	-3872	5296	-8288	1045	-789	31	-4192	9864	13120	4	174	-260	-15512	704	-2784	-560	1184	15	-17448	3520	448	-401	1667	-14	122	135	1
-32768	-13532	19664	-1537	-3728	-4526	-24056	-5056	-16704	985	-6785	-777	-6032	3904	-2112	1695	-1029	126	-4000	10480	13144	-2	313	-399	-16056	656	-2856	158	1303	125	-16792	4912	1736	-370	1457	-88	122	134	1
-32768	-5928	15744	-2141	-2900	-4289	-25592	-7328	-19648	930	-5991	-795	-12120	-5256	6392	2196	-1268	-584	-4312	9976	13360	12	329	-418	-16792	1440	-3448	629	1446	223	-15336	6056	2080	370	1397	-307	120	132	1
-32768	-1536	6228	-2203	-2086	-3762	-21544	-1104	-20216	1201	-4628	-797	-14000	-5600	8424	2089	-1336	-775	-4184	9552	14312	285	724	-548	-17880	3240	-3640	726	1685	72	-15664	3496	3232	667	1464	-176	123	134	1
-32768	12664	-4068	-1351	-1475	-2722	-14032	-3224	-24544	-52	-3103	-643	-19984	-3648	27496	-1470	288	-20	-4704	8704	15592	263	1085	-710	-18392	2512	-3520	458	1877	39	-17544	2016	3392	812	1360	-51	123	143	1
-32768	27908	-12572	-1870	-764	-1098	-8160	112	-21240	-2260	-1109	-745	-20808	-11616	17744	-1983	288	-177	-4432	9912	15880	478	1549	-797	-18664	1504	-4272	108	2207	-159	-17200	6912	2464	1266	1216	-102	123	134	1
-32768	14956	-15596	18	9	847	-4472	-7816	-19104	-2028	1231	-368	-17176	-12816	9144	-1560	622	-212	-3624	11408	15776	694	2069	-1008	-20256	2728	-3768	-85	2461	-268	-18240	8816	2888	1511	1103	-171	116	130	1
-32768	4556	-6288	2048	1203	1507	-9544	-8480	-19888	450	3086	265	-11512	-11104	3504	-499	552	-581	-3872	11576	15696	923	2607	-1397	-20496	1672	-3448	-81	2740	-340	-18288	9192	5352	985	472	-215	123	133	1
10924	-32768	8612	5815	2907	2628	-20552	-27656	32767	-2193	2853	527	3784	-4256	-12040	-136	982	-262	-4392	11272	17648	1480	3171	-1910	-22064	264	-4568	357	3101	-401	-17272	13432	9136	914	-587	-81	125	130	1
-18600	26468	17848	1480	6302	1797	-32768	6208	-10952	8964	3698	-1085	-27464	-30376	5304	513	1720	-178	-3504	16328	16176	1701	4106	-2678	-32056	-2928	1720	1247	3455	-674	-23872	9848	15056	443	-1060	201	127	140	1
-30796	12648	32767	1573	2942	2987	-17128	13424	-14568	7878	3914	2255	-29128	2488	12048	4917	1372	326	-2816	21608	21472	1714	5070	-4011	-32768	-6096	5328	2219	3518	-339	-25512	-3576	20184	-1044	-2103	-386	133	127	1
-32768	-32420	3272	2021	510	669	-18000	-3264	-14376	-439	3607	-47	-22736	20744	-11368	4620	1754	850	-13216	25344	23584	1296	6023	-5096	-32768	3752	1648	2858	3836	-339	-23696	-5392	12976	-298	-1959	-864	136	122	1
-11484	-7960	8636	930	-166	494	-16264	-7552	-14344	1196	2442	-1636	-12136	10544	-14712	577	1327	218	-11296	28448	23432	291	6297	-5785	-32768	5984	-376	2688	3851	-396	-24752	-4480	9664	270	-1873	-815	123	123	1
-9128	-5172	13692	605	-144	250	-15352	3520	-16280	1441	2030	-658	-7096	9056	-11312	-1771	1795	566	-12552	27064	26960	783	5644	-5281	-22864	6360	-11680	-83	4283	-687	-27144	8888	-12592	2692	-1765	526	119	127	1
-8456	-5492	13220	215	21	129	-16008	4496	-10296	-1089	1345	-258	-19672	-5048	-14472	-2418	1720	-242	-30144	32767	32767	1031	2808	-3811	-17304	-1440	-23472	-2037	2896	-923	-30568	5272	-6216	710	-2681	1066	121	121	1
-8204	-6008	12980	156	33	109	-19168	-5120	-7376	-2626	1027	-499	-18824	-3808	-4168	-1250	1682	-841	13560	23648	21832	-1990	-1337	-908	-23184	-1096	24	-50	1298	-365	-32768	1272	-5760	-1101	-3468	914	119	126	1
-7788	-5868	13028	-1	151	97	-17304	-5080	-4520	-1795	866	-545	-18128	-1648	-4488	-687	1785	112	9464	6280	13464	-828	-1772	-1119	-15416	-4744	-4800	454	-379	248	-27472	-128	-6736	-1255	-3323	1321	117	122	1
-8212	-6672	12656	-60	166	88	-15136	-11128	-5408	-348	847	-457	-18104	-4264	-5568	-850	1775	833	9640	16248	11448	-262	-2580	13	-6176	-2920	-6664	1084	-1193	286	-22768	-2312	-6504	-73	-3036	1579	120	125	1
-8372	-7096	12232	-54	155	105	-14384	-7648	-4440	1310	884	-106	-14344	-5512	-4808	-387	1629	1203	8368	9744	10064	-717	-2830	1379	-5416	-4616	-4824	2003	-1823	378	-19296	-1480	-6816	1274	-2886	1378	161	126	1
-8516	-6676	12184	28	105	102	-15888	-1688	-5664	982	831	29	-13752	-6016	-4312	160	1695	1107	4976	7456	10400	24	-2984	2421	-8400	-824	-5104	1872	-2879	558	-17200	1168	-7640	1436	-2522	1378	132	124	1
-8216	-6452	12656	29	125	69	-17744	-360	-4056	73	633	-115	-16480	-688	-2432	572	1612	927	1896	10176	11640	147	-3238	3103	-7864	216	-6088	1002	-3781	780	-15136	1128	-8808	855	-2293	1237	119	127	1
-8092	-6176	12888	-28	149	58	-15952	-1696	-3552	-770	507	-310	-17480	3888	-1128	520	1770	933	-192	8352	13472	120	-3715	3425	-6448	576	-5960	182	-4516	965	-12992	1016	-9688	19	-2032	809	118	127	1
-8236	-6324	12656	-97	178	70	-15792	-4320	-2832	-970	552	-287	-15528	3768	-72	-21	2049	914	-3072	9712	14984	439	-4355	3452	-7312	648	-6344	-352	-4987	1013	-10912	1024	-9984	-656	-1812	543	122	127	1
-8328	-6624	12332	-108	187	93	-14576	-5576	-3040	-608	611	-206	-13472	-1520	-48	-344	2380	935	-5760	13424	17152	542	-5084	3448	-9192	-664	-8320	-631	-5538	1060	-8912	-272	-9984	-1003	-1577	466	119	128	1
-7676	-7792	12100	25	287	220	-14384	-4936	-2592	-324	681	-227	-15472	-4752	624	-597	2586	676	-7896	14592	19024	636	-5594	3484	-12088	-1296	-9384	-668	-6133	1218	-5816	-1552	-10096	-1364	-1043	403	119	127	1
-8352	-6248	12128	28	355	287	-14816	-3232	-2472	-375	783	-234	-15792	-3320	-2328	-722	2295	190	-11096	18504	20008	944	-5961	3482	-15072	-3208	-8336	-285	-6543	1235	-5280	-2784	-11144	-1470	-632	165	120	128	1
-8568	-6372	12400	22	415	328	-14992	-3880	-3200	-668	900	-198	-17344	-2536	-3400	-693	1687	109	-12280	23144	22032	796	-5866	3768	-17152	-3992	-11296	33	-6733	1293	-4464	-5736	-12320	-2138	-635	-95	118	127	1
-8768	-6484	12528	35	523	408	-16312	-4360	-3968	-679	976	-208	-18032	-3240	-2624	-705	1569	245	-15160	28272	26208	765	-5275	4408	-25112	-3120	-15648	304	-7060	1438	-4520	-4688	-10000	-2450	-609	-351	119	127	1
-8692	-6540	12648	29	539	419	-16744	-3576	-3784	-719	1043	-171	-16472	-3136	-2392	-706	1527	376	-25528	24552	29072	1489	-4344	5317	-30248	-2296	-16688	589	-7140	1518	-6064	-648	-3984	-2278	-733	-266	123	126	1
-8988	-6168	12828	-42	895	505	-15696	-3776	-2488	-753	1186	-90	-16296	-3608	-640	-489	1285	453	-32768	27328	25376	1744	-3366	5434	-28008	4544	-21776	288	-6420	1358	-10680	6816	7440	-2583	-1119	787	124	125	1
-9028	-6280	12672	-64	1082	563	-14664	-5128	-896	-757	1441	-25	-16504	-5816	2216	-495	1150	452	-32768	16808	11928	541	-2657	4436	-19808	8216	-19600	-1686	-4878	1099	-31336	7048	21200	-2591	-1175	2289	124	125	1
-9300	-7408	12964	-52	1324	705	-15768	-5856	-1376	-638	1778	46	-16680	-6000	3592	-714	1122	243	-32768	-8992	3520	1334	-1213	2463	-14128	3736	-32768	-4367	-2833	558	-14024	8792	32767	86	21	-203	129	125	1
