#Activity	walking 
#ActivityID	1 
#Date 09-24-16-55
acc_rf_x	acc_rf_y	acc_rf_z	gyro_rf_x	gyro_rf_y	gyro_rf_z	acc_rs_x	acc_rs_y	acc_rs_z	gyro_rs_x	gyro_rs_y	gyro_rs_z	acc_rt_x	acc_rt_y	acc_rt_z	gyro_rt_x	gyro_rt_y	gyro_rt_z	acc_lf_x	acc_lf_y	acc_lf_z	gyro_lf_x	gyro_lf_y	gyro_lf_z	acc_ls_x	acc_ls_y	acc_ls_z	gyro_ls_x	gyro_ls_y	gyro_ls_z	acc_lt_x	acc_lt_y	acc_lt_z	gyro_lt_x	gyro_lt_y	gyro_lt_z	EMG_r	EMG_l	act
-24512	-968	24352	-7561	-32768	-10545	-25076	4204	-6388	-4551	-32768	9210	-2832	-424	-11808	13389	-14979	-4340	-9580	3980	12872	-987	-692	-1482	-15776	2180	-3804	5285	2677	1955	-13328	2376	-1700	9328	18405	4276	123	131	1
-27588	-2624	23996	-14706	-32768	-9117	-29868	3276	-8256	-8348	-32768	9528	-3408	944	-6840	12017	-13008	-5321	-9104	3564	13676	-968	-345	-1703	-16056	568	-1664	7858	3604	2090	-22764	3508	-2400	9297	14507	2055	126	126	1
-32768	-10784	25244	-16394	-32768	-10627	-32768	536	-12368	-11461	-32768	8344	-11196	3812	6848	11079	-16122	-640	-8924	3760	13888	-836	1032	-1660	-15108	2536	4	6624	5982	2107	-21900	5440	1936	2149	6252	677	127	122	1
-32768	-11908	12700	-8699	-32768	-15209	-32768	-3752	-21320	-10911	-32768	5941	-19760	5036	19164	6849	-14672	2536	-9140	4196	13876	-813	2461	-1584	-15836	5576	392	2190	8878	1435	-18112	7720	8576	-469	7642	1632	122	124	1
-32768	-3124	-3460	-7229	-28094	-16767	-24592	-6408	-28172	-10942	-32768	1441	-16508	8064	24456	-2746	-13463	774	-8772	3840	14456	-658	4257	-2469	-16360	3736	340	147	11625	784	-16960	6448	7992	2067	12847	2124	127	133	1
-32768	6492	-21264	-11157	-22828	-9208	-13212	-11052	-32196	-15330	-18407	-4446	-9780	16996	31008	-5775	-1709	1806	-8780	3812	15424	46	7630	-2985	-18024	3636	-464	-467	14628	-64	-20488	3700	6024	3005	13051	1555	134	140	1
-32768	14336	-30452	-9145	-9478	2407	-7168	-8280	-32072	-11664	1673	-8140	-15384	12472	25832	3717	2519	-3395	-8812	3688	16800	521	13375	-3450	-21052	1504	-1400	-1352	17486	-563	-22880	2200	4952	3222	10077	1256	125	145	1
-32768	10468	-18396	420	3878	10533	-10868	-8540	-31900	-2393	16752	-7303	-13400	-412	14496	1249	-225	-8640	-8944	4324	17352	589	21245	-4110	-22588	-396	-1104	254	20267	-513	-23592	-52	6164	2106	6037	705	125	148	1
-22384	-8712	-32	32767	18124	8944	-18824	676	-19676	15117	26266	-13991	-13480	-4012	7276	-794	12368	-12397	-8544	3620	17592	971	30748	-4712	-23380	-2916	-1464	1044	23245	-202	-24692	-548	8808	1813	1533	89	139	154	1
29380	11748	32767	17249	29719	-16967	-32768	32767	27520	32767	24539	10930	-16500	-14840	-5520	5628	17197	-17482	-7288	4680	19508	2558	32767	-4623	-32572	-4684	1348	4712	26047	-667	-29548	836	14036	-234	-7613	-723	125	155	1
-32768	32767	17752	1686	29396	9299	-18984	7940	-22696	32767	7982	4768	-14492	5140	17836	31501	2240	2872	-7544	14900	18864	1093	32767	-9893	-32768	-10052	7880	12693	25801	519	-31804	-2560	23892	-3162	-22971	-4138	138	153	1
-12892	-19636	13620	-2084	16907	13373	-22884	17336	-6692	9963	23491	-4098	-19232	22688	-16984	21612	7676	-1040	-19364	19100	18888	695	32767	-24560	-32768	6088	8516	21415	25037	1541	-21840	-12360	19196	-9004	-20575	-12166	121	159	1
-11768	-5184	14112	5640	22238	4671	-15460	-12032	-6268	6146	18612	-9314	-17596	9364	-9568	-17769	6549	2064	-32768	10572	19832	-5516	32767	-32768	-26508	20072	-10212	7815	27920	2362	-21804	3076	-872	13675	-9866	-4198	129	150	1
-20484	-13820	13676	7921	11516	9474	-15380	-4128	-11804	-3844	15970	-5730	-10468	-8108	-10216	-18091	7592	-1831	-32768	20460	27420	-7508	32767	-32768	-28044	8620	-8740	1757	24954	1616	-29012	15972	-15092	17851	-12080	-2562	128	156	1
-12580	7020	19328	6863	2897	5645	-23468	7672	-11280	-7954	14858	-5594	-27644	-4476	-8412	-11292	12749	-7288	-20368	15880	27640	1427	32767	-27272	-24716	4076	-9052	-5248	20821	937	-32116	7140	-11112	863	-18682	-421	103	136	1
-10360	-1612	14744	3367	2108	1998	-21620	-4352	-7020	-9068	12246	-2878	-20160	-3328	-5796	-4246	13490	-2179	-32768	21040	32767	16999	3994	-11155	-17708	5068	-14072	-4044	14137	-325	-26700	3324	-5180	-2119	-22226	2507	108	122	1
-9024	-3140	13940	900	2064	553	-15960	-2540	-6016	4503	7828	-2436	-18160	1868	-5264	4122	13419	-1308	-3508	26432	25692	10238	-22129	-1865	-15924	-696	-3344	8092	3994	-972	-27768	4288	-8384	-4373	-22301	604	121	114	1
-9016	-2604	13728	-346	2406	-346	-19176	3344	-4944	4485	6126	-3064	-18492	5212	-3612	2460	13826	-2227	5388	17208	15348	-1335	-25716	2375	-11364	4532	-2928	10626	-4637	-1111	-25096	4848	-7476	-4066	-22316	-1217	124	127	1
-9492	-2376	13496	-886	2805	-1505	-18540	1036	-4792	-1458	5342	-3308	-18648	2024	-3152	-2544	14529	-1141	6620	10628	10348	-5952	-22404	5849	-6732	5268	-3468	796	-12252	-1815	-20656	5680	-8184	-1939	-18996	104	119	124	1
-9136	-4188	13124	-846	2732	-1894	-16968	-1584	-3564	-5391	4767	-2916	-17444	-1680	-2444	-6758	15359	-774	364	10356	10672	-4871	-21333	8996	-6120	4100	-5228	-7109	-18042	-4397	-16592	3252	-10004	-4486	-17673	1145	129	117	1
-9324	-4056	12604	-569	2463	-1578	-17068	-3864	-2880	-7790	4130	-1825	-17172	-3024	-2120	-7106	15545	-824	-6728	10684	12764	-3469	-26548	12034	-6012	4080	-6728	-8546	-23337	-4872	-13920	436	-10108	-4191	-16251	1987	124	117	1
-9188	-3960	12356	-467	2318	-1068	-17188	-4456	-2636	-4725	3415	-535	-16472	-4360	-848	-684	16112	-1949	-9380	9668	12696	-1723	-32768	16040	-7052	3880	-7248	-7872	-28201	-5327	-13572	2872	-11240	-3873	-16134	2444	128	117	1
-9212	-3676	12552	-463	2229	-538	-16088	-1612	-2368	-1776	3234	275	-15864	-840	-380	1174	16036	-1864	-10896	9692	11772	-506	-32768	19065	-8624	3936	-7824	-7322	-32714	-5874	-10896	3164	-11132	-5738	-13728	2088	125	114	1
-9004	-3364	12512	-376	2185	-43	-16072	84	-2200	-3143	3483	379	-14844	1420	252	-2260	15842	-925	-13944	9624	12388	734	-32768	21016	-9612	3400	-8756	-7951	-32768	-6366	-8428	2996	-11548	-7415	-10576	1162	119	122	1
-9208	-3408	12352	-373	2106	112	-16236	-168	-2180	-4968	4136	-18	-14216	2440	1072	-6928	16049	-680	-17724	10040	13788	2307	-32768	22556	-11144	3440	-9636	-8161	-32768	-6223	-6656	512	-11724	-10349	-7801	188	137	123	1
-9132	-3096	12612	-418	2315	319	-16244	-100	-1600	-4610	4788	6	-12688	2572	4008	-10810	14752	-151	-20824	11080	15344	4514	-32768	24125	-13608	4132	-10384	-8428	-32768	-5751	-5640	-1036	-12688	-13274	-5548	459	125	126	1
-9404	-3416	12228	-675	2618	611	-16084	-80	-1620	-5281	5889	-354	-12996	2412	5592	-5455	15198	-1543	-24604	11484	16652	6638	-32768	26247	-16956	4116	-9996	-9435	-32768	-5625	-3800	-2748	-12512	-15482	-2196	1533	135	123	1
-9264	-3536	12252	-398	2634	927	-15808	-1508	-1308	-5680	6897	-442	-18180	2200	2848	-6576	16785	-1971	-28640	11716	19008	7770	-32768	27933	-20872	4504	-11216	-8599	-32768	-5547	-2068	-3140	-10608	-14770	-2509	1912	128	123	1
-9224	-3644	12652	-54	3012	1705	-16616	-656	-1260	-2995	7310	-433	-19400	2464	1012	-5025	16160	-1364	-32044	14936	22416	6456	-32768	27790	-27284	9216	-13436	-9867	-32768	-5557	-8296	-228	-848	-11012	-8275	1954	126	116	1
-9572	-2808	12792	-342	3826	1815	-16032	1788	-1564	-2732	8784	-625	-19892	2836	1396	-4558	15674	-1798	-32768	8856	23080	3399	-32768	29894	-25148	5156	-15688	-5701	-32768	-6564	-15692	5304	8320	-9276	-17626	2758	127	116	1
-9832	-2564	12716	-768	5091	1226	-16352	-192	-2432	-1619	9669	-829	-16484	-1444	2272	-3052	9926	157	-32768	3868	9024	5223	-32768	27897	-22092	6368	-20316	2317	-32768	-3260	-15976	2296	9216	-11062	-14936	4466	122	120	1
-9796	-3432	12928	-1000	6484	894	-16856	-1296	-1484	891	11275	6	-15148	-2188	5256	-2197	12010	1069	-32768	-12332	-14244	12672	-32159	18484	-15600	3180	-21812	5057	-31603	4561	-13680	-11120	28312	-7579	-11331	2744	127	116	1
-9704	-4280	13540	-916	8839	1424	-17780	-1352	-468	2570	12917	62	-17988	-716	7068	1067	12845	424	-32768	-32472	-28512	31737	-18770	9474	228	4192	-21004	16794	-11662	9233	-28412	-17648	32767	1968	-679	1568	126	119	1
-9580	-2636	15012	-1183	12621	1576	-19388	924	-988	4824	14993	552	-21376	808	7084	1616	11173	-938	-32768	-18108	-22188	9287	-1091	91	-1860	15124	-21576	12837	8673	5924	-21120	736	19524	9330	-6904	587	123	116	1
-9440	-4020	15996	-2024	18396	1703	-22428	1508	-636	6497	17101	903	-23308	1564	8296	1067	7310	-599	-32768	-1468	-2656	-19458	7202	-11652	-8776	11976	-20788	-5705	21924	2532	-11980	9908	208	17147	-7863	4975	127	127	1
-9000	-4384	15916	-3131	26188	2759	-23340	5212	724	4893	19843	-395	-22584	4720	12520	-728	2546	1416	-616	-8328	17888	-27317	17978	-13495	-17036	3100	7172	-27375	27708	4492	-10320	12484	-1420	8508	2557	5830	125	85	1
-7840	-1628	18812	-5566	32767	2664	-26716	8668	2888	1865	23397	-1060	-25024	5912	21672	-3141	-5639	3290	-4764	-9008	28428	-6910	31574	-15795	-32768	-12444	-7968	-32768	23292	-7087	-17868	9676	7492	-26484	209	8432	125	117	1
-4864	-10804	20656	-8018	32767	1044	-32768	12788	11112	-2921	27475	-190	-28604	12208	32767	1267	-19282	6573	-32768	-13344	32767	-3436	20942	-13204	-9920	-18668	-12740	-25251	26518	2634	-16936	-18708	4352	-18429	20837	1557	129	96	1
-17904	-14092	21828	-11229	32767	9762	-32768	4956	13488	-13443	27311	-2344	-14496	21880	3492	3993	4663	8011	-11368	26632	6388	-3789	17703	-11894	-14872	8016	-12316	-3161	22665	6785	-19140	-15832	-23616	-13791	1915	3674	118	125	1
-32768	-16800	21940	-7103	32767	23460	-32768	-17388	-2184	-12642	29674	-3299	-22244	2360	1852	-26859	-315	7016	-26800	-4552	20344	-12598	9776	-16336	-12480	14728	-18620	-8033	16779	9397	-84	1568	-10284	15358	7336	-1065	138	121	1
-32052	-21568	29568	2775	32767	32767	-32768	-5956	504	4982	30700	-5094	-32768	-4864	-15660	-17263	-3468	3450	-21216	-512	20612	-9029	2146	-9763	-19916	-7052	-21276	-4133	14270	7871	-26720	9552	-11900	9816	14551	6373	134	111	1
-30844	-21040	31548	2586	32767	32767	-29540	2576	-3044	7550	20464	-7752	-32768	-3316	-15096	-15809	-6169	3259	-12540	5592	13964	-2724	-85	-2301	-17400	1628	-11588	17977	11653	4368	-24020	8432	-9944	6463	9835	7144	126	132	1
-32768	-10364	32767	-25399	3137	11278	-20736	3644	-9204	-6215	13132	-67	-32768	2732	-10252	-6291	-16131	2870	-9296	2780	14544	-1443	40	-1302	-15372	7952	-10936	7979	9467	4806	-18548	3324	-6900	4461	11844	4667	124	134	1
-2404	-23700	28528	-21700	-27163	4693	-21176	808	3576	-15096	4991	-3442	-32768	4812	-13588	-3393	-18242	3254	-8480	2944	14136	126	1022	-631	-17152	3704	-9112	-203	7611	3493	-15316	2808	-4408	3450	11273	2055	121	117	1
7712	-17160	16348	-2703	-31790	2743	-10272	-5348	2504	-10548	-5597	-2165	-28324	3340	-13896	-4108	-19933	1389	-8968	3068	14220	1589	1865	-54	-17288	4232	-8532	-6385	6020	2301	-16464	3080	-3796	3355	12069	2418	120	106	1
6176	-7292	10936	3462	-30812	-2357	-4012	-20	-196	-3453	-15714	-1205	-19860	1644	-13008	-5382	-19419	798	-9556	3748	13756	1893	2216	149	-17428	1316	-7580	-1553	3801	2837	-17368	1580	-3840	-337	15926	1756	122	118	1
2024	-5380	10228	-566	-30050	-8844	-7140	164	-1456	536	-22434	1519	-15968	2064	-14064	-4819	-20873	-1349	-9660	4064	13496	1631	2190	517	-15916	3112	-6744	5416	2041	2749	-16732	2808	-3944	818	17306	1617	126	124	1
-2668	-7236	11348	-2157	-31777	-13492	-8568	-540	-2996	2357	-28382	2542	-16776	-100	-13972	-4572	-21641	-1733	-9648	4292	13264	1408	2092	740	-15720	4640	-5040	6978	1136	2442	-16568	3608	-2260	108	17335	1455	126	121	1
-6928	-7276	13132	714	-32768	-16790	-8136	-1020	-4068	3778	-32768	3526	-9632	-132	-13788	-2186	-22352	-2513	-9244	4152	13420	1161	2182	772	-15892	3924	-3712	4898	1113	2210	-15152	1072	388	-2501	18198	1296	135	117	1
-9408	-5216	14380	2544	-32768	-19549	-9324	156	-4388	4891	-32768	5006	-8692	-1960	-14312	1484	-22461	-2381	-9364	3528	13448	1095	2339	855	-15032	2524	-3136	2481	1585	2500	-14228	-2312	1120	1717	17082	1309	130	125	1
-12372	-4276	15792	2072	-32768	-21499	-11508	-2404	-4904	5042	-32768	6899	-6704	-2136	-14024	5128	-22121	-2729	-9452	3768	13068	961	2613	664	-11740	2884	-2968	3818	2083	2642	-14208	-1116	976	5168	14944	497	124	124	1
-15164	-4068	17064	250	-32768	-21956	-14676	1724	-5208	2494	-32768	8690	-2772	-1684	-14176	8930	-21492	-2147	-9296	4612	12692	541	2236	95	-15024	2768	-2492	5641	2756	3148	-14096	316	4	10484	13909	783	127	127	1
-18460	-5284	19600	-1705	-32768	-20786	-18184	476	-6080	491	-32768	9065	-1848	-1120	-15632	12038	-19910	-2323	-9624	4628	12624	51	1801	-602	-14636	5220	-2996	7206	3375	2846	-12332	2864	3844	12726	10957	3094	123	128	1
-24328	-6440	23452	-4267	-32768	-20494	-23360	168	-6552	-1355	-32768	9859	-288	-2364	-15436	14804	-16389	-3706	-9820	4224	12432	-495	1074	-1201	-13996	5148	-3344	6074	4038	2483	-11032	4128	1088	10690	15372	4815	126	135	1
-25960	-7036	24872	-8175	-32768	-19605	-31704	548	-6456	-3274	-32768	11111	-2316	-1672	-10216	14326	-13712	-5701	-9456	4080	13048	-864	616	-1716	-14740	2780	-2808	6526	4915	2430	-18252	7324	-3232	12635	16519	2423	128	126	1
-32768	-14888	28824	-8382	-32768	-19136	-32768	-4352	-12540	-7496	-32768	10735	-7388	2992	5856	11113	-16940	-2251	-9580	4088	13020	-917	565	-1829	-15504	3072	-1872	6518	6226	2502	-20620	6160	-1908	6777	10760	1022	127	126	1
-32768	-14732	18460	-574	-32768	-20638	-32768	-6404	-18780	-776	-32768	8127	-17436	1728	13780	5033	-16768	692	-9128	3468	13844	-730	2514	-2370	-15728	4044	-1340	4090	8233	2260	-18360	7336	3320	836	8724	649	123	127	1
-32768	-10916	2956	-2952	-32768	-20653	-28720	-6952	-26428	-6922	-32768	4513	-16784	7432	16364	8232	-11181	73	-9456	3524	13856	-424	4547	-2005	-15336	4408	-496	1441	10842	1443	-15760	6904	7500	1635	11333	816	140	122	1
-32768	2648	-17928	-9426	-31567	-12816	-18548	-6180	-30112	-14376	-26060	-5515	-10116	20380	32767	3988	-10009	3197	-9236	4404	14572	-104	7383	-2480	-16712	4796	-156	-1160	13902	1074	-18028	5572	8444	1174	12097	1382	126	130	1
-32768	20232	-32768	-16384	-12623	-2377	-2424	-4628	-32768	-17295	-5626	-9360	-17304	17940	32767	1701	-456	-108	-8988	3600	16184	137	12017	-2969	-19512	3004	-1524	-2504	17060	703	-21516	2376	6516	1336	11248	2222	123	136	1
-32768	13064	-21420	-1082	6970	6849	-8976	-12380	-32360	-4077	15501	-6247	-13596	-1312	17908	265	-575	-10512	-9268	4340	16964	691	19449	-3573	-22812	216	-1908	-786	19704	793	-24096	1020	5036	1266	7211	1596	119	141	1
-32768	2528	-4612	9482	12347	8622	-15116	-4052	-30236	14905	26653	-4818	-13176	-3168	-4012	-6910	12349	-13229	-9108	4024	17132	1313	28743	-4495	-23760	-2900	-1704	2018	22196	1820	-24532	-364	9452	4191	2869	433	128	157	1
21880	20216	32767	24164	24152	-6657	-28248	32767	31512	32767	28242	-4564	-14516	-2732	-10404	4230	16800	-11190	-7832	3756	19344	3011	32767	-4457	-29060	-4632	108	5879	25085	2027	-27888	64	15372	3227	-4965	44	127	157	1
-19928	32432	12304	3016	32767	-6411	-28944	5520	-22364	31947	13346	5389	-19880	-11132	14788	17934	-4943	-4425	-5772	10148	19432	4744	32767	-5122	-32768	-11540	7428	14092	26201	2443	-31116	-3032	24692	-708	-19438	-2135	134	154	1
-32768	21116	32767	-3765	20878	17531	-27988	15716	-7628	29456	10919	906	-20740	25940	-6412	32767	12223	-3180	-15304	16216	20944	5805	32767	-17696	-32768	-572	10132	27219	24838	3144	-22168	-11548	16616	-2552	-21427	-13226	113	160	1
-8088	-32768	5700	600	21666	5879	-19648	-6160	-2880	12369	25736	-7183	-13348	17724	-12896	7798	2311	-3388	-32768	10856	15180	-867	32767	-32768	-27036	22264	-8640	14495	27514	3147	-23864	740	2384	15202	-12331	-7400	136	155	1
-14804	10264	17096	4296	18469	8636	-8212	-2320	-8928	12466	15629	-9074	-6464	-2204	-12144	-24061	4886	-357	-32768	21668	27032	-3743	32767	-32768	-29340	10004	-8832	5973	26321	2433	-29184	15032	-15840	21207	-13927	-4974	138	157	1
-19052	-19696	10480	10193	11859	7501	-17712	-2760	-12092	-6043	14658	-8519	-14320	-5004	-8908	-10341	13725	-7694	-27564	12840	31808	2214	32767	-27013	-24340	2732	-8496	-4847	21270	2217	-32768	2636	-11236	1491	-20044	393	117	152	1
-14744	1928	18276	5330	4741	5805	-24532	7236	-9412	-10444	15890	-5299	-27048	-5384	-6936	-9036	10485	-6906	-32768	13332	32767	23824	11365	-13754	-16128	5024	-16444	-4412	15976	334	-27904	-528	-5552	-2446	-24229	2075	132	131	1
-9348	-1312	14604	4105	2499	2554	-20016	-4928	-6164	-9632	12367	-3940	-17300	-3252	-5952	-2737	12075	-2821	-7156	27572	28080	18105	-23930	-2270	-15100	-2600	-5336	12207	3627	3132	-29616	-316	-6936	-801	-23063	-1067	126	125	1
-8628	-1696	14424	2609	2003	1234	-15624	-1056	-5672	5020	8623	-3095	-17544	2356	-4404	3192	12762	-2970	5048	16704	15556	6654	-29474	3301	-11176	2428	-4004	18859	-5406	1981	-26624	2432	-8628	2750	-20134	-2873	123	132	1
-9172	-1340	13660	976	2285	224	-18980	2900	-5724	7904	6168	-3173	-17832	3896	-3544	2738	13408	-2550	6908	10452	9832	-654	-26903	6631	-5744	5276	-3856	9335	-13163	2447	-21604	3324	-8748	2733	-18346	-1332	123	117	1
-9448	-2540	13420	-83	2384	-316	-18596	3640	-4684	1026	5529	-3617	-18284	2168	-3160	127	14099	-1430	6276	9692	9376	-1193	-26279	6898	-4668	3852	-5084	-3617	-18795	1133	-17616	2756	-9540	280	-16542	-121	123	116	1
-9876	-3420	12692	-190	2010	-498	-17040	-700	-4408	-4243	4943	-3664	-17160	-2268	-2952	-1404	15116	-542	-3808	6748	12480	116	-27212	10023	-6092	2312	-6556	-8112	-24040	-159	-15144	1100	-11708	187	-16537	830	119	115	1
-9616	-3784	12584	455	1477	-583	-16744	-3508	-3420	-4197	4531	-2631	-17148	-2868	-2904	-1229	15268	-796	-4932	6520	13040	559	-28031	10446	-6824	332	-7300	-6306	-29101	-896	-13648	2932	-10672	918	-15588	1132	130	117	1
-9296	-3456	12692	795	1097	-599	-16540	-2396	-2780	-1597	3744	-1600	-14784	-1780	48	4827	15113	-2983	-10864	5784	15192	5563	-32768	16046	-8032	392	-7780	-3406	-32768	-1855	-11520	3344	-11608	-1497	-15016	735	125	115	1
-9012	-2776	13016	608	983	-518	-16128	320	-2492	631	3644	-1390	-15516	2524	664	5605	15121	-3555	-12620	5636	15600	6686	-32768	18419	-9840	368	-8404	-2139	-32768	-2338	-9128	3560	-11412	-3115	-12554	-279	136	121	1
-8848	-2864	12852	243	1130	-337	-16332	440	-2196	-88	3784	-1438	-15584	3600	1124	879	14775	-3217	-15688	6156	16340	6916	-32768	19885	-11344	1008	-8908	-2392	-32768	-2832	-7104	1472	-11820	-5147	-9555	-1476	135	123	1
-8844	-3288	12764	71	1284	133	-16836	-280	-1936	-1786	4491	-1687	-15236	2700	1408	-6550	14835	-2899	-19480	7004	17968	7209	-32768	21025	-12608	1416	-10536	-3826	-32768	-2824	-4768	672	-12916	-7505	-6691	-1594	138	124	1
-9124	-3092	12748	118	1460	695	-16800	-600	-1964	-1955	4664	-1743	-13832	156	756	-11127	15806	-2801	-24540	8336	20320	8292	-32768	22747	-16012	3636	-10892	-6736	-32768	-3433	-3088	952	-13276	-12205	-3071	172	127	121	1
-9004	-3644	12624	549	1459	1349	-16300	-812	-2508	-3103	5830	-1353	-13468	556	2480	-11274	16194	-2861	-26136	8260	20752	10507	-32768	25060	-20728	3848	-10884	-9511	-32768	-5144	-1340	-792	-11848	-14749	301	2215	124	120	1
-9048	-2648	12888	774	1701	1629	-17260	1092	-2248	-4195	6570	-1881	-13444	1968	4440	-4814	18864	-3509	-30380	13036	23068	9623	-32768	26167	-28812	5812	-13260	-10885	-32768	-7028	-4672	-120	-4080	-11883	-2373	2830	117	118	1
-9016	-2176	13220	642	2468	1542	-15768	2000	-1872	-4762	8239	-2116	-16084	4004	1780	-5851	18784	-2723	-32768	17104	24676	2143	-32768	28967	-27504	7676	-18316	-14096	-32768	-8247	-14820	3440	8188	-12793	-16439	2696	123	118	1
-8820	-1320	13840	-157	3855	1080	-14940	604	-1536	-3447	9417	-2067	-23444	-624	2568	-5770	9792	647	-32768	8460	7792	-3456	-32768	32767	-20632	4044	-22264	-8326	-32768	-7517	-18444	2092	9784	-12349	-14729	3012	125	118	1
-9248	-2412	13500	-659	5608	654	-15348	320	-1744	-2936	9580	-2032	-22984	-1612	32	-3682	6513	1915	-32768	-8132	-13780	-525	-30531	27284	-16896	164	-23748	-3106	-32649	993	-14512	-8652	24168	-16797	-9671	143	125	118	1
-9220	-3040	14000	-806	7573	746	-17112	-848	-1232	2216	11495	-1174	-17444	-2012	6412	-320	13141	-1643	-32768	-32768	-29736	30052	-19419	12414	376	5128	-22716	16334	-14051	7318	-24904	-22208	32767	-6945	-1616	-778	127	121	1
-9224	-2320	15488	-919	10915	1132	-18920	20	-1344	2614	14421	-879	-19128	-1628	8212	1115	12054	-611	-32768	-25940	-24460	9754	-4390	-9288	-1128	15796	-22952	14375	8321	6742	-23080	-5048	20508	9630	-5106	-946	113	132	1
-9028	-3584	16704	-1627	16861	1434	-23196	532	-472	4141	16902	-162	-24208	-328	8912	1268	8097	-358	-32768	-17836	-13832	-19997	8484	-24595	-9336	11668	-24748	985	22542	3425	-14884	5792	1808	27865	-6244	3739	121	124	1
-9032	-4476	17764	-2182	24458	3055	-24480	3976	172	4167	19437	-970	-23144	4288	13628	-47	2388	1832	-2984	-1864	32767	-19057	18566	-14058	-29492	-12008	21836	-23807	24931	1243	-13260	9508	908	25684	-4526	3467	125	115	1
-7620	-2628	20436	-3809	32767	3971	-28776	8136	1752	1597	23193	-1805	-27416	5376	22684	-2263	-5326	2903	-22380	-3648	10692	-13282	32767	-16200	-32768	8400	-17216	-32768	25677	-888	-18880	14520	9956	-24057	984	11805	129	111	1
-11884	-10456	25192	-8743	32767	2829	-32768	13392	9568	-2352	27270	-657	-29652	12572	32767	4795	-18941	6927	-23660	-19416	32767	-2986	18864	-11106	-10936	-17536	-12192	-21761	26101	3628	-19444	-17492	-16084	-17119	21153	-749	129	100	1
-9692	-15336	26792	-7510	32767	10777	-32768	9944	19704	-13022	28101	-3409	-18720	25136	2564	971	3884	10342	-7976	26276	4596	-369	16880	-11106	-15724	3084	-12388	-990	20528	6456	-11652	-16176	-19140	-8627	4746	2599	127	131	1
-32768	-11564	23720	-4593	32767	24460	-32768	6872	12728	-14310	28843	-4166	-21220	5132	1088	-27729	-2492	7878	-24088	-224	17916	-11309	7362	-14516	-12920	18716	-17436	-324	15097	10420	-10072	6612	-11232	10820	8321	-47	127	118	1
-29544	-17540	30292	3838	32767	32767	-32768	-6524	1948	-2052	30810	-5585	-32188	-4948	-14348	-23293	-4689	3460	-19660	24	17924	-7431	1885	-8795	-21536	-3184	-17632	-1299	13063	7396	-28700	15176	-12800	8876	14430	6622	130	108	1
-18124	-15492	32767	-10500	32767	25699	-28044	2816	-2288	4084	19800	-5780	-32768	2956	-6696	-11873	-15368	132	-11500	5112	14048	-3032	141	-2865	-16352	4180	-10248	12417	11041	3277	-16688	7032	-5108	1961	9968	7026	128	124	1
-32768	-16216	32767	-23939	8488	6340	-18480	1136	-9128	-4710	10421	-146	-32768	3576	-10488	-4802	-17077	2465	-9468	3032	14536	-1612	-10	-1458	-15752	5732	-9624	4615	8988	3493	-18744	2960	-6280	2300	11625	3476	129	111	1
-860	-30136	30568	-12828	-24588	-4108	-19556	-1656	5212	-10623	3536	-4239	-32768	6080	-11856	-1942	-18416	2292	-8796	3088	13920	-495	520	-663	-16924	2348	-8308	934	7304	2858	-14820	508	-3152	2325	11406	1711	123	122	1
8680	-15080	16128	7941	-29271	-7489	-10852	-3596	3216	-2272	-6970	-3951	-26836	3508	-13304	-5033	-20295	-106	-8684	2988	14164	529	1068	-126	-17228	2920	-6900	-3017	5977	2028	-17852	2036	-2604	1047	14003	1782	126	124	1
6444	-4532	12212	8441	-28087	-12172	-4608	260	780	2372	-17290	-1313	-19068	680	-12856	-5363	-20083	-413	-8528	4116	13836	798	1367	-229	-16860	1152	-5328	-1092	4564	2533	-16788	872	-1372	-206	15715	1292	129	123	1
-180	-3112	12244	2738	-29626	-15667	-7296	-144	-1376	3466	-24150	1300	-16236	2184	-12980	-5115	-20722	-1858	-9392	4388	13416	314	1008	-497	-15736	2712	-5276	4420	3222	2597	-16036	2516	-2652	1409	16327	1231	128	123	1
-5084	-3328	13464	36	-32768	-16159	-8072	-316	-2756	4439	-29066	2436	-14252	352	-13812	-6026	-21786	-2263	-9644	4228	13320	-40	748	-557	-15444	4328	-4640	5834	2551	2522	-15912	3624	-1248	1376	16509	1203	124	127	1
-7696	-2880	14248	160	-32768	-15735	-8388	1140	-3472	2989	-32768	4120	-10952	-4032	-10980	-785	-21623	-2090	-9368	3744	13416	151	915	-327	-15520	3976	-3900	3181	2724	1948	-16356	2676	-996	-2876	16932	820	133	129	1
-10152	-1812	15148	295	-32768	-15818	-9280	1800	-4436	1275	-32768	6194	-9184	-1424	-15740	-626	-23236	-3143	-9136	3560	13560	315	973	-236	-15064	2748	-3364	288	3166	2035	-15688	2080	-584	-3519	15716	592	120	128	1
-12980	-1296	16872	-962	-32768	-16173	-11888	2292	-4728	-326	-32768	8400	-5332	-2476	-13784	4407	-21781	-2609	-9020	3540	13404	268	1090	-403	-15172	2020	-3172	557	3581	2338	-15548	-1824	1448	2027	15328	-517	127	126	1
-15236	-2852	17980	-2535	-32768	-15615	-15948	2384	-5504	-2998	-32768	10111	-4064	-2432	-14196	8949	-20637	-2630	-9176	3952	13052	32	858	-815	-14772	2768	-2948	3791	3977	2424	-14204	116	1188	8579	14779	-280	132	126	1
-20132	-5888	21332	-3161	-32768	-14519	-19840	876	-6328	-3673	-32768	9926	-2264	-1836	-15704	13298	-19008	-2872	-9332	4084	13068	-256	589	-1373	-14804	4108	-3044	5934	4538	2503	-14128	3652	-28	11340	13682	907	127	127	1
-23956	-4604	23180	-7930	-32768	-13960	-25152	2216	-6572	-3731	-32768	10029	-2352	384	-13396	14890	-14745	-4809	-9160	3900	13344	-562	532	-2032	-15620	3556	-3696	5602	5243	2418	-14072	2672	796	10220	13587	2488	125	128	1
-28168	-7504	24932	-14454	-32768	-13220	-32768	1652	-9700	-6607	-32768	10063	-1420	2496	-5028	13110	-16440	-3777	-9160	3472	13920	-555	1169	-2350	-16420	2132	-3608	5875	5891	2425	-13656	104	2684	8198	15585	4495	126	127	1
-32768	-19580	23808	-11477	-32768	-18237	-32768	-2888	-14720	-7296	-32768	7710	-11376	6784	11216	11071	-21800	1131	-9092	3652	13748	-681	2225	-2579	-15684	1828	-1736	7172	6969	2640	-16704	1380	1548	6991	15209	2589	126	126	1
-32768	-9484	8324	-474	-31256	-25716	-28996	-2636	-24012	1266	-32768	6167	-17824	8384	14980	6703	-16793	4126	-9076	3424	13780	-741	3502	-2524	-13872	4880	136	5299	9565	2330	-20332	9580	2212	5160	10537	1137	128	128	1
-32768	-480	-1928	-856	-26448	-23621	-21764	-7808	-31016	-5379	-30788	1882	-12188	5060	18560	1468	-9268	1355	-8680	3132	15260	-405	5644	-2737	-16064	5336	-472	-144	12962	1439	-18988	11212	6452	-375	8306	2798	151	135	1
-32768	12984	-20340	-2774	-23433	-9639	-11488	-8212	-31644	-7669	-17572	-3059	-12852	14080	29228	6310	-4640	1960	-8532	3596	15776	48	9687	-2959	-18884	2864	-1596	-1370	15969	465	-19576	5196	7912	121	11213	2658	126	146	1
-32768	14816	-23988	-3407	-21572	-6685	-6156	-6600	-32768	-7409	2164	-5825	-15956	11892	27516	7962	-990	-4829	-9088	4364	16768	152	15662	-3435	-20856	1840	-1408	400	18735	424	-21424	2600	7268	2041	10092	554	125	144	1
-32768	17708	-28472	-4529	-6362	7504	-10204	-6516	-32164	-3175	17728	-5715	-10280	5796	11872	2561	3502	-6946	-9056	4148	17360	212	23875	-4675	-22900	-576	-692	1100	21606	1078	-23340	1496	8756	2818	5779	-296	112	144	1
-5996	540	2160	28884	23405	10193	-20516	1292	-12556	10623	27144	-12325	-13216	3744	4808	-7840	12201	-8473	-8508	4116	18616	-500	32767	-5764	-25004	-2824	-568	1913	24910	1384	-25748	-252	13580	421	-1506	94	140	150	1
13580	-1732	32767	8498	32767	-7205	-32768	19920	19264	25482	22980	7704	-32768	2872	32767	10673	10737	-9014	-7156	4720	20196	557	32767	-7154	-32768	-5768	2136	4852	27465	1496	-29800	-488	21328	-2202	-10946	-330	131	153	1
-32768	19080	27184	1485	32601	5946	-21228	2708	-19076	28483	9830	3061	-7956	-4612	10640	19592	7751	-2347	-6532	13436	20896	1450	32767	-12222	-32768	-12612	11072	17621	27310	3081	-30108	-6500	32767	-17070	-32768	-7072	140	159	1
-8036	-7112	14456	-2390	18741	13019	-18616	17480	-6436	18809	26183	-6820	-17152	13848	-24080	13431	4266	-4483	-28120	19328	22052	-582	32767	-31073	-32768	13468	4652	25372	26081	2990	-15952	-18092	7392	10045	-7948	-12411	113	161	1
-19928	-13416	13348	5245	23617	7715	-11984	-14320	-10040	6581	17836	-9427	-14200	7128	-9984	-17226	5215	-122	-32768	13532	21800	-7438	32767	-32768	-28836	17060	-9284	12450	28447	4437	-29140	16036	-4652	22039	-15040	-5427	141	152	1
-22096	-11400	15880	10402	10344	10799	-11120	-15264	-11012	5713	16325	-10040	-13772	-9116	-8480	-10719	10752	-4998	-32768	25468	32767	-4957	32767	-32768	-28072	5620	-9736	-503	23727	585	-31296	13604	-14356	12845	-15155	-2245	145	159	1
-20540	-11268	15844	10800	9262	9261	-26056	8996	-10072	-6898	17982	-5011	-27084	-4300	-9356	-6444	11534	-8304	-9436	5476	32767	13503	26000	-23197	-19608	8140	-11520	-9202	18867	99	-32768	3180	-2952	-2246	-23658	4200	127	131	1
-9104	-2176	14412	3674	1505	1886	-17976	-3560	-6776	-9422	13512	-4210	-17984	-2440	-6184	-2872	11605	-3097	-21320	32767	32767	17938	-16260	-4044	-18940	1484	-8640	1709	9085	327	-29636	2720	-5200	-4486	-23045	3026	130	126	1
-9264	-1988	14084	2026	1198	892	-15292	-2564	-6840	3024	9187	-3681	-17808	-696	-4968	1968	13315	-1767	1880	22252	19716	5261	-30033	3299	-13520	176	-4100	11197	-1425	-271	-29436	2428	-8820	-1969	-22312	424	120	133	1
-9260	-1476	13780	268	1672	208	-19720	336	-6336	8136	6411	-2971	-18632	2236	-4260	3577	13507	-2335	8616	13212	10460	-3277	-27310	8254	-8300	4256	-4152	9547	-10591	317	-24880	4828	-8136	628	-20702	18	130	118	1
-9164	-2400	13596	-243	1933	-116	-19064	3072	-5820	3676	5123	-3368	-19896	3832	-3804	626	14905	-2188	3852	9340	9844	-4116	-23189	11737	-4876	4180	-5148	-1118	-17125	-1480	-20540	2988	-9928	-2664	-18543	1047	118	116	1
-9400	-2892	13096	-292	2180	-1038	-17136	-276	-5172	-1911	4878	-3434	-18136	-200	-4704	-1784	15706	-221	-4024	9032	12716	-2911	-25790	13608	-5608	4360	-6956	-7770	-22905	-2815	-16228	-1784	-11444	-4661	-16644	1311	118	117	1
-9360	-3688	12864	40	1929	-1323	-16836	-2016	-4344	-3755	3973	-2712	-18024	-6212	-2424	2572	17417	-1223	-7024	6824	13896	-595	-32448	15973	-6124	1828	-7184	-8365	-28488	-3035	-13360	232	-12100	-3086	-18464	2342	123	122	1
-8944	-3224	12592	-51	1781	-1124	-16948	-2628	-3220	-2357	3186	-1694	-17516	-5340	-1780	2154	17764	-662	-9948	6376	14232	2113	-32768	18272	-7472	932	-7356	-6866	-32768	-3910	-11940	3020	-12260	-3936	-15745	2240	133	115	1
-8972	-3080	12816	-97	1697	-453	-16268	-1220	-3008	10	2836	-1455	-15368	904	-200	3490	15964	-3072	-13472	6680	15700	3172	-32768	20688	-8488	1844	-8252	-5867	-32768	-4935	-8644	2388	-12012	-4290	-14238	1346	137	117	1
-8944	-3068	12672	-138	1631	116	-15628	-188	-2396	-168	3046	-1573	-15376	2244	264	1073	15439	-3299	-17012	6948	16944	3460	-32768	22843	-10992	1444	-9192	-7482	-32768	-5223	-6108	1648	-11932	-7125	-9687	-322	131	121	1
-9000	-2960	12748	53	1715	551	-16260	-488	-2104	-2211	3583	-1548	-15216	1268	700	-5751	14825	-2815	-19288	6544	17056	4190	-32768	24460	-12320	1268	-9852	-8131	-32768	-6055	-5688	832	-13056	-9375	-6934	-1243	135	127	1
-9092	-3152	12644	268	1933	910	-17240	-1776	-3000	-2292	4187	-1043	-14344	324	-80	-9796	15834	-2637	-20672	6808	17432	6244	-32768	24700	-16536	2608	-10632	-10015	-32768	-6511	-3336	36	-13816	-14552	-3529	-681	129	119	1
-9216	-2960	12852	460	2083	1221	-16468	296	-3420	-2423	4892	-1057	-13564	1540	1304	-9688	16514	-1680	-25076	7732	20552	8011	-32768	24116	-19824	3456	-12764	-12000	-32768	-8044	-4136	-652	-8716	-19345	-35	1077	120	118	1
-9320	-2432	12928	376	2479	1256	-17032	2164	-3272	-5793	5627	-1997	-12708	3916	4404	-5997	20488	-3328	-32768	10796	26596	8817	-32768	24963	-25968	4744	-13620	-12528	-32768	-9958	-3452	-1932	-3868	-15098	-5801	1039	120	115	1
-8952	-2300	13312	-476	3562	1115	-16652	1576	-1972	-7409	7214	-1960	-15284	6472	1620	-11500	21017	-4050	-32768	13888	26468	5405	-32768	28439	-28808	8172	-15460	-7101	-32768	-10990	-11048	2372	6328	-12199	-15518	1040	130	112	1
-9136	-1812	13436	-883	4772	744	-14672	492	-1300	-6089	8473	-1872	-20588	992	2664	-7279	10791	790	-32768	10032	10460	316	-32768	29774	-20528	9064	-22096	527	-32768	-8926	-16964	3384	10188	-9728	-13927	1504	127	118	1
-9296	-2184	13288	-1080	6302	312	-17200	-1136	-912	-1829	10690	-965	-18788	-4844	6212	-4014	8991	13	-32768	-4168	-13612	4356	-32768	23469	-15140	6228	-24540	-1759	-32768	-484	-15580	-8508	18624	-14444	-9051	2784	125	112	1
-9256	-3388	13636	-1158	8304	483	-17812	-720	-192	812	11706	-993	-17660	-1880	8524	-1665	13813	-837	-32768	-25580	-28320	25662	-21721	14945	-5204	1264	-24192	7558	-17168	6409	-23204	-29732	32767	-4491	-2130	685	127	120	1
-9344	-3320	15168	-1069	11553	997	-18660	-156	-688	2386	14327	-674	-18988	-2248	8844	1036	13542	-952	-32768	-24228	-25404	21160	-4610	6475	2136	8436	-23328	23702	4061	8313	-23092	-5720	21088	11250	-5992	-2439	125	123	1
-9088	-3536	16760	-1831	17487	1385	-23236	1660	-384	3640	16956	-230	-23696	360	9184	2629	11489	-436	-32768	-14816	-20336	-16936	10971	-18131	964	10716	-23344	24204	6846	8145	-12196	6716	7856	27598	-9365	2643	125	119	1
-9360	-3604	17252	-2944	25527	2470	-24216	5468	-20	3257	19351	-943	-24344	5644	12080	-466	5229	1028	-6704	-15580	32767	-16869	29779	-21126	-32768	-11044	24112	-24072	25437	708	-18768	14156	8472	19242	-7035	7706	119	140	1
-8828	-3048	17428	-3275	27020	2566	-27928	8992	2280	1097	22771	-1426	-26620	5112	19780	-1898	-2306	2802	-32768	5032	13492	-10783	31349	-28288	-28848	15952	-28372	-32768	29041	-394	-21712	14264	19800	10625	-6499	6364	123	105	1
-6980	-13176	19968	-8376	32767	-146	-32768	13540	13968	-1720	27146	-51	-31116	11076	31532	-2364	-16433	5639	-14216	-560	24188	-4075	18450	-10143	-11188	-18484	-9160	-18315	27632	5465	-20024	-27772	-27604	-24172	21575	-1714	127	129	1
-15000	-15404	24388	-10187	32767	8441	-32768	7988	13284	-12945	28923	-5309	-20572	18632	17056	9566	-1393	8436	-8752	11384	9188	-2892	18250	-13680	-13720	5148	-13296	-824	20542	7397	-8604	-9016	-15812	-280	-429	-1692	124	91	1
-32768	-14344	24260	-6312	32767	22329	-32768	-14568	-4424	-14841	28756	-3940	-20060	4324	3224	-29101	-4775	9203	-19320	4156	15068	-12675	7108	-13520	-13392	17680	-18864	-1219	16154	10859	-10380	1896	-11752	11756	11450	3575	130	125	1
-32768	-20592	30608	2320	32767	31656	-32768	-5380	732	1076	30053	-4953	-32768	-6280	-14820	-17987	-1891	2190	-18440	-1412	19736	-6714	2560	-7301	-21844	-8708	-17596	3722	13932	6633	-30140	15812	-11504	10269	12054	8297	129	111	1
-18912	-10196	32767	-8105	32767	25817	-29108	2536	-2616	6377	21462	-5526	-32768	3016	-7600	-10789	-15082	977	-10476	6324	14268	-2642	1091	-2130	-15528	6368	-9664	15544	11989	4109	-20572	5984	-5472	887	9396	6491	124	107	1
-32768	-21416	32767	-23480	7092	3588	-19112	2588	-11788	-6541	14373	1418	-32768	4472	-6028	-9245	-16597	1075	-8780	3364	14100	-1148	972	-1042	-15972	5680	-9888	3666	9934	4409	-15916	1380	-5520	2273	11140	3346	127	109	1
-1804	-27424	28832	-9336	-22823	-4173	-22680	-516	3280	-10499	6527	-4656	-32768	6140	-12348	-4046	-18788	3267	-8136	3608	14256	-221	1450	-779	-16740	4920	-8592	-3220	8144	3150	-16408	2744	-2728	2281	11956	2532	126	115	1
8140	-12324	15888	8247	-26207	-6577	-10284	-4612	2224	-4740	-3452	-3721	-29400	2896	-13124	-4765	-19587	842	-8948	4284	14124	914	1801	-230	-17600	2172	-7508	-6362	6511	2445	-19752	2856	-2984	-514	14132	2322	120	109	1
6100	-4000	11604	9352	-25358	-8874	-5088	-1616	200	592	-13904	-1564	-21592	2400	-13500	-5299	-19591	596	-9776	3820	13664	893	1707	-107	-16212	1160	-7196	910	4470	3231	-19620	2420	-2972	-644	14394	2206	133	124	1
1352	-2012	11448	4384	-27701	-9929	-6900	-2208	-1540	4796	-21179	750	-18140	1672	-13924	-5079	-21115	-1296	-9436	4516	13316	1071	1605	388	-15664	3976	-6888	7442	2901	2965	-16512	4412	-3224	3681	16612	2572	132	119	1
-2920	-3092	12696	724	-32768	-9305	-7340	-928	-2968	6129	-27041	2193	-14568	1200	-13400	-5623	-22354	-1485	-9256	4424	13420	1142	1675	523	-15948	5488	-6120	6425	2028	2254	-16060	4540	-736	3008	18376	2443	126	127	1
-6092	-2648	13340	-693	-32768	-8788	-7552	1376	-3716	3178	-31664	3807	-12692	-2020	-15016	-1539	-23459	-2519	-9360	4528	13368	1101	2016	642	-15976	4684	-5232	2525	1792	1865	-16520	3876	-300	-1529	18652	1642	123	126	1
-9164	-2808	14360	-1832	-32768	-9511	-8504	1228	-4260	-40	-32768	5826	-10096	-3296	-14752	1079	-22507	-3019	-9288	4400	13180	1169	2110	599	-15172	2736	-4560	819	1769	1988	-14084	-284	388	676	17857	1443	125	130	1
-11468	-3392	15220	-3068	-32768	-11003	-10116	436	-4524	-1925	-32768	7894	-7300	-2216	-13188	3188	-22317	-2111	-9052	4656	13136	951	2202	331	-15484	964	-2932	2844	1835	2430	-14728	-1104	816	1853	16721	895	126	128	1
-13688	-4756	16096	-4066	-32768	-12256	-13296	500	-4876	-3292	-32768	9121	-5336	-2676	-13972	6085	-22152	-1325	-9392	4236	12924	657	2189	-197	-14524	2508	-3320	6199	2204	2797	-13720	-984	1680	7170	16064	625	130	130	1
-15828	-6872	17492	-5210	-32768	-12979	-17224	-428	-5100	-4279	-32768	9590	-4684	-720	-14600	8565	-22112	-2639	-9476	4440	12688	428	1956	-369	-14544	4736	-3328	6153	2978	2869	-14232	1236	60	11688	14995	1235	132	132	1
-20208	-7796	18928	-8660	-32768	-13588	-22936	-148	-5412	-4222	-32768	9013	-2952	-1772	-13900	13601	-19946	-3845	-9608	4488	12872	133	1687	-619	-14624	4032	-3860	4900	3696	2644	-11792	932	3456	12132	14827	2757	127	134	1
-27352	-9824	22032	-13433	-32768	-14731	-28176	-1472	-8484	-4769	-32768	8854	-2464	448	-10488	13744	-17746	-5910	-9544	4248	12588	-210	1355	-1002	-15112	2824	-3668	5906	4049	2417	-12680	2700	136	11003	19404	4469	130	132	1
-32768	-17732	24264	-14353	-32768	-17804	-32768	-3964	-11876	-6683	-32768	6789	-5104	6868	3692	11225	-22615	-3057	-9516	4668	12912	-744	1172	-1867	-14680	3388	-2292	8300	4738	2732	-18076	5952	-3832	11173	17248	1731	127	124	1
-32768	-17168	13732	-3435	-32768	-25281	-32768	-5700	-19020	895	-32768	3215	-13036	2352	14224	3543	-17300	-926	-9108	4376	13292	-724	1890	-2493	-14728	3680	-2164	8309	4947	2740	-21120	9664	-192	4455	9016	-145	127	127	1
-32768	-1144	5372	-5791	-28550	-27785	-23000	-2960	-27568	-1835	-32768	3389	-11756	-920	17068	5847	-7011	-1569	-9448	3952	13156	-639	3229	-2624	-13832	5488	-40	2220	9403	2091	-16044	9916	7696	881	9333	681	127	123	1
-32768	9856	-4316	-5891	-29121	-15803	-20580	-7404	-28444	-13236	-26297	-2028	-12576	7968	24360	2947	-6750	-87	-9172	4452	14136	-381	5330	-2484	-16036	6580	588	-1148	12820	826	-17032	6588	10160	1333	12044	2139	126	132	1
-32768	16240	-21368	-5525	-21150	1389	-10916	-7728	-31900	-11464	-10547	-6124	-16240	12268	23152	7617	-2793	-3273	-8924	5344	15192	-142	9315	-3862	-18720	3336	436	-1321	16064	826	-20996	2688	8920	2971	11364	2489	131	138	1
-32768	14060	-23120	-1960	-5911	9048	-6548	-5548	-32768	-928	5512	-5895	-10676	8368	19652	11649	-2702	-5574	-9048	4072	16680	355	15329	-4542	-20640	208	-1356	-97	19331	1182	-22948	196	6776	4057	7611	1998	126	152	1
-32768	8184	-14364	5691	7583	7518	-11640	-2828	-32764	6175	18718	-6431	-9464	3988	5164	6195	6092	-6923	-9052	3132	17408	1177	23883	-4298	-23476	-2264	-2372	560	22308	1413	-22956	-136	8720	5058	5070	1364	128	154	1
-4652	8192	14900	32767	25166	-1383	-18612	14252	9616	21059	26866	-12430	-7800	6800	440	2688	12159	-8326	-8436	3240	19068	3171	32767	-3582	-26628	-5192	-1688	3473	25204	1863	-26768	-2228	11908	3391	-591	301	121	149	1
15856	20628	32767	12237	32767	-2834	-32768	13984	8264	32767	16374	5733	-28804	-4776	12492	9405	10253	-10456	-6032	7088	19172	4941	32767	-3294	-32768	-8220	3608	11038	26871	2211	-32768	-1424	19148	741	-12709	-1524	113	151	1
-32768	15704	32767	-954	29671	13388	-22824	6984	-14956	20835	12033	4292	-18296	19636	8564	23985	11162	-2356	-6712	15672	20456	6697	32767	-9943	-32768	-8612	10928	22987	26146	4059	-29664	-6668	32767	-10444	-32768	-8424	143	163	1
-5652	-26352	7768	375	22490	7769	-20636	11312	-6200	14480	25656	-6930	-18908	20596	-20132	-4594	4825	-6200	-32768	16736	17872	6795	32767	-27535	-31788	16844	-2032	22699	26373	3458	-15940	-15592	-1404	18203	-6017	-11869	134	163	1
-16728	9096	16508	2703	22849	8488	-7912	-6072	-10348	4538	17838	-8859	-5640	-1520	-11956	-31985	6521	1479	-32768	16072	24360	2792	32767	-32611	-30796	15660	-9236	10234	27953	3645	-30628	17096	-6820	20627	-15323	-5090	128	165	1
-18008	-16300	12620	9492	10730	7527	-18088	-5636	-13220	-8167	14999	-9672	-15464	-12896	-10136	-11431	13462	-3524	-32768	23128	32767	1600	32767	-32768	-27236	6416	-9800	124	23266	2120	-32496	11308	-15344	9005	-16897	-3142	131	150	1
-13944	-2252	14748	4444	3096	3856	-26928	4660	-9324	-7137	17394	-4151	-29796	-6260	-9820	-161	11285	-6915	-13520	9696	32767	19037	23249	-21126	-19684	7592	-12184	-8749	19582	210	-31980	3056	-3808	-1289	-24860	2604	117	133	1
-9636	-1608	14480	3232	2159	2014	-18468	-5388	-6972	-4271	11778	-3886	-18752	-1716	-5700	681	12038	-3256	-19192	30648	32767	16781	-18140	-5798	-18940	-72	-7560	3011	8604	47	-29948	3676	-6244	-5086	-23086	1561	131	122	1
-8632	-2208	14100	1437	1621	956	-15156	-1008	-6456	5282	8443	-2508	-18088	1208	-4956	2944	13384	-2754	3836	18640	20516	6615	-30464	-1119	-13356	-420	-3572	13851	-1723	-980	-28676	2396	-8756	-3417	-21746	-1382	120	120	1
-9092	-1508	13712	-259	2168	390	-19800	2108	-6240	5168	5785	-2735	-18616	1720	-3984	2241	14032	-2598	7468	11620	11700	-850	-29373	1695	-7948	5088	-4084	10310	-10769	-705	-24804	3048	-8868	-847	-19801	-1254	121	125	1
-9740	-2316	13320	-716	2299	-155	-18988	1960	-5872	-417	4849	-3105	-19548	2724	-3836	862	15126	-1699	3860	8324	9904	-2797	-26613	3573	-4740	4544	-4936	-1796	-17487	-1478	-20564	3028	-10960	-2633	-17483	-302	118	114	1
-9756	-3312	12836	-366	2418	-1048	-16844	-800	-4692	-3460	4127	-2936	-17284	-368	-3300	-2609	16054	-96	-2592	8944	11684	-1072	-28714	6049	-5268	3116	-6896	-7441	-23256	-2972	-16344	2016	-12156	-2998	-16189	215	120	119	1
-9620	-3192	12868	86	2184	-1464	-17192	-2300	-3912	-4054	3473	-2311	-17380	-3596	-1860	-2000	16735	-1409	-7164	8776	12804	934	-32768	9721	-4864	1628	-7708	-5728	-28871	-3549	-13252	1032	-12024	-1521	-16192	789	124	116	1
-9200	-3516	12588	201	1975	-1524	-17064	-2456	-3020	-2687	2882	-1360	-16640	-932	-912	904	16770	-1368	-9348	8192	12740	3136	-32768	13911	-6152	1396	-7564	-3702	-32768	-3903	-10312	3016	-12980	-2610	-16363	868	135	117	1
-9144	-3352	12644	34	1860	-1204	-16292	-480	-2768	-1957	2807	-1066	-15372	548	-108	2209	16058	-2186	-11260	8100	12880	4655	-32768	17639	-8000	1476	-8172	-2407	-32768	-4423	-8580	3780	-12056	-3998	-12344	229	137	116	1
-9120	-3116	12480	-126	1691	-676	-15732	-324	-2260	-2171	2878	-1228	-15256	1844	164	912	15526	-2654	-15076	8716	14304	4977	-32768	20356	-10444	2008	-9136	-2673	-32768	-4466	-4920	1760	-12452	-5255	-9457	-847	132	121	1
-9076	-2968	12716	-116	1688	-118	-15936	-128	-2068	-3192	3371	-1337	-14992	2044	856	-4609	15144	-1722	-19968	8948	16988	5635	-32768	22198	-12004	2556	-10468	-3870	-32768	-4140	-4388	868	-12936	-7121	-5644	-1420	128	123	1
-9300	-3240	12580	-134	1845	54	-16628	-1660	-2200	-3282	4276	-953	-13420	724	1384	-10835	15785	-2002	-24040	9348	18960	7602	-32768	24083	-16060	4064	-10544	-6166	-32768	-4104	-3592	764	-13400	-12880	-2427	-226	130	124	1
-9256	-3712	12176	148	1689	691	-15156	-1636	-2096	-3129	5387	-449	-14720	2752	5624	-11370	16684	-2202	-26264	10056	20200	9766	-32768	25633	-21480	5452	-10836	-8281	-32768	-5643	-1520	336	-12248	-20517	-3127	1764	126	120	1
-9212	-2916	12536	382	1574	1151	-16316	752	-2344	-6544	6271	-1508	-11956	2944	4196	-6886	18318	-3828	-31236	14276	23300	8283	-32768	26293	-28084	8716	-12600	-11321	-32768	-8069	-4212	1448	-4448	-17028	-5199	2654	127	119	1
-9124	-2548	12968	170	2033	1323	-16292	620	-1776	-7179	7386	-1604	-15356	4608	1392	-8031	19835	-3148	-32768	20548	23412	-1834	-32768	28808	-27224	10100	-16252	-15071	-32768	-9374	-13328	4236	7072	-14580	-15899	2309	123	116	1
-9188	-2024	13220	-243	2987	1267	-15308	280	-1120	-4823	8402	-1297	-20812	-1536	916	-6533	10817	1909	-32768	11184	8652	-8603	-32768	32767	-19888	4212	-20964	-10960	-32768	-8140	-17032	1708	8000	-13377	-15663	2772	126	117	1
-9308	-2568	13080	-627	4476	913	-16740	-356	-976	-1954	10233	-752	-18948	-4528	5016	-3392	9316	1333	-32768	-2400	-11420	-770	-32440	25951	-17960	812	-24236	-4576	-32768	835	-13856	-10660	17216	-13282	-11925	-85	128	116	1
-9220	-2964	13500	-808	6201	884	-17408	-2272	-64	1512	10242	-591	-16064	-2140	8752	-699	13380	36	-32768	-32768	-26468	32767	-23646	16502	-3940	-1444	-22480	14967	-18819	8592	-23448	-23624	32767	-3389	-2818	-522	126	116	1
-9180	-3084	14728	-734	8832	1372	-17292	-868	-736	2968	13945	-112	-19052	-1004	8696	1720	13708	-642	-32768	-24688	-24864	21308	-7046	1135	800	16100	-20448	27586	3096	8310	-24068	-5884	23012	6595	-4196	-2678	125	125	1
-9196	-3968	16068	-1187	13867	1600	-22832	-52	-900	4500	16475	474	-22676	-272	6872	2154	11647	-1102	-32768	-20608	-12348	-11818	3484	-21617	-6460	15280	-23908	3690	19284	3827	-13888	8284	5800	23080	-8866	4269	122	124	1
-9124	-3520	16728	-1797	20783	2953	-23372	4820	-1104	4044	18739	-290	-23284	4140	9136	-401	6013	1000	-32768	-5392	-976	-17210	4100	-19533	-10172	6600	-14080	-13640	27545	4549	-10524	5912	-3452	21578	2346	7269	122	116	1
-8600	-1864	18192	-3668	30304	3076	-24680	8316	128	2363	21764	-1517	-23888	6744	15728	-1721	1346	2224	32767	2772	32767	-8814	30430	-5718	-32768	-32768	20740	-20926	17344	-6426	-9352	232	-284	817	4473	4684	120	118	1
-6080	-3440	20632	-7412	32767	699	-32136	11408	6756	-530	25806	-582	-27168	8420	26528	-4437	-9279	4811	-32768	-25980	26976	-14762	32767	-18293	-13996	14924	-31268	-32768	24019	1975	-32768	12964	32767	-23572	-3935	14099	127	120	1
-2904	-11472	22220	-7337	32767	3380	-32768	15052	12080	-7282	28404	-2577	-28252	17336	32767	14127	-19328	10458	-17948	10976	22416	-870	15321	-16371	-20560	-12648	-12440	-11436	25813	5397	-28368	-20948	-29428	-25696	15387	-1018	127	107	1
-32768	-20032	21808	-8436	32767	16974	-32768	-5704	-1048	-14831	28185	-3439	-20380	11172	-820	-23688	612	10824	-21236	5040	16420	-12186	16275	-11111	-14304	13032	-14216	2942	18522	8401	2536	-11084	-13772	20767	2813	-130	133	135	1
-32768	-23164	28944	-1530	32767	28441	-32768	-15080	-2252	-4912	31379	-3371	-31988	-9276	-11064	-21093	205	2967	-17936	10384	14640	-8688	4509	-10080	-12084	3236	-19664	-1546	15072	9814	-17648	10340	-14152	16272	11004	2633	130	121	1
-30416	-20356	32767	-2818	32767	30475	-32768	2976	896	9193	27505	-6895	-32768	-588	-10780	-9700	-15284	1266	-12180	-948	16456	-2371	793	-2754	-21956	-2228	-14116	15675	11946	5030	-29860	16192	-14728	11685	13917	7366	127	115	1
-9752	-6984	31544	-18396	30562	16943	-23152	1488	-4876	4845	17172	-2171	-32768	5948	-6684	-5597	-18282	1843	-9224	3232	15008	-1050	846	-1314	-16160	11056	-9908	12481	9256	3775	-17940	7476	-6004	1604	11212	6120	123	109	1
-15504	-32532	32767	-18237	-15877	-1446	-20392	404	2112	-7951	9375	-692	-32400	5168	-11664	-3268	-18912	3627	-8292	2888	14840	42	1855	-897	-16944	6084	-8616	-5159	7897	2718	-18700	2716	-5300	-959	12163	2128	124	100	1
8588	-20560	20668	4929	-26124	-4644	-14776	-1784	5156	-6979	-1633	-3817	-32476	4032	-13112	-3417	-19776	2009	-9208	3012	14248	1261	2370	34	-17792	1296	-8216	-9185	6170	1495	-16696	684	-3600	-1024	15156	2501	127	113	1
8464	-6508	13548	11329	-25453	-7258	-5916	-2564	1784	-1974	-12327	-1282	-22600	2180	-13184	-4984	-20291	16	-9184	3524	13876	1575	2651	120	-17480	-964	-6756	-1039	3748	2601	-18004	76	-3392	-1140	16315	1385	127	121	1
2940	-3180	11332	6737	-26543	-9905	-5892	-996	-388	2193	-20517	1050	-16844	1196	-13608	-4562	-20956	-1304	-9568	4436	13576	1410	2739	282	-15984	2464	-5420	6952	2001	2971	-16084	892	-2400	1156	16777	801	129	114	1
-2664	-3948	12260	1318	-30585	-10534	-7556	-2196	-2256	5019	-26127	2513	-15096	1552	-13240	-5981	-21458	-2034	-9592	4520	13144	962	2573	206	-15820	4608	-4116	8380	1362	2906	-15976	2956	-1616	1827	17400	1321	130	127	1
-6432	-5208	13192	-139	-32768	-10293	-8176	-1252	-3548	3709	-31187	3621	-9968	-1320	-14980	-4594	-23154	-2996	-9496	4144	13268	785	2544	110	-15324	3908	-2960	5890	1572	2552	-16844	1824	1964	2917	19527	1796	124	143	1
-8592	-5144	13584	-21	-32768	-10819	-8580	-252	-3904	1897	-32768	5067	-10704	-2432	-14948	665	-20952	-4243	-9552	3684	13152	732	2572	258	-14736	3644	-3176	3080	2180	2323	-13816	-572	1384	1733	16637	456	124	133	1
-10532	-4288	13960	-1065	-32768	-12189	-10204	808	-4416	362	-32768	6918	-7008	-3072	-14028	3728	-22234	-3151	-9668	4064	12852	560	2190	187	-14700	2840	-3296	3277	2528	2143	-14624	-1216	-20	6357	16277	296	126	133	1
-13304	-4568	15636	-2728	-32768	-13578	-12440	676	-5176	-2208	-32768	8194	-4372	-2832	-14112	7748	-21392	-1890	-9792	4008	12416	216	1453	-240	-14120	2968	-3312	7259	2699	2405	-13164	136	628	12608	14694	1387	127	134	1
-16844	-5952	18284	-4603	-32768	-14333	-16844	612	-6052	-4335	-32768	8554	-1144	-2772	-16180	11523	-20888	-1519	-9700	4292	12376	-157	681	-740	-14012	4180	-3464	10313	2926	2367	-10396	1628	3636	13449	14434	3682	124	133	1
-22136	-7168	21724	-7078	-32768	-15648	-21384	432	-6840	-5569	-32768	8109	-2324	-1340	-15708	13089	-17577	-3557	-9532	4292	12600	-765	9	-1548	-14512	3932	-2724	9298	3580	2286	-12772	3528	-1568	14278	16320	4007	128	134	1
-25632	-6980	22976	-11859	-32768	-17096	-27492	108	-6904	-6154	-32768	8711	-1756	-1132	-13332	13324	-13776	-5786	-9444	3728	13232	-999	-126	-2033	-15616	2896	-1920	8239	4815	1972	-19904	7500	-2104	13587	13940	1579	127	127	1
-30604	-10368	26572	-14178	-32768	-17721	-32768	-28	-11284	-8045	-32768	7276	-1976	1508	-2568	14413	-15179	-4217	-9256	3652	13188	-1070	-86	-2100	-15212	3588	-736	6337	6479	1918	-20976	7856	-1888	12297	13158	1001	126	127	1
-32768	-18856	26756	-7165	-32768	-21201	-32768	-4136	-16296	-4442	-32768	5651	-15300	3196	12064	7599	-18453	1549	-9040	3908	13532	-720	1288	-2528	-14728	4604	100	3267	8866	1696	-17132	6884	5188	859	8727	644	124	125	1
-32768	-5156	12400	-5044	-32768	-25013	-27212	-5784	-24928	-2106	-32768	8316	-21316	5224	12072	5873	-14253	2002	-9304	3828	13788	-533	3102	-2847	-15968	4196	724	846	11523	1075	-16772	6684	8404	1586	11762	646	128	126	1
-32768	-996	-5800	-2411	-32768	-18197	-23448	-9340	-30368	-12340	-32439	-2740	-11712	10304	22616	1384	-12723	1872	-9044	4104	14532	-232	5844	-3376	-16336	3492	980	-390	14654	719	-19340	3756	8592	1645	11880	664	119	130	1
-32768	23896	-32768	-7390	-22654	-4862	-4772	-2272	-32768	-6770	-15204	-7071	-14420	23704	32767	10417	-4260	1592	-9216	3156	15608	-12	9881	-3805	-16500	3420	892	-643	15135	715	-19584	1564	6892	2510	10715	1987	119	137	1
-32768	24128	-32768	-5003	3460	5967	-4096	-9520	-32768	-1963	11135	-5456	-14656	6772	29632	11211	-1101	-6974	-9284	3316	16760	670	16295	-3414	-20780	1592	-2812	-3540	21080	-191	-20420	1736	4372	411	7664	1325	130	142	1
-32768	9328	-7284	14134	13180	8258	-13568	-5184	-32516	14559	25114	-3494	-14404	2124	980	356	9376	-11326	-9500	4864	17144	1073	24700	-4160	-23496	-1544	-2776	53	23052	528	-22804	1836	5964	3373	4583	182	127	151	1
6432	10236	32767	22047	23045	4649	-24864	22824	32644	32767	32075	-2983	-22516	3100	-3600	-7262	15702	-9305	-8424	4208	18524	1867	32767	-4863	-26852	-2360	-1212	3982	25445	858	-27348	3512	10488	3978	-1051	-569	113	155	1
-25900	20896	10440	8591	32767	1652	-32768	6940	-18680	25491	15747	-111	-15076	11876	17656	14175	465	-5254	-6700	7668	19408	2514	32767	-6662	-32768	-4488	3824	6753	27092	710	-30904	3004	17968	-2467	-12498	-1327	123	157	1
-32768	21236	32767	495	22921	13554	-23620	13976	-9220	20568	18067	-1024	-22168	9424	-13576	23615	13995	-4270	-7484	16188	21072	2168	32767	-14561	-32768	-5392	11092	16746	26399	2485	-30240	-4216	32767	-13352	-32053	-6379	123	160	1
-4652	-25960	4740	-261	22643	6329	-16904	420	-8368	10235	27295	-7370	-15968	12080	-20372	-4091	2656	-6538	-32768	16012	17924	1779	32767	-32561	-31304	14544	-3040	19791	25676	2962	-17280	-17568	-2348	11372	-6060	-11630	145	164	1
-28684	2424	19336	5405	15424	9953	-9868	-11808	-14852	5556	14561	-8913	-5452	-6908	-10700	-20077	7561	1025	-32768	13056	20376	148	32767	-32768	-30632	13280	-9264	11069	26896	3510	-30300	11040	-5864	18209	-15012	-4951	133	158	1
-17164	-3188	16636	8231	7406	5252	-23200	3360	-12780	-2408	14533	-8131	-26672	-10852	-12036	-4608	12682	-8012	-32768	19356	32767	5910	32767	-29273	-26236	5460	-10188	3281	22125	825	-32724	9340	-15044	12031	-16534	-3098	126	153	1
-10940	-6468	14528	3130	2787	1818	-23036	592	-5576	-8616	14576	-3855	-22264	-1980	-7980	1138	9953	-5673	-23656	12852	31328	16732	24850	-21365	-18696	7576	-12156	-2851	17355	551	-31152	2044	-4772	-300	-23760	1796	115	128	1
-8824	-2232	15748	1933	2072	1029	-16024	-2696	-6268	-2709	9418	-3867	-16104	1472	-5944	2951	12247	-3138	-17944	32767	32767	11806	-16074	-2176	-16952	3084	-7880	3055	8141	687	-27520	1584	-6428	-2514	-23828	1712	120	112	1
-8272	-1956	13936	485	2210	227	-16500	1020	-5136	2845	6545	-3222	-17204	5072	-3544	1968	13865	-2553	2456	18912	18948	-46	-26186	4943	-12728	-936	-3320	11465	-1954	-30	-27596	2720	-8800	-1143	-22935	-1054	120	136	1
-8288	-2448	13700	-248	2403	-318	-19836	2620	-3624	1319	5091	-3567	-18448	3820	-2724	-1485	13840	-1377	7512	10248	11168	-4192	-24759	8715	-7900	4096	-3512	9892	-10163	137	-22176	4452	-8280	1296	-20345	-1008	118	125	1
-9220	-3024	13292	-319	2613	-806	-18028	876	-3644	-2841	4540	-4000	-17860	1680	-2276	-3796	15372	-536	3616	6608	9392	-2813	-22470	10124	-4380	4884	-4472	-954	-16577	-322	-17996	2948	-9768	-812	-17935	131	116	121	1
-9532	-3848	12788	-320	2501	-1446	-16800	-1108	-3220	-6044	4516	-3145	-17492	-3204	-1556	-3873	16300	-960	-2116	6956	10472	-1131	-24424	9994	-4772	4508	-5652	-7331	-21807	-1458	-14396	420	-10628	-1480	-15713	771	124	118	1
-9388	-4056	12484	39	1989	-1591	-16712	-3156	-2300	-6799	4128	-2346	-15520	-3868	-172	-1816	16350	-2056	-5852	6636	11860	360	-28997	10094	-5032	2696	-6504	-8042	-26757	-1605	-12876	3400	-10932	-746	-15973	1677	127	118	1
-9008	-3776	12684	73	1498	-1465	-16324	-2584	-1752	-3853	3902	-1882	-15736	-1304	372	987	16397	-2890	-9592	6864	12708	2522	-32768	11807	-6212	1988	-7332	-7116	-30977	-2652	-9876	4036	-11176	-2989	-14443	1767	121	119	1
-8932	-3164	12656	-53	1266	-1171	-15424	-404	-1808	-945	3648	-1209	-14556	1304	1144	1872	15550	-2641	-12412	7372	13644	4390	-32768	14768	-7508	2104	-8204	-6095	-32768	-3756	-8492	4480	-10344	-5223	-12914	1297	129	123	1
-8780	-3220	12564	-195	1060	-850	-15780	136	-1240	-2056	4434	-1462	-15132	2088	1892	-2741	14154	-2973	-15112	8028	14456	5775	-32768	18150	-10416	1572	-8872	-5344	-32768	-4302	-6168	2952	-11408	-7936	-10102	212	132	124	1
-8940	-3996	12484	-132	891	-258	-16500	-976	-1248	-3485	4988	-1662	-13952	996	1124	-9252	13594	-2399	-19808	8864	16108	6831	-32768	21429	-11628	1900	-9624	-4591	-32768	-4552	-6056	1780	-11912	-9401	-8523	-677	129	125	1
-8824	-3596	12480	0	728	205	-15964	-1444	-1600	-3871	5939	-1490	-13412	264	2680	-13090	14048	-2470	-23144	9080	16908	9158	-32768	24844	-14708	3128	-9388	-5232	-32768	-4866	-5744	1272	-12852	-13989	-4740	342	129	121	1
-8996	-3728	12472	265	706	625	-16176	-1224	-2364	-3737	6453	-1566	-11832	308	4540	-3720	16737	-2816	-25708	8540	16036	13429	-32768	27494	-18852	5660	-10012	-7333	-32768	-5933	-3256	60	-11128	-16845	-2701	2607	128	120	1
-9048	-3332	12676	303	734	1040	-16888	236	-2332	-4493	7404	-1301	-15104	2656	900	-3954	20231	-4058	-31080	14152	18772	8569	-32768	26136	-19652	6336	-10228	-7638	-32768	-6090	-4840	-840	-4580	-16618	-6201	3468	128	121	1
-8816	-2936	13188	108	1221	1094	-16268	1736	-1376	-5241	8354	-1572	-21144	2832	360	-6512	16987	-1853	-32768	17772	20512	579	-32768	27036	-26528	9480	-14476	-17239	-32768	-7159	-11408	1164	3384	-13011	-13564	2779	125	117	1
-8716	-2484	13520	-279	2189	864	-15292	52	-1072	-4774	9775	-1673	-18836	-972	820	-6090	6983	732	-32768	11812	13984	-1807	-32768	32767	-22060	5904	-17988	-10728	-32768	-8116	-16640	2560	6056	-11495	-13625	2908	124	122	1
-8636	-3116	13640	-664	3788	987	-18160	-2180	-1552	-694	11134	-1108	-16888	-3564	4300	-3451	11915	-219	-32768	1956	1084	-2102	-32768	30447	-18096	3856	-20924	-3540	-32768	-3187	-12428	-4476	9900	-8941	-9072	574	123	109	1
-8760	-3492	13424	-933	5175	1566	-16120	116	-1184	1333	11508	-702	-15756	-868	5776	-1268	14461	-1257	-32768	-20068	-17848	10506	-27765	19272	-13724	2012	-19820	6464	-26552	4161	-16228	-18776	32767	-8813	-5490	3072	123	114	1
-8788	-2748	14488	-1421	7419	1526	-17176	340	-1152	1252	13711	-695	-17904	-12	7116	479	13774	-684	-32768	-32768	-29004	23929	-11049	4089	1248	8188	-20276	16344	-5838	8649	-28360	-9076	32767	-494	-941	906	127	128	1
-8744	-2748	16000	-2263	11813	1169	-20508	832	-1884	3456	15707	-2	-20976	88	6792	1490	11441	-622	-32768	-19624	-15360	4684	2590	-10445	-3504	12104	-22348	10876	12294	6967	-16188	664	15224	15360	-6620	724	125	129	1
-8744	-3744	16808	-3019	18004	1483	-22660	2976	-1656	4888	17959	50	-22148	2868	7936	221	7117	132	-32768	908	-21572	-29122	16501	-22000	-10968	8256	-23052	-1481	22841	5651	-16144	3516	1552	18434	-5306	6850	126	126	1
-8116	-4096	17456	-4035	26061	2016	-24260	5792	-876	2808	21000	-976	-22764	4472	12228	-2363	2737	1476	14416	-7420	32767	-11544	32767	-1546	-32768	-25060	20740	-26053	21778	-8224	-20084	9924	5344	13940	-4358	7466	122	114	1
-7420	-1572	20296	-6668	32767	1495	-29768	6996	2148	26	24918	-573	-26720	4260	22648	-4288	-5888	2939	-32768	-17228	27520	-13984	30550	-23320	-19324	10324	-32768	-32768	28773	1009	-14544	22196	18692	-24707	6266	17930	127	101	1
-2592	-10116	23040	-9149	32767	1344	-32768	14076	11108	-1742	28436	-657	-31392	13612	32767	2845	-22402	6497	-9784	9724	18012	-4021	19949	-13718	-12784	-16304	-10116	-15311	25429	5426	-24752	-21628	-32768	-26905	19826	-3278	127	106	1
-16104	-14872	25092	-10669	32767	8741	-32768	7108	13588	-12553	29070	-1682	-21432	19628	2700	-3255	930	9692	-32768	8476	17612	-11658	15626	-17696	-13164	16908	-16268	-32	18178	7650	-7436	-5864	-6396	4323	73	-144	120	142	1
-32768	-20008	23708	-11191	32767	20861	-32768	-17016	-5980	-11493	29205	-920	-23968	-2696	36	-22195	-1366	6139	-18396	3088	22448	-10817	3111	-12688	-19212	3604	-20272	-8244	15323	9844	-19176	4536	-12560	5296	12670	5115	130	124	1
-32308	-22800	32767	2161	32767	32767	-32768	-7020	944	6749	30450	-3280	-32768	-4224	-13612	-10009	-6383	2949	-12812	-4180	17192	-3760	639	-3955	-20600	-10416	-15876	11998	11803	5092	-28372	6308	-13816	8571	14063	8945	123	127	1
-15944	-14176	32767	-4033	32767	28750	-29432	616	-4904	16117	20036	-4517	-32768	-2960	-13140	-8511	-9426	2726	-10552	2372	14776	-1443	335	-1281	-15720	5936	-11376	17411	8804	5185	-20292	-388	-6252	4519	10354	6089	124	129	1
-32768	-19676	32767	-15907	4338	4178	-18872	6824	-10740	3800	12056	1867	-32768	2780	-10972	-1457	-18447	1627	-9296	1864	14164	247	925	50	-17292	3264	-9492	6795	6936	5560	-14176	1984	-4852	7283	10863	1305	126	123	1
3012	-22480	29320	-7920	-25663	-3376	-21316	3272	5032	-8044	4328	-1603	-32768	7200	-12700	941	-20256	2145	-9072	2272	13804	1367	1507	643	-16408	5208	-7700	-1238	5633	3838	-17100	3144	-3516	5625	13838	1546	130	112	1
9396	-11392	16072	6915	-28633	-3193	-9296	-4192	3160	-7761	-6757	-24	-25724	5404	-13244	-3178	-21063	2859	-9276	4232	13564	1942	1912	716	-17444	4176	-5240	-3070	4393	3573	-17756	5172	-2604	4325	15013	957	126	120	1
5892	-4440	12120	9092	-28554	-3952	-3516	-1012	604	-3138	-16422	667	-17988	4016	-13096	-5709	-20877	1682	-9836	4520	13052	1426	1947	397	-15960	4536	-4664	1918	2905	3173	-15192	6160	-2304	3851	15579	1292	136	127	1
1832	-1516	11220	3396	-30452	-6296	-6132	-256	-1172	1107	-22833	3054	-15788	1316	-14232	-6184	-21989	-601	-10008	4788	12792	799	1524	-159	-15304	5488	-4252	7129	1732	2311	-16416	8088	-2972	2188	16458	2045	125	132	1
-2992	-3828	12536	-1083	-32768	-7776	-7392	588	-2932	543	-28601	4717	-14500	-1580	-14608	-5141	-23330	-847	-10060	4204	12948	448	1379	-723	-15564	5600	-3660	5557	1557	1571	-16784	5320	-1204	723	16082	3554	125	129	1
-6752	-4260	13760	-271	-32768	-9003	-7496	648	-4012	-1394	-32768	5902	-10948	-3556	-13924	-1796	-22025	-920	-9772	3176	13276	457	1391	-766	-15564	2988	-3140	1957	2002	1451	-14488	-704	460	-1388	16882	999	123	132	1
-9256	-3280	14480	358	-32768	-11205	-9076	1152	-4512	-1552	-32768	7983	-9756	-3588	-15060	2985	-23121	-1392	-9468	2976	13560	568	1777	-620	-15048	1648	-2960	-536	2533	1930	-14792	-3804	1616	3091	17195	205	124	117	1
-12056	-4548	15612	1196	-32768	-13400	-11048	700	-4772	-1315	-32768	9910	-6372	-1836	-14680	6334	-22239	-846	-10004	2892	13000	483	2103	-422	-14984	1596	-3296	1679	2898	2237	-14804	-1784	336	7665	16169	-1193	127	129	1
-15248	-5472	17448	2472	-32768	-14032	-14288	756	-5676	-596	-32768	10812	-3092	-920	-14772	9816	-21563	-140	-10136	3820	12528	167	1792	-792	-15000	3536	-3028	5677	3026	2478	-13848	1076	1032	10955	14937	639	126	133	1
-19776	-6876	20760	993	-32768	-14978	-18472	1108	-6860	-951	-32768	11568	-2088	28	-15956	12632	-19778	-973	-10312	3528	12556	-320	1325	-1397	-14860	3748	-3496	8075	3412	2709	-12000	2604	1556	9823	15150	4469	126	133	1
-26328	-8052	24140	-2690	-32768	-16547	-23640	968	-6936	-2319	-32768	11681	144	184	-15212	14047	-16214	-3138	-9988	3188	12752	-497	1175	-1602	-15164	2848	-2176	7953	4297	2411	-16044	4136	-568	9547	16105	4563	130	121	1
-26100	-8004	23936	-9215	-32768	-16350	-32344	980	-7340	-4859	-32768	12150	-524	60	-9768	11721	-13782	-3681	-9804	3636	13076	-594	1756	-1898	-15516	3828	-440	7560	5873	2156	-19976	7672	204	8449	11548	1241	129	125	1
-32768	-16068	26868	-12833	-32768	-17681	-32768	-3580	-14552	-9645	-32768	10325	-6464	3028	3276	8170	-17527	-794	-9704	3648	13360	-564	2942	-2354	-15076	4916	320	4083	8222	2117	-20320	8280	272	7604	10482	737	123	123	1
-32768	-17188	13168	-1256	-32768	-23671	-32768	-7528	-23700	-1431	-32768	8084	-15868	3064	15828	4416	-18364	1138	-10084	3164	13316	-508	4350	-2583	-14940	4896	324	1838	10966	1365	-15940	9012	7740	726	10562	663	134	126	1
-32768	-7804	-1752	2574	-32033	-23108	-28000	-9680	-32768	-1334	-32768	5315	-17324	3788	17848	10067	-11385	-702	-9900	3808	14048	-364	6453	-2906	-16008	4604	564	-282	14048	701	-16884	6096	8536	-8	12434	1185	135	126	1
-32768	6624	-24732	-3850	-28886	-12569	-13172	-12428	-32768	-8137	-22088	-3438	-12908	20488	32767	8020	-6252	709	-9736	3036	15008	-543	10067	-3679	-18132	2684	-644	-1593	17095	598	-19300	2968	7792	478	11786	1252	127	134	1
-32768	19796	-32768	-7127	-10480	1630	-2236	-6860	-32768	-6336	-90	-8302	-13640	17320	32767	9958	624	-4123	-9836	2776	16156	-252	15743	-3955	-20072	1596	-1252	-1454	20084	181	-21280	1464	7140	711	9613	1505	131	140	1
-32768	13076	-20000	-1265	6431	10032	-7800	-9056	-32768	-2295	18522	-7150	-11848	3200	9696	-1920	9741	-7368	-9808	3652	16812	-39	23707	-4827	-23044	-1084	-964	35	22766	518	-23120	-1080	8088	2059	5868	1217	125	147	1
-15388	10872	14696	21481	14770	6303	-15764	-5124	-7944	8394	32662	-10471	-7052	2244	-3428	-17608	25369	-8368	-9528	4748	17512	-376	32767	-6357	-24504	-3528	104	3940	25212	1744	-25368	-1348	11388	4836	-761	-23	122	149	1
-372	-6456	16208	24416	17523	9256	-32768	32767	28428	25362	19209	8090	-16048	-5720	400	-4909	391	-8520	-7976	4688	19456	1062	32767	-7795	-32768	-4248	2672	7881	27316	1896	-29156	1684	18244	1588	-11689	-1708	116	146	1
-32768	16108	28180	-3090	32767	2822	-25104	336	-15736	12112	16512	892	-22312	9224	19844	32767	5591	-46	-8972	12556	19196	2355	32767	-12630	-32768	-11296	8652	17402	26700	2795	-29672	548	19440	711	-14374	-1916	110	160	1
-16304	-13528	15084	-3121	22459	12196	-21740	14916	-12896	26556	19611	-6814	-18284	18532	15992	32767	6891	-1814	-32768	14228	19852	-324	32767	-29762	-31152	12616	-1448	26933	25422	3633	-27624	-5484	32767	-14935	-32768	-7341	152	164	1
-15908	3544	15528	1176	24388	4432	-14272	-4396	-8264	10597	21593	-11436	-9820	11928	-15124	-25460	4832	-116	-32768	13208	22224	-4600	32767	-32768	-28276	15144	-9500	11852	26799	4553	-30004	10128	-3884	20012	-16964	-5771	132	160	1
-22344	-23668	10916	7813	12776	7351	-14336	-9500	-14604	-6358	15174	-12323	-11408	-11972	-15252	-16975	8449	-1030	-32616	19528	32056	-5733	32767	-31041	-26672	6188	-9388	3294	21823	1952	-32768	8960	-16128	14822	-14389	-3208	127	162	1
-15948	5228	20248	6921	5645	4751	-24296	4968	-11412	-9902	16288	-8238	-32024	-11464	-10008	-6752	11341	-7408	-32768	5616	30076	15558	24055	-21767	-18236	5952	-14412	-5729	17669	1320	-32428	1068	-4892	-788	-24734	3531	126	127	1
-9312	-2192	14476	3976	3872	1167	-22196	-5500	-6076	-9519	12378	-4042	-19528	-7456	-7460	167	12191	-4539	-20028	29844	32767	19221	-16747	-4517	-18848	76	-9748	4101	7968	2293	-29080	1332	-6756	-2396	-24041	2136	118	112	1
-8672	-2900	14384	2683	3152	135	-15652	-3800	-5276	3352	7896	-2929	-17924	-1020	-4356	6150	12360	-3383	1932	19660	16428	8190	-26705	5038	-13336	-1960	-5648	14361	-2015	1469	-28944	1088	-9160	2848	-21693	-1215	116	114	1
-10248	-1696	13528	1121	2792	-856	-18828	1428	-6316	7412	5666	-2265	-18728	3944	-4348	5148	13223	-3467	7832	13416	9052	799	-22819	11298	-8200	3772	-4548	13005	-10358	1659	-23508	3376	-8968	3479	-19585	-765	122	125	1
-9236	-2880	13488	-253	2540	-1214	-19520	2432	-5868	6903	5566	-2395	-18516	4712	-4008	1246	13819	-2720	2420	9308	9256	-3077	-18688	14655	-4584	5132	-5512	250	-16685	913	-19832	4496	-10684	-389	-17147	968	115	117	1
-9612	-3408	12968	-1318	2309	-1307	-17188	1148	-4824	-3622	3871	-3080	-16968	2604	-3340	-2698	15894	-1027	-3396	7968	11856	-4227	-21746	15236	-4528	5008	-6888	-9343	-21820	-191	-15728	592	-11728	-3615	-15071	1736	124	117	1
-9360	-3972	12584	-1179	2100	-1368	-17208	-620	-3816	-6850	3196	-2780	-16860	-1844	-2336	-2083	16309	-1446	-6424	4512	13788	-1280	-27846	16480	-5616	1424	-7360	-11131	-27066	-746	-12412	588	-11152	-1280	-15315	2192	127	115	1
-9116	-3896	12532	-821	2008	-1286	-17116	-1744	-2608	-6962	2611	-2667	-15156	-324	-516	-626	16001	-1788	-10128	4228	14704	3656	-32768	18052	-6984	564	-7792	-7458	-31880	-1927	-11772	1280	-11492	-1502	-15167	2268	125	118	1
-9396	-3332	12420	-879	1908	-1182	-16104	-1240	-2604	-3834	2669	-2256	-15220	-216	-288	-453	16234	-1902	-12656	4832	15540	6113	-32768	18746	-8912	1080	-8272	-5301	-32768	-2424	-7832	2564	-11472	-5241	-12964	916	133	118	1
-9260	-3864	12420	-758	1911	-1156	-15632	-364	-2252	-2621	2569	-1593	-15580	1288	-460	-3128	15184	-2320	-15856	5068	16192	6895	-32768	18655	-10536	812	-8624	-4525	-32768	-2624	-6908	2600	-10916	-7441	-8388	-154	139	121	1
-9232	-4236	12176	-728	1544	-503	-16636	-528	-2004	-4642	2956	-1536	-14436	700	-264	-7574	16001	-2634	-18580	5484	16776	8333	-32768	19108	-12048	296	-9668	-4018	-32768	-2943	-3980	228	-12412	-8307	-6831	-1106	132	126	1
-9256	-3776	12192	-509	1306	2	-16584	-1196	-2556	-6007	3876	-1390	-13292	276	112	-12127	15079	-1890	-22008	7408	17888	9208	-32768	20065	-15428	2336	-9864	-4791	-32768	-3194	-3572	12	-12532	-10918	-3172	-565	135	124	1
-9300	-3896	12036	-221	1111	297	-15372	-1060	-2740	-5575	4493	-1004	-11652	1652	3780	-8068	15530	-3147	-24820	7496	18808	10569	-32768	21998	-20016	3480	-10096	-6593	-32768	-4466	-3704	-516	-10944	-14488	-682	1662	126	121	1
-9456	-3460	12168	7	873	605	-15884	232	-2368	-7652	5512	-1669	-14300	1416	1920	-4642	19642	-3319	-29848	11080	22320	9782	-32768	23099	-25688	5276	-11200	-8455	-32768	-5549	-3488	-348	-5124	-15544	-4079	3017	127	122	1
-9056	-3644	12496	199	923	1196	-16184	188	-616	-7906	6460	-1684	-20328	3108	1736	-9171	15916	-1177	-32768	16188	24696	3434	-32768	25310	-27260	9956	-13456	-13154	-32768	-6587	-12564	1968	7164	-12741	-15120	2542	125	114	1
-8924	-3500	12900	110	1615	1682	-15112	1320	1000	-7185	7872	-1919	-21976	1108	6044	-5192	11045	-439	-32768	8996	14016	-3297	-32768	30501	-22332	4792	-17512	-12144	-32768	-8024	-16476	3548	11776	-10354	-16545	3241	123	113	1
-9020	-2456	12972	-743	3094	852	-15468	-816	368	-3848	11041	-1290	-17316	-2412	8504	-3573	8782	317	-32768	2016	-5460	-2976	-32621	27657	-18296	636	-20860	-5734	-32768	-2577	-15872	-4980	12732	-12123	-9795	865	125	128	1
-8988	-3756	12856	-1219	4415	833	-16788	-1664	708	2811	9316	-836	-16012	-1844	9248	-1775	13676	-1073	-32768	-32444	-21744	22402	-23379	15277	-9380	-840	-21640	11631	-22345	6332	-17956	-14892	32767	-10730	-6738	-1071	124	119	1
-9080	-3180	13952	-1888	6657	921	-16700	-48	28	3529	13763	-282	-17584	-3476	8552	1561	13805	-633	-32768	-30404	-23380	25859	-9615	-2063	-712	14780	-19888	18936	-1677	7508	-28036	-12048	28436	2852	-1478	-2155	129	120	1
-8780	-3964	15856	-2861	10977	787	-21204	-516	-720	5725	15955	568	-21832	-1944	6664	2464	10427	-1513	-32768	-20504	-14356	-5007	-147	-18658	-4796	8644	-23352	6427	15566	3843	-15344	788	9572	20649	-8136	2775	125	116	1
-8784	-5448	16692	-3474	17348	1835	-23868	2760	-880	6650	18090	537	-23336	2660	8328	797	5536	207	-32604	13932	-4692	-29111	5133	-24542	-10692	8804	-21708	599	24167	5199	-13016	1932	96	22701	1521	4724	127	120	1
-8192	-3356	18292	-4386	26129	2273	-24904	8076	-172	4179	21472	-1182	-24236	6432	13584	-2551	25	2291	26168	4684	32767	-14859	27382	-288	-32768	-27928	22484	-19550	20170	-3334	-10708	4516	-392	16535	2234	4557	125	110	1
-6956	-384	21280	-8030	32767	32	-30360	9648	3624	649	25560	-442	-25744	5424	24196	-1738	-8006	4274	-32768	-17776	16308	-16311	32767	-18452	-21100	14548	-26284	-32768	25163	2249	-28764	27708	18500	-28147	-2014	17383	126	126	1
-3568	-11748	22004	-10270	32767	128	-32768	12848	12500	-1240	28150	-400	-29020	13248	32767	8372	-23179	8229	-14932	-3056	22524	-411	16789	-14669	-16360	-20272	-9628	-17556	25295	3772	-28444	-25816	-23340	-23608	23379	-2471	127	95	1
-18784	-13592	20552	-13993	32767	10320	-32768	3128	10432	-9423	28122	-1616	-16504	20112	-3152	-5161	3357	9335	-20224	23360	12112	-10004	17659	-9406	-15404	10296	-11216	5226	19279	7851	-10508	-17888	-13748	5193	-747	861	115	95	1
-32768	-20364	23496	-11650	32767	21983	-32768	-16700	-4316	-5241	29700	-2239	-25208	-2500	-1652	-21807	-1664	6786	-18992	3036	18540	-9440	4450	-12940	-10352	10968	-17428	-3065	15665	10387	-10964	10924	-11500	16867	7969	484	135	135	1
-32768	-24280	32160	1002	32767	32767	-32768	-2392	-672	7716	30563	-5919	-32768	-4572	-15044	-12169	-6594	3476	-12856	-3068	17948	-4580	-524	-4930	-21396	-5440	-15884	8435	12825	5613	-26928	12076	-11124	12994	12196	7815	128	115	1
-11576	-1184	32767	-6314	32767	27142	-28108	212	-3336	8197	21836	-5329	-32768	3468	-5900	-6456	-17976	1388	-9628	3564	14404	-1573	-632	-1565	-16032	7220	-8828	16333	10738	3878	-17636	7408	-4808	5529	7953	6131	131	120	1
-32768	-17556	32767	-26687	-2213	10658	-19116	5560	-7156	-3825	14067	3217	-32768	3160	-9624	-2029	-17133	1944	-9236	2796	14220	-647	-157	-1045	-15564	6796	-9472	3817	9050	3788	-16780	6316	-4176	3941	8546	6237	128	113	1
1848	-21188	25640	-17827	-27472	8476	-17932	-544	3468	-13794	4428	-1633	-32768	4500	-12316	-1177	-19081	3153	-9036	2920	14092	453	417	-776	-17088	5248	-8768	-4822	7701	2344	-15544	2664	-2912	1834	11541	1982	124	120	1
8304	-16172	14436	637	-29445	6029	-8500	-5192	2356	-9150	-5597	519	-26188	2592	-13056	-2313	-19652	1406	-8740	3560	13828	1216	912	-86	-17216	1400	-7604	-6216	5950	2225	-19380	1628	-3660	197	14426	1921	125	134	1
5596	-8932	10568	6506	-28836	774	-4680	-1936	-76	-1964	-14717	1274	-19928	340	-13060	-3072	-19958	217	-9184	3768	13736	1084	1260	374	-16396	1260	-6844	2056	3948	2711	-16620	2364	-3144	1494	15396	937	135	123	1
2792	-7508	9544	3443	-29546	-5790	-6588	-1316	-1256	2987	-21328	3772	-16420	1460	-13520	-2501	-21064	-1394	-9436	4176	13384	1090	1264	854	-15688	4492	-6308	7328	2436	2466	-16476	4388	-3004	2722	16564	1318	126	114	1
-1736	-9048	10448	1545	-31670	-11380	-7680	-1088	-2832	3330	-27352	5154	-15924	-1332	-13780	-2091	-22441	-1859	-9184	4292	13400	959	1193	883	-15548	5192	-5068	5861	1811	1812	-16524	4340	-2076	461	16372	1068	118	126	1
-2432	-9456	10752	1649	-32281	-12158	-7504	-2296	-3852	3823	-32184	6088	-11940	-1280	-14584	593	-23429	-2404	-9108	4028	13468	806	1347	703	-15600	4156	-4072	2392	1781	1655	-15280	1120	-256	-617	16632	789	126	128	1
-8656	-7316	12996	6363	-32768	-19033	-8876	-1468	-3976	5535	-32768	7397	-8836	-2524	-14204	4196	-23575	-2758	-9156	3740	13448	744	1419	429	-15212	2240	-3820	426	2059	1825	-14568	-1716	656	1159	16381	386	109	125	1
-12192	-5828	15008	5027	-32768	-20992	-11420	-148	-4528	5905	-32768	9555	-6256	-2856	-14824	7388	-23340	-1773	-9128	3900	13324	558	1436	85	-14816	956	-3076	2943	2168	2482	-15072	-2376	1836	5294	16098	-130	130	124	1
-16096	-5884	17916	2832	-32768	-21381	-13472	84	-5364	3223	-32768	10806	-4052	-668	-13232	10017	-21241	-1480	-9300	4004	13080	174	1250	-404	-14640	3876	-2788	6078	2594	2688	-14248	580	1096	11234	14496	-171	130	127	1
-18680	-6704	19784	10	-32768	-20437	-18620	484	-5312	871	-32768	11282	-3836	-180	-13404	10436	-21010	-1688	-9416	4592	12752	-279	672	-952	-14300	5572	-3204	6387	3217	2548	-14048	4312	-256	13775	14433	461	129	127	1
-22424	-5976	21232	-5431	-32768	-18477	-24216	2004	-5628	-1977	-32768	11071	-2044	1380	-13564	13684	-16642	-3126	-9304	4232	12848	-704	148	-1452	-14688	4152	-3488	6070	3867	2126	-12768	4548	616	12125	14534	1929	127	127	1
-28624	-7412	24816	-10335	-32768	-16061	-30616	784	-8656	-6481	-32768	10872	-3120	3424	-7492	12594	-15968	-4130	-9200	4048	13348	-933	289	-2128	-16292	2988	-3776	6963	4291	2098	-12932	2068	948	9786	15436	3671	127	131	1
-32768	-12508	26756	-11475	-32768	-15713	-32768	-376	-11516	-9992	-32768	9139	-8328	5244	8824	11523	-21498	535	-8992	4040	13684	-872	1081	-2527	-16028	2436	-2332	7619	5147	2244	-18676	2848	-844	7014	14639	1882	121	128	1
-32768	-11996	14304	-5964	-32768	-18121	-32768	-4328	-20064	-7172	-32768	6989	-15244	1268	16788	7453	-15284	851	-9064	3688	13648	-771	2309	-2547	-15236	3984	32	6508	7108	2171	-21048	10336	780	4214	9954	-49	126	126	1
-32768	-2932	1820	-5696	-29795	-17280	-24344	-6892	-28572	-6996	-32768	4228	-13648	744	15556	3755	-11714	812	-9144	3756	13960	-459	3585	-2377	-13456	6632	772	1645	10303	1523	-17488	12508	7924	-675	9225	876	136	128	1
-32768	4676	-13044	-5565	-25518	-11275	-17744	-8148	-30972	-9516	-23290	-1969	-11696	12600	26604	6113	-7543	2195	-8884	3520	15032	-250	6169	-2728	-17368	4724	372	-2094	13881	442	-18472	6796	9404	-1727	11436	2470	117	138	1
-32768	11892	-27320	-1024	-13785	-1554	-6852	-9420	-32768	-3814	-5545	-4444	-16164	18796	27424	9053	-2486	-3964	-8816	4164	15892	150	10305	-3688	-18804	2996	-392	-763	16800	301	-20492	1752	7880	1499	10749	1841	129	147	1
-32768	11764	-23632	2101	102	5828	-8296	-7352	-32500	1256	10631	-6178	-10636	8796	16104	5649	930	-6434	-9036	3896	16744	555	16562	-4397	-21540	536	-1188	454	19735	709	-22204	860	7508	3493	8253	1260	116	144	1
-32768	-6368	-6828	18224	15784	6852	-15896	-5468	-25800	9227	22513	-8909	-10632	2904	3724	-6230	13432	-8900	-9096	3024	17800	919	25241	-4817	-23048	-1448	-1464	2123	22809	1205	-23220	-600	10024	3381	4049	968	139	143	1
13560	17532	32767	10509	31487	-12413	-25584	32767	31304	26108	30803	1598	-17916	3272	30820	8907	15491	-11331	-8136	4424	19772	1039	32767	-4840	-28840	-1700	-32	3200	26240	812	-27932	2468	14416	2367	-3840	-371	126	151	1
-32768	26508	19492	1010	32767	4979	-32768	-3232	-22096	28291	15591	5481	-22752	-9708	16304	12072	3570	-6539	-7256	7980	20140	2359	32767	-6786	-32768	-8756	4700	6412	28069	1576	-32048	2800	21424	-2500	-15886	-2333	116	160	1
-21352	-2928	24984	-686	19660	14672	-17652	15944	-9596	22688	17697	-5352	-19532	18312	-14904	21650	7744	-4386	-9572	17884	21584	3570	32767	-15876	-32768	-8208	13844	25160	26623	3900	-28004	-9868	30432	-17640	-28949	-11861	106	155	1
-8028	-12068	10764	1517	24013	4676	-16204	-1352	-6480	8087	23046	-9130	-14292	10872	-12728	-9511	4220	-2504	-32768	10664	19744	-628	32767	-32768	-27116	20780	-6968	22167	26896	3862	-19396	-9252	2996	8513	-11763	-9032	144	164	1
-26464	-8444	17336	5945	13432	10677	-12892	-11984	-13260	316	14999	-9000	-10132	-7804	-10012	-14647	7427	-1614	-32768	7736	18884	-1466	32767	-32768	-30072	11712	-12552	9679	26653	3596	-31156	14140	-14244	23153	-13798	-5348	126	162	1
-17588	5924	20252	7389	4729	6009	-23792	5048	-12860	-1037	14447	-8034	-27488	-8580	-8864	-5187	11839	-7401	-27568	16428	32692	2133	32767	-32416	-25928	5832	-8728	-519	21102	2069	-32768	4448	-13576	7813	-19514	-1203	136	145	1
-9964	-4708	14304	3330	2497	1500	-21440	-452	-5420	-7521	14213	-4055	-21596	-3604	-7528	-505	10985	-6089	-29700	6376	32767	21161	22026	-19701	-15660	5412	-16312	-7799	16695	240	-30112	356	-6604	1672	-23828	3986	122	131	1
-9320	-2960	13740	2119	1657	971	-15548	-3016	-6760	-883	9102	-3692	-17208	-1568	-5408	2916	12577	-3330	-17544	29140	32572	19466	-19982	-4080	-15292	-956	-8244	5994	6268	2133	-29876	908	-7116	-729	-24460	1918	125	112	1
-9204	-2736	13664	1945	1610	802	-17812	696	-5812	4518	6186	-2898	-18152	2588	-3612	5861	12788	-3050	444	18328	16312	6370	-32011	1103	-11880	-456	-5216	16293	-3244	1935	-27928	1372	-9308	2972	-21614	-1701	122	131	1
-8808	-2808	13604	226	1775	-470	-19668	2216	-4264	4072	4816	-3045	-18340	3248	-2608	4105	13746	-2807	8204	10448	8132	-681	-28943	4451	-6576	4548	-5020	11760	-11468	2930	-24304	4956	-8976	4927	-19738	-436	119	120	1
-9180	-2800	13264	5	1954	-874	-17492	880	-4440	303	3978	-3275	-17860	3128	-2504	-115	14870	-2136	4392	6608	7696	618	-23184	7826	-4124	2936	-5684	-640	-17271	1444	-20316	3384	-10460	802	-18036	620	113	114	1
-9100	-3372	12964	107	1847	-1295	-16968	172	-3932	-3008	3661	-3060	-17420	476	-3076	-1836	15116	-1313	-2656	7884	10952	2723	-23844	10585	-4776	2460	-6660	-5360	-22590	-522	-14936	988	-10876	-56	-16455	1413	121	116	1
-9096	-3556	12804	64	1588	-1539	-17140	-960	-3456	-4665	3091	-2247	-16364	-812	-1508	400	15629	-3095	-7408	7204	13892	4178	-30073	14846	-4624	1308	-7524	-5658	-27539	-871	-12948	3640	-11608	-2018	-17410	2623	126	111	1
-8872	-3448	12752	-66	1423	-1291	-16900	-772	-2612	-4106	2745	-2144	-15884	1368	-320	1080	15480	-3314	-9048	6656	14012	4824	-32768	19161	-5184	1196	-7020	-4334	-32066	-1856	-10276	3584	-11144	-4711	-16117	2331	132	112	1
-8772	-2876	12832	-241	1310	-1069	-15700	212	-2344	-2519	2694	-2165	-15136	2316	740	-949	14822	-2435	-10284	5732	13500	4839	-32768	22211	-7376	1764	-6908	-5163	-32768	-2961	-7948	3460	-10496	-5751	-13466	1518	131	116	1
-8740	-3508	12644	-300	1075	-733	-15576	-528	-1672	-2369	2997	-1910	-15396	1628	1212	-4315	13857	-2433	-13732	6172	14220	4698	-32768	23929	-10020	1556	-7828	-6789	-32768	-3835	-5580	2548	-11580	-7435	-10187	107	129	121	1
-9008	-3632	12508	-81	760	-67	-16228	-1048	-1464	-3921	3495	-1832	-14524	476	2552	-10462	14980	-3220	-17240	6916	15412	4251	-32768	24829	-11536	2268	-8776	-8725	-32768	-4141	-4616	576	-12136	-8906	-7875	-1262	128	124	1
-8880	-3992	12288	337	463	637	-16596	-1984	-1748	-4876	4399	-1429	-14176	-748	756	-10878	15097	-2463	-18584	6336	14692	6087	-32768	25157	-14796	2592	-9436	-11782	-32768	-5242	-3832	212	-13384	-13632	-3977	-765	131	121	1
-8884	-3468	12708	588	298	1102	-16316	-772	-2476	-4654	5075	-998	-14932	1312	4180	-12086	14561	-3147	-21876	7820	16676	7935	-31265	24999	-19576	2656	-11288	-12975	-32768	-6787	-1980	-132	-11016	-21022	-3473	1581	130	122	1
-8864	-3272	12780	709	293	1552	-16924	1240	-2556	-5362	5840	-1296	-12392	3540	3244	-6646	16582	-4400	-32768	12564	24092	4726	-27770	26148	-24304	5604	-13428	-13466	-32768	-8580	-5812	-256	-3292	-20242	-4655	1991	126	118	1
-8756	-2688	13048	701	452	1724	-16000	3444	-1500	-8200	7073	-2203	-17080	5524	2532	-9611	17777	-3466	-32768	13952	24996	-4025	-29002	26560	-28288	8612	-13744	-14784	-32768	-9408	-13192	1916	5724	-14056	-13890	1365	121	122	1
-8596	-2340	13484	519	1261	1279	-14844	832	-448	-8415	8749	-2272	-21580	2544	3392	-9975	10236	100	-32768	7300	16608	-5809	-32768	28092	-22820	7348	-18732	-8051	-32768	-11469	-17136	2792	9708	-8920	-13117	1856	122	118	1
-8512	-2908	13400	157	2386	902	-16372	-1832	-780	-2747	11633	-2061	-18700	-4936	4544	-3091	6815	591	-32768	3432	-8204	-4248	-32768	26102	-16788	7824	-21524	-8653	-32768	-5986	-13928	-5740	15700	-14682	-5899	3403	123	121	1
-8484	-3424	13424	-149	3579	1286	-16552	-1512	-840	3731	9804	-838	-16236	-3812	6704	-4	13503	-1632	-32768	-18260	-32768	10762	-19394	16423	-10816	496	-21296	-2083	-20438	2853	-20240	-19240	32767	-20500	-7560	3381	123	113	1
-8528	-2256	14500	-803	5526	1206	-16552	516	-992	4040	12729	-663	-17456	-1800	7276	2819	13095	-142	-32768	-29400	-26496	18066	-3385	5762	-1420	10472	-20280	9129	-748	7368	-26392	-12864	27680	2354	-1181	-4437	124	121	1
-8232	-2704	16172	-1665	9846	916	-20500	-284	-1616	5219	15329	-90	-20484	-1240	6496	2377	10826	-805	-32768	-21920	-12992	-2868	1865	-11957	-7384	11704	-22140	7175	15141	6641	-14824	2688	9688	20152	-10240	1490	124	122	1
-8636	-5128	17128	-2087	15963	1717	-23316	980	-2132	7063	17204	173	-23404	820	4904	1949	5988	-305	-32768	-11560	-3992	-1237	-693	-23296	-8960	7836	-22180	973	24518	6089	-12332	2812	2504	22343	-3095	5300	122	121	1
-8704	-3180	17692	-2843	23451	2841	-24432	5672	-2156	5004	19617	-982	-22528	4980	9792	-271	3128	1377	17948	-3440	32767	-17390	10580	-14413	-26764	-18496	12220	-18585	23986	5914	-536	-520	-740	11530	6141	5494	125	120	1
-7332	-2172	20428	-4892	32767	2676	-29092	7856	-24	1733	22911	-1415	-26800	6268	15756	-3141	-2083	2528	-14688	3648	14192	-4351	30649	-9737	-32768	11604	-7632	-15944	19108	-3343	-20748	19696	3104	-8077	1452	8046	125	128	1
-6432	-5968	21888	-8898	32767	1465	-32768	10424	6648	42	25824	-617	-28224	11616	29288	-2041	-13662	4457	-31292	-2228	28196	-2464	16544	-10445	-11812	-3380	-11284	-27506	23954	2999	-29532	-19240	-932	-19187	23629	3231	127	111	1
-6824	-10688	23464	-10104	32767	5613	-32768	13624	15988	-9740	27653	-3524	-18184	24600	13900	11301	1959	8816	-15384	18456	14568	-8748	17410	-9415	-17092	-6232	-12192	-6721	18580	8469	-16100	-10820	-12568	-7507	3150	1282	129	114	1
-32768	-13028	21256	-9734	32767	19124	-32768	-9272	-3780	-17686	27869	-5418	-18980	7124	6848	-28820	-4128	10699	-15932	104	18080	-7211	4991	-10736	-12536	8896	-16900	2560	14936	9358	-5160	-1372	-10720	14257	9241	1931	128	130	1
-32768	-20812	27288	-2508	32767	29508	-32768	-13232	-3188	-6902	29921	-4418	-32768	-9808	-12716	-21902	2028	3300	-13156	-3828	17744	-4127	196	-4698	-18816	-2052	-17176	5680	12202	8476	-23268	9204	-12132	14007	13776	5479	135	116	1
-29640	-18552	32767	-7419	32767	29636	-31484	1804	-304	4780	23227	-8356	-32768	-2900	-12544	-10804	-12809	964	-9632	4632	13892	-1037	115	-809	-16276	5272	-9552	16437	9654	4864	-22140	10504	-7752	9965	10655	4759	132	112	1
-16340	-4368	31032	-17944	23146	18511	-21076	-972	-7452	4208	15313	-1931	-31812	4548	-7768	-3977	-17209	876	-8728	4052	13956	-222	444	-480	-15904	9000	-8528	7319	8110	4031	-19072	8576	-5500	6747	10972	3451	126	126	1
-10508	-27352	32767	-20068	-18385	3961	-17952	1392	1464	-4667	9781	-511	-31808	5060	-10608	-1100	-17389	2599	-8600	3996	14064	437	840	-766	-17096	6704	-7960	-2145	6869	2398	-16568	6416	-2620	1927	11534	2336	126	109	1
7264	-19744	18288	1689	-27397	862	-14608	-820	4224	-5619	-1297	-3394	-31992	2824	-12556	-1452	-19235	1042	-9360	3840	13828	658	1026	-198	-16920	3312	-7548	-5338	5390	1633	-18404	3504	-3216	-2262	15060	3290	122	119	1
9252	-6608	12064	8107	-26187	-3346	-5636	-556	1548	-2292	-11277	-914	-21792	3096	-12588	-4339	-20000	-161	-8392	3812	13820	648	970	-82	-16784	1260	-7104	-485	3518	1886	-17180	1948	-3032	-2175	16640	1934	130	125	1
5240	-4160	10164	2660	-24989	-8816	-5444	1008	-412	586	-18807	1865	-17148	1740	-12620	-3779	-20514	-1552	-9392	3892	13464	787	1469	767	-15892	2840	-6408	4176	2107	1887	-16412	1596	-2640	-26	17593	1155	130	115	1
-68	-5728	11440	-795	-26353	-12194	-7776	-868	-1924	2464	-24595	3238	-15684	2068	-13376	-4552	-22362	-1587	-9116	4288	13436	968	1536	857	-15932	3496	-5184	4648	1376	1934	-16392	2052	-844	-215	17636	1077	121	118	1
-5776	-6892	13512	964	-31502	-14351	-7528	-856	-3648	3447	-29672	4105	-11864	-224	-13272	-2459	-22267	-2519	-9192	4088	13532	993	1824	652	-15804	3168	-4020	2586	1426	1991	-16288	672	264	-2054	17629	1068	122	127	1
-8640	-5296	14544	3468	-32768	-16135	-8500	256	-4200	3610	-32768	5047	-10124	-1704	-13116	48	-22758	-2499	-9192	3992	13600	966	2013	451	-15072	2092	-3196	1277	1706	2201	-14824	-2072	1076	64	16679	759	124	129	1
-10408	-3292	15040	2769	-32768	-17992	-10420	1184	-4300	2782	-32768	7489	-8564	-2084	-12624	3114	-21888	-2614	-9080	4176	13180	710	1916	-8	-14912	2016	-2284	2954	2102	2566	-12712	-664	-1468	3791	15709	-45	127	128	1
-13164	-4112	16396	1952	-32768	-18360	-12348	656	-4652	1434	-32768	9041	-5432	-1372	-10752	6286	-20073	-2044	-9452	4484	12864	203	1458	-624	-14104	4280	-2944	5417	2507	2798	-14140	528	336	8631	15356	-1301	130	125	1
-16600	-4908	18336	781	-32768	-17063	-17108	1048	-5344	604	-32768	9712	-4684	584	-12976	8200	-21898	-1795	-9552	4440	12604	-167	831	-934	-14308	4812	-3716	5190	3140	2536	-13268	4076	-1160	10961	14777	1187	131	129	1
-17232	-5076	18904	373	-32768	-16821	-21180	1548	-6300	-1340	-32768	9898	-3416	832	-13280	11069	-19661	-2373	-9588	4388	12684	-225	728	-1006	-14616	3576	-4308	5282	3462	2310	-11596	2856	1788	8711	15219	3255	127	131	1
-24248	-6816	22512	-7837	-32768	-15638	-25892	1616	-6128	-4018	-32768	9801	-2520	1924	-10864	11844	-16857	-3298	-9108	4112	13080	-993	-33	-1914	-15676	2556	-3720	6699	3712	2435	-13728	1636	-1228	9683	17117	3635	128	134	1
-28056	-6480	24264	-12389	-32768	-13834	-32768	1592	-8772	-7802	-32768	9006	-4160	3440	-1336	10165	-16139	-2809	-9172	3900	13544	-1031	442	-2243	-15652	2924	-2220	7431	4697	2406	-19572	4964	-1948	9609	14212	1600	126	128	1
-32768	-13140	23988	-12075	-32768	-15250	-32768	-1984	-13656	-11275	-32768	7203	-13884	5608	8456	8077	-19807	551	-9008	4152	13824	-967	1566	-2765	-15768	4096	-1104	5608	6497	2581	-21176	7744	192	3790	8256	553	126	128	1
-32768	-6056	10952	-6771	-32768	-16749	-28620	-3164	-22872	-8759	-32768	5146	-15296	616	15172	3068	-11909	-1454	-9184	3592	13576	-597	3036	-2685	-14452	4512	-164	2479	9050	2029	-16908	8720	7148	285	9716	1362	127	129	1
-32768	2276	-308	-7487	-31159	-12284	-21628	-8060	-29620	-12246	-31691	2242	-11028	3580	19964	-285	-9922	-3	-9128	3688	14452	-297	5234	-2306	-15468	5252	268	10	12227	806	-16572	7296	8000	744	12181	1701	132	131	1
-32768	8668	-17492	-7996	-26125	-4615	-14780	-7680	-30996	-13431	-18328	-3475	-15480	13284	25968	3385	-3787	263	-8960	4152	15216	61	8670	-3155	-18148	4320	-664	-2065	15092	461	-20332	3804	6864	1535	11598	2139	130	143	1
-32768	13028	-27812	-2732	-10891	3035	-6852	-6736	-32180	-5782	-484	-5288	-15556	12548	25448	3686	-2417	-3119	-8792	3964	16592	667	14313	-3653	-21052	1132	-1752	-1124	18042	258	-22660	1440	5436	2392	9004	2002	122	145	1
-32768	10868	-20120	1144	2865	7275	-8820	-6400	-32108	-753	14510	-6060	-9912	3936	12564	3962	2433	-5143	-9132	3492	17440	1540	22270	-3945	-23236	-1544	-2256	958	20581	714	-23200	80	7120	4489	6658	1180	122	146	1
-17636	1156	-9560	32767	24038	6589	-17980	388	-20140	13163	21672	-13211	-12356	1920	7316	-2047	10486	-8458	-8620	2500	17776	2188	32709	-3865	-24440	-2500	-2032	2239	23364	791	-24652	-412	9124	4608	2328	-89	134	154	1
12236	9112	32767	7551	32767	-11867	-32768	22696	21852	30410	23701	10041	-32640	216	32767	13241	8799	-10952	-7504	3580	18876	3852	32767	-3131	-32072	-5240	1600	5022	26043	501	-30020	2208	14740	1496	-6187	-1295	128	160	1
-32768	18372	27468	774	30782	8722	-27208	4172	-20332	32767	9106	4051	-8280	3484	15360	27416	11659	-4276	-6068	14092	19908	4938	32767	-6160	-32768	-12136	9620	14848	26163	1852	-31824	-296	25152	-2396	-23354	-4293	127	161	1
-10048	-7368	15320	-2662	17875	11232	-16804	20168	-5448	17809	25746	-7550	-18320	19508	-20296	11752	5798	-2861	-21792	18208	20108	6387	32767	-21772	-32768	5240	8008	26971	24926	2855	-22208	-10660	13528	-3966	-18612	-13454	129	151	1
-4004	-13316	10184	-2524	19045	9172	-11608	-10568	-6748	4513	18162	-9088	-12364	6956	-10996	-20690	5877	1086	-27960	18376	21216	5520	32767	-25181	-28200	19492	-8548	12521	28176	2530	-25356	3168	-844	12769	-13469	-5835	129	154	1
-24708	-15264	15744	9154	10932	10404	-17432	-8624	-14016	-4178	13953	-8515	-10992	-12196	-8556	-13526	10278	-3954	-32768	21316	30924	-3281	32767	-32768	-28448	10552	-6932	2715	24761	257	-30364	14264	-16572	16372	-14641	-3413	131	150	1
-14776	8204	17108	5648	2342	4791	-27844	8828	-11564	-4285	16970	-4900	-30912	-6784	-10300	-5443	12295	-7610	-16156	16228	28268	3879	32767	-23032	-22608	3256	-10412	-9481	20152	493	-32768	2552	-10204	-812	-20658	627	127	139	1
-9600	-2976	14132	3380	1568	1870	-19272	-2716	-6068	-7971	12487	-3276	-18176	-4348	-6372	-1361	11504	-4379	-32768	29752	32767	13359	-496	-4403	-16716	3768	-15484	-4666	13561	-1022	-27304	304	-6548	-1281	-23107	2197	126	117	1
-8868	-2656	13668	1543	1282	946	-15144	-2252	-6356	2589	8188	-2609	-17572	-352	-5624	4421	13877	-2597	-1544	22124	26264	5564	-24839	4920	-15440	-3876	-3492	10871	1343	622	-29284	1260	-7780	-1251	-22762	-689	121	111	1
-8940	-1500	13772	24	1738	423	-19152	1316	-5932	6941	5141	-2523	-18652	3412	-4264	5384	14218	-2902	7172	11876	15260	783	-27102	7952	-11080	2872	-3220	15384	-7346	-138	-25756	2536	-8372	1545	-21049	-2483	123	138	1
-9064	-2680	13580	-616	2244	-253	-19592	3632	-4372	2893	4102	-2887	-18956	5060	-3456	3168	15133	-2697	4840	8136	11208	-1799	-25292	8240	-5476	6172	-3988	5750	-15141	309	-20856	4496	-9248	1899	-18653	-1156	123	121	1
-9448	-2872	13048	-330	2268	-1031	-16944	1336	-4196	-2673	3849	-3379	-16468	3212	-2684	-1977	16584	-1201	-1216	7620	11672	-2297	-27342	7120	-4824	5444	-5540	-5366	-20820	-753	-16156	1576	-10420	-1050	-16832	-213	116	116	1
-9212	-3568	12860	273	1922	-1491	-16776	-736	-3128	-6943	3811	-3291	-17072	-1388	-1636	-4622	17096	-1579	-7012	6764	13544	-474	-32768	6850	-5528	3240	-6548	-7726	-25931	-970	-12472	492	-10744	-261	-16565	682	122	118	1
-8932	-3700	12788	390	1652	-1327	-17204	-2860	-2184	-6215	3484	-2710	-16304	-2256	-228	-2142	17152	-2235	-9464	5760	13604	4325	-32768	8709	-7072	1364	-6784	-5023	-30794	-1753	-11720	3812	-11360	-1014	-15708	1575	135	113	1
-8896	-3080	12776	78	1479	-1096	-16088	-1584	-2036	-2104	3026	-1936	-15532	-440	264	225	16235	-2442	-10376	6288	12568	8380	-32768	11387	-8476	1100	-7108	-2108	-32768	-2740	-8692	3644	-10652	-3330	-14365	1012	131	116	1
-8920	-3240	12692	-107	1355	-689	-15060	-484	-1480	-1087	3436	-1288	-14848	684	1012	-1775	15338	-2090	-12372	7864	12816	9549	-32768	14044	-10076	1268	-8028	-785	-32768	-3167	-6960	4376	-10972	-5294	-10754	31	128	122	1
-8824	-3512	12480	-15	1051	-34	-16216	-380	-1196	-3117	3698	-1584	-15168	1284	1040	-6995	14893	-2045	-16036	9412	14628	8522	-32768	16548	-11560	1972	-9332	-1157	-32768	-3088	-4952	1520	-11768	-6733	-8082	-1242	134	126	1
-9040	-3532	12392	199	868	453	-16660	-1636	-1552	-4694	4776	-1265	-13532	200	1272	-12306	14030	-2200	-20204	10748	17308	7630	-32768	19649	-14604	3612	-10152	-3207	-32768	-2906	-7676	876	-9488	-8946	-2979	-560	129	125	1
-9048	-3576	12524	526	486	961	-15644	-712	-2108	-4893	5702	-1280	-11500	380	5052	-9479	14813	-1617	-24704	11528	20036	7658	-32768	23690	-18688	5272	-10816	-7291	-32768	-3926	-3472	1800	-11844	-17399	-1752	1739	125	122	1
-8836	-3144	12744	780	284	1284	-16140	24	-2052	-6226	6586	-1368	-12740	1140	2960	-6216	18083	-4026	-29524	13816	22396	6960	-32768	27792	-23320	6912	-11232	-11026	-32768	-5926	-3508	780	-9424	-20333	-3344	2907	128	120	1
-8692	-2892	13084	818	584	1474	-16636	512	-1452	-5391	7227	-1370	-19612	3048	840	-8609	18626	-2593	-32768	18792	23404	2294	-32768	30100	-28928	10564	-14004	-15383	-32768	-7490	-9488	1056	-1820	-17111	-8426	3072	125	119	1
-8576	-2608	13568	633	1291	1634	-15888	2288	-940	-5215	8361	-1534	-19968	1532	1084	-7628	11119	-226	-32768	16472	19284	-7509	-32768	32767	-24764	7464	-17292	-21548	-32768	-9526	-16432	3936	6456	-14590	-16713	2674	127	118	1
-8616	-2132	13740	133	2748	1148	-16724	-324	-1724	-4008	10484	-1239	-17052	-2636	4484	-3717	10738	638	-32768	7524	1792	-7879	-32768	32767	-20864	1504	-21808	-10748	-32768	-6521	-19668	-4624	8588	-15855	-16124	2531	125	126	1
-8628	-2516	13684	-459	4246	1119	-16860	-1140	-720	359	9510	-897	-16400	-2840	6432	-2900	13597	-184	-32768	-19920	-20316	10474	-26603	22853	-14520	1500	-24976	2137	-29945	4507	-9696	-17160	32767	-12950	-9042	1843	125	115	1
-8716	-3176	14456	-820	6355	1310	-17164	-796	-284	2151	13021	-145	-18748	-1460	7876	848	13822	-816	-32768	-32768	-29596	32767	-13736	5746	1120	7884	-21916	22953	-8806	10842	-31084	-19440	32767	-1816	1844	-2261	125	120	1
-8484	-1996	16612	-1367	10909	1132	-21024	220	-1800	4143	15316	437	-20964	-2312	6032	2157	11480	-838	-32768	-22132	-19356	3126	-1305	-16557	-2452	17584	-23092	16493	12768	7234	-18176	2324	16912	18017	-10984	836	127	125	1
-8736	-4412	17216	-1985	17786	1797	-24720	1848	-1600	5544	17279	782	-23948	1352	5584	1215	8373	333	-32768	-5988	-15088	-21882	6329	-26261	-9472	9500	-23304	1389	25306	3619	-15520	4540	-656	23875	-7704	8209	127	126	1
-8408	-3240	17424	-3107	25703	2912	-23872	6344	-1040	3153	19987	-709	-23228	4972	10516	-1192	4719	2625	24872	5388	32767	-20041	20725	-10100	-32768	-26984	22412	-21372	22751	-1204	-12308	4068	300	21804	1936	6574	125	143	1
-6944	-1092	20208	-4915	32767	2305	-28168	7356	2088	662	23438	-593	-26808	3960	18332	-1735	-1807	3219	-29956	-4068	10172	-15569	32767	-11430	-23072	9076	-20852	-32768	26207	1475	-16124	19896	3840	-28992	1924	14573	128	118	1
-1792	-8336	22136	-8268	32767	133	-32768	12468	9268	196	26899	644	-29640	11088	32320	-1432	-15132	5144	-20940	-23488	32767	-3829	21537	-14485	-15124	-17272	-12600	-25549	24669	3895	-20044	19752	14416	-26697	1252	15026	129	123	1
-9796	-14372	23600	-9227	32767	7462	-32768	11524	15244	-13875	29073	-4503	-18800	20816	12172	11121	1300	9321	-13552	28880	7928	-907	20604	-9654	-17292	784	-11864	2719	19424	7007	-16816	-18388	-14956	-6841	3478	696	120	111	1
-32768	-14336	21008	-6761	32767	22440	-32768	6000	16832	-15292	28378	-3898	-19812	2316	5292	-28975	-1419	9643	-16048	-3120	16292	-9149	7221	-12838	-13148	19492	-18376	510	15076	12465	-10356	4588	-13268	14033	9330	1425	130	108	1
-32768	-21252	28648	1261	32767	32240	-32768	-10384	248	579	30691	-3412	-32768	-9216	-14092	-16424	-2695	2564	-16224	-1116	18140	-4483	1145	-4727	-21576	-5116	-17408	5440	12588	7657	-25544	13768	-14220	16719	13045	7632	134	112	1
-23136	-17016	32767	-6775	32767	28720	-30500	2900	-1136	12152	21600	-6689	-32768	1744	-10172	-8529	-16486	1171	-10120	4404	14208	-1133	178	-1102	-16068	5928	-10548	18195	9827	4627	-18844	10560	-7512	7554	10402	6359	130	120	1
-32768	-11208	32767	-20060	12841	10415	-19960	2564	-8052	1345	13882	319	-32768	4324	-10120	-4786	-17387	3376	-8940	3792	14012	80	757	-342	-16600	8500	-9788	5629	7691	4263	-18992	7204	-7968	3726	12430	3151	128	103	1
-1512	-28784	31516	-15054	-21842	-719	-21056	656	5328	-9547	6450	-2049	-32768	4604	-11604	-2113	-19551	3948	-8848	3440	14220	1250	1670	-38	-17104	7180	-8620	-6381	6339	1983	-16252	3848	-3732	-862	12801	2565	116	107	1
9000	-15736	17308	6232	-25636	-3106	-12788	-3336	3792	-6916	-4155	-2250	-31060	3128	-13176	-2821	-20402	1448	-8852	4172	13856	1823	2061	449	-18200	788	-6404	-7500	4428	1873	-18396	1268	-2824	-2779	16045	2680	119	122	1
6508	-5608	12248	8613	-25302	-6561	-4812	-1596	732	-1060	-14490	-234	-21020	2032	-13304	-4298	-20553	444	-9240	4188	13408	1646	2174	714	-16804	-820	-5912	2117	2302	2800	-16272	-860	-1816	-597	16962	1654	141	124	1
2140	-4420	11088	4212	-26689	-10112	-6660	-1600	-656	2140	-21372	2296	-15140	2084	-13360	-4560	-21400	-1153	-9668	4668	13292	1434	2126	925	-15684	3140	-4712	8545	1048	3093	-15956	376	-2252	1895	17202	1118	133	117	1
-2280	-5688	11572	797	-29697	-11454	-8112	-1764	-2444	4232	-26942	3522	-16280	-300	-13668	-5828	-22030	-2262	-9440	4476	13336	1187	2012	897	-16072	4060	-3112	8131	749	3135	-16008	2868	-1220	1255	17377	1499	122	130	1
-6240	-6780	12420	1146	-32768	-12477	-8376	-1796	-3648	3702	-32094	4773	-11080	-3048	-13256	-2520	-22443	-3106	-9472	4220	13272	1142	2189	839	-15440	4308	-2596	4547	1198	3052	-15472	664	556	1282	15865	1460	118	133	1
-9776	-6368	13604	2599	-32768	-13781	-8484	-1192	-4588	3371	-32768	6260	-7516	-1648	-13492	1567	-21501	-3973	-9436	4264	12976	879	2081	837	-14324	3932	-2876	2704	1673	2638	-13460	-524	-416	4074	16807	-233	125	132	1
-12168	-5580	14676	2165	-32768	-15292	-10268	-104	-4712	2453	-32768	8002	-4760	-2336	-14044	5467	-23308	-2767	-9524	4584	12608	455	1438	277	-14280	3208	-2972	5509	1705	2605	-13356	192	-352	8972	16149	1125	127	139	1
-14728	-5472	16020	83	-32768	-16436	-13448	376	-5108	100	-32768	9109	-5180	-1052	-14008	8709	-21198	-2265	-9604	4448	12380	-95	651	-318	-14392	3768	-3268	9388	1788	2767	-10468	628	4676	11225	15048	3173	130	133	1
-17852	-7068	18240	-1823	-32768	-16509	-17964	-12	-5668	-2648	-32768	9371	-3212	-972	-15048	11140	-21139	-2022	-9696	4492	12184	-617	-114	-803	-13780	4164	-2352	10227	2398	2748	-11720	2472	-460	13363	16842	4136	131	133	1
-23844	-8784	22328	-3271	-32768	-16734	-23084	-432	-6736	-4045	-32768	8809	-2104	1296	-14908	11433	-17327	-4057	-9188	4024	13200	-754	-316	-1238	-15528	3056	-864	9306	3816	2546	-21104	7676	-1824	13927	13144	2359	128	128	1
-27932	-8292	24660	-7368	-32768	-17760	-29324	8	-6972	-5145	-32768	9237	-3024	-216	-11748	13831	-12601	-5423	-8944	4384	13504	-643	397	-1400	-16232	3752	520	7144	5717	2278	-22104	7720	1836	8166	9515	1850	128	124	1
-32464	-11408	27940	-12041	-32768	-18172	-32768	-852	-9428	-9447	-32768	8131	-4096	1020	-2756	12149	-11903	-3810	-8920	4836	13292	-769	1236	-2021	-14528	5840	476	4083	7838	2187	-17844	6680	4256	1865	7981	1551	126	126	1
-32768	-17124	25516	-8648	-32768	-19579	-32768	-5124	-16420	-7740	-32768	6357	-17440	1992	12396	5620	-15438	326	-8940	4712	13508	-634	2192	-2701	-14484	5892	400	3599	8194	2131	-15628	6680	6140	3053	11757	1331	125	127	1
-32768	-6932	12448	-5298	-32768	-19866	-28884	-7064	-23220	-6374	-32768	7609	-19864	6976	17460	2359	-12514	530	-8968	3940	14036	-552	4023	-3437	-15356	3852	684	2536	12289	1374	-16432	6196	6412	3277	13136	842	127	128	1
-32768	1728	-11720	-9680	-32768	-9744	-23116	-8276	-32224	-23477	-30668	-5377	-11380	14296	30192	-3951	-14802	1820	-8932	4096	14756	75	7191	-3520	-17076	4172	-112	-1637	15506	607	-19380	3568	6268	2438	11414	1475	130	130	1
-32768	29460	-32768	-23366	-21976	3345	-212	-1240	-32768	-24287	-10307	-10058	-18324	22396	32767	-979	614	1647	-9144	2936	16384	927	12153	-3275	-19848	1276	-2540	-4158	18382	211	-20820	1092	4940	20	9549	2173	125	139	1
-32768	15340	-30020	-6198	5173	10901	-6100	-10920	-32768	-9360	15330	-5702	-13348	-676	24032	976	-912	-8297	-9132	3812	17284	1720	19790	-2803	-20224	1228	-2720	-4001	18855	107	-21912	336	3800	189	8063	1358	121	147	1
-32768	8356	-7800	15255	13856	10204	-13560	-6308	-31320	13363	29638	-3113	-13264	-1976	-360	-2914	9132	-13580	-9320	4512	16924	2397	28683	-3720	-23100	-2312	-2316	1430	22572	1154	-24112	-204	6808	4733	4620	-206	142	151	1
-11792	-27924	32767	32355	18187	4524	-25300	8492	32456	32767	32767	-6682	-16336	-3572	-11804	-1436	22174	-11886	-7840	3256	17824	4681	32767	-3293	-25932	-7156	-216	6431	25034	2019	-26512	312	12108	3984	-3218	-1259	148	166	1
21120	24528	16744	16350	32767	-4107	-32768	19780	-996	32767	8650	1747	-17980	-8204	7000	15205	-4321	-8106	-6672	8728	18832	6244	32767	-2573	-32768	-8584	7008	14464	26262	1681	-30652	-2528	21044	-982	-16129	-2135	129	156	1
-32768	29788	32767	1063	32767	8667	-17264	8888	-10380	17384	18625	4881	-19828	17032	15112	32767	13534	2943	-12576	14236	19168	8669	32767	-12659	-32768	-2556	12216	25504	25073	2627	-26340	-8800	32767	-21529	-32768	-10270	107	162	1
-10900	-31684	6000	-2391	19918	9395	-25200	10780	-7992	18147	21785	-1386	-19772	22072	-17056	15174	4315	-4018	-32768	12664	14132	4024	32767	-27621	-29240	20580	-6748	13848	27297	1848	-18008	-8232	2800	15406	-4463	-8998	137	144	1
-12048	11656	16680	6244	21732	5206	-12348	-7992	-7308	13174	18271	-8396	-13076	7980	-15240	-24676	6465	211	-32768	20452	25280	1260	32767	-31849	-28824	11612	-8956	4609	27146	977	-31628	16648	-15508	22533	-12900	-4575	135	155	1
-20156	-23276	11228	8753	10843	8390	-14216	-2632	-13448	-4808	16419	-6828	-7788	-8652	-9404	-12985	10895	-4375	-32768	20148	32767	-957	32767	-28455	-26280	5652	-10088	-5944	22836	880	-32176	6836	-11568	1994	-20683	-1667	135	158	1
-12224	5304	16452	4753	3224	4555	-26728	10888	-10712	-10608	16326	-5283	-30892	-8124	-11748	-8455	12519	-8704	-32768	9380	32767	19295	14178	-15337	-18948	4580	-14552	-8135	17275	-502	-30040	3024	-4428	-3473	-23744	3020	113	136	1
-9156	-732	14876	3154	2278	1960	-20928	-6320	-7028	-11351	11051	-4483	-18688	-4468	-7268	-3580	13141	-2302	-8056	26984	32000	16300	-21911	-3277	-16300	-2996	-5264	8802	5662	-375	-29736	2012	-7348	-3890	-23394	-714	123	131	1
-8816	-2724	14200	1187	2014	829	-15140	-3620	-5756	6175	7061	-2307	-17544	1508	-5452	4098	13802	-2608	4456	16916	17852	6190	-28495	1844	-11964	1876	-3932	17606	-3931	-1565	-27096	2068	-8808	-957	-20736	-2919	117	120	1
-8924	-1724	13768	-376	2265	-146	-19680	3844	-4988	7427	4805	-2457	-18584	3888	-4248	2639	14426	-3373	6416	11900	10716	-1636	-27250	4982	-6500	6412	-3788	10379	-12575	-1134	-21536	3264	-9420	524	-18366	-2118	120	118	1
-9224	-2504	13468	-923	2611	-836	-18692	2848	-4036	-1743	4339	-3337	-18208	2340	-2928	-1709	15294	-1758	1296	9256	10048	-5610	-26036	5978	-4504	6236	-5028	-2623	-18502	-1883	-16972	2200	-10180	-1764	-16245	-388	123	114	1
-9576	-4020	12736	-396	2393	-1246	-16500	-1316	-3272	-6685	4213	-3161	-16572	-3224	-2404	-2603	15768	122	-4300	8672	11064	-5045	-29442	6671	-5472	4304	-6572	-8140	-23859	-2936	-14308	1268	-11300	-1326	-15419	483	124	113	1
-9384	-4000	12584	303	1815	-1139	-16544	-3136	-2248	-7004	3972	-2489	-16460	-3360	-648	-788	16182	-1690	-8452	7464	12612	-1751	-32768	8345	-6360	2276	-7292	-7383	-28699	-3303	-12808	3548	-11412	-1579	-15186	856	130	114	1
-9076	-3432	12688	423	1480	-1158	-16600	-2680	-1692	-3304	3465	-1529	-15676	-1472	92	1051	15968	-1937	-11576	7628	13212	1894	-32768	11232	-7460	2016	-7872	-5349	-32768	-4037	-9520	3160	-11156	-3515	-14300	505	127	114	1
-9004	-3164	12668	356	1379	-1015	-15692	-1132	-1568	-288	3075	-534	-15144	912	304	730	15776	-1845	-12892	7684	13024	4807	-32768	14162	-9612	1520	-8236	-3636	-32768	-4247	-7844	3288	-11008	-5293	-12198	-279	131	118	1
-9008	-3332	12560	273	1155	-500	-16028	60	-1592	-1600	3475	-833	-15308	2588	548	-3915	15724	-2639	-16204	8668	13936	6629	-32768	16853	-10956	1224	-8996	-2312	-32768	-4628	-5712	1892	-11700	-7151	-8890	-1468	129	129	1
-8916	-3492	12552	282	1004	18	-16512	-576	-1512	-4471	4482	-1063	-14120	2412	772	-11317	14484	-2045	-19888	10048	15740	6658	-32768	19083	-13244	3044	-9920	-2153	-32768	-4128	-4356	764	-12376	-9744	-5692	-1492	125	127	1
-8960	-3360	12404	410	822	594	-16308	-1068	-1896	-5447	5141	-843	-12604	3564	4360	-16550	15482	-3101	-23240	10068	16856	7493	-32768	21580	-13840	3356	-10008	-2444	-32768	-4098	-2072	304	-13452	-16295	-5376	133	129	118	1
-9064	-3564	12328	680	516	1105	-15900	-572	-1496	-6529	6416	-696	-10868	1200	3920	-8109	17476	-3648	-27448	11888	19760	7904	-32768	23886	-21136	5964	-11228	-7514	-32768	-5564	-3464	56	-9480	-16446	-1448	1661	134	119	1
-8820	-3176	12636	888	449	1497	-15740	192	-524	-6884	7333	-1476	-17760	2272	2228	-8491	18368	-2342	-32768	16160	24244	4022	-32768	25277	-26956	8412	-13856	-10953	-32768	-6478	-7184	208	-2492	-13288	-7197	1712	127	118	1
-8728	-2712	13080	876	779	1763	-15340	1000	212	-5103	8271	-1439	-21400	536	2404	-7395	11795	-897	-32768	17124	23780	-1439	-32768	28531	-27456	7356	-14980	-13262	-32768	-7544	-14260	2952	4832	-10654	-15215	1617	126	118	1
-8796	-2232	13616	411	1825	1356	-15916	-160	-728	-2692	10159	-1058	-18788	-2276	4232	-5575	8310	-128	-32768	10232	10004	-2922	-32768	32180	-21972	2632	-19204	-5976	-32768	-7139	-17252	1192	5872	-11621	-13838	2606	127	114	1
-8728	-2944	13368	25	3288	1220	-19448	-868	-596	184	10751	-1341	-16404	-2832	5420	-758	13443	-14	-32768	-5948	-10848	4255	-31790	24114	-19108	444	-21936	216	-32768	2371	-15492	-9812	17960	-12578	-14450	507	128	115	1
-8976	-2968	13820	-558	5020	1407	-16032	-412	-760	1494	12586	-299	-15864	-1316	5852	731	13641	205	-32768	-32768	-26432	32767	-21186	13763	-3380	928	-22204	19483	-18460	9083	-23300	-18904	32767	-3797	-4065	1292	125	118	1
-8432	-1672	15476	-960	7778	1185	-18440	-440	-1308	4309	13810	2	-16572	-1644	6228	1417	13613	372	-32768	-22224	-24692	21036	-6491	-929	1820	18040	-20480	24958	4278	7710	-25724	-7928	21312	8646	-97	-2712	124	117	1
-8792	-3612	16600	-1741	13313	1087	-23544	-88	-1976	7042	15808	1265	-22596	276	3780	3377	9904	-446	-32768	-17620	-12324	-12972	4312	-22005	-8588	14428	-23380	1102	20110	3752	-16064	6624	5136	24637	-12310	4529	132	120	1
-8932	-3840	17184	-2411	20112	2446	-23804	3996	-2272	5514	18222	290	-22288	2840	6184	-129	6818	1192	-5300	2664	6144	-30095	12844	-23111	-14980	6496	-6952	-20351	27317	4459	-12260	6472	-1584	22689	-2082	8544	122	117	1
-8488	-2464	18140	-3741	28651	2826	-25208	7068	-652	1399	21282	-533	-23780	3720	12012	-2032	2749	2407	8268	-404	32767	-7672	32767	-1686	-32768	-22848	3952	-32768	20971	-12167	-13172	6300	-1384	-2879	2378	6387	122	109	1
-5352	1472	21004	-6926	32767	1255	-30588	6772	4220	481	24565	398	-27780	4184	22804	-2229	-6779	3569	-32768	-29628	32240	-10618	32767	-9522	-15380	-10144	-22308	-32768	26089	608	-18948	10032	7124	-19071	55	8278	126	112	1
-3684	-13604	21988	-8053	32767	2259	-32768	14788	10980	-1470	26881	-545	-28940	15208	32767	7284	-23975	8803	-15716	420	20792	2707	15627	-15864	-13800	-18100	-18148	-32768	26089	482	-24904	-27152	-31288	-27114	17501	-3051	128	115	1
-20948	-16936	24640	-9168	32767	11456	-32768	4112	10640	-14813	27449	-1770	-15872	20544	-920	-2947	3231	10134	-16596	22496	13812	-10491	18988	-10470	-15396	15536	-10384	2416	17270	9357	-4944	-8444	-10876	10726	3602	-1096	112	106	1
-32768	-21296	23856	-5248	32767	23632	-32768	-18220	-3804	-13203	29329	-1319	-24736	-4128	-2144	-24548	-571	5708	-14468	3796	16676	-9942	5010	-13483	-14752	8180	-16972	-8191	15438	9817	-14472	9164	-12420	11983	12679	4402	127	118	1
-28388	-21256	32596	3710	32767	32217	-32768	-4344	2432	9574	29550	-3476	-32768	-2472	-12988	-10526	-7700	2054	-11612	-2912	17432	-4229	257	-4637	-20296	-4728	-14336	8301	12223	5166	-26440	13536	-11944	13912	13424	8322	134	108	1
-5500	-9604	31180	-7442	32767	24665	-26784	3708	-3136	13518	19097	-4022	-32768	6112	-6272	-6052	-17603	1699	-9956	4048	14504	-1797	-236	-1877	-15340	7556	-9184	14520	9936	4055	-18872	6832	-5512	3427	9058	6271	127	115	1
-32768	-26064	32767	-16803	2671	407	-17796	5812	-7880	-1297	11899	1366	-30592	7132	-10696	-5801	-18013	2457	-8860	3192	14120	-518	302	-1238	-17052	4676	-8960	3254	8221	3600	-17888	3060	-5956	2946	10493	2596	129	100	1
2988	-22932	28280	-4750	-21777	-6552	-19492	3060	5684	-9270	3051	-3910	-30616	5704	-10964	-5149	-18217	3017	-8832	2472	14224	809	1150	-848	-16740	4500	-8068	-5467	7102	1955	-16160	2132	-2236	235	12834	2754	121	121	1
8084	-10800	17188	7673	-25488	-7726	-9812	-3340	3004	-6812	-7145	-1807	-25924	4344	-12992	-5300	-20204	823	-8628	3528	13948	1506	1662	-315	-17736	64	-6736	-5806	5480	2363	-17984	4	-1888	-1658	14639	2043	124	120	1
4840	-4852	13424	8395	-26623	-8910	-5336	-1308	720	-2001	-17070	-735	-18912	3104	-13192	-6370	-20673	1331	-9528	3524	13596	1430	1972	87	-16384	60	-6188	2666	3719	3128	-15504	1256	-2176	547	15927	1018	132	120	1
80	-2300	12752	3157	-29995	-9907	-7528	-1564	-924	2097	-23246	1153	-16028	2452	-13672	-6976	-21442	-1092	-9676	3832	13464	1167	1866	428	-15600	4192	-5392	6897	2643	3084	-16592	2792	-2648	1043	16650	852	129	122	1
-4080	-3564	13204	-866	-32768	-9597	-7972	-336	-2548	2309	-28906	2530	-14404	1620	-13852	-7535	-21502	-1281	-9388	4016	13344	946	1816	469	-15852	4136	-4048	5103	2307	2747	-16580	2648	-1060	-453	16453	1519	126	129	1
-8064	-4076	14224	-1654	-32768	-9059	-8960	332	-3812	-92	-32768	3541	-10888	-632	-14540	-5418	-21811	-2283	-9380	3836	13372	693	1776	430	-15544	3320	-3648	2728	2527	2665	-15028	268	-168	-2253	15461	1029	125	131	1
-9732	-3136	14788	-1999	-32768	-9678	-9896	1320	-4456	-2037	-32768	5303	-9656	-3336	-15120	-510	-22496	-2292	-9224	3960	13388	595	1778	390	-14728	2880	-3412	1880	2869	2588	-14368	-1148	464	2602	16172	932	120	127	1
-12972	-3372	16192	-3486	-32768	-11017	-11984	1516	-4916	-4052	-32768	7066	-5500	-2820	-14552	2781	-20830	-2296	-9568	3904	13120	333	1581	-58	-14428	2672	-3288	3168	3157	2633	-14756	-224	8	6473	15366	364	134	128	1
-16520	-4744	18384	-4192	-32768	-11680	-15396	1568	-5800	-6539	-32768	7570	-2960	-780	-15060	6120	-19776	-1748	-9640	3956	12828	-43	1054	-509	-14228	3556	-3304	5555	3516	2726	-13504	1196	32	11494	14522	928	131	130	1
-20660	-5720	21092	-6428	-32768	-12813	-19872	1592	-6668	-7687	-32768	7436	-2488	-1804	-16572	9143	-18609	-2712	-9560	4120	12820	-349	465	-848	-14244	4796	-3780	6080	3936	2545	-12076	2640	2228	10987	14589	2395	132	133	1
-24960	-6796	23408	-10561	-32768	-14874	-24820	1476	-6772	-8195	-32768	7067	-1164	-1336	-14644	11815	-14958	-4321	-9540	3708	12984	-695	178	-1384	-15316	3172	-4256	5185	4402	2338	-12576	1880	-92	9457	17106	4855	127	130	1
-28032	-8608	25952	-13729	-32768	-16166	-32768	560	-7644	-8671	-32768	6791	-2300	-968	-8704	10924	-13838	-5008	-9344	3600	13360	-888	320	-1755	-16012	1736	-3540	7471	4700	2333	-17392	4048	-3436	10986	17401	3313	126	129	1
-32768	-14788	29876	-12747	-32768	-18875	-32768	-1748	-13584	-8021	-32768	6057	-1928	-768	-7248	10625	-14153	-4450	-9044	3880	13588	-951	944	-2173	-15148	3188	-1768	7305	5950	2619	-20532	6040	-3756	6189	10655	623	125	124	1
-32768	-12912	23176	-2615	-32768	-23118	-32768	-776	-19320	-2544	-32768	5601	-18616	2764	13728	683	-16005	2631	-9144	3460	13912	-800	2256	-2429	-15680	4652	-1200	4164	8045	2363	-18136	8656	4336	892	8133	988	130	127	1
-32768	-5160	6352	-2480	-32768	-22131	-26068	-3884	-25832	-12577	-32768	2742	-15640	7872	17252	2641	-10097	135	-8988	3452	14312	-503	4405	-2450	-16064	3640	128	1757	10610	1522	-17416	7016	7656	1068	11621	1578	130	129	1
-32768	13388	-24696	-7677	-32768	-6504	-12656	-2588	-32768	-17154	-25739	-7811	-12532	15832	32767	5918	-12487	4148	-8860	3600	14896	-138	7394	-2726	-16296	3648	276	-340	13997	981	-18788	4032	8796	2014	12114	1336	129	140	1
-32768	31116	-32768	-21698	-8424	6685	2112	-7896	-32768	-19167	733	-7132	-20196	14104	32767	8087	1442	-231	-9076	3352	15044	-125	7862	-2784	-18688	4320	-1632	-2837	17274	32	-19636	3660	6096	1970	9858	1446	109	149	1
-32768	9448	-15400	7837	10592	13048	-11532	-9208	-32768	3843	20000	-3250	-12976	1340	12708	2263	2417	-12647	-9272	5092	16948	678	18861	-3458	-23088	892	-2008	-1381	19939	-26	-23804	1280	4144	2943	7754	1382	108	150	1
-7384	-32768	10956	28891	17172	9459	-17344	-7608	-8764	21055	32767	-3809	-17988	-944	-7176	-8409	16703	-9441	-9068	4016	17140	623	27608	-5211	-23616	-2672	-2196	3536	21775	1258	-24480	384	7300	6166	3887	324	135	151	1
32192	5948	32767	23541	29942	-9915	-32768	32767	29616	32767	19323	933	-7476	4520	-3028	12220	13056	-9211	-7912	3156	19300	1462	32767	-5265	-28204	-2704	-308	5911	24565	784	-27740	2192	12124	3592	-2896	-83	144	157	1
-32768	29744	8304	4745	32767	-12199	-24496	1252	-22964	24442	13909	4351	-17968	-13072	16972	18103	-5841	-4950	-5940	7076	19236	2983	32767	-6254	-32768	-9608	6112	9204	26488	1018	-29104	-484	20128	-1018	-14514	-1344	131	154	1
-32152	30872	32767	-2766	19420	19409	-27836	13284	-10004	32767	9191	1452	-23868	20776	-9824	32767	8701	-5122	-12956	17276	20084	3323	32767	-15862	-32768	-4728	14056	24907	24857	2648	-29480	-1472	23296	-1966	-18470	-2695	120	160	1
-9028	-32768	5140	1747	21955	3884	-21488	-2088	-3768	13465	25519	-6986	-14524	17336	-13316	4626	4225	-3087	-32768	14128	15300	-618	32767	-32768	-28328	19828	-6052	18841	26261	2911	-17556	-10612	1260	11659	-7756	-10426	135	161	1
-18724	12548	19456	5031	16933	9479	-8448	-3860	-9944	7498	14305	-8751	-9468	-3744	-9508	-18388	7210	-1109	-32768	17172	23816	-3695	32767	-32768	-28856	12476	-10688	7516	26603	2585	-31416	13696	-10800	20708	-15764	-4585	128	165	1
-19532	-7904	16740	9079	9120	5234	-20780	840	-10864	-6364	14593	-7639	-18436	-5236	-8252	-9947	10690	-7886	-29220	20964	32767	-2006	32767	-29871	-25380	4640	-10088	-1793	21642	1541	-32768	7388	-13664	6406	-17667	-1792	137	147	1
-12664	-6612	13900	3805	2862	2723	-22536	4300	-7048	-11413	14958	-3681	-23280	-3908	-7960	-5497	10865	-6212	-32768	10276	32767	15395	20449	-17410	-17272	4608	-13908	-7197	16249	662	-29696	48	-6476	-1921	-24437	3360	118	132	1
-9572	-2620	13804	2778	1595	1775	-17500	-4324	-5920	-6551	10272	-3867	-16564	-1576	-4944	-1409	12675	-2980	-13628	28452	31484	15352	-18558	-1785	-16416	-1844	-6784	6914	5875	1308	-27544	704	-6772	-1911	-24203	819	129	117	1
-8516	-1956	13932	1404	1577	911	-16436	-452	-4792	4479	7255	-2963	-17272	2180	-3444	3461	12548	-3155	2760	15960	16532	5563	-27965	3971	-11484	180	-4240	15978	-3225	1040	-26564	1144	-8536	2113	-21571	-2214	122	128	1
-8704	-2188	13932	1207	1626	746	-19384	2888	-3748	6293	5371	-3171	-17584	4168	-2804	2541	13061	-2923	6884	10204	9720	946	-26044	6966	-7004	5052	-4236	11684	-11173	1678	-21668	2584	-8684	4104	-19528	-986	117	119	1
-9148	-3064	13228	45	2008	-292	-17736	2728	-4112	-145	4825	-3978	-17616	3316	-3104	-1210	13973	-1537	2124	8320	8956	-1333	-23745	7846	-3980	4916	-5000	-796	-17050	1233	-17708	2852	-9780	1747	-17364	631	117	114	1
-9544	-3268	12696	203	1776	-752	-16840	484	-4060	-6143	4535	-3911	-16924	-1468	-3104	-4012	14810	-1068	-3184	7408	10720	-1717	-26391	8334	-4816	3776	-6232	-6886	-22062	147	-15156	1964	-10608	747	-15911	1333	122	112	1
-9192	-3624	12764	554	1289	-1019	-17096	-1952	-2952	-7851	4258	-2728	-17240	-3376	-1724	-2996	15081	-2382	-6496	5284	12640	1738	-31044	10367	-6032	1456	-7004	-7435	-26975	-395	-13392	3376	-11324	-1196	-16315	2387	125	113	1
-8936	-3352	12712	539	993	-1212	-16940	-2708	-2060	-4204	3848	-2349	-15188	-1168	376	689	15360	-2589	-9800	5672	14024	6179	-32768	13691	-6760	1112	-7768	-5444	-31524	-1789	-10660	4096	-10916	-3084	-14914	2060	121	114	1
-8900	-2872	12872	345	899	-1181	-15552	-108	-2032	-220	3298	-1578	-15228	2020	1284	1331	14725	-2414	-11780	6188	14664	8286	-32768	16921	-9376	1224	-8176	-3977	-32768	-2423	-9388	3952	-9740	-4653	-12268	1084	134	116	1
-8712	-3272	12824	50	783	-845	-15820	228	-1256	-1375	3858	-1758	-15276	2544	1420	871	14724	-2349	-15664	7068	15892	8273	-32768	19293	-11064	1204	-9000	-3425	-32768	-2700	-6240	2132	-11512	-7179	-10156	323	135	120	1
-8848	-3592	12540	71	698	-231	-16568	-644	-1308	-4678	4517	-1832	-14668	652	1896	-8604	15468	-2501	-18288	7040	16712	8133	-32768	21426	-12148	1560	-9676	-3817	-32768	-2895	-6368	1092	-12360	-9948	-7796	-873	131	122	1
-8876	-3680	12484	273	554	417	-16540	-1976	-1612	-5711	5472	-1542	-13820	-1604	812	-12109	15346	-2658	-21252	7792	17596	9362	-32768	23442	-15464	2776	-9952	-5750	-32768	-3350	-4816	112	-13092	-13227	-4485	-459	131	120	1
-8604	-3340	12784	472	583	858	-16392	-1900	-1672	-5526	5577	-1376	-12964	-576	2156	-11936	14649	-3002	-24576	8852	19376	9832	-32768	24942	-19260	4348	-11192	-9136	-32768	-4355	-2392	-340	-11472	-17785	-1906	1079	134	123	1
-8756	-2968	12920	509	842	1153	-16988	548	-2688	-3802	6345	-1121	-12444	1192	3244	-4905	17394	-3256	-29384	11448	22976	8147	-32768	26755	-24660	5220	-12472	-11970	-32768	-5922	-2976	-724	-6844	-14920	-2126	2880	129	121	1
-8864	-2544	13172	277	1248	1267	-16864	2260	-2120	-5677	7343	-1519	-17100	4112	992	-6824	19532	-2828	-32768	16932	27680	2406	-32768	29409	-28464	8892	-14216	-13949	-32768	-7217	-11724	1460	2992	-13192	-10752	1918	122	119	1
-8684	-2728	13448	29	2021	1065	-15164	1536	-676	-6626	8678	-1969	-21068	860	876	-5933	11379	1135	-32768	10372	18628	-3195	-32768	32767	-25140	5556	-16704	-11426	-32768	-9606	-17108	2980	8268	-11276	-15747	3192	122	115	1
-8668	-2664	13364	-196	3164	801	-16148	-1608	-1180	-2907	11449	-1841	-18376	-3984	3992	-2832	7644	393	-32768	5348	-4056	-3955	-32768	30000	-19904	-116	-20916	-4987	-32768	-2606	-16568	2204	9200	-11289	-14786	3514	126	118	1
-8708	-2572	13588	-502	4506	1001	-16500	-784	-1128	2898	10295	-601	-16068	-1936	5908	77	12238	-889	-32768	-32496	-24936	27989	-24556	16718	-8048	-2816	-21636	11936	-24187	7694	-15652	-18548	32767	-16972	-8324	1721	126	121	1
-8672	-2396	14352	-1039	6503	999	-16576	456	-1012	2456	12667	-475	-16748	-296	7064	1289	13996	-504	-32768	-29328	-24992	32767	-7530	4804	3360	15068	-19108	24238	-1091	8511	-29696	-15676	28640	4329	2661	-3650	129	125	1
-8748	-2968	15908	-1705	10538	796	-20392	-1412	-1504	3621	15052	353	-20032	-1852	5592	2038	12390	-473	-32768	-25444	-23048	26428	-5009	1492	-7544	13636	-22392	4425	16962	3955	-24440	-10016	21960	6860	1375	-3829	129	131	1
-9036	-4888	16392	-1942	16004	2107	-22640	1244	-1880	4957	16865	480	-23156	1456	5504	1074	7502	158	-22920	-1980	-8084	-26167	14069	-25848	-11920	10632	-16444	-13099	26004	3163	-15168	7704	1096	17637	-1725	6236	128	122	1
-8684	-2556	17500	-2781	23458	2947	-23708	5844	-1772	2747	19694	-459	-23168	4012	10744	-2388	3616	2104	10652	-2200	32767	-8214	31895	-40	-13552	8908	-10088	-17928	26959	3724	-15436	3988	364	12969	413	7347	126	119	1
-7636	-2328	20340	-4684	32767	2239	-29280	5404	1632	738	23450	105	-26704	3316	18096	-3527	-2999	2001	-32768	-22072	24428	-12859	32767	-11963	-19352	40	-27672	-32768	26237	1286	-21180	21720	23252	-32768	-3097	16940	125	111	1
-5788	-12400	21576	-7171	32767	2066	-32768	10872	10044	1590	26569	897	-30076	11236	31200	-704	-16177	5106	-11412	-10116	23372	547	16380	-15561	-14540	-18472	-10332	-12443	24567	5982	-23672	-24084	-32768	-20370	24344	-4624	123	99	1
-7164	-12320	23528	-7498	32767	8517	-32768	11096	15504	-10757	28096	-2672	-17792	20200	10112	9018	2527	8101	-15324	27736	10516	-7798	19538	-10483	-15624	13460	-10848	4459	18338	7944	-11284	-12344	-13132	2167	764	784	116	123	1
-32768	-14024	20852	-8030	32767	21591	-32768	-14028	-4040	-16511	28597	-3574	-20256	5592	4728	-26307	-3154	9761	-16528	-412	18388	-9996	4281	-13685	-12904	14468	-17004	-8369	15565	10432	-12684	9080	-12228	10847	10952	2707	130	103	1
-32768	-22460	28680	1388	32767	32549	-32768	-11832	-556	94	30517	-3814	-32768	-4952	-13824	-15972	-2509	2025	-13824	-2120	17156	-4746	-239	-5054	-21268	-5344	-16084	4242	12456	5130	-17052	9676	-12672	11159	11908	4239	133	100	1
-21176	-20772	32767	-5671	32767	30487	-30368	2820	1248	11715	21829	-7670	-32768	4436	-10492	-10918	-14960	854	-10084	4064	14296	-1555	-346	-1519	-15612	5684	-9588	14825	9883	3866	-17832	4232	-5744	2921	9846	5995	126	112	1
-14096	-18544	32767	-8331	32767	29666	-18768	2316	-8484	2437	12784	-3876	-31488	7584	-9972	-9194	-16393	1918	-9664	2744	14524	-305	204	-917	-17056	3808	-9352	7171	7707	3771	-18556	2200	-6172	5513	10910	2862	130	107	1
-5484	-29200	32767	-15787	-17152	-6130	-18192	2304	4488	-9825	7935	-3465	-30348	4884	-10952	-6277	-18497	3248	-8696	2656	14180	722	984	-687	-16768	4440	-8272	678	6313	2490	-16028	2860	-2576	3599	11878	1865	125	116	1
9288	-16620	19204	3415	-23980	-9025	-19528	2360	5568	-10478	5945	-4664	-30776	4640	-13364	-6104	-19806	292	-8796	3668	14044	1412	1512	-18	-17232	3356	-6972	-5419	5196	2012	-18000	2268	-3640	-289	13950	1890	118	114	1
8232	-4460	14212	7131	-23462	-11986	-4284	-952	1612	-2375	-14731	-3015	-19648	2628	-12540	-8047	-19926	-1	-9316	3788	13592	1246	1771	339	-16824	552	-6304	178	3332	2563	-16404	2132	-2664	-642	15486	1017	128	127	1
2164	-1752	13460	2606	-25066	-14583	-6408	-16	-208	1565	-21672	-348	-16640	1236	-12856	-7594	-20464	-1902	-9472	4032	13372	1077	1643	613	-15712	3488	-5648	5558	1998	2421	-16900	2056	-2756	52	16332	723	133	124	1
-2192	-2112	14112	-170	-29667	-14511	-8680	44	-2152	3469	-27271	1354	-16576	-464	-13052	-6335	-21300	-2252	-9396	4148	13376	840	1457	684	-15784	3416	-4408	5481	1440	2159	-15696	2280	-1388	-626	16582	904	125	129	1
-6600	-2376	15112	551	-32768	-13461	-8640	220	-2424	3382	-28088	1611	-12728	-2840	-13988	-2895	-21956	-3288	-9296	3788	13480	731	1532	538	-15672	2776	-3288	4385	1488	2221	-15952	264	140	-774	16300	939	125	130	1
-9812	-1928	15540	1349	-32768	-12705	-9132	1556	-4264	1009	-32768	5258	-8904	-2916	-14880	1970	-22009	-3937	-9132	3852	13448	544	1464	436	-14872	2760	-2696	2488	1960	2304	-14216	-2116	1456	1901	15429	644	128	131	1
-11992	-1076	16776	400	-32768	-12770	-11136	2100	-4796	442	-32768	7669	-9936	-2536	-13776	4864	-21783	-3204	-9220	4092	13128	377	1344	179	-14532	3004	-2720	3103	2408	2264	-14084	-588	996	6350	15312	231	139	127	1
-14880	-2984	18116	-439	-32768	-12942	-14792	2596	-5812	-1368	-32768	9411	-4620	-2056	-13672	8517	-21053	-1724	-9456	4256	12800	-55	823	-471	-14368	3808	-2712	5243	2849	2229	-13876	1288	496	11118	14737	642	132	127	1
-18808	-5480	21076	-31	-32768	-12745	-15248	2476	-5812	-1846	-32768	9599	-3344	-936	-14520	10755	-19864	-2527	-9500	4124	12792	-529	183	-911	-14508	4176	-3408	6454	3333	2086	-12512	3032	1464	11263	13971	1525	129	131	1
-19468	-5808	21444	41	-32768	-12763	-23156	1584	-7140	-3839	-32768	10093	-2028	204	-14976	13480	-16704	-3644	-9360	4164	13056	-810	-172	-1468	-15380	3120	-3784	6370	3716	1905	-11968	1484	312	9547	15951	3928	125	136	1
-28932	-8716	26248	-3107	-32768	-14890	-28584	508	-7520	-2914	-32768	10995	-1172	632	-12268	12795	-12665	-5350	-9140	3592	13392	-897	-29	-1701	-15940	1448	-3200	7139	4260	1898	-17256	2212	-1408	10504	16462	3341	128	130	1
-31152	-10304	27412	-8247	-32768	-16328	-32768	1716	-7464	-5613	-32768	9835	-1036	2776	-4072	11191	-12408	-2838	-9060	3888	13696	-778	638	-2061	-16128	3096	-2112	6952	5345	2015	-20536	6292	-3428	7644	12547	259	124	125	1
-32768	-16608	25612	-8567	-32768	-17966	-32768	-2236	-15276	-5121	-32768	8783	-15164	3872	14656	10684	-21431	2769	-9220	3776	13756	-832	1610	-2518	-15672	3484	-1432	4790	7015	2182	-19540	7284	892	1708	8916	363	123	128	1
-32768	-8724	15164	-3145	-32768	-21591	-31776	-2780	-22136	-3208	-32768	9207	-18596	8680	16308	5725	-13540	3568	-9220	3840	13660	-761	2787	-2407	-14724	4484	-164	2974	9228	1446	-16104	7508	6376	266	11613	1053	133	129	1
-32768	-224	-6364	-4661	-32768	-14614	-23688	-4140	-28736	-17849	-30629	-1460	-8876	13220	31748	3146	-15584	4862	-8832	3744	14300	-469	4645	-2794	-15476	4144	1016	-429	12278	827	-17808	4832	7544	305	12239	1399	126	139	1
-32768	32767	-32768	-22220	-24141	3691	-500	-3228	-32768	-29589	-13040	-9049	-14380	23768	32767	2727	454	6822	-8708	3160	15492	-68	7862	-2895	-17020	3876	-708	-2495	15451	-67	-19396	4144	6984	-25	11179	1156	121	146	1
