#Activity	walking 
#ActivityID	1 
#Date 08-20-12-46
acc_rf_x	acc_rf_y	acc_rf_z	gyro_rf_x	gyro_rf_y	gyro_rf_z	acc_rs_x	acc_rs_y	acc_rs_z	gyro_rs_x	gyro_rs_y	gyro_rs_z	acc_rt_x	acc_rt_y	acc_rt_z	gyro_rt_x	gyro_rt_y	gyro_rt_z	acc_lf_x	acc_lf_y	acc_lf_z	gyro_lf_x	gyro_lf_y	gyro_lf_z	acc_ls_x	acc_ls_y	acc_ls_z	gyro_ls_x	gyro_ls_y	gyro_ls_z	acc_lt_x	acc_lt_y	acc_lt_z	gyro_lt_x	gyro_lt_y	gyro_lt_z	EMG_r	EMG_l	act
-6728	-6336	13164	929	735	2801	-15648	-248	2012	-4106	5607	-1195	-15992	-328	3084	-1488	9023	-1013	-12324	6088	18344	13384	-31655	27868	-14580	832	-7460	-4533	-32768	-9942	-7980	2532	-8924	1182	-3719	-3018	129	122	1
-7072	-6800	12736	958	538	3073	-15652	-2396	2512	-4402	6939	-1461	-14840	-752	4664	-1052	9198	-2904	-17156	8664	22480	13583	-32439	29458	-17444	1680	-8648	-3174	-32768	-12357	-6992	3848	-10004	3118	-954	-1339	126	125	1
-7072	-7248	12616	911	-122	3717	-16116	-2824	2280	-1320	7886	-1712	-16564	-1604	5500	1960	9792	-2554	-23216	13232	27128	11893	-32768	32113	-22912	4076	-10004	-5008	-32768	-15221	-5908	4724	-9928	6129	3453	354	124	128	1
-6904	-6860	12840	847	-475	4449	-15972	-1548	892	64	8854	-2100	-17920	-4028	-528	-3376	4587	-884	-30468	13716	28956	8268	-32768	32767	-28688	3088	-9924	-2966	-32768	-16936	-5076	4032	-9640	6524	4377	614	85	129	1
-7288	-6468	13080	748	-206	5409	-17508	-1356	-180	-196	9483	-2191	-16732	-1560	-2192	-2340	4322	-1172	-32768	5328	25704	7730	-32768	30691	-32256	8540	-12872	859	-32768	-16453	-9668	5440	1248	-3223	4602	5222	127	129	1
-7404	-6708	13056	212	361	6328	-17684	-1772	-1092	-485	9924	-2336	-15096	-1836	-620	-2194	7237	-1227	-32768	-3960	19176	8549	-30737	21496	-32372	6704	-15892	-3425	-32768	-14646	-23052	4388	21040	-1154	-12416	5846	128	129	1
-7556	-5812	13700	-386	1759	6960	-16956	-1560	-1136	-1186	10774	-2518	-14992	-692	-892	-3949	6749	-997	-32768	-18384	4816	8734	-25315	12921	-18720	5620	-21188	8449	-27185	-10416	-31484	176	20508	-8368	-7170	555	136	135	1
-7548	-6712	13908	937	5946	7275	-18828	-1280	-1120	-947	11513	-1875	-17432	-1032	-664	-3238	6210	-706	-32768	-31628	-13980	8065	-21604	-2058	-3728	7508	-22044	17821	-11925	-678	-16660	-9280	32767	-18585	7620	4820	132	127	1
-8044	-5020	16340	246	8138	7390	-18936	300	-2204	-2210	12568	-2202	-17256	-3444	2096	-3108	7682	650	-32768	-30920	-20080	11035	-7198	-13847	-2596	13096	-20904	7314	6946	4152	-24044	-29396	24768	-11487	8940	-2990	130	121	1
-7860	-5200	14776	1113	11916	8196	-19700	-1892	-1180	598	14261	-2249	-18924	-3240	840	-1304	6693	1732	-32768	-2056	-4588	-3803	4435	-17461	-12152	10024	-19980	-4100	19241	7075	-15780	-15452	8144	-2594	2499	-9505	128	109	1
-8448	-8076	14332	3331	14823	9540	-20964	-312	176	-295	15827	-2339	-19468	-1652	2308	-2926	4846	2264	-18232	13772	10876	-12000	11408	-9329	-20448	1696	-4464	-592	22674	9355	-11576	-6752	-7352	8677	2471	-3562	128	115	1
-9552	-7640	14516	6458	16895	13120	-22732	0	968	-3198	17024	-2458	-20492	1556	6684	-5498	2863	3083	32767	28856	32767	-3644	17458	4399	-21476	200	1156	-683	21881	8868	4656	-1472	-14476	4516	3715	-300	132	119	1
-10384	-9368	15852	9227	20204	16653	-25488	-420	3436	-6084	19136	-2757	-22924	1588	12488	-6410	-1480	4755	-15468	-4500	10116	-14732	32767	-18508	-22556	8852	-15692	-32768	12348	10577	-26908	13380	280	-11976	5808	12432	138	128	1
-12932	-10560	15984	13115	27801	23152	-31836	4	7988	-8829	21186	-2396	-25256	1364	18268	1408	-9443	6468	-32768	31024	32767	-14988	6059	-8010	-24764	6012	-8376	-8621	14538	6807	-32768	6032	8280	-27640	2100	7710	136	169	1
-13600	-15504	18372	17852	32767	32721	-32008	1248	12592	-13341	22058	-1981	-25272	6864	12804	-4109	-8388	8902	-2172	12036	8760	-8221	5853	-8093	-18640	1332	-3192	-3970	12716	10378	-15832	-16080	-4880	-2255	20858	8567	129	131	1
-16448	-13924	15620	16945	32767	32767	-31488	1152	12952	-13906	22098	-1890	-21532	4148	6212	-12512	-10374	8403	-12304	5532	13648	-6162	2902	-6475	-12012	4188	-4432	9375	9790	8054	1228	1444	-8824	29039	18733	18552	128	122	1
-27856	776	30200	-2462	32767	32767	-24880	-1060	3932	-19999	23721	-2547	-20924	-1984	2880	-21429	-14622	8223	-8632	7784	14940	-6173	493	-7380	-16900	7020	-2020	15744	7237	7023	-13768	20872	-15504	15249	3636	7576	127	118	1
-29508	-20836	25972	-5102	21362	32767	-23576	-13872	-128	-17387	19876	983	-23440	-5740	-9440	-25277	-13916	5570	-10648	7600	14280	-2975	593	-4793	-17776	4776	-5652	8692	7013	4706	-23048	9592	-2524	-14039	8695	6266	124	117	1
-25368	-22104	22268	-5147	3637	32767	-19196	-8284	-1668	-4203	13366	-1877	-23816	-4364	-10336	-15776	-15256	-1841	-8196	4428	14140	-1280	1423	-819	-17096	3508	-4208	418	7116	3690	-16792	-5460	-5332	834	12279	5583	116	122	1
-11116	-30660	13064	1801	-8262	22613	-14140	-4200	-7708	-4926	9935	-1793	-22888	-1024	-8336	-1500	-18221	-4133	-8392	6000	13348	-380	1839	-444	-16680	2652	-2688	112	5521	3119	-11344	-1840	-4088	4886	11460	413	128	141	1
-6748	-32768	11988	-3280	-16447	-3376	-11032	-3900	-2248	-11197	7189	2081	-22916	-2468	-5252	3541	-17929	-2791	-8496	7716	12724	190	1799	-915	-16796	2504	-2432	1094	5234	3156	-16836	6324	-2144	9604	11447	2538	131	151	1
1132	-19620	-936	2077	-11576	-14631	-11664	-1612	2524	-1820	-153	1534	-21624	-4092	-4296	2829	-17915	-4550	-8584	7628	12664	8	1395	-1754	-16556	5452	-1280	11548	3089	2881	-18024	5624	-2808	9932	13006	5841	126	131	1
824	-12632	956	-682	-6930	-19338	-9580	-4472	280	6255	-7627	1403	-18348	-5152	-5212	6500	-16858	-5565	-8168	6916	13036	-9	1365	-1788	-17164	4640	-1964	6262	2621	2063	-16976	2648	-3728	8792	14087	7853	135	119	1
-5000	-14240	7320	-6804	-7266	-24352	-9952	-5572	-1004	14681	-13976	1295	-18472	-4276	-5440	9671	-16217	-4757	-8244	5772	13116	643	1703	-1362	-16008	1796	-1556	6988	2639	1473	-14588	336	-872	9413	11968	5325	136	110	1
-8208	-15928	10636	-8732	-13235	-30622	-10496	-4384	-792	17745	-18541	2033	-17540	-3792	-5900	13239	-17088	-4569	-8500	7216	12412	812	1709	-1689	-15792	4928	16	8681	2608	1680	-14228	524	132	7709	10450	5179	131	95	1
-5012	-9684	9516	-9684	-17650	-32768	-11848	-28	332	17699	-23053	3044	-17420	-4256	-6888	17732	-17401	-5249	-8656	7348	12396	923	763	-2246	-14868	4572	300	8581	3073	1601	-14904	1336	284	6279	8474	4546	127	118	1
-4448	-6588	9260	-13686	-18556	-31816	-11208	1208	-1048	14950	-27726	4476	-16012	-3560	-8356	21764	-16871	-5054	-8668	7320	12360	703	334	-2314	-15636	5300	388	7452	3832	1802	-14792	3160	-120	3930	8568	3433	123	111	1
-7444	-10004	12156	-15892	-19573	-31764	-12580	1432	-2528	10269	-31758	7404	-12472	-2404	-9680	25220	-16148	-3659	-8524	6672	12532	327	328	-2532	-15652	3944	-224	4324	4494	1265	-18172	7476	944	2904	7931	3513	127	122	1
-9472	-11104	14512	-15793	-20514	-32768	-13800	160	-3608	7188	-32768	10313	-12376	-2844	-9852	25707	-15747	-3289	-8524	7024	12596	-160	791	-2662	-16520	3804	-632	3725	5238	1169	-19416	8580	-1420	1512	4888	2500	127	120	1
-12320	-11876	14820	-16068	-20834	-32768	-15268	-696	-4468	6865	-32768	11788	-8928	572	-10492	23493	-9557	-2087	-8480	7052	12680	-126	1218	-2881	-16496	3656	-1076	2545	5842	1036	-17208	3204	-1864	-1370	4276	3278	130	125	1
-14740	-13820	16004	-15928	-20481	-32768	-18360	-2300	-4196	6114	-32768	12028	-7344	2984	-10680	17256	-5275	-2297	-8620	6452	12792	-59	2087	-2860	-16272	2404	-2032	2520	6351	1197	-15472	-1596	-464	293	5667	3476	135	120	1
-16836	-15312	18300	-16916	-18941	-32768	-25052	-2508	-3492	4479	-32768	12066	-7264	3856	-11632	5401	-3092	15	-8688	6136	12968	421	2654	-2512	-15908	2500	-2128	2062	6955	1281	-15132	-1504	-1296	1946	6556	2812	134	124	1
-25824	-20224	23924	-18819	-17726	-32768	-30500	-5596	-6676	5728	-32768	9330	-6804	5568	-11060	-3678	1339	-806	-8560	5916	13064	777	3521	-2451	-15992	2092	-1660	1483	7742	1481	-15084	164	-1484	2576	6598	2046	129	128	1
-32768	-21612	26216	-18871	-18339	-32768	-32768	-8448	-9996	8700	-32768	9479	-7136	6540	-6472	-3042	1939	-1747	-8696	6320	12960	1658	4721	-2745	-16772	2448	-1596	1834	8666	1859	-18204	1584	56	2867	6006	1906	127	127	1
-32768	-7284	22580	-18381	-14672	-32768	-30824	-3592	-10916	15907	-32768	8331	-11276	720	4496	581	-2576	-3122	-8836	6552	12900	1667	4699	-2751	-17072	3096	-1584	1995	9570	2311	-17500	844	960	2716	6009	1913	120	122	1
-32768	6288	28536	-21614	-10312	-32768	-30020	-3672	-16072	922	-32768	9898	-21640	400	15164	9114	-10702	-5526	-9152	6456	13328	269	8264	-4076	-16652	2168	-1884	2554	10904	2713	-17032	-316	1652	3300	6444	2022	117	119	1
-32768	16064	17404	-6944	-10166	-25616	-24152	-8164	-20844	2823	-26874	6851	-23868	-372	27528	13240	-13262	-7648	-9424	6668	13424	-75	10575	-4102	-17868	2568	-2328	226	12386	2738	-16580	-84	200	3897	6102	1881	125	116	1
-32768	21744	15024	-4915	-9718	-23373	-24068	-6876	-21628	2373	-24998	6025	-17128	7208	29512	9127	-3674	-6376	-9932	6064	13708	-441	13220	-4454	-18116	2056	-2952	-480	13780	2958	-17720	2492	464	4741	6597	677	123	116	1
-32768	32767	-5252	-5386	1824	2659	-9924	-8536	-27264	8149	5323	-6677	-15324	10196	23756	5416	12531	-4156	-10396	7056	13420	-707	16572	-5065	-19100	3324	-2876	-1293	15064	2893	-18656	5188	-196	4311	6588	-77	134	122	1
-32768	14260	3040	10568	14599	5562	-14056	-6408	-22856	11146	18796	-8282	-19896	7692	10852	12135	5193	5866	-11344	8380	12928	-1126	19777	-7063	-20084	4056	-2096	-247	16122	3401	-19412	3576	172	3944	5738	-720	131	122	1
-28072	-5492	14936	23531	24613	3344	-21324	1692	-4560	12879	24936	-12089	-10540	-420	-4324	-2510	6063	5069	-11388	7996	12552	-616	23323	-10243	-20496	2600	-1816	2669	17011	4155	-19752	1996	2944	6039	5523	-563	125	124	1
32767	-32768	32767	23847	22744	5496	-32768	32767	32767	32315	5567	-8404	-5100	1068	-8172	10193	14117	-2697	-12432	8184	13692	377	28656	-13524	-23620	2604	-788	5887	17827	3529	-20872	1144	3584	7340	4854	-800	120	121	1
-32768	18432	16900	8206	17095	22502	-15584	-13328	-22312	28783	-3771	-4795	-29612	-10788	-12036	9995	17728	-7237	-12360	10376	12360	3128	32767	-19512	-29012	-2856	-884	8251	17678	4110	-24444	-2880	9528	11732	-1952	-1969	118	124	1
-24676	-32768	32767	31773	21472	2656	-27676	1476	9308	7599	12543	-15298	-31320	8012	8060	32767	-16836	2941	-11788	7324	14624	9605	32767	-23843	-29608	-8000	7872	25066	18933	2267	-25344	-5816	8780	16310	-9524	-7066	106	124	1
-23968	-4720	17268	9038	6918	1559	-22040	-16536	-4628	12175	12201	-8048	-18896	23220	12336	7927	16330	-14604	-25700	15348	12492	2507	32767	-30828	-24304	5412	2156	21372	19155	2638	-19052	-12416	7276	3239	-11654	-10299	114	131	1
-15344	-9244	15216	7888	8151	-737	-15352	84	136	3236	12260	-10485	1868	-5140	-8688	-28602	28696	-15549	-32768	6708	16776	7643	32767	-32086	-21016	13368	-4488	5064	23308	4610	-19452	-628	3148	15799	-15152	-6301	129	136	1
-8256	-8496	14704	4447	1729	344	-15568	68	1556	3682	8333	-7719	-7868	-16076	-20588	-16789	7036	-1140	-24776	14536	19612	14901	30034	-32533	-23972	8128	-232	1203	22196	2120	-26556	12512	-6156	27951	-16480	-4337	125	145	1
-8504	-7848	13244	3654	377	998	-17536	-600	88	-6085	7966	-5864	-24212	-12452	-2456	13922	791	-3486	-21072	21984	14528	12612	18315	-32768	-19824	9532	-1716	-7888	16821	2939	-25956	7656	-15164	19483	-16767	853	130	138	1
-7408	-6552	13952	2735	408	479	-18060	-1544	464	-7878	7476	-5683	-16204	-4828	172	9490	10775	-5374	-20340	17512	13408	1172	15842	-32768	-14140	8264	-10208	-11934	12600	2772	-23544	4948	-12812	5455	-23385	3345	116	126	1
-6884	-8064	12704	1143	726	-92	-17728	-3564	1480	-2838	6183	-4100	-15080	3268	-2528	-4110	15152	-4264	-21952	31724	18992	2073	-10238	-12315	-12828	6096	-12852	3328	7938	-190	-22748	4356	-10312	-4068	-26674	3536	118	126	1
-6108	-8364	12172	612	1121	-474	-16876	-1856	2140	4020	4440	-4120	-13932	-732	-3260	-3981	12919	-5282	-12008	23268	12212	-6768	-25046	3341	-8184	4224	-4476	14142	1592	271	-21772	348	-7068	-7696	-25768	1670	137	118	1
-6248	-7108	12636	58	1410	-599	-17100	1100	2724	511	3869	-3626	-17076	-2676	-2588	-4542	10346	-2525	-3392	8984	6004	-7065	-31807	8667	-5344	4440	-2288	11705	-3822	430	-19056	-920	-6704	-7161	-23486	1144	138	114	1
-6644	-8492	12140	643	1702	222	-16740	132	3088	-8911	4153	-2786	-17656	-584	52	-9508	11893	-3825	172	4184	3636	903	-32485	9650	-5696	4004	-1436	4772	-9796	-973	-14228	-260	-6124	-5141	-19696	800	126	114	1
-6368	-8916	11848	622	1642	976	-16772	-1628	4012	-14547	4219	-1967	-14344	-472	12	-14460	14794	-5330	-748	5100	4252	9463	-31128	10211	-6632	2400	-2252	1489	-15410	-2068	-14760	1812	-5596	-4787	-16731	584	123	113	1
-6400	-7120	12664	797	1493	1544	-16404	-2336	3100	-12504	4060	-1703	-15092	-244	-828	-14339	12486	-5015	-4468	10424	5712	11911	-31394	12341	-6980	2640	-2828	3310	-20367	-2825	-14064	1512	-6304	-4833	-14894	-524	124	127	1
-6540	-7704	12484	-52	1833	1139	-16184	-1504	4020	-4384	4190	-2239	-15344	1432	2840	-9328	9710	-5434	-6468	11472	6236	9067	-32618	15961	-8444	2724	-3208	2548	-24696	-2563	-13792	2312	-6268	-8562	-14154	-856	122	136	1
-6764	-7684	12116	22	1529	1592	-14776	-412	4568	-5722	5266	-2055	-16636	1564	4444	-4073	6316	-7444	-6248	7884	6308	9951	-30091	20597	-10108	1728	-4428	-935	-28014	-2649	-10820	3368	-6768	-12850	-13453	84	123	94	1
-7100	-8416	11824	549	925	2206	-14992	-2284	3864	-6964	6391	-2759	-17712	-3432	3288	-6313	3241	-8221	-8216	9184	8568	12286	-25540	26047	-11744	2640	-5988	-5697	-31223	-3889	-10736	3168	-7896	-17912	-12355	690	127	123	1
-6900	-7660	12144	1347	604	2877	-15184	-2416	3836	-6546	6500	-2845	-17092	-6784	1768	-6047	2922	-5944	-13048	10244	12144	11258	-23236	30328	-12496	3692	-7300	-9417	-32768	-4316	-10272	1980	-8404	-19484	-11236	864	127	120	1
-7112	-7776	12060	1772	626	3344	-15876	-1696	2480	-3477	8238	-2905	-17064	-5248	1088	-1423	4187	-3814	-15844	9848	14480	8787	-23898	32767	-13680	3988	-8124	-12662	-32768	-5259	-9896	428	-7968	-15334	-9427	369	122	122	1
-7056	-7520	12164	1117	592	3562	-16856	-1792	1632	-1272	8628	-3304	-15884	-2888	-208	-786	4402	-3224	-17060	8616	17084	8674	-23998	32767	-16640	3192	-8504	-13630	-32768	-7011	-10036	-1248	-7140	-8254	-6706	-216	122	126	1
-7136	-7252	12396	367	744	3455	-16704	-1712	976	-667	9104	-3746	-14560	-1604	-1252	-246	4936	-2646	-20036	11348	19836	9738	-24392	32767	-20604	4724	-9500	-13293	-32768	-8851	-9892	-2088	-7064	27	-2140	-305	123	129	1
-6828	-7428	12668	-268	790	3692	-16580	-2280	84	-797	9486	-3966	-14876	-1276	-2192	-489	5124	-2313	-24484	15312	21944	7547	-22786	32767	-25580	6544	-10680	-13994	-32768	-10818	-9404	-2204	-5936	5820	3928	1269	123	126	1
-7320	-7340	12256	-658	1140	4375	-17300	-2228	-288	-1179	9613	-3990	-15456	-3216	-2088	-1163	5638	-2077	-32768	14764	22908	5224	-22550	32767	-26964	6376	-14036	-18573	-32768	-11417	-9660	1300	-144	6969	6225	4289	118	124	1
-7220	-7092	12652	-1169	1852	5389	-17616	-2048	-356	-2092	9898	-4009	-16700	-2948	-1400	-2057	6209	-2381	-32768	364	19824	10904	-20430	32767	-27400	7168	-13628	945	-32768	-12144	-14692	3616	7152	-3452	-719	6956	112	125	1
-7116	-6492	13088	-2336	2718	5517	-17148	-1440	-208	-3094	10568	-3763	-15896	-920	516	-3075	6133	-2408	-32768	-4856	9064	10532	-20271	24676	-24024	12104	-17120	-4396	-32768	-6320	-21416	1372	11592	-3957	-4178	8995	127	119	1
-7284	-8816	11992	504	7854	6178	-17372	-1708	492	-2913	11750	-3899	-16144	1960	2864	-4079	5697	-2171	-32768	-19204	-4448	11277	-17206	11074	-16384	6752	-22040	5825	-22728	-1064	-23680	-1052	25644	-10220	-4099	6225	133	115	1
-8392	-7144	13156	-1374	9710	7117	-17812	-1868	640	-2847	11860	-4169	-16884	-24	4256	-4567	5340	-1675	-32768	-30308	-14476	22159	-10733	106	-3640	9856	-24596	13240	-6173	4863	-19068	-15192	30236	-2747	7056	3724	126	118	1
-8476	-7252	13660	-655	12722	8036	-19332	-1416	-276	-1659	15001	-4709	-18004	-4392	3676	-5717	6042	357	-32768	-10416	-14088	5342	6487	-5923	-6368	10472	-22336	-5871	9242	7180	-20284	-8900	13744	-6635	6521	-2623	127	124	1
-9536	-8620	13324	-499	16579	10299	-20920	-924	248	-2719	16744	-5260	-19312	-1672	4140	-7468	3663	929	-32768	3984	-844	-29146	12687	-938	-12880	1104	-18612	-15554	20172	9046	-10876	1284	2956	-4813	676	-3293	127	130	1
-9568	-8808	13128	-507	17250	10649	-22696	812	1448	-7315	18464	-6270	-20224	6420	8912	-11035	-2290	1233	32767	17392	32767	-19369	14882	6605	-32768	-29352	29564	-25222	9135	18	-9576	448	-9572	-1316	7230	-2538	127	118	1
-9196	-10736	14780	2061	26637	16993	-28528	1684	5180	-15138	21800	-5406	-24772	7380	18416	-11066	-8834	5739	-32768	-31644	27896	-7058	27762	-31400	-17792	6972	-29004	-32768	17873	10426	-32768	6152	-3052	-32768	-1005	5407	134	130	1
-9896	-11904	20504	85	30842	28996	-32768	2204	9700	-17323	23633	-4544	-22636	5604	10132	-8693	-6031	7223	-17952	32767	6508	-1763	5023	-6172	-24484	-580	-3896	-2699	15065	9655	-20040	-16000	12432	-32768	877	7962	136	143	1
-11416	-10736	15644	2879	32767	32767	-32768	9256	7608	-15189	23415	-7661	-26208	12484	7588	-14315	-10723	9958	-6264	1580	18380	-11715	9102	-9420	-17360	10604	-56	-6676	14271	10802	-9840	-7544	-6032	12716	24067	7832	134	138	1
-15996	-2740	14412	-9660	32767	32767	-26752	7340	3820	-27032	23870	-4888	-26136	2884	5160	-28217	-14970	9668	-11688	17816	6152	-10262	2056	-8208	-9396	4904	-876	9748	11153	8088	-4640	-3920	-8040	22156	19863	9366	134	118	1
-32768	-22476	23904	-7525	32767	32767	-27732	-20792	-2652	-22619	23065	1488	-24904	-7252	-6340	-29932	-13688	6206	-6828	3116	17388	-10918	-992	-11044	-17512	4652	-2484	15972	8148	6449	-18548	24480	-7620	9303	1006	7077	136	131	1
-20504	-16956	22384	-18553	13661	32767	-22704	-5368	3020	-3485	17531	-4686	-27284	-8428	-10332	-20745	-14611	1269	-12204	5788	13176	-3545	158	-4102	-20296	4928	-7268	10029	9471	4689	-21820	8712	-1272	-7871	11301	7059	135	127	1
-12716	-19628	15940	-12085	7697	32767	-13916	-2684	-3416	-5253	8823	-1681	-24500	-1692	-11096	-5464	-16324	-2615	-8788	5060	13796	-1627	1743	-907	-15868	5824	-4768	-4141	9190	2614	-14048	-4816	-6920	-1920	13175	375	126	145	1
-28044	-29056	12648	-8065	-10328	27344	-10772	-8500	-9792	-10729	5119	-637	-20708	-116	-7420	1154	-20208	-1205	-8716	6080	12832	-903	2044	-528	-16912	1288	-2976	-3546	7312	1354	-12356	4188	-5004	2190	12886	72	118	136	1
-4780	-31884	10116	-3578	-32768	-1706	-8996	-3484	868	-10000	2583	12	-21452	1140	-4612	1527	-18520	-2067	-8900	7884	12500	-507	1685	-1330	-15716	2520	-412	8148	5439	2265	-18696	5408	-3500	497	12644	3601	136	130	1
504	-16908	328	6226	-31590	-8841	-9396	-768	1932	-1752	-4385	-1037	-20960	-1136	-4408	-502	-18977	-2629	-9148	7260	12604	-367	1541	-2375	-16832	4564	-1396	13024	4694	2807	-18040	576	-484	5269	12338	7083	132	103	1
4936	-5508	-2012	300	-23844	-10898	-8864	1780	84	3653	-11811	-592	-18120	-3508	-4684	985	-17602	-2068	-8300	5888	13080	-356	1786	-2042	-16196	5004	-1636	5102	4552	1789	-14004	-668	-288	9940	12438	5318	138	103	1
2380	-8896	2508	-12060	-15140	-15998	-9332	1960	-1920	7202	-17139	844	-17040	-2924	-5876	5061	-16904	-1201	-8548	6160	12752	88	2169	-1627	-15836	2304	-1036	2129	4709	1046	-14924	96	-560	8696	10656	2561	132	122	1
-3228	-17980	7804	-14240	-12907	-25132	-9064	1480	-1880	6417	-21056	3162	-15692	-1876	-6000	9214	-16671	-765	-8872	6744	12516	100	2091	-1855	-15700	2432	-1020	2451	4704	1106	-15392	1664	-1264	6518	10454	2802	133	130	1
-4068	-13956	10848	-8928	-13818	-32768	-10960	720	-1472	8040	-25157	3763	-15092	-1596	-6008	11371	-16281	-540	-9064	6696	12340	97	1760	-2271	-15676	3836	-812	4811	4855	1617	-15736	2052	-1040	5832	10090	3370	133	120	1
-4488	-6500	14104	-12132	-15428	-32768	-11664	1900	-1404	9839	-29751	6365	-13324	-2764	-6768	12537	-15121	-477	-9008	6620	12608	152	1567	-2531	-16052	4068	-968	5215	5150	1748	-15372	992	-1200	3986	9836	3526	130	108	1
-4672	-5928	14504	-13333	-15820	-32768	-13096	1768	-1340	8820	-32768	8488	-10564	-3140	-7920	15415	-12503	738	-9096	6148	12524	127	1911	-2646	-16308	3788	-1760	3252	5529	1606	-16820	1872	-1340	1524	9642	4107	121	120	1
-10608	-7588	19692	-15896	-23828	-32620	-14448	2148	-2948	5545	-32768	9913	-8968	-2224	-9392	18333	-9333	1515	-9044	6244	12532	-17	2112	-2632	-15772	3032	-2016	4511	5886	1494	-17096	4780	-2240	2552	6483	3467	119	124	1
-12520	-7240	20688	-16936	-28015	-30700	-15888	2112	-4704	4124	-32768	11851	-6672	-764	-10408	19762	-6217	1368	-9188	6316	12564	271	2271	-2594	-16216	4352	-2160	3329	6160	1363	-15676	5536	-3340	697	5514	2285	128	130	1
-14156	-12372	19848	-17916	-28637	-31369	-19120	1084	-5732	2876	-32768	14798	-6936	-308	-12084	15161	-3209	1815	-9420	5940	12848	655	2659	-2788	-16456	3176	-2856	1891	6328	1127	-16684	4316	-3084	-178	6147	1678	131	126	1
-17808	-18164	21020	-15937	-26044	-32768	-25772	-56	-6600	1499	-32768	16023	-6908	-280	-12404	13544	-2631	1875	-9436	5884	12800	744	3440	-2754	-16248	2968	-2704	3109	6702	1088	-16020	3168	-2240	400	7337	1148	134	129	1
-27784	-21992	24800	-14386	-21906	-32768	-32412	-3120	-7704	-692	-32768	15704	-6332	3852	-10440	-1649	5969	579	-9196	6504	12504	-354	5015	-3333	-16204	3472	-1800	2133	7324	1184	-16844	1588	-1436	720	6660	954	130	134	1
-32768	-21376	26048	-13591	-20891	-32768	-32768	-11836	-9844	5175	-32768	13893	-6808	760	-3100	-428	4379	-1178	-9948	6600	12760	-520	5680	-3950	-16424	3152	-1828	1797	8182	1572	-17244	-36	916	1422	6020	1250	123	126	1
-32768	-2060	22384	-19060	-19076	-32768	-32768	-10928	-12692	11332	-32768	11850	-19704	-1836	10936	5196	-8891	-3532	-9960	6212	12720	-845	6646	-4187	-16108	2780	-1828	1958	9396	1959	-16416	-1112	2328	3024	5862	2153	117	119	1
-32768	5388	10160	-10514	-12397	-32768	-27676	-5668	-20264	17482	-32182	5445	-28840	-588	25908	12041	-12147	-6783	-10500	6552	12924	-1506	8093	-4383	-17384	3084	-1692	847	10886	1982	-17084	-1592	1632	4052	5964	1936	116	112	1
-32768	32400	-4200	4715	284	-24130	-12440	-7220	-22596	4933	-15288	78	-18996	7968	32767	21530	-2717	-6723	-10300	6008	12916	-1921	10041	-5085	-17024	2504	-2500	-380	12422	2351	-16952	1996	1744	5722	5949	1263	113	113	1
-32768	32767	-6692	-4068	4158	-4147	-6680	-17800	-26812	1787	2683	-5036	-16840	12808	32767	20745	-353	-7079	-10368	5544	13304	-2685	12437	-5242	-17164	2928	-2620	-1267	14148	2178	-16524	5420	520	5147	5944	223	126	121	1
-32768	21756	1516	5853	10900	8186	-12380	-11764	-23652	19940	16719	-10718	-23216	13720	18992	11258	2968	8804	-11588	7104	12192	-3595	15245	-6270	-18284	4032	-2152	-1170	15660	2380	-18136	5044	156	4409	5954	-1296	131	125	1
-23772	9140	11012	32767	32073	14528	-19548	-3092	-11448	21121	25935	-12660	-8108	924	-1652	-12292	3238	3916	-12728	7368	11916	-3206	17361	-9403	-18856	3308	-2384	1280	16481	3747	-18116	2688	1772	6089	5455	-1190	126	123	1
32767	-32768	32767	32767	30108	10430	-32120	26248	32767	29625	18499	-15031	8916	-18508	-26260	-13813	12339	-9975	-12008	7948	13308	-2606	20908	-12908	-20932	3364	-2264	5496	17014	3915	-19856	-1132	3408	10195	1171	-2698	114	123	1
-13644	-6604	13048	7708	17207	32767	-16740	-6652	-4084	9513	-8145	6742	-28932	1856	-26740	-9956	24747	3911	-12604	8416	12344	-2215	26760	-16959	-27564	1256	-3500	4041	17171	3659	-23464	-1664	5336	8177	-1849	-1495	113	129	1
-32768	-7904	32268	26713	25708	9190	-15908	-12532	-14260	-919	10917	-16415	-32496	816	20868	32767	-30763	2722	-11912	7080	13568	2444	32767	-23171	-27760	-4808	4208	19609	17856	3617	-23924	-3992	7300	13446	-7045	-5668	108	126	1
-4048	-208	17580	10030	6309	5019	-32060	-1120	-3868	10507	11805	-10703	-29960	10588	2572	12363	14119	-18079	-19980	12688	16144	-601	32767	-28561	-26284	3064	2564	16362	18388	3356	-21944	-9960	10832	-2284	-10081	-9340	117	132	1
-9456	-8916	14276	2480	4939	-374	-10932	1396	-996	3483	11380	-9822	-3312	7136	-7580	-21246	28787	-16150	-31256	10440	14304	2986	32767	-30667	-22888	5444	-4360	12062	19730	4122	-19324	-6604	4024	11294	-9629	-6183	127	132	1
-9588	-9520	13324	2218	2430	170	-16276	-868	472	-695	8136	-7314	-2712	-10124	-17908	-22657	8955	-1088	-28424	4372	16012	9924	32767	-31881	-22508	6704	-3304	12879	21672	4282	-23152	3964	-2572	23808	-14654	-5940	119	137	1
-7692	-7356	13976	1656	779	637	-17408	-92	660	-3043	6397	-6326	-22232	-16232	-3208	11165	767	1518	-21556	18052	14856	13889	24928	-32372	-20952	12688	-2384	5351	18233	2944	-25848	5472	-10564	27276	-17779	-2281	127	148	1
-7524	-7236	12880	1927	1050	735	-18140	116	1208	-7806	6761	-5726	-20992	-3388	-1548	10598	6959	-6172	-14000	15788	10160	1987	18184	-32768	-17284	8452	-4988	-7001	13971	3929	-24368	6536	-14092	13481	-20236	3301	129	115	1
-6940	-6748	12920	1179	1163	587	-17856	-2204	1260	-8922	5958	-4799	-13724	3800	-840	-1009	11369	-6483	-27408	14288	14260	-658	12217	-27009	-12504	7172	-12316	-6287	9890	1576	-22684	8372	-11128	624	-25284	4365	125	119	1
-6728	-9248	11980	158	1080	475	-16192	-3808	1776	-1280	4291	-3926	-13708	296	-940	-10472	11095	-3801	-14400	24996	14276	-2507	-10812	-1099	-11936	7692	-13552	-4617	9187	1341	-20840	5224	-8412	-7971	-25200	4386	121	108	1
-6524	-7160	12736	468	1206	151	-17388	152	2304	719	4098	-3624	-15384	-4584	-2220	-8356	9379	-1754	-8892	16652	9676	-4948	-21842	12527	-6388	3908	-3832	7713	-199	891	-18632	344	-6548	-9991	-22975	2285	128	118	1
-6772	-8176	12200	-34	975	584	-16608	220	3148	-6758	4347	-2924	-19472	-2752	-520	-6155	11623	-4180	-3564	7632	5456	-2256	-27289	17595	-4540	4500	-1728	4798	-5288	394	-16312	12	-6012	-10823	-19609	995	130	124	1
-6760	-7668	12196	684	830	1086	-16608	-880	2636	-11123	4318	-2448	-16380	-1100	-492	-7688	12453	-5209	-476	4616	4188	4187	-26696	17194	-7452	4732	-1304	-2792	-10815	-603	-15104	-380	-4244	-9199	-17058	1075	120	117	1
-6484	-7064	12620	348	880	1359	-17284	-1448	2860	-8584	4379	-2453	-15532	-276	112	-8622	10209	-3761	-3680	7252	5376	8115	-25979	16475	-7968	2440	-2380	-4104	-16149	-1521	-16152	-124	-4904	-7854	-15328	980	128	124	1
-6528	-7148	12504	381	850	1421	-15512	-1192	3196	-5445	4549	-2534	-16388	800	2436	-7529	6849	-3036	-6252	8740	7396	8636	-27971	17250	-8044	2648	-3796	-2887	-20889	-1762	-14432	-376	-6708	-10730	-15159	472	129	133	1
-6584	-7520	12456	251	531	2259	-15552	-1224	3380	-4700	5226	-2486	-15172	976	3756	-6894	6580	-4374	-6816	7924	8280	10699	-29272	20260	-9236	1128	-4564	-2589	-25036	-2214	-14100	-624	-6984	-12671	-15456	171	125	119	1
-7196	-7376	12368	375	344	2799	-15632	-1016	2468	-4845	6142	-2832	-15420	500	3200	-4670	7350	-4500	-6232	6512	8724	14149	-27901	23802	-11556	-104	-4884	-258	-28810	-2592	-13364	-404	-6676	-13108	-15385	479	133	111	1
-7176	-7024	12508	681	350	2874	-15700	-1324	1928	-4553	7144	-2978	-16676	-2496	2144	-2816	5743	-4191	-8060	7716	11052	13952	-24355	25794	-12348	940	-6440	-1447	-32699	-2407	-12396	-972	-6560	-12098	-13504	506	129	120	1
-6844	-7580	12332	585	-2	2832	-16560	-1748	1428	-1941	7463	-3315	-16228	-4956	-948	-2181	4561	-3870	-13160	6428	15416	12454	-24039	27374	-12652	1184	-6680	-1539	-32768	-2386	-10812	-1652	-6472	-7917	-10403	535	135	118	1
-7232	-7212	12360	445	150	3117	-16984	-1380	604	-374	7395	-3394	-16020	-4668	-2140	-719	4460	-2759	-13812	6420	16216	12390	-24234	27474	-15476	1284	-8640	-8793	-32768	-3881	-9420	-2392	-6388	-3272	-6817	325	128	123	1
-7352	-7280	12272	108	332	3619	-17116	-2108	-304	-1463	7303	-3417	-15604	-2960	-2104	-363	5713	-2849	-16016	4976	21516	11767	-25542	27982	-19152	-152	-9324	-7666	-32768	-5917	-9424	-2184	-5192	2415	-4300	333	126	128	1
-7296	-7188	12300	-701	266	3728	-17220	-2080	-768	-1987	7166	-3068	-14620	-1704	-3448	-168	6619	-2805	-18196	5808	23468	13180	-24927	27573	-21620	820	-9700	-7596	-32768	-7076	-8840	-1372	-5644	8379	-124	1769	127	130	1
-7456	-6924	12544	-887	826	3973	-17236	-2116	-796	-2249	7216	-2899	-15384	-2180	-3784	-271	6807	-2292	-23768	9996	27184	12119	-24159	28558	-24968	2188	-11468	-10027	-32768	-9009	-8032	-2264	-4960	10979	4254	2903	128	129	1
-7184	-6956	12632	-1937	1054	4042	-17108	-1632	-736	-2118	7411	-2812	-16012	-3036	-2412	-374	6815	-1707	-29040	5380	28664	10120	-24072	30424	-27340	320	-11284	-6707	-32768	-10845	-9640	1872	-1388	6088	4993	3952	130	127	1
-7440	-6292	12980	-2569	1966	3770	-17456	-1736	-428	-2350	8097	-2626	-17124	-2620	60	-1450	6510	-1405	-32768	840	27700	12190	-24173	27256	-29536	6080	-11552	-1835	-32768	-11439	-15916	5872	6280	-3910	-834	5107	124	128	1
-7472	-6436	12716	-2183	4182	3809	-17480	-1884	-420	-2247	8124	-2576	-17092	-1608	880	-1945	6672	-1208	-32768	-5768	15996	5227	-22613	17663	-27852	5400	-14412	-3889	-32768	-9273	-20028	1728	14464	-4353	-8363	7430	121	127	1
-7720	-7124	13552	-93	7877	5757	-18636	-1116	-232	-1802	9971	-2979	-18092	504	1252	-1741	6685	-1317	-32768	-16852	1696	8239	-21058	11423	-26552	4144	-16152	-3915	-32450	-8738	-23432	1792	21536	-8015	-8217	4609	127	126	1
-7904	-6484	13560	-786	10375	6987	-19080	-548	-984	-385	10784	-3138	-17820	524	1376	-1275	6258	-1102	-32768	-32544	-12272	16743	-14025	-148	-5216	5560	-19872	14842	-9042	1354	-16516	-7452	31052	-9404	1663	-2	123	114	1
-8084	-6136	13900	-74	13757	7324	-19144	-500	-1720	481	12213	-3005	-17988	-1728	1160	-1604	7070	84	-32768	-23972	-11736	4259	-1920	-7416	-5072	10376	-20144	-416	7153	3381	-22888	-10112	22332	-1076	11860	-3372	111	112	1
-9108	-6728	12860	-85	16965	8351	-19160	-464	-1624	581	12461	-2900	-19208	-3668	2344	-2893	7134	1228	-32768	-7140	-2144	-14067	11511	-13154	-13824	7436	-19564	-8748	17205	7019	-17752	-9728	5984	-9133	13065	-1595	91	120	1
-9624	-9244	12208	2260	19715	10319	-20720	-1584	2084	-1832	15290	-2937	-20196	-996	4540	-5516	4873	1271	-3412	12920	25688	-11545	7296	1703	-20704	-8208	5492	-4993	17920	4783	-8296	-5956	-4636	-7961	8186	-470	136	121	1
-11056	-8924	12480	3271	22536	14005	-22172	-968	2252	-5730	16944	-3178	-20764	4172	11020	-8498	262	1650	15952	6556	16916	-9439	24659	-9068	-32768	2232	14428	-25806	7075	6147	-7392	-1524	-19820	8049	10530	2629	133	110	1
-10424	-11756	13604	3343	28040	19466	-28768	1480	7204	-13277	19777	-2829	-26272	4272	19344	-8319	-7334	4915	-32768	-9704	30120	-6515	17659	-15169	-14720	-2620	-15228	-27123	15428	4705	-32768	8788	4512	-15221	-4014	-4491	140	125	1
-11384	-15252	13624	5915	32767	27870	-30124	1252	8752	-14299	20286	-2397	-24704	4700	14472	-2873	-10322	9134	-8940	16904	13484	-9832	5423	-2940	-25084	6308	-468	-2253	14884	10083	-20204	-4548	15488	-32768	-1536	6612	154	148	1
-18644	-19036	19096	1768	32767	32767	-29176	2512	8804	-7867	21666	-4013	-25612	3008	8136	-11625	-8527	6327	-10588	-368	16612	-6079	6177	-6823	-11936	3432	-3180	158	12534	6158	1576	-6912	-8280	18156	30724	18008	130	148	1
-29464	-5240	23920	-8941	32767	32767	-24164	3736	2000	-17794	24712	-480	-22156	-3572	5964	-21850	-13472	6670	-10996	14196	10828	-6418	2375	-4577	-13632	4596	-2640	10689	8545	6068	-5416	3580	-20616	31388	9619	14221	125	117	1
-32768	-24384	23024	-5207	24617	32767	-28488	-16676	1056	-12377	23416	454	-23400	-8688	-7720	-17547	-14287	4112	-7732	3836	14752	-4039	997	-4355	-18960	3800	-2940	12180	6868	4827	-15920	26100	-4308	5096	1445	5	131	152	1
-19048	-19380	18724	-11836	7686	32767	-22140	-5572	5212	3670	17048	-3122	-23956	-4188	-8084	-8865	-15542	-415	-9816	6348	14372	-2409	903	-2466	-17284	7976	-3776	3488	6067	3864	-18372	7240	-4288	-3045	17935	4142	131	148	1
-13452	-24764	16920	167	3970	32767	-15672	388	-2504	5152	8910	-1275	-23204	-636	-6572	-2456	-17489	-1595	-7420	7464	13344	-1095	1429	-849	-16940	2580	-1912	-4454	5334	1132	-16164	-2648	-6316	1251	16704	1389	123	118	1
-27208	-32768	31416	-3265	-12952	14022	-12476	-9120	-7872	-10179	7745	550	-21220	-612	-6604	3021	-19429	-1450	-7676	6452	13264	-767	1578	-1150	-17176	1468	180	5236	4328	1974	-12612	3172	-3160	5	13546	1319	126	125	1
-4624	-32020	6840	854	-29058	-10376	-12468	-2632	4024	-4328	3785	2397	-22412	-2536	-3580	2492	-19660	-2294	-8116	7604	13064	-550	1441	-2445	-15348	4232	1216	16521	3444	2048	-19024	1308	1368	4223	12759	3901	129	133	1
-92	-15588	2672	9547	-27012	-15456	-10460	-3024	2920	2814	-3867	2103	-22292	-5400	-3936	4053	-19118	-4222	-8400	7676	12776	-475	1071	-2825	-16464	6024	2036	15500	3644	1473	-16736	1568	3344	8390	12055	6391	133	117	1
1284	-8624	2036	886	-23375	-18168	-9948	-1288	824	7843	-11052	3428	-18980	-6312	-4788	6515	-19003	-3702	-7996	6828	13072	-25	974	-3015	-15256	3928	2920	8885	4630	949	-15408	-256	3304	6194	11162	7092	125	109	1
-2516	-13840	5112	-9570	-21926	-23619	-11212	-2716	320	10369	-16074	5540	-18552	-6228	-6400	11502	-18543	-3395	-7840	7268	12924	-61	904	-2952	-14732	3232	3172	6886	6104	1224	-16244	-1880	4264	5278	10281	5907	140	110	1
-4180	-17528	5252	-7005	-21079	-29587	-10948	-856	380	12363	-21108	7853	-17688	-5708	-6920	16305	-18407	-2497	-8204	7456	12744	-131	481	-3100	-15596	4200	2360	4053	7274	1646	-18188	1472	3500	6480	7351	4914	149	110	1
-4344	-11900	7132	-5570	-19605	-32768	-11752	-544	-1080	14346	-26130	9082	-15580	-5496	-8808	21388	-17532	-2578	-8084	7436	12872	-247	1023	-3419	-16196	3948	412	2496	8184	1620	-18336	4876	-1232	5724	4394	3178	126	105	1
-7896	-10624	10048	-10799	-19148	-32768	-12540	-1084	-1556	14604	-30386	11673	-12896	-3752	-9148	24857	-16411	-1576	-8276	6860	12900	-481	1241	-3370	-16044	3364	-1168	3130	8681	1804	-17144	5800	-2644	4554	5913	3024	121	113	1
-10452	-12420	12220	-11614	-20960	-32768	-12884	-180	-1872	10869	-32768	12460	-8852	1508	-10256	25096	-13548	360	-8524	6908	12820	-298	1291	-3546	-16400	3628	-1936	2721	8607	1761	-15404	4116	-2832	2985	6087	3230	123	123	1
-12712	-10348	14700	-12225	-22879	-32768	-14980	-860	-3232	9870	-32768	13832	-7348	3552	-10428	21231	-9922	2188	-8404	6472	12940	-438	1892	-3521	-15672	2956	-2080	3693	8794	1875	-13396	1360	-3788	2854	5915	3050	125	119	1
-14612	-12796	17236	-14132	-24216	-32768	-17776	-1148	-4004	8785	-32768	14855	-6044	4424	-10956	15383	-5993	1606	-8540	6476	12900	-505	2288	-3675	-16020	3684	-2608	2340	8783	2088	-14068	508	-3852	3505	5600	2090	127	121	1
-16320	-15064	19364	-14408	-24557	-32768	-21488	-640	-4188	6346	-32768	15840	-6780	3436	-11820	4158	-2423	3151	-8520	5444	13076	30	3201	-3683	-16236	2364	-3972	1648	8785	2094	-14564	1816	-4244	3812	6212	1117	130	125	1
-21216	-19796	22644	-15150	-23282	-32768	-28784	-2840	-4964	4266	-32768	15153	-6080	3344	-11924	-3008	2941	2615	-8512	6044	12984	529	4145	-3417	-16392	2968	-4144	3323	8648	2310	-14684	3064	-4888	3425	7225	1254	127	125	1
-32200	-25420	26596	-15158	-21331	-32768	-32768	-8628	-7260	3964	-32768	16628	-5684	4012	-7100	-1190	4981	320	-8320	5756	13552	1319	5369	-3694	-17552	3568	-3864	1905	8624	2146	-16356	2964	-4320	2870	7232	1487	123	125	1
-32768	-4104	26056	-2146	-6981	-32768	-32768	-6980	-9588	3532	-32768	17630	-11624	156	2072	5459	-974	-2157	-9096	7724	13604	49	8119	-4259	-18140	2540	-2656	3591	9106	2164	-18468	2676	-928	2693	7088	1371	111	120	1
-32768	344	21584	-18816	-20477	-32768	-32768	-14224	-19328	11043	-32768	12638	-24692	-524	19916	7279	-17554	-6001	-9352	6204	13880	-97	10001	-4452	-17136	3432	-1632	2382	10636	2016	-18300	1240	2716	2520	6566	2103	112	118	1
-32768	26708	7172	-12218	-14606	-28679	-21852	-5604	-23900	1246	-24906	10561	-26220	140	30336	7985	-14203	-6878	-9632	7236	13796	-463	12359	-5102	-18488	3200	-1524	734	12288	2373	-18508	-216	3084	3277	6498	1505	120	121	1
-32768	32767	-2084	-7186	-7502	-9325	-11212	-15032	-27868	-8596	-8957	146	-11232	10568	30392	5733	3608	-4467	-9656	5952	13980	-1153	15064	-5782	-17980	2984	-1520	88	14239	2433	-18044	2612	3396	4399	7343	798	123	123	1
-32768	32767	-6628	887	5253	11724	-10848	-13788	-26824	1182	7436	-6327	-16308	10756	21744	10747	16147	-1000	-9988	6364	14004	-1356	15620	-5792	-19408	4060	-1132	-593	16078	2370	-19688	4872	2356	5210	6702	-10	128	122	1
-32768	6988	1040	32438	18200	16831	-14936	-7924	-20492	12830	20707	-10773	-18272	4520	8564	4435	4830	6700	-11044	7948	13252	-1931	21792	-9587	-20612	2932	-1444	874	17361	3229	-20120	2220	3124	6213	5704	-445	127	121	1
32767	-32768	32767	22954	28281	11908	-32768	32767	32767	28992	11052	-7800	-11660	988	-12332	-9107	12339	2279	-11144	8076	14740	-1129	26614	-12653	-23020	2916	-432	4694	18687	3055	-22076	1268	4700	7642	3350	-1007	121	126	1
-32768	11920	23292	6419	29253	21181	-14256	-12084	-16688	15118	2610	-4196	-32260	2396	-3484	-2656	12008	-1855	-11592	9568	13456	367	32767	-17726	-27912	200	-580	4413	19028	3491	-23940	24	8760	8804	-627	-1745	127	122	1
-32256	-9792	32767	18565	32661	13329	-25072	-7312	908	4424	14396	-15935	-19448	-13164	-2044	32767	-11290	-1916	-11160	7788	14976	4310	32767	-24338	-30528	-4792	7420	20249	20130	2110	-26440	-3164	9844	12091	-8354	-6180	125	125	1
-21224	-14760	10200	9026	6126	6342	-23892	-9724	-2052	11778	14026	-7543	-21408	12728	7108	10511	9616	-11126	-19340	12348	11692	1156	32767	-31363	-28084	4520	4076	12678	21142	2591	-22652	-7980	9852	-1751	-12686	-10115	112	127	1
-10932	-4272	19628	9230	4264	2285	-13164	-2636	-688	6241	12369	-11369	-1772	260	-10124	-26762	23251	-15228	-30476	1204	13492	3146	32767	-32768	-23656	4868	-3592	9816	23176	4906	-19840	-4560	5244	8440	-14357	-5752	136	134	1
-9448	-10104	12132	7511	1223	2702	-17716	3856	-1256	458	9711	-7692	-7036	-9684	-15912	-21617	4887	-6084	-29920	18392	14360	14804	32767	-32649	-24080	11600	-2120	14888	23073	241	-22556	8112	-3240	23820	-17719	-5311	122	149	1
-7236	-3984	15328	4161	389	2062	-18036	108	-688	-8614	8781	-6279	-21072	-17060	-5160	3582	5656	-1692	-19996	18596	13088	9082	17974	-32768	-21084	15332	-1688	-7485	18248	4243	-25544	8716	-14464	19244	-16173	-1121	121	140	1
-8108	-8692	12316	2860	571	1129	-17556	-1724	1296	-10999	8288	-5444	-20332	-6400	128	8976	9388	-4155	-18688	24272	15740	-1762	16565	-32768	-14460	5096	-10216	-15918	15592	3139	-24036	3584	-12376	6057	-21744	2320	121	123	1
-6948	-6404	13312	2004	729	664	-17396	-3280	1136	-5362	7580	-4773	-14148	3884	888	2833	12763	-3848	-25964	32767	22416	81	-6108	-9007	-14364	5948	-11552	4985	9713	-560	-24112	3296	-10600	-5226	-25352	2779	127	123	1
-6580	-7508	12712	1171	967	317	-16916	-2640	2364	2923	6466	-4202	-13080	2140	496	-1425	10267	-4769	-9008	21540	11680	-8675	-18400	2724	-9936	4192	-2004	13913	3283	1397	-22936	-1476	-7360	-7510	-27127	27	133	124	1
-6776	-7776	12396	710	906	358	-16832	348	3260	2368	6448	-4141	-15456	-2124	1252	-4289	9368	-2881	-1788	9064	6008	-7961	-22098	5526	-7868	3952	-1816	7489	-2216	1591	-20220	-988	-5592	-5032	-24864	432	142	111	1
-6232	-8236	11940	950	833	541	-15984	708	4028	-3705	6788	-3751	-17620	-2572	848	-5379	9698	-3473	-1388	5088	5664	898	-22188	7756	-7372	4036	-2636	-408	-7332	807	-17552	-424	-4796	-3927	-22078	1387	122	102	1
-6436	-8404	11728	1175	176	1447	-16140	-1228	3596	-9251	6654	-2668	-15984	-1972	392	-7181	11176	-4754	-2544	9256	6388	7723	-22447	10904	-7556	3196	-2852	-5045	-12661	-273	-16096	-408	-5648	-3621	-20079	1216	134	128	1
-6644	-7676	12304	1816	-358	1955	-16700	-1208	1748	-11783	6587	-2321	-14544	-1828	-1044	-10285	12149	-4505	-5572	13924	8372	6659	-25196	15329	-6976	2824	-4076	-6243	-18141	-580	-14796	-964	-6700	-3704	-18398	101	131	119	1
-6648	-6680	12908	899	-279	1539	-17688	-2088	-48	-3525	5585	-3074	-15912	296	-912	-10461	11781	-3455	-4616	9952	8748	5991	-27338	20898	-7168	2736	-3932	-6009	-19096	-675	-13648	-644	-6164	-4231	-17643	-602	121	134	1
-6724	-6340	13132	-258	539	777	-17648	328	600	796	5213	-3191	-15428	2332	-1060	-9173	12035	-2617	-4508	6324	9844	11197	-26128	26901	-9600	-1464	-3868	-4212	-27518	-2318	-12268	-156	-6652	-5931	-16872	-1659	122	105	1
-6364	-7392	12084	-270	723	1404	-15604	48	2348	-4297	5382	-2742	-15180	1064	-1728	-8674	11620	-3362	-6960	7776	12572	12828	-25073	30275	-10352	1128	-4160	-3754	-31993	-3400	-11532	1364	-6868	-8410	-15510	-2323	124	113	1
-7076	-7696	12020	300	116	2850	-16164	-2316	2136	-8513	5758	-2834	-16040	-3608	-840	-8624	9859	-3956	-9896	5560	15880	11060	-27000	29777	-11676	2080	-5464	-7439	-32768	-4331	-10108	2008	-7564	-10097	-12594	-2987	128	116	1
-6996	-7124	12604	203	-154	3153	-16712	-2416	1352	-4974	6117	-2961	-15736	-4780	1848	-2829	9967	-4571	-11928	4024	18932	13209	-29584	28360	-13300	1080	-7092	-9570	-32768	-7289	-8380	2244	-8408	-10413	-8853	-2258	125	122	1
-6988	-7120	12632	231	204	3247	-16716	-2300	1156	-4162	6179	-2968	-15788	-3156	2200	3732	8874	-4343	-16680	7220	22124	14030	-32363	29140	-15748	844	-8512	-8372	-32768	-10058	-7472	2252	-9676	-9292	-5003	-1311	125	126	1
-7048	-6916	12564	-197	317	3610	-16664	-1752	944	-2754	7309	-2800	-16260	-3412	860	1578	7238	-4080	-18020	9416	24532	12252	-32768	30764	-19712	1716	-10036	-8018	-32768	-13038	-7064	1964	-10840	-4212	-724	554	124	128	1
-7132	-6916	12632	-575	396	4066	-16584	-1724	676	-2833	8102	-3153	-16680	-3364	-44	335	5534	-3433	-23748	13164	26792	9765	-32768	32767	-25852	1364	-11864	-7023	-32768	-16211	-6352	1736	-10664	1788	4061	1521	123	131	1
-6828	-7088	12768	-638	1195	4801	-17472	-1992	296	-1535	8716	-3251	-17440	-2492	-412	591	5934	-2750	-32768	7208	30248	8532	-30279	32767	-28856	4092	-14584	-1979	-32768	-16945	-6824	2656	-6512	2322	6924	2784	120	132	1
-7452	-6876	13228	-2464	1563	5558	-18020	-1044	8	-1722	9599	-3192	-17824	-2384	-388	572	6092	-2641	-32768	4092	28804	10234	-32768	31702	-32768	14476	-15312	2373	-32768	-16406	-11804	4128	5540	310	1774	5616	99	135	1
-6712	-6284	13516	-3489	3024	5351	-17372	-440	248	-2568	10901	-3252	-16880	904	2360	-2622	7046	-2215	-32768	-6724	11664	6520	-32768	20117	-29952	10368	-19416	-6008	-32768	-11387	-25432	1260	19844	4068	-12822	8720	135	125	1
-7448	-6264	13860	595	8874	7340	-18616	-832	-8	-1361	12392	-3897	-17512	3544	3040	-3465	5817	-1902	-32768	-26108	-11252	11788	-24341	9705	-14288	4356	-25744	4933	-24626	-5426	-27448	5348	28080	-12500	614	3752	135	121	1
-7872	-7260	13728	227	12210	7730	-18816	240	-560	-460	14130	-4121	-17348	3604	3096	-3585	5671	-1797	-32768	-32768	-21508	17335	-9273	-299	572	11464	-26172	17937	-3481	4013	-17420	-17120	32767	-18358	7736	1367	130	115	1
-8232	-6508	14748	812	15205	8110	-18532	-728	-1096	358	16148	-4236	-16888	-3416	3260	-5488	7197	1107	-32768	-23160	-15368	-2951	4769	-9315	-4976	16260	-24944	-8735	15653	5706	-24572	-23480	15080	-14082	13722	-4751	130	122	1
-8792	-8068	13436	1665	18447	9643	-20312	-1496	768	1236	17897	-4223	-18264	-5208	2936	-5497	5982	2195	-32768	-4148	-52	-7958	11914	-9383	-14216	7628	-21752	-10995	26132	9543	-11456	-8204	3788	2658	-695	-4882	129	122	1
-10060	-9772	13136	3567	21000	13525	-22904	-1716	968	-1493	18847	-4594	-19776	996	6012	-8292	1764	1869	-14236	16968	21196	-18903	22936	-838	-22204	-404	-2436	-8023	26411	10257	-3564	-5556	-2812	-10494	4920	-2287	129	125	1
-10956	-7456	13240	3611	26058	19328	-26496	3484	3004	-10985	21089	-6130	-21936	6652	15364	-11908	-4940	4382	32767	32767	32767	-15014	18195	-1823	-32768	-22260	32767	-20209	1971	-407	10604	18032	-32768	26448	20586	13553	135	118	1
-10948	-16708	15020	7544	32767	25729	-32768	4488	10856	-20955	24446	-3218	-21284	12080	19728	52	-8504	8552	-32768	-18600	32767	-21864	32767	-32768	-16588	5756	-27548	-32768	13710	9044	-32768	23704	32767	-32768	-32768	12194	137	146	1
-13604	-14612	16572	7070	32767	32767	-32524	4096	10496	-13003	24146	-4946	-29576	4948	11196	-15209	-8621	9136	1132	-18604	20892	-14833	-3261	-4060	-30348	-5924	-6108	-10192	17096	13401	-30044	-20840	7336	-32768	18773	16808	132	141	1
-24528	900	26808	-3771	32767	32767	-28608	3848	5660	-19770	25898	-2318	-27320	-9096	6680	-25647	-12409	8808	-11128	13104	10028	-617	7554	-7171	-8504	276	-5088	11849	12504	9617	5748	-22648	-13640	31858	19496	15370	141	129	1
-32768	-26584	30556	17	32426	32767	-30560	-19208	2088	-14760	24974	3098	-26092	-14432	-5416	-19064	-13730	3322	-7276	3844	14448	-1230	2157	-4947	-15308	8652	-2448	22760	9508	8719	3104	9672	-14168	32767	3786	5141	130	129	1
-21168	-20984	22092	-9165	11594	32767	-23356	-8344	4824	2881	18180	-2889	-27164	-7036	-10728	-7681	-16257	532	-9812	8916	12664	-1025	1620	-3786	-18016	9076	-3464	4613	9120	5687	-24556	32767	-3184	3202	-2562	-5671	124	138	1
-13404	-17308	16024	3465	7802	32767	-16016	-680	-2028	2539	9683	255	-26068	1536	-8976	3238	-18616	-1251	-9632	7404	12620	-456	2563	-2221	-18228	4488	-3660	3628	8840	3389	-26996	11204	-2776	-10140	17317	12337	131	121	1
-30904	-29184	30568	-3592	-10386	26576	-12664	-9412	-11596	-7889	6342	1209	-22588	1872	-6572	4760	-20653	-588	-7992	7092	13204	48	2884	-2217	-16808	4964	-1192	3102	7644	3287	-13148	-5836	-3992	1923	12424	1726	124	136	1
-6480	-30556	8320	-5380	-28700	-3718	-10180	-1708	-728	-8936	3787	2587	-24160	-72	-5160	1229	-19662	-532	-8872	7256	12832	134	2759	-3087	-15208	5716	-1668	4999	6663	2786	-12880	3456	-40	6708	9756	2471	132	140	1
-1184	-18188	124	4853	-28640	-13778	-9808	-1692	2044	-6557	-2521	3360	-22664	-2812	-5436	743	-20095	-3366	-8796	6352	12872	14	2829	-3082	-16880	4016	-2520	5792	5886	2745	-19484	5040	-2128	7435	12724	3421	126	134	1
2552	-8168	-1928	1540	-22630	-15862	-7860	-2484	384	526	-10579	4410	-17916	-6452	-6504	4777	-18451	-3789	-8484	5864	13652	321	3379	-2856	-17140	4216	-2928	5453	5332	2188	-17940	-736	-3464	10203	14512	5578	132	108	1
-1436	-9044	1400	-10860	-18346	-19466	-8496	-3720	-864	5429	-16970	4505	-17256	-5804	-7840	9328	-16789	-4057	-8600	6164	12804	373	3766	-2758	-15788	3556	-3048	4719	4873	2027	-14312	-1028	-1380	14091	13637	6803	132	63	1
-6568	-18752	5544	-13459	-18463	-27125	-8060	-4080	-1328	10185	-21732	5162	-16300	-3960	-7948	13690	-16778	-3528	-9580	6772	12260	654	3336	-2464	-15304	4512	-2356	7300	4403	2100	-13432	384	-2264	14736	12401	5159	132	131	1
-7332	-17692	6068	-7855	-20914	-32768	-9748	-2940	-48	12337	-25944	5944	-14204	-3320	-7832	15956	-16373	-3825	-9348	6660	12296	828	2417	-2786	-14868	5136	-2272	7842	4123	1952	-13672	3740	-3528	13609	11040	3447	136	109	1
-5720	-9640	5988	-9119	-20114	-32768	-11316	-2520	-96	16752	-30984	6813	-12388	-5500	-9160	20153	-15895	-3479	-9548	6324	12116	1021	2071	-2835	-15280	4548	-2312	6411	4256	1702	-15064	6308	-2668	8325	11670	3040	139	109	1
-8664	-10252	9592	-14231	-18519	-32768	-11740	-1620	-1980	17485	-32768	9256	-9780	-4648	-10892	25690	-13410	-2999	-8900	5956	12524	699	2446	-2737	-15712	3824	-2532	5304	4520	1692	-16512	4624	-1872	1627	11759	3976	124	114	1
-14192	-14312	13576	-14151	-20287	-32768	-12872	-1104	-2740	16219	-32768	10599	-6096	248	-11668	29108	-9708	-1295	-9092	5944	12724	248	3396	-2957	-15840	3624	-2352	4173	4976	1818	-16848	2892	-2144	-1284	8476	3911	127	122	1
-14912	-12576	15096	-12948	-22011	-32768	-15524	-1708	-3632	15601	-32768	12544	-3328	2044	-12228	24243	-4785	-2863	-9432	5972	12408	539	3870	-3079	-15952	3144	-2788	4546	5283	1947	-16096	2392	-2756	-51	5974	2715	126	124	1
-16900	-14300	18332	-13812	-22117	-32768	-19876	-1276	-4184	13944	-32768	15103	-5396	3752	-12656	9638	-2584	2808	-9656	5972	12284	720	4409	-3018	-15792	3216	-3212	4287	5658	2139	-15424	2092	-2012	312	6302	2181	129	126	1
-21172	-19740	24648	-14402	-22051	-32768	-28348	-1752	-4020	8706	-32768	16225	-6616	2912	-13240	-3140	2743	2835	-9792	5568	12216	1052	5158	-2885	-15968	3032	-3240	3686	5949	1993	-15116	512	-2436	1425	7851	2008	128	130	1
-32768	-24744	30756	-13845	-22640	-32768	-32768	-5228	-5156	4000	-32768	19989	-8052	1680	-8732	-4680	5139	-321	-10120	6344	12564	994	6533	-2828	-17376	3928	-2520	3975	6634	1908	-17784	1408	-2008	2452	7864	1589	120	125	1
-32768	-11104	28688	-14080	-23745	-32768	-32768	-10188	-7844	-1119	-32768	17291	-11124	-16	668	5375	113	-5560	-10096	7420	12772	741	8383	-3610	-18564	3920	-800	4501	7776	2183	-20760	2084	1800	3484	7234	1773	106	121	1
-32768	880	21876	-18238	-24956	-32768	-32768	-18548	-14292	8887	-32768	12954	-26624	-984	13860	9993	-17236	-8951	-10136	6884	12632	717	9988	-4653	-16672	3944	856	5079	9876	2786	-19112	1384	7244	4215	6613	2799	112	115	1
-32768	19576	8784	-15533	-17205	-22653	-29304	-1736	-30492	3912	-32494	4217	-27732	1472	32767	5154	-13981	-8220	-10816	8360	12984	-40	12409	-5716	-18252	3724	484	2831	12319	2974	-18504	-1040	6320	5259	5983	2673	123	114	1
-32768	32767	-180	-14877	-6855	-11287	-9596	-11236	-31440	-13233	-11793	812	-13040	17888	32767	11992	-1824	-3104	-11120	5940	13236	-1011	15412	-6695	-17640	2620	-416	506	14903	3187	-18480	-1064	5796	5347	5926	2209	124	122	1
-32768	32767	-2924	-632	1480	3916	-7572	-15512	-32144	-11797	-8358	-244	-16032	12764	26884	11671	14767	-2040	-11156	6024	12664	-1106	19270	-7734	-18748	3300	-696	-703	17140	3109	-19488	5800	3084	6795	6145	260	130	124	1
-30716	9444	-5748	32767	25565	19689	-13712	-10492	-22560	20600	21660	-11860	-20684	2608	9916	1880	3288	8193	-11740	8040	11844	-142	23730	-10219	-20944	1824	-640	496	18416	4424	-19724	844	2928	6647	4042	-482	130	124	1
14516	-18504	20084	28913	25398	3123	-26036	11076	22396	24726	24737	-12565	-7816	-2648	-11956	-8462	10569	3014	-11768	6928	12700	2694	29107	-14368	-22492	-184	-36	5725	19300	5641	-19880	-3168	5992	11325	1787	-1373	122	118	1
32767	-6648	8272	7985	24456	27272	-32768	31724	24076	18198	-1368	1886	-980	-8284	-29304	-9045	18460	-10921	-11368	8508	12916	4770	32767	-19402	-28456	-880	-608	6533	19498	5095	-24388	-5452	10100	12524	-2873	-2710	134	122	1
-32768	21048	13608	11675	32767	19582	-14712	-11696	-22932	3660	12095	-14700	-32768	-400	18732	32767	-19709	5557	-14088	5380	14164	13504	32767	-24531	-32768	-12604	8424	29170	19889	3786	-25624	-7416	9156	16621	-12548	-8207	119	123	1
-9596	-24100	13336	9676	9983	6207	-32768	-10104	-2780	9332	14854	-14929	-32768	15132	5356	8312	9853	-6660	-28688	16244	7992	9856	32767	-31639	-24080	10856	-1484	25426	20429	3536	-20600	-11420	5336	10158	-12140	-9430	120	131	1
-11780	-5736	19960	8204	5955	-64	-11972	-736	-112	8896	14124	-11713	864	1384	-7468	-28800	25916	-21700	-32768	7528	16044	14818	32767	-31859	-25532	15836	-2120	4492	25069	5056	-22660	9460	2584	19639	-14869	-3398	132	132	1
-10912	-9060	13676	7323	1196	2667	-16204	940	-1752	-2524	11744	-8169	-5200	-14676	-21764	-31753	5722	-6395	-28696	20728	22476	22405	26538	-32768	-26772	10792	-24	1941	20765	2590	-28776	14776	-10368	32083	-14084	-3008	117	154	1
-7392	-6520	14248	3906	20	1626	-18236	-2088	-452	-8131	8846	-6231	-18304	-27112	-6100	12073	2456	3276	-17904	19032	13376	14014	15636	-32768	-18816	10484	-4420	-9765	16202	4909	-28232	7112	-17952	15154	-18937	1863	126	136	1
-8000	-7424	13380	2922	161	865	-18996	-2612	-264	-7470	8345	-5424	-24488	-5832	-3160	19073	9764	-3879	-32768	29284	23644	5552	2202	-28802	-15848	8148	-15216	-4446	11580	2210	-26036	3476	-12256	-3142	-27440	3115	108	136	1
-6820	-6776	13328	1658	675	376	-18112	-2328	360	-3004	7085	-4637	-14988	8272	-2608	7033	13437	-7225	-14192	27816	14012	-3253	-21538	-5834	-11984	4156	-7668	11618	5031	1251	-24360	1692	-7236	-9081	-28156	1971	130	118	1
-6128	-7660	12452	575	865	305	-17388	-2512	1712	3452	5025	-3967	-14516	9072	-2984	5148	13465	-7263	-5216	15408	7432	-6376	-29851	4077	-7220	2900	-2812	16498	-1204	1360	-21764	-3152	-6940	-6377	-27499	1684	142	125	1
-6388	-7584	12812	-127	1010	633	-17232	1472	2224	-1323	4546	-3609	-15220	-1652	-3536	-7578	12514	-1262	-720	6872	3600	-1796	-30862	8235	-4784	4120	-1512	9591	-6716	802	-17280	-2064	-6508	-6461	-23025	2237	147	111	1
-6636	-7616	12380	-598	740	1703	-16704	764	3224	-9501	4315	-2482	-20048	-1372	-1268	-9478	13777	-4508	-40	6124	3104	5894	-28973	10706	-5652	3488	-1884	-1706	-12241	-100	-13628	916	-5888	-7041	-19782	1087	122	41	1
-7712	-7624	12096	16	642	2675	-16920	-2108	1788	-16170	4616	-2086	-16144	-660	1100	-15763	14093	-5262	-2240	10224	4696	9129	-27679	13903	-6316	1788	-2520	-5128	-17461	-817	-12596	-968	-6300	-5406	-16667	223	126	111	1
-6820	-6680	12956	-67	1034	2603	-17144	-2424	1912	-7680	4059	-2409	-14244	-960	-48	-14791	14405	-4004	-3028	11728	6164	7750	-27045	18385	-7600	948	-2572	-5459	-22339	-1344	-11868	-1452	-6356	-5303	-15807	-857	121	140	1
-7116	-6876	12384	-55	1105	2664	-15256	200	2928	-6715	4800	-1769	-16200	-44	728	-10163	9946	-3947	-4256	8628	8452	7971	-25740	24319	-8116	116	-3644	-6473	-26543	-2195	-11516	-216	-6740	-6511	-14795	-684	123	130	1
-7084	-7472	12228	-479	550	2632	-14804	-2280	3304	-7936	5770	-2095	-14272	524	3468	-7684	8301	-5327	-5668	7528	10912	10600	-24713	29774	-9600	580	-4104	-7018	-30439	-3641	-11680	1700	-7880	-9669	-13405	-700	127	110	1
-7040	-7824	11984	607	6	3582	-16028	-2484	3064	-5812	6305	-2454	-15488	-2440	5176	-2273	9647	-4681	-8820	7912	14412	10385	-24683	32538	-11124	1460	-4896	-9960	-32768	-4912	-10048	3008	-8744	-12435	-11884	-1377	125	117	1
-7068	-7036	12508	706	-464	3455	-15888	-860	1376	-3301	6964	-2613	-17344	-6264	-120	-3277	7797	-5904	-13228	7440	18648	8985	-27418	32767	-12908	1828	-6832	-11904	-32768	-7406	-8428	2848	-9772	-15474	-9114	-1260	128	120	1
-13824	-8932	14024	2486	-816	3932	-21916	3428	4136	-4874	3405	4364	-17136	-3536	-2212	-1441	2303	-6499	-15452	6272	22460	9638	-30638	32767	-15612	968	-8100	-13854	-32768	-10567	-8104	2176	-11124	-15719	-5723	-1027	129	126	1
-6356	-7044	12460	758	222	2993	-15716	-2864	160	-2509	8372	-4592	-15196	-2092	468	-315	4692	-3614	-19700	10308	24700	10774	-32712	32767	-19504	2076	-10256	-11938	-32768	-14081	-8076	1264	-11884	-10424	-2323	888	123	129	1
-6980	-6864	12680	-948	2	3698	-15420	-1896	84	-2365	8381	-4394	-15188	-1844	-508	-1573	7015	-2216	-25064	14532	26892	7664	-32768	32767	-25856	2432	-11444	-8894	-32768	-17131	-8272	316	-11552	-1321	3107	1497	121	131	1
-7572	-6640	12804	-1198	614	4213	-16924	-2196	868	-2248	9417	-3675	-16084	-2636	-1012	-1602	8394	-2342	-32768	11188	27888	4300	-31248	32767	-29388	3928	-13380	-5715	-32768	-17718	-8604	2344	-6344	2580	5475	2519	104	136	1
-7508	-6820	13024	-2392	1502	4870	-17672	-1424	744	-1323	10270	-3193	-18208	-3160	1276	-1350	7505	-1664	-32768	9556	25276	4879	-30825	32767	-32768	14560	-15152	-1994	-32768	-17246	-13484	3944	3096	-1360	149	5237	76	129	1
-7476	-6612	13116	1166	6360	6679	-18104	-216	400	-2219	11612	-3666	-17992	-1452	3844	-2291	7236	-1614	-32768	-1252	10944	2033	-32768	24633	-30352	10152	-20160	-9909	-32768	-10621	-26036	1836	15360	-115	-12031	9159	132	122	1
-7652	-7080	13580	227	9266	6700	-18300	-1068	204	-870	13288	-4142	-16984	2792	3408	-2048	6430	-1950	-32768	-24460	-5876	12671	-24689	13202	-16240	5040	-24280	2763	-25750	-5542	-26612	2364	31084	-19013	-900	740	131	117	1
-8080	-6400	13940	-64	12440	7482	-18788	0	-616	154	14972	-4402	-16616	2800	3332	-2630	6511	-1406	-32768	-32500	-17728	17550	-10621	2573	-592	11756	-26220	17843	-5757	2965	-20204	-27952	32767	-23423	7119	1828	128	119	1
-7968	-5928	14156	825	15719	8010	-18948	-260	-1220	1641	16811	-4547	-17280	-3044	3544	-4019	7819	945	-32768	-22980	-17736	-3764	7383	-8620	-5612	14444	-24900	-6397	13048	7444	-22136	-23924	13672	-3644	9311	-4734	128	120	1
-8760	-8184	13912	2431	19262	9390	-20804	-1204	1076	1828	18710	-4531	-18764	-4708	3424	-4885	6311	2558	-26632	-8080	6652	-20844	13645	-7933	-15864	-944	-6808	-17954	23391	8233	-13872	-6272	2956	13120	-305	-6080	128	126	1
-9996	-9580	13056	4342	22661	13561	-23888	-248	1980	-2212	20128	-5810	-20392	1140	7304	-7767	2089	1954	26468	19940	23764	-7221	29538	-7045	-32768	-8920	20756	-20917	10405	7720	-13028	-1256	-11412	9151	5580	-1142	131	117	1
-10316	-9016	16392	5601	28829	19767	-31128	1364	5420	-8626	22521	-5572	-26412	1764	18372	-9961	-7164	4357	-32768	-14184	28808	-8041	26201	-16148	-10772	876	-18960	-28820	21075	7496	-24856	12356	1528	-32221	-7049	1794	139	122	1
-13720	-17520	15148	8670	32767	30888	-32768	3032	16056	-17987	24867	-2062	-25788	4872	14100	3494	-10004	7437	-8684	15292	13084	-12786	9145	-8487	-24628	8240	-4052	-8437	17383	13624	-24176	12328	-660	-15956	5574	17288	133	139	1
-15848	-21796	11492	8434	32767	32767	-31504	2980	9244	-11039	22959	-6848	-28072	11272	9760	-6358	-10539	8435	-17028	3588	17396	-9069	5073	-11474	-11492	8688	-7804	112	13941	8475	-8028	-7416	-13588	15978	15853	15678	134	111	1
-30852	-9788	26260	-9034	32767	32767	-25732	3416	3632	-24913	25267	-2256	-21216	428	3388	-27558	-14645	8127	-12516	8408	12892	-7503	-1500	-5742	-16512	248	-6176	15802	10597	7764	-1676	4932	-13724	21161	6829	9231	125	116	1
-32768	-25060	25300	-7637	26936	32767	-28544	-16404	2040	-15688	22837	-167	-24264	-6844	-9756	-24758	-15284	4956	-7552	8552	13184	-3106	851	-5492	-18824	3620	-4436	19880	7605	5889	-5596	11392	-14528	20338	5085	6063	134	139	1
-17448	-18592	15900	-11657	12115	32767	-21368	-4872	4404	-415	14707	-4492	-27028	-2616	-10208	-14444	-16969	-512	-8704	3104	15192	-1503	719	-2497	-16900	8468	-4328	4665	7986	4627	-21908	4124	-5256	-9841	13621	4467	132	153	1
-20960	-32768	19288	-5282	-5520	32767	-13692	-3724	-10784	-2331	8196	-2756	-24412	1712	-9040	-4627	-18718	-2190	-8708	6124	13364	-704	1197	-584	-16620	4500	-3072	-5448	7672	1939	-13604	-3132	-2312	-3661	12553	1742	129	139	1
-15484	-32768	23044	-7664	-25309	2076	-11764	-4812	-3856	-16170	7998	10	-22592	2868	-6292	1052	-19869	-2032	-8224	6892	13096	-274	1508	-512	-16996	1584	-1436	-72	6126	1903	-13636	1684	-2292	2625	15004	2886	126	148	1
1816	-21488	-1772	923	-25870	-10466	-10960	-820	3588	-7227	673	-963	-23392	-220	-4200	-2255	-21785	-2125	-7872	7796	12932	133	1540	-1815	-15696	1468	316	11837	4664	2264	-16752	3160	-2108	4444	13289	4247	123	143	1
5368	-9792	-2312	1134	-18426	-11603	-9548	120	984	759	-8059	-1419	-20808	-3116	-6104	107	-19856	-3964	-8496	6884	12916	315	1468	-2920	-16764	4784	-1032	16670	4158	2965	-18472	1396	588	9144	12840	6196	139	108	1
2396	-8252	2264	-10951	-11184	-15670	-8884	-912	-1552	5554	-14777	-546	-18440	-2892	-7004	3776	-18802	-2392	-8268	6532	13132	369	1684	-2354	-16152	6296	-1116	6487	4402	1946	-14668	600	1172	15026	13821	5911	132	63	1
-3388	-17628	7372	-15481	-10646	-23650	-8636	-276	-1112	8291	-19512	909	-16260	-1912	-6856	7784	-18768	-1625	-8452	6400	12940	399	1670	-2073	-15876	2644	-844	3165	4731	857	-14604	1220	1104	14756	12824	3415	140	112	1
-4756	-15144	9884	-10340	-13394	-30491	-9416	-216	-580	9906	-24112	1245	-14668	-1580	-6936	10858	-18816	-1776	-8816	6756	12624	386	1648	-2185	-15500	3476	-300	7716	4966	1347	-14720	1232	776	10940	12828	3499	141	124	1
-3160	-7108	11352	-12686	-15443	-32768	-10080	1268	-1096	11916	-28698	2340	-13184	-2724	-7476	11323	-17845	-1348	-8640	7060	12592	264	977	-2757	-15636	4376	-296	7479	5410	1844	-15408	1036	-88	8276	12764	4322	127	113	1
-4864	-7700	14368	-17238	-17228	-32768	-12068	1684	-1544	12910	-32768	4837	-10436	-2136	-8388	14155	-16163	-109	-8680	6116	12956	-5	894	-3109	-15352	2436	-1032	6031	6114	1934	-15644	1324	-432	5607	12344	3761	136	110	1
-8324	-10084	18256	-16508	-21225	-32768	-12380	3472	-2876	10039	-32768	7258	-8308	-744	-9140	17091	-13332	2003	-8248	5836	12924	-41	1057	-2663	-14844	2668	-1580	4918	7051	2023	-17120	3388	-1124	2943	8725	3500	122	117	1
-9004	-7812	20376	-17672	-24255	-32768	-15100	4048	-3556	7321	-32768	10540	-7136	-16	-9752	18431	-10356	1986	-8572	5908	13052	31	1405	-2516	-15864	3304	-2292	2545	7602	1957	-15320	3088	-4412	1419	4924	3002	122	132	1
-10688	-10076	21888	-18304	-25315	-32768	-17420	3004	-4520	5761	-32768	13784	-6364	864	-10540	18112	-6976	1317	-8776	6684	12812	15	2039	-2649	-16692	4092	-3192	1670	7641	1685	-16008	3208	-3836	442	6003	1672	128	124	1
-13400	-13016	24708	-16730	-25375	-32768	-21320	1708	-5520	5794	-32768	15775	-6916	-572	-11404	9541	-3578	2450	-9096	6520	12992	311	2900	-3122	-17140	3320	-4216	2614	7264	1585	-15652	4896	-3820	1382	8841	1609	132	128	1
-18336	-19648	27692	-14611	-24027	-32768	-29756	1140	-5864	6304	-32768	17653	-6328	-484	-11104	166	2542	1420	-9088	6244	13172	891	3838	-3408	-16980	4188	-3340	4464	7175	1546	-16060	4916	-5612	1541	9303	1748	128	129	1
-29020	-17928	31248	-10630	-19992	-32768	-32768	524	-7872	4136	-32768	21636	-6552	-1440	-5856	-1047	5262	-1071	-9012	7124	13652	642	5852	-4351	-17972	3708	-2540	3208	7599	1147	-18796	2840	-3392	805	7174	1326	123	128	1
-32768	524	32767	-17160	-21294	-32768	-32768	-16564	-14400	2873	-32768	20922	-10224	-2312	2436	7993	-2035	-2694	-9624	6460	14028	-327	8341	-4933	-17684	2724	-1492	3399	8837	1393	-19156	1552	2992	1938	7075	1276	117	124	1
-32768	-6060	31504	18746	-14877	-32768	-32768	-17500	-20972	23030	-32768	15703	-12432	-2860	6576	8881	-4580	-3360	-9320	7104	13884	-976	10410	-5223	-18200	2892	-940	2320	10639	1497	-19332	-1576	4780	3574	6901	2074	115	109	1
-32768	24288	-6456	-14197	-19608	-26806	-21528	-11192	-29148	6876	-22400	5223	-26644	2756	32348	17468	-3259	-6161	-9824	6412	14180	-1428	13039	-6353	-18852	2472	-768	1956	12746	1973	-18740	-3068	4088	5033	6120	1378	131	117	1
-32768	32767	-11956	-7809	3386	-11351	-10484	-12400	-26720	-1660	-4129	718	-10760	24360	30900	23624	13417	2926	-9576	6680	14792	-2723	16064	-7112	-18744	2488	-624	-204	15124	1711	-18480	3460	4832	6191	6892	620	124	122	1
-32768	30048	-3252	7829	9860	6061	-11968	-21444	-24168	7330	11792	-9248	-22800	20848	21548	21556	14855	3304	-11120	6408	14356	-3669	20141	-8791	-20228	2320	-568	-1515	17423	1556	-20524	6336	4024	6109	6450	-695	125	122	1
2832	-2476	13596	23129	24348	13620	-20720	-516	19464	32767	20744	-14676	-21168	4328	1404	-6764	1687	7681	-11384	7372	13712	-3391	24940	-11865	-20616	2200	-408	-1443	17754	1646	-21024	5192	4560	5273	5342	-1906	114	120	1
-9192	-26584	23080	559	24815	26359	-32768	16460	4556	21171	3060	721	-27764	6908	-7972	-9014	6737	196	-11364	9848	14292	-3881	30370	-15991	-26300	2988	964	-440	20191	2332	-25076	2688	5872	4537	3368	-2868	111	129	1
-29912	7320	18128	18210	29650	14096	-16100	-1204	-16900	-3955	15824	-17253	-19196	-4288	4440	32767	-5271	-7093	-11080	8664	13768	-531	32767	-23584	-29472	-3620	2064	5234	19757	3230	-25604	-192	12000	7471	-6334	-4354	125	130	1
-9860	-19900	10036	4432	8507	6421	-26432	-8168	-1400	5561	16837	-14330	-6808	-4456	-1828	-1339	8859	-10331	-17616	16916	15580	619	32767	-29915	-30308	-5016	3108	8667	19910	3003	-25040	-6812	6180	13066	-11519	-9132	132	129	1
-8952	-10588	16072	9276	4562	3771	-11416	-896	-1028	5867	12778	-10700	-10880	-2520	-12924	-21060	15201	-10775	-32768	11320	16360	-2738	32767	-32768	-24060	8660	-4216	8906	21514	5123	-18676	-11112	5668	-3253	-14017	-8503	114	129	1
-11540	-8264	13212	6194	519	2805	-18592	-3452	-3916	807	10358	-9184	-8800	-7472	-11316	-17770	5839	-7394	-24252	4288	14740	13481	32767	-32768	-21488	5252	-1196	14678	23843	3205	-19620	188	-552	17754	-18600	-5715	127	144	1
-7544	-5480	15096	4411	529	1640	-19976	1656	-1120	-5486	8549	-6129	-18168	-18064	-8500	2067	9668	-3030	-28868	24628	18092	15739	23529	-32768	-21500	14352	-1904	6057	18840	2987	-25316	8828	-9640	30515	-13872	-1883	111	142	1
-7548	-8928	12408	2471	576	348	-16776	-2160	1572	-7235	7578	-5529	-24104	-6052	-4632	14097	9052	-5475	-16896	22608	14840	46	19252	-32768	-15996	7784	-7208	-12025	15961	5663	-24192	5196	-14644	17795	-17379	2836	111	142	1
-6672	-7232	13176	1939	452	433	-17120	-860	1820	-4021	6748	-5406	-14464	3988	2000	8986	9536	-5713	-31584	26944	25120	34	1593	-15316	-14108	7248	-13584	762	11888	1744	-22872	3540	-12788	2050	-22686	4563	122	116	1
-6868	-6632	13000	1164	861	170	-17256	-1304	1068	-1936	6256	-4813	-13448	5496	1004	1175	8325	-4675	-29620	32767	24056	-1542	-3192	-10760	-12152	3516	-3512	11879	5600	1870	-22956	2560	-8692	-6549	-26342	2112	131	127	1
-6196	-7376	12672	620	1184	400	-17004	16	2388	-1267	5866	-4235	-15648	408	764	-6365	9012	-2021	-2624	10236	7104	-7323	-18433	9548	-7836	3284	-2548	7514	-340	2378	-20948	-752	-5180	-4570	-24770	1522	128	108	1
-6544	-7720	12228	351	1061	697	-16652	-532	2824	-4425	5654	-3864	-16608	-2124	412	-8066	9409	-3180	-604	5620	6092	1950	-19199	12994	-5920	4936	-2188	1267	-5591	1262	-17784	16	-7140	-3947	-21489	2640	131	103	1
-6400	-8244	11968	358	881	879	-16056	-388	2972	-9357	6039	-3473	-16576	-2336	868	-9136	10037	-5198	-1224	8300	5956	8680	-20072	14394	-7040	4488	-2288	-4531	-11368	753	-15712	808	-6536	-4638	-18426	2842	135	102	1
-7072	-8120	11884	471	691	962	-16500	-2324	2208	-10530	5898	-2578	-14984	-1976	412	-12535	11365	-5183	-3864	10960	7964	8439	-22094	16074	-6676	2360	-3112	-8443	-17006	199	-14884	-72	-6816	-5474	-17235	1510	126	119	1
-6332	-7520	12628	791	364	1117	-17316	-1816	1420	-6440	5203	-3105	-15448	-1364	-1008	-14816	12292	-3973	-5060	10036	9792	6916	-25016	20421	-7928	1520	-4184	-8865	-22019	-1066	-13988	44	-6604	-6120	-17017	929	129	140	1
-6780	-6644	12720	-58	532	984	-17276	-620	612	-1295	4598	-3311	-16088	-592	-16	-13075	12367	-2625	-5072	7268	10392	9582	-25799	26150	-9128	-1180	-4136	-5178	-26100	-2774	-12348	1396	-6988	-8503	-16038	909	126	131	1
-6180	-6764	12652	-146	1007	946	-16308	328	1996	-3120	4905	-2752	-15304	768	-344	-9470	11348	-2537	-6644	7304	11488	11535	-25845	29478	-9704	268	-4320	-4062	-30156	-3531	-11900	1452	-8004	-12214	-14838	703	125	126	1
-7012	-7692	12220	-103	828	2168	-16064	-1544	2636	-6848	5302	-2604	-16412	-1516	432	-8572	9605	-2721	-9908	5940	14480	10743	-26738	29580	-12016	864	-5664	-6440	-32768	-4111	-10156	148	-8140	-15214	-12942	-491	123	122	1
-7120	-7668	12432	84	169	3267	-16152	-2180	2036	-7440	6026	-2672	-15940	-4764	1652	-6365	9368	-3314	-12776	3516	17228	12834	-28593	28795	-13760	180	-7012	-6308	-32768	-5188	-9208	-828	-8264	-15361	-10207	-978	125	115	1
-6600	-7004	12840	472	-16	3789	-16420	-2344	1144	-3511	6334	-3123	-15396	-3484	1856	17	10445	-3975	-15364	5848	19904	14781	-30268	28549	-15144	780	-8164	-8129	-32768	-6612	-8260	-736	-8440	-12706	-7121	-703	125	120	1
-7060	-6956	12748	-301	86	3743	-16772	-936	800	-1585	6770	-3250	-15636	-2184	1792	4532	9467	-3964	-17408	8740	23204	12767	-31230	30088	-19208	296	-9132	-8753	-32768	-8954	-7868	-12	-8128	-7159	-3378	694	125	124	1
-6968	-6868	12596	-348	360	4102	-16616	-1668	332	-2672	7398	-3252	-16320	-2744	68	1159	7567	-3491	-20152	11252	25596	10951	-30614	32533	-24140	1668	-10012	-8095	-32768	-11612	-7320	-780	-7896	-686	382	1477	119	129	1
-7220	-7052	12848	-709	887	4327	-16788	-1620	76	-2424	7891	-3446	-16156	-2052	-1040	779	5859	-3714	-25812	12108	27360	7876	-28038	32767	-28248	1532	-12028	-12329	-32768	-13129	-6880	-1024	-7740	546	1296	1657	121	130	1
-6524	-6804	12724	-751	1813	5024	-17200	-1972	-128	-1987	8651	-3344	-16424	-2736	-220	961	6710	-3043	-32768	4252	30804	10664	-26001	32767	-29652	5840	-14420	-5487	-32768	-15591	-11324	1436	-196	1671	4149	3439	123	134	1
-7656	-6772	13012	-2583	1969	5361	-17520	-1404	104	-1478	9510	-3444	-17060	-2232	1576	-357	7523	-2195	-32768	2856	23200	5377	-29327	29592	-31820	11888	-14784	-5866	-32768	-14261	-21032	1240	14504	3288	-8597	5771	4	128	1
-7496	-6064	12456	-4285	3403	4782	-17500	-1176	880	-2514	10978	-3294	-17096	368	3036	-2506	7412	-2079	-32768	-14624	-56	1580	-28325	16912	-21668	5536	-23524	-6974	-29710	-8126	-26272	184	20556	1870	-7041	6497	137	122	1
-8612	-5188	14420	-264	8986	7096	-17848	-1280	824	-2458	11168	-3164	-18240	3524	3892	-3161	5920	-2156	-32768	-32768	-15636	18472	-16439	3026	-6996	5332	-24812	14003	-14544	-1370	-17704	-2992	32767	-17038	3382	5813	137	112	1
-7844	-5980	14388	-605	12722	7549	-18832	536	-884	-1130	14774	-4176	-17448	928	5088	-3816	6557	-690	-32768	-27132	-18836	14011	-2930	-5423	-736	15452	-24412	6722	4536	6257	-20468	-21476	25268	-14765	12056	-1933	133	110	1
-8232	-6428	14216	-395	17075	8408	-19848	-352	-372	1089	16937	-4216	-18300	-3388	4728	-4000	6969	1734	-32768	-11744	-5564	-6223	7938	-9641	-11280	11120	-24032	-11554	19367	6879	-19740	-13900	7656	-7144	5694	-6063	136	110	1
-8636	-10220	13720	1213	21049	11246	-22940	-344	1540	18	18885	-4593	-20220	-2520	6044	-6002	4558	2415	-32768	-8876	-3272	-7385	9153	-8579	-19256	-1600	-5840	-9844	23243	8926	-8948	1284	-3188	8040	3444	-2061	132	118	1
-7836	-6468	12776	-540	24429	19488	-26252	1752	2844	-6670	20700	-5959	-22480	4144	13472	-10746	-3301	3210	32767	20904	27260	-10808	24872	4403	-32768	-15016	30384	-27323	8607	2327	-4000	-592	-13884	-7017	7713	-643	133	121	1
-8916	-11096	16812	4811	31887	23402	-32588	2348	10892	-16946	24750	-4483	-24392	10808	25896	6783	-13439	8064	-32768	-10660	27812	-10718	32767	-29854	-20152	12284	-24204	-32768	14616	11419	-30712	17140	-2636	-31606	-5325	7482	162	127	1
-12540	-18640	16512	10553	32767	32568	-32768	1300	11256	-12658	25438	-4452	-24540	8228	10564	-9868	-6180	6791	-15740	27296	12132	-11890	4810	-9735	-28344	3672	-6556	-3744	14354	10242	-32768	-15176	11076	-30574	6420	7151	140	148	1
-20308	-12124	22636	2645	32767	32767	-31312	9832	8220	-15714	26004	-5629	-25960	-2364	11612	-20773	-12751	9475	-10524	-344	21868	-11122	4796	-10247	-14832	4000	-2864	1677	13863	10821	596	-13184	-3832	14433	23627	15256	123	139	1
-32768	-26208	31404	-10170	32767	32767	-30188	-15968	1556	-21975	25928	4501	-26868	-9596	-2252	-24708	-14069	6061	-11988	14336	9772	-6281	2278	-6822	-12884	3760	-3000	17093	11745	7842	-272	6492	-10864	32767	7725	13686	132	118	1
-26164	-24092	23228	-3297	15950	32767	-26384	-11908	3348	-67	21209	-4502	-27636	-10608	-11044	-15203	-15544	1148	-6892	4068	15716	-5255	-84	-7911	-16084	7444	-2172	17238	10036	7303	-17120	27780	-6440	6402	-1200	-513	124	146	1
-12544	-19756	19372	-7040	10507	32767	-16884	-1432	312	6286	10754	-2118	-25652	1104	-9592	-2728	-17583	-1230	-10328	6700	14440	-2450	782	-4048	-17640	6788	-4636	7025	10448	4220	-22480	9512	-2520	-9749	11407	5809	130	144	1
-27472	-32768	7172	-5846	-7176	29433	-12648	-7828	-12564	-8071	7133	-549	-23836	3756	-8112	2534	-20365	-2120	-8960	6008	13352	-1505	1365	-1518	-16868	4556	-3944	-305	10122	3066	-14744	-3516	-5328	-2130	11679	1744	127	144	1
-5744	-32768	12852	-6454	-32768	-7032	-10384	-2548	3104	-11132	5278	2330	-24404	3068	-4496	2162	-20234	-576	-8388	6908	13084	-1092	1760	-1392	-16424	4024	-2552	-238	8371	2366	-12028	1536	-3040	3705	11399	1638	128	124	1
3616	-17628	-3208	8229	-28811	-11604	-9444	-456	4208	-5106	-3574	301	-24144	-400	-4904	-3042	-21148	-3401	-8380	7604	12592	-812	1665	-2335	-16244	3140	-1928	6356	6699	2510	-18336	5224	-3396	5697	13334	3718	124	115	1
6900	-5256	-4072	1477	-19735	-10923	-8716	1036	1028	-274	-12174	1536	-18620	-5240	-5416	-292	-18940	-4154	-8484	6664	13132	-688	1854	-3030	-16852	4692	-2936	9597	5665	2522	-17888	2748	-3788	7339	14909	6921	129	113	1
440	-9680	2936	-15858	-12846	-15835	-9032	-1512	-1644	3749	-18249	2834	-16780	-4296	-7640	6268	-17619	-3661	-8476	5476	13316	-265	2153	-2663	-16536	3540	-3268	4455	5280	2226	-15000	-52	-2728	11518	15315	6942	132	70	1
-6040	-22632	7488	-15582	-13319	-26094	-8500	-1828	-1020	5731	-22751	3888	-15352	-972	-7380	9683	-17248	-2307	-8704	5884	13100	392	2716	-2202	-16288	1412	-2412	5339	4931	1963	-13548	-1444	-992	10930	13220	3443	146	117	1
-5520	-15044	8532	-6969	-15964	-32768	-9780	-1148	-596	9635	-27599	3221	-14000	-972	-7672	11332	-16721	-1999	-8568	6120	12996	366	2841	-2137	-15232	4864	-1628	9046	4864	2337	-14620	1128	-1276	10926	11791	1362	135	114	1
-4836	-5940	10952	-13246	-17131	-32768	-10536	780	-1480	14348	-32200	5340	-11552	-2604	-8648	13202	-15362	-1928	-9204	6868	12220	290	2362	-2857	-15460	6052	-1612	6257	5002	2184	-15548	5148	-1040	9817	12713	2745	128	116	1
-7464	-10180	14704	-20158	-18914	-32768	-12136	788	-1464	11529	-32768	6693	-9068	-3416	-9504	17001	-12793	-560	-9232	6592	12516	256	2027	-3250	-15472	3760	-2096	5217	5418	1849	-15768	4980	-1156	4229	13366	4318	123	109	1
-11000	-12296	18264	-17281	-22150	-32768	-14308	1416	-2740	11202	-32768	8689	-6712	-2236	-11040	22354	-8967	631	-8980	5856	12620	458	2456	-2920	-16176	3548	-2464	4603	5887	1750	-15904	1932	-2512	-1312	12465	4774	119	126	1
-13124	-10132	20624	-17826	-24658	-32768	-16568	2048	-4564	9226	-32768	11809	-3532	-860	-12032	23775	-4846	-618	-8916	5832	12732	603	3006	-2937	-15912	2964	-2680	3639	6383	1860	-15480	1496	-1816	-1207	9057	3635	127	124	1
-15048	-13676	23208	-19376	-24961	-32768	-20716	1032	-5012	7323	-32768	14751	-5536	1276	-13032	15298	-2216	1713	-8992	6108	12872	853	3987	-3058	-16288	3632	-2992	3486	6704	1814	-16000	2588	-3412	839	6482	2405	129	124	1
-19776	-20260	26908	-16797	-24413	-32768	-28748	-80	-5524	6018	-32768	16182	-5396	1244	-12728	1302	3302	1441	-9172	5744	13276	17	5701	-3728	-16968	2976	-3256	3218	7101	1852	-16856	2608	-2728	322	7417	1665	127	126	1
-31028	-24104	30412	-13101	-22314	-32768	-32768	-1756	-7864	5288	-32768	20834	-6624	1656	-7228	-5786	5617	118	-9712	6372	12952	-15	7299	-3717	-17472	3368	-2628	2752	7691	2018	-18160	3312	-1592	1282	8705	943	118	126	1
-32768	-12164	31084	-14034	-20445	-32768	-32768	-11916	-9776	-4618	-32768	19410	-11148	-1732	2620	5909	-2755	-3674	-10260	6812	12856	-179	9284	-4030	-17680	2264	-1264	3267	8989	2266	-19284	2240	968	1891	8095	1373	119	124	1
-32768	11716	4040	-22344	-21924	-32768	-32768	-26688	-19844	18175	-32768	11021	-31680	-2824	18588	10597	-20729	-9659	-10280	6744	13012	-683	11180	-4560	-16944	4024	-316	1232	11135	2538	-18676	-308	4900	1969	7085	2991	118	116	1
-32768	21704	3992	-9680	-11463	-25037	-21948	-4132	-32116	11599	-25803	4462	-27384	-1328	32767	14937	-6871	-7991	-10636	7612	13208	-1117	13669	-5879	-19016	3072	-820	321	13260	2934	-18872	-2468	5372	3985	6358	2387	126	114	1
-32768	32012	-12556	-14796	3862	-13169	-8376	-11540	-29288	-7381	-5038	-1278	-10920	26876	32767	20809	11648	-2106	-10760	5456	13984	-2058	16815	-7031	-18316	2604	-1208	-230	15555	2879	-18176	3504	4704	5302	7686	841	122	122	1
-32768	32580	-5252	22094	19308	7063	-12804	-20088	-27652	8526	13748	-10524	-19680	20708	20912	18257	15839	920	-11360	7116	13348	-2664	21190	-8548	-20348	3244	-84	-1132	17868	2809	-21060	5952	3516	6188	7119	-364	125	121	1
-324	-5148	23084	26809	23041	8028	-18772	220	9316	32767	22861	-14711	-19480	1576	192	-8589	1878	7371	-11584	8224	13240	-1442	25874	-11951	-22680	2604	340	692	19246	3955	-21956	2392	4364	6967	4316	-1147	130	121	1
20612	-19056	30512	4974	23884	22340	-21932	8984	25148	32767	20987	-14505	-19680	3468	-12880	-9782	10148	-2090	-11860	10284	14000	-1595	32607	-16953	-27520	2780	1696	2671	20252	3835	-25836	-72	7132	7283	779	-2098	120	122	1
-32768	18180	16800	10102	32767	23124	-12348	2228	-22812	-900	17077	-18719	-24620	4052	-9912	-9083	10597	-3000	-11868	7400	12596	3735	32767	-25606	-32712	-6472	4500	13392	19765	4520	-27132	-2072	14276	10518	-9876	-4209	127	126	1
-25804	-30172	17204	7225	6282	10218	-28468	-20212	-1332	-3167	16737	-12837	-16828	5968	6028	14197	164	-1793	-24356	21288	16260	1661	32767	-31445	-29132	4652	8056	22828	21084	3260	-25100	-11300	12148	1568	-14455	-10207	115	129	1
-13960	-15744	12268	11383	4558	2703	-12280	-1384	1232	8565	14381	-12806	-5292	-1404	-6580	-25763	17558	-11877	-32768	2772	14944	1587	32767	-32768	-22952	6936	-5012	11296	22792	6014	-18504	-8364	1300	12917	-14494	-4478	116	135	1
-9596	-5228	14580	9389	-631	4179	-16668	-1248	-4104	156	12299	-8601	-7092	-11268	-14904	-28892	8072	-9541	-29448	15212	17720	17657	32767	-32768	-24324	8780	-1764	14195	22454	2651	-22484	8600	-4584	29055	-18395	-4623	128	142	1
-8444	-4484	15200	5733	-319	2152	-19344	2316	-1916	-8078	10996	-6761	-17992	-17428	-7948	5018	6447	-4380	-24448	18304	16540	17921	20765	-32768	-20740	11768	-2212	-1093	17874	4798	-24540	7544	-15844	25490	-16203	-1014	127	144	1
-6872	-8128	12240	2907	290	1363	-16988	728	856	-14795	10806	-5397	-22160	-4936	-2972	13334	8425	-4694	-26868	21224	10412	4712	17137	-32768	-14988	5160	-9832	-5183	13937	4463	-24752	864	-13760	8432	-22602	2876	117	132	1
-6900	-6944	13368	1457	-4	938	-17136	-5196	-228	-7956	9139	-5382	-15564	3072	-284	3389	10685	-1811	-17808	32767	16884	2477	-9975	-13459	-13780	6192	-10120	10953	8169	3263	-23376	-148	-10364	-2613	-27048	2617	125	125	1
-6808	-7724	12300	1131	446	353	-18120	-6880	1228	9704	6607	-5524	-12416	1100	-1156	-776	11680	-4795	-8284	21404	10480	-5421	-18281	1082	-9860	2980	-3716	15295	2036	3932	-21428	-2240	-6608	-3784	-27284	-45	132	120	1
-7204	-7332	12420	1211	156	664	-17876	2444	948	6498	6207	-4296	-15424	-5196	-3352	-3216	11950	-2480	-2232	9640	6184	-2786	-21234	8916	-6420	2680	-2976	9531	-3484	3784	-20316	-2192	-6004	1289	-23661	1504	138	105	1
-7116	-7060	12800	1185	127	657	-16792	24	1844	-4241	6232	-3136	-18880	-2632	-3832	-1636	13097	-4031	-1200	7200	6068	6637	-21326	14248	-6680	4220	-3136	531	-8951	3507	-19136	-1256	-6144	1089	-22527	1596	132	103	1
-6420	-7032	12800	1151	-160	1920	-15868	32	1120	-11025	6015	-3800	-16840	256	-880	-5961	13977	-5770	-3436	10076	7228	11682	-22409	18346	-7552	2716	-2872	-4898	-14631	3180	-15216	544	-6456	-1728	-18430	827	131	115	1
-7512	-6688	12716	52	68	1515	-18524	-3548	-1116	-7585	5491	-3014	-14804	-300	-740	-8866	14287	-3363	-4260	10684	9080	10218	-23721	21758	-8028	804	-2896	-8366	-19828	2734	-14724	-1248	-6160	-3371	-18120	-502	122	134	1
-6600	-6964	13016	-231	974	1030	-18088	-1068	196	2579	4241	-3406	-15720	416	-1576	-9521	14872	-2226	-4132	10292	9124	9851	-23808	22365	-9384	-748	-3484	-9847	-24356	1341	-12316	-920	-5768	-4588	-18071	-1399	118	137	1
-7360	-7248	12360	-726	1130	1968	-16032	880	1708	-4537	4576	-2452	-16492	868	-400	-7348	12382	-3280	-5404	5976	13280	11853	-23620	29844	-10088	-1672	-4492	-9669	-28788	-858	-11436	-128	-6240	-5197	-16458	-1860	127	116	1
-7388	-7836	12440	-1171	541	2912	-15852	-2004	1860	-9137	5172	-2787	-15740	696	1280	-8136	10027	-4933	-8572	5584	16548	12338	-25703	31968	-11296	-220	-4788	-7567	-32768	-2930	-11752	1292	-6664	-6775	-14452	-2678	128	118	1
-6996	-7468	12160	-573	54	3753	-16296	-3224	1648	-6529	5685	-2980	-14356	-2288	1848	-8689	10488	-4503	-9984	4132	18828	11434	-28846	30939	-12480	456	-5672	-9259	-32768	-5042	-10376	3568	-7984	-9042	-11538	-3038	129	117	1
-7120	-6444	12844	-613	-115	3914	-16340	-1408	960	-2222	6300	-2633	-15752	-4452	1512	268	11441	-4767	-12504	4400	21188	12656	-31661	30379	-14712	56	-7516	-10850	-32768	-8636	-9140	3932	-9832	-11844	-7645	-2141	128	125	1
-6932	-7044	12752	-794	441	3729	-16204	-1156	328	-1779	7304	-2818	-16580	-5528	1636	2581	8295	-4390	-16228	8144	24196	12557	-32768	31515	-17448	560	-9136	-10197	-32768	-12198	-7368	3852	-11672	-12853	-3796	-729	127	130	1
-7072	-7136	12712	-1388	455	3710	-16540	-1680	244	-1319	8184	-3103	-16740	-4988	-312	-550	5498	-3219	-20240	11968	27152	11378	-32768	32767	-18064	712	-9188	-9985	-32768	-12770	-7484	2608	-12052	-8529	326	1050	120	132	1
-7192	-7048	13008	-1172	1628	4057	-17516	-1716	-312	-333	8797	-2973	-16888	-2184	-1160	1524	5647	-3084	-26764	13964	28724	8767	-32768	32767	-27508	532	-12660	-6304	-32768	-18757	-7380	2344	-9740	-3512	3998	2202	115	136	1
-6404	-7064	13556	2306	5920	5566	-19028	-860	-684	-99	9242	-2943	-18080	-1312	-1216	1721	7613	-2661	-32768	6512	30544	9227	-31597	32767	-30776	6904	-14368	1900	-32768	-19142	-8320	4080	-3440	-2793	4237	3416	118	132	1
-7452	-6880	13732	1458	8341	5942	-18940	108	-780	-501	10263	-3009	-18412	-1164	916	-106	8408	-1537	-32768	5108	24848	7518	-32768	31085	-32768	17324	-16220	-2794	-32768	-16581	-15408	2400	11420	-192	-6849	7172	51	123	1
-7328	-6224	14036	777	11013	6282	-18040	444	-96	-377	11910	-3563	-17536	1208	3556	-994	7987	-1277	-32768	-15284	-620	8303	-32768	18252	-24320	9132	-23444	-7403	-32710	-9238	-26032	-400	21648	3059	-12178	7319	140	120	1
-8260	-6916	13488	353	14070	7016	-19056	32	48	1107	13599	-3847	-17332	4716	4700	-648	6831	-1592	-32768	-32768	-17160	16469	-17138	6411	-8484	3972	-26428	5875	-17705	-3538	-25300	-3596	32767	-23150	2945	2875	136	117	1
-8472	-7660	14336	2762	16269	8161	-18948	-244	244	834	15269	-4504	-17332	2196	4792	-2652	7297	-367	-32768	-27708	-20876	11995	-42	1123	2728	17012	-26840	5903	3921	4053	-21488	-32768	30836	-27669	12280	2108	131	113	1
-9332	-6652	13176	3576	19164	9658	-18964	-668	612	1495	17341	-4645	-17716	-3428	4800	-4818	7115	1850	-32768	-21088	-12040	-12849	17895	-7702	-10836	14200	-26088	-13952	20172	8622	-17492	-19412	9276	-1095	7420	-6406	129	116	1
-11044	-8644	12476	5574	22439	12868	-21876	-932	2680	-438	19322	-5107	-19488	-2824	6964	-7141	4394	2424	2712	19392	32767	-12886	17660	8216	-23708	-16800	18088	-17319	20997	3593	-9536	-620	-4796	21062	4417	-4213	133	121	1
-11964	-9060	12956	5444	25497	20248	-26836	1320	4916	-7488	21024	-6603	-22976	2568	15040	-11815	-3390	3720	27088	-18464	17824	-8580	32767	-25883	-32768	7632	3116	-32768	13542	13852	-19244	-520	-8608	-5962	772	-1507	133	123	1
-12732	-16368	15744	7775	32767	30511	-32768	2684	15368	-18277	24775	-3788	-29364	5816	26028	7495	-16845	7805	-32768	14424	28796	-8462	22139	-7401	-14076	1388	-11712	-15028	20863	4146	-20696	16488	12500	-32768	-12881	5946	136	130	1
-19080	-18064	15456	8451	32767	32767	-32768	-948	10312	-14533	23631	-4611	-28888	8060	10024	-11238	-8779	9292	-12016	12540	10640	-15885	8901	-11035	-20124	9292	-3700	-4630	16947	15565	-31388	-13196	-9248	-2281	20711	14579	137	150	1
-28720	1056	23696	-7706	32767	32767	-27736	4008	4024	-21277	26579	-4215	-27736	-3780	5936	-22798	-13339	7261	-17312	1704	15440	-9303	1132	-10881	-9752	5176	-10320	6498	13401	9332	6876	-10872	-11024	26651	7547	17023	129	121	1
-32768	-31616	26240	-3002	28944	32767	-29504	-15088	4440	-18938	24023	1957	-27424	-4660	3896	-26781	-13453	7042	-6820	9128	13240	-9077	273	-8428	-18224	5896	-2244	19831	9506	7708	-9552	22424	-11568	27145	4733	3874	131	118	1
-19128	-21572	17276	-6114	10094	32767	-22392	-7184	4968	734	15958	-4424	-26132	-3204	-10644	-14935	-17585	-821	-11984	4388	15048	-3378	24	-5646	-18580	7528	-5164	9370	9129	5985	-25396	24680	-5848	-10553	11861	4920	132	144	1
-21412	-32768	20284	-2080	-4972	31896	-14616	-3396	-11460	2937	8950	-3231	-25608	2596	-9108	-3555	-19495	-2157	-9056	4368	14212	-2416	708	-3078	-16752	6400	-4808	-1841	9196	2931	-19728	-1192	-4364	-10694	12350	2862	133	149	1
-15224	-32768	22944	-7687	-27813	-374	-13636	-3708	-3332	-13872	8242	328	-25060	4992	-6840	2170	-20510	-2760	-8768	6352	13096	-1399	1614	-1558	-17296	3564	-3072	19	8301	1621	-11128	-3064	-3020	-3527	13712	1181	135	146	1
3380	-22644	-2164	1858	-24986	-12838	-10564	368	3856	-6391	-139	-563	-25672	1832	-5060	-2286	-20582	-469	-8268	7624	13004	-678	2180	-2083	-16540	2340	-996	7039	6317	2308	-16696	3068	-2736	2592	13642	3219	123	146	1
5024	-9168	-1860	-661	-17848	-13932	-9148	1288	780	-2595	-9022	-18	-22620	-2536	-6348	-2027	-21490	-4789	-8964	7116	12676	-574	2208	-3301	-16304	4208	-2380	13326	5231	2705	-17564	3784	-3208	2762	14376	5650	126	130	1
716	-9636	3948	-14243	-12287	-18827	-9664	-2400	-1356	2237	-16154	304	-18420	-2152	-6940	1936	-18642	-2831	-8284	5572	13456	-37	2243	-2714	-16480	4520	-2456	13039	5092	2796	-16552	-320	-2056	7293	15570	6432	135	108	1
-4292	-17868	8044	-16004	-12660	-25766	-9588	-936	-472	7105	-21616	1452	-17124	-604	-7656	6067	-18279	-1939	-8176	5640	13464	41	2373	-2631	-16684	3088	-1624	4513	4828	1054	-15500	-1316	952	12051	14330	3610	142	90	1
-5392	-13048	10432	-12496	-16351	-31144	-9868	-572	-436	9497	-26424	1255	-14288	-132	-7256	7525	-18064	-2008	-8960	6780	12472	523	3192	-2280	-15712	3688	-1608	6561	4606	1397	-15184	2264	852	12934	14274	3355	145	121	1
-3952	-6632	11800	-17452	-18486	-32768	-10988	1948	-1064	10853	-31101	2285	-12508	-1604	-8536	7922	-17152	-1810	-9368	6812	11956	414	2576	-2735	-15052	4372	-1256	8222	4558	1853	-14576	1784	-180	12929	14519	4030	129	119	1
-5160	-9072	14304	-21027	-19591	-32768	-12368	2056	-1732	10197	-32768	4367	-10256	-1912	-9332	10302	-15406	-1398	-9260	6328	12168	189	1579	-2999	-14640	4072	-1064	8042	4949	1924	-13640	1240	-572	9823	13837	3560	127	107	1
-9848	-12040	19180	-20603	-22578	-32768	-13460	2296	-3296	8081	-32768	6738	-8340	-2868	-9976	13975	-12737	139	-8920	6280	12588	46	1144	-3149	-15304	3736	-1580	5266	5592	1602	-15148	2552	-1052	3520	13881	4039	124	111	1
-9744	-10036	19144	-20120	-24335	-32768	-16224	3244	-3332	5929	-32768	10249	-5116	-2324	-11300	19897	-9712	21	-8796	5780	12756	181	1368	-2794	-15864	2744	-2092	3769	6346	1424	-16536	2988	-1104	-1076	11800	3603	121	130	1
-12176	-11424	21304	-20509	-23296	-32768	-18332	1752	-4520	5116	-32768	12922	-4856	-1100	-12068	20031	-7138	-1821	-8908	5976	12744	147	1999	-2772	-15996	2832	-2848	2468	6825	1425	-16096	3600	-4072	291	7141	2679	124	126	1
-15728	-15828	25152	-18574	-22646	-32768	-24216	704	-4852	3227	-32768	14429	-5092	-796	-11828	10649	-3851	1148	-8956	6272	12900	200	3410	-3159	-16888	2864	-3644	2659	6841	1449	-15984	3008	-4848	-1209	7090	1626	129	130	1
-24592	-21344	30368	-16859	-23039	-32768	-32232	-1788	-6264	2829	-32768	17123	-5404	564	-11000	809	1552	1472	-9096	5868	13340	14	4960	-3095	-17084	2676	-3636	3002	7052	1501	-16780	3356	-3604	-204	8640	682	132	129	1
-32768	-19068	32144	-15814	-22684	-32768	-32768	-2040	-9256	993	-32768	18323	-5912	-572	-3964	1361	1875	-957	-9348	5892	13540	-47	6561	-3196	-17576	3136	-1980	2972	7780	1402	-19124	2228	-1176	-627	8638	731	119	125	1
-32768	-10308	29092	-13689	-20418	-32768	-32768	-15740	-12236	1489	-32768	17271	-15456	-2668	8684	6271	-8581	-3238	-9468	6588	13324	-425	8421	-3604	-17192	3008	-76	1651	9626	1735	-19248	404	4028	-267	7197	1619	124	125	1
-32768	14116	8500	-15643	-21538	-32768	-29240	-6456	-20972	9180	-32768	8191	-32448	-1256	20992	5699	-18508	-9473	-10200	7728	13336	-889	10668	-4414	-18480	3088	468	143	11884	2080	-20684	-2660	6784	2021	6682	2209	128	117	1
-32768	31128	-3768	-9363	-6202	-20280	-16872	-9384	-26672	1197	-21385	1513	-20784	3172	32767	19429	-6956	-3450	-10176	7416	13888	-1665	13383	-6067	-19676	2544	-596	139	14035	2679	-19376	-3272	4812	4732	5721	1806	128	112	1
-32768	32767	-2764	-8207	1756	-6068	-5736	-16068	-31528	-5667	-42	-1999	-18020	7012	32767	20221	-4530	-1587	-10328	6472	14452	-2427	16818	-7126	-18700	2684	-728	-740	16353	2621	-18296	2580	4296	7326	6527	650	118	120	1
-32768	30004	-1952	5724	10107	6138	-13392	-14512	-27300	12622	16774	-9510	-25500	16572	16588	15401	15218	5292	-10812	8080	13740	-3321	21414	-8874	-20952	2568	-360	-1059	18407	2601	-20704	5272	3256	8110	5757	-802	120	119	1
-30876	-4112	18940	32767	22460	12113	-19876	-5252	-11124	24792	25737	-13012	-16500	2132	-672	-6364	542	7806	-11600	8040	13188	-2112	26038	-12798	-22148	1340	104	1696	19718	4246	-20836	1432	4696	8825	3798	-1509	126	121	1
32767	-32768	32767	32767	28659	6342	-32768	32767	32767	32767	9144	-9909	-7404	3544	-2396	9849	6472	-2588	-10628	8884	14816	-776	31605	-17796	-24904	672	1132	5742	20703	4211	-22064	-928	7672	11187	679	-3153	112	121	1
-26088	29312	21384	18880	24857	27896	-14888	-11160	-21660	27357	-1156	-6642	-19252	-10996	-14800	358	18201	-14952	-12696	7948	12500	4285	32767	-25324	-32768	-6644	2716	12752	20116	3778	-26356	-2592	13372	9944	-9071	-5133	124	125	1
-32768	-26644	32767	24119	18824	5225	-30444	-5432	1792	5830	14347	-16545	-30076	-760	11176	32767	-15660	2704	-23792	19212	15500	5011	32767	-30887	-26872	2352	7980	26079	21509	3068	-21612	-12256	15140	-4259	-14735	-12721	125	126	1
-18236	-3996	20208	13106	8856	2010	-22060	-8972	-7408	7074	14695	-9251	-29836	4444	11180	32767	-10161	2755	-32768	3472	14748	2233	32767	-32768	-22940	11688	-5876	12180	22990	4138	-21784	-5872	2548	15360	-13477	-6592	138	132	1
-8644	-6952	15884	4274	2899	2043	-14868	-776	-3660	-3011	13566	-12213	-200	1136	-9512	-32768	24254	-16127	-29788	19332	17436	16194	32767	-32768	-25108	13048	-1036	10021	24195	1150	-25532	13956	-3600	27858	-14826	-3134	123	150	1
-7488	-6916	14304	2878	1581	453	-16876	-3128	-1076	-5054	10032	-7930	-9168	-19964	-19416	-21238	3048	1313	-21612	20824	16988	5559	17224	-32768	-22372	15144	-2952	-7417	18613	4357	-25700	11116	-17072	26163	-12215	40	106	151	1
-7644	-8412	12844	1332	1164	603	-17512	-2556	612	-7159	8618	-6035	-24032	-20120	-5572	14844	3154	-1352	-20880	26600	14056	-8043	15019	-32768	-16500	4680	-8836	-13093	14663	2483	-27104	3704	-15760	5299	-21530	4890	112	126	1
-7196	-6860	13788	614	1444	180	-18340	-2136	408	-6723	7606	-5282	-20224	-4148	0	13117	10499	-5424	-20884	32767	19528	-1230	-7553	-14422	-15112	6768	-12664	4209	8860	-571	-25556	3540	-11392	-8593	-29992	3745	114	129	1
-6300	-7744	12648	-26	1837	-77	-18348	-2896	1064	-2896	6108	-4103	-14512	8312	-2564	169	11446	-6568	-8400	22448	11492	-4028	-16087	3780	-10372	3484	-4548	11795	2617	-705	-23652	1280	-6388	-7740	-29127	1060	130	106	1
-6452	-7632	12596	-196	1847	309	-16972	-992	1652	-277	4617	-3672	-12584	-2448	-1508	-6944	10306	-2957	-3012	12084	6296	-4961	-21003	11471	-6376	4152	-2368	11921	-3357	-691	-21216	148	-6804	-5921	-25190	3292	133	132	1
-6216	-7788	12608	-213	1898	628	-17268	8	2492	-4457	4168	-2868	-17400	-2276	-2716	-5865	11043	-1949	-1372	7420	4688	242	-22790	14866	-4460	7060	-2476	2154	-8916	-1276	-15844	1352	-7548	-7458	-21046	2862	151	99	1
-6576	-7628	12688	-1198	1821	1197	-16480	700	2116	-11985	4189	-2398	-18156	1360	-224	-8799	12540	-4610	-3076	8756	4880	4622	-24872	16609	-5180	5380	-2572	-6921	-14448	-2227	-13348	2356	-7116	-8036	-18048	2141	148	111	1
-6580	-8316	11828	-1116	1930	1332	-17036	-3588	2100	-11998	3974	-2333	-15080	-1012	-548	-18324	15007	-4855	-4040	10516	5748	5341	-27081	18955	-5900	2944	-2572	-7945	-20258	-2955	-13064	2012	-7888	-10040	-15887	1362	128	127	1
-6684	-7564	12612	-945	1878	1557	-17140	-2272	1804	-5126	2923	-2221	-14964	-2280	-832	-18345	16253	-3764	-6444	9908	7292	5564	-28245	22502	-7148	2768	-3744	-8247	-24707	-4029	-11888	2000	-7280	-12245	-15384	1041	122	132	1
-6712	-6904	12492	-797	1889	2254	-16128	364	2868	-6985	3242	-1452	-15600	-1168	504	-12469	13990	-3632	-8348	9244	7936	7179	-28767	27665	-8440	1492	-4440	-7511	-28548	-5222	-10548	2264	-7976	-17041	-13969	1603	124	128	1
-6732	-7816	11984	-545	1574	2842	-15188	-2256	3460	-9484	3871	-1696	-15556	-752	392	-11783	13310	-3864	-10616	8780	9440	8232	-28098	31563	-10256	1728	-5192	-7890	-32416	-5743	-10144	1468	-9676	-23268	-12580	960	122	118	1
-7172	-7984	11828	-685	692	2959	-15372	-2756	3512	-7016	4673	-1786	-15344	-2656	5240	-3239	8750	-4375	-10984	8644	9700	8252	-28074	31976	-11224	3304	-6368	-9770	-32768	-6219	-8540	416	-10664	-24472	-10940	615	128	106	1
-6960	-7792	11652	332	522	3340	-15588	-2264	3016	-4063	5504	-1928	-17400	-7620	3772	-1681	8400	-5334	-17476	24620	14960	2189	-25748	32767	-12640	3260	-8608	-15449	-32768	-7094	-7744	-1720	-9976	-17774	-7996	-306	123	118	1
-6800	-4808	11548	4357	1663	4234	-23108	1748	3980	-7083	3825	4744	-18576	-5648	272	-1786	4261	-5633	-17492	7348	17624	9382	-27848	32767	-16268	1732	-9192	-16357	-32768	-9899	-7280	-1072	-9356	-7159	-3741	-473	122	123	1
-6244	-7836	11636	5682	945	3986	-15516	2000	2636	-981	8759	-8213	-16748	-3512	1808	1369	4890	-3923	-22564	15332	21916	9234	-28406	32767	-21552	3980	-9564	-12081	-32768	-11910	-7056	-3188	-9456	3774	1321	-183	88	128	1
-6276	-6968	12628	-222	1283	3569	-15224	920	1316	-730	7887	776	-15332	360	1184	1225	6562	-2290	-27992	13964	24784	5739	-28715	32767	-27140	3056	-11744	-12521	-32768	-12881	-8080	-3428	-7236	8850	4694	1263	121	127	1
-8220	-7284	12428	-1228	245	4470	-18804	-3768	1228	-2513	9395	-5148	-15828	2252	-188	-355	6812	-2251	-32768	2308	28692	12148	-25937	32767	-29744	3956	-14116	-511	-32768	-14735	-9968	596	-1464	4227	4789	2878	126	132	1
-7260	-7904	12044	-2126	337	5950	-16628	-1544	1648	-3365	9660	-4361	-17272	-36	2052	-3033	6171	-2427	-32768	5072	22344	6901	-25449	27974	-31944	14284	-15400	3653	-32768	-12512	-17424	2372	11464	4746	-6232	7455	136	128	1
-6384	-7120	12648	-3767	1897	5337	-17072	-748	856	-3591	11667	-3828	-16508	-1744	4048	-5083	6962	-2301	-32768	-15164	3560	3938	-30580	12705	-25128	6696	-21516	-2053	-32739	-7753	-30500	2300	15352	8072	-11897	7092	131	117	1
-8952	-9056	12864	-1264	6748	5877	-18872	-432	416	-3119	12953	-4007	-17344	-304	2704	-4277	6300	-2592	-32768	-32768	-8972	12303	-23127	-421	-10952	4688	-25412	13576	-18908	-2382	-19228	1892	31492	-12601	-3599	5480	129	116	1
-7536	-10104	13428	-3635	13755	7003	-19080	628	-1044	-1168	14558	-3909	-17248	-1884	2444	-3324	7455	-289	-32768	-30432	-22580	14690	-10543	-8853	-2172	10404	-24856	11882	396	5372	-18288	-15784	32084	-10837	10968	1371	126	125	1
-8188	-6628	13620	-1638	16873	6631	-19304	-244	-736	34	16803	-4067	-17932	-3668	2820	-2535	7754	1865	-32768	-16108	-14048	-15493	9418	-15017	-9856	7752	-25112	-12400	17072	7089	-20988	-14112	12176	-4801	5770	-7267	161	115	1
-9256	-9096	12668	-1271	21156	8241	-20812	-924	1236	-917	18730	-4180	-19128	-2244	4728	-4114	5558	1986	18100	11624	32767	-15917	18314	1544	-32768	-32768	32128	-19329	14534	-1948	-16684	-3944	-7824	5799	3592	-3190	169	121	1
-10328	-10436	13848	366	26485	12554	-26012	-1200	1904	-5036	20228	-3580	-23656	1404	9748	-7759	132	2314	-32308	-20912	22668	-7680	21691	-30336	-21104	12576	-26748	-32768	19368	15687	-32768	-2424	-1508	-14306	6	-2291	146	123	1
-9612	-14248	15400	2187	32767	18755	-32768	3856	11356	-14265	23289	-3000	-31416	-2436	21084	-11322	-11592	5634	-20036	32767	29916	-10079	4544	-6559	-20264	8288	-1424	-4374	19076	7523	4724	4176	9548	-32768	-1869	4518	125	140	1
-14568	-22016	13288	3090	32767	28697	-32768	256	13444	-14963	24114	-1693	-24728	3740	8320	-1493	-5371	7524	-3044	7704	8956	-11954	10167	-10147	-14652	7984	-2420	-13449	16432	10157	-15068	3960	-13760	11994	23346	14302	125	120	1
-15772	-1348	15804	-2966	32767	32767	-27436	11244	6352	-12316	24230	-5548	-26144	12084	9048	-6218	-12325	9574	-13956	9316	11520	-9813	364	-7653	-10516	5712	-8088	3643	11578	7516	-5800	-3128	-9704	23347	4317	16296	120	131	1
-32768	-29224	15660	-11369	32767	32767	-27824	-12068	56	-22650	26124	4076	-19288	-4476	-532	-27442	-13083	6933	-6820	4084	15312	-6979	-181	-6284	-19536	2340	-5012	14729	8181	5494	-12484	17876	-8696	15958	5454	4666	113	123	1
-24380	-24492	23880	-8559	21000	32767	-28136	-10244	5788	-47	22389	-3752	-27776	-7512	-6776	-17572	-15188	3662	-10480	5728	14624	-2827	-37	-4399	-19284	2144	-4832	17961	6416	5612	-21532	13460	-7704	-1687	15575	7875	128	152	1
-14984	-26056	16660	-15254	8565	32767	-18776	-1080	5764	4327	13203	-3389	-25060	-1008	-8560	-10340	-16479	1053	-8276	4652	14548	-772	982	-1944	-16048	7716	-2752	2348	7011	4239	-17436	-1876	-2884	-6428	11245	640	112	165	1
-16920	-32284	19220	-18585	-5506	32291	-12888	-3556	-7636	-1642	8114	-2611	-22176	2016	-6448	-5501	-18610	-346	-8316	7656	12348	-424	1444	-848	-15832	5524	-1648	-12829	6498	405	-13136	644	-2172	-2483	13853	551	122	128	1
-16100	-32768	21500	-8510	-29145	2640	-12256	-6864	-1240	-14848	7492	355	-22496	-220	-5468	-374	-21699	167	-8468	7524	12800	-383	1515	-1116	-17664	184	-20	1349	5428	1934	-15348	3224	-3096	-1680	14144	2694	126	127	1
1184	-24976	2028	7112	-32768	-8192	-11832	-2068	6048	-5645	-444	2	-24088	-3816	-4164	-582	-21046	-2652	-8804	8216	12332	-297	1376	-2585	-14904	2944	144	18405	4063	2379	-17400	2760	-612	5598	13847	7448	136	124	1
4812	-10676	-412	9847	-28884	-7816	-9808	-916	2812	2309	-8866	-406	-21020	-6048	-4816	783	-19735	-3665	-9124	7264	12644	-601	925	-3148	-17128	7244	-1684	18466	3403	2661	-16124	2436	368	14557	14607	7668	134	116	1
2896	-7452	2208	-4972	-22911	-11132	-9040	-384	-528	4939	-15452	2635	-17740	-6192	-6384	4092	-18872	-2598	-8240	5896	13308	-580	1278	-2382	-16424	5588	-1896	2577	3357	956	-13584	1888	-1108	15865	14538	5150	135	106	1
-1412	-18312	5520	-15072	-19431	-20593	-9968	-804	-460	6783	-19935	5568	-16428	-5544	-6700	9900	-18028	-1771	-8560	6056	12944	-163	1833	-1878	-16028	1120	-48	4648	3684	-177	-14280	1396	912	11809	13940	2766	136	111	1
-4452	-21460	6088	-9072	-18458	-30845	-9888	-1988	-276	9073	-24376	6971	-14556	-6348	-7568	16544	-17470	-1688	-8776	7092	12516	-42	1684	-2482	-15424	4548	1128	8894	4123	1270	-16432	-392	1940	5609	14449	5304	141	115	1
-3736	-11100	7148	-6063	-16974	-32768	-9968	-2936	-2276	15639	-27949	6936	-12448	-4632	-8340	19583	-15799	-1784	-8636	6992	12448	153	992	-3047	-15292	4424	1808	8092	5144	1394	-16932	-1752	2048	3045	12139	5400	136	122	1
-7012	-8744	10716	-12629	-16800	-32768	-10964	-276	-1268	14725	-32768	10301	-9360	-2800	-9776	21680	-13310	-1579	-8808	6820	12220	-332	670	-3227	-14752	3268	1804	6744	6829	1855	-18740	3604	2588	6096	7075	3419	120	114	1
-7868	-9388	11340	-13465	-16999	-32768	-12444	-1152	-1416	13705	-32768	11751	-6376	-660	-11016	22948	-9719	842	-8320	6492	12848	-476	987	-3294	-15504	3748	224	2249	8376	1729	-19244	7504	1364	2290	4292	2435	122	133	1
-12944	-12324	16348	-12282	-22444	-32768	-15324	-772	-2832	13649	-32768	14076	-3912	428	-11920	21938	-6163	1687	-8856	6328	13012	-498	1812	-3121	-16708	2724	-1564	265	9314	1989	-17188	3324	-404	371	4642	1902	124	121	1
-14620	-13068	18936	-14011	-23944	-32768	-18652	504	-3984	10494	-32768	16129	-5304	2244	-12724	14891	-2998	2150	-9112	6236	12864	-7	2835	-3649	-16692	2892	-3188	1838	9379	2201	-13936	-196	-3112	1940	6996	2304	130	123	1
-17624	-17852	22960	-15293	-23543	-32768	-25292	-220	-4088	7528	-32768	18244	-6864	1584	-13164	4144	2450	3353	-9064	5960	12920	124	3773	-3654	-16332	3360	-3732	3237	9302	2341	-14112	620	-4892	3759	8181	2650	126	124	1
-27664	-26732	29084	-13744	-23552	-32768	-32768	-3088	-4612	6107	-32768	21040	-6420	1808	-11108	637	7017	1427	-9284	6352	13080	107	4869	-3914	-16268	3304	-3736	3252	9337	2318	-14844	1484	-5868	3438	7099	2285	123	123	1
-32768	-26848	29140	-10243	-25091	-32768	-32768	-7540	-9144	1805	-32768	19969	-8180	2992	-3600	4936	3974	-1358	-8532	6548	13632	-410	6999	-4906	-17528	3036	-2740	3373	9515	2411	-17232	2088	-3212	4006	6615	1954	121	119	1
-32768	-4784	22416	-16193	-24184	-32768	-32768	-16244	-9480	4616	-32768	15572	-20652	392	12840	14451	-11657	-4218	-9512	6620	13444	-374	8601	-5083	-17120	2628	-2564	3770	10278	2873	-17892	2808	1328	5288	6966	1823	109	116	1
-32768	12752	10564	-12801	-17060	-27393	-32768	-4432	-27264	11664	-32768	9069	-32428	1496	32648	13051	-17563	-7107	-10136	6952	13804	-910	10791	-5320	-18016	3980	-1492	2926	11794	2701	-17404	452	2004	4374	6484	2097	124	120	1
-32768	28612	1184	-7912	-5614	-17518	-8316	-7912	-28172	-5015	-16360	2162	-15680	17396	32767	16335	-4988	-5251	-8664	5780	13908	-1669	12629	-5545	-20216	604	-2328	1362	13421	2735	-17588	1680	3172	5776	7468	1379	123	121	1
-32768	32767	-6664	-934	-626	-167	-7292	-17460	-29076	-5788	5786	-4306	-15184	27728	32312	15910	14701	-1290	-11356	6668	13752	-2635	16565	-6670	-18276	3560	-1340	-1937	15722	2827	-18628	6096	2104	5435	6888	22	118	122	1
-32768	22304	-824	6597	10109	12839	-13376	-15772	-24160	17539	19514	-9812	-25320	12092	18288	4782	1599	11975	-10924	7832	13320	-3322	20232	-8695	-21380	3364	-1100	-1005	17281	2831	-20824	4180	1496	4599	6081	-661	125	120	1
-27420	6000	13400	32767	31060	18353	-23548	-6500	-11804	17351	28661	-13467	-11892	-1292	-5216	-17408	1799	5129	-12040	6428	12592	-2526	24321	-12983	-21312	1976	-892	2772	18406	4307	-20208	1332	5088	7255	5184	-1095	129	121	1
32767	-32768	32767	32767	26236	12487	-32768	23180	32767	31063	18188	-16915	5700	-14572	-28328	-11318	14187	-9396	-11448	8444	14164	-1038	29840	-16934	-23780	1724	900	6248	19459	4361	-20572	-2740	8448	11165	673	-2037	113	127	1
-9364	-2752	9080	-4820	19195	20502	-17792	916	-1856	20752	-3482	850	-13416	-9584	-32768	-5632	23580	-8927	-11988	8640	12572	1438	32767	-23460	-30384	-1980	972	8251	19552	3890	-24884	-4592	13632	10688	-5268	-3796	112	127	1
-32768	9388	31724	29792	32767	9222	-18976	-11420	-14540	738	11099	-16444	-32768	-6780	19592	32767	-21928	5857	-18364	13500	15944	3854	32767	-29608	-28400	-864	8496	24897	20967	3558	-24200	-8332	13188	8799	-11298	-9287	101	124	1
-9612	-8288	17856	8414	3377	9177	-32396	-2900	-7652	9740	12874	-11894	-32768	22332	588	13560	15792	-14133	-32700	18024	16508	566	32767	-32768	-26504	11548	-1052	14780	22178	3752	-20744	-8136	3184	14011	-10666	-7314	120	138	1
-13748	-1608	20532	2403	3883	-298	-11992	-708	-724	1537	12326	-10983	-2472	7768	-6292	-20829	28432	-17945	-30228	2432	17120	13987	32767	-32768	-24864	7696	1672	14004	25133	4639	-24920	10124	828	21784	-15321	-3162	140	136	1
-13236	-13948	11976	1391	726	1613	-16420	2264	-1176	-4678	9679	-8485	-1892	-13776	-19724	-25200	4058	-2786	-31840	29448	18264	15674	24524	-32768	-25244	17576	-956	1766	19327	2249	-27780	9692	-14288	32587	-15311	-2958	115	141	1
-8116	-5740	14688	1009	562	1576	-17948	-1376	-1020	-9301	7139	-6333	-21688	-15080	-6068	8779	4803	1308	-21960	21648	16260	-2128	20495	-32768	-17924	7528	-8632	-13575	16401	4969	-27880	6564	-17224	13375	-20890	4319	118	140	1
-7420	-7492	12652	622	1336	730	-19128	-1988	356	-12409	6945	-4933	-23332	-6684	-1540	4025	13995	-6784	-32768	30380	24424	2554	2041	-17335	-17172	6456	-14496	1891	11087	707	-26872	4516	-12176	-6698	-29780	4782	118	118	1
-7020	-7596	12540	-38	1624	580	-17580	-3312	824	-9742	5698	-4453	-14260	3896	-4232	-4720	12844	-6747	-10732	27016	13648	-5510	-12587	4058	-16408	7732	-13980	4954	10027	690	-24612	812	-6620	-8385	-29705	3071	126	118	1
-6552	-8296	11932	-242	1662	335	-16584	-4400	1844	388	4045	-4104	-11904	-4728	-2064	-10847	12356	-3004	-6220	13540	8684	-6005	-21304	15416	-6404	3760	-3388	11067	-1561	1214	-21084	-2072	-6312	-5247	-27360	2971	135	131	1
-6620	-7892	12456	-1492	1764	492	-17564	1680	3268	576	3101	-2688	-17816	-2752	-2440	-6046	15168	-2648	-2516	5952	6048	2167	-25869	20551	-4072	5980	-1884	4559	-7283	724	-15484	80	-6556	-7746	-22313	3543	132	108	1
-7604	-7548	11896	-899	1630	1943	-16656	1152	3064	-13906	3933	-2526	-19112	1500	880	-8848	15647	-6580	-164	6024	4124	10197	-26484	20468	-6220	4956	-864	-4794	-13370	294	-15288	1376	-5848	-8588	-19258	1945	116	114	1
-7560	-7672	11784	-152	1878	2503	-17160	-2960	2816	-16835	4416	-2015	-14172	2236	696	-16103	14242	-5987	-2464	9864	5320	11540	-25788	20180	-6164	1940	-1600	-10370	-18650	-325	-13340	-1108	-6712	-7402	-17690	-100	131	127	1
-7248	-7144	12100	-222	1447	3011	-14972	-2488	3196	-9209	4364	-2013	-14520	72	-292	-14321	10202	-4217	-4356	12224	7272	6428	-26840	22434	-7304	2688	-2632	-11588	-23396	-1504	-12176	-900	-6728	-7772	-16873	-556	129	120	1
-7576	-7392	12152	-361	739	2839	-14440	-1004	3740	-7886	5589	-1975	-14916	-904	4672	-6570	7659	-6513	-4696	8692	8768	4381	-27132	26102	-9504	1032	-3680	-12160	-27835	-2763	-12804	1484	-7496	-9716	-16432	686	128	119	1
-7752	-7368	11760	-594	-82	2830	-14812	-2216	3380	-5489	6900	-2550	-16188	-3532	6220	-3040	6886	-6599	-6204	6856	11096	8319	-25590	30269	-10120	612	-5096	-13668	-32128	-5233	-13064	3528	-9844	-14691	-14983	1710	122	111	1
-7500	-7300	12000	331	-395	3125	-15624	-1892	2892	-2572	8007	-3174	-18108	-6828	1856	-4116	5672	-4988	-11416	9864	14876	8675	-25945	32767	-10924	1468	-6548	-13264	-32768	-7282	-10852	3004	-12028	-21765	-13586	1667	81	122	1
-6912	-7040	12116	-506	291	2993	-14988	940	3988	-2000	8190	-1388	-17964	-4504	-296	50	3774	-4809	-14948	8256	18384	8171	-29726	32767	-12884	1576	-7936	-13782	-32768	-9242	-8236	-192	-12128	-22349	-11074	-8	130	122	1
-8596	-6896	12236	-1004	33	3799	-17904	-964	692	-302	9575	-5299	-16288	-1952	-80	1486	5178	-4013	-15740	6532	20412	11725	-31967	32767	-16192	1228	-8196	-11624	-32768	-11731	-6328	-1600	-9928	-10979	-6315	-855	129	123	1
-7092	-6904	12596	-1757	247	4397	-16684	-1356	-492	-616	9477	-3619	-14600	176	-1532	-118	5916	-2825	-19320	8732	24664	11928	-32768	32767	-21324	2864	-9992	-8231	-32768	-13934	-7308	-1624	-8884	1946	-669	-510	127	128	1
-7512	-6848	12368	-3007	776	4242	-17504	-1664	-424	-947	10191	-4152	-14844	304	-3616	-1040	6968	-2991	-27324	10252	28988	13063	-32768	32767	-27148	2612	-13464	-6086	-32768	-15680	-7120	-1920	-8496	10272	5322	607	127	132	1
-8028	-6920	12904	-4006	1810	4375	-18072	-1640	-424	-1928	10245	-3474	-16568	-2328	-2108	-2900	7368	-2343	-32768	5512	32767	15374	-32768	32767	-29356	6476	-16408	2414	-32768	-16874	-8248	2680	-2364	5597	7411	3491	127	131	1
-8792	-7224	13140	-1414	6872	5220	-19284	-296	-932	-2942	10870	-3226	-18168	-3588	-612	-3262	8080	-1711	-32768	692	26104	13162	-32768	28648	-32768	12712	-16864	3506	-32768	-15743	-14140	6120	9004	2832	-1110	7980	132	124	1
-8124	-6840	13292	-936	10468	6087	-18420	-28	-796	-2801	12067	-3413	-17452	-1248	1728	-2581	8311	-1588	-32768	-10876	4860	8310	-32768	17598	-26512	8348	-22064	187	-32768	-9361	-25288	4940	17716	624	-7416	9539	124	121	1
-8332	-7276	13220	-836	13747	6710	-18676	-292	-160	-956	13653	-3724	-17452	3220	3392	-1360	7402	-1840	-32768	-29276	-13956	16229	-21035	7007	-11260	9788	-26688	5883	-19779	-1664	-26528	-1160	32767	-18976	-592	3290	125	113	1
-8604	-6160	13084	-1358	17138	8071	-18480	180	-580	87	15594	-4224	-16952	1880	5024	-2113	7611	-585	-32768	-30204	-19232	13006	-4074	2604	1736	12252	-27648	73	2131	4923	-18660	-26768	32767	-21594	9298	406	122	119	1
-8248	-6516	13300	113	20920	8797	-19488	128	372	1035	17807	-4137	-17824	-2492	5712	-3094	8039	1418	-32768	-18548	-11260	-11889	12225	1375	-7664	10712	-26292	-15543	19893	7535	-20224	-26896	29352	-22036	10137	-390	124	117	1
-10128	-9924	12224	2047	25254	10718	-19676	148	624	1091	18076	-4078	-20364	-180	7780	-7336	4356	2305	-12756	7700	21668	-14578	17706	10622	-18816	-3988	4756	-17884	25203	7263	-6508	-2328	-3532	-7104	5946	-4590	156	127	1
-11664	-10684	11568	1303	31027	15923	-26596	4108	4864	-8295	22359	-4933	-21880	8020	16612	-13907	-4305	3980	32767	9224	23140	-12572	28806	-20442	-32768	4708	28188	-32768	7779	10125	1708	8028	-24204	26030	16564	7824	170	125	1
-17284	-32768	-9240	10406	32767	28720	-32768	5252	15756	-23194	26869	-2705	-27656	11784	28328	8786	-17031	9730	-32768	24	29656	-14600	31266	-15844	-10124	-12696	-24048	-25016	20580	3566	-32768	11188	20664	-32768	-15651	6700	132	136	1
-15468	-14232	14052	829	32767	32767	-32768	-656	11288	-13786	25406	-3740	-30804	6068	8192	-19107	-9163	8991	-6040	12284	14900	-19035	9028	-11233	-24368	13552	-4256	-2500	17384	15459	-27920	-18456	-8404	-14698	19446	16456	126	139	1
-19632	-15824	15804	494	32767	32767	-29256	-2748	488	-17919	27899	-1578	-25560	-11736	6156	-29535	-13531	7535	-16284	2316	15388	-8666	5037	-10974	-10684	1128	-9312	8802	13667	8397	8924	-9976	-12640	30774	10873	19597	120	133	1
-32768	-28568	24612	-9893	24467	32767	-32364	-15452	4640	-5973	25633	56	-27108	-15468	-10784	-18283	-15230	2965	-7048	8764	14252	-9870	2847	-8364	-16340	9192	-2720	19989	9472	8914	-6584	18784	-14280	26594	-2059	1338	124	126	1
-17708	-25692	19232	-12762	8515	32767	-22128	-4636	5844	4944	16308	-3327	-27996	-3616	-11356	-4738	-18583	-88	-10712	3108	14768	-2788	1527	-5367	-19092	5728	-6100	6246	8722	4926	-24704	28104	-6812	-7130	12396	2311	129	156	1
-20944	-28796	23104	-7386	-4172	32767	-15056	-4664	-8912	4989	9068	-1162	-26224	3244	-9496	2459	-20440	-1084	-8808	4364	13592	-1474	1702	-1783	-16972	6220	-5804	2780	8037	3078	-20476	1124	-7748	-8004	13364	5726	134	144	1
-20588	-32768	26784	-6204	-29512	9139	-14376	-7924	-10660	-11988	7825	2134	-24732	2708	-6556	3596	-19932	-1921	-8636	7068	13156	-844	1774	-835	-16644	6140	-3068	2070	6482	1944	-12020	252	-4768	882	15072	1553	107	150	1
-4476	-26144	2788	3062	-32768	-9951	-10740	880	3036	-9801	2516	2441	-24608	944	-6540	1477	-21644	125	-8520	7224	12852	-449	1725	-1317	-16284	3784	-1348	5877	4635	1572	-15804	5932	-4844	4755	16424	4105	113	137	1
4076	-12272	-3228	10626	-29989	-10326	-8688	-1324	2544	-3722	-6044	2767	-22056	-2540	-6184	258	-23139	-4092	-8172	7572	12996	-146	1882	-2476	-17124	3772	-1316	11901	3256	1764	-17772	3292	-3860	4367	16704	6604	122	118	1
3936	-3916	-2272	-411	-21625	-9765	-8092	-556	-1372	2363	-14298	3315	-18304	-5892	-6896	4636	-19952	-3878	-8408	5876	13236	662	2275	-2564	-17432	4156	-1952	9701	2762	1870	-17376	-1812	-912	8569	16010	7021	134	92	1
-1552	-11328	3404	-16174	-17550	-16702	-7348	-1448	-2436	5672	-19092	4681	-16280	-4540	-8860	9567	-18714	-3103	-9008	6400	12764	1165	2942	-2128	-15904	3716	-680	8442	2885	1206	-13048	-824	2244	14337	12961	4872	138	92	1
-5900	-22444	5992	-14498	-18163	-28132	-7528	-2420	-1420	6716	-23545	6420	-14844	-3600	-9252	14785	-18511	-2093	-8936	7120	12296	933	2484	-2431	-14544	5180	516	10735	2983	1251	-14060	3440	1276	14548	11327	2821	139	113	1
-6296	-16564	6708	-5789	-19461	-32768	-9208	-2880	-652	11764	-28217	6059	-12380	-4336	-9304	17272	-18242	-1977	-8960	7236	12244	613	1620	-2965	-15080	5396	688	8246	3617	1366	-16332	4764	1212	8431	11579	4317	145	119	1
-6032	-7372	7832	-9032	-19114	-32768	-9992	532	652	17427	-31211	10221	-10932	-4900	-9192	19798	-16317	-1075	-9008	6364	12448	298	994	-3466	-15232	3264	244	7292	4613	1684	-14928	1376	1760	4021	12240	5119	134	101	1
-8552	-9712	11488	-14669	-19829	-32768	-11256	284	-1428	16878	-32768	9783	-7612	-2140	-10636	22376	-12553	-86	-8736	6120	12724	209	833	-3455	-15504	3348	-244	6641	5596	1620	-17388	-696	2232	1946	11751	5099	122	120	1
-13492	-13464	15464	-13731	-22840	-32768	-13156	-908	-3032	15684	-32768	11983	-5236	1348	-12396	24401	-7785	863	-9024	5600	12644	61	987	-3135	-15172	2632	-800	5780	6697	2024	-16348	1840	-1424	4747	5321	3714	124	119	1
-14604	-11644	17788	-14535	-25438	-32768	-16284	720	-3668	13078	-32768	14997	-5476	3684	-13772	21419	-3770	797	-8800	6012	12788	258	1408	-2699	-15476	3280	-1644	3686	7485	1937	-15648	2852	-2992	2234	3766	2520	124	120	1
-17056	-14920	21196	-17791	-25758	-32768	-21572	976	-5012	8276	-32768	17099	-5188	2676	-14808	7396	-1445	3813	-8904	5888	12800	520	2101	-2747	-16436	2708	-2856	2044	7744	2055	-14824	3296	-2644	2727	6565	1636	131	122	1
-23552	-21608	27184	-18356	-24996	-32768	-30152	-1064	-6084	3068	-32768	19132	-5692	2180	-14216	-5667	4240	3898	-8868	5996	13328	1162	3552	-2868	-17348	3480	-3024	3555	7928	2197	-16140	3788	-3304	3047	8335	1939	117	124	1
-32768	-26456	32452	-15741	-24838	-32768	-32768	-5472	-6400	-2904	-32768	22536	-6724	1764	-7564	-2692	4272	1224	-9128	7088	13256	277	5756	-3823	-17612	3508	-1844	3587	8397	2433	-17648	3472	-2912	2936	7441	1927	114	125	1
-32768	-8664	31976	-14828	-25517	-32768	-32768	-15044	-9020	-7419	-32768	18055	-11032	-3416	916	5631	-3266	-4085	-9784	6528	13340	608	7997	-4218	-17684	2192	-812	3544	9723	2620	-19376	2716	3100	1798	6946	1867	109	123	1
-32768	5696	18588	-18779	-26974	-31467	-32768	-11028	-17200	5638	-32768	8885	-29948	-3420	18708	8875	-21267	-9423	-9396	5912	14004	570	10319	-4365	-17752	2996	-484	2292	11760	2443	-18992	-284	5728	2227	6318	1760	124	119	1
-32768	24400	3800	-16533	-15100	-20137	-23632	-5288	-26144	-1427	-28396	2669	-29988	-1896	32767	8885	-18129	-4614	-9732	7192	14280	-25	13317	-5331	-19700	2848	-824	879	13756	2993	-18928	-1736	3244	3738	6494	1477	129	118	1
-32768	32767	-1840	-8354	-4518	-8503	-4800	-15132	-32768	-13218	-6385	455	-9864	24516	32767	10179	11486	-7804	-9760	5152	14144	-422	16965	-5890	-18392	2504	-1112	-283	15971	2866	-18392	3828	4280	5397	7642	601	118	129	1
-32768	32767	-4192	-99	3716	8736	-10984	-16720	-27856	-1646	14817	-8325	-17316	15344	17848	4429	21353	-2708	-10676	7440	14060	-1100	20986	-7001	-20288	3972	-64	-1402	17880	2771	-20456	5648	2328	5819	6206	-734	127	124	1
-32768	10708	5520	11623	14005	16468	-17188	-12316	-23888	20325	25213	-11996	-20920	2952	9364	-2717	-1592	11443	-11596	8060	12592	-253	25163	-10513	-21408	2680	-244	1192	18934	4380	-20368	1636	3736	6799	4898	-959	133	123	1
-25600	-23272	23176	26963	28478	13073	-26008	3560	-7056	18582	28220	-19017	-5456	-5772	-9340	-9742	7660	1093	-11180	7812	12720	2710	30338	-14134	-21732	-140	464	6726	19967	5475	-19680	-2940	6716	12412	2464	-1585	126	127	1
32767	-32768	32767	32767	26301	4631	-32768	32767	32767	31526	11243	-13929	17108	-26916	-32768	-21615	25521	-23521	-11208	7680	13660	6387	32767	-20051	-26420	-1728	-792	10009	20096	5390	-21256	-7124	11076	15227	-5051	-3278	118	127	1
-32768	24608	8544	2549	25978	19891	-10572	-21708	-32252	21864	-5469	-598	-32768	-13124	-1780	32767	1445	6417	-13756	9164	13980	12095	32767	-24972	-32768	-10408	7940	29204	20745	3007	-26648	-9120	10736	12905	-11986	-9195	128	127	1
-28780	-32768	32767	32767	17788	3335	-32768	-15156	5868	8084	8794	-19582	-24676	21816	22632	32767	-4260	-4288	-27080	9564	4348	9728	32767	-32078	-22840	7764	-1848	26463	21344	3979	-17580	-9156	4788	17274	-11506	-8453	100	132	1
-13788	-680	23896	13172	5415	393	-21396	4536	-3968	17303	13582	-10566	-7000	16184	524	-1188	25097	-24572	-32768	8000	17984	15780	32767	-32485	-24768	15576	-1512	9559	25943	3269	-23132	12156	3792	24443	-14021	-3373	130	134	1
-6148	-6128	11868	3657	2829	478	-13072	-1448	-1720	-3032	11627	-9923	-1172	-308	-14112	-32768	21043	-11097	-30568	25988	24012	19008	27526	-32768	-26884	15820	-332	-1409	21458	576	-29568	18616	-12176	28681	-12818	-1962	125	139	1
-6920	-5668	14648	1678	533	607	-17548	-6928	-252	-10556	8015	-8221	-10340	-18852	-18480	-9149	2550	5323	-18852	18580	15824	9545	14608	-32768	-18736	11956	-5460	-19044	18456	4536	-27820	9100	-17596	10466	-17962	1961	118	145	1
-7840	-9160	11716	981	600	787	-17768	-1968	760	-8160	6202	-4413	-28224	-13860	-5704	6680	8792	-5997	-32768	27972	23840	-1894	4124	-30012	-16804	6992	-13552	-10031	13083	893	-28044	4332	-12772	-8913	-28772	1502	124	130	1
-7168	-6556	13364	609	1141	725	-18928	-1072	-668	-10321	5620	-4736	-14600	-2440	-3896	4608	13489	-6043	-13360	25820	15620	-7523	-19835	-8214	-12480	4008	-7036	7638	5902	-348	-25988	2508	-6980	-14675	-28858	1874	119	110	1
-6744	-8720	11972	-322	1689	108	-17456	-6648	1292	-3863	3424	-3692	-12244	4256	-4912	-11677	16976	-5128	-3276	14492	7876	-9004	-26374	1662	-7992	2304	-3012	13200	-892	-831	-23148	-92	-6976	-7615	-27039	2109	139	124	1
-6572	-7556	12492	-1723	1789	-158	-17120	-584	2864	3040	1634	-2266	-13900	-4252	-2992	-13483	16007	-1451	-440	6272	4696	-1923	-27097	6374	-5220	3044	-2344	9491	-6654	-1652	-18064	-856	-6896	-8026	-24094	1977	136	112	1
-7152	-7832	11900	-627	1668	1622	-16704	2548	4672	-14394	2948	-1277	-21268	-2480	-232	-10461	15614	-5435	-2628	7780	4792	6282	-27507	10035	-4660	5300	-2348	1677	-11999	-3133	-14300	2496	-6088	-11268	-20489	1009	131	119	1
-6792	-7620	12284	-75	1559	2605	-15840	-3152	4760	-19031	3705	-1247	-15960	1416	2428	-11157	12527	-7949	-6152	13044	5928	7154	-30624	14442	-5760	4392	-2172	-4068	-16912	-3313	-11712	1416	-6712	-10855	-17615	755	116	136	1
-7444	-8080	12008	-270	1350	3452	-14640	-3052	5004	-8542	3897	-1453	-14676	1856	2980	-4917	6289	-6065	-4776	13336	5160	2512	-31367	18469	-8000	2192	-2040	-7470	-21631	-3707	-11964	-196	-5872	-10351	-16756	-16	120	126	1
-7652	-6944	12072	239	881	3135	-13884	-860	4200	-5966	5508	-1999	-16564	-2280	7124	-5495	4067	-7460	-3216	9104	5896	2379	-28493	24529	-7960	1680	-3488	-10562	-25747	-4911	-12756	1324	-7124	-12156	-16168	430	126	110	1
-7416	-7336	12064	1040	384	2842	-14736	-1292	4368	-6165	7360	-2435	-18676	-4736	5752	-8798	5381	-6146	-5656	9228	9076	6189	-25673	30577	-9768	2348	-4328	-12240	-30397	-6934	-12792	3044	-9604	-15543	-14710	693	132	121	1
-7212	-8204	11536	350	-567	2927	-15776	-2356	3764	-4823	8559	-2934	-18312	-4252	2028	-5240	4172	-5500	-11968	11632	13580	6983	-26560	32767	-10184	4100	-5888	-15958	-32768	-8612	-11608	3628	-10204	-18669	-12606	321	129	121	1
-7028	-7608	12132	330	-289	3452	-19812	2980	4424	-1914	8394	-2590	-16796	-1848	-816	-1878	2788	-4860	-14584	10552	16112	5405	-30151	32767	-12936	3556	-6692	-17988	-32768	-10645	-8972	472	-11136	-20661	-9129	-163	128	125	1
-7004	-7292	12160	311	-43	3481	-17984	532	1352	-1910	11777	-1242	-14552	-1968	-1104	-1927	5323	-3892	-16532	8080	18216	7444	-31483	32767	-15504	2852	-7912	-18704	-32768	-13463	-7480	-564	-12180	-16452	-6086	-1296	121	123	1
-7052	-7120	12316	-1440	544	4036	-16780	-312	320	-1674	9226	-4090	-14932	-1608	-2320	-2298	5896	-2981	-20232	10992	23252	9523	-32740	32767	-20472	3516	-10472	-13536	-32768	-17039	-6228	-612	-11900	-5753	-1119	-359	117	123	1
-7620	-7624	12200	-1978	985	4327	-16884	-2376	796	-2694	10064	-3954	-14576	-1472	-2032	-3233	5716	-2913	-27780	14728	27384	8800	-32768	32767	-26740	3216	-12040	-7437	-32768	-19278	-6928	-1336	-11008	6587	5132	485	111	120	1
-7564	-7272	12516	-3111	871	4815	-17568	-2320	432	-2632	10250	-3965	-16436	-3676	-588	-4223	7124	-1793	-32768	7544	31684	7840	-32228	32767	-29840	6284	-14872	1902	-32768	-18854	-9324	1676	-5028	6382	6881	2047	120	123	1
-7336	-8132	13192	-4367	3157	4951	-19416	-992	288	-3871	10634	-3228	-18400	-4668	76	-3797	7911	-1424	-32768	8772	30236	8662	-30667	28104	-32768	18436	-15684	7615	-32768	-17020	-9276	3044	-3740	5164	6606	2848	131	125	1
-8808	-7464	13356	-1021	8406	7103	-18308	-320	276	-4596	11954	-4024	-17664	-1664	2216	-3838	7267	-1517	-32768	-13212	-1000	15415	-32768	14489	-28460	8480	-23456	215	-32768	-8004	-26784	2456	18340	3560	-10749	7700	130	121	1
-7888	-6108	13768	-878	11725	7781	-18632	12	44	-2522	13625	-4172	-17028	3532	4032	-2726	5709	-2230	-32768	-32716	-10172	23006	-27264	6252	-26232	8024	-23632	1831	-32768	-6739	-27988	-2448	32767	-18235	-1298	132	129	115	1
-8188	-6208	13732	-348	15962	8083	-19028	496	-800	-570	15585	-4714	-16456	2400	5204	-2921	6521	-1009	-32768	-32768	-25760	15299	-9515	-1993	2736	15064	-29536	11500	428	6034	-18588	-26504	32767	-16822	8118	1390	127	124	1
-7412	-6000	12036	-1720	20989	8808	-18924	388	-920	-361	15985	-4719	-17996	-4200	5148	-4139	8626	1853	-32768	-16564	-14732	-12955	14007	-8257	-7016	13888	-26904	-12871	19321	7747	-22448	-14264	12244	702	7631	-5182	145	121	1
-10376	-9804	12504	1401	24484	10082	-21676	-1164	2816	-177	19727	-5038	-19976	-2716	4952	-6540	5282	2820	-1224	16220	32767	-14406	10691	4177	-23276	-16236	12856	-16431	22547	4417	-7304	848	-5880	12524	6280	-3353	167	134	1
-10772	-9808	12216	1465	29267	14912	-25248	1208	2616	-6855	21126	-6169	-20940	5028	11680	-11239	-434	2462	28868	-6300	17016	-1808	32767	-17196	-32768	3072	8720	-32768	10293	11424	-10728	-392	-19612	-3567	10492	1879	170	124	1
-9872	-11020	14976	1097	32767	20909	-32768	5092	13232	-18865	24749	-4688	-30884	4272	26960	-7883	-14993	7658	-32768	-4404	32767	-7375	30309	-10566	-10592	-3364	-12964	-22038	19258	2990	-31404	12576	8420	-32768	-17944	3028	158	138	1
-15572	-19404	14368	-334	32767	32440	-32476	-3088	15588	-21565	24511	-825	-23788	5744	5952	-14983	-6920	9127	-10336	15256	10012	-13533	4480	-9896	-27976	8992	-3408	-6118	16327	15555	-32768	-16220	1336	-14019	16555	15193	123	146	1
-20412	-23256	10116	-8152	32767	32767	-27620	4324	5100	-14571	26586	-6136	-27080	-4620	9144	-20381	-14430	6504	-11536	2672	14684	-6835	2544	-9544	-8384	6620	-6380	2697	13720	7647	2952	-7168	-13116	32767	16836	18046	107	137	1
-32768	-25316	24968	-12677	32767	32767	-32768	-14744	1796	-11606	26950	987	-26884	-13932	-8148	-22746	-13339	4277	-8076	8572	13220	-8063	729	-6375	-15916	3288	-2164	19593	9694	8012	-4320	13496	-14100	27692	3792	9135	116	127	1
-26876	-23828	28088	-24413	11550	32767	-25160	-5652	7220	445	19524	-3165	-29204	-2316	-11240	-7237	-17024	800	-9720	6600	15572	-5522	1053	-7230	-18588	8332	-3776	14511	8213	7014	-20632	29912	-3048	-4484	8841	3993	120	157	1
-12084	-21844	23300	-8383	5224	32767	-16932	-2180	-4868	4155	9604	-3132	-25724	7576	-7732	-1658	-20690	567	-9416	4864	14660	-2505	1309	-3254	-17240	7080	-4724	-921	9032	3018	-22952	1056	-5784	-11732	14133	2650	123	159	1
-32768	-32768	32767	-8336	-20836	19555	-14328	-7648	-11428	-14165	7242	-2329	-24000	5944	-6752	-1806	-21520	-134	-7988	5780	13828	-1502	2005	-1130	-16824	2732	-2300	-3600	8719	1412	-12068	-4980	-3628	-2091	13378	358	116	134	1
-4612	-30092	6972	-1849	-32768	-8625	-11300	928	5368	-14003	3388	45	-26232	1436	-5880	-4369	-22655	197	-8124	8120	12776	-964	2463	-1743	-16056	788	516	4806	6767	1944	-14628	1620	-1248	1893	14034	3471	133	130	1
4732	-14124	-1228	7397	-32737	-10634	-9944	-928	4176	-7151	-5204	-475	-24536	-1792	-5736	-5054	-22765	-3787	-9328	7156	12516	-675	1963	-3429	-16312	5068	-1424	16180	5467	3429	-17376	2628	-2152	7337	14916	7002	131	95	1
5692	-3728	-1524	-3895	-24377	-9940	-8796	1328	292	-870	-13952	-214	-18492	-4772	-6332	-1611	-20007	-2636	-8224	6044	13376	-472	1922	-3285	-17360	5144	-1552	9886	5177	2578	-17388	-1252	-1524	14200	15395	7331	121	95	1
1684	-10864	3440	-20286	-17561	-15854	-9296	1156	-1136	3344	-19396	1781	-17088	-3616	-7844	4313	-19112	-1453	-8464	5760	13324	-407	2705	-2583	-16428	2080	-1608	6150	5481	1661	-13376	-836	968	15713	12844	4558	132	118	1
-2004	-21252	6256	-16931	-15338	-25052	-9004	984	-444	3957	-24359	3543	-15708	-3468	-8416	9640	-18588	-757	-8816	6604	12732	65	2628	-2336	-14912	4512	-780	7458	5418	1666	-14108	2788	-504	11216	12512	2377	144	122	1
-2980	-14436	9080	-9513	-14770	-32570	-9876	-340	-1560	8999	-29340	3216	-14072	-3784	-8820	12094	-17798	-591	-8980	6636	12524	-67	2112	-2931	-15568	4676	-648	6809	5592	1749	-15816	4088	-1000	6696	12989	4236	131	115	1
-4560	-7816	12484	-13909	-14298	-32768	-9760	-884	-3404	15057	-32768	3411	-11288	-4656	-9604	14457	-15856	-221	-8752	6708	12576	-251	1762	-3313	-15872	3980	-744	6284	5957	1851	-15576	2416	-48	4906	12703	4239	128	103	1
-7976	-10960	16708	-17185	-17029	-32768	-10852	-740	-3116	12246	-32768	7650	-7676	-3416	-11100	18117	-12236	1459	-8820	6144	12780	27	1583	-3446	-15772	3176	-1780	4848	6490	1791	-17284	2936	-1300	1871	10592	4382	118	112	1
-11768	-12596	19472	-14526	-21886	-32768	-13852	1140	-3340	13083	-32768	10493	-4640	-1388	-12884	22378	-7294	1623	-8408	5520	13244	9	2092	-3268	-16080	2432	-2388	4418	6968	1670	-15520	2744	-3956	1146	6841	3715	125	123	1
-13428	-10684	20744	-15153	-24796	-32768	-16280	1464	-4404	13233	-32768	14904	-2732	-1624	-13716	20135	-3456	1121	-8556	5516	13296	384	2785	-3016	-16296	3172	-2964	3115	7351	1588	-15696	2060	-3624	-116	6036	2414	127	125	1
-17928	-15724	24832	-16730	-26474	-32768	-16800	1512	-4752	12719	-32768	15350	-4320	1256	-15544	8150	294	2516	-8736	5816	13304	186	4645	-3489	-16644	2656	-3396	2105	7457	1592	-15568	2144	-3040	971	7765	1461	130	125	1
