#Activity	walking 
#ActivityID	1 
#Date 09-30-14-27
acc_rf_x	acc_rf_y	acc_rf_z	gyro_rf_x	gyro_rf_y	gyro_rf_z	acc_rs_x	acc_rs_y	acc_rs_z	gyro_rs_x	gyro_rs_y	gyro_rs_z	acc_rt_x	acc_rt_y	acc_rt_z	gyro_rt_x	gyro_rt_y	gyro_rt_z	acc_lf_x	acc_lf_y	acc_lf_z	gyro_lf_x	gyro_lf_y	gyro_lf_z	acc_ls_x	acc_ls_y	acc_ls_z	gyro_ls_x	gyro_ls_y	gyro_ls_z	acc_lt_x	acc_lt_y	acc_lt_z	gyro_lt_x	gyro_lt_y	gyro_lt_z	EMG_r	EMG_l	act
-8828	-4920	14612	992	8341	3341	-17744	104	-1300	2008	12862	538	-18120	-3900	3832	403	6841	3334	-32768	-16156	-16464	2321	-4426	11423	-3484	7680	-5776	-6018	-515	2274	-17396	3496	27364	-1359	-3140	2565	110	78	1
-8880	-3888	14848	1453	11342	4059	-18216	1440	-2024	3530	14426	870	-17228	-4268	1632	-4548	3553	3231	-32768	-6100	-7564	-11145	18883	5892	-10316	5352	-12564	-10953	13608	4379	-16512	2852	13756	6319	2777	228	120	81	1
-9108	-4592	15820	1473	15016	4604	-18716	1728	-2968	3762	16446	1352	-19308	-4048	152	-6403	1317	2692	-15948	-3224	11572	-16212	21308	1913	-12864	7292	-7092	-9451	21000	7234	-13012	232	1700	6875	2211	1626	126	73	1
-9612	-6344	16856	1167	19462	6389	-21476	3792	-2344	1541	18590	489	-21164	-4056	1560	-1773	-517	1531	-25504	2832	18428	-14911	20064	2014	-31016	-9536	9336	-8170	12035	4808	-7308	6348	-6496	-3760	5401	1075	128	79	1
-8796	-5436	18324	-148	25754	8789	-24596	3468	-2456	-1695	20933	50	-23648	-6520	6776	2762	-3067	58	-2432	-14256	11836	-6129	31374	-2477	-32768	-9568	7572	-9762	10642	3973	-18616	6092	-17084	2318	11115	3228	134	100	1
-9696	-11032	18952	-1880	32767	12628	-29648	6296	4328	-4738	22105	309	-24680	-8880	15556	-2409	-18433	-2683	-24888	-8052	28252	-2217	19772	-8772	-18544	-2904	-9120	-9946	14782	4176	-26604	1436	19020	-32768	447	1081	141	123	1
-9980	-10860	19948	-1727	32767	20810	-30460	7032	4144	-8673	25031	-2640	-23320	-3396	12348	-1498	-19444	-3124	-11968	12912	16292	918	15291	-7984	-18772	-2000	-9104	-8049	14574	4775	-18464	-6116	-5044	201	10800	360	145	140	1
-24704	-10684	19720	-1867	32767	26339	-29412	3476	-1896	-14479	27395	-3210	-23544	-1976	7148	662	-18239	-2318	-24204	12768	18924	-3884	8935	-4751	-18408	8528	-7356	643	11593	7735	-16804	-7284	-1096	2213	9730	3058	145	127	1
-26632	-8280	18348	-2789	32767	27016	-25484	-4508	-9548	-16014	28553	-611	-19948	-8076	-5096	-8176	-15065	-3744	-6264	3292	15868	-2949	4167	-2949	-17280	1676	-5296	1917	9631	8122	-14960	5924	-5880	24690	8677	3416	154	130	1
-20180	-6524	13532	309	32767	29164	-21116	-6228	-14604	-8883	24108	3309	-20732	-7788	-14336	-7279	-13000	-8066	-9740	3832	15644	-2686	2317	-2092	-15400	3192	-2880	6594	9651	6219	-13048	8996	-884	9226	6019	5549	160	110	1
-25828	-11616	15732	-3201	32767	26682	-17696	-5848	-11132	5512	15735	5906	-24496	-4180	-12932	10890	-19284	-9214	-7768	7456	14196	-2413	2316	-1920	-17260	5080	-3560	9732	8338	4835	-14656	8660	-920	8799	10695	4073	177	117	1
-2344	-22040	22208	11369	27045	30475	-11144	-4932	-11560	15282	8151	5912	-21908	-1324	-6996	23902	-20414	-9884	-8080	4316	14364	-1705	1601	-1276	-17168	5756	-3784	9725	8062	4609	-15644	7532	-1928	8719	8801	2187	188	143	1
-26500	-7692	16308	14497	5314	16006	-5744	-576	-14876	18225	2277	4280	-22288	-3488	-5556	15192	-20929	-10713	-7932	4252	14736	-1349	1308	-760	-17348	3736	-3532	-1185	6853	2769	-16512	6724	-752	2135	10898	1432	191	147	1
-7828	-5908	22332	2491	-23655	-11879	-1620	1940	-13480	7825	-2854	1922	-21212	-1012	-6024	8169	-18052	-9736	-7024	5060	14104	-1341	1540	-445	-16500	1524	-1880	1100	6382	1582	-15344	5448	-308	295	12518	254	184	141	1
4744	-11120	12164	-1311	-31666	-23965	-7448	6552	-484	4888	-11289	2286	-18068	1548	-6128	6125	-15780	-9029	-7504	5880	14356	-1243	2097	-780	-16848	3240	-2056	4577	5304	1473	-15816	4684	-692	1302	12218	899	174	138	1
5164	-10280	8900	3091	-32768	-23798	-7140	1848	-3728	-97	-18708	3592	-15960	-216	-6020	4449	-14700	-8938	-8612	4360	14384	-738	2405	-660	-17040	3592	-4392	2713	4571	1329	-16868	3424	-704	2077	13467	1278	165	132	1
-660	-5364	8980	6393	-32768	-20747	-3608	-4060	-5732	463	-23992	3591	-12212	-80	-6044	3285	-9846	-7273	-9172	4044	14712	-236	2309	-603	-15428	516	-3652	2019	4463	1166	-15956	1140	-1164	1701	14378	1741	148	127	1
-4112	-2652	10172	3997	-32768	-19509	-4408	-2768	-7160	4611	-29996	3150	-10508	1344	-6340	603	-7556	-6465	-8516	4588	14304	614	1816	-96	-14976	2208	-2188	2571	4461	1383	-15124	780	-308	1869	13687	1948	131	133	1
-7272	-2960	11884	-369	-32768	-18946	-7456	-980	-9284	6352	-32768	4180	-10188	380	-7040	-1049	-5664	-5862	-8340	4800	14204	468	1438	-367	-15372	3440	-1200	2262	4858	2017	-15556	2712	1024	2515	11767	1969	119	139	1
-9840	-4976	12656	-2635	-32768	-18222	-11444	484	-9012	7230	-32768	6318	-9996	1328	-7648	1188	-1518	-6247	-7780	6620	13628	-182	961	-1084	-16716	4532	-136	2592	5276	2598	-15484	3956	2044	2039	10297	2435	108	144	1
-14244	-4836	15412	-4937	-32768	-17635	-10612	2060	-10732	4663	-32768	8289	-8540	3496	-7340	5691	664	-4221	-8144	5740	13644	-388	1009	-2089	-17028	3128	-2172	-278	4943	3197	-15544	3772	1080	167	12087	3397	121	148	1
-15656	-4836	17988	-8848	-32768	-17788	-13908	6252	-13044	-1301	-32768	8183	-7516	4468	-5420	9499	836	-1988	-8348	4032	14460	134	1423	-1961	-15980	-36	-2388	1180	6427	2349	-15868	3040	360	-1582	12591	3089	129	153	1
-19008	-4472	21624	-14137	-32768	-17229	-19464	8592	-13712	-15837	-32768	7428	-8728	5592	-3004	10178	-831	167	-8388	4412	14692	476	2264	-1584	-15756	2164	-2140	2522	6678	2284	-15364	3060	-272	-2008	12253	1531	130	157	1
-31168	-6556	25124	-18868	-32768	-14627	-20308	4628	-14860	-28779	-32768	3001	-9384	5340	60	5339	-1206	697	-8380	5096	14084	62	2542	-1955	-15356	3020	72	1875	8062	2718	-16600	5424	-152	-664	9121	1293	133	185	1
-32768	-5340	22136	-20322	-32768	-13565	-18296	-6936	-14564	-32768	-32768	-3647	-9404	4888	268	4793	-1152	555	-7916	5804	14300	-438	2909	-2646	-16060	4304	-1284	-807	8987	2830	-16984	5144	-220	-340	6076	2674	140	189	1
-32768	-4820	13292	-18718	-32768	-10510	-23072	-3596	-11484	-19709	-32768	-6711	-18240	-8248	4008	-4115	-3116	-4496	-8620	4340	15300	-45	4941	-2985	-18020	776	-3156	-2033	9985	2569	-18632	1996	2108	-159	7769	2876	161	205	1
-32768	5372	4984	-18477	-31628	-9646	-21876	2316	-9748	-6404	-32191	-7252	-20196	-9132	16172	-956	-1940	-3667	-7680	4688	16168	487	7841	-3196	-17648	-268	-1368	2039	11285	3118	-18000	200	3260	1898	9406	2757	224	249	1
-32768	8876	-3156	-13697	-17508	-13647	-12228	-1356	-10056	-2173	-21095	-4261	-15788	-17072	23100	1190	18	-3249	-7896	4852	16080	604	11356	-3831	-17668	1500	612	1773	13499	3797	-18724	572	2768	3986	6873	1851	223	233	1
-32768	14404	-13016	1485	-5418	-13820	-5316	124	-6160	511	-4402	-1749	-12144	-19940	22652	-6161	2049	-1662	-8284	5548	16688	430	15454	-4683	-18228	1980	-92	-708	16003	4362	-19836	1732	4684	3248	3660	672	216	215	1
-32768	19648	-11856	11668	14022	-6334	-9592	-4080	-10808	6762	11815	-288	-14608	-10436	11108	-6908	598	1577	-8696	5204	16552	743	20480	-5733	-19448	692	-376	-889	18508	4614	-20528	2940	5248	5610	1918	-310	187	204	1
-24448	6644	-2804	17083	22903	5844	-12648	-3632	-15176	18215	18206	756	-15328	-6496	-588	-11632	4487	3322	-8372	6388	17092	1375	26970	-7834	-22056	-412	-280	235	20794	5539	-20632	2980	5064	6247	1409	-471	163	195	1
10400	-11176	32767	8417	14609	-1690	-21776	9248	16364	21240	13787	2111	-14892	-2092	-772	-12107	3341	3460	-7680	8476	19900	2210	32767	-11094	-28080	-2964	5228	4196	23553	6281	-24036	304	13528	2819	-10458	-1800	128	190	1
-1472	-516	11528	9858	31528	6096	-32768	8624	-4776	25111	12507	1092	-23168	436	6704	-96	-6088	5889	-12116	8868	21084	2185	32767	-18554	-31728	-2192	1468	6473	24534	8068	-24112	-5988	11588	-3227	-12412	-4223	100	180	1
-27720	6292	28288	2808	19928	6364	-9668	4212	-6372	9524	13712	1656	-22900	-16456	5328	15846	1976	1862	-20136	12908	22412	4000	32767	-22322	-32768	-2596	1612	9049	25678	8728	-24904	-4436	13188	-2588	-16193	-9957	86	182	1
-18728	-16092	12912	7994	10783	7445	-15440	-3644	-10768	6669	14899	-2253	-16252	8008	-3420	3024	13623	3327	-23728	10628	22848	5125	32767	-23581	-30464	4620	-728	9115	25807	7025	-24188	7212	2584	14581	-21823	-7656	60	146	1
-14820	7836	20784	9548	6335	7254	-21908	-1688	-9868	9299	13640	-6745	-12252	12916	-10560	-1101	13655	1751	-18528	5148	15256	3322	32767	-26558	-23120	12716	-7040	5106	23103	3887	-22524	9600	-3996	18360	-30859	-3628	17	114	1
-7596	-9584	12732	4784	2574	2094	-15216	8644	-5976	2462	13109	-2542	-12852	-1608	-916	-5673	3574	-706	-32768	7540	21516	2809	32767	-23353	-17648	8292	-12612	-6921	19001	2620	-24512	12316	-8680	16019	-26133	-2437	25	110	1
-9592	-3696	14832	3380	2226	2776	-17008	-1132	-6344	-5578	12450	-2903	-18048	-6808	-5432	-8716	11601	1377	-9760	16392	25100	2825	32767	-21492	-13496	2188	-4964	-9369	11306	1413	-26864	8756	-10376	-1582	-25727	20	45	113	1
-9508	-4528	13860	2269	1744	2305	-18876	-1552	-6180	-2344	9263	-3286	-16120	-228	-2484	-7359	7964	2848	21104	23016	20224	-10363	21817	-20855	-8140	9176	-9160	-8815	4766	-3607	-22560	6600	-6584	-12284	-24672	3013	90	88	1
-8464	-3916	13908	1554	2016	1558	-16180	772	-5288	832	8723	-1857	-16312	-2604	-2580	-7627	7280	5928	-25668	15640	30932	-15077	-19034	3862	268	11232	-19464	-2839	-458	-6849	-19176	3272	-1116	-13179	-22165	3729	95	90	1
-7852	-5404	13492	1214	1877	1614	-16848	360	-4956	-1755	8268	-2089	-15860	-5296	-4604	-7173	8208	7207	-196	12156	19424	-13796	-32768	14474	-4252	-224	-2112	-5038	-6373	-4626	-20096	2328	-2372	-5983	-19264	1887	104	86	1
-8320	-4804	13280	1079	2078	1620	-17680	-1948	-5008	-4486	7049	-1674	-16120	-6500	-4756	-4456	9361	7062	684	7708	18604	-13687	-32768	15080	-7124	1692	-5684	-4834	-15127	-7163	-19128	3932	-5692	-1210	-15371	1031	106	68	1
-8532	-3832	13472	708	2322	1235	-17184	-2060	-4784	18	5278	-637	-17060	-4676	-2108	224	10773	6510	2364	-2288	8420	-2741	-32768	11811	-4664	2852	-6260	-6471	-23587	-8810	-15148	3848	-6804	-1696	-14069	-868	100	50	1
-8532	-4008	13448	220	2424	1005	-16304	520	-3844	3119	5221	-180	-15720	-2596	-812	2519	11484	6926	-1724	1476	7660	2071	-32768	7811	-3300	-1472	-6020	-3408	-28510	-12494	-10748	3592	-7620	-4705	-10863	-1421	97	56	1
-8692	-3920	13340	-117	2568	1143	-16328	1036	-3668	3033	5174	-158	-14812	-304	-1112	1209	11102	6309	-5244	2396	9744	4759	-32768	5544	-3992	524	-8412	1286	-32768	-14035	-8960	2532	-8540	-6540	-6855	-1380	93	60	1
-8676	-3972	13372	-166	2642	1189	-16008	420	-3384	-873	5879	-908	-15172	-2636	-1356	-2090	10508	6125	-9564	3104	12512	7566	-32768	8425	-4852	-352	-9688	5578	-32768	-14811	-6720	1876	-8788	-6708	-3220	-742	92	64	1
-8248	-3744	13152	-643	2495	1275	-14456	1088	-5556	-5532	9679	-1135	-16248	-3388	-2060	-3901	10716	6037	-14452	4856	15392	8831	-32768	13020	-8448	4008	-11304	5575	-32768	-15617	-4920	1284	-9504	-5842	295	758	95	73	1
-9556	-3676	13612	4	3510	1384	-16992	7428	-776	-12272	-1072	2425	-16008	-1612	-1364	-1006	11256	5925	-13168	4508	16236	9562	-32768	16275	-13740	3708	-10596	2223	-32768	-17724	-4524	1176	-9928	-6953	2003	1914	96	83	1
-9096	-3420	13360	-560	3337	1004	-15144	-2296	-4128	5736	9429	-2249	-15528	-2012	-308	-842	11902	6014	-19004	3420	22048	13092	-32768	17775	-19276	2524	-12536	58	-32768	-20006	-6992	2824	-10360	-6517	1855	1041	95	87	1
-8988	-4468	13084	-84	3358	1426	-16100	-1088	-2884	4715	8353	-957	-15176	-3800	-288	-1987	11857	5108	-32768	5416	29148	16623	-32768	16012	-21344	3644	-15724	6836	-32768	-18426	-10828	3356	-5224	-9326	-730	-839	99	95	1
-9012	-3572	13056	556	3796	1889	-15816	1208	-3056	524	7426	-436	-14392	-4220	-388	-769	11538	4506	-32768	6220	27832	16518	-32768	13683	-22212	5508	-11888	17958	-32768	-13681	-14520	2960	3780	-7201	-5656	-980	101	99	1
-9076	-4312	13200	588	4570	2235	-16212	1200	-3524	-2658	7862	-229	-15880	-3292	-1336	-1217	10612	4316	-32768	2524	13500	15907	-32768	11664	-20136	8780	-10932	13439	-32768	-7153	-16900	-764	7948	-2009	-4288	-2133	105	93	1
-9256	-4136	13496	445	5814	2875	-17128	660	-2160	-1098	10110	-1102	-17048	-4660	-1376	-745	10664	4011	-32768	-3836	4520	16281	-31861	10361	-20804	4384	-10840	2632	-32768	-4134	-17168	-1468	22900	-6274	3058	-2650	98	91	1
-9144	-3712	14268	1060	7754	3310	-16940	-560	-476	312	11758	-460	-16476	-7572	-912	-3341	9332	3395	-32768	-11344	-4460	12005	-17316	13828	-13136	4764	-5668	6819	-21399	-2967	-20604	-4568	32767	-6610	687	276	98	84	1
-9168	-3904	14884	1730	10146	3587	-17892	-400	-1104	1819	13291	708	-16768	-7524	-936	-3536	9030	3357	-32768	-16500	-17512	1277	-3903	11906	-1704	7168	-5236	782	-490	1458	-18648	-3076	30812	-2506	1445	1706	99	108	1
-9424	-4400	15376	2035	13321	4429	-19512	2272	-2480	3338	15146	853	-18532	-5432	2000	-5609	4758	3263	-32768	-12876	-10044	-2208	11746	2159	-4456	7608	-11904	-6214	15699	4936	-17172	744	15360	13075	4620	293	104	109	1
-9296	-3484	15372	2066	17075	5529	-19108	3124	-1664	2007	17376	340	-18888	-4236	60	-8597	183	3324	-7604	4444	2508	-9918	23255	-4479	-17352	3096	-5152	-8133	20633	6868	-12928	-3384	1100	12322	4952	1153	113	90	1
-9772	-5044	16168	953	21948	6772	-20248	4208	-984	-1739	20145	-104	-20544	-3344	4072	-2126	-2423	1980	8244	19188	28688	-4435	13741	-485	-28968	-12248	10444	-4705	11213	3403	-7580	-368	-6640	1466	3616	161	121	102	1
-9152	-6204	18528	236	28532	9845	-24956	2220	-1444	-3180	22634	-736	-23652	-6628	10836	2999	-7666	-116	-4700	-6060	14556	-5534	32767	-5709	-23324	740	-3580	-20812	13284	7311	-24408	5916	-10188	830	6984	740	133	115	1
-11332	-12628	19372	130	32767	14400	-25936	1956	-2164	-3420	23061	-716	-23260	-9356	11088	-6664	-16251	-2822	-27496	-4452	28460	701	19064	-7130	-18556	-2040	-9360	-10578	16200	5581	-25224	7232	18896	-32768	-93	920	142	110	1
-12492	-11588	20740	566	32767	24268	-32052	6636	2448	-8422	25262	-4374	-25336	-4352	12984	-836	-19126	-2471	-11324	14640	14428	49	15079	-6723	-14844	3108	-6156	-939	13733	6715	-16652	-5832	-6992	3340	12181	3481	151	144	1
-24580	-8248	21520	-2109	32767	27007	-30128	5324	-1788	-15308	27258	-3958	-22580	-5636	3920	-2125	-18487	-1707	-20896	3688	16996	-4568	4530	-4417	-17744	11780	-10728	118	13084	9256	-13108	-4200	-4200	7585	8796	5155	159	125	1
-26640	-8200	18640	-3916	32767	26701	-25324	-4536	-11296	-17763	27404	-460	-21424	-7004	-6380	-6062	-16299	-4804	-6940	6708	15048	-3512	3832	-2889	-17700	-1652	-5376	-1172	9938	7830	-14008	7044	-6612	23858	9051	5251	159	114	1
-29168	-1808	16172	-1719	32767	29014	-21476	-5772	-13616	-13278	22064	3036	-24056	-7176	-14872	-512	-15947	-8009	-5992	2812	15936	-1393	2471	-1746	-16012	596	-3248	9469	9980	6411	-13788	10100	-2440	4249	7732	5597	179	109	1
-15060	-14192	17988	-4549	32767	26035	-17416	-4256	-9392	2638	12567	7000	-26284	-3092	-10848	15528	-20425	-8810	-8752	6860	14072	-1088	1986	-1603	-17932	7996	-4708	10080	8154	4921	-14432	9800	-928	3569	8536	5536	189	106	1
6988	-22688	17204	9775	32767	30157	-11916	-4420	-3836	16499	3204	7375	-23504	-2056	-6032	16483	-21413	-10633	-8632	5464	14444	-558	2252	-1054	-16460	6732	-5292	183	7305	3144	-16432	6808	-2516	8928	9559	1290	193	134	1
-23484	-14556	20652	12837	2506	6621	-3688	-2872	-25588	10732	-2335	4236	-20336	-524	-6308	12519	-19477	-11160	-8052	5232	14760	-143	2425	-696	-17924	1736	-3924	-761	6115	2745	-17172	6192	-1452	5989	12190	1378	193	149	1
-10848	-9560	18832	9756	-27935	-19301	-808	2964	-9592	5535	-5545	1509	-17724	-380	-5296	7097	-18204	-10415	-7836	6180	14088	-16	2596	-478	-16824	1216	-2112	4579	5450	1965	-15488	7908	-584	3502	14158	1360	185	148	1
-2252	-7512	12420	6573	-32768	-29273	-7208	3356	-3752	7155	-12160	2220	-18088	-604	-6856	5471	-15654	-10257	-8296	6012	14340	329	2827	-1131	-17360	4872	-2964	4955	4514	2156	-16720	5616	-904	2529	15023	2390	175	138	1
-2644	-4304	7520	5683	-32768	-28187	-4768	-112	-6032	7244	-19840	1772	-14412	-760	-6484	3778	-12870	-9288	-8472	5324	14184	636	2847	-1344	-16452	2440	-2804	1404	4298	1651	-16652	2304	376	1881	15666	2377	163	145	1
-2172	420	7772	2056	-32768	-24634	-3080	-2160	-5932	3559	-25939	2956	-12044	-568	-6688	3680	-9166	-7645	-8548	4588	14020	789	2945	-1355	-15524	1064	-1664	2063	4599	1726	-15760	280	1880	2164	14231	2146	141	146	1
-4524	-204	7800	-3376	-32768	-21579	-4964	-3336	-6484	7654	-31632	2975	-10908	1064	-7336	2102	-6663	-6644	-8272	5380	14000	773	3068	-1549	-15724	1560	-792	2615	5257	2560	-15444	464	2152	2437	13354	2206	111	147	1
-5880	-5352	8956	-3932	-32768	-17632	-8572	-688	-7688	8476	-32768	4219	-10040	2240	-7896	1407	-4900	-6230	-8436	5508	14084	786	3486	-1722	-15720	1648	-468	2026	6059	3064	-15924	1940	2772	1825	13104	2538	122	153	1
-9984	-5704	11852	-2223	-32768	-14879	-11392	1576	-10156	6175	-32768	6555	-8972	1984	-7328	2415	-767	-5823	-8400	5408	13868	662	3793	-1803	-15788	2680	-1972	1763	6725	2973	-15436	3732	1968	-211	12652	2441	132	156	1
-13956	-4604	15360	-5411	-32768	-14984	-12064	4132	-11800	676	-32768	7244	-8520	3996	-6684	5383	57	-4119	-8644	5120	13740	488	3912	-1809	-14928	2560	-2388	2047	7384	2982	-15160	5736	-2024	728	11102	2474	138	159	1
-18116	-5660	19568	-10901	-32768	-16039	-14204	8212	-12636	-9609	-32768	8179	-8428	4532	-5564	9818	-117	-2704	-8780	5428	13604	379	4017	-1956	-15180	3816	-3536	583	7459	2803	-15108	5224	-6288	1473	9065	2694	142	164	1
-22944	-6044	22236	-15929	-32768	-15682	-17388	6720	-13784	-25505	-32768	3997	-7856	6252	-3336	8627	-551	-506	-8836	4688	13796	444	4551	-2108	-16072	1924	-4148	114	7794	2937	-14976	3036	-2236	-616	8778	2059	165	192	1
-29468	-5792	23168	-20966	-32768	-13514	-19748	-480	-14676	-32768	-32768	-2417	-8164	5384	-648	1075	-127	114	-9012	4584	14144	1087	5714	-1834	-15776	1988	-3932	1118	8103	2711	-15712	3124	1132	-1796	10219	2249	211	227	1
-32768	-6580	20212	-24738	-32768	-10502	-21520	-5932	-11892	-31492	-32768	-8605	-13584	-3204	1612	-7074	-2581	-1521	-9140	5048	13984	1491	7199	-1925	-16488	2360	-1868	2093	9020	2861	-16648	2940	692	471	10442	2509	217	217	1
-32768	-1444	14420	-26144	-32768	-10092	-22616	-3596	-11532	-13127	-32768	-9574	-19516	-8072	9764	-6333	-5003	-4985	-9040	4940	13860	1580	7368	-1966	-16288	2392	-528	1176	10493	3249	-17708	4060	1196	548	8721	2621	220	203	1
-32768	7672	3856	-23664	-29445	-13745	-17472	328	-8904	-8131	-28193	-6871	-18100	-14708	19692	-1948	-5261	-5651	-9308	5128	14708	1624	11371	-2736	-18164	3024	-936	-560	12478	3212	-19056	1680	3244	-1206	6012	2899	207	194	1
-32768	7260	-6596	-8532	-12125	-14696	-12120	-1968	-7596	-505	-14839	-4304	-13420	-21188	24388	-5026	1883	-4903	-9292	5792	14700	1850	14850	-3737	-18380	1120	96	-1197	14185	3395	-18920	1276	4456	1788	5044	2143	191	184	1
-32768	22936	-12032	1946	-337	-11178	-2520	-92	-7680	4026	2251	-2486	-15280	-19212	17524	-3014	3066	-2413	-9144	5684	14900	2195	19150	-4775	-17920	840	832	-557	16631	4291	-19484	1920	4524	4955	4376	501	184	178	1
-28692	12584	-5364	1106	12978	-4649	-10808	-4244	-13728	10367	15513	-329	-13564	-10908	6656	-2001	1209	1937	-8660	6608	15480	3607	24968	-6140	-20140	-132	140	-303	19269	5126	-20724	660	4540	7050	891	-140	175	169	1
-15096	7464	-2744	25242	24778	7101	-14376	272	-12480	20493	19067	-50	-11036	-2940	-4804	-7057	8767	3875	-9060	5260	15748	5923	31462	-8127	-24092	-2648	-1656	2339	21225	6009	-22632	-1392	9600	5126	-5909	-592	130	177	1
4340	-15220	30136	12098	18628	-8326	-20840	6496	10284	22638	13446	2465	-7396	-2388	-8936	-7959	7255	4899	-10320	8040	17628	6234	32767	-11980	-28064	-5244	5176	8288	23158	5832	-22296	-6356	12108	-949	-4775	-3316	91	174	1
8456	8384	11456	16174	32767	1855	-24256	6896	13712	23222	11888	2353	-23652	-1528	10228	8786	-6406	5488	-15364	11084	19748	6782	32767	-17013	-30820	-2112	4752	9451	25671	7014	-27280	-5820	10808	1468	-13706	-6967	65	164	1
-31664	15600	32424	7617	23477	10381	-12148	11196	-9280	23751	12092	2844	-30292	-17260	8400	26156	3604	407	-24632	14820	19704	8285	32767	-20261	-31964	2272	-420	8235	25562	6246	-24832	1176	9292	7795	-18616	-8179	53	154	1
-27396	-20848	16952	6497	9955	4701	-16792	6596	-9000	2577	17075	-1993	-21740	14420	5488	5467	12077	3815	-26632	14496	18356	7414	32767	-24660	-26324	9432	-5304	7144	24579	5657	-23212	8328	-2976	21721	-23126	-5816	68	140	1
-5672	12808	20212	9693	7573	7181	-17948	5972	-10372	728	17404	-3409	-12672	17752	-17608	-11000	15584	3651	-32768	6316	23316	6152	32767	-23661	-21152	12756	-12588	-2163	21617	5266	-22932	9132	-5104	23771	-24453	-5131	91	132	1
-13968	-15920	10304	5900	3263	2880	-14668	-1012	-10032	-2157	14735	-3891	-8540	-3336	-5356	-14005	3879	-1476	-14504	16876	25636	11091	32767	-20214	-19056	3712	-5432	-7289	15269	2777	-25764	11428	-12948	2675	-26276	-1119	69	132	1
-10136	-2360	14332	3564	2091	2792	-17164	-532	-8728	-1251	11728	-2572	-15748	-10992	-5876	-14120	9637	760	18424	26100	19132	-5307	27101	-26618	-12068	8556	-5420	-12567	7434	-1447	-25296	7396	-7688	-13786	-26062	985	114	115	1
-8200	-2920	14140	1918	2405	1905	-18176	-656	-6632	-175	9727	-1291	-16944	-2760	-3668	-5920	7221	2318	-30296	16852	31096	-13724	-11013	-10535	-4492	11860	-24108	-5530	350	-4342	-19748	3828	-2596	-13688	-25677	2230	147	101	1
-8296	-3980	13944	1428	3030	1400	-17276	-1128	-7168	3091	8502	-1339	-19268	-3268	-4092	-5166	9112	7750	-5384	8884	21908	-10027	-32768	9085	-5000	2208	-6908	-4845	-4703	-3227	-22140	2784	-1132	-7754	-21783	1719	85	58	1
-8624	-4588	13776	222	3000	1267	-17108	1176	-5784	-279	7247	-1451	-16504	-4876	-4684	-2572	10000	9146	312	7200	12480	-7930	-32768	12223	-7436	-2420	-4584	-762	-12269	-5972	-22268	3272	-1636	-6130	-21341	1431	84	45	1
-8956	-4492	13128	-265	3015	1057	-17484	-868	-5408	-4544	6304	-1199	-15560	-4976	-4800	-891	10016	8635	2640	2876	6796	-8180	-32768	9780	-5136	3128	-7196	-207	-20840	-8677	-17040	3148	-6720	-707	-15554	-315	80	26	1
-8828	-4296	12920	-270	2613	976	-15784	-3064	-4600	-1694	5194	-526	-15212	-4048	-2964	2595	11128	7610	-748	-1948	7016	-4301	-32768	7402	-3100	1488	-6352	-789	-26153	-11025	-13192	2648	-7508	-1454	-13447	-920	74	26	1
-8588	-4096	13196	-287	2594	941	-16756	-1072	-3288	2630	4973	44	-15344	-3988	-2800	3161	11376	7589	-3328	608	7712	1986	-32768	5356	-3280	352	-7464	-327	-31108	-12934	-10368	3684	-9052	-1769	-10001	-575	76	34	1
-8364	-4320	13248	-433	3032	1056	-17576	1200	-3724	2588	4996	259	-15780	-1580	-712	4338	12652	5867	-7544	4364	11656	4652	-32768	6205	-4832	1384	-10240	3035	-32768	-15082	-8132	4004	-9600	-2998	-6599	-362	79	39	1
-8752	-4392	13096	-485	3068	1272	-17096	4480	-3948	-715	4997	854	-15124	-876	-1480	473	12950	6346	-10912	5900	13936	6297	-32768	10365	-8224	2792	-12632	2821	-32768	-15799	-5656	2268	-10216	-5586	-2779	1016	83	49	1
-9516	-4464	12908	-135	3717	2400	-17592	5480	2464	-14900	-2062	-1339	-15836	-84	-2000	-3393	11726	6562	-14480	5948	16428	7947	-32768	15552	-13100	3192	-10312	960	-32768	-17825	-3676	1072	-11112	-9626	-462	1655	94	67	1
-9208	-4672	13060	-289	3459	1921	-15516	4716	-2092	-12435	7580	4492	-15216	-2236	-1140	-7164	10575	6484	-18860	7396	19792	9129	-32768	18329	-15232	2708	-12360	-94	-32768	-18247	-5324	1008	-11420	-10039	-267	1029	83	79	1
-9220	-4424	12720	282	2602	1152	-15548	-5116	-3196	11064	13039	-3676	-14524	-5476	-1312	-5505	11633	5449	-26996	6620	25668	9517	-32768	20079	-20724	4724	-13272	18	-32768	-18872	-8552	1400	-7768	-13155	-3262	-1892	85	93	1
-9620	-3936	12856	1195	3507	1744	-16548	-428	-2552	8257	8064	-173	-14552	-5544	-1220	-4607	11880	5087	-32768	5092	28964	10535	-32768	18267	-21220	4260	-12748	8820	-32768	-16181	-13880	4064	3576	-9502	-9487	-4009	86	99	1
-9364	-3768	13304	1190	4337	2490	-17344	3232	-2376	-2341	7345	-1381	-15320	-3892	-1400	106	11346	4372	-32768	1496	21268	13149	-32768	11864	-21772	6124	-12700	14203	-32768	-11425	-16264	-484	8584	-6384	-8262	-3821	91	102	1
-9296	-3968	13592	1250	5466	2726	-16540	-128	-2232	-4278	8441	-452	-17324	-5136	-296	-1343	9605	4726	-32768	-716	11632	17341	-32768	4549	-20480	5164	-11724	11667	-32768	-6949	-13700	-2860	13392	-5993	1596	-2012	95	108	1
-9488	-4492	14008	1299	7039	3303	-17728	-1252	-460	1494	11257	-583	-17620	-5932	1888	-2243	8929	3958	-32768	-4944	2896	19020	-28873	3167	-18264	3808	-10788	13812	-29340	-2548	-16132	-5492	23880	3880	5883	-1490	91	91	1
-9308	-3676	14328	1765	9369	3999	-17796	-572	-504	3228	13503	351	-17356	-6168	1648	-3684	8601	2487	-32768	-9592	-6616	11866	-13307	7704	-11484	9300	-5696	10242	-15325	-365	-20016	-3288	28368	-288	2927	506	92	105	1
-9436	-3868	15248	2299	12432	4920	-19708	2228	-2288	1376	14872	712	-18892	-3288	1972	-4552	8141	1681	-32768	-10828	-13760	-2059	443	9080	-2260	7068	-8488	-3965	3866	1970	-17784	4728	26020	2697	-1306	1850	99	103	1
-9604	-3700	15348	2153	16045	5964	-19700	3584	-2148	-74	16571	197	-19780	-3080	1464	-6601	4555	2995	-32768	-10964	-5588	-3322	12294	4375	-7480	7632	-12560	-7401	16787	5196	-16156	1004	11420	10689	3872	747	106	94	1
-9884	-4436	15428	2207	20176	6997	-19384	1672	-52	226	18943	-193	-19276	-4960	3076	-8962	-2505	2809	-11036	3032	7368	-8965	22081	240	-18436	5400	-1356	-11918	20588	5924	-12456	-2092	596	2913	3535	3127	119	90	1
-10000	-6680	16344	1853	25096	9314	-20564	676	908	-535	21418	-644	-19548	-6076	6484	-3056	-7232	214	7980	15888	22316	-5469	14080	591	-27532	-8804	7324	-12724	10437	4289	-4152	10224	-13028	5037	9615	2861	128	94	1
-10636	-7368	17824	1728	32234	13394	-25648	2808	-1860	-2258	22844	-2109	-21472	-8628	13264	1374	-14075	-2362	8472	11604	16824	-4840	14872	-778	-20824	-6608	-1252	-19179	11221	5450	-22292	2152	-8704	-2988	12840	1560	140	117	1
-11860	-11020	18752	568	32767	19189	-31568	7736	3064	-8618	24038	-3456	-23872	-6116	9580	-6923	-12209	-3270	-26392	-9452	28952	-456	22370	-8113	-20792	1344	-8172	-8046	14035	6083	-27128	4368	20236	-32768	2081	47	147	115	1
-18652	-8472	20168	-542	32767	24303	-29064	5432	-688	-13773	26714	-5001	-24364	-1516	5384	-7382	-16614	-2103	-12128	10688	17876	1275	16740	-9250	-17196	1316	-5488	-6569	12700	6439	-20584	-8880	-2044	-1522	10940	220	159	138	1
-28984	-6104	20544	-3441	32767	24147	-26720	-64	-6696	-17788	27277	-2491	-20856	-5404	-2736	-5782	-17804	-4567	-23132	10200	19376	-3019	8427	-4138	-18208	7720	-7720	-1387	13485	8554	-16172	-8796	-288	4525	5954	3871	160	119	1
-21940	-4240	15208	-2059	32767	25314	-23664	-7064	-12332	-14760	25499	2469	-22404	-6908	-9408	-4879	-19004	-8605	-6736	4440	16044	-1756	5174	-2928	-16908	1136	-5828	3404	11403	9421	-13292	4920	-7480	30456	5989	4689	169	115	1
-28356	-11056	17984	-2619	32767	24413	-19940	-3580	-13800	-653	16044	4898	-25640	-5412	-14108	13609	-19954	-9179	-7840	4660	15064	-1655	3253	-2010	-15740	4132	-4248	8633	11102	7153	-12248	12620	-3720	13875	5110	6471	176	121	1
-5880	-17728	20412	151	32767	25733	-15000	-2504	-8924	9624	8895	6225	-26388	-1960	-5092	17894	-21159	-9202	-8188	8532	14412	-959	3941	-2496	-17312	6212	-5200	9853	8481	5055	-14280	10396	-4488	9612	10899	4860	187	134	1
-29120	-11456	6964	7321	18206	15297	-7904	-2452	-14808	13563	2535	5320	-23188	-1292	-6064	14904	-19481	-9313	-7548	4256	15184	-1721	2765	-1631	-16692	6712	-5536	1572	7289	3233	-16200	6436	-2636	4725	9461	1848	200	173	1
-20884	-10640	21352	5895	-19544	-12663	-1768	-3556	-17228	2084	-2351	1006	-20804	-56	-5628	10619	-18097	-9415	-8860	4308	14960	-1365	2574	-895	-17544	2984	-5208	-731	5984	2330	-17900	6864	-1904	1401	11546	-196	196	147	1
-2116	-10624	12816	4402	-32768	-26510	-7036	3200	-4920	4699	-8007	-51	-18448	-232	-5572	5332	-17052	-9403	-8580	5064	14260	-897	2552	-124	-16808	1372	-4448	3853	5207	1818	-16212	4680	-2320	2363	13279	-149	185	114	1
1504	-5288	8048	6042	-32768	-26262	-8332	396	-4988	5467	-16664	602	-17064	-1156	-6452	4262	-14521	-9527	-7908	6056	14120	-254	2343	-271	-16652	2276	-3112	7405	4070	1468	-15752	4492	-2568	2357	13637	91	180	103	1
-428	88	7260	4090	-32768	-23390	-3472	-2772	-6808	4632	-23019	1685	-13648	-16	-6176	3158	-12592	-8998	-8460	5236	14020	324	2229	-747	-16732	4856	-3336	4022	3175	1422	-16304	3500	-992	437	16050	2320	167	98	1
-2020	-32	7392	-331	-32768	-19818	-3904	-2316	-5136	6644	-28043	2105	-10608	1228	-6480	2771	-7235	-7572	-8440	4796	14192	664	2159	-754	-16080	2328	-2884	1412	3032	1009	-15896	2272	-344	1210	16463	2723	146	106	1
-4316	-2792	8792	-3074	-32768	-16010	-5272	-1604	-7648	8501	-32768	3058	-9916	1304	-6964	1465	-5463	-6514	-8332	4988	13996	791	2057	-752	-15600	1492	-1448	2413	3330	1092	-15860	1300	568	2047	15067	2787	136	115	1
-9836	-4416	11204	-3610	-32768	-14515	-8208	520	-9656	6831	-32768	3780	-8700	1052	-7340	728	-2447	-6795	-8140	5140	13940	869	1908	-1037	-15712	1312	-1276	2437	3413	1260	-15684	2088	1896	705	12722	3005	119	124	1
-14044	-4644	13636	-4824	-32768	-15557	-11348	3508	-9740	3992	-32768	5939	-8504	1368	-7224	2673	-755	-5430	-7984	5368	13716	638	1707	-1162	-16328	2984	480	5089	5009	1860	-14364	1104	3964	-207	12276	3007	129	129	1
-13684	-5032	16712	-7852	-32768	-16648	-13792	5624	-11208	-1051	-32768	7337	-8772	2380	-5744	8825	-52	-3800	-8300	5320	13900	428	1950	-1651	-14884	4960	-736	857	5476	2304	-16140	3288	4180	-2481	14664	2377	142	136	1
-17804	-4268	19192	-11492	-32768	-17267	-15108	6780	-12084	-11496	-32768	7269	-9188	3964	-5496	12483	-157	-2401	-8596	5268	13740	357	1981	-1936	-15872	1320	-420	416	6954	1885	-16472	5872	68	-1267	11898	2556	152	144	1
-22660	-4780	21712	-14201	-32768	-15038	-17284	4144	-13464	-24109	-32768	3224	-8232	5852	-3192	8927	-1040	-1280	-8628	5364	13536	-155	2011	-2039	-14744	2168	-640	1751	7683	2422	-16072	6296	-4264	2364	6230	2526	183	197	1
-31332	-3984	23772	-18567	-32768	-10779	-18468	-1720	-13920	-27893	-32768	-1906	-9668	3224	-476	1066	-1805	-1523	-8300	5044	14208	-252	2390	-2269	-15696	1812	-1492	509	8994	2740	-16108	1440	-132	2287	6532	1765	222	235	1
-32768	-2372	20044	-24789	-32768	-7982	-22116	-1256	-12244	-26817	-32768	-6595	-14472	-2296	2684	-5111	-2927	-2914	-8296	4848	14572	67	3653	-2659	-16028	1296	-1080	640	9064	2762	-17072	1784	5712	698	9174	1781	224	227	1
-32768	260	12332	-25946	-32768	-7517	-21760	-648	-10828	-14587	-32768	-7647	-18708	-4332	9816	-4424	-4592	-3017	-8296	4932	15276	1127	5933	-2708	-17528	1308	-2000	-324	11215	2914	-17624	1516	2928	2573	9209	2040	216	217	1
-32768	9560	5480	-22865	-26503	-10539	-17292	976	-9320	-11913	-26291	-6556	-17928	-10904	18584	-3380	-4067	-2835	-7912	4804	15804	1750	9262	-2992	-18236	-384	-576	928	12857	3235	-18676	1028	-812	2659	7117	1943	200	198	1
-32768	10408	-2048	-11237	-14255	-13496	-11680	-1816	-9780	-4950	-14342	-3890	-14580	-18956	20892	-4294	435	-2100	-7812	5844	16112	1305	13106	-3910	-18404	1552	-180	661	14949	3818	-18868	1376	-604	2417	6703	1858	186	188	1
-32768	20576	-8984	2279	-3791	-7609	-5904	-1656	-6740	-280	762	-1855	-14752	-17364	18124	-9517	953	-1679	-8496	5448	16132	1405	17455	-4870	-19060	1544	-340	-1092	17047	4199	-19716	2868	4876	2984	4053	714	187	187	1
-30828	7008	-8832	14460	10417	8280	-13532	-5528	-13728	9081	13481	-647	-15580	-11016	9760	-9093	317	1149	-8456	5740	16700	2261	23422	-6126	-20240	696	44	-1237	19406	4301	-20772	2728	4288	4696	1483	-512	180	182	1
-15064	8408	6516	22708	16751	14254	-11064	2108	-10640	14801	18051	1442	-14752	-4396	-2916	-6889	6357	2800	-7900	5904	18108	3956	31396	-8219	-23556	-2116	84	492	21700	5018	-22460	556	6956	6108	-1773	-1266	146	183	1
13152	-20024	32767	6748	15896	-3165	-28960	16072	14316	20345	12630	1838	-13672	-484	-4572	-12872	4490	4233	-6988	9168	19840	5617	32767	-11029	-30656	-6404	4628	6091	24284	4956	-23164	-708	12156	-1245	-4804	-4145	95	182	1
-11756	4972	13904	12172	32231	4863	-31564	2620	-5448	19674	12977	490	-27708	-2924	14024	5358	-11616	8010	-14412	9268	21716	6520	32767	-17431	-32720	-4288	5700	9993	26045	6366	-25692	-8660	12636	-3585	-11990	-7813	66	175	1
-19748	1320	22480	1936	15811	8936	-8092	1792	-7100	11127	13552	3363	-21696	-9616	1468	16935	5807	3397	-23872	15816	20424	8077	32767	-20962	-31388	1880	900	9005	26815	5903	-24364	-3616	7884	3987	-18471	-10429	80	166	1
-16676	-23816	13204	7167	12155	5493	-17864	396	-6948	7217	13373	-1907	-15184	12072	-296	718	14239	4520	-23308	13664	18408	7867	32767	-23191	-26044	10208	-4732	5805	26135	3980	-23084	8916	1436	15975	-24439	-6551	29	114	1
-12988	10344	20224	9284	5533	5519	-22500	-3332	-9320	2654	12725	-6755	-13016	5460	-14064	-12405	7274	1475	-32768	4028	22948	1668	32767	-27130	-19984	12176	-13668	-3096	22285	3026	-22392	14320	-8252	22634	-25995	-3965	33	106	1
-9516	-11216	13036	4323	3760	2726	-14400	5036	-5640	-2981	13140	-2414	-14156	-6000	216	-10487	7678	-1587	-20120	12884	24044	6500	32767	-20737	-17620	3020	-6968	-8947	16879	873	-24212	14436	-13644	6831	-25413	-2384	37	106	1
-7980	-1560	15116	3794	2849	2364	-18400	-1648	-7072	-7706	12228	-2673	-17404	-4816	-6764	-12402	10098	1938	-14904	15260	25528	6960	32767	-20511	-13024	6888	-2196	-12238	9824	-3724	-23352	10696	-8076	-12122	-25544	736	72	92	1
-8180	-4020	14180	2318	2447	1550	-17788	-3108	-6520	408	8647	-1969	-15128	-1756	-3752	-8090	8113	4067	-32768	19400	27388	-17408	3678	-14895	-6112	14048	-21776	-7892	2122	-7733	-19676	7068	-2192	-18555	-22837	2693	80	71	1
-8668	-3972	13596	1048	1956	1046	-16096	512	-5928	3728	7933	-1293	-16068	-4644	-2516	-7142	8932	6983	-10024	9868	25588	-19058	-32768	6063	-720	6044	-8284	-8722	-1555	-8892	-19396	3760	-2436	-10210	-19452	2564	98	84	1
-7920	-4928	13092	1050	1732	1097	-17628	996	-3792	-2537	7493	-1143	-15908	-5920	-3824	-4687	9347	7198	-344	8140	16288	-15107	-32768	9977	-6316	1476	-3756	-7702	-9068	-8831	-20668	3904	-5188	-5818	-16829	1371	100	88	1
-8156	-5264	13236	1031	2168	1490	-17812	-1892	-3540	-6560	6403	-1361	-16632	-5500	-3252	-2587	9419	6775	1704	5560	8192	-12474	-32768	6994	-6700	3000	-5136	-5668	-17966	-10952	-16860	5104	-6880	-4995	-14525	256	92	63	1
-8960	-3812	13332	430	2318	1086	-16780	-2392	-4196	-2355	5682	-699	-16688	-4684	-2484	269	10552	6314	-1048	3516	7268	-8105	-32768	4147	-4064	2672	-5200	-5555	-25070	-12853	-12880	4096	-6804	-7765	-12215	-583	98	51	1
-8628	-4032	13284	231	2296	740	-16624	-2200	-4204	-1530	5581	-402	-15220	-2284	-2076	1724	11277	6158	-3528	5152	6892	-1544	-32768	3768	-4544	-44	-5704	-2026	-28715	-16805	-10728	4048	-8348	-9919	-8776	75	100	51	1
-8928	-4104	12980	41	2118	677	-15676	736	-3952	826	5144	-21	-14392	-392	-2156	808	11237	6034	-8268	8920	10008	1882	-32768	6130	-5424	2884	-9052	3058	-32768	-18407	-8316	3412	-8280	-9012	-4749	177	95	58	1
-8696	-4376	12352	207	1586	818	-14960	-92	-3512	-1529	5290	-683	-14604	-1040	-2740	-2648	11064	5944	-11952	11164	12604	1927	-32768	11239	-8364	4200	-9604	5630	-32768	-18982	-8000	2152	-9464	-9063	-1140	1054	96	63	1
-8276	-4636	12692	-55	1265	1151	-15600	-8	-3636	-4677	7532	-324	-15948	-3620	-1836	-3348	9892	4728	-15684	10692	14184	3329	-32768	17485	-13692	7508	-9728	-1149	-32768	-20079	-6872	1524	-10396	-10756	445	1920	98	71	1
-8540	-3700	13140	-393	1895	2093	-16096	-384	-3928	-4516	6398	-228	-16860	-4380	-844	-4002	10001	4758	-16696	11452	19164	6665	-32768	20346	-17184	5232	-11672	-5404	-32768	-21095	-5844	560	-10364	-9775	766	2067	101	80	1
-8760	-4364	12920	-215	1914	1376	-15772	-1220	-3172	1859	8227	-816	-15060	-3732	-1100	-4770	11297	4708	-25584	13260	24236	9837	-32768	21327	-23500	5140	-13720	-4269	-32768	-19260	-7636	-984	-8000	-8296	784	-122	102	87	1
-9140	-3808	12948	184	1891	1331	-14760	-832	-2300	1341	7361	-252	-13564	-3972	-304	-4663	10398	4561	-32768	10164	30412	12436	-32768	22399	-22608	3204	-12492	5080	-32768	-17763	-13368	952	-552	-10917	-3932	-2070	102	94	1
-8724	-4696	12732	712	2311	1931	-15668	1184	-656	-2816	7329	-299	-15296	-4536	-168	-1852	9211	4038	-32768	4736	23828	14067	-32768	18460	-21524	8236	-10220	12193	-32768	-11908	-20736	2676	8176	-11802	-11442	-3268	104	90	1
-8552	-4476	13732	1038	3281	2245	-17140	-1088	-2340	-1289	9805	-303	-16208	-6096	-736	-3100	8820	3830	-32768	2052	11968	14679	-32768	10498	-20696	4668	-11848	8342	-32768	-6801	-16616	-3836	9404	-6628	-7151	-1478	106	86	1
-8664	-3816	14828	714	5345	2564	-19040	660	-3776	1925	10640	73	-18264	-4568	-608	-5592	8485	3563	-32768	-5320	5036	19465	-30680	7126	-19096	1488	-12484	10795	-31762	-3154	-11976	-7148	28952	-6885	-327	1311	103	76	1
-8944	-4312	14936	604	8031	3194	-17984	1132	-3104	189	11164	406	-17892	-1928	-496	-4631	8081	3374	-32768	-13988	-7704	20375	-17838	9927	-8484	3164	-3360	16282	-17092	622	-19600	-7792	32240	-411	-742	329	95	89	1
-9420	-4676	14684	1189	10686	3990	-17968	472	-1336	-54	12774	60	-17544	-3588	300	-2114	6985	3255	-32768	-10004	-14892	3587	-1643	8216	-1948	10324	-8576	5198	3513	3561	-17908	1176	24816	9202	-1734	905	98	108	1
-8836	-3436	14696	1763	13050	4716	-17496	-48	-1824	1262	14792	243	-17128	-7064	188	-5124	3811	2546	-32768	-8808	-5852	-4775	12916	-241	-10584	11172	-12900	-5196	15256	5382	-17032	4020	11976	12327	1017	890	109	90	1
-9484	-5008	15768	1973	16463	5496	-20264	1864	-3596	1995	16125	656	-19460	-4200	608	-7874	655	2285	-11980	11584	6564	-16769	22990	-2309	-15536	5684	-9716	-14591	20317	8364	-12556	156	-800	10086	2150	2620	122	74	1
-9936	-5476	16116	1158	21111	7617	-22864	3868	-2292	-1090	17546	-655	-22032	-3532	2528	-4159	-571	2140	9144	11468	32767	-6205	16186	6193	-26352	-12432	4392	-13549	13343	3485	-5172	7216	-10960	-150	9114	2703	129	68	1
-9256	-5792	17592	-171	27302	10035	-23540	4212	460	-4965	20132	-1765	-22564	-5820	7864	-1804	-3290	536	1432	-8656	7460	-3993	27254	612	-23432	156	-3140	-18649	10046	5078	-12920	8792	-20432	3165	11200	3840	136	94	1
-10328	-8376	19264	18	32767	13485	-27868	2260	3068	-6253	22094	-1992	-24172	-7784	15736	-6767	-14940	-2426	-27208	772	29280	-1877	27311	-4838	-19196	-3584	-7428	-21211	12569	5429	-30680	4792	22676	-32768	2204	2665	145	112	1
-10268	-9748	18464	-8	32767	14207	-29348	5988	1536	-7238	23320	-3827	-22384	-4904	10200	-5830	-11796	-1929	-11764	3716	20928	2659	17513	-5798	-19824	-4596	-6372	-8532	12393	5254	-21620	-5328	-1972	-11971	12670	-198	151	149	1
-22648	-7664	18612	-1483	32767	23588	-27360	6108	-340	-13697	25213	-4883	-21212	-4284	2724	-5961	-17158	-1856	-10768	11996	15364	1074	14417	-5259	-15312	2480	-5040	-1160	10840	6587	-17168	-12512	-4452	-922	11306	2476	154	131	1
-23284	-7328	19948	-1985	32767	23521	-26412	-1400	-4600	-17774	26102	-2592	-19604	-6768	-5428	-1308	-19544	-4269	-18348	9688	15896	-2669	6418	-3926	-18304	7244	-5156	4836	10555	8569	-12960	-424	1100	20756	7372	5861	150	125	1
-18368	-6660	13868	-2763	32767	25900	-24232	-7328	-11880	-11014	22911	2482	-22052	-6604	-10444	234	-16053	-8883	-7944	4880	16648	-3037	5321	-3563	-16920	1968	-3616	4825	9446	8242	-13904	8976	-3208	18120	6061	5323	152	123	1
-27400	-9672	14776	-5491	32767	25398	-17460	-3672	-13752	4360	13907	5156	-25196	-1904	-8644	5787	-19672	-9458	-7916	5048	15556	-1403	3594	-1769	-16600	2208	-3592	9343	9302	5120	-14224	10088	-1200	9278	8465	4552	169	124	1
-14876	-19528	19596	408	28793	26196	-11660	-2972	-13548	9500	6061	3779	-23384	1520	-7956	15670	-19791	-8887	-7556	8032	14160	-1298	3654	-2036	-16872	7112	-4252	8193	7902	3631	-15760	7392	-3744	12242	9854	2711	177	158	1
-29380	-10080	12464	5578	6778	11725	-5332	-2096	-14004	10884	1687	496	-21904	-36	-5080	10969	-19749	-8902	-8860	5552	14680	-1134	2184	-1350	-16756	5656	-4916	-2905	6867	3206	-15588	7584	-1656	4792	9683	1474	192	163	1
-11364	-10344	21292	-3283	-27270	-15872	-2280	432	-11712	3637	-998	-1726	-18852	-496	-5216	8525	-17906	-8496	-8120	5036	14596	-293	1897	-582	-16920	-580	-3840	-580	6425	1900	-16636	6740	-1632	-158	13409	4	188	152	1
4428	-10948	11588	-4197	-32768	-26596	-2484	1976	-9128	3542	-1884	-2000	-19128	1976	-4776	2377	-17292	-7888	-6452	6636	13764	-416	2492	-1021	-16864	1256	-1688	5348	5209	1530	-15824	4316	-1936	-1771	13691	499	178	108	1
1812	-8024	10004	1883	-32762	-25224	-8968	-392	-4612	2449	-18059	-1322	-16920	1108	-5716	245	-15411	-8097	-8812	5552	13944	-838	2830	-1686	-17064	4780	-3288	2211	4025	1819	-16524	2732	-1040	-2077	13974	1677	174	105	1
-2692	-1168	11044	1622	-32768	-21916	-4408	-1064	-6240	6045	-25176	-411	-14212	660	-5676	-1430	-12942	-7767	-8844	4808	14460	-51	2314	-1179	-16052	800	-3032	-1693	4251	1391	-16408	876	-104	-2451	14179	2053	164	105	1
-3468	-44	11496	821	-32768	-21797	-4612	784	-9236	3206	-30015	223	-10164	664	-5596	-1504	-10013	-6118	-8456	5404	13792	264	1952	-929	-14660	1160	-2344	568	4407	1045	-15440	664	684	429	13716	2115	144	106	1
-7404	-1420	13416	-6750	-32768	-20540	-8044	1056	-8304	1791	-32768	843	-9676	672	-6888	-2094	-7409	-5532	-8164	5588	13716	345	1695	-855	-16004	1776	-1204	1764	4798	1858	-15496	1368	1504	814	12637	2399	129	113	1
-11112	-320	14176	-6331	-32768	-18258	-9748	3068	-9004	2334	-32768	2671	-10104	1224	-8184	-2131	-3228	-4715	-8136	5948	13380	-163	1613	-1123	-16052	1320	312	3244	5511	2414	-15348	1548	1744	647	12425	2447	118	122	1
-11704	-196	15668	-7873	-32768	-16719	-10292	1764	-8752	748	-32768	4696	-9552	1696	-7088	729	-774	-3778	-8216	6324	13432	-830	1200	-1827	-15204	3252	-72	1420	6013	2592	-15536	3052	2160	-2248	12321	3084	134	157	1
-12100	-548	18632	-10189	-32768	-15917	-17020	6100	-10292	136	-32768	7737	-7824	2160	-6592	5142	1001	-2684	-8656	5340	13520	-1264	978	-2126	-15224	3536	-184	842	6077	2590	-14660	3008	1908	-3023	12820	2590	166	187	1
-18836	-3216	22772	-11946	-32768	-14734	-18292	5580	-14628	-10557	-32768	10748	-9968	2380	-4640	6879	-1103	-1277	-8532	5300	13908	-917	1395	-2174	-15080	1368	-700	-962	8044	2532	-16488	3412	724	-2942	11046	1882	215	230	1
-30728	-5172	26896	-13926	-32768	-13515	-23596	3896	-14420	-18167	-32768	7176	-8924	1004	264	11635	-4339	-2057	-7984	6160	13768	-1474	1667	-2556	-15948	2192	-1544	323	9102	2973	-17080	4720	-1184	-35	7301	1770	222	245	1
-32768	-7264	23448	-13290	-32768	-13359	-19748	-1416	-13376	-20019	-32768	1989	-12228	-1652	5580	10430	-6640	-3563	-8376	4892	14680	-1372	2419	-3043	-17316	2512	-4324	-839	9429	3309	-16468	2480	-2076	1161	6249	1773	216	224	1
-32768	-2772	15956	-10909	-32768	-13012	-21160	-2148	-11924	-11938	-32768	1196	-16308	-6372	7392	6336	-7125	-3711	-8304	4580	15372	-478	4702	-2564	-17516	496	-4892	-196	9850	2800	-16552	1700	-1560	256	9432	2257	213	210	1
-31512	1512	11212	-10707	-30153	-13323	-19764	1780	-9972	-7384	-32768	1202	-15592	-7752	14192	-1955	-984	-1226	-8224	4796	15216	253	6965	-2488	-16812	1508	-2400	226	10623	2619	-17276	1732	-1116	1018	9727	2272	217	200	1
-32768	6332	3772	-8047	-23602	-13919	-13300	768	-8048	-5762	-27592	232	-13612	-8816	20968	3221	1981	740	-8176	5876	15264	641	9460	-3130	-16916	1876	-28	-1227	12355	3002	-18544	2092	1140	882	7000	1916	206	183	1
-32768	16000	-10256	-5337	-16965	-11342	-6412	848	-2800	-5995	-11456	-1027	-15960	-12136	21212	465	750	1161	-8044	6168	16012	255	12832	-4427	-18664	1644	-228	-2086	14522	3589	-20252	2628	4024	1037	4332	1311	177	175	1
-32768	19704	-13624	-4341	-772	-3844	-7344	-3492	-6904	-2188	5234	-1177	-16236	-12500	15472	-6509	-1916	2157	-8252	6020	16668	305	17620	-5779	-20388	1000	-2296	-1149	16446	3721	-20632	2808	4468	2373	3058	625	157	175	1
-30028	4732	-3564	4797	10588	2124	-11740	-5824	-11748	3537	14226	595	-15240	-5496	6528	-10438	1783	2272	-8568	6592	16440	567	23236	-7712	-20916	-304	-1512	340	17856	4079	-20328	2896	4116	3027	3091	522	155	177	1
-27924	-404	2820	9980	12014	2129	-11372	-4172	-13968	12649	16767	1361	-12452	624	-3148	-11245	8788	1379	-8676	6200	16108	200	29439	-10712	-21464	-212	-308	1795	19765	4854	-21376	-1880	3740	7247	-415	-161	114	176	1
-400	-17364	15064	12479	18378	1334	-16092	3396	-9148	15643	15922	-428	-2188	1592	-10132	-17900	4003	1869	-10672	9716	17432	-39	32767	-15077	-25264	-1476	5868	3657	21957	4982	-20192	-3084	13648	-267	-5961	-1675	64	174	1
12268	-7172	16324	1636	16450	-6933	-26156	8932	10740	8215	7512	-1671	-6576	5856	-16240	-3479	10552	8557	-13164	9028	16956	-500	32767	-21811	-26220	-1660	3436	5589	23742	7745	-20888	-9596	13140	-980	-9294	-2412	56	178	1
-12472	-4764	20992	7024	32767	5173	-32768	4340	-504	16446	7801	1304	-32768	-11820	25496	1753	-9954	3959	-23124	10528	22540	-1068	32767	-24748	-31728	184	2084	7568	25887	8838	-26700	896	12868	7388	-16288	-7396	42	172	1
-32768	5080	31716	-5161	15498	4515	-18128	14496	-6112	15914	9910	502	-32768	-12664	23368	4654	8171	2726	-22928	11088	23000	-879	32767	-25062	-31620	6720	-2664	7618	25899	7602	-25604	13424	-3836	27784	-24446	-5840	32	162	1
-30944	-664	29708	-5260	12303	5118	-14972	12356	-3820	-5153	17411	-4605	-18784	15772	-6008	1609	14500	5703	-19860	5508	14516	1606	32767	-27262	-22120	10532	-10188	2395	22715	4116	-19828	10676	-10068	10830	-26803	-1049	75	152	1
-9316	-6660	11844	2404	7900	2387	-16680	-11688	-6712	-8738	16625	-8201	-4080	5436	-17400	-18961	5688	4043	-32768	10308	20484	4209	32767	-23822	-13688	8536	-12248	-7074	18639	1448	-22804	6220	-9124	2091	-22426	-20	56	153	1
-12712	-14728	9232	3838	4408	2493	-17280	-8268	-8248	-1363	12403	-2855	-4500	-12356	-4284	-15187	3585	428	-12344	22160	26044	-2147	22915	-21535	-12412	5652	-9860	-7754	13704	1678	-24308	5420	-10488	-312	-25651	-10	80	132	1
-7412	-3636	13340	5052	2919	3484	-18108	1408	-5480	2092	8591	-574	-18516	-16716	-9124	-5883	8341	1168	-27428	7688	9484	-9166	9834	-16899	-9976	7188	-11864	-5929	5788	1183	-24848	5052	-4724	-9722	-25746	1501	95	56	1
-8048	-7572	13124	5951	4021	3538	-17076	-2360	-5264	-3674	8365	-1350	-19192	-268	-2472	1355	8096	3026	-15692	11348	25612	-2211	-23858	8853	-3296	7032	-14440	818	937	-2122	-21988	2572	-2748	-8137	-23164	2459	86	48	1
-9264	-4740	14472	4861	3632	3272	-16940	584	-4876	1677	7510	-1794	-17452	-1708	80	631	8962	7774	2456	13580	14936	-3261	-32768	18584	-6904	-1016	-4172	-101	-7976	-1880	-22676	144	-2468	-2882	-20284	1707	101	50	1
-9200	-3456	14484	2214	2893	1905	-17540	3068	-4820	1224	7544	-1041	-16688	-848	-1912	-2246	7504	8873	2512	7908	9964	-7732	-32768	19326	-7368	1572	-5796	874	-16902	-3917	-18888	1016	-5856	-551	-17657	2151	104	34	1
-8656	-5712	12580	1290	2150	1438	-16244	432	-3704	-2874	6617	-181	-14320	-4076	-2272	-997	8399	7528	-1656	-1408	8852	-5987	-32768	17762	-2856	3872	-8020	-6750	-23032	-5444	-15280	2204	-6472	-1240	-15734	2000	101	22	1
-7896	-6284	12212	1250	1885	2014	-16572	-1560	-1808	-3978	6525	-318	-14884	-5892	-2172	2904	9655	6937	-1468	-3512	8932	2200	-32768	16022	-3224	992	-7896	-10100	-27917	-7645	-12840	2612	-7288	-1501	-12365	1358	79	26	1
-8136	-5928	12700	2202	2154	2876	-17716	-2820	-3192	1354	5887	60	-15876	-3960	-1356	6678	10247	6763	-2308	692	9932	5779	-32768	13876	-4668	-1876	-8188	-7707	-32339	-10138	-9812	3496	-8504	-2382	-9114	760	86	36	1
-8244	-4812	13208	1846	2442	2952	-16820	2180	-4532	3462	4880	583	-15804	-76	-412	6536	11589	5904	-6708	1792	12568	5591	-32768	13379	-5544	-1000	-10028	-2048	-32768	-11618	-7544	2660	-9128	-4386	-5805	239	91	51	1
-9344	-3200	13204	640	2338	2233	-15980	5080	-5140	-1494	4948	-166	-16880	2220	-1420	2477	13112	7231	-10636	1072	16148	7781	-32768	15323	-6908	748	-10480	-242	-32768	-13683	-5348	1040	-9204	-5664	-2738	513	93	62	1
-8904	-3396	12472	-290	1915	1162	-14708	2464	-3792	-7392	7278	-923	-16788	84	-1140	-2351	13976	7269	-14244	1172	18948	10027	-32768	17298	-10264	1888	-11384	-1372	-32768	-15737	-3808	-384	-10068	-6381	-682	474	93	74	1
-8052	-4872	12400	-1054	2069	1567	-17500	-1812	-3392	-11526	-4318	1185	-14836	-3336	-264	-2058	12487	6353	-17008	-1264	23056	12879	-32768	17189	-17888	1448	-12540	3258	-32768	-18610	-5532	676	-8608	-6135	-728	-1533	95	83	1
-9172	-4892	12660	-285	2189	1055	-15384	-3088	-1660	7220	9831	-1031	-14620	-5592	360	1478	12176	5330	-22648	-428	26884	15291	-32768	12333	-21360	1428	-11804	16020	-32768	-18685	-9540	5024	-4144	-7759	-3826	-2467	100	92	1
-8684	-4972	12484	-36	2379	1334	-15768	1572	-880	6266	8260	389	-13952	-5128	832	2531	12441	4689	-32768	4128	29876	16616	-32768	4856	-23408	7744	-12968	21574	-32768	-14217	-14492	7616	6768	-2180	-10430	-1627	100	97	1
-8748	-4428	12760	660	2641	1764	-14560	3320	-528	-2032	9273	66	-14416	-4404	1736	697	12258	4367	-32768	5392	21300	19781	-32768	1124	-21524	6488	-11772	20844	-32768	-8707	-17588	1076	10160	4586	-8034	-465	104	93	1
-8924	-4708	13316	964	3572	2228	-16968	268	-1808	-1102	10488	310	-16776	-2868	560	-1971	12077	4648	-32768	1096	8992	22620	-32768	348	-17992	4916	-9280	16629	-32768	-3147	-16260	-2596	17704	9673	1833	-2375	104	83	1
-9032	-4336	13604	1111	4905	2488	-16988	-864	-2564	5176	11769	485	-16944	-2880	-3676	-1888	10411	3893	-29512	-2764	5556	20395	-26587	4715	-17044	5000	-8380	12117	-27383	-2192	-14464	-2552	23208	5688	3353	-1718	98	79	1
-8652	-4832	14624	814	6976	2863	-17380	1480	-3840	6069	12973	1134	-17088	-2884	-4168	-1781	9881	3804	-32768	-4628	-60	5445	-14552	11324	-13136	8076	-5704	6156	-15735	-1868	-16788	-1640	21600	-2673	-656	2671	97	91	1
-8760	-4576	15108	487	10120	3675	-19848	3472	-3824	1718	13761	1231	-18396	-3216	516	-93	7171	3900	-32768	-14228	-8640	-3785	-3498	10355	-5864	5164	-6236	-5480	-476	920	-15400	7336	20676	2767	-994	3776	104	92	1
-8784	-4564	15036	531	13631	4537	-18080	2300	-2216	410	15325	927	-19012	-3572	492	-8277	3686	3593	-32768	-3656	-8836	-11078	17103	648	-12012	7176	-11116	-10166	11027	4064	-17720	3452	14136	3783	2310	562	114	88	1
-8948	-5236	15832	349	17395	5282	-18668	496	-1356	1972	17900	1232	-18580	-4688	2292	-3679	1707	2717	-7632	-13524	4604	-16723	21892	-5595	-12684	3840	-8464	-11816	20290	5705	-16332	1684	4728	201	2379	450	125	89	1
-9760	-6984	16920	332	22629	7550	-22580	2084	-2292	2210	19876	1637	-21432	-7356	4176	1072	-898	585	7944	24636	32767	-9457	16708	-2241	-31532	-13456	12332	-2202	13052	2157	-8752	4896	-836	-6815	6582	419	129	94	1
-9076	-8832	18064	-835	30104	10301	-28528	3328	2280	-2123	22040	2187	-25380	-11924	13048	63	-14868	-2330	-8528	-12424	18084	-7247	30570	-6001	-23080	3152	-4644	-18920	13464	6280	-22196	1324	-10732	611	9301	1983	134	107	1
-10900	-12072	19272	-143	32767	18027	-30328	6848	3476	-6001	24721	-369	-24872	-4428	10096	-5565	-13770	-3873	-20972	-2504	25616	-2835	15934	-7992	-16448	964	-9156	-8429	16078	4526	-22296	4492	10104	-24465	3463	194	149	114	1
-14704	-9756	21952	357	32767	24476	-30576	5876	3204	-7327	26148	-1192	-25680	-3620	11628	3630	-15381	-828	-7660	10060	15256	-2187	14474	-7397	-15756	3304	-6868	-7708	12363	5317	-15468	-3920	-5584	1003	10521	1383	159	137	1
-25144	-11472	21908	-462	32767	27008	-31012	616	-1692	-8872	28069	750	-21268	-7644	-1008	1820	-20860	-2321	-25800	10540	18632	-4623	6170	-4806	-18164	6488	-9204	-2947	11869	7008	-14820	-6100	-952	4291	9693	4397	158	105	1
-27764	-8828	17844	1388	32767	28277	-26772	-6620	-11680	-5753	26515	4082	-20452	-7440	-5048	3305	-16838	-6707	-5328	152	17184	-2898	4548	-2797	-18436	-2676	-6548	2481	9833	7592	-17780	1476	-7780	22773	7520	2635	163	108	1
-22068	-9492	14752	1990	32767	28546	-21252	-3932	-13872	2921	19636	5837	-23252	-7952	-16004	4436	-19708	-9424	-8720	5008	15308	-1405	2612	-1337	-15788	1408	-4136	12407	9310	6270	-14348	8736	-1360	10335	6407	4832	172	106	1
-9200	-17688	18640	5158	32767	27973	-15248	-3876	-9732	11176	10736	9150	-26484	-4108	-6376	21102	-20513	-9140	-8404	7284	14156	-820	2600	-1541	-17672	7936	-3728	15537	7175	4984	-14972	10604	-2504	15220	10830	2829	184	117	1
9604	-20488	18216	18126	30306	30228	-10240	-5472	-3524	21331	3054	9549	-22600	-4292	-8996	15727	-17747	-9027	-7392	5052	14772	-1103	1808	-975	-16004	10092	-3968	173	7010	2664	-15932	9776	-608	6179	9849	2445	192	128	1
-27928	-8200	23568	15394	-10613	-1261	-2388	-4284	-25600	7854	-2944	5603	-19312	-4032	-8216	12794	-17632	-9685	-7740	4436	14796	-1124	1571	-780	-17624	2140	-2864	-4438	6043	1702	-15896	9588	-220	4336	10359	2257	191	138	1
-1916	-11152	18784	7574	-32699	-23205	-4224	1548	-2056	7815	-6814	5976	-19820	-1596	-6784	13725	-17255	-9656	-6768	6408	14100	-1342	1777	-786	-16528	116	-588	4003	5804	1065	-15628	4788	1236	1632	12620	354	178	129	1
-1508	-12080	10212	10078	-32768	-27022	-10596	1348	-3496	7274	-15655	6617	-19484	-828	-7888	9265	-16412	-9780	-7556	6436	14324	-1190	2129	-1557	-16852	5496	-2484	6861	4277	1665	-16392	3280	-36	5353	13327	1036	175	123	1
-384	-8640	7192	14261	-32768	-20890	-5580	-4580	-6248	5384	-22976	6745	-15188	-216	-5788	7258	-14793	-9262	-8632	4084	14604	-265	1939	-1357	-16944	2456	-3572	3153	4252	1343	-16284	3304	300	5464	14461	1508	171	114	1
-4672	-1432	8128	10418	-32768	-15776	-4636	-4944	-6596	6231	-27694	5909	-10596	252	-6532	5614	-8563	-8314	-8152	4276	14672	77	1875	-1042	-15772	2200	-3040	2412	4098	695	-15464	2904	56	5699	15214	2102	145	109	1
-5032	-1632	7740	240	-32768	-12675	-5988	-2460	-7988	7413	-32768	6624	-10256	788	-7004	3294	-6214	-7371	-7940	4928	14296	180	1866	-1117	-15608	2280	-1316	2048	4102	1394	-15520	1800	-296	4443	14026	2112	114	127	1
-8336	-8240	8536	-4943	-32768	-11841	-7684	736	-8992	3320	-32768	8439	-9672	1020	-7776	4298	-3109	-7166	-8220	4616	14032	124	1679	-1407	-17040	624	76	2472	5482	1148	-16156	2940	836	3190	12092	1577	119	135	1
-12772	-9996	10588	-5660	-32768	-12290	-9992	2012	-10244	790	-32768	8527	-9428	4576	-8328	5435	384	-5857	-7732	4996	14072	33	1404	-1632	-16528	4924	104	3509	5876	3498	-15592	3536	2984	1489	10518	1823	125	136	1
-15436	-10072	15440	-8134	-32768	-15271	-12744	4288	-13716	-3647	-32768	6654	-7908	6712	-6728	6748	-44	-2659	-8284	5164	14188	-46	1508	-1827	-14480	3820	-1240	566	6347	2284	-15756	3752	2960	-482	10495	2153	131	142	1
-19692	-7336	18996	-15198	-32768	-18399	-14760	8636	-13300	-16421	-32768	4384	-9536	7096	-3104	9868	-89	1545	-8008	4664	14160	-60	1792	-1818	-16040	2648	-3120	-643	7146	2255	-15920	5192	-2312	-626	9868	2029	127	146	1
-25352	-6864	20396	-23625	-32768	-19735	-16628	2568	-15088	-31172	-32768	-840	-8256	7928	-344	6544	976	4229	-7960	4020	14612	124	2374	-1912	-16144	1664	-3572	853	7180	2385	-15424	3760	-4332	355	9909	2025	123	152	1
-32768	-9392	20960	-25738	-32768	-18624	-18276	-6700	-13828	-30958	-32768	-6949	-8012	2508	-2936	-1097	1904	3311	-8200	4680	14416	159	3297	-1738	-15652	1484	-2220	2093	7660	2635	-15124	2392	212	-1305	10815	2451	120	153	1
-32768	-6512	18728	-23307	-32768	-15248	-24404	-5472	-11868	-18127	-32768	-9487	-16768	-5664	-288	-2865	12	-187	-7860	4860	15128	317	4451	-2016	-16400	2692	-528	1284	8780	3155	-17336	2024	3932	-961	11430	2042	126	153	1
-32768	6508	13192	-23471	-32509	-13579	-22584	6024	-11032	-12071	-32768	-9543	-18652	-12756	11288	-1100	-2707	-4435	-7884	4928	15612	673	6891	-2462	-18264	2760	-244	-992	10610	3045	-19456	2112	5108	-1364	9680	2107	130	157	1
-32768	7952	4260	-19257	-21820	-14340	-14448	-1836	-8412	-10155	-23820	-5653	-13432	-15932	16324	1853	-2718	-6728	-7800	5420	15864	681	9918	-3132	-17848	1052	624	178	12499	3327	-19028	3240	2156	2086	5336	2274	128	156	1
-32768	9932	-8340	-2103	-13091	-11356	-9196	-4144	-7492	2846	-10848	-3733	-15396	-19028	21368	1619	-4789	-7421	-8216	5468	16484	353	13702	-4058	-18132	1616	-460	514	14626	4274	-19252	2216	1732	4153	3705	1444	130	153	1
-32768	23152	-10728	2111	2622	-8055	-6724	580	-9344	12438	5285	-860	-19844	-13388	22184	-1426	-6271	-5229	-8304	5036	16508	594	18288	-5010	-19108	848	-852	118	16697	4959	-19732	832	2428	6265	3286	401	169	149	1
-32768	8736	-1688	4835	13573	-1757	-11116	792	-14432	12850	15521	871	-18056	-2036	8808	-7516	-1792	-1597	-8608	5696	16768	1216	23544	-6215	-19752	64	-392	-194	18633	5656	-19944	-100	2828	8661	395	-169	200	158	1
-18076	5896	23840	17485	16671	2807	-14028	-640	-9820	8262	19282	-1028	-11672	4248	-3092	-13483	6373	1785	-8492	5312	17204	2690	30139	-8254	-22400	-1412	-1280	1161	20408	6783	-21588	-328	8384	6243	-5099	79	199	175	1
9208	-10348	27268	11367	8008	1896	-24648	5436	4644	10338	14069	-1631	-1884	852	-21032	-27277	19632	4496	-8264	6152	18576	4807	32767	-11224	-26784	-2204	1424	6417	21734	7002	-23504	-4424	9672	3948	-3376	-3051	164	205	1
12236	2056	10224	5617	22699	-4593	-24600	9764	3332	18475	7467	958	-19796	5596	-8672	-1937	1336	6074	-12176	10468	19440	7071	32767	-16680	-31316	-5092	3212	9308	23371	8948	-24396	-4684	15260	-1274	-11166	-6481	140	207	1
-20644	-6464	24528	8283	32767	1888	-22116	-1364	-4620	14776	8011	2888	-29304	-23076	20156	16595	-5762	1192	-19736	11376	21932	9784	32767	-19103	-31768	-4924	1428	13804	24846	9946	-24348	-3488	11196	5648	-19437	-9450	87	181	1
-16104	6460	23788	-236	17977	8003	-18732	8764	-7212	23141	9473	1470	-27556	-2448	4772	12013	12388	5409	-26188	11876	21124	11884	32767	-18427	-27988	4176	-3888	15885	24793	7516	-23116	6920	552	20957	-24124	-8248	50	176	1
-15284	-10696	15520	921	15580	6466	-16792	10352	-4804	5231	12748	-3254	-18080	22432	-1380	9665	14212	4616	-21876	4952	15096	6659	32767	-23388	-20352	13248	-9348	12033	22431	3746	-20748	12712	-6432	25703	-24722	-5121	69	163	1
-12840	-8548	13384	5071	8365	3599	-16008	-5388	-5728	-10962	14601	-5871	-10500	1908	-6252	-17940	6168	3432	-32668	8704	22600	9771	32767	-16417	-16404	9816	-10236	-3006	18970	901	-24184	17376	-10612	12268	-24478	-2876	44	170	1
-15152	-9252	12048	3795	4460	1830	-18672	-6352	-7324	-5913	12935	-4760	-12584	-10864	-5860	-15234	7853	440	-2292	22884	26124	4065	26569	-17071	-14960	8212	-5528	-10042	11547	-2394	-24836	9996	-12284	-7607	-26677	-104	65	150	1
-7452	-5724	13548	3563	4325	1852	-18516	-1328	-5592	1027	9336	-1339	-16488	-7396	-6752	-8361	8462	1229	-32768	20116	12424	-11768	12771	-21578	-7832	10936	-14288	-12618	3300	-6058	-22624	5728	-2612	-20559	-27376	2852	96	113	1
-7700	-5468	13196	3026	4084	1895	-16388	76	-4964	3177	7992	-767	-16452	-440	-2516	-4578	8055	2904	-14544	8732	26648	-13548	-29066	-733	-1784	9664	-13796	-8282	-815	-6721	-20184	3028	-1228	-11293	-21455	2419	116	117	1
-8892	-6088	13204	2819	3588	2198	-17268	1564	-4612	-737	7303	-1919	-17152	-3344	-3484	-5000	9078	7380	272	8708	17012	-8508	-32768	7318	-5332	-100	-4844	-6233	-8417	-5337	-20088	2916	-4700	-3888	-17129	794	124	115	1
-9676	-4536	13804	1618	2801	1638	-17212	-200	-4988	-3358	6668	-1891	-16324	-3772	-3148	-4328	8072	7217	500	7412	9176	-7245	-32768	7212	-4744	780	-4508	-1624	-16992	-8637	-17028	5184	-6624	-4011	-14980	86	125	67	1
-8576	-5816	12472	1039	2096	1399	-15940	-564	-2944	-4473	5921	-1108	-15944	-5520	-2056	-1541	8878	5995	-240	4344	6940	-5894	-32768	5959	-3284	4156	-6120	-1574	-24598	-9945	-13140	3908	-6196	-5955	-12867	-1029	121	56	1
-8136	-6180	12780	826	2077	1542	-17240	-2252	-2196	-2785	5875	-796	-15552	-5648	-1880	1967	10098	5264	-2744	2980	6180	-776	-32768	5756	-3516	1040	-5660	-1381	-28464	-13560	-10368	4936	-6924	-7299	-9731	-321	111	58	1
-8756	-5672	12656	819	2188	1885	-17588	-1544	-3908	859	4822	-250	-15760	-2108	-1736	3825	10688	4598	-6032	6352	7380	3824	-32768	8275	-4128	2440	-7680	2579	-32678	-15312	-8644	4016	-7772	-6319	-4941	432	113	65	1
-9072	-4716	12160	963	1676	1850	-15792	1724	-4196	518	4390	-249	-14740	-132	-1868	2107	11279	4233	-9656	9748	10512	3732	-32768	12220	-7272	4220	-9016	4150	-32768	-16411	-7708	2832	-8616	-6141	-1538	1119	107	71	1
-8988	-4764	12224	968	1644	1857	-14592	1180	-3768	-3038	5168	-964	-15316	-1020	-1580	-2075	11733	4704	-13180	8584	12912	4319	-32768	17460	-9972	7028	-9892	1218	-32768	-16695	-6596	2788	-9684	-8031	629	2147	107	78	1
-8648	-5828	12256	855	1060	1555	-15836	320	-2464	-8388	3594	-2677	-14960	-2936	-800	-4117	11374	4628	-17396	8908	17648	7270	-32768	21675	-14212	3856	-11156	-6759	-32768	-19103	-5284	1712	-10532	-11328	926	2680	107	86	1
-8772	-5000	12520	654	985	1159	-17172	-1500	-1796	181	6841	-1265	-15672	-4392	-416	-2990	10480	4464	-22472	7176	21344	11208	-32768	22681	-15252	3688	-11396	-6083	-32768	-19445	-6760	1312	-7220	-10749	-296	138	108	100	1
-8612	-5096	12448	710	984	1176	-16224	44	-1528	1025	6522	-509	-15428	-5036	-152	-1269	10532	4343	-32768	7800	26952	15442	-32768	18245	-20712	3068	-11772	10396	-32768	-17517	-11724	1808	-548	-10513	-5295	-1795	99	115	1
-9224	-4908	12696	438	1850	1210	-15076	680	-1500	-1641	7593	-357	-14748	-4912	-880	-2734	8389	3913	-32768	7628	25420	16352	-32768	11511	-20860	7532	-12512	17223	-32768	-9609	-15884	-316	7092	-4332	-8336	-2555	96	119	1
-8996	-5288	12224	265	1763	1128	-15120	-56	-576	-975	9374	-625	-15100	-2988	960	-3707	7954	3778	-32768	1848	15504	19412	-32768	6917	-21032	4336	-10072	17123	-32768	-5241	-16788	-4072	7240	1665	-4927	-1559	98	121	1
-8856	-5704	12944	481	2405	2174	-17620	-1428	-1912	1333	10141	-656	-16872	-3744	332	-4452	8348	3584	-31888	240	10672	20768	-32768	5838	-19816	3856	-10308	13477	-32768	-2032	-13688	-2952	17812	-1540	1440	-254	96	115	1
-9144	-4440	13900	49	3831	2546	-17736	1476	-2704	1443	11001	-131	-17584	-4464	-512	-5961	8150	2861	-32768	-6804	3068	15149	-24209	9574	-16364	4700	-4256	11288	-26431	-1305	-16876	-3884	26036	-459	675	2562	96	116	1
-8656	-4632	14296	-478	5664	2507	-17036	1116	-2472	309	12585	5	-16720	-4184	-1736	-7434	5515	2487	-32768	-11168	-10284	1463	-9469	13575	-6492	3544	-416	-2519	-7904	-185	-20728	40	31096	-8724	-2693	3054	93	117	1
-8980	-5092	14436	-1056	7858	2741	-16916	1316	-3052	413	13656	184	-16476	-3724	-1220	-4675	4734	3200	-32768	-17388	-8936	-3749	6142	6703	-3536	3796	-8772	-10983	9352	3337	-17820	2432	23300	890	-1628	326	101	111	1
-8956	-4576	14044	-835	10521	3538	-17096	-788	-4116	1353	14978	505	-15992	-4424	-964	-5269	3367	3386	-17324	-540	8704	-5645	14147	338	-13816	5140	-9680	-5366	18379	5711	-16020	-2892	9772	8581	2876	-621	111	95	1
-9252	-6772	14788	371	14056	5188	-19940	-484	-4936	2251	15974	818	-19180	-3032	-1096	-4729	2021	2419	-14624	-4176	19460	-12481	16552	-4720	-18480	1468	292	-5048	20361	5723	-14116	-3868	1080	6046	2760	140	118	83	1
-9432	-6564	15916	663	18912	7533	-22300	2856	-3012	387	17186	275	-21912	-4872	1788	-2572	2211	1546	7044	14200	22796	-9299	11749	-5127	-26120	-7724	5868	-7065	12245	4566	-7336	6036	-11424	193	9161	1610	128	90	1
-8760	-6392	17736	386	25228	9749	-24396	4820	-1684	-1374	19023	-226	-23920	-7588	6512	-2150	-534	183	-5112	-5828	12240	-6588	26546	-4467	-21052	-2232	-7188	-16957	12291	5472	-19036	4008	-15544	3453	7615	2974	136	93	1
-8108	-7028	18736	-1266	32767	12189	-27392	5980	2688	-3357	20914	-400	-23516	-8284	12888	96	-8283	-1478	-22860	428	26196	-1992	23526	-3129	-19888	-2788	-8516	-9196	13633	4114	-24744	9052	15820	-22692	1958	1602	148	87	1
-11640	-9108	18556	-2445	32767	17073	-28852	6344	4092	-6909	23606	-2263	-23196	-4788	13056	-1871	-13486	-911	-10188	3128	19888	2050	15852	-5716	-18192	3356	-7992	-8383	11303	4772	-19648	-2120	-3548	-2895	14715	2503	151	114	1
-18688	-10340	19632	-4838	32767	21791	-30364	5412	100	-10578	25564	-3069	-23692	-4596	12384	-1395	-13904	-748	-16604	11736	18148	728	11848	-2985	-17912	2656	-6796	-8073	9889	5656	-17592	-7388	-6172	-1068	10726	4215	158	134	1
-27320	-11792	20464	-7339	32767	23510	-28224	-2096	-5176	-13782	27097	-2086	-21332	-5832	348	-2110	-19163	-2418	-9440	3772	16640	-396	3938	-1852	-17644	1404	-5744	2167	9207	7752	-15188	3860	-1140	16217	10615	4334	158	126	1
-22236	-11216	16508	-4811	32767	27742	-25284	-7632	-10424	-11893	25824	933	-20480	-10728	-10420	-4123	-19014	-6796	-9532	7224	14924	-764	4044	-1907	-15828	2996	-2732	8192	8509	6589	-14252	6452	-332	8913	8153	4863	164	109	1
-28924	-10196	17552	-8959	32767	25432	-20800	-4156	-13576	616	18132	2626	-25052	-6148	-12468	9815	-19312	-8806	-6556	5944	14500	-550	3588	-1558	-17080	4676	-2508	9020	8071	4752	-14496	7316	320	8675	10193	4131	168	127	1
-560	-18384	20352	-1071	31655	28296	-13760	-4040	-7360	9026	10117	6355	-23988	-2920	-7448	15121	-19042	-9952	-6968	5628	14356	-1387	4010	-1628	-16156	7268	-2876	5022	6932	3612	-15928	6448	-932	8934	9414	2106	183	152	1
-27952	-13488	8096	12618	18172	27263	-7920	-5960	-8992	16047	2056	5523	-21824	-824	-8188	16090	-20775	-10329	-7572	5740	13872	-1810	3293	-1440	-17136	3356	-2596	-961	6362	2831	-16468	6328	-720	3785	10594	1964	179	152	1
-17856	-1600	25592	6392	-21074	1241	-1096	-5424	-20644	6792	-2808	1580	-19140	-1576	-4936	8236	-19902	-10504	-8020	5140	14684	-2133	2708	-812	-16748	344	-3828	3891	5520	1875	-16276	5032	-912	3945	12071	143	189	133	1
328	-9968	16448	-3264	-32768	-18901	-4700	5176	-3324	9720	-8133	1790	-19380	-1788	-7356	5424	-16531	-10447	-8680	5620	14500	-1087	2437	-57	-16360	2272	-4180	9546	4917	1606	-15428	3776	-1884	5195	12832	140	186	119	1
2664	-12440	8620	222	-32768	-23963	-9252	4136	-3392	2944	-16990	3485	-17424	-1268	-6944	5443	-14798	-10484	-8348	5184	14476	131	1985	25	-16728	4592	-3892	6812	4093	1287	-16088	3296	-1804	5600	14418	1234	179	111	1
1504	-7720	7784	5114	-32768	-22010	-4108	-3840	-4956	-468	-23509	4479	-13356	-932	-6192	4162	-10973	-9459	-8080	5064	14488	463	1729	182	-15940	2412	-1628	1838	3664	819	-15908	2816	-532	3328	15044	2373	163	119	1
-3116	-4248	7504	5605	-32768	-19405	-4392	-5064	-5288	3448	-28680	3254	-10208	488	-7128	4335	-6337	-8362	-7568	5484	14028	1063	1986	474	-14932	1936	-76	966	4060	850	-15752	2704	1272	1836	13793	2912	143	128	1
-5860	-4064	8936	2058	-32768	-17942	-6880	-3368	-7564	7709	-32768	4417	-9072	-260	-7184	3472	-4799	-7365	-7336	6884	13572	1014	1758	-403	-16100	3536	-328	522	4448	1344	-15912	3264	2016	953	11261	3234	131	135	1
-8160	-6456	10084	-326	-32768	-17590	-8844	-1568	-8980	9150	-32768	6820	-9668	28	-8020	3564	-1537	-7091	-8252	5932	13628	636	1248	-1133	-17416	1440	-512	1621	5144	1399	-15188	2188	1620	1033	10044	2594	118	139	1
-12260	-6352	13972	-2943	-32768	-18278	-11408	1500	-11380	9369	-32768	9082	-9072	2236	-7924	7582	138	-5422	-7928	6472	13232	-543	351	-1773	-14728	2208	164	3688	5217	2490	-13752	2384	2608	-105	12155	3474	126	146	1
-17452	-8492	17712	-4710	-32768	-19614	-14004	4660	-12344	2381	-32768	9926	-9420	3800	-5828	13827	140	-3269	-7144	6592	13928	-1499	52	-2346	-15300	3188	-84	1689	6547	2041	-15372	2652	2284	-1699	15056	3083	138	146	1
-18652	-4992	22144	-7090	-32768	-19379	-19260	8496	-13524	-10670	-32768	9289	-9568	4952	-2744	13524	-1724	-1935	-7680	5892	14320	-1336	851	-2562	-17004	2688	-876	-1044	7279	2130	-17592	4144	1724	-2527	12697	2079	144	149	1
-27468	-1424	24128	-14699	-32768	-15301	-17720	5816	-13840	-24134	-32768	4791	-8744	5660	932	9234	-2070	-1525	-7916	5408	14144	-809	1544	-2977	-16440	288	-1376	-262	8028	2305	-17456	5724	-2968	106	7403	2147	155	180	1
-32768	-3300	22716	-22953	-32768	-7793	-17992	-844	-13692	-32768	-32768	-2870	-10660	4380	1928	2666	-1650	-1348	-8260	5328	14448	-382	1931	-3212	-15620	548	-1220	2706	9276	2769	-16924	1996	-1948	3567	6348	1674	188	209	1
-32768	-3612	16804	-27118	-32768	-1806	-22712	-2112	-11704	-28280	-32768	-8898	-15344	-416	4024	-6137	-2673	-541	-7244	5472	15428	-287	3597	-3895	-18492	2300	-1212	1450	10465	3183	-18828	808	3624	1404	8396	1672	217	233	1
-32768	4444	10736	-27203	-32768	-3892	-20772	2780	-10536	-16510	-32768	-9856	-18436	-6476	13560	-9767	-5725	-1597	-7384	4804	16400	329	7094	-3999	-18816	1032	-1416	-748	11752	2967	-18884	900	4680	2042	8437	2565	234	234	1
-32768	8732	4404	-18330	-22651	-10406	-14912	-2944	-10400	-12209	-23210	-5871	-16648	-13604	20180	-6814	-5093	-3141	-7100	4328	16888	1769	11162	-4147	-17936	-1156	-16	718	14242	3295	-19180	884	1824	3635	6891	2025	216	220	1
-32768	8648	3028	-15488	-20744	-11238	-14528	-3776	-10020	-10643	-20694	-5230	-13880	-20428	18876	-7733	2260	-3426	-7460	5344	17232	1888	16409	-4774	-19564	-752	944	1509	17168	4228	-21048	2100	4172	4760	5498	276	191	205	1
-32768	22688	-10212	1923	2064	-6095	-5928	296	-8872	7131	6023	-230	-16632	-15180	15068	-11114	1150	-1367	-7872	5576	17288	1959	22059	-5710	-20192	1048	668	-243	19865	4481	-21500	2836	5812	4879	2804	-702	194	194	1
-32768	3708	-6808	13538	14354	6925	-11712	-2448	-15016	10326	17271	-447	-15424	-7336	4364	-11420	1213	2635	-7444	6580	17588	1774	29306	-7493	-21664	432	92	-2511	22202	4720	-21080	372	6204	4037	-505	-785	186	187	1
-17432	5744	24664	12504	14160	9790	-15188	2460	1516	7285	18794	618	-13820	-3608	3996	-12975	2473	3973	-7684	5832	20084	3111	32767	-10230	-26120	-1140	5200	1383	24745	4960	-24960	-340	12952	2085	-7021	-2088	124	194	1
8788	-10888	19184	2812	18305	4766	-32768	15324	5872	14879	12206	521	-14616	1284	-8456	-13414	5033	7098	-10548	10356	20228	3580	32767	-17621	-31956	-5016	2676	6428	25600	6619	-23408	-3780	9256	-588	-8605	-5174	65	192	1
-24912	1144	23232	6043	29936	8240	-19452	-252	-5980	11335	12447	1708	-26700	-12976	8244	11526	-5401	6058	-20784	13676	22516	4877	32767	-22085	-32768	-3600	3820	9754	27164	7536	-26060	-5892	16324	-8635	-14894	-10424	62	182	1
-10840	-8372	15904	3665	17335	9333	-10384	-2512	-9208	13754	13371	2598	-20728	724	-1640	4992	11555	4622	-24112	13468	20616	6604	32767	-24514	-28548	7172	-1176	9205	26936	5785	-23860	6816	-340	17633	-21722	-8312	65	171	1
-26184	-15544	16324	8374	10694	4477	-20992	1856	-9160	9836	12972	-5050	-15228	17744	-5264	3043	14180	2297	-18788	4964	14408	3616	32767	-29049	-20712	12112	-7704	2710	23432	3429	-22784	10732	-7408	22140	-28070	-3958	64	155	1
-5892	1980	16460	5356	6142	2965	-16364	3604	-7092	1362	13129	-4394	-13164	1932	-4212	-12929	3231	481	-32768	6664	20852	5561	32767	-22894	-17156	7836	-12160	-8946	19661	1863	-23356	15452	-10828	14750	-24569	-2928	89	161	1
-12584	-8028	12728	4087	4612	2460	-15240	-976	-6664	-10884	13131	-3742	-16076	-6580	-7808	-15216	11804	1392	-13916	17040	27276	5538	32767	-19737	-13912	4168	-4872	-11520	12130	-1730	-24500	11272	-13088	-5718	-24645	-512	94	145	1
-8292	-5992	13816	3651	3646	2331	-19596	-3628	-5244	-8524	10466	-3588	-14652	-4976	-5408	-12897	8724	2457	-13196	25204	14292	-12966	17617	-19237	-8488	10968	-11868	-8163	6012	-7086	-20852	9172	-4952	-18561	-23867	1623	121	104	1
-8016	-4952	13812	3090	3526	1958	-16800	-4148	-5624	1540	7695	-1376	-15540	-5784	-2856	-8113	7918	5431	-22000	11740	28588	-20939	-27635	3309	-712	11688	-16636	-3753	1431	-10163	-19412	4740	-1340	-16155	-21298	2865	74	58	1
-8876	-3720	13916	2020	2429	1775	-17180	1148	-4032	3116	6942	-1236	-15596	-6304	-3064	-3347	9134	7243	-848	8940	17320	-18186	-32768	9924	-6988	2824	-4056	-6209	-5017	-7090	-21328	2384	-2648	-8085	-18682	1414	82	64	1
-8716	-5508	13220	1690	2484	1505	-17644	112	-3224	-5111	6444	-1216	-16588	-4704	-3312	-1450	8817	7120	-40	5096	8996	-14570	-32768	7760	-7160	1240	-4808	-6302	-14528	-10305	-19236	3476	-5800	-4139	-15694	802	73	42	1
-8836	-4848	12776	1201	2536	1186	-16256	-2000	-4224	-6068	6357	-1361	-16656	-3468	-3376	-969	9941	6519	1296	2708	6808	-8475	-32768	5638	-3660	4956	-6748	-8868	-22677	-11073	-14332	3000	-6472	-5921	-14276	-246	81	32	1
-8908	-4544	13124	512	2310	1046	-16832	-1796	-4068	-1984	5906	-557	-15612	-3276	-1896	732	11009	6149	-1644	4644	5536	-2675	-32768	3534	-2412	-524	-5360	-5440	-26223	-15100	-10680	3584	-7484	-7862	-10927	-178	80	28	1
-8940	-4164	13020	69	2083	758	-16404	100	-3528	80	5265	-97	-14828	-1852	-1720	1394	11256	5695	-4612	7388	6988	1558	-32768	3307	-3608	2236	-7604	1266	-31290	-16057	-8336	3616	-8272	-7934	-7085	-509	87	34	1
-8764	-4496	12664	28	1995	758	-15720	128	-3168	-417	5268	-375	-14832	-1328	-1748	61	10975	5698	-9108	9012	10232	3931	-32768	7955	-6016	3208	-9152	5300	-32768	-16797	-7568	2628	-8528	-8829	-3945	-211	88	46	1
-8732	-4968	12856	-143	2070	818	-16216	-48	-3248	-1625	5684	-817	-15620	-3108	-2072	-2235	10822	5605	-13616	10956	12612	5444	-32768	15094	-7248	7964	-8480	7962	-32768	-16382	-6760	2604	-9424	-9403	-1159	931	90	58	1
-9544	-6096	13280	268	3061	1761	-17316	436	-3484	-15313	4695	-2132	-15532	-4000	-1000	-3360	11211	4419	-16196	13976	13816	5748	-32768	19897	-14108	7176	-10556	-3938	-32768	-18545	-5484	2416	-9868	-9861	62	2878	92	70	1
-9032	-4224	12468	-645	1711	1674	-15232	-2016	-3720	-3552	7628	1072	-15176	-3576	372	-4516	10808	4350	-19720	8968	19404	9274	-32768	20562	-17760	5284	-12080	-4673	-32768	-19351	-6448	1436	-9360	-8196	578	1665	94	82	1
-8936	-4064	12860	-528	1961	1474	-14900	-1476	220	6233	10520	-1585	-14244	-4932	1372	-4355	10922	4344	-29748	9020	25512	14993	-32768	18172	-21268	2700	-11952	3332	-32768	-17151	-10032	692	-4592	-10785	-1679	-582	93	95	1
-8796	-4556	12600	335	1878	1245	-15404	-600	-1260	4055	9628	-45	-14952	-5764	-272	-4124	9475	3827	-32768	7480	26680	20254	-32768	14610	-21780	5468	-11296	19527	-32768	-11414	-15420	1616	4832	-6039	-8021	-1576	93	97	1
-8820	-4668	13332	604	2839	1970	-17800	2092	-3044	-4291	8582	-575	-16040	-3948	-812	-2463	8769	3318	-32768	4732	17408	20773	-32768	8765	-19972	10964	-11092	19017	-32768	-5347	-18516	340	8092	-1754	-9140	-1445	96	94	1
-9024	-4244	13860	-121	4160	2156	-16616	1272	-2592	-3744	10272	-525	-16760	-3044	-504	-3794	9120	3863	-32768	192	8368	20963	-32768	5212	-20424	4676	-10164	11934	-32768	-1389	-15060	-1384	18924	-4177	-2306	461	99	87	1
-9172	-3948	13664	-203	5445	2086	-15628	-1052	-1496	-307	12813	-507	-15872	-5404	968	-6002	8255	3838	-32768	-6192	1356	20443	-24236	7187	-18084	4508	-9444	12782	-26243	1461	-16104	-5824	25400	791	2201	2342	86	86	1
-8832	-5336	13980	96	7476	2664	-17104	-1448	-712	775	14072	305	-16008	-6220	-180	-5886	6508	2286	-32768	-10044	-7028	10914	-10256	12645	-6784	6532	-3936	5356	-11688	2490	-18232	-3744	26392	-583	62	3039	97	93	1
-8768	-5720	15320	359	10706	3978	-19244	720	-3424	1844	15405	641	-19848	-3272	-468	-5742	4322	1336	-32768	-12264	-10784	-2599	4611	11870	-3812	4468	-8448	-7113	5881	3833	-16356	5192	21404	6067	-1939	3732	104	93	1
-8736	-4440	16088	434	15381	5176	-21004	4536	-4268	2149	16551	79	-20284	-2452	2196	-5862	2124	2387	-22652	-2840	9252	-8526	17297	9589	-12684	6412	-9604	-11306	16106	5809	-14688	4400	10772	5383	2480	2237	112	89	1
-8888	-4672	16076	-588	19901	5871	-20044	3872	-2084	290	18232	-757	-19688	-3724	2384	-11748	-4202	2237	-16736	-13848	20320	-15760	22486	4345	-17124	-284	-1792	-19423	20544	5999	-14732	2232	4796	-5867	3686	2009	120	78	1
-8976	-6388	17164	-1364	25792	7854	-21220	2228	-736	-2362	21281	-1098	-21284	-3740	9280	-1191	-6291	441	8672	5300	23764	-8076	17299	3643	-30524	-10356	4624	-20079	11631	1752	-8008	11084	-13196	3235	16118	4139	130	84	1
-9592	-9424	18604	-2337	32767	11395	-27976	3908	1336	-3516	23481	-1910	-21916	-10732	12032	-2707	-9170	-1605	-12304	-10100	21700	-4724	32767	-5031	-20572	-6024	-6800	-28261	13388	3565	-26100	-4384	-3804	-22598	9387	2099	141	104	1
-11740	-10956	20388	-3266	32767	17907	-32768	5980	2688	-7100	25103	-4360	-24204	-8188	11544	-8050	-15129	-3766	-22936	-5260	28220	-4326	32767	-5533	-17584	-5756	-7824	-6724	16252	4574	-22784	3392	9216	-23242	4760	-1199	154	118	1
-17936	-10464	20340	-4155	32767	23953	-30688	3924	-1320	-11137	26292	-4682	-24832	-5712	6632	-3877	-14096	-2525	-18180	17464	20428	-3242	16266	-7843	-16912	7808	-7200	952	12340	7336	-19552	-6792	-2980	-870	14036	-193	167	129	1
-28360	-10828	20428	-7190	32767	24299	-28112	-812	-6532	-15098	27364	-1666	-21488	-7456	-2848	-1642	-19055	-4633	-10740	-1480	17668	-4071	2054	-3049	-18704	8156	-9444	-1613	12783	9416	-13500	-972	-6128	11201	6879	3898	169	102	1
-25128	-7948	16172	-4474	32767	27317	-25420	-8452	-12772	-13330	25148	3050	-21992	-9336	-13116	-1179	-19818	-7720	-11984	9576	14916	-3356	2272	-2588	-16480	2076	-6948	1924	9974	6011	-15036	5316	-5540	20088	6863	6751	159	109	1
-26504	-10948	18604	-8958	32767	24067	-18608	-4480	-13184	-102	16716	4528	-26152	-4016	-10808	14896	-20521	-9423	-5588	5096	15624	-1184	1826	-1488	-16856	1824	-4544	4700	9029	4909	-14616	6696	-4308	15207	6613	7197	190	103	1
2128	-20884	22308	-2977	32767	26281	-12468	-2400	-6936	15594	7886	6982	-25904	-2304	-6072	19583	-21052	-9996	-6856	4564	14784	-1201	1063	-1047	-17076	3432	-4312	7573	7568	4102	-16564	5272	-3360	6076	11454	2842	201	138	1
-32768	-14024	13072	7966	7925	17723	-4564	-2556	-20044	11030	334	3521	-23132	-1004	-6228	13489	-20007	-8709	-7152	5240	14664	-844	1268	-910	-16912	5068	-3588	1210	6689	3086	-16160	4524	-384	2829	9669	945	203	158	1
-13280	-5592	23400	5631	-27833	-7809	-308	912	-13772	3151	-3816	41	-19372	176	-5320	7148	-18856	-8762	-7576	4924	14848	-1158	1495	-730	-16840	2100	-3104	-440	6019	2176	-16856	5136	76	2096	12255	-469	185	123	1
488	-5988	14088	-886	-32768	-22066	-6500	5888	-3692	4934	-10296	-66	-19052	-548	-6124	3282	-17539	-8757	-6976	6052	14144	-1364	1731	-740	-16556	980	-2372	4885	5559	1675	-15720	4476	-792	2315	12791	503	179	113	1
5356	-6836	7656	-384	-32768	-24071	-9528	4052	-4804	-1155	-18204	1482	-18792	-840	-6084	3191	-17148	-8875	-7380	5920	14688	-814	1752	-953	-16560	3628	-2664	6190	4716	1739	-16636	4588	-868	635	13613	2349	170	109	1
116	-3500	8828	2364	-32768	-20857	-3448	-2228	-4624	-1479	-24135	2830	-13004	-288	-5600	2692	-12454	-7215	-8040	4480	14840	-214	1366	-899	-16056	3336	-3536	1559	4454	1284	-15628	2556	-464	633	14529	2714	143	109	1
-3272	-960	9568	2030	-32768	-17142	-3696	-2568	-6044	3450	-29315	1246	-10152	1692	-6480	561	-9231	-6216	-7872	4728	14464	-378	1145	-803	-15252	1984	-2824	-598	4376	901	-15036	1428	-216	1614	14776	2514	111	124	1
-6524	-752	11368	-980	-32768	-15877	-6408	-604	-8772	6144	-32768	3538	-8996	848	-6640	585	-6789	-5230	-7612	5292	14092	-654	890	-928	-15216	1724	-1904	-228	4386	1395	-14968	1820	452	2724	13214	2388	115	128	1
-8804	-2780	12556	-2305	-32768	-14779	-8616	2704	-8588	4432	-32768	5294	-8916	1620	-7596	1068	-3127	-4706	-7520	5564	13988	-995	352	-1417	-15472	2700	-880	704	4645	2014	-15048	3024	756	2009	11836	2488	120	129	1
-12204	-3104	15492	-4435	-32768	-14325	-10916	3308	-10716	2616	-32768	6366	-8436	3396	-7104	4214	145	-2470	-7452	5640	14504	-1134	186	-2110	-16444	2196	-1016	532	5108	2364	-16152	3508	656	-396	12417	2722	127	155	1
-14184	-4720	19612	-7389	-32768	-15109	-13864	4448	-12652	-1408	-32768	8033	-8304	4988	-6496	6948	-89	-342	-7452	4508	14680	-857	916	-2113	-16252	1852	-1816	-46	5934	2195	-16228	3560	964	-798	12618	2763	134	166	1
-17672	-4400	23508	-10436	-32768	-16847	-20424	7712	-13532	-11755	-32768	10045	-8524	4752	-6552	7302	21	-383	-7484	4580	14796	-443	1828	-2050	-15840	1884	-884	-635	7009	1926	-16580	1452	1624	-4226	13237	2339	134	170	1
-28632	-5072	26228	-13284	-32768	-16312	-18660	5684	-14828	-21679	-32768	7610	-8128	5424	-2100	6688	-2115	1613	-7316	5744	14628	-521	2653	-2434	-15724	1280	-64	-788	8299	2450	-16744	3196	1504	-2909	10535	2141	142	181	1
-32768	-5060	24200	-15935	-32768	-14999	-18456	-3276	-14072	-30404	-32768	600	-9408	1296	-1588	5078	-904	-143	-7700	4516	14584	-644	3315	-3036	-16496	1624	-1624	-395	9729	3213	-17308	3932	-820	-947	6441	2755	171	197	1
-32768	-5020	16680	-15637	-32768	-12168	-25932	-3940	-12548	-20740	-32768	-3571	-16176	-6324	4552	449	-3804	-2406	-7752	4128	15684	-616	5459	-3070	-17620	1584	-3476	-1231	10432	3151	-17828	1584	-852	-352	6009	2407	204	219	1
-32768	3284	6240	-15527	-32768	-8979	-21308	4096	-11044	-10443	-32768	-4232	-20032	-9960	16512	43	-3395	-2595	-7388	4264	16608	-323	8592	-3327	-18832	36	-2260	-73	11694	3026	-18788	840	1388	537	8629	2008	230	229	1
-32768	10984	-2564	-16116	-20848	-11575	-12156	-2888	-11724	-4324	-23620	-2504	-18624	-14872	29752	2351	-3511	-2356	-7148	4368	16996	58	12711	-3901	-18680	664	-748	1003	13585	3535	-19316	1932	3400	3114	7620	1702	222	218	1
-32768	15188	-14840	-6683	-10948	-11191	-4344	708	-5652	-5681	-5041	-1944	-13548	-17968	26364	-7996	592	-1672	-7660	4596	16908	77	16743	-4564	-18256	1832	-1236	172	15601	3920	-19356	2592	3040	3080	4418	501	211	205	1
-32768	16716	-14004	-893	4205	-2349	-8164	-5684	-10640	-992	12456	-1239	-14492	-6644	10952	-12611	620	3391	-8724	6116	16412	-250	21018	-5898	-18912	2552	-136	36	17766	3830	-19880	3668	2948	4510	3124	-927	196	197	1
-32768	3752	-1772	4517	13536	5768	-11944	-5096	-15708	11383	18533	-112	-14336	-4416	404	-17219	3476	4938	-8320	6964	16032	-344	25812	-8848	-20964	1324	-20	-42	19679	4714	-20076	2468	4104	6866	423	-517	159	194	1
-12036	-17900	17468	18408	13331	9368	-15900	-552	-2444	12163	17709	-1002	-9092	-940	-6596	-16741	9894	3344	-8356	5244	17460	156	32453	-12240	-23108	436	2616	4014	21780	5353	-21948	-876	8964	4825	-4850	-588	126	187	1
18268	-16440	18284	5434	12018	-2137	-30424	9860	9580	19207	8684	-332	-5640	100	-15248	-8850	9541	3964	-8628	5292	19488	52	32767	-12642	-27956	-3524	3268	5754	23236	5807	-20380	-3428	11496	-802	-6097	-2637	76	180	1
-152	-3396	7968	6447	32767	-3004	-25340	9556	3208	19071	8170	1546	-29604	-7408	15516	12117	-8831	3369	-15144	9496	21584	-1155	32767	-23306	-29364	-2688	3524	7072	25164	7808	-25408	-7428	12044	-869	-11783	-7532	76	189	1
-28592	15212	28912	4601	23908	7595	-17460	4368	-7488	16251	10572	65	-31840	-9244	20052	14096	-10414	2599	-20572	9584	23020	944	32767	-25338	-32768	-204	1452	8050	25762	7847	-23880	1980	8344	5904	-18200	-9799	70	171	1
-16180	-4280	20612	-149	15524	10238	-18556	13312	-4984	13306	13269	-1735	-19168	13036	2788	4471	15311	3425	-22372	8012	19592	2920	32767	-26220	-25548	8128	-4976	6328	25062	5068	-22296	9488	-3532	20780	-26632	-5383	36	116	1
-21348	-19140	10660	3734	6500	1258	-18488	-1500	-7964	-4625	16698	-6869	-13980	11172	-9068	-8489	12293	4227	-32556	4012	17964	2052	32767	-25963	-18376	9568	-13144	-320	22091	2136	-22016	10460	-5708	13690	-24388	-2384	13	112	1
-8612	-3448	15044	4532	5692	3757	-15252	-7776	-6500	-2365	14016	-5896	-8756	-6852	-4320	-15331	3369	967	-23944	13412	22184	3151	32767	-23262	-14288	7140	-10568	-4044	16055	1160	-25424	8680	-11728	4890	-24858	-2410	9	112	1
-10096	-4816	14528	5212	3780	2858	-19000	-740	-6880	-1746	11408	-3960	-15836	-8344	-7284	-10241	9350	371	1092	24524	23700	-4909	23038	-22195	-12708	7424	-8704	-6251	9144	348	-24120	9200	-8324	-3201	-23506	-643	60	101	1
-8872	-6648	13568	2706	3492	1790	-16940	2988	-6188	-5560	10539	-1901	-16184	248	-5620	-7966	7839	1636	-32768	12480	25104	-9902	1680	-6706	-11780	7992	-9000	-5584	8168	-161	-21304	7868	-3940	-8568	-22830	1691	91	87	1
-8832	-3392	13768	1268	2611	1018	-17224	-1820	-6924	-3763	9650	-2574	-17900	-1916	-3720	-7144	8869	6304	-9444	14812	21396	-10417	-29131	15336	-2640	5800	-9132	62	-1296	-4548	-20500	3068	-1908	-7946	-20211	2681	106	91	1
-9068	-4396	13644	569	2459	946	-18172	-1044	-5712	-1252	7849	-2149	-17352	-5352	-4592	-6431	9453	8913	-820	11412	13664	-12991	-32768	19632	-7668	3004	-4788	-3456	-9362	-5362	-20896	2004	-3768	-2635	-18093	2313	114	94	1
-8728	-5408	12740	183	2238	641	-16168	-928	-4348	-1717	6589	-1085	-14944	-5828	-3980	-2965	9921	7472	1500	2528	7900	-12091	-32768	18161	-5560	3980	-6684	-8030	-18481	-6402	-16748	3004	-5724	-1963	-15823	2114	103	67	1
-8024	-6136	12472	109	2278	1064	-16724	-812	-3020	-3521	5843	-519	-15504	-5584	-3004	886	10149	6213	-112	-1016	7572	-4765	-32768	15093	-3372	1944	-5268	-9991	-25267	-8331	-13128	2448	-6040	-4428	-13569	1469	98	61	1
-8236	-5512	12976	164	2559	1484	-17760	-1244	-4016	-2572	5435	-818	-16264	-2764	-2344	3055	10964	6260	-1860	1048	7628	3182	-32768	10547	-3960	-120	-6452	-8473	-29705	-11385	-10360	4508	-7180	-5441	-9656	1047	99	57	1
-8920	-4456	12896	-130	2396	1298	-16384	1000	-4528	-294	4799	-531	-15376	460	-1516	3265	12077	6306	-6624	3856	10820	6751	-32768	9552	-4400	1772	-9292	-3389	-32768	-12946	-8496	3684	-7992	-5662	-5780	814	97	59	1
-8832	-4468	12380	-28	2042	821	-15084	1560	-3772	-838	4680	-516	-14980	-440	-1560	439	12858	6780	-11292	5240	13704	7456	-32768	12378	-5860	984	-9636	2541	-32768	-13775	-7444	2416	-8836	-6941	-2465	1134	96	66	1
-9132	-4728	12600	-539	1962	469	-15360	180	-3104	-2618	5199	-998	-15576	-3384	-1224	-701	12596	5713	-13480	6872	15444	7479	-32768	16179	-8340	5768	-8876	5737	-32768	-14778	-6720	1836	-9812	-9329	-234	2158	95	74	1
-8784	-5700	11856	-1227	2706	794	-17300	-112	3632	-10525	-1406	-2114	-15600	-3812	448	-735	11847	4818	-15856	6460	17748	8384	-32768	19826	-14852	3696	-11812	-1716	-32768	-17833	-4664	1112	-10624	-11679	-426	3591	97	83	1
-8688	-5344	12772	-639	2190	998	-16576	-2056	-1408	2407	9155	-1814	-15536	-4016	1296	-771	11287	4636	-20924	4712	21988	11526	-32768	19608	-18596	1928	-11668	2138	-32768	-19022	-7148	2008	-8520	-9451	-1521	1266	99	89	1
-8696	-5168	12552	-237	2594	1497	-16160	-160	-1176	3329	8639	-731	-15236	-4072	1340	-969	11520	4720	-30272	6012	26980	14882	-32768	14939	-23184	3504	-12420	12446	-32768	-16059	-10360	2112	-1936	-8972	-5102	-44	98	103	1
-8956	-4328	12836	-47	3262	1450	-14700	1900	-2048	-1516	8815	-389	-14184	-4976	128	-3238	11512	4293	-32768	6192	25392	18413	-32768	9559	-23452	7904	-11136	16533	-32768	-10285	-17124	2676	8376	-2959	-9444	-484	98	109	1
-8952	-4960	12920	-31	3487	1335	-15592	640	-1544	-1908	10311	-199	-15472	-2400	-1972	-2487	9744	3753	-32768	3428	13792	20929	-32768	5924	-19288	6340	-11140	12467	-32768	-4672	-19456	-2208	9960	2526	-5152	-1229	101	102	1
-8940	-5248	13208	-58	4566	1705	-17484	-800	-2324	1202	12395	-391	-17324	-4852	-2264	-867	8854	3512	-32768	-2080	6864	21687	-30769	6075	-18156	1804	-9748	11059	-32768	-1129	-17148	-2916	23308	-223	2588	-1926	100	88	1
-9196	-5476	14176	14	6615	2664	-19152	-516	-4956	2694	12500	452	-18132	-3712	-2184	-5353	7292	2401	-32768	-9352	1984	17970	-18916	9054	-15052	6760	-7940	14605	-22230	1010	-17388	-7308	25924	380	2661	3003	100	87	1
-9176	-5216	14376	3	6995	2845	-18996	2624	-4360	1186	12807	913	-18428	-3008	-1864	-5572	6817	2345	-32768	-12832	-8176	5626	-8579	10433	-5384	5208	-4292	4554	-6698	2290	-15752	1044	25140	-203	-4007	3964	104	93	1
-8812	-4944	14896	-570	13001	4063	-17124	2736	-2252	-116	14348	328	-17508	-2264	-1404	-6522	4279	4061	-32768	-17012	-9108	-1413	4941	4463	-5272	4848	-10000	-4754	9658	4300	-17036	6612	17432	9338	-1192	1817	108	97	1
-8976	-4620	14356	-926	16155	4442	-16928	1416	-108	69	16717	310	-18184	-4484	3044	-3747	2638	3297	-22500	1776	-9220	-23808	22590	-6388	-13596	7104	-12688	-10826	18214	7893	-16760	6632	14888	9643	8	1268	121	81	1
-8880	-6316	15756	-1093	20814	5804	-20536	880	-992	1748	19462	784	-20020	-5944	4792	-3202	-1473	901	7404	9552	32767	-14127	18356	958	-24916	-12164	12160	-13214	15682	2882	-9516	4684	2344	-9120	5251	1010	125	72	1
-9296	-6700	18280	-1746	28209	8543	-26856	3240	-2312	-479	21861	587	-24932	-8076	9280	-357	-5398	-1407	-1248	-18804	10636	-7257	29608	-7836	-29092	4	-5408	-26213	13164	5339	-18736	3132	-16340	1442	14954	2759	140	88	1
-7808	-13340	18332	-3674	32767	13061	-32768	10584	5556	-3952	23490	70	-26084	-9548	14440	-7370	-16454	-3826	-26120	-1100	29668	-775	22375	-9672	-12844	-6972	-5508	-11779	16821	3707	-23344	372	12012	-32768	1120	-379	149	107	1
-13952	-10280	21368	-4061	32767	21715	-30552	9352	4876	-10504	25373	-3743	-24304	-1340	16780	2766	-22523	-1975	-7260	9208	14780	208	18377	-10887	-16460	2484	-6188	-942	14136	6380	-15060	-1132	-1996	-5308	7644	-779	155	127	1
-24208	-11548	21300	-5615	32767	23728	-28068	2720	-1320	-13037	28794	-2580	-22260	-1856	8612	-388	-19477	-1795	-32768	17704	13536	-5503	4509	-4254	-20028	19528	-8764	3810	15311	7593	-18176	-3332	4636	-2101	7969	2394	168	121	1
-28612	-11800	20384	-7296	32767	24173	-26644	-6572	-11532	-11695	28498	874	-20752	-10548	-8088	-10140	-16044	-3745	-6824	6972	15348	-5206	4155	-3857	-18240	-2488	-7244	-9121	10981	7499	-18400	4008	-11552	23626	6680	4454	170	100	1
-32220	-5284	18452	-2652	32767	27521	-24464	-4548	-16408	-3447	23201	3031	-25408	-10488	-15712	-1730	-14931	-7829	-7164	-3592	17448	-2744	1657	-1508	-15592	-2836	-6328	4211	11275	5507	-12036	4752	-1560	7876	6373	8088	180	89	1
-13508	-15612	19584	-6368	32767	24192	-19940	-3368	-8036	7644	13773	8024	-26704	-4896	-11572	15320	-21084	-8493	-8764	4020	14340	-1081	905	-581	-16648	2320	-5492	17472	9842	5893	-14312	6228	-3504	14261	11215	2549	202	128	1
6964	-26244	22056	11409	31247	32469	-12120	-8272	-7464	15931	4845	9056	-22820	-2712	-5108	21994	-21901	-9861	-7820	5192	14020	-507	699	-456	-16320	10740	-5600	7911	8250	4125	-16604	6468	-1936	12549	8884	1247	210	170	1
-21440	-9844	23464	11714	-9695	13303	-3140	-3820	-23100	10124	-2177	3734	-20160	-2884	-7676	13507	-18902	-10334	-8016	5508	14184	-737	1021	-588	-17708	6860	-5212	-4122	6522	2651	-17576	8488	-3176	8626	11282	1512	203	155	1
-2560	-7292	19764	361	-32768	-8923	-2256	2224	-5508	7747	-6077	2335	-19624	-2556	-5872	8117	-18347	-9053	-7652	5064	14552	-887	1283	-459	-16436	820	-3912	-866	5655	1303	-15688	7456	-1580	3046	14315	1530	190	155	1
892	-11888	10404	-1333	-32768	-16563	-9012	4668	-3568	4666	-13723	3381	-18284	284	-7212	6570	-15737	-8962	-7924	5044	14624	-177	1475	-346	-16544	1160	-4004	6655	4616	1413	-16240	5228	-1472	1983	14304	1393	181	144	1
2824	-10660	7004	1750	-32768	-17437	-4004	-1216	-4396	-2641	-20956	4906	-15124	-1316	-6368	6535	-13613	-8250	-8128	4828	14460	215	1480	-259	-16600	4152	-4092	6601	3952	1345	-16688	3460	-696	3347	15403	1680	169	129	1
-2668	-6392	7184	3561	-32768	-16988	-3760	-4976	-5520	-3673	-25992	4006	-10760	-544	-7196	3808	-9594	-7020	-8172	4616	14304	295	1564	-475	-16312	4704	-3312	1838	3444	1216	-15236	2016	108	4957	16212	2073	152	139	1
-3796	-6128	6768	2690	-32768	-16946	-5712	-3988	-6468	1671	-32306	4440	-10604	640	-7908	2438	-5004	-6785	-8104	4772	13988	342	1525	-756	-15440	1956	-1764	1008	3267	899	-14624	2268	132	3670	15402	2340	139	149	1
-6932	-7884	8556	1688	-32768	-17561	-8380	-2400	-8716	5317	-32768	6031	-9356	672	-8800	2950	-2571	-7732	-7704	4964	13868	366	1210	-978	-13576	248	-376	4030	3602	693	-15220	3100	276	1516	14029	2930	114	152	1
-12036	-7496	11532	-161	-32768	-19410	-10868	-872	-9724	8769	-32768	7759	-9380	2544	-8900	3768	-468	-7132	-7712	5632	14124	105	1204	-1560	-17520	4780	-440	3008	4513	1505	-15256	3104	636	1481	13740	3020	120	156	1
-15284	-9020	15264	-2507	-32768	-22011	-13556	1028	-13264	4824	-32768	9775	-7892	4252	-8528	6203	-608	-4977	-8208	4600	14104	-184	1148	-2084	-15348	2788	-1108	1610	5153	1957	-15900	2932	4308	512	14163	3067	138	169	1
-19920	-8076	19644	-7157	-32768	-22690	-15236	7480	-13692	-1627	-32768	9243	-8256	4004	-5728	12356	-335	-2473	-8388	5180	13972	-574	1317	-2063	-15184	2272	-688	1480	6148	1914	-15028	3160	692	-2192	13852	2630	188	218	1
-26844	-6152	22516	-15362	-32768	-21009	-16904	7296	-14856	-19078	-32768	4932	-8240	7108	-2560	12490	-173	-291	-8172	4628	14220	-347	1521	-2285	-14720	460	268	2381	7696	2652	-16172	5916	-3140	-290	8963	2160	224	242	1
-32768	-6804	22060	-20777	-32768	-17932	-17052	-1016	-15400	-32015	-32768	-1506	-7724	6116	-1480	7004	594	-825	-7524	4776	14972	-380	2394	-2456	-16160	2776	-336	513	9180	2814	-18064	3552	364	1585	6037	1832	221	230	1
-32768	-6604	16676	-20838	-32768	-13303	-20944	-5468	-12760	-27958	-32768	-6951	-13424	-1976	1300	-2871	-2868	-2376	-8144	4864	15304	-437	4441	-2969	-18336	2692	-2576	-2315	10004	3108	-18820	1064	3648	1029	6746	1775	212	211	1
-32768	1524	9656	-19414	-32768	-8108	-23596	-972	-11996	-13945	-32768	-9359	-18976	-6412	10000	-2962	-5118	-4474	-8096	4472	15648	-134	7247	-3245	-17596	572	-2180	398	11140	3375	-17364	412	2920	2380	9231	2795	205	200	1
-32768	9868	4520	-20274	-21903	-10153	-18080	-2200	-11300	-5122	-27930	-5420	-18664	-11464	20316	-237	-3638	-3847	-7696	5108	16332	135	10632	-3548	-17852	1328	-200	2376	13108	3948	-18516	1136	52	4659	7764	2815	196	186	1
-32768	8412	-5024	-6311	-12235	-14901	-9660	-784	-10492	3115	-14076	-2790	-15388	-21460	24636	-7375	574	-2790	-7796	4576	16740	433	14773	-4343	-18936	1820	-284	574	15414	4521	-19972	2796	3292	5684	4896	1631	174	179	1
-32768	21524	-13520	6619	-475	-11226	-3456	812	-7808	4210	3897	-1558	-14600	-17712	17156	-10949	2009	-505	-8520	4568	16760	494	19619	-5224	-19316	1272	104	-614	17630	4608	-20736	4528	5956	4738	3334	693	168	176	1
-32768	13252	-12120	12686	20917	2569	-13736	-4784	-15236	13293	17367	-90	-16100	-9360	5620	-7736	4646	2891	-8376	6492	17892	921	25609	-7019	-21356	1328	2060	-927	20332	5305	-21744	2912	4832	6017	500	-281	165	173	1
-22212	6748	29212	11554	20645	3108	-14584	3716	4340	17850	18190	2819	-15508	-6056	3612	-11501	-580	1727	-8444	7432	19280	1427	32767	-10886	-25568	88	-52	231	22608	6784	-25020	1000	13152	3408	-6697	-708	121	170	1
3444	-4732	15784	-819	17363	933	-32768	17488	2224	23976	13293	1311	-17392	2996	-1340	-8383	1469	6395	-6952	11356	20120	1927	32767	-16237	-32768	-3196	4344	5117	24523	7208	-24772	-1216	11908	-279	-7875	-3394	74	166	1
-27660	5436	26868	3739	26887	8951	-16744	5216	-6444	12465	14822	1324	-26596	-7840	5028	12494	1225	4735	-15336	10408	22392	3709	32767	-22739	-32504	-2988	3484	7514	25457	9238	-26648	-7344	14204	-4207	-14834	-8227	48	163	1
-5532	-8064	13220	2024	15870	8409	-11992	-8	-8924	9792	14544	831	-18456	8688	-10248	4254	12526	5192	-22336	11764	21940	6054	32767	-24656	-32288	-1748	1852	11533	25820	8972	-23868	-1624	2072	11267	-22185	-9875	33	142	1
-16940	-15896	14456	8683	14098	6175	-17392	-2908	-8144	8505	12881	-4514	-15964	11384	-10236	6044	13639	4658	-20224	6332	17192	7440	32767	-25238	-22120	7824	-8300	9310	23664	6055	-20944	5400	-4896	16404	-30474	-4940	0	111	1
-14200	-2420	16004	7016	4702	4423	-19644	2384	-10088	3678	11846	-3746	-12656	-2360	-1508	-9936	2346	705	-32768	4692	19204	8393	32767	-21683	-15952	7708	-14124	2263	19013	3790	-22708	11736	-8560	20287	-23371	-4370	1	106	1
-9796	-5212	14632	5480	3378	2951	-16428	1240	-6036	-4026	11999	-3943	-20588	-8232	-5488	-6876	11735	1353	-22012	13236	24548	9626	32767	-20001	-13160	6464	-7620	-1268	14002	1722	-23892	12288	-14052	10437	-25800	-3628	22	107	1
-8236	-6112	13812	3859	2664	2405	-18624	-1872	-4904	-4674	10558	-3386	-16040	-1492	-4880	-7105	8470	2074	8972	27012	22596	-7820	19431	-19915	-11692	9696	-7780	-4095	7265	-1726	-22944	11292	-8096	-8952	-24401	-41	64	78	1
-9596	-5592	14012	3852	2108	3033	-15976	-3528	-6064	654	8338	-1960	-14628	-5948	-2504	-6458	8393	5123	-27812	16076	32288	-14010	-17262	754	-3448	13008	-23436	-1504	637	-5137	-19592	6040	-1252	-16888	-22520	2436	86	70	1
-7896	-4784	13676	3272	1132	2584	-17036	864	-4988	1617	7904	-1529	-14048	-6076	-2664	-3776	8351	6565	248	12896	19072	-12684	-32768	14774	-5696	1592	-1668	-5196	-4614	-4066	-21556	1268	-1940	-7835	-19212	1815	95	82	1
-8460	-5244	13412	2730	1404	2173	-18344	-240	-3944	-2403	6944	-791	-16540	-5468	-4080	-1085	8560	6764	4180	6424	11248	-10615	-32768	14321	-10232	-1292	-3124	-7198	-14426	-6781	-21248	2616	-4860	-2006	-17329	672	107	86	1
-8932	-4580	13128	2495	1989	1939	-15728	-424	-4736	-3072	6194	-851	-17220	-2836	-2344	943	9855	6319	104	596	9704	-6320	-32768	12093	-5552	4316	-7788	-8431	-22781	-7424	-15524	3772	-5984	-1833	-15024	-758	105	64	1
-8504	-3812	13752	1662	1514	1489	-16504	68	-4536	307	5845	-323	-15596	-1832	-1544	2128	11613	7044	-3888	572	10348	-412	-32768	11076	-2892	-656	-6904	-8375	-27205	-11137	-11776	3160	-7392	-4416	-11876	-1113	103	49	1
-8688	-4172	13136	1365	1481	1167	-16756	600	-3948	2624	4795	-31	-14392	-1152	-2172	2537	12074	6840	-4884	2516	10752	3477	-32768	9929	-3404	-1236	-7396	-882	-31626	-13798	-8656	3052	-7980	-6531	-7930	-1089	97	51	1
-8284	-4184	12876	1092	1340	1239	-15456	1312	-3120	2138	4907	-330	-15232	-748	-1440	2032	11849	6612	-7444	3504	12056	5185	-32768	11083	-6192	-148	-9284	4647	-32768	-15415	-7060	2016	-8472	-6368	-4547	-1103	96	56	1
-8148	-4428	13052	813	1289	1489	-16464	716	-3192	1724	5285	-677	-16368	-2844	-996	1330	10954	6262	-10536	4604	13716	6277	-32768	14224	-8760	2624	-10660	5864	-32768	-15901	-5724	2016	-9324	-6404	-1865	-361	93	62	1
-8608	-3764	13376	413	1395	1407	-16576	880	-3784	-2839	5828	-106	-16080	-3128	-512	1614	11641	5429	-10912	5340	14208	6400	-32768	14773	-12612	3676	-10688	1981	-32768	-18245	-5024	1348	-9964	-7088	142	1218	99	72	1
-8372	-3632	13176	454	1483	1490	-15380	-60	-3408	1881	6895	-911	-15056	-2648	-96	1142	12942	5213	-18512	2840	21956	10672	-32768	16972	-17720	3888	-12228	1175	-32768	-20066	-5296	2124	-9676	-5921	654	754	96	87	1
-8296	-4592	13168	239	1920	1549	-16248	660	-1992	1452	6911	-872	-15312	-3056	388	-962	12237	4980	-27296	5108	27168	14147	-32768	13918	-18824	3320	-11988	2103	-32768	-20132	-8308	3240	-6284	-12474	-1381	-735	96	96	1
-8612	-3736	13336	499	2598	1832	-15988	1104	-1788	-625	7173	-956	-15624	-3820	368	-1459	11952	4558	-32768	8980	29076	14509	-32768	10636	-22224	5512	-12692	14859	-32768	-16021	-14472	4376	3144	-7560	-6552	-979	95	101	1
-8756	-4504	13376	719	2977	2122	-15920	-784	-1952	-296	8923	-1000	-15444	-4836	-52	-1652	11650	4639	-32768	6172	16736	15188	-32768	8706	-20808	7464	-12012	16029	-32768	-8926	-19928	-1568	6684	1461	-5529	-2601	104	92	1
-8860	-4560	13720	1130	3719	2657	-17076	-400	-1328	438	10166	-928	-16792	-5684	868	-3819	11281	4322	-32768	216	7820	18234	-32768	7918	-21072	4456	-10464	8193	-32768	-4099	-15872	-4600	16748	538	1351	-2954	99	79	1
-8756	-4040	14432	1464	4967	3163	-16688	312	-860	410	11816	-615	-16472	-5088	1164	-6184	10758	3059	-32768	-772	6724	18671	-32768	8070	-16364	4840	-11436	8872	-26950	-1857	-16712	-2836	31904	-2430	2081	-625	98	79	1
-8312	-3304	15560	1571	7833	3537	-18132	1628	-1396	282	14000	-278	-18048	-4124	1056	-4652	9054	2798	-32768	-11788	-10980	5839	-10283	13580	-5852	7556	-2744	4951	-9579	396	-17996	-1640	31348	-9050	-1551	2461	92	92	1
-8484	-3908	16188	1982	11333	3949	-18652	1952	-1640	893	15796	242	-17916	-4660	664	-5169	7679	3388	-32768	-16508	-14016	-4141	3777	7468	-1972	7144	-10016	-9546	9157	3261	-17640	3224	21308	7932	1098	1993	101	93	1
-9052	-4124	16240	2708	14819	5022	-18700	1100	-1096	2197	17564	160	-18860	-6692	-268	-6240	2677	2789	-32768	-16016	-12556	-4096	6417	6038	-13420	5496	-13516	-14206	19029	7268	-16076	-1216	8976	8762	4359	387	118	75	1
-8872	-5844	16712	3483	19086	6853	-20096	1116	-1372	2656	20241	-188	-19864	-5564	2696	-6924	-2935	538	-1596	11996	32767	-7682	19243	5264	-21512	-8656	6780	-10810	18346	5202	-10896	-2864	1744	-10606	3197	-622	123	89	1
-9016	-7400	18708	3835	24968	10041	-24760	2124	-3372	266	22437	-1003	-23248	-6020	8524	-3233	-10715	-2101	1884	-13196	6688	-5429	26773	-3956	-32132	4504	-3412	-18696	10591	5629	-14480	7180	-19584	9575	7857	2622	136	98	1
-8556	-8252	20060	3448	32767	15541	-31304	2756	160	-2961	22705	-1544	-24780	-8216	9092	496	-12178	-2840	-32768	-2620	32124	-3131	24932	-6818	-16096	-3792	-9428	-19892	15140	4765	-27620	5460	17140	-29435	1652	1690	144	117	1
-9944	-12620	20344	3854	32767	23264	-32380	6484	2648	-8469	24609	-4067	-26300	-6036	12448	-7132	-15591	-3967	-7068	5244	17084	1521	16255	-7431	-18792	-3960	-9596	-4782	13044	6081	-19636	-3144	-6528	-1354	10312	1557	157	113	1
-17560	-9584	22616	3774	32767	28696	-28352	5024	-1692	-12553	26759	-5991	-23364	-1804	4060	-2682	-16324	-3215	-24584	14192	21500	-2197	11956	-5500	-18176	6912	-7736	1889	11385	7853	-15704	-8836	-5424	-624	8496	2197	163	122	1
-23612	-1608	20536	-1193	32767	26945	-26128	-140	-8640	-16144	27220	-2199	-21036	-4048	-6352	-4675	-17486	-5455	-5460	1868	15964	-238	5106	-2224	-17616	340	-6252	3712	10215	8877	-15456	2588	-3112	19952	9003	2846	164	123	1
-24864	-6664	15064	-1786	32767	25407	-22220	-4212	-13852	-15305	25227	2690	-22008	-8432	-14160	796	-19181	-8737	-4884	2372	15728	-34	5349	-2298	-15988	5644	-4016	8408	9254	6432	-14584	10024	-1716	12202	7176	4581	166	129	1
-25884	-9616	18448	-2494	32767	24615	-17408	-5012	-13244	-4152	15458	5254	-24340	-4304	-10592	15645	-19704	-8913	-7932	9452	13348	-1215	3118	-1705	-17392	6900	-2944	8162	8088	5246	-13540	11092	-1928	9724	10721	4499	171	131	1
-1272	-17076	20132	6787	32767	27304	-11444	-3760	-7904	11996	7812	6013	-24088	-1004	-6936	19704	-22335	-9946	-6856	5384	14800	-1055	3321	-1860	-16348	5668	-3384	2732	6885	3289	-15560	6304	-1376	5479	10006	2704	189	167	1
-26132	-13360	13848	12139	6865	5970	-4240	-2204	-20352	10759	1584	3207	-20724	-500	-4456	13681	-19953	-9858	-7096	5376	14876	-1046	3280	-1815	-17268	2652	-3660	1276	6043	2172	-17404	6948	-1080	1095	11484	552	196	163	1
-6804	-8524	20852	7761	-21679	-18396	-588	964	-9152	5393	-3338	604	-18304	1316	-5284	4898	-17794	-9053	-8252	5696	14428	-1807	2633	-1423	-16756	1160	-3008	4462	5543	1643	-15908	3912	-736	992	12720	-232	186	122	1
2068	-9008	12640	3931	-30370	-28172	-6456	4224	-2152	7744	-10360	143	-16804	-560	-7544	1680	-16065	-8937	-7896	5420	14120	-1505	2468	-770	-16796	2092	-2904	7292	4731	1528	-15920	3404	-1400	2321	13537	911	180	105	1
3860	-5744	9460	2941	-32768	-27205	-7592	180	-5128	5035	-18843	773	-14884	-984	-5900	2330	-14583	-9214	-8484	5044	14296	-605	2257	-740	-16724	4068	-3076	3601	3636	1060	-16004	3048	-952	2306	15038	1748	169	106	1
-628	-968	9448	187	-32768	-24109	-4396	-2956	-5568	6615	-25246	1809	-12448	404	-6100	4001	-9557	-7702	-8632	5196	14100	16	1809	-512	-15888	2312	-2684	347	3500	663	-15648	2396	-532	1071	16033	2691	155	106	1
-4140	-1428	9952	-3118	-32768	-21153	-3256	-1184	-7348	9814	-30922	1274	-10084	2116	-6456	2713	-7460	-6254	-8368	5168	13788	-24	1152	-665	-14712	1908	-1776	677	3518	873	-15628	2264	-380	1123	15994	2693	139	115	1
-6252	-2460	10972	-4382	-32768	-18047	-6284	-492	-7784	7537	-32768	2362	-8404	1060	-6884	1288	-5620	-5458	-8392	5200	13380	-150	602	-705	-14716	1700	-928	1038	4246	1573	-15060	1604	1732	-159	12146	3506	133	140	1
-8732	-2728	12128	-5263	-32768	-15666	-9612	2212	-8624	4609	-32768	3931	-9312	1772	-7888	595	-2043	-5039	-7644	5824	13812	97	696	-737	-16780	928	156	2358	5246	1907	-15348	1960	1868	-1083	10955	2774	122	168	1
-10376	-1792	15404	-8750	-32768	-15053	-11308	4428	-10512	-675	-32768	6461	-8500	2992	-6848	2690	212	-2584	-8000	5688	13916	101	846	-1381	-16740	3696	-496	1372	5139	2319	-16004	3392	2412	-2816	12336	2766	148	193	1
-16116	-2792	19156	-13437	-32768	-15330	-13172	5216	-12052	-8798	-32768	7076	-7704	2924	-6052	6417	-4	-1163	-8416	5008	13648	-298	708	-1448	-14900	2784	-460	-694	6124	1887	-14960	2992	1536	-3984	14922	2836	198	234	1
-20348	-3852	22576	-16603	-32768	-14332	-18576	7272	-13572	-22736	-32768	4714	-8452	4416	-4448	7337	-272	-392	-7888	5808	14012	-568	854	-1797	-14468	820	1344	-462	7475	2325	-16460	3732	396	-2560	11531	2299	230	251	1
-26488	-2932	24060	-20174	-32768	-10624	-20492	3680	-14016	-30583	-32768	175	-8556	5320	-1964	4427	98	-789	-7824	5852	14384	-505	1357	-2487	-16736	1752	856	150	8952	2890	-18876	3876	96	-74	5856	1749	223	234	1
-32768	-2308	23268	-23932	-32768	-7994	-17860	-5564	-14196	-31103	-32768	-4893	-12384	-1460	16	-582	-952	-2858	-8396	5016	14412	-689	2058	-3030	-17164	2648	-2556	-1653	9691	3287	-17484	1356	1964	-12	4791	2134	214	215	1
-32768	-2488	16968	-22957	-32768	-7715	-24836	-1828	-11432	-18508	-32768	-6880	-13196	-2216	256	-1743	-1224	-3116	-8248	4840	15336	-154	3958	-3184	-16780	-68	-2584	-1027	10651	3147	-17240	600	1904	1639	8451	2401	212	203	1
-32768	6908	7852	-19613	-30780	-10363	-21560	5144	-9980	-9201	-32090	-7085	-19436	-8940	17888	-5189	-5190	-3556	-8012	4928	15828	680	6955	-3009	-17912	192	-288	1405	12457	3239	-18432	1536	1072	3511	8360	2196	210	194	1
-32768	10568	-112	-11993	-16290	-14911	-13352	-1812	-9564	-3286	-20514	-3144	-17532	-15728	20152	-2599	152	-1416	-7356	5168	16644	1338	10664	-3736	-17932	496	-128	1452	12671	3291	-19052	2180	3024	3200	4553	1947	190	176	1
-32768	16012	-9692	1056	-5875	-14644	-7772	-396	-6356	801	-4767	-621	-13484	-21812	21952	-7053	986	-989	-7756	5292	16928	1254	15064	-4362	-18600	852	-1272	-667	16541	4151	-19352	2860	4088	3104	3638	692	172	172	1
-29184	18492	-8056	2705	8055	-7463	-8968	-2080	-8344	5457	10285	384	-14600	-11868	11968	-5383	-29	1942	-8360	5892	17016	1201	20372	-5310	-19908	1664	-724	-503	18517	3987	-20128	4588	2424	4561	3030	-744	164	179	1
-32768	8560	-5160	13756	19602	6302	-13108	-4212	-13584	13991	17988	656	-16520	-7204	3296	-11137	841	4098	-7588	6316	17408	2145	26968	-7418	-22032	1184	-1392	-1415	20358	4490	-21588	3688	3736	4595	-366	-921	127	171	1
-26620	6644	156	15912	19910	7801	-15296	1492	5128	12672	17557	1399	-14816	-2924	2264	-14640	262	2367	-7640	9460	17984	3025	32767	-10231	-25952	-3236	4620	2314	22526	4641	-23552	2076	13940	399	-9276	-1545	89	169	1
9876	-4704	12252	6644	15349	-825	-32768	10068	1748	20429	11539	-112	-9968	4256	-10424	-7698	7133	4260	-7752	8676	18752	2716	32767	-17113	-27124	-3476	2548	5704	23965	6019	-22076	-6240	9476	-3714	-7682	-4162	57	167	1
-18108	7688	21436	10208	26439	6303	-19892	2896	-4788	15853	10824	1916	-24200	-12192	7428	13386	-3694	3332	-16808	11064	21648	3905	32767	-21512	-32768	-3856	2624	7112	25827	6757	-22920	-9820	10856	-5012	-9440	-5553	35	166	1
-14504	-3024	18236	5475	14356	9098	-17176	2928	-5536	14907	10914	1585	-21892	2568	-168	6128	11104	2993	-23664	13492	21916	3438	32767	-23637	-30524	2740	188	6690	25893	5505	-23980	2572	5040	12377	-18820	-9491	30	158	1
-25996	-14936	15500	6621	6697	2832	-19088	2632	-9756	10463	11444	-4266	-16008	15460	-2632	6871	15578	3824	-21312	9564	19116	2615	32767	-26725	-23248	10920	-5504	4639	23965	3670	-22184	8252	-3420	21267	-27149	-4934	1	99	1
-5148	3084	16672	3971	4200	2231	-16308	4536	-6084	2140	12262	-4090	-14536	1196	-6380	-11580	5495	2780	-32768	7796	21428	446	32767	-24842	-19520	10700	-12992	-4573	20375	3198	-23168	14112	-6860	19386	-26054	-2966	13	97	1
-10356	-9368	12548	3379	3787	2006	-15160	3856	-5684	490	12392	-3643	-15160	-5204	-4280	-8160	10364	1296	-12364	15096	23200	3495	32767	-21199	-15384	3800	-6884	-9282	13906	1850	-24808	11320	-11992	2858	-26163	-1184	34	97	1
-9896	-4952	14372	2619	2891	2187	-18916	-2356	-5724	-4599	9465	-3266	-15352	-3848	-3280	-9287	8744	1857	12908	25368	18732	-8412	24970	-21969	-10776	6836	-3956	-10204	7069	-3004	-23156	7288	-8988	-10732	-26835	1522	86	79	1
-8656	-1576	14500	1138	2431	1301	-15744	-172	-5292	-378	8049	-1992	-15996	-3400	-2148	-6667	7033	4470	-26740	17540	32600	-14158	-10448	-2614	-3144	13952	-21840	-2064	357	-7118	-19060	5020	-1568	-13377	-24157	3471	96	70	1
-7312	-4828	13304	1325	2270	877	-17756	1040	-3564	-2320	8414	-2016	-16052	-4924	-3148	-5121	7570	7075	-1068	13596	20748	-15313	-32768	12070	-2396	2424	-2720	-4792	-4380	-6116	-19624	3136	-1840	-7767	-19330	1800	104	76	1
-8080	-6416	13112	1282	2525	1568	-18284	-2308	-4188	-5459	6867	-1709	-16672	-5192	-4648	-5160	7792	7297	1652	6396	12684	-13470	-32768	12391	-7144	1404	-4004	-3518	-13475	-7843	-19184	3808	-5024	-2613	-15664	770	103	58	1
-8740	-5164	13124	1371	2154	2014	-16280	-3584	-5192	-3227	5681	-862	-15912	-5864	-4396	-2573	10146	6504	1536	1020	9000	-7229	-32768	11521	-5160	4548	-7120	-6682	-21901	-9344	-14896	3424	-6416	-3040	-13484	-269	100	51	1
-9152	-4016	13000	935	1671	1468	-16208	-1064	-4760	884	4850	-133	-15296	-4680	-2116	1759	11777	6076	-2036	3172	7596	-1198	-32768	9768	-3284	644	-5524	-5272	-28052	-12437	-11048	3572	-7324	-5486	-10436	-402	100	51	1
-8596	-3700	13408	653	1740	963	-16532	1840	-2852	1137	4715	-59	-15484	-644	-596	3130	11996	5537	-4212	3596	8560	2534	-32768	7736	-5036	1152	-6996	-16	-32431	-14691	-9740	4068	-7976	-7152	-6375	-694	95	51	1
-8356	-4108	13172	279	2021	896	-16236	1072	-2032	-5	5182	-622	-15304	-860	-868	1553	10930	6024	-8304	4680	12056	4744	-32768	8954	-5932	1432	-9056	3251	-32768	-16270	-8516	3960	-8656	-8622	-2662	348	93	56	1
-8280	-5064	12928	91	2250	1195	-16636	-876	-2780	374	5631	-695	-15828	-3824	-1736	-776	10343	5521	-14176	7452	15336	5298	-32768	12324	-7568	6800	-11188	5715	-32768	-16875	-6704	3160	-9524	-9436	214	1723	92	63	1
-8772	-4344	12852	-67	2612	1885	-17772	-5920	-4820	-6743	2087	-1371	-15196	-4152	-656	-975	11008	5206	-15272	7976	17444	6023	-32768	16601	-13724	4276	-10624	1051	-32768	-19407	-5840	1660	-10488	-10715	1904	3530	93	74	1
-8972	-4112	12908	-246	2417	1407	-16080	-1752	-3324	2624	7931	-1156	-15512	-3808	-392	-1600	11928	5124	-19336	6664	20924	10135	-32768	18597	-18156	2188	-12492	-973	-32768	-21567	-6756	1392	-9956	-9169	1736	2932	91	86	1
-9112	-4164	12788	-200	2554	1606	-16076	-252	-2520	2407	7883	-634	-15436	-3004	-128	-1353	12498	4328	-31808	8760	25640	15032	-32768	17250	-22400	2176	-12864	8208	-32768	-18823	-8296	-236	-5868	-10402	-263	824	89	100	1
-8984	-3792	12872	454	2897	1961	-15520	1168	-2324	-1646	7455	-428	-14396	-3512	-248	-1720	11241	4144	-32768	9300	26532	15716	-32768	16861	-21160	7132	-12408	16486	-32768	-12019	-14748	-236	3312	-5823	-4156	-1854	90	101	1
-8832	-4016	13248	507	3340	2013	-15316	436	-2060	-2740	8544	-450	-14856	-3416	-1320	-3379	10216	3877	-32768	10572	23992	17000	-32768	15049	-20664	8316	-10704	12725	-32768	-5049	-18864	-3612	8716	-779	-6137	-4273	93	99	1
-8656	-3872	13728	563	4110	2117	-15996	-84	-748	-39	10686	-779	-16700	-4792	-2076	-4464	9241	3339	-32768	-2736	6128	19693	-32768	12272	-19528	2912	-11324	7965	-32768	-2075	-17264	-868	22352	-5656	-1167	-2078	96	99	1
-8456	-3940	14464	776	5753	2268	-17624	-228	-1708	1113	11956	-140	-17128	-5628	884	-1665	8196	2843	-32768	-8460	-752	16790	-20426	14607	-13984	5856	-7332	11262	-23340	-893	-17608	-5096	30688	-3348	-91	1360	90	90	1
-9092	-4184	14920	817	8572	2890	-19344	736	-3028	1334	12809	537	-17820	-4020	768	-5211	6061	2567	-32768	-12524	-12420	5949	-7697	14025	-4972	6268	-2980	3590	-5191	2017	-18160	-2948	30424	-1786	-753	2595	90	106	1
-9400	-4332	14832	1225	11648	3682	-17600	2220	-2460	1619	14361	338	-18880	-2588	-704	-7629	4281	2912	-32768	-14716	-9940	-709	7313	4249	-4396	7852	-10264	-9202	11670	4686	-18076	4136	18584	11086	269	1509	98	109	1
-9060	-4020	15388	1411	14524	4319	-17172	1196	-600	1741	16455	4	-17364	-4824	-736	-5090	779	2755	-27732	-5528	18528	-13959	19400	4798	-15584	5256	-8780	-9275	19142	6979	-14196	-200	6000	10140	2847	2231	105	95	1
-9136	-5844	16216	1565	18166	5662	-19652	844	-1664	2361	18833	-160	-19488	-5196	2420	-2923	-920	1151	-32768	14756	6024	-17893	26018	-3025	-25448	-8616	6756	-7558	16414	3626	-8832	-1188	1396	-6450	2975	2109	117	91	1
-9996	-7056	16936	1332	24108	8498	-25656	2736	-3536	-209	20701	-974	-23792	-5100	7232	-1341	-3400	-691	9740	-684	8320	-6960	23991	-3688	-28080	-1644	2372	-14352	9597	4534	-10840	8520	-17352	10627	11340	2623	125	92	1
-8600	-7040	18640	-387	31821	12571	-27896	4804	-1476	-4365	21424	-1867	-24572	-8180	11428	-11402	-13466	-2331	-27976	2624	28908	-3580	31210	-2854	-20704	-2040	-5256	-22349	14739	3515	-30548	3712	16020	-31670	3758	841	135	112	1
-10352	-9980	19408	-1419	32767	18038	-29120	6592	5032	-10397	23632	-4185	-22120	-4144	9164	-4089	-11659	-1506	-13912	-3248	22424	-593	13986	-6850	-19872	916	-9376	-11419	14136	5927	-20212	2684	1536	-8657	8304	470	150	124	1
-14088	-9848	19420	-790	32767	24351	-29648	4324	1960	-12738	25321	-5062	-22700	-5888	8112	-1433	-18161	-1889	-9136	12896	14112	-400	13176	-5832	-15312	2380	-6628	-9592	11614	5693	-18028	-7688	-7060	-1136	12855	3803	152	127	1
-22276	-5592	17788	-3118	32767	25874	-28036	1340	-6836	-15073	26289	-2337	-22136	-7860	332	-5329	-16743	-3071	-23728	6284	17772	-3365	5196	-4161	-17636	4844	-6844	-2156	10814	7783	-12808	-1248	-340	9083	7572	5195	159	124	1
-28756	-5188	15804	-4500	32767	24479	-23224	-5328	-12116	-16207	24877	1630	-20316	-7228	-10028	-2501	-17288	-5519	-6476	4532	15688	-3158	4349	-3416	-17508	572	-4348	726	9081	8160	-16504	5928	-4740	12609	7705	4908	168	91	1
-31840	-5756	15956	-4646	32767	24205	-21028	-5360	-12532	-6127	17056	4207	-24792	-6664	-12992	6643	-20475	-8349	-7768	4816	15420	-2060	2115	-2220	-15828	3052	-4196	5637	8711	6190	-14408	6304	652	4402	8454	5054	177	87	1
-14864	-18084	19440	-2612	32767	25651	-15604	-6008	-8744	5076	9582	6804	-23852	-2180	-7744	19424	-20598	-9157	-8368	7980	13552	-2439	2509	-2516	-16864	6056	-3716	7896	7846	4903	-15184	6112	-1844	12486	9581	3722	187	119	1
7620	-22012	18472	12324	22561	29450	-10032	-6196	-9720	16095	2634	5884	-22932	-2840	-5644	17293	-22016	-10005	-6712	6172	14556	-3766	2932	-2908	-16760	4876	-2460	2013	6873	4374	-15888	8344	-156	5412	8667	2481	183	119	1
-26540	-5844	24908	7245	-17104	-1952	-3288	-1944	-24020	9578	-2440	1489	-19900	-1488	-5612	14058	-19549	-10081	-7212	5920	14452	-3717	3033	-2690	-17464	2608	-3368	1523	6238	2827	-17268	7488	-916	962	11623	1407	180	131	1
-1368	-11932	16224	454	-32768	-22310	-5528	4160	-3116	8138	-6976	1633	-20764	-348	-4776	8916	-19383	-9501	-8176	5080	14768	-2624	1871	-1256	-15880	2340	-4752	4053	5546	2033	-15720	4536	-1796	723	11967	1482	173	125	1
2980	-10556	9668	2389	-32768	-26044	-10584	5740	-3368	7017	-16799	2176	-19316	584	-5456	4275	-17691	-9477	-7968	4956	14768	-1938	1433	-789	-15788	3284	-4076	4597	4839	1948	-14988	2920	-1908	2273	13376	2024	163	120	1
-548	-4764	9804	3466	-32768	-24257	-4704	-1500	-7280	3218	-23299	2971	-16504	536	-5276	2636	-14980	-8950	-7972	4152	14832	-1104	1124	-596	-16312	2796	-3508	1031	4274	1839	-15016	2936	-1116	329	14592	2134	135	120	1
-5044	-1760	10152	194	-32768	-22901	-4836	-1152	-7264	1713	-29014	1924	-11868	2312	-5508	-536	-10753	-7962	-7428	5348	14248	-542	1094	-540	-16188	1796	-1828	-391	4235	1582	-16360	3060	-316	-1081	14359	1842	112	117	1
-7292	-2352	10636	-3609	-32768	-21152	-6312	-980	-8448	2634	-32768	2662	-10404	2412	-6244	-1710	-7470	-7148	-7468	4620	14600	116	1367	-745	-16636	2096	-1708	-727	4418	1966	-17184	2868	684	-1397	13116	1971	120	128	1
-8816	-3328	11068	-4735	-32768	-18198	-8472	1048	-8896	3835	-32768	2633	-9744	1756	-7548	-1456	-3525	-6211	-7928	4948	14368	352	1521	-981	-15888	2184	-1936	1094	4732	2232	-16412	2556	1108	-154	10871	2641	123	145	1
-11828	-1888	13808	-7917	-32768	-16419	-9220	1840	-9856	3118	-32768	3932	-6996	3100	-7608	666	-1227	-3917	-8100	4472	14316	153	1554	-1220	-15604	1180	-2160	2279	5108	2602	-14832	1712	1788	654	11564	3392	130	155	1
-13940	-3136	16792	-12355	-32768	-15241	-13680	5372	-12236	-3293	-32768	5291	-6848	3504	-6512	4825	-880	-1848	-8220	4564	14168	62	1770	-1206	-15768	3204	-2220	2248	5815	2531	-15468	1492	2052	-502	13786	3546	138	157	1
-17832	-1608	20140	-17476	-32768	-14271	-17672	9492	-13784	-17173	-32768	6028	-7612	4088	-4336	7068	-2030	-227	-7692	5020	14564	274	2297	-1418	-16288	2896	-1640	179	6348	2382	-16140	1880	672	-2881	14222	2873	141	162	1
-26984	-964	22980	-23552	-32768	-11405	-15596	6456	-15004	-30898	-32768	1312	-7076	5932	-492	4627	-2520	331	-7968	5000	14504	366	2774	-1677	-15992	1176	-892	1305	7284	2611	-16328	3936	-1220	-217	11395	2295	146	192	1
-32768	-2892	22964	-26126	-32768	-10934	-15316	-6456	-16596	-32768	-32768	-6151	-8992	-1308	-196	-509	-2230	-1812	-8136	5112	14480	294	3201	-2129	-15192	1576	-684	2598	8434	3318	-16432	3904	-368	2014	7731	3108	145	185	1
-32768	-3572	15076	-22475	-32768	-9179	-22604	-6524	-11552	-27802	-32768	-9184	-9996	-2492	-12	-2531	-2267	-2104	-7552	4140	15708	271	4850	-2398	-17148	1908	-1604	1573	9868	3533	-18396	2444	2796	-88	8045	2627	147	176	1
-32768	4124	6888	-20150	-32768	-9857	-22148	504	-9076	-5296	-32768	-7477	-14712	-8916	6812	-10559	-2870	-4751	-7832	4180	15896	845	7449	-2497	-17876	1072	-1616	599	11276	3323	-18252	1596	3328	839	7295	2452	158	178	1
-32768	6860	1460	-14564	-18410	-14587	-13940	1144	-8660	1078	-24323	-2979	-16856	-14660	15972	-408	1670	-1353	-7668	4612	16028	1108	10688	-3065	-17420	752	52	1257	13111	3632	-17828	688	2180	4241	6562	1881	162	186	1
-32768	8776	-3084	-2727	-7693	-17007	-9964	1500	-9296	2747	-10724	-2077	-13716	-19540	18648	-3304	2548	469	-7780	5676	15764	720	14261	-4217	-17908	2728	-572	741	15186	4554	-19076	2000	2020	4905	5157	972	186	206	1
-32768	17832	-6240	2293	1999	-13853	-8276	-1300	-6492	5476	2607	-429	-14676	-13936	15176	-3816	-409	975	-8308	5440	16756	927	18898	-5448	-19812	1964	-2684	-7	16994	4730	-20468	3176	2076	5204	2932	551	217	241	1
-30140	12204	-1828	1020	11510	-3789	-8664	-1592	-6736	6818	4535	184	-16892	-8012	6652	-3706	2223	3371	-8736	5416	16500	1773	24170	-6722	-20584	68	-1776	1162	18304	4866	-20036	2692	1500	7210	1421	334	204	225	1
-19148	-100	16464	14882	16320	2738	-12308	-876	-8736	10439	16615	129	-14204	-3588	1036	-2579	6543	4142	-9096	6160	16672	2560	30435	-8868	-21664	236	-284	1708	20182	5392	-21260	20	5004	7457	-58	86	172	217	1
6216	-7340	23828	10723	10514	4222	-20932	3576	3360	10627	14288	-397	-4416	-1048	-11268	-8245	11282	4287	-9704	8528	18148	3247	32767	-12138	-26492	-2472	3372	4288	22114	5452	-20652	-76	10016	2298	-2839	-1637	117	208	1
8396	-6660	9824	7382	18491	1217	-27124	2932	6296	15569	8192	1077	-13108	5116	-7368	-1823	8741	8865	-11836	9452	19216	3030	32767	-18850	-28468	-2316	3936	6986	23907	7252	-22656	-8112	12916	-2427	-7360	-3910	84	196	1
-19824	-4812	23744	12215	32767	7048	-24948	2600	-360	21280	7680	1540	-32768	-12572	20400	12417	-5284	4468	-17312	12200	21124	3326	32767	-23145	-32768	-1808	3068	8978	25709	8455	-27580	-1304	12300	4489	-18530	-8511	84	187	1
-21908	956	25368	6504	19821	9845	-20228	11900	-6408	15816	11302	999	-28992	-2188	10256	9916	9848	2012	-28036	11908	22160	6491	32767	-22962	-30328	5148	-1560	5684	26488	6738	-25428	9456	6512	13416	-22059	-5885	45	129	1
-21780	-15020	15140	3091	8670	998	-15716	4200	-6692	-5006	16737	-4282	-18164	16580	-5128	-4037	13900	3860	-25540	5808	18800	6311	32767	-24009	-22104	12680	-9364	-2275	25521	3465	-19388	13804	-9540	21636	-25593	-1717	47	104	1
-12704	-1768	14188	6280	6754	3690	-15280	-8112	-8328	-6538	16213	-4142	-10080	3800	-12088	-21283	6367	2867	-32768	14412	27584	10200	32767	-17651	-16344	8880	-12052	-10279	22434	849	-22912	12980	-15388	10859	-25285	-525	41	120	1
-10052	-8940	12516	5741	4631	2083	-18160	-2640	-7524	704	11978	-2747	-9744	-9936	-5556	-15596	8530	1279	12836	26516	26652	-5970	19956	-19555	-14244	7176	-8572	-11140	14042	-818	-26800	3592	-2768	-16883	-32768	615	81	95	1
-9476	-3700	14928	3634	3758	2294	-18924	2204	-6820	1469	8867	-734	-17412	-8072	-5348	-5912	7550	3271	-32768	20132	31968	-15273	-3904	-7192	-8120	8392	-17144	-10485	5102	-2557	-22740	4252	-6064	-14732	-22895	980	101	63	1
-8788	-4196	14152	1414	3441	1121	-15872	552	-5304	-1458	8430	-1021	-18544	1212	-2728	-2126	7726	4961	4936	15572	21400	-21124	-32768	5907	-2328	632	-2912	-1162	-2057	-3836	-21692	2888	-5688	-11228	-20890	1216	136	72	1
-8488	-5156	13508	282	2854	873	-17712	-816	-5004	-2612	8626	-1614	-16964	-3288	-6036	-5376	8325	8357	12976	3832	13552	-16095	-32768	2897	-9568	-1280	-3144	3155	-11821	-5328	-21408	3504	-5668	3549	-18557	512	118	66	1
-7896	-7416	12012	669	2444	1465	-17508	-2560	-4596	-3570	6676	-826	-15548	-5340	-5268	-5098	9264	7520	3284	-2196	10256	-2424	-32768	1805	-6028	4028	-6384	-1602	-20573	-7067	-16148	7008	-6524	3332	-16037	-654	112	62	1
-9304	-4752	12840	256	2501	1967	-17368	-1132	-4756	-2624	4727	73	-14960	-6564	-3440	386	10493	6769	-2120	6036	10300	5999	-32768	3718	-2396	3528	-7272	-3038	-24657	-11021	-12352	5572	-7764	-3431	-13294	-184	110	62	1
-9084	-4740	12764	-2	2194	1758	-16348	-528	-3760	-1947	4247	296	-16516	-4112	-2216	4995	12038	6226	-5556	9584	10244	4295	-32768	5508	-2524	2608	-8168	1912	-30300	-12690	-9596	3832	-8036	-7788	-9854	568	103	62	1
-9060	-4664	12684	-72	1949	1343	-16368	-80	-2644	-212	4632	441	-15252	-52	-336	4987	12687	6107	-8212	6604	10864	4566	-32768	10406	-5500	3556	-9068	4169	-32768	-13581	-9108	4692	-7984	-7965	-6493	557	101	54	1
-8772	-5216	11868	505	1292	1286	-14716	504	-1144	-845	5209	69	-13352	-1460	296	2199	12519	6194	-12064	7804	12672	7528	-32768	17680	-7316	4624	-9204	1261	-32768	-15096	-8512	4532	-8900	-7544	-3384	1009	99	54	1
-8016	-6268	11792	1757	842	2079	-14440	-4228	-1480	-2928	7463	-674	-14868	-5016	548	-2202	12117	4959	-14092	7196	15552	7328	-32768	22871	-8796	8404	-10896	-1718	-32768	-17265	-5364	3020	-10248	-8458	-1858	2531	100	59	1
-8300	-5064	12408	1407	1530	3231	-16940	3980	1732	-14566	781	-1971	-16080	-5456	1540	-1151	11689	5405	-17212	3692	19084	8559	-32768	21147	-14384	1900	-11524	-6473	-32768	-18694	-5720	2080	-10284	-9738	-864	2167	103	73	1
-8220	-4264	12748	184	1094	2660	-16268	-3824	-5748	169	8853	1945	-16776	-3688	24	-2565	12642	5168	-21956	452	20228	17056	-32768	15818	-14872	2328	-12180	2648	-32768	-19062	-6236	2264	-8104	-13768	-1839	104	103	86	1
-9064	-4100	12508	530	1690	1266	-14764	8	-680	9322	12785	-2005	-14720	-1476	-1536	-3379	10863	3983	-25876	5608	23792	22178	-32768	7264	-25584	-2648	-11548	19177	-32768	-14066	-9164	372	-3328	-6426	-3664	-861	95	104	1
-8840	-4052	12676	779	1962	1401	-15576	1688	-1648	3817	10041	830	-14236	-1452	16	-527	10672	4237	-32768	3964	25296	28814	-32768	1068	-23876	7644	-13772	29437	-32768	-5751	-13876	-1884	4040	5258	-5127	-1910	89	107	1
-8984	-4980	12864	911	2659	2006	-16764	3180	-1576	-5382	9331	-1364	-15892	-2316	-44	-1468	10063	4187	-32768	5344	16952	30266	-32768	-1611	-20776	8616	-11384	23211	-32768	1672	-21464	-424	18676	4026	-7731	-3779	89	106	1
-8952	-4208	13584	905	3825	2370	-16324	-548	-2264	-1975	11132	-403	-16992	-5488	-776	-4591	8818	3578	-30684	-5696	11724	25947	-29362	3615	-17224	10984	-9848	15012	-31714	2360	-21312	1876	28932	-2944	-4989	-2339	87	113	1
-8804	-4644	14188	398	5555	2126	-17604	-1072	-2392	3820	13235	459	-16772	-6012	-1168	-4921	6876	3218	-32768	-5152	4964	8739	-19670	12103	-12040	6092	-6360	5030	-19688	-846	-16048	-5060	21516	-4647	1560	4674	94	107	1
-8904	-5152	14528	146	8013	2982	-18428	1212	-2300	4059	13735	1299	-17688	-4948	-1892	-3421	4754	3588	-32768	-15520	-7492	-4340	-7908	13617	-8004	1948	-5824	-7675	-4946	1300	-14060	2360	17380	7917	313	5850	103	97	1
-8900	-4688	15432	775	11697	4272	-18480	1816	-2196	3709	13868	1331	-18736	-4056	-1176	-2883	3758	3620	-32768	-17860	-4868	-741	7593	9023	-6976	72	-10976	-12311	8260	3212	-14360	5932	13020	13696	1142	3336	114	97	1
-9000	-4480	15784	679	15643	5200	-18932	1988	-1464	2199	17138	828	-19512	-2116	1324	-935	1929	2468	-32768	-4508	12084	-14176	20128	8726	-13704	2456	-11240	-4830	16467	5111	-14296	5608	12744	12728	2008	2571	119	85	1
-9076	-4488	15728	711	16303	5360	-19436	2212	144	3524	19574	791	-19544	-3080	6336	1140	-512	1309	-7936	-8280	31120	-13609	16538	-3288	-20788	2976	1596	-1857	17398	4779	-11384	3372	6036	-11208	4162	-689	133	69	1
