#Activity	walking 
#ActivityID	1 
#Date 09-09-17-58
acc_rf_x	acc_rf_y	acc_rf_z	gyro_rf_x	gyro_rf_y	gyro_rf_z	acc_rs_x	acc_rs_y	acc_rs_z	gyro_rs_x	gyro_rs_y	gyro_rs_z	acc_rt_x	acc_rt_y	acc_rt_z	gyro_rt_x	gyro_rt_y	gyro_rt_z	acc_lf_x	acc_lf_y	acc_lf_z	gyro_lf_x	gyro_lf_y	gyro_lf_z	acc_ls_x	acc_ls_y	acc_ls_z	gyro_ls_x	gyro_ls_y	gyro_ls_z	acc_lt_x	acc_lt_y	acc_lt_z	gyro_lt_x	gyro_lt_y	gyro_lt_z	EMG_r	EMG_l	act
-9632	-1596	15712	-246	3869	181	-21824	-1168	984	-1356	2818	920	-21528	-1488	9816	-1505	40	199	-32768	32767	32767	-3318	1009	-2069	-29920	-2416	32767	4982	3179	-1235	-8816	9184	5864	341	1147	-440	111	200	1
-8680	-4380	16756	-389	5103	179	-25104	-1632	3800	-1869	2910	950	-24872	-1488	21432	-1439	-1454	212	15456	11592	-20872	2043	5208	-3049	-14128	3048	-25280	-1183	536	1185	-21288	-2632	1144	-263	1883	259	97	152	1
-4332	-7724	19004	-350	7375	235	-32768	-4072	10976	-2504	2862	1198	-16560	-4328	18464	-2077	-1411	471	-18560	32767	-4072	-768	3850	-2052	-3176	13720	520	-134	2776	-243	-29640	-5408	26352	-494	-729	134	144	51	1
-15532	-10976	13952	-860	9311	867	-28008	-7248	9072	-2619	2863	1262	-14280	-616	6736	-1859	167	1129	-32768	23400	-10608	-2435	4050	-2128	-32768	-2016	-32768	-4227	2515	-830	-27040	25760	7240	469	2325	564	226	111	1
-32768	-6760	11988	-791	8638	2093	-22800	-18624	-13040	-1326	3499	1383	-22752	-9280	-3856	-2166	393	375	-24464	-176	13056	-903	1401	-1436	-21744	-10096	-18320	-5328	2408	-2022	-21456	-4056	-21848	-1446	1584	834	253	89	1
-32768	-19512	23544	246	7716	3607	-32768	-8168	-1488	-1438	3087	1035	-32768	-1224	-13368	-820	-474	-583	-14856	4976	12416	-473	216	-814	-8568	-14432	-19344	-2141	2431	-784	-5456	-12512	-19880	373	1308	235	112	204	1
-24288	-16856	32767	-78	7062	3682	-30960	-7760	2984	-1857	2345	709	-32768	4896	-7184	667	-2353	-1199	-13024	4656	10136	-164	-83	-423	-7872	-8448	-14584	1421	2302	411	-5768	1768	-11712	1054	775	-551	125	128	1
-32768	-17520	24576	-1587	3601	1181	-15408	-4112	-31808	1950	1599	637	-31248	-3080	-6248	1428	-3365	-568	-13032	3832	11232	120	-163	-311	-22144	-1408	-9584	2736	1797	277	-21264	9856	-12576	363	1982	-154	73	20	1
-29500	-21832	29948	-731	-3711	-784	-17056	5720	-9344	1034	1208	427	-32768	11224	-11400	1674	-3000	-559	-12808	5184	10200	145	18	-207	-22016	4504	-8664	1271	1373	-22	-22448	816	-8440	-78	1565	117	86	70	1
520	-10896	21448	-51	-4407	-721	-17928	-2640	-680	-2588	-671	-218	-30672	12576	-14800	41	-2538	-894	-12624	5752	10272	10	19	-222	-17360	4272	-5184	-575	717	-32	-19936	2024	-3376	37	1722	-154	0	116	1
-3592	-5724	13836	33	-4298	-820	-8896	-3232	-9576	-347	-2068	-941	-26360	8224	-15712	-934	-2735	-1119	-12392	4888	10864	-110	112	-141	-16208	-288	-4992	-1499	527	-149	-15912	4800	-2096	-289	1585	-395	182	138	1
-12092	-4036	11952	17	-5236	-1133	-6520	3000	-10480	717	-2695	-1186	-19328	2792	-14688	-1273	-2983	-1313	-12624	5288	10240	-56	200	-77	-15904	-2480	-4712	-922	504	-178	-14240	4520	-1144	-473	1534	-506	43	129	1
-10992	-2464	12488	42	-6188	-1311	-3520	2968	-7064	1083	-3578	-1459	-12904	8	-11080	-798	-2771	-1215	-12688	5840	9576	-3	193	-65	-17552	-1216	-5696	290	641	-36	-15456	3520	-904	-256	1797	-495	122	136	1
-12432	-348	11764	-67	-6466	-1120	-9424	-152	-7664	1466	-4365	-1474	-10448	840	-12776	137	-2462	-1030	-12416	5888	9512	70	139	-161	-16856	2032	-4616	1144	711	82	-16656	1528	-1576	0	2059	-433	151	136	1
-13356	5152	10448	-509	-6531	-1197	-12208	4280	-7096	1978	-4786	-1533	-11336	2376	-14136	584	-2634	-990	-12728	5640	9512	97	159	-256	-15584	2288	-4280	803	641	74	-15320	736	-512	140	2314	-275	89	120	1
-15012	-2036	9684	-647	-6681	-931	-13584	4472	-8888	1622	-5397	-1495	-8376	4136	-13504	816	-2682	-891	-12568	5008	9880	56	158	-307	-15544	1200	-3704	290	637	-44	-13080	1768	832	273	2717	-220	133	125	1
-21656	-256	13808	-1773	-6204	-1383	-13656	4304	-11000	755	-5863	-1603	-5688	4912	-12008	955	-2399	-709	-12568	5592	9464	12	206	-327	-15632	216	-4352	64	644	-52	-13816	1960	2768	536	3002	-279	190	135	1
-27092	-3232	14640	-2090	-6305	-1774	-14944	3256	-12360	209	-6154	-1882	-4392	6928	-12056	951	-2061	-423	-12688	5448	9216	-64	227	-414	-15352	304	-4008	335	663	-13	-15992	1208	2160	1442	2757	-264	102	143	1
-29664	-8140	14704	-1693	-6286	-2240	-16704	392	-11888	95	-6302	-2108	-3456	7712	-11360	623	-1946	-348	-12712	4496	9168	18	202	-476	-15856	-432	-3328	655	805	-26	-16840	192	-1032	1766	2525	-94	128	139	1
-32768	-12132	13044	-787	-5909	-2758	-17128	592	-11952	159	-6302	-2143	-2504	3224	-9240	709	-1655	-219	-12792	3224	10176	-20	280	-463	-16184	-1432	-2144	884	945	-100	-17088	2384	-2208	1147	2110	111	143	131	1
-32768	1948	11552	-496	-5043	-3683	-23640	-2792	-16984	1279	-6077	-2446	-3096	784	-4608	1349	-1579	-301	-13032	3232	10616	42	447	-349	-16584	-280	-392	649	1195	-219	-17720	6056	-536	144	1664	46	44	114	1
-32768	2920	6532	-1235	-4486	-4211	-24584	-4488	-23504	2530	-5611	-1840	-8120	-912	1848	2046	-1860	-424	-12752	3720	11128	35	635	-279	-16752	2208	-224	139	1467	-391	-17872	7168	5616	128	1270	-118	51	108	1
-32768	2864	-8332	-761	-4188	-3523	-24448	1464	-20512	2807	-4224	-1452	-20712	-1088	12624	1488	-2757	-402	-13024	5728	11424	-20	860	-359	-18688	3728	-1064	-388	1699	-622	-18200	6456	8424	632	1170	-117	116	120	1
-32768	4964	-25604	751	-2900	-2664	-11848	-1080	-32240	3902	-2645	-530	-17448	-5336	16400	1795	-1949	-1556	-13776	6152	11288	-89	1221	-659	-19200	864	-1280	-400	1928	-738	-18104	3232	6792	916	1214	-26	95	120	1
-32768	16504	-32768	1168	-1198	-1442	-5432	10592	-31480	1910	-1019	-501	-2192	-2592	25472	1508	218	-571	-14264	4416	12544	-31	1610	-878	-19280	-2512	-2304	50	2287	-786	-18024	2928	3864	816	1016	-112	79	117	1
-32768	26608	-32768	-932	556	-817	-3008	3544	-23920	-1092	1152	-216	-20440	3272	15264	-284	1190	481	-13976	5624	14000	2	2266	-975	-21336	-1456	-2024	300	2613	-916	-19720	3600	2640	1026	825	-215	207	133	1
-32768	22032	-32612	-1216	892	-670	-13976	-3192	-17592	-2933	3157	328	-17440	1088	4976	97	829	323	-12368	6144	15688	113	3056	-1102	-24696	-2672	-2056	147	2745	-1005	-20984	3048	2992	1406	454	-208	166	127	1
-25092	-30856	11040	931	5601	446	-32768	-18200	-13968	32	2021	600	-16728	1624	1088	325	927	269	-11200	7080	15176	183	4189	-1361	-27280	-4352	2576	141	2814	-1118	-24880	2840	5400	1386	133	-265	166	131	1
-32648	-2200	22436	1750	4566	2348	-10144	-16152	5832	2250	3045	753	-26896	-4976	-2032	2365	2295	-1190	-10736	4816	18576	641	6025	-1654	-28792	-7592	5216	462	2994	-1046	-26192	5424	18880	2535	-2212	-482	167	109	1
-32768	14992	16060	457	3635	1470	-32768	6416	-19344	4107	4198	559	-7656	-16168	-5528	2436	2739	345	-21640	11776	17968	891	8173	-1953	-32768	-2448	7992	1278	3060	-1147	-22312	512	18808	2624	-2088	-242	178	129	1
-32768	-29408	4612	492	1836	663	-17912	4464	-22232	2819	3414	1032	-23840	5896	-19776	3135	2119	-67	-32768	13880	14232	873	8328	-2973	-32768	10152	2648	465	3365	-1205	-26080	848	4840	1373	-1571	-16	139	122	1
-16916	6880	11868	581	497	1133	-10624	3448	-19640	289	2458	-139	-14016	8032	-25896	296	1373	-846	-32768	22656	15368	926	7774	-3820	-32768	8880	-5088	-1136	3462	-1538	-26776	8416	-14784	1211	-1998	529	31	112	1
-15216	-3224	11176	332	214	429	-12680	-1408	-14504	-14	1677	54	-13408	2880	-19608	-1195	1452	21	-32768	21896	15032	-2	6244	-4625	-30160	4312	4432	120	2746	-1129	-30224	2056	-10760	-752	-2709	934	180	97	1
-13600	2528	12564	148	133	124	-13536	-128	-15008	217	1600	22	-19472	4880	-10472	-123	2023	-47	-14920	16336	24392	1017	6031	-5156	-19672	2616	-16552	-1085	2562	-284	-32768	-376	-7080	-822	-3240	916	254	87	1
-12232	-928	11664	-117	202	-237	-23696	5088	-9360	-1577	613	-237	-20344	6504	-7376	-516	1951	-92	-32768	20640	15216	501	317	-1244	-18760	-2408	-24744	-2600	1083	-639	-32376	1112	-6784	-800	-3435	1115	101	99	1
-11932	-2680	11056	-256	216	-313	-16232	-4112	-5096	-2366	434	-412	-18632	4368	-3664	-1167	1888	297	-9840	14728	19928	-154	-3776	1106	-15272	-3624	-6144	-182	-120	-172	-30728	-5816	-8936	-676	-3466	1279	166	93	1
-11916	-2128	11200	-291	191	-312	-14576	-5648	-2560	-1364	462	-446	-17520	-2400	-2536	-1168	1725	292	-64	11216	13040	-268	-3791	1066	-10112	-4192	-4248	1606	-890	283	-28248	-4472	-9176	393	-3205	1415	254	74	1
-11308	-4192	10460	-206	169	-305	-14880	-8400	-1904	-434	483	-296	-14760	-7056	-1008	-776	1516	228	-7112	6472	8976	-254	-3800	1237	-7864	-3640	-8088	1894	-1959	876	-22872	-736	-7744	1004	-3107	1492	120	82	1
-11264	-4728	10036	-41	152	-176	-13712	-9896	-2712	531	494	-80	-13496	-6904	-1200	-216	1629	314	-11224	5168	10008	-172	-4522	2081	-7536	-3480	-8696	1760	-2099	911	-17528	1208	-7536	457	-2981	1409	107	133	1
-11368	-4788	10148	70	123	-46	-13984	-6872	-2792	1001	518	91	-14576	-5104	-1720	287	1590	239	-10976	5112	10728	-169	-5080	2626	-6312	-920	-6376	809	-3508	1153	-14016	368	-7168	-356	-2879	1192	233	183	1
-11632	-3872	10028	21	80	66	-15680	-1872	-2272	234	464	68	-15280	-2384	864	460	1470	-9	-11312	3320	9208	-163	-5321	2827	-9584	-2896	-4712	245	-4254	1283	-11616	-224	-8352	-1092	-2364	1099	96	124	1
-11164	-3052	10292	-10	104	117	-15856	-1504	-1408	-905	474	1	-14912	1184	2864	231	1475	242	-12152	1592	9120	-53	-5292	2948	-9240	-6552	-4656	28	-4734	1478	-11384	-1920	-10560	-1917	-2021	806	70	201	1
-11260	-2912	10336	-45	139	148	-15344	-4136	-1312	-1221	522	-64	-13904	872	4104	-874	1718	378	-15392	2200	10608	167	-5249	2874	-10496	-3344	-7856	-72	-5086	1512	-8952	-2024	-10264	-2045	-1758	584	0	207	1
-11040	-3684	9972	10	176	224	-14576	-6560	-1376	-891	627	0	-14232	-1648	3536	-1026	1472	405	-19072	2384	11256	470	-5362	2748	-11704	-4080	-7912	-100	-5545	1594	-5848	-3104	-10280	-1874	-1476	367	251	199	1
-11208	-4400	10072	117	210	339	-14520	-7040	-1104	-781	649	34	-16472	-4824	224	-297	2017	400	-20992	3784	11960	747	-5313	2794	-12656	-6208	-9200	36	-5775	1722	-3776	-2856	-10904	-2096	-954	136	116	171	1
-10792	-4948	10160	297	200	571	-15016	-6832	-2480	811	974	276	-16760	-4728	-3504	-198	2393	335	-24336	5736	14280	986	-4978	3010	-16184	-7168	-11184	225	-6262	1836	-2096	-3968	-10496	-2125	-974	1	2	164	1
-12164	-2668	10332	331	160	725	-16832	-2408	-3984	921	1055	223	-19560	-1848	-2536	202	2199	96	-32768	7384	13320	1075	-4675	3389	-19392	-9296	-16928	191	-6606	2040	-1680	-3888	-8304	-2376	-397	-155	110	204	1
-11816	-1736	10988	251	187	639	-16792	1216	-1048	2	1051	187	-18664	960	224	264	1491	-4	-32768	2520	7680	782	-4784	4038	-22928	-9528	-20392	257	-6436	2031	-3752	-5104	-5192	-2416	-279	-254	118	187	1
-11948	-1332	11332	211	320	459	-16616	1552	-608	-116	1058	178	-17744	624	4624	86	894	36	-32768	-1568	248	450	-4431	4044	-27328	-5736	-22384	577	-5907	1794	-6384	-3376	2528	-1934	-795	-120	85	117	1
-11836	-1600	11352	227	444	385	-15400	-1368	1832	-839	1192	169	-17712	-3104	8056	123	838	228	-32768	-6776	-11736	-444	-4019	3457	-24600	-3488	-23520	39	-4923	1078	-14640	2824	19336	-425	-1735	240	112	73	1
-12676	-2760	11696	238	522	384	-14400	-9632	-144	605	2021	447	-16552	-4680	6792	370	1314	230	-32768	-9696	-30552	-1916	-3038	2176	-11944	216	-24696	-942	-3411	253	-23800	3160	31616	1069	-693	940	113	40	1
-12624	-4244	12500	349	680	625	-18224	-5488	-2152	665	2251	515	-17456	-664	3648	327	1652	-19	-32768	-17496	-32768	-2663	-1817	-133	-4400	-3480	-26872	-1642	-1488	44	-19672	-3960	21784	1208	1180	1141	122	39	1
-11628	-160	15448	93	991	743	-19200	-712	-2784	-396	2320	520	-18784	1400	1256	-74	1299	-272	-32768	-32768	-32768	393	334	-260	-4696	-7320	-30112	-1538	803	-195	-20560	5016	18512	1078	246	-137	122	110	1
-13328	-40	14132	10	1715	637	-21448	592	-4712	-1342	2401	616	-21232	1472	1728	-1159	799	-84	-32768	-7136	-13864	-328	2413	-809	-10944	-4648	-17736	1126	2756	-396	-12096	6408	10824	1087	617	-635	133	168	1
-12716	-1024	15736	-6	2507	666	-22104	-2584	-2992	-1475	2535	734	-21528	760	3800	-1723	271	191	21280	23512	32767	1167	630	-1239	-32768	-6656	32767	7319	2286	-1190	-13176	4160	3784	588	888	-360	124	246	1
-10688	-1460	17792	-1	3336	633	-23688	-5648	-1216	-1153	2737	961	-22712	-4136	8136	-1461	-309	107	-32768	8480	-10248	238	3207	-3872	-8968	9088	-17368	662	2694	385	-23008	32	15808	347	-280	222	84	133	1
-9816	-4932	17836	-17	4484	737	-27768	-4352	4576	-810	2916	1092	-27984	-5928	20312	-1392	-1398	-77	-27160	25712	3176	-247	3626	-1968	-18096	5800	-1232	-681	2442	-405	-18064	200	12808	101	810	-659	112	63	1
-8008	-5572	19380	-62	5951	1103	-30600	-2696	5192	-1252	3039	1015	-17216	-6760	20832	-1464	-1553	210	-32768	-3008	14296	-226	2826	-1317	-32768	-1992	-9544	-2440	2701	-441	-23304	17112	-4064	-672	1786	206	206	103	1
-8152	-9348	19592	-154	8517	1617	-32768	-3544	13024	-2561	2865	990	-19360	6520	8744	-1632	-1247	1225	-22064	4376	13008	-1176	294	-1244	-18424	-504	-11064	-2422	2710	-1457	-19400	-2032	-18824	-1368	2048	541	172	116	1
-32768	-8464	8196	-942	9313	1494	-24248	-12728	-6976	-2494	3056	1246	-25656	-1640	-8512	-1633	532	307	-18920	6304	6712	-390	120	-705	-9696	-2432	-13376	-2046	2121	-566	-10576	-5488	-12656	-74	1741	587	202	155	1
-32768	-15952	15004	30	6872	3554	-26408	-8688	-9096	-2927	3088	418	-27088	3264	-10280	-1280	-502	-499	-14976	5392	9096	-87	-33	-297	-13024	-11912	-13360	-816	1617	-24	-10032	680	-7328	1133	1240	108	162	69	1
-19828	-20804	32767	-248	6451	3835	-27288	-9168	2800	-2693	2448	-36	-32768	10896	-3784	207	-1925	-1004	-13168	3568	10488	114	-73	-19	-18744	-8264	-10152	1151	1547	-20	-17528	3344	-8120	116	1619	25	88	73	1
-32768	-4616	19916	-663	5261	2137	-18336	-2968	-18720	50	1698	-193	-32248	5152	-5872	-158	-2670	-869	-12800	5472	9704	178	9	75	-19840	-3000	-6872	1740	1345	61	-19640	2000	-5168	-6	1900	-141	114	100	1
-32768	-15092	29340	-886	-1519	-969	-13056	3232	-15032	1173	1454	-222	-29776	6576	-10088	-153	-2534	-938	-12464	5304	9784	236	-30	58	-17312	3000	-4056	1394	1055	244	-19528	520	-1480	74	1655	-370	84	119	1
4304	-12908	22960	-346	-2776	-1718	-15640	2616	1840	-1989	-244	-595	-27416	6824	-12480	-728	-2129	-1285	-12208	5368	9936	286	-52	46	-16656	3320	-3128	191	772	111	-15880	4192	-720	93	1577	-475	139	143	1
-544	-5308	14916	-40	-2402	-1873	-9952	-1960	-4192	-1197	-1480	-1181	-23736	4360	-13648	-828	-2474	-1376	-12568	5560	9592	277	42	35	-16160	536	-3720	-570	654	-43	-13720	4592	-120	-145	1483	-443	214	143	1
-8468	-772	13292	56	-3167	-2272	-3552	-224	-7984	1170	-1937	-1446	-17464	2456	-12400	-857	-2597	-1421	-12344	6504	9128	213	119	28	-16720	-560	-4192	-452	588	-119	-14312	4176	288	-259	1521	-410	63	130	1
-8984	2116	14064	79	-4171	-2405	-4112	3184	-6320	2268	-2486	-1582	-13968	2368	-11632	-803	-2602	-1343	-12368	6624	9040	156	91	-54	-16384	-792	-3944	175	616	-13	-15816	2712	-72	-280	1610	-362	83	118	1
-10012	3344	14432	56	-4842	-2082	-8192	2712	-7448	2284	-3409	-1523	-11696	600	-11936	-448	-2518	-1283	-12568	6184	9152	188	-1	-161	-16616	880	-2960	896	725	58	-15544	1456	616	-107	1860	-262	87	123	1
-13344	5548	12920	-215	-5545	-1653	-10760	3576	-7168	2192	-4149	-1337	-11184	392	-12160	82	-2401	-1172	-12264	6024	9136	170	-86	-226	-15632	2176	-2280	753	679	-18	-14640	1208	904	94	1981	-231	104	120	1
-15376	5716	12008	-762	-6037	-1334	-11480	4728	-7768	2055	-4661	-1186	-9432	1904	-11120	648	-2435	-979	-12088	5544	9160	71	-46	-288	-15816	1488	-2104	174	727	-124	-14512	1744	2040	379	2050	-294	111	128	1
-18136	3824	12812	-1319	-6178	-1141	-12336	4528	-9080	1465	-5200	-1212	-7192	4144	-10720	862	-2228	-746	-12160	5688	9176	-49	30	-327	-15848	640	-2984	-172	748	-222	-14328	1928	2768	960	2289	-305	137	116	1
-22772	1560	13304	-1707	-6221	-1084	-14592	4240	-10720	634	-5672	-1361	-6152	4288	-10200	918	-1935	-547	-12304	6048	9568	-100	42	-414	-16256	264	-3296	-120	838	-238	-15176	1920	3696	1226	2642	-274	125	120	1
-26808	-396	13356	-1806	-6238	-1246	-16048	2592	-11440	127	-5947	-1500	-5816	4800	-9592	1202	-1694	-408	-12568	5800	9536	-105	36	-423	-16360	-712	-3864	205	946	-213	-16552	2072	2696	1340	2693	-213	101	126	1
-28108	-2740	14240	-1629	-6063	-1607	-17632	1400	-10304	97	-6022	-1698	-5016	5824	-9408	1209	-1401	-270	-12848	5408	9864	-126	87	-484	-16592	-1064	-3728	421	1012	-236	-16536	2448	-2888	1175	2238	-157	92	125	1
-30964	-4068	15368	-1330	-5623	-2062	-22552	1144	-12088	526	-6051	-1992	-4848	4472	-5264	1033	-1286	-226	-12824	4808	10344	-71	222	-396	-16832	-1248	-2568	325	1129	-309	-16888	3112	-4696	239	1951	-171	78	112	1
-32768	1172	13048	-1321	-4983	-2630	-25680	-152	-15960	738	-5906	-2157	-7384	4920	-784	1186	-1382	-257	-13048	4536	10080	-71	383	-308	-16832	-16	-2064	-9	1260	-417	-17224	4232	368	-475	1786	-138	13	116	1
-32768	6164	6636	-1616	-4623	-2978	-21688	-9520	-18640	1471	-5301	-1724	-12960	2344	8936	1288	-2000	-361	-13016	4952	10656	-7	490	-273	-16856	1600	-1464	-413	1394	-548	-17416	4608	3672	-244	1565	-205	87	150	1
-32768	7196	-9580	-1156	-4086	-2730	-20008	-2112	-16776	1940	-3932	-1216	-21344	-3872	23752	606	-2480	-584	-12328	8032	12120	368	672	-233	-18368	2776	-1240	-514	1640	-689	-18208	3760	5824	-19	1418	-207	53	138	1
-32768	11292	-28048	609	-2532	-2077	-9200	184	-23112	2855	-2235	-606	-12160	-5640	19640	1114	-487	-1072	-14720	6712	11344	12	1155	-635	-20000	-3024	-2096	-155	1889	-739	-18776	3512	5736	5	1430	-183	59	137	1
-32768	12864	-30864	855	-2303	-1923	-5480	7952	-24920	1451	-336	-158	-10912	-5608	21328	1192	-197	-1039	-13984	4296	13640	-77	1641	-849	-20216	-3480	-1720	205	2261	-857	-19968	1336	5320	304	1020	-97	88	143	1
-32768	24488	-32768	-155	942	-378	-4176	1328	-22512	-120	1896	361	-17832	-3576	14736	96	1004	491	-13544	5848	13600	-51	2333	-949	-21784	-2472	-1728	109	2477	-983	-20264	464	4792	1000	647	-261	218	147	1
-32768	12960	-19348	682	2058	425	-7176	-864	-25680	194	3604	959	-12952	792	3440	1006	1168	311	-11440	6456	15424	41	3202	-1211	-23344	-4432	-560	6	2632	-1046	-20712	-960	5096	1513	154	-316	173	135	1
-22488	-20176	32767	308	2360	500	-32768	-376	32767	-4675	1500	1331	-5928	5784	-13168	1862	2574	464	-10568	5688	17288	297	4354	-1427	-26608	-6576	144	312	2748	-1085	-22336	328	11352	1674	-986	-492	191	133	1
18448	-20416	-14320	1920	4715	3198	-18448	-3168	-29216	285	2178	-1025	-28592	9456	13768	-1645	2837	879	-10600	9224	15584	594	6504	-1745	-30544	-5536	6568	619	2803	-1238	-27440	576	20720	2301	-2591	-500	253	116	1
-3528	-15204	13180	1232	4733	-636	5576	8264	2536	-1236	2369	174	-21416	-6216	6488	192	1383	49	-20232	10152	13576	862	7960	-2276	-29472	-1816	6448	812	3044	-1125	-16664	-3640	19680	1866	-1898	-287	229	89	1
1712	-7960	16068	1318	4973	-96	-32768	-8328	-11824	844	2694	-148	-23336	-21968	944	1588	727	-650	-32496	13792	12736	1214	7733	-2982	-29168	-72	4520	781	3121	-1102	-21920	6208	208	2282	-1090	-75	39	119	1
-32768	-32768	704	577	2576	130	-22392	-8304	-28136	1805	3005	1171	-22752	15248	-3232	1421	1605	-210	-32768	25440	8232	862	7471	-4177	-32768	10240	-5032	-1003	3208	-1603	-24752	16656	-13512	2376	-1407	579	199	128	1
-12060	9884	14504	527	1073	1054	-13664	-1824	-10880	1247	2263	266	-16464	32	-21096	-2036	1618	-223	-32168	23088	14056	52	6016	-5092	-30256	6248	2864	-171	2798	-1271	-32768	10928	-7872	-208	-2185	1024	0	99	1
-15944	-52	11300	509	508	597	-16768	4224	-14552	2461	2017	-76	-9144	-7376	-16160	-1213	1770	32	-9320	27584	31624	820	5570	-5323	-22160	6440	-8168	-957	2642	-699	-32768	7280	-7304	-1712	-3010	913	183	142	1
-13688	-376	11216	252	338	226	-16848	9256	-10752	-1031	1336	138	-16792	-2568	-10584	127	1936	193	-32768	24360	14456	98	1372	-2303	-18184	-216	-26360	-3039	1228	-979	-32032	2152	-6904	-2224	-3321	1056	253	118	1
-13480	-752	11392	217	324	167	-18192	-512	-8856	-2583	709	-17	-17976	5240	-8888	-166	1788	356	-15552	18320	20560	-989	-3365	562	-17696	840	-8664	-2136	-233	-830	-32136	-6424	-8712	-2052	-3406	1272	140	124	1
-12208	-2472	10664	-110	258	-39	-16792	-9072	-4792	-1938	676	-177	-17920	3664	-4768	-743	1484	371	-2680	13520	15104	-1068	-3806	881	-10216	-5152	-3904	-342	-952	-482	-29536	-4776	-8440	-550	-3237	1270	163	80	1
-12216	-3248	10504	-172	230	-55	-15784	-8944	-3464	336	842	-65	-17272	-3192	-4328	-432	1583	352	-4360	9392	9704	-845	-3984	1046	-8808	-5320	-9152	1288	-2016	193	-24728	-1488	-7560	248	-3020	1369	173	77	1
-12136	-3320	10020	-70	131	-44	-14872	-6344	-5104	1466	850	67	-15664	-3056	-3176	74	1506	309	-10664	7640	8720	-576	-4637	1539	-4936	-1184	-8944	1768	-3010	608	-18008	-408	-7512	263	-2874	1329	133	146	1
-12044	-4064	9884	86	73	-5	-14248	-4008	-4416	1329	659	250	-14408	-3992	-3016	336	1502	98	-11976	7096	8608	-252	-5307	2118	-4224	1112	-6880	1503	-3636	924	-13840	-928	-6864	-243	-2538	1077	107	181	1
-12024	-4328	9824	116	69	2	-15144	-1008	-4192	266	555	47	-15232	-2248	-2784	362	1576	185	-12640	6824	6976	125	-5724	2662	-7528	-960	-6064	1069	-4270	1162	-12360	-2632	-8648	-362	-2357	1028	125	163	1
-12060	-3036	10056	128	13	78	-15744	-3680	-3112	-743	468	-6	-17712	2728	-360	312	1247	586	-12352	6416	6736	361	-5765	2960	-9456	-4736	-5224	547	-4806	1521	-11024	-2808	-9776	-1441	-1652	807	61	136	1
-12024	-2856	10252	53	49	98	-15624	-4376	-1304	-927	503	-44	-13176	744	776	-932	1956	407	-14760	6632	7848	519	-5534	3129	-9232	-784	-6144	549	-5106	1836	-8528	-3768	-10824	-1689	-1365	585	31	127	1
-11824	-3292	10108	31	86	158	-15152	-5152	-2232	-901	503	-56	-14008	-224	3360	-966	1707	272	-20144	7056	9512	683	-5487	3193	-11712	-2816	-8152	511	-5463	2120	-6064	-3384	-10528	-1350	-1030	436	147	160	1
-11916	-3164	9604	40	111	228	-14048	-5984	-2256	-741	595	98	-16888	-1960	1632	-543	1835	166	-22272	6440	11536	939	-5481	3205	-14104	-3592	-8616	497	-5762	2423	-3728	-4152	-10496	-1440	-744	260	116	141	1
-11964	-3452	9644	100	94	324	-13384	-5704	-1344	-487	760	145	-16392	-2648	-3152	-645	1847	147	-24096	4776	14680	1477	-5024	3259	-18440	-4808	-10488	473	-6253	2680	-2936	-3840	-10592	-1644	-832	45	71	145	1
-11944	-3072	10256	147	118	405	-14280	-4000	-2592	-256	914	145	-18624	-2152	-2448	-719	1447	14	-32768	2168	14024	2495	-4268	3521	-22264	-9872	-15560	299	-6522	2916	-2904	-3520	-9240	-1497	-563	13	79	151	1
-12164	-2400	10740	125	234	395	-16608	-2816	-3560	-392	1026	156	-18736	-2080	1016	-346	1210	31	-32768	1056	8416	2685	-4568	4078	-25984	-9640	-22608	389	-6202	2718	-4440	-3464	-3984	-1752	-430	8	116	245	1
-12300	-2272	10912	102	388	381	-17144	-3136	-960	-726	1127	184	-17624	-1688	2968	-143	1289	102	-32768	-4208	1384	2010	-4589	3897	-26496	-9808	-25088	1545	-5623	2290	-9816	1056	4968	-1603	-1341	379	123	148	1
-12304	-2296	11276	108	553	376	-15568	-6320	-496	-555	1404	252	-16848	-2896	4368	-53	1268	224	-32768	-9880	-12904	713	-4212	3393	-20776	-7328	-23880	2030	-4523	1931	-17120	5848	19056	308	-1933	723	105	82	1
-10424	-2632	14568	68	844	445	-16080	-6744	144	-222	1643	375	-17096	-4400	4712	-176	1328	225	-32768	-11928	-30952	-1116	-3233	2292	-12184	2000	-24064	461	-2777	1222	-24056	-616	28824	2327	-77	1180	141	72	1
-12252	-1896	13364	19	1318	436	-20120	-2744	-1152	-421	1935	505	-21344	320	4872	-443	1271	92	-32768	-25784	-32768	-1845	-1458	1016	-5040	-3720	-28152	-1779	-825	482	-18976	7000	21256	1831	772	985	143	121	1
-12932	-728	13168	-59	1822	435	-19136	-1888	-1808	-776	2122	584	-19800	3048	5176	-618	1077	51	-32768	-32768	-32768	-251	1030	950	-5872	-9320	-26536	-2541	1170	-392	-13360	9216	18104	929	295	38	129	109	1
-12596	-1480	13628	-57	2416	349	-19128	-3048	-1752	-875	2350	704	-18840	-768	4800	-807	784	82	-32768	-18912	-26280	240	2989	651	-7688	-9224	-27304	-2182	2912	-993	-10016	8528	8936	-21	856	-322	114	153	1
-11176	-1640	14604	-36	3176	348	-21392	-2328	-1544	-868	2512	830	-20696	-1536	6712	-1164	291	180	-32768	-6312	-11232	-1095	3304	-175	-11000	-10400	-28752	-1594	4187	-1361	-13336	8568	21264	-546	-65	-287	90	183	1
-9908	-2488	15036	-344	4273	207	-23096	-336	2248	-1441	2572	873	-22464	448	11336	-1328	-724	249	32767	32767	32767	41	-935	815	-32768	4240	32767	8375	795	-1225	-11000	9592	16440	-283	-681	-273	97	172	1
-7968	-4516	16984	-272	5509	185	-26440	-2832	3960	-2071	2605	953	-18448	-2216	15272	-1160	-1669	162	-27656	-14344	-12840	-1050	5915	-5239	1632	30368	-21176	-1149	2137	1342	-31152	-5248	-704	-2163	2387	276	169	144	1
-7616	-6176	14576	-366	7783	437	-29984	-2128	12624	-2514	2490	1174	-16208	-232	18544	-2217	-175	865	-27672	-3888	9184	-1054	3700	-3513	-21888	8152	2520	-5650	2820	-1536	-32768	29504	32767	-2165	-2285	684	174	88	1
-31436	-3964	9956	-1074	8763	1045	-23640	-7536	1056	-2455	2793	1167	-17936	-5088	12888	-1843	-471	685	-15344	104	19600	-2296	-118	-2092	-32768	-19864	-1104	-3504	2835	-1936	-22992	-16680	-12768	-2506	3435	873	193	78	1
-32768	-19976	9636	-668	8007	1622	-27320	-14296	-7560	-2309	3089	1514	-20208	-7856	-16600	-2131	564	201	-17936	-8104	10080	-922	44	-1054	-8168	-16648	-11720	-3683	2073	-1128	-12200	-18832	-13560	-2756	1634	477	145	102	1
-32768	-19580	21612	-126	7156	3296	-30784	-10184	-2456	-1515	2835	908	-32768	1320	-4472	-390	-1074	-733	-15984	6272	7224	-83	258	-217	-6048	-9104	-14168	507	2203	472	-2168	-9448	-17344	2176	1388	-461	137	184	1
-15240	-16796	32767	-716	6503	3391	-26416	-8848	1552	-850	1938	576	-32768	2000	1784	771	-2848	-1002	-13544	7808	8048	200	85	-142	-14224	2976	-12768	2653	2222	413	-10424	4576	-9704	2370	1000	-616	143	39	1
-32768	-22392	24884	-764	2371	1104	-15448	-3360	-26680	2366	1570	458	-29656	-656	-6688	1361	-3071	-544	-12952	5208	10008	135	-11	-273	-23824	1152	-7568	1446	1516	200	-20448	17408	-9584	1618	2142	907	78	50	1
-26624	-16212	29652	56	-3464	-847	-16592	2560	-7664	1365	1059	229	-30608	10680	-10416	1202	-2728	-848	-12968	5232	9784	56	85	-217	-19504	3080	-7848	304	1064	-118	-21352	14936	-10200	1616	2114	945	51	85	1
-3832	-7340	21448	96	-4319	-921	-17456	760	-1968	-1451	-664	-314	-29616	9264	-13896	-119	-2243	-1050	-12904	5264	10280	-90	122	-169	-17248	1400	-5840	-1114	822	-222	-19272	1880	-2232	154	1529	-207	221	123	1
-7256	-3464	14256	-300	-4739	-1093	-10608	-1320	-10968	-270	-2100	-892	-25792	4800	-14616	-816	-2613	-1184	-12952	5224	10376	-53	163	-109	-15696	-2208	-5272	-1130	447	-103	-14960	2384	-2120	-179	1651	-643	181	132	1
-12684	-3308	11448	-559	-5886	-1277	-6440	1832	-9264	187	-2809	-1033	-18432	1336	-13264	-859	-2973	-1228	-12928	5512	10064	36	149	-51	-16840	-2128	-6560	-193	697	-33	-14912	3536	-2184	-153	1570	-607	4	139	1
-9796	-3708	11264	-405	-6380	-1173	-4704	200	-5504	793	-3597	-1420	-12960	2648	-11400	-365	-2728	-1064	-12680	6504	9336	101	158	-95	-17056	200	-5088	860	673	136	-15784	3448	-1600	115	1680	-497	0	133	1
-11568	-2024	10528	-359	-6372	-956	-9504	816	-7080	1564	-4247	-1543	-14040	2832	-12816	240	-2628	-1054	-12552	6264	9096	115	143	-202	-16352	2352	-4608	1082	730	123	-16656	3664	-2104	3	1989	-489	153	130	1
-11804	1492	11496	-674	-6198	-1094	-14416	3344	-8544	1615	-4805	-1537	-11776	4096	-13640	252	-2800	-961	-12568	5624	9320	96	152	-278	-15736	1584	-4504	393	587	-28	-15296	2256	-2072	-104	2142	-391	131	139	1
-15756	-596	11788	-1334	-5988	-1361	-13536	3968	-9984	986	-5428	-1639	-9072	3968	-13248	464	-2678	-883	-12728	5312	9392	72	196	-284	-16000	-840	-5576	-47	559	-55	-13768	344	-1304	22	2487	-192	146	131	1
-20340	-2352	13828	-1816	-5733	-1585	-13576	2552	-11304	391	-5864	-1879	-5896	5344	-12080	517	-2380	-689	-12664	5440	9672	182	216	-231	-15576	-1792	-5760	108	487	10	-14080	-1112	280	307	2904	-202	131	148	1
-27288	-4872	15236	-2031	-5687	-1915	-14904	1456	-12176	127	-6128	-2206	-4224	6712	-12136	574	-1957	-517	-12688	5008	9480	6	285	-364	-15592	-1696	-5464	167	492	23	-15088	-1568	368	791	2816	-245	92	138	1
-32400	-8732	15436	-1794	-5821	-2399	-16776	-656	-12496	239	-6284	-2415	-3880	7000	-12312	557	-1917	-500	-12992	5120	9312	64	312	-426	-16488	-608	-5008	716	591	100	-17032	688	-2568	1100	2634	-195	129	126	1
-32768	-9488	13060	-1140	-5848	-3037	-21176	2712	-17232	1391	-6167	-2772	-1936	2168	-7968	505	-1438	-373	-13000	3888	9816	101	381	-400	-17032	-1064	-2472	663	647	42	-18408	4904	-4880	679	2200	-162	88	124	1
-32768	4164	9776	-1378	-5172	-4075	-24320	-3136	-18672	1200	-6007	-2553	-3680	-864	-3504	1091	-1400	-575	-13040	3536	10056	92	521	-314	-16368	-160	48	472	868	-68	-18624	5720	-4472	475	2091	-161	61	122	1
-32768	5820	2652	-1743	-4429	-4155	-25616	-3080	-22704	2016	-5426	-1839	-11728	-5640	5928	1402	-2041	-920	-13064	5048	10480	47	691	-236	-15712	4368	1104	16	1273	-310	-18216	5928	9080	-455	1341	-12	110	110	1
-32768	3260	-15856	-729	-3963	-3491	-21848	-1672	-24296	2352	-3894	-1243	-20896	-6200	18984	826	-2330	-1247	-13384	7456	9768	-15	915	-437	-18160	5448	712	-445	1585	-548	-19328	3504	12800	310	1101	70	161	127	1
-32768	8272	-32768	1865	-2282	-2057	-6808	456	-30288	2826	-1972	-652	-11672	-7136	18544	1757	-534	-1517	-13896	6856	11216	-78	1226	-786	-19008	528	-336	-301	1937	-656	-19072	1232	9816	1064	1062	174	87	136	1
-32768	31068	-32768	1262	-468	-1029	-1936	10264	-29360	1558	-49	-373	-9424	-5784	24072	509	205	-15	-13552	4760	12728	-61	1676	-942	-19112	-2312	-1896	250	2334	-744	-18072	3392	3304	1463	868	9	98	136	1
-32768	24420	-32768	-679	1148	-538	-4256	1472	-25976	-185	2427	412	-18912	-3096	13296	226	811	782	-13208	5096	13992	66	2351	-995	-21960	-3072	-1328	468	2601	-867	-20208	3904	1176	1596	698	-109	175	142	1
-32768	8660	-21484	552	2440	825	-7720	-1872	-28288	350	4041	955	-13560	-1944	1552	1339	1170	346	-11480	4640	14360	187	3146	-1092	-23240	-4600	64	388	2734	-948	-21160	752	3472	1487	309	-123	177	133	1
-12928	32767	32767	887	652	3878	-29632	-1992	32767	-4787	2567	1431	-11760	-1672	-888	1503	1297	264	-11840	5952	16752	382	4326	-1151	-24368	-5800	744	398	2920	-991	-20144	-864	7584	1661	-457	-270	196	120	1
32767	-32768	-18308	1693	4245	2124	-32768	3104	4680	323	-181	-1998	-32768	2952	3472	-1065	3275	734	-11672	8928	15472	691	6395	-1249	-31040	-4768	5760	654	2911	-1091	-28032	-1832	14776	1642	-1477	-422	211	117	1
-32768	-12036	5404	1404	4398	-1909	15304	1840	-3704	1444	2115	922	-25272	2120	8696	1753	1120	-444	-21480	8920	11208	1102	7717	-1791	-28696	-5600	4736	879	3073	-854	-21880	-2744	26064	2374	-4285	-577	199	80	1
-32768	32767	19140	382	6123	1642	-32152	-4736	-11232	2775	2660	6	-16336	-19816	5304	3110	368	-596	-32768	12816	8216	1558	7631	-2591	-30016	7920	808	925	3562	-788	-15864	1832	7088	2273	-1182	-66	79	107	1
-32768	-31860	-3136	1355	2081	2187	-32768	-20192	-32768	4498	3091	1021	-29872	18200	3272	2302	1605	-621	-32768	21016	10664	1560	7249	-3645	-32768	11104	-4304	-168	3517	-1092	-23592	14960	-16312	2580	-1343	250	70	107	1
-16940	180	11560	346	634	763	-15528	15928	-14720	3735	2585	487	-18896	13144	-18192	-1897	1449	-314	-32768	22192	23016	920	5979	-4293	-32232	4016	3840	903	3096	-1086	-32768	15912	-11928	807	-1780	914	0	105	1
-13968	-3724	10244	372	214	192	-19552	15288	-14696	1205	2211	-44	-9792	2032	-16672	-1841	2098	327	-13104	23512	30536	2109	5635	-4574	-24664	4664	-9256	-652	2959	-700	-32768	696	-4408	-784	-3440	702	31	149	1
-13460	1104	10844	208	256	-79	-11608	5584	-12592	-4147	1166	-484	-13128	-8200	-13528	-1389	1614	94	-32768	27608	18944	1446	1990	-2281	-19032	-3928	-26448	-2810	1298	-711	-32768	-1032	-8448	-2416	-3706	954	253	127	1
-12696	-2708	10348	-11	234	-110	-13160	-10768	-10632	-3658	609	-306	-15968	-1416	-9784	-915	1622	17	-9592	21352	22000	-378	-3559	503	-18632	0	-7864	-1103	-4	-404	-32768	-7752	-6856	-2026	-3911	1082	247	97	1
-12316	-4144	10084	-236	166	-74	-19008	-16136	-4456	-807	842	-131	-19944	-352	-7960	-702	1621	148	-3512	14160	16264	-752	-4079	979	-10624	-3912	-3736	525	-829	51	-30504	-4976	-7752	43	-3550	1168	253	30	1
-12240	-3500	10396	-181	75	-1	-16728	-7824	-5832	1995	1000	-28	-18752	-2872	-5840	-112	1635	326	-3456	8792	10928	-603	-4239	1137	-8744	-3992	-8600	1672	-2017	685	-25600	-704	-7456	1410	-3079	1260	180	121	1
-12120	-3452	10468	-75	93	-54	-17232	-1576	-5800	2015	847	106	-17472	-1712	-3944	512	1508	534	-11784	6368	9016	-335	-4777	1776	-5144	-1440	-7912	1636	-3047	957	-19272	1024	-8440	1186	-2852	1328	168	202	1
-12300	-3288	9952	59	101	-65	-14672	792	-4088	691	588	150	-14224	-2328	-4872	623	1562	203	-11744	7384	8872	-130	-5341	2438	-5448	-584	-6992	896	-3738	1203	-14944	-408	-8080	320	-2696	1110	66	231	1
-12084	-3724	10160	60	155	-75	-14376	-2168	-4936	-515	408	-79	-15984	808	-2792	442	1387	189	-12688	6480	8224	-2	-5606	2818	-9344	-1856	-6896	529	-4385	1359	-13136	-2720	-9696	-83	-2568	1105	62	198	1
-12124	-3708	9968	22	190	-22	-16064	-3832	-3712	-1178	279	-193	-17704	3752	1064	-126	1355	548	-14304	4960	8016	200	-5684	3115	-10032	-5544	-5552	171	-4903	1601	-11368	-2520	-10704	-1208	-1877	898	104	159	1
-12264	-3288	10136	-47	238	32	-16568	-5088	-2472	-1255	239	-236	-12944	-224	1184	-985	1888	516	-16328	5224	9304	499	-5690	3306	-9984	-1464	-8480	350	-5282	1868	-8672	-1904	-10928	-1367	-1486	738	0	156	1
-12172	-3192	9880	-66	284	53	-15400	-4960	-3240	-970	333	-130	-14848	-848	1640	-579	1932	188	-19896	5720	10376	801	-5663	3330	-11560	-3416	-7472	641	-5666	2064	-5336	-1872	-10264	-1119	-1075	610	179	150	1
-12080	-3512	9420	-66	294	73	-14128	-5536	-3552	-643	433	36	-17104	-1368	-1296	-153	2297	240	-22328	6456	11640	1146	-5572	3340	-13616	-5016	-10240	729	-5905	2384	-3480	-3320	-11184	-1289	-929	479	156	133	1
-12292	-3060	9312	-57	226	148	-12896	-3480	-2512	-415	547	28	-15352	-808	-2216	-337	2240	210	-27328	7344	13248	1636	-5100	3409	-17168	-4472	-11912	839	-6446	2655	-1216	-3368	-12232	-1520	-1178	261	86	145	1
-12344	-3172	9588	-69	231	139	-14592	-2912	-1920	-698	648	7	-16960	-1056	-776	-403	1810	-27	-32768	8056	8512	1954	-4900	3787	-17928	-6608	-17768	184	-6438	2824	-304	-4408	-10160	-1520	-594	1	60	145	1
-12404	-2484	9868	-213	282	133	-16184	-3624	-472	-911	777	76	-19784	-2320	3104	-322	1357	-82	-32768	3320	4696	1592	-4950	4359	-20872	-6760	-23472	204	-6236	2592	-1696	-3360	-5136	-2014	-640	-20	99	189	1
-12344	-4284	9868	-108	370	89	-14528	-5816	1992	-833	1074	216	-19776	-5424	6712	-274	1150	150	-32768	-3320	-1752	1200	-4611	4463	-27304	-10528	-25872	978	-5662	2276	-6712	2600	4856	-1422	-1179	274	96	161	1
-11836	-3708	11044	-7	551	193	-13472	-9512	3048	-161	1537	355	-17520	-7296	7344	174	1078	278	-32768	-12864	-13584	639	-3966	3786	-21504	-8960	-26064	2078	-4478	1940	-14880	7776	18328	399	-1555	567	85	85	1
-12012	-4208	12392	33	881	322	-16808	-8408	160	456	1941	472	-18016	-5360	6720	240	1143	235	-32768	-14832	-30608	-435	-2720	2317	-13760	2456	-24192	952	-2630	1183	-24384	2504	29896	2121	68	1095	150	52	1
-12792	-3368	12584	62	1375	417	-20680	-2944	-1240	139	2188	591	-20624	2360	5872	-51	1157	-12	-32768	-23032	-32768	-1421	-1021	224	-4176	-2160	-28416	-1471	-823	456	-22880	8376	20256	1301	877	1451	170	49	1
-12520	-1336	13460	27	1947	446	-19544	-440	-1824	-746	2329	658	-19224	6112	6048	-690	1072	-71	-32768	-32768	-32768	-252	693	-25	-5320	-11112	-30392	-2751	1435	-477	-16240	9536	17704	530	658	202	139	115	1
-11160	-1668	14692	-58	2670	355	-20072	-976	-1080	-1170	2506	768	-19152	1792	5096	-1335	733	100	-4376	22240	23760	-1312	2696	-184	-12248	-5416	-26792	-1408	3312	-910	-9960	8248	7960	-199	1161	-380	97	231	1
-10116	-1612	15252	-299	3632	204	-22992	-560	-552	-1312	2614	848	-21720	-1336	6032	-1615	81	206	32767	20688	32767	-2399	947	-685	-32768	8464	32767	5557	1350	-1038	-13816	7784	-1640	-1161	1752	-468	102	235	1
-8884	-3040	17320	-375	4911	-54	-26760	-2616	4280	-1780	2599	972	-25112	-2912	13984	-1417	-857	130	-32768	-29280	2208	-1635	4620	-4502	-1920	12968	-16008	-2348	2491	466	-28704	3040	13824	-1282	510	636	134	115	1
-5840	-6980	16468	-444	7004	-62	-30224	-2032	10912	-1877	2610	1157	-22056	-1608	17128	-866	-2124	108	-13456	1128	12272	-1390	3742	-3512	-13352	-2000	9576	-3305	2281	-1623	-15712	6832	19208	-1583	685	554	115	55	1
-6248	-7156	15812	-483	7332	-29	-26016	-5080	10024	-2483	2706	1298	-10616	-2096	13176	-1738	43	991	-32768	1400	8432	-1241	3851	-2615	-32768	-7336	-20160	-3756	2431	-985	-20816	-968	2216	-1505	1650	-449	236	126	1
-32768	-11988	4636	-745	8514	1504	-20752	-14480	-6656	-1838	3335	1403	-9128	-1808	10200	-1624	-85	946	-32768	-12680	15936	-1582	36	-1957	-16776	-9880	-16216	-3491	2443	-1167	-25256	-8656	-19800	-1773	1738	175	193	139	1
-32768	-15764	16500	-18	7584	2456	-31472	-8872	-8272	-650	3342	1241	-28456	-368	-11112	-1212	-200	-48	-18864	-1224	11264	-565	-207	-964	-14216	-9184	-14288	-2330	2437	-671	-12072	-9112	-16112	274	1512	300	108	165	1
-27752	-15692	29188	274	6785	3027	-32768	-6904	2896	-1384	2530	815	-32768	1456	-11568	-242	-1276	-768	-14776	3232	10400	-148	-155	-365	-12448	-14888	-13936	151	1793	45	-11272	704	-7592	1364	1217	-32	136	104	1
-9988	-2708	27216	-1804	6511	2995	-22776	-6024	-8704	-640	1474	630	-32768	-1888	-6816	719	-2777	-812	-13232	3144	10416	75	-29	-13	-16368	-5368	-9248	1989	1770	130	-16624	5120	-7944	744	1325	12	145	11	1
-32768	-16560	23712	-2077	253	669	-12864	-4624	-28832	2258	1147	866	-29888	1656	-8848	1580	-3035	-568	-12720	5272	9376	167	78	72	-19736	-832	-8016	2116	1446	94	-17232	3848	-6456	331	1563	13	97	97	1
-18964	-17052	24060	-628	-4258	-270	-16272	2688	-7536	39	434	135	-29424	11608	-12104	1155	-2791	-783	-12840	4176	9816	178	54	14	-18472	5424	-4784	1796	1158	143	-19352	3656	-3632	270	1794	-401	41	121	1
-4556	-9164	15484	-39	-5045	-296	-14456	952	-3224	-1486	-975	-292	-27880	8976	-14712	-54	-2477	-946	-12816	5368	9464	172	34	-21	-16688	6784	-2784	-1	886	-69	-17440	5200	-2568	29	1417	-350	246	129	1
-2824	-5640	10392	70	-5229	-592	-7376	-856	-8936	-1022	-2084	-775	-23176	5800	-14976	-722	-2718	-1021	-12808	4488	9792	85	38	-73	-15112	2184	-4224	-1498	643	-270	-14248	4216	-648	-47	1247	-336	0	150	1
-7540	-3712	8692	-105	-5474	-1062	-4976	1784	-7760	-285	-2832	-1054	-17088	3784	-13608	-1030	-2988	-1069	-12936	4928	9432	26	87	-79	-16408	-1664	-5640	-1412	514	-295	-13864	3168	-704	35	1373	-434	83	118	1
-8496	-4384	9520	-164	-5682	-1493	-3048	384	-5864	929	-3546	-1381	-10832	2128	-10584	-767	-2849	-1005	-12968	5032	9360	22	82	-106	-16592	-2704	-5272	-274	556	-98	-15432	2672	-944	147	1678	-508	65	105	1
-11356	-4736	10032	28	-5845	-1601	-5904	248	-7632	1254	-4195	-1553	-8688	1504	-11320	-97	-2471	-854	-12744	4840	9440	79	40	-173	-15936	-984	-4584	760	716	41	-16840	1944	-1200	110	1722	-459	128	127	1
-14688	-2536	9416	-14	-6130	-1547	-9976	1640	-7640	1430	-4634	-1575	-8608	3056	-12320	224	-2454	-961	-12776	4632	9432	163	-24	-237	-16000	952	-3720	1125	747	16	-15784	504	-320	376	1889	-372	199	134	1
-16348	-356	9756	-489	-6286	-1527	-11328	1616	-7896	1597	-5080	-1640	-7432	3472	-11856	611	-2259	-765	-12848	4584	9312	118	7	-266	-16360	1224	-3768	779	721	-18	-14280	856	920	508	2298	-294	250	128	1
-19180	-628	11472	-1139	-6195	-1549	-12680	2464	-9760	1411	-5524	-1718	-5792	3200	-11720	762	-1894	-559	-12528	4208	9704	28	86	-266	-16080	544	-4312	342	690	-97	-14320	1752	1832	754	2840	-284	227	127	1
-24668	-2448	13028	-1743	-6126	-1624	-14600	2624	-11688	1004	-5878	-1882	-4128	5024	-10784	1029	-1540	-355	-13016	4584	9648	9	127	-252	-15936	8	-4024	263	724	-153	-14488	1496	3200	1475	3153	-255	95	133	1
-28176	-6124	14284	-1841	-5998	-1852	-17248	1464	-11512	611	-6133	-1971	-4264	7128	-11568	936	-1225	-231	-12864	4904	9704	38	145	-291	-16448	-816	-3680	485	799	-135	-15904	1392	1840	1866	2859	-236	64	127	1
-32768	-13196	14056	-1193	-5873	-2210	-21040	3576	-10608	531	-6131	-2258	-3936	3960	-8120	748	-1043	-135	-13288	4112	9848	30	206	-310	-16016	-880	-3232	727	938	-140	-16512	2680	-3904	1193	2347	-237	68	129	1
-32768	-1668	12604	-387	-5559	-3113	-25184	880	-14696	563	-6081	-2371	-5392	584	-2624	1133	-1319	-364	-13368	4000	9456	43	276	-319	-15984	-544	-2584	756	973	-147	-18240	5664	-4272	-169	1767	-204	37	106	1
-32768	1944	6944	-369	-4993	-3616	-24720	-10120	-18200	682	-5646	-1922	-11192	-3128	3200	1812	-2026	-662	-13216	3904	10160	57	356	-354	-16416	2704	-808	285	1410	-382	-17624	7616	4912	-410	1386	-184	75	133	1
-32768	2540	-8088	339	-4470	-2747	-21808	-8920	-15712	1430	-4376	-1418	-20592	-3976	13640	1180	-2711	-947	-12984	5648	10816	163	495	-374	-16992	4352	-1544	-263	1658	-608	-17064	7632	8648	372	1181	-162	114	125	1
-32768	4640	-27404	1820	-3212	-1471	-9048	-4744	-30064	5096	-2311	-689	-16152	-4424	19672	1361	-1215	-1753	-15248	5104	10328	-50	905	-637	-18872	-800	-1648	-279	1821	-765	-18368	3872	6704	779	1254	-114	11	143	1
-32768	28548	-32768	1199	-1599	-513	-5824	12472	-29072	4119	-445	-319	-5024	-6096	26832	2020	-221	-268	-14080	3584	12760	-61	1251	-905	-19408	-2752	-2120	152	2209	-808	-18336	608	5152	563	1101	-152	55	144	1
-32768	25708	-32768	-1330	611	-261	-5520	7904	-24712	87	1717	260	-18848	-688	17064	450	724	976	-14464	4776	13808	-36	1785	-996	-21152	-1328	-2624	224	2498	-941	-19704	640	4968	809	814	-291	219	139	1
-32768	6996	-23320	156	2071	1046	-7064	208	-27016	-1114	3188	593	-16016	3232	5176	805	1124	452	-13472	5296	14136	-32	2523	-1235	-22672	-2928	-2056	63	2677	-1040	-20560	992	4512	1340	417	-239	161	134	1
-32768	5616	-5828	1935	2304	1590	-12576	1928	-27304	-1040	4198	811	-10824	4920	19664	722	1676	79	-11768	5152	15552	120	3431	-1406	-23432	-5344	-344	184	2914	-1045	-19960	1696	7008	1646	-233	-280	197	137	1
32767	-13752	32767	-1291	-1899	712	-32768	-6808	32767	-8198	-251	830	1360	6384	-23728	-585	4029	1470	-11120	6872	17752	391	4659	-1637	-28456	-4880	776	634	3052	-1065	-23576	2128	15384	2069	-1592	-530	239	117	1
-13840	-6276	-20804	763	6290	1168	-2064	-7736	-18080	-1429	1670	-669	-32768	10408	29528	-1581	2282	84	-13592	11088	15856	971	6888	-1955	-31760	-8656	7424	1152	3065	-1053	-23176	-2744	18296	2127	-2563	-576	222	105	1
-13196	18796	28556	915	6952	711	-1672	-13840	448	-653	2649	-272	-32768	-23832	4504	819	288	-1519	-32768	7544	12392	1282	7607	-2619	-28576	1848	1024	1620	3382	-750	-15296	-3512	11520	1671	-1412	-551	117	88	1
-32768	-32768	-14764	228	909	1768	-28664	-25168	-32768	5244	4124	371	-32768	0	-3384	2058	894	-466	-32448	17952	13856	1760	7923	-2935	-32768	15280	-3272	716	3594	-1302	-22216	17040	-8672	2729	-1005	155	119	127	1
-18244	-6444	3984	4	654	736	-19992	4136	-24408	4789	2848	627	-17712	10808	-19464	-307	1811	-828	-32768	27928	13800	625	6728	-4704	-32768	10656	-3288	87	3104	-1578	-32768	22520	-15864	1228	-990	1069	88	123	1
-14360	-4420	10556	321	382	226	-18440	20456	-13616	2155	2247	136	-13328	2616	-18280	-2158	1864	165	-23200	32767	32767	738	5530	-5044	-24384	4248	-9640	-1822	3188	-1418	-32768	4016	-6224	-1337	-3294	754	71	143	1
-13504	-836	10072	237	285	-103	-7672	7872	-13480	-5055	992	-664	-7440	-11048	-14688	-1270	1750	563	-32768	28976	18616	-173	3972	-3699	-20464	-3496	-23336	-2543	1671	-1077	-32768	3440	-6088	-3307	-3580	782	253	127	1
-12572	-1560	11216	30	237	-208	-12560	-13544	-13648	-4168	383	-253	-15744	2512	-12552	-258	1821	0	-13336	18888	22248	-1092	-1860	-420	-20464	176	-11848	-2425	288	-936	-32768	-7320	-8016	-2716	-3733	1060	228	107	1
-12288	-3388	10460	-220	140	-103	-21808	-17664	-4792	288	867	-212	-24136	3112	-9800	-703	1867	179	-2648	14080	17792	-1017	-2666	752	-10984	-5528	-4656	-868	-545	-665	-32160	-7688	-8368	-971	-3430	1197	253	73	1
-12000	-3452	10680	-190	82	-128	-18248	-5816	-7512	3166	1031	-6	-18840	-784	-6752	-265	1628	346	-3504	9976	11912	-755	-2890	1074	-8992	-5920	-9888	955	-1596	40	-27616	-4312	-7312	480	-3225	1322	155	75	1
-11668	-4512	10784	-83	96	-182	-16632	-768	-6104	2290	691	-16	-16920	-2744	-5416	284	1443	460	-11312	8784	9856	-606	-3949	1665	-4872	-2232	-11272	1824	-2632	561	-20632	-576	-8088	880	-3052	1424	73	117	1
-11696	-4640	9916	70	69	-118	-13184	1936	-3944	74	236	-21	-12136	-5088	-5416	366	1683	82	-10952	7928	9440	-409	-5002	2251	-3704	1920	-7336	1840	-3437	825	-16272	576	-8176	62	-2747	1332	167	156	1
-11640	-3992	10520	64	102	-74	-13408	-3400	-5072	-1273	119	-164	-14792	-664	-2480	428	1682	-32	-12184	7056	7664	-130	-5627	2592	-6184	416	-6112	1114	-4078	1135	-13488	-744	-8152	-530	-2485	1043	149	166	1
-11608	-3932	10320	28	154	-1	-17688	-5336	-2904	-1689	-25	-275	-14776	-488	-528	393	1739	37	-13432	5536	6184	195	-5896	2768	-8336	-4480	-4872	331	-4678	1460	-11680	-1256	-9720	-719	-2178	1113	0	151	1
-11684	-3392	10568	-70	217	54	-18248	-5008	-2296	-1595	10	-395	-15136	1208	4184	-1330	2046	548	-13560	5600	7912	611	-5869	2993	-9464	-264	-7568	272	-5080	1817	-10616	-2272	-10968	-1902	-1701	871	150	150	1
-11784	-3392	10092	-112	256	61	-14912	-5616	-1312	-1209	213	-159	-17832	-840	1064	-878	1832	15	-17072	6640	8824	977	-5572	3103	-12408	-2416	-6872	374	-5467	2057	-7816	-2392	-11928	-2026	-1301	653	230	148	1
-11856	-3972	9644	-80	236	86	-12056	-6632	-808	-751	426	110	-17016	-3448	-1368	-333	1746	-44	-20336	7752	9800	1215	-5280	3159	-13536	-2584	-8632	457	-5665	2366	-6192	-3024	-12008	-1985	-1258	504	103	138	1
-11968	-4032	9840	-13	183	178	-12368	-5488	-1584	-395	663	111	-16000	-2904	-1728	-463	1432	-327	-22352	8672	12488	1343	-4640	3265	-17512	-3728	-12696	36	-6132	2632	-3696	-3928	-12192	-2053	-1438	312	89	154	1
-11968	-3516	9972	11	189	230	-15616	-3760	-3072	-406	805	89	-17240	-3056	-360	-686	1362	-87	-32768	5968	13032	1752	-3875	3660	-20088	-6608	-16856	-125	-6525	2799	-3272	-2328	-10904	-1866	-1243	72	58	169	1
-11876	-3540	10296	-40	254	218	-16768	-3552	-1504	-764	832	187	-17592	-4248	1088	-728	1578	274	-32768	6264	11712	1844	-3878	3771	-24080	-8856	-20040	-275	-6453	2807	-4448	-3584	-5248	-1479	-665	-2	112	227	1
-11680	-2460	11232	-180	387	241	-16256	-4816	1008	-828	1018	232	-18904	-2312	4624	-328	1554	298	-32768	-8344	-720	2568	-3091	4263	-23784	-9448	-27464	773	-5883	2600	-7240	-1736	2568	-1605	-1055	377	108	155	1
-12024	-3824	11336	-259	589	168	-15432	-6024	2888	-351	1454	315	-20928	-1480	6456	120	1069	203	-32768	-5376	-12208	2251	-3175	4377	-19952	-9400	-32768	1353	-4825	2258	-11568	2440	12512	-50	-1626	602	106	125	1
-11864	-2392	12672	-27	937	289	-15504	-6384	248	282	1890	436	-18664	-2584	7008	185	887	190	-32768	-13456	-22416	-168	-3713	3253	-16080	-2888	-27152	1425	-3514	1723	-17288	1096	24200	2076	-820	813	121	50	1
-11876	-3428	13456	7	1385	303	-18984	-4096	-1304	253	2209	535	-17824	-232	5136	-138	1151	79	-32768	-22024	-32768	-1829	-2532	1796	-9528	-1840	-22264	-50	-1684	849	-18936	2312	18536	3058	1273	1041	142	53	1
-11884	-3128	13592	4	1965	346	-20696	-2432	-2224	-426	2321	622	-18072	504	5096	-202	1181	49	-32768	-30016	-32768	-1818	-452	726	-5432	-5736	-25976	-1855	332	86	-16872	9136	16272	1790	539	729	129	117	1
-11008	-2572	13900	-77	2657	334	-20200	-2208	-688	-1104	2426	733	-21208	-736	4632	-859	637	-135	-32768	-29328	-30496	-678	1539	560	-5544	-10064	-29600	-2643	1929	-809	-11160	13200	11632	499	965	351	90	139	1
-10268	-2320	14804	-307	3560	164	-21208	-1624	360	-1229	2606	877	-20472	-1704	5720	-1335	-17	136	-32768	-19592	-17080	-646	2191	-376	-7344	-12336	-28488	-2188	3188	-1066	-8168	9448	14864	-681	954	-66	121	219	1
-8840	-2988	14604	-453	4669	-52	-23272	944	2312	-1349	2702	896	-21176	2832	10408	-1498	-1167	242	32767	19160	32767	-105	-1261	-663	-32768	-4992	32767	7222	875	-1008	-776	8208	-15224	-710	2460	-80	112	152	1
-6236	-4892	17168	-434	6351	-333	-26448	560	4312	-2041	2647	926	-21496	3704	11856	-1423	-1408	251	-32768	-27872	-10152	-689	4586	-5080	424	16288	-6552	222	1859	1209	-25944	-4632	-4360	-1505	2585	-165	140	123	1
-7132	-5012	15624	-484	6725	-338	-27144	-3816	9232	-2729	2504	1138	-15184	-152	18960	-2580	-619	822	-19144	9240	10472	-1100	3792	-4002	-24888	13848	7888	-2948	2344	-1349	-32768	9640	32767	-2700	-1787	-289	118	76	1
-32768	-11480	5860	-1011	8401	813	-19016	-12648	-5128	-2335	3080	1165	-10976	-4008	4216	-2553	-354	704	-32768	32767	26568	-2758	2504	-1787	-32440	-3016	-19344	-4892	2413	-1334	-18736	-2536	8496	-1815	3073	403	155	118	1
-32768	-8508	10932	-643	7452	1775	-24968	-7032	-13024	-576	3527	1063	-19336	-5120	-8384	-2194	384	197	-10320	-3480	16920	-866	554	-814	-18640	-12944	-8920	-4244	1981	-1529	-24240	-8664	-21064	-2266	2113	316	193	126	1
-31532	-19072	20272	-800	7287	2311	-32768	-7248	-2200	-1598	2813	947	-32768	-2800	-13008	-1339	-222	-405	-14880	3104	9960	-219	-26	-402	-13960	-11728	-14432	-2176	2257	-648	-6448	-12816	-17328	380	1286	18	107	191	1
-25968	-15092	31608	-1305	6247	2675	-28440	-8224	-208	-2061	2042	687	-32768	-3240	-9856	281	-2097	-1028	-13664	3808	9952	-58	-159	-232	-8000	-8504	-11184	708	1842	199	-7432	-2944	-6528	1479	974	-126	141	81	1
-32768	-12328	23712	-2931	3486	1456	-14072	-6344	-30288	1108	1566	724	-29592	-3904	-8096	1681	-3211	-618	-13264	5384	9928	154	-124	-72	-17664	-5792	-11040	2154	1726	298	-15488	9152	-8296	1407	1785	316	102	22	1
-29424	-20444	25740	-1833	-3236	346	-15520	2256	-13568	1017	1281	528	-30232	6944	-11536	1950	-3014	-639	-12736	3824	10040	178	-24	-33	-21760	-88	-7704	2842	1455	222	-20904	5088	-5944	1214	1629	411	28	105	1
-4988	-14328	18748	-465	-4862	278	-16864	-1096	-4120	-1564	-396	-52	-30000	11232	-13560	747	-2450	-786	-12584	4704	9968	217	12	-44	-18656	6640	-3528	1170	1131	102	-20928	752	-1392	897	1147	-245	163	127	1
-780	-8020	11696	213	-4857	390	-9408	-2368	-5552	-869	-1749	-522	-26008	7376	-14848	-325	-2582	-916	-12736	4672	9792	97	29	-71	-15752	3504	-3792	-533	812	36	-17296	3440	-1824	669	1474	-483	137	154	1
-8372	-4740	9220	178	-5073	-194	-6944	2352	-8920	255	-2395	-859	-19120	4336	-13288	-822	-2966	-1009	-12816	5096	9624	-8	108	-57	-15608	1024	-4728	-1425	719	-163	-12968	4512	-600	338	1193	-397	50	120	1
-9620	-5440	9776	49	-5636	-972	-2744	2648	-7280	1010	-3098	-1083	-13280	2968	-11136	-855	-3093	-974	-12968	5840	9136	-84	152	-84	-16728	256	-5096	-1051	623	-168	-13592	6392	-1104	503	1340	-426	35	111	1
-9808	-5276	10768	134	-5890	-1382	-5808	280	-7432	1129	-3905	-1305	-9296	-176	-10048	-242	-2737	-965	-12952	6024	8952	-86	114	-164	-15920	-336	-5904	176	698	-18	-15904	5488	-1264	331	1593	-453	135	118	1
-12236	-2268	9688	44	-6034	-1444	-10520	1248	-6704	1247	-4549	-1389	-10448	1208	-11440	407	-2385	-927	-12768	5104	8816	27	72	-240	-15760	88	-4864	1139	841	55	-16224	3024	-1184	-33	2000	-347	251	129	1
-14404	208	9932	-507	-6089	-1298	-11976	1496	-7336	1455	-4964	-1513	-10048	3664	-11872	875	-2365	-886	-13016	4512	9536	102	74	-308	-15864	1304	-3872	1192	840	39	-15256	944	-624	-85	2115	-351	219	130	1
-17436	856	11568	-1358	-6043	-1173	-11984	2688	-9680	1317	-5400	-1669	-7768	4640	-11976	959	-2263	-652	-13184	4544	9296	42	168	-298	-16360	1016	-4336	615	844	-59	-14384	1104	768	208	2196	-314	104	134	1
-21156	-1396	13104	-2176	-5959	-1154	-13664	2992	-10920	761	-5850	-1891	-5984	5640	-11144	750	-2027	-454	-13264	3784	9552	-23	222	-254	-15808	760	-4680	156	808	-134	-14608	2016	2288	843	2618	-235	115	136	1
-26272	-4812	13448	-2474	-5817	-1390	-15960	3032	-10336	117	-6102	-2126	-4552	6848	-11112	776	-1680	-292	-13528	3832	9408	-25	244	-258	-16176	-56	-5504	79	845	-172	-15592	2520	2656	1391	2965	-259	65	127	1
-31840	-9440	14712	-2178	-5701	-2089	-17408	1824	-12200	-224	-6136	-2339	-3520	7440	-10800	540	-1355	-141	-13264	4576	9288	31	279	-323	-16328	-1488	-6208	393	847	-143	-16608	2672	392	1769	2789	-323	73	127	1
-32768	-15192	13320	-1029	-5633	-3026	-23344	4480	-14968	449	-5976	-2795	-3104	2936	-6048	624	-1169	-142	-13352	4080	9648	112	318	-294	-16648	-1336	-3920	756	909	-147	-16552	2704	-4520	1242	2373	-233	62	129	1
-32768	1264	12228	-414	-5091	-4331	-25976	-3880	-16160	496	-5851	-2795	-6040	752	-56	1182	-1641	-390	-13504	4432	9912	182	441	-252	-16840	-1000	-3192	788	935	-147	-16992	4752	-5472	-224	1897	-204	71	152	1
-32768	3004	3700	-550	-4437	-4636	-24256	-3264	-16000	1625	-5162	-2146	-13560	-2000	6000	1266	-2130	-256	-13040	3056	10816	-4	663	-385	-16376	1520	-1512	135	1314	-365	-17552	5384	4016	-611	1582	-225	97	157	1
-32768	2604	-12412	588	-3996	-3357	-20048	-7040	-17880	3780	-3628	-1071	-20968	-8408	24312	638	-2426	-1364	-13672	5192	10984	-28	872	-411	-17672	2656	-2016	-423	1550	-595	-17752	4280	10056	244	1409	-190	99	146	1
-32768	6628	-32768	2532	-2590	-1780	-6816	112	-27000	5423	-1688	-406	-12944	-6112	22656	2062	60	-1721	-14344	5168	10568	-85	1187	-640	-18224	-88	-2520	-396	1770	-690	-17752	888	7872	1065	1277	-95	32	140	1
-32768	32767	-32768	947	-987	-834	-4440	16040	-26272	2900	109	-230	-12592	-4200	26008	1961	-1	33	-14088	4888	12000	-99	1567	-825	-18688	-976	-2200	154	2134	-729	-17736	1264	3864	1116	1065	-108	143	127	1
-32768	23164	-32768	-1644	1278	-553	-3720	4448	-22128	-985	2240	252	-18872	3008	15744	907	675	819	-13512	5240	13304	-21	2195	-988	-21552	-1104	-2568	355	2417	-872	-20176	4864	1488	1212	815	-170	160	120	1
-32768	1260	-18780	319	2530	774	-6360	-1952	-26448	-1522	3676	611	-13056	3280	3368	1028	724	111	-12552	5432	13424	71	2894	-1232	-22856	-2856	-1656	312	2583	-936	-20720	3848	2856	1506	393	-164	146	125	1
-32768	-32768	32767	883	1798	2939	-32768	-2144	32767	-5728	1783	1228	-3264	3032	-6408	1118	2042	320	-12528	5064	15160	252	3778	-1440	-23640	-3928	-1800	335	2761	-954	-19480	2656	6248	1841	-136	-306	200	119	1
32767	-32768	-22664	1272	5264	3240	-26536	-704	-20368	450	2216	-786	-28944	8672	10864	-1430	3165	653	-11984	8168	14176	620	5531	-1645	-28432	-4144	2760	677	2803	-1078	-26136	1912	13328	2106	-1408	-419	194	109	1
-17428	-13592	15308	1797	5279	-1104	6200	-184	2856	383	2691	196	-29488	-8456	13280	293	1337	-195	-18680	10640	14664	1076	7019	-2172	-29864	-6088	5384	1311	2860	-847	-19200	-416	20640	2575	-2608	-544	197	79	1
-32768	10560	32767	-286	2730	730	-32768	-3624	-30952	4075	3917	347	-22880	-19096	2384	2542	483	-867	-31752	12272	11560	1120	7415	-2951	-32768	9632	2480	1570	3238	-908	-19408	2496	8080	1804	-1073	-182	83	93	1
-17308	6680	14384	811	1167	1403	-27960	-3592	-16448	1946	3305	1379	-19064	15664	-28184	3042	1902	-859	-32768	15400	13624	1153	7186	-3794	-32768	13984	-4080	-290	3568	-1540	-29712	20768	-13936	2018	-1185	683	205	118	1
-16664	1268	13200	260	576	451	-8744	3328	-15008	3206	2481	503	-14968	12944	-23384	-2732	1728	-252	-32768	25808	14968	384	5695	-4697	-32184	5384	-2224	-73	3108	-1451	-31008	8680	-11512	-21	-2136	982	0	133	1
-13224	-1872	11228	330	338	339	-9392	17352	-16736	-909	1617	-467	-13096	8032	-22288	-2863	1786	-142	-5688	25656	32767	1180	5481	-4905	-23632	2808	-9328	-1518	3012	-959	-32680	-3344	-3720	-2315	-3555	654	254	106	1
-12320	-2484	11556	63	304	-75	-13984	3872	-12344	-3643	615	-471	-17568	464	-13104	-224	2016	55	-32768	23128	21512	529	2533	-2581	-19384	-4976	-28488	-3140	1656	-652	-32768	-3312	-7040	-2155	-3462	841	252	135	1
-12032	-4096	10852	-223	240	-234	-24864	-13040	-7048	-3235	422	-365	-23024	6352	-8768	-878	1911	-101	-9880	19264	21688	-718	-2431	287	-18440	-560	-8880	-1275	140	-312	-32768	-8984	-7464	-1170	-3524	1085	156	115	1
-11572	-3436	11100	-263	218	-149	-17328	-9736	-2968	316	735	-201	-21888	272	-3960	-1100	1713	223	-4272	13992	16296	-970	-3016	1076	-9984	-5744	-4576	314	-621	68	-30560	-6008	-8616	338	-3291	1321	171	97	1
-11388	-4216	10556	-140	196	-186	-15152	-4656	-5752	1585	819	-105	-15408	-4448	-4448	-608	1476	426	-5344	7728	11576	-758	-3435	1508	-8224	-6352	-9448	1613	-1656	801	-25328	-2088	-7952	1347	-3128	1532	206	90	1
-11544	-4916	10460	29	154	-183	-13984	-4656	-4656	1150	556	-7	-13992	-6392	-3168	3	1560	417	-10520	4624	10960	-302	-4255	2117	-5112	-2440	-8816	1937	-2756	1136	-19264	640	-7792	883	-3022	1501	235	133	1
-11388	-5112	10172	79	122	-74	-13112	-2704	-3032	312	413	27	-14032	-5208	-3776	217	1567	85	-11384	4752	10176	159	-4970	2652	-4976	0	-5696	1301	-3396	1418	-16296	-440	-7336	132	-2746	1251	96	177	1
-11404	-4608	10276	62	85	21	-15120	-4096	-4232	-262	421	-18	-16824	-1512	-1984	301	1366	104	-12992	3408	9792	400	-5498	2931	-7856	-2272	-6048	546	-4060	1650	-14768	-3424	-8616	53	-2604	1195	86	165	1
-11488	-4172	10500	-7	113	91	-17752	-3560	-2920	-747	357	-108	-17136	-656	-1632	274	1324	129	-13208	2368	9256	661	-5699	3108	-10152	3288	-4856	73	-4615	1826	-11968	-2448	-10344	-1336	-1920	995	39	145	1
-11500	-3492	10688	-31	155	125	-17472	-2080	-4880	-969	254	-298	-9208	-2016	3360	-614	1493	681	-14848	2648	10560	837	-5669	3024	-11728	-4704	-6416	435	-5079	2102	-10280	-2528	-10800	-1877	-1602	790	53	160	1
-11576	-3592	10496	-3	193	95	-15112	-4896	-3528	-684	467	-22	-16968	-1304	2560	-495	1500	-192	-19408	1920	11800	1090	-5622	2956	-12208	-4240	-8272	140	-5454	2154	-7112	-2960	-11184	-1539	-1460	661	202	160	1
-11488	-4584	10024	62	157	144	-14352	-5448	-3480	-636	545	62	-16224	-1784	328	-188	2172	175	-21152	4024	12808	1292	-5523	3050	-13224	-6104	-9816	96	-5767	2287	-4600	-2656	-11712	-1469	-1438	572	98	133	1
-11544	-4436	10280	93	122	249	-14808	-4504	-2304	-373	609	106	-16616	1392	-2768	-741	2185	484	-22296	4088	14968	1500	-5084	3149	-17000	-7896	-11128	476	-6266	2434	-1504	-3248	-11496	-1703	-1384	316	36	147	1
-11660	-3164	10752	92	143	299	-15616	-1440	-2720	-472	762	122	-18408	352	-2008	-582	1679	-52	-32768	2568	15904	2152	-4365	3369	-19040	-9840	-14968	865	-6613	2718	-888	-2392	-9864	-1824	-531	-16	125	168	1
-11720	-2584	10880	52	224	222	-16424	-1728	-1984	-879	741	139	-19464	-1792	416	-390	1594	-4	-32768	-752	9856	2636	-4556	3917	-21544	-9520	-20600	946	-6375	2866	-2304	-4152	-6280	-1858	-432	-153	102	237	1
-11512	-3164	10988	12	330	152	-15984	-4872	24	-822	942	220	-17968	-3440	3352	-229	1441	196	-32768	-5472	3232	2597	-4420	3796	-25184	-8472	-25184	1535	-5837	2728	-5328	-3112	592	-1578	-793	172	100	107	1
-11092	-5264	11460	-185	494	192	-14952	-8696	1560	-223	1291	319	-17160	-4400	5824	100	1265	258	-32768	-12064	-6224	2086	-4117	3551	-25016	-9032	-25984	1518	-4912	2278	-12080	3320	14760	56	-1398	378	93	116	1
-11712	-2452	12400	-19	850	316	-15528	-6104	696	368	1693	512	-18480	-5568	7168	190	1149	178	-32768	-11296	-23120	157	-3475	3104	-23512	-9304	-26224	1519	-4710	2121	-21944	2640	27424	2100	-1157	827	114	71	1
-11556	-4708	12964	71	1193	426	-17208	-4552	-344	218	2011	632	-20256	-1608	7424	-43	1016	154	-32768	-17944	-32768	-2225	-2105	1661	-13016	-2384	-25392	736	-3167	1289	-20792	3784	23000	2559	1193	1042	156	51	1
-11740	-2840	13720	104	1675	492	-19120	-1776	-1976	-451	2286	672	-18888	1240	6656	-199	945	38	-32768	-32768	-32768	-2156	155	1015	-4744	-6400	-24496	-2352	410	-229	-16576	10936	18512	1395	461	434	121	87	1
-11996	-2020	14320	54	2288	503	-19808	-1576	-1752	-948	2480	814	-18272	912	5680	-492	763	87	-32768	-29736	-29416	-436	2348	861	-6624	-7392	-27840	-2914	2335	-1003	-11888	11856	11312	-154	904	-168	95	157	1
-10256	-2268	15536	-49	3099	452	-21320	-1408	-1800	-1001	2645	940	-19464	1176	5696	-1013	308	325	16128	6448	32767	-1242	2530	-1590	-32024	-2392	29936	2007	2194	-1065	-8856	10936	392	-1434	1591	-244	91	217	1
-9780	-2404	17144	-307	4212	293	-24936	-240	240	-1331	2693	1015	-22504	784	9408	-1174	-426	367	-6992	-6880	120	-547	3924	-3633	-19448	384	-15632	-1238	1188	642	-22568	2832	3168	-2103	1286	224	95	179	1
-6800	-5596	17540	-330	5702	122	-29896	-2048	5320	-1747	2708	1161	-23408	360	10888	-1171	-564	344	-15872	7800	14712	-621	3521	-1787	-6000	-9840	224	-1500	1998	-799	-17864	3552	11736	-802	-540	704	138	115	1
-7928	-7684	16940	-506	7787	298	-29728	-3144	11512	-2314	2669	1357	-17696	-2808	18248	-1965	-867	874	-32768	12968	8240	-552	5101	-2994	-26104	4664	-3632	-926	2412	-1083	-18744	4720	21120	-1347	885	-661	198	90	1
-25704	-9076	9328	-825	8969	1170	-24240	-9688	2176	-2120	3001	1466	-13104	-5432	4520	-2167	-417	1041	-31016	-2824	3856	-1453	1147	-2756	-32768	13720	-19440	-2598	2556	-509	-30104	1512	-3216	-1018	1382	28	174	109	1
-32768	-9536	13760	-336	8326	2344	-25120	-14648	-11264	-928	3502	1617	-20144	-8256	-12272	-1527	773	264	-22584	-448	9776	-444	432	-948	-14840	-7880	-13520	-3186	2673	-1219	-20616	-7064	-19240	-627	1872	868	225	136	1
-32768	-18004	19752	260	7623	3303	-32768	-5976	-5080	-964	3003	1160	-32768	-1120	-7976	-372	-471	-442	-14888	3152	9656	-106	-49	-454	-13688	-11000	-15608	-2444	2185	-677	-8104	-7128	-13376	1262	1279	360	102	131	1
-18848	-16312	32767	125	7073	3495	-29384	-8224	9872	-1963	2122	957	-32768	3520	-8992	999	-2216	-869	-13552	1344	11168	-46	-141	-218	-10448	-13208	-12080	781	1688	144	-12424	-1848	-6568	1137	1021	56	136	71	1
-32768	2796	20804	-1928	6172	2136	-14432	-5608	-28568	983	1360	807	-29712	-3416	-6360	1336	-3091	-410	-13072	4464	9640	180	75	66	-18760	-7000	-10512	2111	1655	309	-16784	3008	-8936	1246	1891	76	103	45	1
-32768	-19400	26752	-1132	-1716	-194	-11624	1464	-17968	2116	1287	808	-29056	5008	-11112	1817	-2957	-663	-12864	3712	9752	326	44	77	-19512	-6032	-10712	2396	1576	345	-19848	3816	-6696	969	1744	-188	105	107	1
-5232	-14348	21828	230	-4465	-562	-17128	96	-2760	-895	-269	110	-28448	8912	-12920	892	-2438	-851	-12936	4616	9744	359	50	88	-18512	8952	-4160	1240	1064	273	-20136	5040	-2808	878	1333	-429	129	124	1
-1688	-8160	13120	582	-4645	-317	-11984	-1552	-4696	-1196	-1619	-229	-26664	5720	-15320	-10	-2371	-935	-12984	5448	9272	179	62	41	-15952	5360	-3864	-914	633	14	-15336	8024	-1712	508	1587	-447	217	155	1
-6116	-5200	9356	600	-4899	-436	-6280	-1944	-11016	-9	-2461	-627	-20416	3592	-14544	-378	-2828	-1009	-12944	5488	9232	24	141	19	-15816	1808	-5088	-1606	490	-198	-12288	7048	-1408	99	1503	-470	39	151	1
-9608	-4764	8892	382	-5409	-778	-2320	-216	-6496	1130	-3165	-873	-14384	2608	-13048	-449	-3055	-1001	-12792	6056	8848	-19	171	11	-16696	-480	-5032	-869	407	-157	-13952	6704	-1168	-40	1612	-520	0	106	1
-10320	-4800	10160	229	-5709	-1084	-3632	80	-8824	2144	-3823	-1112	-10288	2072	-11112	172	-2945	-1115	-12776	5736	9232	42	97	-96	-16024	-488	-4768	692	660	-14	-16328	4504	-888	-129	1794	-426	119	115	1
-13096	-3788	9376	-21	-5997	-1289	-9216	3712	-8160	1683	-4412	-1176	-10168	2336	-12760	519	-2400	-805	-12944	5120	9128	146	18	-202	-15920	1888	-3776	1508	738	74	-15464	1560	-96	-333	2205	-354	160	124	1
-15968	-2620	8688	-578	-6227	-1471	-12160	2520	-8224	1152	-5019	-1214	-9608	4136	-13152	668	-2533	-717	-12952	4736	9448	174	30	-229	-16440	1448	-3648	1145	753	13	-14760	-168	848	-168	2421	-281	132	123	1
-18592	-3852	9924	-1110	-6339	-1713	-10824	2152	-10160	744	-5486	-1451	-6672	3312	-12104	786	-2364	-535	-12936	4160	9464	108	142	-222	-16488	1208	-3752	497	712	-49	-14456	168	3048	523	2846	-231	143	123	1
-22800	-5404	11780	-1401	-6355	-1846	-12144	1848	-10792	114	-5884	-1795	-4840	5144	-12176	725	-1903	-361	-12904	4424	9664	59	194	-178	-15968	1144	-4008	91	704	-125	-15112	1328	4320	1584	2921	-276	154	118	1
-27792	-6988	12824	-1524	-6418	-2169	-14280	136	-11800	-56	-6081	-2176	-3704	7000	-12232	616	-1470	-195	-13320	4952	9184	93	207	-197	-16064	-432	-5072	199	748	-125	-15896	1096	736	2162	2668	-283	116	122	1
-32224	-12040	13596	-1266	-6462	-2687	-17272	-816	-11632	321	-6128	-2378	-3024	7168	-10552	390	-1174	-91	-13144	4672	9144	166	239	-222	-16256	-1968	-4232	639	823	-91	-16328	1224	-5280	1433	2265	-179	74	122	1
-32768	-12864	12512	-301	-6141	-3192	-23840	1416	-14720	1784	-6011	-2791	-3160	2448	-5192	609	-1184	-200	-13144	4552	9624	271	301	-191	-16488	-808	-2296	960	998	-72	-16808	4352	-6144	-30	1882	-134	61	132	1
-32768	1160	11492	-539	-5135	-4167	-27824	-3808	-18016	1842	-5930	-2487	-3264	1552	-5088	708	-1225	-241	-12584	2288	11120	280	373	-261	-15952	2200	-344	723	1227	-143	-16984	8296	2120	-254	1630	-155	46	139	1
-32768	1284	1576	-868	-4557	-4084	-25032	992	-19648	2169	-5181	-1736	-14728	-1984	8040	1549	-2245	-470	-13336	4976	10168	144	599	-252	-16448	4336	-240	76	1467	-428	-17672	7744	7328	300	1378	-205	50	142	1
-32768	-480	-17156	519	-4085	-2992	-18736	-2440	-22760	3260	-3533	-989	-26528	-9176	25032	357	-2839	-1677	-13496	6576	10608	55	845	-405	-18288	4256	-640	-600	1708	-681	-18400	5416	7456	462	1251	-176	146	134	1
-32768	9672	-32768	2019	-2515	-1181	-5944	4960	-26592	3370	-1677	-603	-12936	-2752	23656	2532	-76	-1643	-13504	6112	10456	42	888	-451	-18432	-160	-1848	-530	1958	-708	-17888	2592	5936	215	1144	-66	33	139	1
-32768	32767	-32768	-317	-717	-272	-4008	11736	-25000	278	277	-422	-13448	-400	26384	832	157	145	-13864	4848	12600	-27	1561	-791	-19072	-1248	-2344	58	2348	-786	-18112	2688	4112	606	972	-108	184	126	1
-32768	16308	-32768	-1842	1259	394	-5048	952	-24376	-1474	2344	246	-18552	3104	13448	-221	801	818	-13712	5440	12936	13	2182	-972	-21352	-1352	-2568	234	2620	-912	-19120	1600	2488	1321	755	-113	163	129	1
-26408	8008	32767	1514	2518	3521	-16960	-4272	7176	-4093	2860	763	-10904	3576	-3640	636	1135	284	-12408	4944	15088	112	2965	-1165	-22624	-3440	-2312	295	2774	-932	-19176	1656	3360	1727	363	-140	127	145	1
32767	-32768	17020	-269	2879	1646	-32768	-12704	32767	-2805	621	-685	-22672	6928	7736	-1252	1904	116	-11936	6688	15952	241	4026	-1260	-26776	-2928	1752	428	2902	-1117	-23696	3040	6760	1607	-58	-168	183	157	1
-32768	3756	-4508	1265	4494	869	-6088	-13928	-12896	1338	2663	704	-14984	9520	11896	267	2271	411	-11120	7408	15712	651	5736	-1624	-28240	-7216	4672	280	3022	-1073	-23832	1792	16064	1889	-1511	-422	198	106	1
-32768	28548	25408	894	6032	1139	-18968	-3848	-9192	293	3089	89	-14888	-25752	11184	1349	1190	-147	-16856	10080	16960	841	7783	-1882	-32080	-4472	7136	1155	3165	-1007	-22496	672	24200	2535	-3661	-540	171	72	1
-15572	2968	16300	-964	4349	761	-32200	8096	-11656	3411	3238	1331	-16528	5192	-9176	3038	1627	-468	-32768	15216	9408	995	7932	-2944	-32144	8664	896	536	3527	-1061	-21256	2880	5016	1574	-1403	138	113	143	1
-32768	1016	13744	596	1187	1470	-16952	-11824	-23888	1292	3383	887	-23216	15000	-28584	838	1620	-725	-32768	19136	9872	642	7607	-3831	-31224	9592	-1304	239	3634	-1065	-27608	15744	-15152	1657	-1663	270	0	114	1
-20828	-136	7840	473	314	691	-10520	-4104	-17768	2187	2181	22	-13736	560	-20968	-2440	1383	-192	-32768	20880	23312	320	6252	-4143	-30208	1960	-200	347	3209	-1154	-30896	5752	-8880	-136	-2360	622	44	135	1
-14204	-1496	11408	380	34	516	-18160	11224	-15680	1868	1666	-77	-14040	-5968	-14408	-1013	1864	88	-5840	10800	32352	2142	6016	-3972	-26312	2248	-8800	-475	2867	-775	-32768	-3616	-4120	-1115	-3480	497	253	121	1
-12792	-1268	11148	106	151	46	-17856	11440	-12520	-3164	812	-204	-18536	3208	-9872	-372	1833	-13	-32768	25872	16480	1574	1491	-1544	-20664	-1808	-20984	-1932	1508	-684	-32768	-2672	-8000	-1480	-3580	916	213	134	1
-12552	-2932	10436	-124	173	-115	-17848	-6448	-8120	-3978	305	-449	-18984	4696	-6896	-890	1768	217	-8120	17928	22744	-105	-3149	392	-15816	-192	-6256	-503	-56	-211	-32768	-6344	-7968	-1146	-3719	1094	216	84	1
-12184	-2768	10584	-227	177	-111	-16400	-13856	-3184	-1340	570	-294	-19752	-2088	-4984	-1032	1648	489	-7856	15944	20552	-170	-3269	484	-9352	-4432	-5360	835	-965	360	-29816	-3672	-8432	409	-3464	1186	254	76	1
-12008	-4592	9952	-123	131	-73	-15320	-8440	-3800	1302	801	-51	-16360	-6432	-3328	-373	1551	360	-5976	7696	10704	-207	-3754	969	-7600	-4544	-8656	1734	-2000	871	-24016	-1168	-7576	1386	-3171	1315	187	83	1
-12084	-4044	9844	29	109	-45	-14368	-6584	-5048	2208	755	154	-15712	-6680	-3192	-232	1535	348	-11520	5888	10592	-39	-4681	1835	-4464	-1368	-8384	1569	-3087	1100	-18176	800	-8312	923	-2944	1323	140	163	1
-11960	-4896	9556	176	46	-1	-14320	-3120	-3640	1647	629	253	-14432	-4560	-3336	746	1546	186	-11848	6552	9744	1	-5338	2495	-5496	-720	-6856	1102	-3631	1227	-14832	-424	-7792	309	-2706	1136	107	171	1
-12152	-4004	9660	166	12	84	-15288	56	-3560	363	520	72	-16192	-1208	-2144	752	1380	167	-12288	5080	8608	-35	-5741	2825	-8760	-2400	-5512	602	-4386	1429	-11904	-1208	-8944	-221	-2214	1114	77	162	1
-12068	-3328	9988	72	49	91	-16344	-2032	-3648	-777	440	1	-17176	2360	88	507	1443	424	-12384	3336	8680	79	-5727	2937	-9008	-3424	-4864	275	-4859	1661	-11056	-2496	-10936	-1395	-1868	898	127	156	1
-11912	-3384	10108	-30	116	125	-16640	-3464	-1952	-1068	397	-89	-16736	2864	872	545	1262	473	-15272	2400	9864	455	-5570	2983	-9704	-3304	-6400	248	-5201	1864	-8048	-2272	-11088	-1558	-1499	680	65	182	1
-11944	-3484	9916	-34	150	157	-15160	-4544	-2624	-988	470	-86	-13944	1176	3672	-632	1538	303	-20120	4120	10808	895	-5542	3023	-11216	-4096	-7440	401	-5575	2029	-5464	-2552	-10520	-1185	-1206	519	153	162	1
-12080	-3648	9364	-12	152	207	-13944	-6272	-3264	-592	602	80	-16560	-1400	808	-424	1993	391	-22512	6328	12088	1113	-5688	3045	-12912	-4320	-9280	470	-5834	2249	-3232	-2968	-11128	-1249	-1142	373	104	143	1
-12208	-3932	9636	52	144	306	-14712	-4912	-2672	-165	736	143	-16216	-1512	-1760	-806	2240	459	-23704	5720	14640	1411	-5336	3139	-17296	-6112	-10864	605	-6341	2536	-720	-3248	-10664	-1506	-1057	125	44	140	1
-12072	-3264	9916	80	177	369	-16288	-1536	-2608	-368	799	123	-17960	360	-1520	-691	2097	200	-32768	3936	13432	2005	-4592	3464	-20072	-8760	-14776	467	-6659	2789	-1472	-3528	-10056	-1918	-343	-123	100	163	1
-12132	-2816	10036	59	269	327	-16208	-1208	-1768	-935	850	139	-19240	-760	1224	-200	1652	-65	-32768	1568	8952	2125	-4527	4164	-23744	-9352	-21232	277	-6430	2625	-2256	-3936	-7088	-2371	-320	-203	92	208	1
-12204	-2420	10600	32	400	274	-15000	-4304	1016	-946	1081	210	-17880	-3640	3800	-96	1340	104	-32768	-6552	-23536	158	-3263	2688	-29600	-4768	-23832	1368	-5774	2358	-7456	-1464	4416	-1941	-1070	130	114	140	1
-12232	-3296	10800	11	539	281	-14136	-9248	488	-216	1484	369	-16160	-6496	5872	67	1275	277	-32768	-8024	-3872	961	-4750	4597	-21208	-11264	-29160	748	-4516	1456	-16672	7072	20168	-105	-2118	465	91	88	1
-11392	-1900	13448	176	863	541	-16416	-6960	104	529	1840	527	-17216	-5784	5928	101	1307	260	-32768	-7712	-31072	-994	-3335	2526	-10880	2248	-20280	816	-2956	877	-25864	1752	26656	1740	-159	1204	120	46	1
-11960	-2992	13632	110	1276	576	-19920	-2504	-688	117	2086	649	-21440	464	5400	-38	1261	115	-32768	-22952	-32768	-2676	-1925	608	-5144	-3224	-29496	-1693	-1117	565	-17728	2832	21904	1584	1261	1063	139	119	1
-12784	-1572	13288	106	1841	608	-19744	-32	-2272	-743	2257	704	-20400	2416	5288	-212	964	128	-14672	-26656	-32768	-435	2203	-418	-9808	-4816	-23184	-2091	1145	-348	-18152	4776	20856	1338	1097	913	115	108	1
-13048	-1680	13888	41	2519	538	-19560	-2312	-2560	-1056	2472	858	-18176	-200	4824	-619	649	229	-11136	3320	32767	-1484	4577	-1807	-30672	608	32767	3726	2677	-671	-16408	12640	9008	40	761	-223	100	175	1
-10160	-2052	17004	-30	3411	521	-23312	-3288	-952	-911	2590	1066	-20752	-2488	6136	-1031	307	237	-32768	-1576	-23640	-406	4532	-3472	-23240	5104	-11216	-1940	2202	-380	-29472	4712	15440	-1802	694	373	103	228	1
-9336	-4460	16456	-191	4637	415	-28000	-1904	4688	-1080	2652	1204	-28928	-2048	17280	-1200	-934	109	-32768	18024	4432	79	5258	-1966	-24040	-14792	-10688	-2401	2646	-969	-32592	9240	32767	-133	-2212	895	114	104	1
-5804	-6740	19436	-140	6635	627	-30856	-5272	9520	-1600	2741	1460	-21528	-7976	15656	-947	-2273	169	-32768	-8736	6904	-1293	1096	-1563	-26968	-10712	-20192	-2418	2935	-963	-10864	-4600	-8248	86	3462	-1004	180	73	1
-6212	-6668	19540	-150	7069	683	-32480	-10784	11840	-1829	2768	1714	-16192	-5936	8672	-2038	-358	1229	-17864	7928	9472	-319	388	-493	-17016	-2528	-11168	-1387	2910	-834	-17664	-5200	-32768	-2321	2012	-470	175	211	1
-32768	-6932	12196	145	8697	2839	-25320	-16016	-11440	-408	3281	1548	-26392	-6608	2696	-905	-334	285	-17104	8120	7496	-101	40	-277	-11688	3624	-14128	-899	2536	-598	-2984	-5512	-14560	377	1007	287	217	149	1
-32768	-19080	14436	1087	7161	3685	-29976	-2240	-6848	-1190	3059	1204	-30664	5192	-11088	-224	-743	-414	-13880	4992	9520	-69	-162	-178	-10584	-8136	-14128	-912	1425	-59	-9072	3056	-10440	1770	1226	566	124	20	1
-18984	-18704	32767	996	6514	3837	-28368	-6304	3608	-2151	2390	532	-32768	12128	-6960	457	-2061	-705	-12736	2808	11248	-20	-183	-106	-19096	-9128	-10752	293	1294	-35	-19424	7584	-9552	1649	1384	627	170	1	1
-32768	-504	20656	-953	5366	1816	-17288	-3264	-23712	541	1617	323	-31992	3360	-3776	95	-2693	-593	-12872	5576	9648	96	-8	42	-21824	-3616	-8080	1587	1200	49	-25920	3160	-5880	723	1534	169	132	102	1
-32768	-16408	26888	-1197	-1450	-955	-14272	3696	-18456	1498	1402	351	-29032	6176	-9256	540	-2572	-723	-12624	3768	10480	197	-32	29	-17352	1296	-4536	1545	997	304	-20928	-248	24	328	1538	-616	101	162	1
-5896	-13456	21492	-485	-3763	-1338	-16520	2872	-2584	-2189	-51	-277	-27696	9488	-12648	-72	-2074	-918	-12472	4144	10416	257	25	99	-16824	632	-3728	659	736	261	-14840	3280	-648	30	1760	-688	0	171	1
-2332	-6540	13700	-205	-3989	-1101	-11688	-3360	-4272	-1995	-1335	-817	-25984	6720	-14232	-696	-2371	-1118	-12656	5568	9680	189	101	127	-16344	4096	-3136	-183	626	64	-12712	4992	-712	-189	1577	-578	141	146	1
-6956	-2896	10880	-122	-4309	-1126	-7144	-2416	-9144	347	-2067	-1295	-25256	6176	-13752	-763	-2465	-1155	-12584	6496	9384	87	106	62	-16504	3672	-3576	-753	458	-85	-13648	6040	-80	39	1558	-474	91	101	1
-10192	-1372	10980	-151	-4911	-1402	-4344	2208	-6608	1565	-2626	-1339	-15888	864	-11688	-737	-2798	-1301	-12680	6384	8952	82	103	48	-16320	1616	-3720	-467	496	-105	-15312	6008	-32	-145	1714	-337	150	107	1
-10500	-920	12000	-78	-5322	-1429	-6688	2184	-7080	1859	-3352	-1389	-12320	-48	-11000	-139	-2720	-1224	-12480	5952	9176	30	-50	-173	-16536	1256	-3576	-363	504	-101	-15344	3824	376	-312	1791	-252	139	102	1
-13020	928	11004	-272	-5687	-1337	-11536	4432	-7584	1882	-4017	-1310	-11760	1632	-11976	373	-2717	-930	-12368	5352	9288	45	-134	-259	-16064	528	-2712	676	638	-16	-14272	1848	1200	-189	2012	-277	70	122	1
-14252	1620	10508	-665	-5949	-1325	-12752	4080	-8096	1524	-4637	-1291	-10800	3376	-12672	733	-2741	-845	-12368	5376	10160	26	-123	-276	-16152	56	-2712	693	734	-60	-14464	880	2288	40	2258	-351	118	124	1
-16780	644	11316	-1051	-6004	-1354	-11448	4248	-9688	884	-5184	-1408	-8144	3672	-12160	712	-2557	-702	-12528	5136	9824	-18	-33	-265	-16680	1096	-2952	456	764	-129	-15688	1296	4632	532	2663	-367	110	144	1
-21376	-1340	12656	-1283	-6024	-1421	-12368	2824	-10360	277	-5584	-1613	-5936	4072	-11600	591	-2257	-552	-12632	5416	9840	-74	8	-248	-16272	1104	-3400	173	821	-186	-16728	2360	4624	1301	2674	-343	107	129	1
-24644	-3760	13036	-1269	-6023	-1641	-14528	976	-10568	277	-5817	-1795	-4800	4808	-11112	671	-1982	-384	-12432	4816	9944	-70	96	-281	-16472	-192	-3704	139	861	-200	-16728	2064	1160	1908	2424	-307	110	127	1
-27016	-7580	13172	-910	-5812	-1971	-17368	-112	-9896	613	-5916	-1946	-3672	5272	-10008	766	-1549	-221	-12584	5048	10272	-30	184	-283	-16576	-1728	-3720	245	938	-224	-16328	1328	-3800	1382	2149	-288	113	129	1
-31856	-5820	13680	-282	-5252	-2502	-20688	792	-14208	1801	-5900	-2202	-3264	3120	-6296	1104	-1260	-234	-13168	4496	10440	23	297	-255	-17080	-1864	-3928	465	1060	-199	-16104	2040	-4912	41	1993	-205	79	131	1
-32768	3032	11052	-777	-4750	-3316	-24528	-1536	-18032	2023	-5670	-2040	-4920	3400	-1576	1789	-1499	-317	-13048	3992	10448	55	394	-235	-16520	-408	-1704	470	1145	-225	-16224	4144	-88	-496	1821	-203	85	141	1
-32768	4036	3428	-1144	-4611	-3276	-23832	-2640	-20376	2268	-5149	-1479	-10840	336	7176	2022	-1919	-405	-12792	4776	10568	100	485	-216	-16360	2992	-1888	87	1397	-379	-17344	6552	4088	38	1603	-248	3	141	1
-32768	8328	-10804	-679	-4162	-2562	-20400	-1488	-20352	2478	-3879	-991	-21864	-3704	19456	1095	-2521	-644	-12424	8040	14312	146	626	-357	-18464	2912	-1576	-377	1516	-555	-18624	5968	4920	255	1375	-233	75	138	1
-32768	9640	-27984	860	-2702	-1644	-9176	1184	-25680	2205	-2337	-364	-13424	-1672	18232	1071	-989	-1186	-13568	5464	12576	-52	1048	-600	-19512	-1568	-1432	-236	1796	-695	-19872	3960	4240	-119	1225	-151	55	151	1
-32768	23592	-32768	878	-1243	-320	-4840	8984	-27240	222	-657	-420	-6920	-80	24640	285	382	-307	-13856	4624	13008	-39	1496	-761	-19624	-1432	-1656	90	2137	-778	-19528	2992	4968	47	975	-225	62	144	1
-32768	27028	-32768	-1148	474	252	-4424	1368	-24536	-1348	1405	19	-17304	-888	14216	-821	956	617	-13800	5888	13360	-20	2089	-892	-21200	-592	-2280	-39	2365	-925	-19896	1216	4576	768	704	-266	188	130	1
-32768	11300	-23628	-695	1804	1183	-7744	-2232	-25888	-900	3161	582	-13384	2056	4816	19	964	537	-12520	6992	13848	34	2774	-1108	-22144	-2416	-2080	-91	2534	-1016	-19568	-736	4480	1288	400	-185	169	116	1
16696	-5640	32767	1012	1223	1911	-32768	-360	32767	-5604	785	1002	-7544	5568	-6696	247	1849	473	-11112	6416	16160	155	3558	-1379	-24304	-3256	-1568	161	2687	-1030	-20656	784	6536	1549	-97	-220	172	138	1
15368	-16120	-14500	1660	4713	3252	-19864	-5816	-17600	-796	2076	-531	-32768	6120	20888	-1439	2549	173	-12024	9504	14712	402	5123	-1665	-27848	-4864	2952	406	2844	-1094	-25944	1576	12568	1679	-925	-342	253	124	1
-9256	-22212	11128	1197	4710	-966	2336	6176	1528	-7	2422	283	-15248	-3016	6272	44	1702	443	-13384	7728	17336	902	6700	-2181	-29672	-5824	6632	1220	2955	-894	-23088	904	23296	2793	-3756	-636	246	85	1
-32768	32767	22072	325	5070	614	-26776	-5840	-3488	195	2380	-144	-16656	-21336	5360	1386	1239	-215	-30560	11304	10936	855	7627	-2815	-29776	1888	-1112	1348	3262	-905	-16736	-1872	12840	1904	-1665	-222	100	129	1
-10180	-8068	11204	-895	4418	762	-29912	1368	-3168	2007	2501	1120	-15936	14016	-8448	1915	1792	-218	-29312	9096	11304	1168	7344	-3632	-30080	10872	-24	64	3552	-1187	-22712	8656	-6208	1617	-1675	17	119	106	1
-32768	-10596	5836	1104	557	1662	-13304	-20760	-23480	647	2802	477	-22376	6064	-25840	-757	1747	-499	-32768	22696	9064	664	6645	-4269	-32688	5928	-8576	-396	3091	-1275	-24064	17272	-11488	1407	-1617	565	16	122	1
-18852	-1372	8508	614	84	688	-12896	-3160	-16056	2733	1984	-119	-14672	-7288	-16584	-1929	1301	-317	-28736	29648	27192	634	5841	-4710	-27176	5344	-1616	106	2795	-1010	-32768	5768	-6160	-342	-2556	822	95	101	1
-14384	-1648	10580	379	97	376	-23728	11384	-14552	2164	1717	307	-17848	-2760	-12160	-260	1894	66	-32768	13488	13696	859	5189	-4508	-21760	3632	-18504	-1164	2114	-713	-32768	5080	-5864	-1370	-3192	905	253	156	1
-12860	-1436	11192	96	145	-103	-15792	9800	-9248	-2599	792	-66	-18584	6096	-8712	-168	1880	198	-26624	20808	14368	-111	-1238	-1013	-21648	1520	-13632	-2137	711	-996	-32768	816	-7928	-2095	-3455	1204	225	118	1
-12632	-2024	10336	-114	183	-212	-16968	-1864	-7968	-3889	244	-345	-18480	6064	-7896	-264	1773	243	-6968	17392	17488	-825	-3315	561	-12296	-1384	-3464	-1139	-471	-689	-32360	-3352	-8360	-1830	-3448	1309	163	122	1
-12588	-2332	10176	-234	179	-234	-16048	-10768	-4280	-2727	389	-492	-17616	-1432	-4432	-1126	1500	472	-1464	11968	12232	-1147	-3287	797	-9032	-4872	-7392	294	-1485	-9	-27760	-3248	-7600	-308	-3315	1288	253	63	1
-12272	-3856	9756	-206	139	-257	-15248	-14040	-2792	486	670	-45	-17344	-4992	-3056	-432	1455	237	-9552	8416	8984	-1122	-3928	1357	-6808	-3400	-11408	1178	-2492	385	-22160	-968	-7536	568	-2964	1364	174	102	1
-12320	-3964	9720	-193	129	-252	-13256	-8512	-4272	2457	792	136	-15048	-5056	-2392	158	1370	295	-10848	6944	9392	-800	-4821	2162	-4256	1288	-7960	1199	-3448	623	-16728	-384	-7808	208	-2645	1323	138	145	1
-12448	-3972	9444	-46	98	-188	-14648	-3816	-3912	2081	662	266	-12352	-7952	-7520	772	1350	86	-12360	6272	7752	-355	-5338	2656	-5128	392	-5952	713	-4129	812	-12848	-608	-8080	-338	-2390	1134	3	161	1
-12272	-4376	9468	67	30	-18	-15232	888	-2960	303	490	44	-14840	-1624	-3128	663	1366	134	-13392	6272	6136	-31	-5662	2882	-8992	-1728	-6200	493	-4611	1186	-11208	-464	-9376	-983	-1811	1071	108	125	1
-12320	-4148	9384	60	27	-6	-14208	-1728	-2656	-1120	300	-52	-21376	5704	2104	595	445	935	-14984	5008	6472	322	-5721	3108	-9512	-5800	-7464	186	-4948	1354	-9912	-1328	-10344	-2013	-1640	829	96	161	1
-12348	-2580	9760	-67	95	16	-15376	-3720	-1144	-1732	438	-143	-12272	1408	616	-1548	2010	378	-17096	5256	8376	656	-5710	3339	-10016	-488	-7584	338	-5267	1683	-7584	-1816	-10560	-1836	-1224	601	35	162	1
-12252	-3144	9412	-101	83	8	-14864	-5216	-3440	-1469	276	-161	-13424	312	2464	-1412	1795	284	-20288	6648	8728	971	-5621	3496	-12008	-2792	-7960	706	-5601	1907	-5864	-1928	-10376	-1815	-1011	429	146	150	1
-12332	-3288	9112	-81	46	42	-14456	-7264	-2744	-993	387	43	-14864	-1064	1528	-1333	2046	224	-22088	8216	10136	1107	-5386	3410	-14408	-3040	-9720	764	-5772	2290	-3416	-3384	-10680	-2048	-808	211	96	142	1
-12220	-3380	9280	-36	-2	81	-13736	-5656	-1568	-240	558	220	-15664	-2688	-1440	-851	2032	28	-25344	6440	13096	1459	-4587	3330	-19064	-4712	-11416	550	-6317	2618	-2904	-3752	-10672	-2060	-798	55	92	151	1
-12260	-3148	9644	-11	3	119	-16032	-2752	-1648	-253	674	192	-19528	-1528	-1040	-765	1848	-93	-32768	6800	8544	2037	-4103	3664	-21128	-7232	-18328	-188	-6352	2802	-3560	-4968	-7736	-1711	-487	-2	117	145	1
-12200	-2624	9776	-79	50	89	-15784	-1896	-480	-816	788	141	-20208	-2392	2904	-412	1454	-107	-32768	2464	5344	1768	-4240	4047	-24664	-7832	-22824	-66	-5985	2596	-5568	-4808	-2280	-1874	-560	58	71	199	1
-12036	-3096	10232	-147	138	46	-15408	-4760	1472	-951	1017	212	-19920	-4736	4808	-58	1025	125	-32768	-4920	-1360	1660	-3923	4079	-23952	-9608	-26416	876	-5333	2297	-9992	-1056	7392	-1764	-1186	231	105	160	1
-12228	-3692	10436	-110	287	55	-15072	-9088	1320	-404	1408	391	-17224	-7488	6664	148	1019	351	-32768	-11584	-12056	845	-3864	3622	-20224	-8104	-23904	1732	-4174	1930	-16392	2968	20096	113	-1414	423	145	107	1
-12240	-5124	10684	27	522	141	-14864	-9656	1600	547	1832	597	-16424	-6048	5488	185	1142	379	-32768	-13416	-26768	-693	-2750	2185	-13776	664	-22160	1204	-2541	1319	-23688	-2080	25704	2416	60	970	126	61	1
-12600	-5228	11016	268	820	347	-16496	-4584	-16	563	2128	629	-17912	-792	4784	129	1146	128	-32768	-24952	-32768	-1590	-1125	357	-5584	-3040	-24400	-1168	-736	615	-20568	4552	20512	2067	295	1208	144	100	1
-9976	-408	15368	-529	1186	465	-18224	-2592	-2672	-67	2345	654	-17888	1752	2712	-106	982	26	-32768	-32768	-32768	-206	834	198	-5760	-7800	-25504	-2342	1202	-309	-16176	10136	18904	1492	507	325	110	77	1
-13936	484	13660	-118	1918	597	-21896	200	-2960	-804	2308	615	-20192	1208	4104	-785	669	152	-32768	-17600	-23296	-176	2464	-214	-9256	-9232	-26544	-2304	2801	-933	-10344	8632	10704	6	438	-103	113	156	1
-11868	-1412	15264	24	2658	513	-23312	584	-3128	-1439	2419	718	-22904	2032	4064	-1308	204	163	15016	-9576	32767	-793	1840	-2323	-32768	-12464	32767	3599	2293	-1349	-10096	6224	-952	-701	1344	-57	92	195	1
-8708	1116	17568	-150	3700	378	-24072	-80	-512	-1740	2444	861	-21680	128	8008	-1383	-513	316	4336	1736	-7032	1312	5351	-2640	-15584	-3824	-11072	-425	869	494	-24280	-3832	184	-726	1216	196	126	179	1
-7952	-3712	17212	-348	5200	-16	-28352	-2016	5688	-1738	2490	1084	-26480	-1024	21240	-1323	-1664	376	-32768	14624	17864	-525	4224	-111	-8296	-3928	-272	-1304	2359	-1015	-27200	-5488	22096	-400	-578	96	124	116	1
-5484	-5684	17708	-448	7257	-14	-29408	-2720	11216	-1819	2577	1198	-17752	-2928	23712	-1542	-1712	583	-31120	-11304	14208	-801	2793	-3192	-31376	2520	-16504	-2550	2125	-564	-18712	14920	14760	-1490	1390	-429	191	121	1
-18212	-7476	13076	-901	9211	382	-28112	-8424	7568	-2136	2588	1418	-13712	-3240	6984	-2043	-611	1074	-30240	2336	13080	-2250	584	-2393	-21456	12192	-10400	-2880	2204	-628	-19848	1376	-19632	-2127	2458	167	161	95	1
-32768	-13960	7248	-851	8333	1296	-24216	-16112	-15304	-971	3254	1678	-22400	-7680	-6488	-1470	849	328	-20576	7952	6536	-727	365	-1219	-11928	-2504	-13248	-3624	1887	-618	-12592	-128	-16592	337	1741	1036	169	127	1
-32768	-20484	20216	53	7210	2936	-32768	-4544	-5088	-1697	3112	1012	-32768	-888	-11824	-698	-195	-368	-16360	5136	8736	-215	-30	-643	-14376	-16200	-16768	-1505	1528	-421	-7000	-4112	-6904	2048	923	505	127	120	1
-18088	-16008	32767	-5	6917	3147	-30232	-11376	7624	-2102	2190	953	-32768	3144	-5960	1113	-2237	-944	-14248	2160	10744	-91	-161	-327	-16656	-12344	-11048	1850	1712	67	-17600	3312	-7456	812	1467	371	182	69	1
-32768	2060	19296	-2235	6099	1957	-14992	-5488	-26592	1040	1443	692	-32768	2784	-7216	1250	-2479	-863	-13016	4520	10048	89	-31	-47	-19664	-6016	-7672	3318	1492	320	-22056	1728	-5008	771	1858	64	80	104	1
-32768	-20296	27268	-1609	-1623	62	-12768	-376	-18800	2109	1524	819	-29632	1872	-9504	1600	-2856	-633	-12616	4808	9864	213	-48	1	-19752	2512	-5872	3427	1239	395	-21800	1072	-4360	778	1848	-55	92	123	1
-7372	-14972	22388	-226	-4478	-322	-18288	-1352	-2904	-1044	-129	-12	-28496	7000	-12624	863	-2465	-986	-12408	4320	10184	282	-6	60	-16528	11312	-1360	585	889	282	-16728	3552	-1832	323	1663	-508	197	111	1
-1904	-9704	12988	274	-4768	-208	-11616	-3808	-3424	-629	-1458	-160	-25992	3656	-14224	172	-2431	-1136	-12520	5928	9168	191	61	42	-15208	5048	-3536	-2281	420	-113	-13424	4712	-1784	25	1510	-371	0	142	1
-6404	-6772	9148	468	-5003	-485	-6200	-2328	-10896	725	-2186	-543	-20392	2400	-13288	-249	-2827	-1160	-12664	6736	8912	96	150	50	-17488	-536	-5112	-2678	295	-339	-13824	6392	-560	-81	1445	-383	5	110	1
-9616	-6900	8824	529	-5398	-868	-3704	-232	-7416	1340	-2928	-679	-15304	400	-11128	-253	-3025	-1180	-12592	7032	8584	85	104	-20	-17112	-5328	-4992	-792	356	-56	-15848	5752	280	-153	1590	-350	93	118	1
-10556	-6612	9588	670	-5657	-1067	-4976	-640	-8256	2075	-3665	-954	-11664	480	-10576	225	-2585	-981	-12464	6368	8976	205	30	-123	-16376	-1128	-4296	1629	732	167	-15800	2528	752	-83	1956	-153	132	124	1
-11824	-3516	9228	542	-5881	-1192	-9400	1008	-7664	1721	-4263	-1016	-11832	1408	-11784	649	-2651	-982	-12504	5800	8928	368	-150	-225	-15904	1888	-1848	2413	837	249	-14568	-88	1056	293	2129	-186	139	127	1
-14792	-1944	8336	-135	-6082	-1214	-12000	1016	-8840	1305	-4813	-1031	-10968	2960	-12832	959	-2697	-857	-12576	5256	9080	267	-140	-296	-16968	5192	-1776	1539	847	88	-13792	2032	2704	752	2406	-264	107	117	1
-16932	-3128	9308	-857	-6126	-1423	-10760	1656	-10240	864	-5276	-1253	-8400	3200	-12064	978	-2538	-711	-12368	5568	9288	62	36	-286	-16160	4448	-2584	-108	754	-162	-14752	3272	4384	1100	2714	-262	62	132	1
-21532	-5456	10640	-1300	-6153	-1628	-11168	1064	-10928	136	-5676	-1561	-5928	4616	-12216	852	-2208	-495	-12432	5808	9280	39	47	-283	-16016	696	-4088	-916	685	-311	-15968	2952	1848	1498	2577	-288	110	133	1
-25928	-9620	11124	-1296	-6340	-1881	-12944	-1192	-11760	2	-5858	-1913	-4120	6304	-12008	582	-1890	-274	-12824	5480	9264	-145	202	-223	-16568	-2528	-4704	-481	662	-217	-16624	3192	-3208	1526	2434	-190	124	121	1
-29452	-15072	10208	-643	-6273	-2347	-15400	-1288	-10384	671	-5864	-2235	-2320	5288	-10016	558	-1509	-200	-12896	5208	9504	-36	168	-233	-16680	-2944	-3920	674	836	-59	-17168	1568	-5952	689	2159	-41	147	121	1
-30372	-5556	8944	261	-5361	-3293	-19056	-2136	-13712	2151	-5831	-2400	-2376	2912	-5072	940	-1450	-315	-12944	4896	9728	80	205	-204	-16832	-2584	-3832	800	866	-50	-17056	2952	-2888	-390	1746	-101	72	118	1
-32012	-2948	8448	181	-5198	-3521	-23496	-2728	-19928	2943	-5497	-1906	-3840	456	-1576	1851	-1264	-468	-13104	5040	9464	83	315	-152	-15464	3496	464	641	1280	-231	-17248	6352	4384	-368	1456	-113	98	144	1
-32768	-1192	-1296	-804	-3947	-4099	-24536	-4208	-22080	2966	-4856	-1247	-13000	-4384	8640	1802	-1702	-877	-12856	5688	10016	40	479	-157	-15968	5912	-464	-456	1495	-503	-17288	6512	8600	220	1188	-54	128	139	1
-32768	3588	-15828	421	-3648	-2540	-19008	-1528	-24528	2877	-3386	-903	-20280	-5416	19408	1095	-1873	-1114	-13096	6520	10448	87	667	-288	-18152	3560	-1440	-1006	1665	-702	-18208	3632	6760	434	1091	56	164	126	1
-32768	8080	-32404	1725	-2433	-1221	-8112	2432	-29248	2361	-1839	-270	-12112	-2248	19984	1808	-7	-1127	-13576	4032	11072	-93	1009	-815	-19928	-2960	-2256	-402	1947	-649	-19568	1168	3744	418	1031	112	52	129	1
-32768	17888	-32768	1354	-947	2	-3320	8344	-25000	491	-74	-320	-15320	0	21400	183	867	-280	-13776	6456	12576	13	1438	-817	-20232	-3696	-2232	560	2317	-649	-19616	1480	3128	971	874	37	144	126	1
-32768	22480	-32768	-462	797	381	-6616	480	-23800	-687	1896	42	-18096	616	12824	5	1086	487	-13616	5848	13504	80	2028	-900	-21192	-1488	-1616	867	2640	-728	-19656	1248	3288	1178	825	30	170	123	1
-32768	20656	-32656	-643	1095	463	-13104	-6312	-1616	-2462	2918	562	-10856	2128	1008	1174	1338	714	-12632	5736	14440	120	2784	-1120	-22432	-1848	-368	572	2762	-823	-19296	-384	5216	2057	181	48	156	131	1
32767	-27308	32767	-77	1208	1265	-32768	-11272	32767	-4918	147	208	-18176	2808	2024	267	2242	276	-10208	5344	17088	224	3830	-1315	-27312	-2576	1288	371	2857	-1027	-23432	3240	7816	1885	-221	16	149	141	1
-32768	1812	-9424	1260	4850	1471	-6992	-12928	-19360	1334	2459	454	-25096	-2488	8752	-95	2514	-232	-10128	9448	15312	707	5599	-1680	-28864	-7088	4056	127	2955	-1004	-25384	4520	16352	2185	-1356	-163	200	149	1
-21788	16484	20272	833	5236	638	-13672	5488	-7720	774	2948	99	-19672	-2696	11608	-1	2377	-46	-16960	13232	15728	1139	7681	-2007	-31688	-3272	7000	1003	3071	-810	-22512	3408	20456	3316	-3394	-423	170	141	1
-24716	6612	12604	-744	3515	918	-32768	-208	-7240	1564	2932	660	-17768	3576	-7872	3225	1400	67	-32768	16576	10464	1354	7815	-3023	-32768	6704	392	801	3280	-681	-21384	-2064	7032	1590	-1688	13	158	105	1
-19936	-13232	7928	713	1371	1379	-17320	-11192	-20824	164	3005	672	-20392	16080	-19696	1326	1786	-233	-32608	14368	13544	1626	7374	-3830	-32768	9304	-2112	-53	3515	-821	-25880	11144	-11544	1133	-1970	262	1	137	1
-22820	-1128	8432	345	542	660	-9616	-1424	-18008	1711	2134	150	-15768	2504	-19216	-2549	1572	-371	-32768	21144	13256	1408	6854	-4075	-30872	856	-1368	568	3134	-894	-28176	9160	-11912	602	-2101	711	29	130	1
-14508	-3676	10624	332	294	447	-17192	5752	-14088	1674	1561	-29	-10712	-3600	-14376	-1718	1699	-244	-17848	29384	31304	2518	5573	-4107	-23792	4232	-9608	-312	3067	-608	-32768	-2736	-3696	-800	-3284	664	253	120	1
-12944	-644	11768	59	208	-11	-18000	9112	-9680	-1277	936	-130	-16920	136	-8352	-587	2019	29	-8248	24784	29864	2733	5519	-4260	-17584	-2960	-25520	-1566	1541	-418	-32768	-672	-6272	-1218	-3492	807	94	129	1
-12340	-2192	11172	-136	216	-172	-19136	-888	-8008	-2873	448	-304	-20712	1920	-7264	-531	1773	210	-12248	20768	22496	-641	-2850	131	-19440	-248	-9672	-737	185	-85	-32768	-5496	-6768	-1283	-3654	1067	253	130	1
-11764	-2844	11000	-272	185	-197	-17304	-6544	-4880	-2677	423	-380	-19192	936	-4736	-705	1664	411	-11080	17952	21288	-772	-3161	322	-9544	-4384	-1640	590	-700	230	-29608	-4120	-7144	-34	-3419	1224	253	83	1
-11864	-2688	10740	-303	151	-237	-15840	-9352	-2952	-920	573	-217	-16912	-3072	-2320	-435	1567	458	-2968	6904	11840	-632	-3648	827	-8128	-3736	-5832	1278	-1643	830	-24048	-1968	-6640	1231	-3093	1270	171	69	1
-11796	-3900	10308	-224	145	-239	-13312	-9232	-2128	916	703	51	-13728	-4344	-1064	141	1554	377	-11344	4256	11456	-198	-4298	1425	-4824	-1288	-7528	770	-2848	1158	-18992	-344	-7400	1141	-3011	1196	184	104	1
-11144	-5136	9664	-80	121	-157	-13088	-6264	-3288	1665	669	187	-13448	-5568	-2080	544	1700	324	-11784	4656	10896	147	-5150	2139	-5688	-2208	-6768	238	-3546	1340	-14840	-856	-7360	510	-2882	1034	101	144	1
-11232	-5228	9924	20	99	23	-15184	-3200	-2272	1019	612	165	-14800	-3872	-1424	809	1758	226	-12072	3648	9448	223	-5649	2362	-9320	-3264	-5928	243	-4087	1401	-11288	-1288	-8264	-95	-2492	1030	59	139	1
-11272	-3860	9924	20	106	130	-16536	-2752	-2976	-23	600	45	-15248	576	2560	984	1168	507	-13480	336	9528	442	-5818	2214	-10016	-6896	-4776	240	-4661	1687	-10816	-1648	-9144	-953	-1965	804	97	141	1
-11212	-2840	10624	-28	168	166	-16064	-1824	-1944	-788	633	-23	-13360	1352	3960	-330	1884	394	-14664	-1736	10264	1056	-5802	2261	-9720	-4640	-6400	353	-4977	1844	-8456	-2112	-9288	-1047	-1659	661	135	161	1
-11544	-2944	10304	-46	204	152	-15080	-3192	-2264	-1184	566	-80	-14840	1976	3856	-670	1643	338	-18976	640	10984	1734	-5643	2459	-11472	-6216	-7792	739	-5349	1877	-5592	-1888	-9112	-913	-1284	554	143	162	1
-11408	-3728	10052	-5	186	191	-14048	-6536	-1352	-949	685	83	-17256	-1576	720	-436	2010	286	-22208	2912	11664	2003	-5632	2676	-12480	-5560	-9792	1149	-5551	2115	-4048	-1704	-9576	-1263	-878	334	63	135	1
-11604	-3652	10524	68	194	242	-14736	-6656	-1376	-77	897	232	-17736	-1848	-1392	-603	1935	211	-22800	3848	13320	2047	-5363	2964	-15048	-6336	-10104	1341	-5899	2451	-3056	-3040	-9840	-1406	-998	201	0	138	1
-12064	-3100	10444	105	184	251	-16144	-3608	-2440	412	1086	281	-19576	-800	-1040	-219	1588	20	-29000	1808	14920	2336	-4444	3133	-19552	-7232	-11272	1621	-6278	2824	-2264	-2104	-8040	-1485	-461	-28	86	156	1
-12036	-2920	10448	115	195	240	-16448	-1656	-2816	-69	1144	267	-17160	-2248	96	77	1453	71	-32768	-1640	9200	2666	-4187	3740	-20824	-7104	-20792	996	-5944	2856	-3920	-3016	-4432	-1443	-343	-57	105	186	1
-12248	-3032	10872	119	253	198	-15808	-3968	-728	-410	1224	303	-16232	-2640	2152	19	1408	202	-32768	-4208	3216	2093	-4588	3588	-25080	-5800	-22264	934	-5436	2573	-6816	-1440	3392	-1040	-767	164	91	165	1
-12108	-3516	10804	193	321	226	-15072	-6048	560	-168	1503	390	-17544	-3584	3776	22	1189	241	-32768	-13464	-6280	1226	-4302	3073	-24152	-6856	-21600	615	-4627	1931	-13392	4480	17616	418	-1568	341	96	111	1
-12252	-4536	11428	303	443	320	-14744	-7200	-704	143	1812	512	-18056	-4232	5160	-7	1008	132	-32768	-19216	-17976	-52	-3264	2514	-15904	-7616	-24664	274	-3283	1033	-21288	8200	26480	2511	-953	677	121	98	1
-10216	-3824	14712	-224	784	448	-17152	-6128	-2232	305	2080	617	-17768	-1640	4256	-56	1020	128	-32768	-15000	-32768	-1824	-1852	1358	-6384	-3464	-26480	-598	-1426	156	-19192	7440	19280	2256	1230	1157	139	64	1
-13036	-3836	12872	93	1533	607	-22176	1488	-3256	-278	2225	621	-20184	2272	5056	-186	967	36	-32768	-32768	-32768	-1848	-508	130	-3808	-5392	-23232	-1832	462	-282	-15632	9496	16448	358	588	325	112	108	1
-12544	-1784	14452	116	2163	574	-21120	616	-2408	-1093	2339	755	-21696	3488	4976	-516	639	81	-13088	-4528	-26248	-301	3974	-904	-13592	-2920	-22536	-1457	2397	-611	-14256	11832	14352	-670	713	-417	118	146	1
-11504	-492	16396	52	3016	505	-21568	-1216	-2752	-1110	2534	869	-19920	1816	5992	-956	137	350	4448	20256	32767	-274	3448	-346	-32768	-8640	32767	2517	1106	-1556	-16424	8416	8384	-1260	761	-376	114	246	1
-8088	-1324	18476	-174	4213	302	-26832	-2432	1776	-1207	2594	1034	-24400	-400	12400	-1115	-394	269	-27584	-14800	10200	-847	3525	-2253	-11040	576	-10016	-1060	2522	-423	-31592	1456	24896	-1829	-1437	202	98	157	1
-7236	-5948	18160	-198	5608	239	-29208	-2664	7056	-1483	2634	1223	-23760	-1448	16736	-530	-1879	-73	-32768	3888	5072	-144	2940	-3247	-10272	-2448	520	-830	2408	-620	-13672	-2288	15968	-1334	1359	-536	128	50	1
-7124	-7052	19996	-248	7982	512	-30520	-6448	12840	-1930	2695	1461	-15400	-7344	18128	-2008	-692	923	1344	-3184	16056	-1784	-152	-2056	-32768	10696	-4704	-1448	2991	-297	-23800	3064	-22168	-1861	2466	-549	189	167	1
-25224	-10096	10648	-600	9622	1512	-29912	-10816	3696	-1603	2845	1618	-23840	-8912	4440	-1279	-215	789	-19264	7896	5480	-609	-70	-969	-11632	-200	-13952	-2480	2529	-1336	-15672	-7928	-20728	-1722	2038	750	178	149	1
-32768	-25052	9628	456	8595	2855	-26368	-11496	-9624	-1269	3139	1654	-24000	-4384	-18264	-1122	500	-138	-14608	3200	11224	-290	-208	-516	-9424	-8328	-14176	-1567	1586	-358	-6272	-3216	-12000	2102	1155	288	168	124	1
-32768	-18940	23588	759	7070	3794	-29896	-6632	-4560	-1357	2911	958	-32768	3888	-4792	417	-1533	-774	-12936	2744	11776	-139	-197	-237	-16000	-12824	-11008	497	1433	-121	-15488	2344	-7344	1653	1455	384	101	15	1
-5308	-21920	32767	276	6965	3549	-29720	-7432	-1744	-1550	2795	937	-32768	5256	-9184	1098	-2739	-760	-12608	3776	11016	94	129	76	-22952	-6568	-8368	1995	1307	-21	-23120	4512	-7160	1087	1884	300	132	81	1
-32768	-19020	23328	104	2481	404	-12744	-4192	-30080	2476	1237	579	-30192	-704	-7504	982	-2872	-554	-12256	4176	11000	208	126	91	-17528	16	-5952	2649	1096	247	-21584	152	-1992	432	1782	-513	95	115	1
-24060	-16328	28556	964	-3566	-1531	-13128	2936	-7344	1169	1004	445	-28472	8072	-10360	1174	-2649	-987	-12080	3808	10856	314	166	152	-16592	4008	-2376	1743	1005	292	-17184	2336	600	388	1753	-771	51	135	1
-1132	-5688	19672	861	-4292	-906	-17128	-1944	216	-1628	-735	-86	-27560	7888	-12776	237	-2319	-1161	-11904	5544	9768	275	183	142	-16480	8088	-2240	-51	718	2	-13080	6824	-1048	452	1615	-612	156	153	1
-4244	-340	12232	113	-4373	-503	-8600	-5040	-7760	458	-1937	-812	-27064	7640	-13120	90	-2329	-1181	-11816	6912	9448	84	163	41	-16344	8464	-2048	-307	680	-52	-12040	7976	200	427	1471	-407	66	132	1
-11888	148	10448	-644	-5120	-608	-6136	2672	-8704	1661	-2361	-822	-18456	3448	-11152	-594	-3086	-1243	-12000	6552	9440	4	82	-120	-16560	-232	-4584	-1527	389	-380	-13936	7120	-40	-51	1577	-401	15	108	1
-10760	-3544	10920	-795	-5806	-751	-4048	5008	-7072	1754	-3095	-1056	-12312	2224	-9560	-282	-2895	-1032	-12016	5768	9600	20	-19	-244	-16328	-2704	-3864	21	507	-187	-15552	3824	416	-487	1704	-381	97	95	1
-10796	-2716	10576	-459	-6000	-674	-9560	3808	-7016	1212	-3860	-1232	-11696	2992	-10392	119	-2783	-742	-11920	5128	10248	136	-77	-304	-16624	-1032	-3280	1144	758	-98	-15568	752	1160	-418	1985	-362	191	113	1
-12168	-1068	9132	-490	-6030	-906	-13624	4816	-7624	765	-4487	-1183	-11328	3312	-11728	402	-2810	-795	-11992	4880	10448	191	-90	-349	-16704	1104	-2120	1242	721	-98	-14776	88	2408	1	2130	-463	170	122	1
-13380	416	10104	-730	-5818	-1246	-12272	4928	-7416	212	-5044	-1303	-11480	3696	-11728	464	-2813	-763	-12040	5304	10344	107	-53	-359	-16688	2680	-2224	520	723	-186	-14640	1496	3968	691	2477	-536	145	121	1
-17704	-196	12096	-1025	-5613	-1468	-11040	2776	-9936	-222	-5456	-1519	-6752	3904	-10976	407	-2446	-495	-12312	4840	10456	-46	-4	-372	-16208	1696	-2704	-265	762	-344	-15240	1608	5016	1256	2705	-535	151	143	1
-22140	-3144	12916	-1159	-5590	-1625	-12688	456	-9624	-62	-5682	-1848	-5200	4376	-11336	282	-2074	-325	-12384	4592	10688	-125	45	-327	-16448	-1032	-3680	-264	770	-383	-16648	1784	2248	1530	2534	-487	110	137	1
-26404	-5572	13572	-891	-5558	-1827	-14800	-2080	-10448	780	-5776	-1966	-3696	4848	-9944	518	-1614	-222	-12720	4448	11096	-123	108	-291	-16504	-2272	-3528	326	926	-320	-15824	2656	-2288	1341	2572	-349	86	127	1
-31544	-5292	13056	-468	-5602	-2308	-17760	1712	-12600	2229	-5735	-1982	-3528	2096	-7144	835	-1455	-229	-12352	5016	10808	-73	178	-264	-17128	-1128	-3432	711	1046	-294	-17576	2288	-4472	508	2334	-251	74	138	1
-32768	3756	10412	-643	-5205	-2961	-21720	920	-15408	2371	-5669	-1773	-4280	1928	-2928	1474	-1555	-324	-12608	4120	10656	-34	265	-252	-16912	512	-1752	589	1207	-342	-16816	4632	-2208	-481	1861	-240	0	136	1
-32768	4552	4436	-919	-4744	-2907	-23808	-2264	-20040	2317	-5336	-1341	-6032	744	2520	1991	-1625	-392	-11960	5032	11096	-96	403	-262	-15896	2912	-320	144	1401	-526	-16824	6896	2992	-449	1533	-300	110	139	1
-32768	7032	-6124	-378	-4397	-2098	-21392	-6136	-20760	2653	-4398	-733	-14592	-4392	11336	1592	-2002	-722	-12712	5704	11064	13	513	-417	-16640	3776	-1264	-457	1607	-736	-17736	6128	5968	-130	1183	-273	101	141	1
-32768	9184	-22156	777	-3534	-1483	-14320	3072	-29032	2666	-2776	-97	-18288	-4800	20736	722	-1857	-1053	-11472	4288	13016	-227	898	-841	-19912	-1560	-1432	-363	1783	-847	-19512	4776	5984	129	1210	-181	77	133	1
-32768	12320	-32768	1654	-2186	-382	-5128	6712	-28312	821	-1296	-114	-9360	-200	22416	399	128	65	-13224	5760	14112	-122	1281	-950	-20528	-4120	-2824	91	2159	-902	-19776	112	4128	407	1053	-162	69	130	1
-32768	26944	-32768	62	-576	355	-3248	2024	-24728	-1027	561	-81	-8808	-368	22104	269	254	197	-13936	4704	15032	-112	1788	-1158	-20992	-2576	-2040	445	2460	-972	-19120	-2712	4752	908	750	-251	178	125	1
-15844	10716	-10468	-1484	1148	1275	-7872	-6008	-18240	-1587	2346	345	-18224	-2368	14336	-723	878	784	-13408	5872	14968	-112	2524	-1342	-22640	-2336	-1824	248	2663	-1101	-20200	-2296	5864	1580	412	-297	222	122	1
11972	8224	32767	-603	2804	1206	-32768	-1984	32767	-6654	428	915	-15552	3440	1112	571	1511	248	-11664	6968	17664	-105	3437	-1552	-26848	-1624	-1144	79	2819	-1229	-23256	1080	7560	1987	-20	-271	167	129	1
-32768	-21360	-23924	695	5279	1390	-18664	-13008	-17104	-1240	2512	460	-32768	7128	29576	483	1744	-405	-12744	9928	15448	44	4722	-2118	-28056	-4456	2352	-88	2992	-1245	-24976	3904	12040	1953	-820	-265	202	126	1
-32768	5208	18948	856	5404	797	-9752	-848	-8224	-126	2947	-47	-17280	-4696	16816	85	2096	862	-14304	9616	20032	402	6261	-2663	-32768	-1392	4936	780	3129	-1104	-24808	9328	22976	3163	-3710	-509	175	123	1
-32768	15396	31404	-833	2741	972	-31240	-3064	-17312	1881	3485	322	-21808	-4312	-5200	1783	1929	115	-28944	12096	18712	559	7766	-3626	-32768	1704	4264	907	3144	-1154	-22232	7296	5144	2154	-1203	-9	98	118	1
-26696	-9224	7812	343	855	833	-19024	-6000	-15336	824	3133	710	-17600	7696	-24408	796	1687	-747	-31856	26008	14168	1353	8403	-3296	-32768	10928	1008	931	3513	-1542	-26016	12984	-10040	583	-2072	267	2	126	1
-14720	-1256	10836	220	428	379	-9408	1176	-15840	1098	2346	249	-13616	4432	-22120	-3031	1386	-789	-32768	23968	10520	328	6724	-5387	-29712	10088	-3416	24	3187	-1396	-24592	9656	-11880	-513	-1938	699	128	134	1
-13596	-5036	10092	218	238	171	-11760	6216	-14888	-151	1589	-106	-8432	-6376	-14272	-2194	1673	175	-23792	32767	32767	488	5414	-5467	-22536	8080	-7328	-1269	3097	-1067	-32768	-4272	-3496	-1779	-3226	608	253	119	1
-12396	-1412	11268	12	241	-94	-16640	6392	-11472	-2041	931	-297	-17984	-3184	-10544	-737	2121	150	-32768	25144	17704	-1602	3491	-3671	-17864	-3584	-27168	-2848	1664	-645	-32768	-1568	-5632	-1723	-3299	838	197	126	1
-12368	-3280	10608	-179	208	-202	-23680	-4496	-8248	-3284	412	-292	-23904	1776	-8104	-644	1867	212	-13744	16408	23488	-1921	-2041	364	-20160	-848	-10056	-2575	251	-498	-32320	-4840	-7424	-1341	-3425	1220	214	121	1
-11720	-3812	10980	-274	185	-194	-16056	-13168	-3008	-523	695	-120	-21560	2256	-3776	-763	1828	605	-448	12096	17776	-1400	-2470	1552	-10064	-7224	-2088	-588	-564	-383	-29440	-4112	-6992	-204	-3244	1482	247	61	1
-11872	-3660	10384	-154	194	-237	-14656	-6256	-5080	2105	883	30	-15984	-2608	-2512	-437	1681	524	-5104	8504	11536	-837	-2664	1885	-8328	-4176	-8456	983	-1500	381	-24728	-1152	-6384	939	-3050	1566	165	87	1
-11916	-4156	10056	-41	142	-240	-14968	-2080	-4656	1731	778	62	-12736	-6088	-1552	5	1736	440	-11912	6584	11312	-550	-3664	2386	-5576	-88	-9392	910	-2594	777	-20216	48	-6440	739	-3061	1499	130	110	1
-11712	-5256	9756	8	82	-187	-13864	-2304	-3272	426	533	48	-14072	-4720	-2424	291	1754	383	-12288	5864	11528	-452	-4616	2832	-5712	208	-7048	478	-3318	976	-16456	-472	-6032	178	-2926	1289	118	161	1
-11576	-5068	9732	13	31	-60	-14376	-4672	-2712	-533	438	10	-16800	-3432	-1968	266	1535	231	-12496	2704	9712	-252	-5296	3040	-9160	-3192	-5848	142	-3881	1142	-15832	-920	-6000	-6	-2882	1245	85	142	1
-11544	-4628	9968	-51	73	80	-15480	-5856	-2760	-662	486	-17	-17176	-1488	-16	244	1207	124	-11888	-472	9048	309	-5514	2916	-10592	-3600	-5904	270	-4476	1414	-13224	-1360	-9200	-1535	-2206	1005	0	152	1
-11516	-3868	10284	-69	103	174	-16176	-5288	-1984	-409	603	-28	-13752	208	1480	-58	1006	245	-13240	464	9640	1045	-5498	2553	-10504	-4240	-7144	421	-4793	1602	-11080	-2552	-9104	-1843	-2023	755	244	171	1
-11712	-3732	10224	-32	135	199	-15744	-2848	-2816	-535	612	16	-14424	-88	1640	-333	1136	201	-17696	3216	10824	1415	-5525	2283	-11208	-4136	-9896	554	-5186	1787	-7888	-2432	-8752	-1475	-1654	618	154	150	1
-11824	-3936	10028	-3	143	193	-14392	-4040	-3184	-607	668	71	-14208	-880	3224	-278	1262	281	-20992	3768	11624	1611	-5618	2416	-12040	-5920	-10200	874	-5488	2016	-5888	-2880	-8896	-1298	-1472	481	51	137	1
-11608	-4264	9816	38	129	268	-14744	-4608	-3224	-360	767	131	-16128	-632	224	-259	1953	489	-21288	3960	11736	1644	-5617	2471	-13544	-6456	-10648	1353	-5726	2310	-4072	-3152	-10464	-1325	-1343	366	26	147	1
-11996	-4096	10164	95	128	348	-15920	-2952	-3744	-312	793	111	-16744	728	-2032	-1012	2307	688	-22552	5008	14560	2144	-4944	3143	-17696	-6056	-11328	1559	-6152	2707	-2512	-3184	-9336	-1242	-763	178	98	155	1
-12196	-3152	10532	133	160	373	-16616	-1352	-4392	-576	811	76	-18104	1056	-904	-965	2180	450	-32768	2984	11616	2436	-4162	3499	-19200	-7552	-17624	1096	-6143	3022	-3680	-4024	-7624	-1275	-292	-10	114	178	1
-11784	-3084	11004	117	255	281	-16848	-1944	-2344	-870	876	109	-18128	-744	168	-77	1908	52	-32768	-4128	6616	2489	-4034	4101	-21824	-7488	-21112	699	-5802	3002	-4840	-3976	-1952	-1089	-623	19	148	152	1
-11648	-2848	11504	-62	419	272	-15936	-5616	-952	-590	1068	201	-17776	-3656	2200	301	1481	-31	-32768	-11104	-936	2517	-3537	3750	-24888	-7360	-24320	670	-5084	2576	-9024	880	9352	-364	-1291	302	116	115	1
-10968	-3864	13492	-145	715	270	-15504	-6096	208	75	1410	318	-18840	-6584	5352	172	1101	167	-32768	-19384	-10832	1788	-3370	3182	-19480	-10736	-28056	460	-4028	1663	-15248	6648	23368	1110	-1485	568	105	90	1
-12336	-4424	12400	45	1163	319	-18616	-4904	-624	229	1773	535	-20824	-5392	6344	201	1015	255	-32768	-17672	-27384	-172	-2341	2211	-9680	-6584	-27616	763	-2314	664	-19864	3248	23352	3218	542	821	110	56	1
-12224	-2656	13472	29	1711	391	-19928	-2376	-936	-106	2028	622	-21048	32	7104	142	923	336	-32768	-23800	-32768	-1869	-881	654	-4872	-4200	-26168	-432	-327	104	-18768	1680	21608	3270	914	906	147	150	1
-12044	-2896	14012	54	2378	447	-21152	-1064	-752	-607	2217	697	-20560	2752	7672	34	784	296	-32768	-31432	-32768	-1280	1184	293	-4440	-5552	-27600	-1770	1561	-551	-14360	10792	13440	1173	953	117	118	114	1
-10508	-1248	15048	-89	3171	352	-21840	112	-744	-1053	2366	824	-20328	3128	7680	-366	421	378	-32768	-20240	-23032	-164	2974	255	-8744	-9016	-32768	-2355	3111	-1079	-9368	11120	5776	-25	1272	-402	107	193	1
-9864	-2980	15136	-358	4187	184	-23232	-248	1320	-1407	2445	924	-21008	4040	11080	-942	-326	407	32767	21464	32767	-2031	-398	-34	-15880	-2568	-20944	-1355	3230	-1065	-11064	9120	0	-899	1670	-478	112	246	1
-6096	-4464	17964	-299	5669	3	-26840	-3912	6192	-1796	2495	1105	-24224	1432	20608	-1381	-1188	252	-32768	-26864	-4056	-1080	5058	-4190	1768	12632	-16656	-1327	2464	596	-28856	840	5944	-1644	1821	448	127	108	1
-6320	-9056	15420	-405	7962	37	-30232	-4888	13560	-1880	2460	1348	-18568	-1576	23224	-1742	-1457	239	-18568	624	9976	-1578	3253	-4654	-17256	5120	10344	-2429	2136	-1275	-25096	6312	25832	-3079	-279	-87	76	58	1
-27488	-10964	8964	-672	9141	1137	-24536	-10552	5720	-2203	2750	1445	-11144	-7960	8360	-2582	337	1075	20880	-17808	19688	-2810	-495	-3624	-32768	7184	-14584	-2953	2951	-440	-28960	13320	11048	-1401	1363	-75	176	116	1
-32768	-6840	10992	-188	8494	2811	-24920	-17360	-14800	-621	3456	1385	-22168	-14864	-6168	-2469	808	547	-15936	-4288	11704	-676	-108	-708	-14304	-16192	-11888	-3987	2516	-2012	-23088	-14824	-25072	-2308	2090	548	212	127	1
-32768	-22388	19460	507	7180	3420	-32768	-5328	-3400	-1124	3090	1281	-32768	-2312	-9392	-362	-395	-541	-14464	4568	10024	-246	-134	-411	-8832	-7216	-14080	-986	2121	-424	-7488	-16296	-14008	320	1178	60	104	196	1
-19372	-17096	32448	517	6785	3642	-29968	-9616	10064	-1723	2056	1026	-32768	4424	-4976	1301	-2558	-1175	-12768	4976	9984	-20	-45	-109	-10872	-8488	-11840	1128	1842	265	-8808	-1304	-8000	1837	1204	-459	141	84	1
-32768	-2240	21920	-1806	5106	1627	-13536	-5320	-31464	1529	1477	759	-28920	-3136	-6496	1561	-3306	-427	-12288	4520	10400	140	109	5	-22728	-2656	-9848	2177	1477	294	-16656	10000	-9296	1879	1820	273	87	0	1
-32768	-23192	27944	-1179	-2537	-753	-12344	2064	-17440	2057	1579	871	-30280	7936	-10328	1982	-3016	-725	-12336	4552	10160	130	101	-10	-19128	3176	-6656	1919	1025	151	-19992	8072	-6448	1160	1869	247	66	92	1
-7188	-14376	21160	360	-5086	-661	-19760	376	-2952	-1375	-244	-105	-29912	11624	-13536	656	-2493	-906	-12432	5568	9816	105	81	-8	-16976	7392	-3896	523	810	15	-21160	3976	-1544	687	1678	-275	106	134	1
-2084	-6576	13148	660	-5491	-298	-11128	-3528	-6480	-862	-1785	-451	-26904	6056	-14856	-330	-2428	-1080	-12288	5928	9984	48	7	-101	-16168	3888	-2720	-642	551	-201	-15808	6760	-1064	518	1398	-430	253	147	1
-8520	-1380	9768	250	-5712	-414	-7272	920	-9416	329	-2565	-780	-20656	2352	-13816	-586	-2881	-1147	-12432	5264	10328	3	-9	-128	-15768	96	-3896	-971	564	-273	-12368	7008	904	274	1438	-421	38	140	1
-10964	-2116	8892	-224	-6109	-781	-3512	3456	-5944	1251	-3268	-897	-14624	1416	-10656	-125	-3174	-1072	-12176	5648	9880	2	2	-149	-16816	-336	-4440	-512	529	-212	-13408	6016	568	113	1572	-460	87	123	1
-10684	-3696	9956	-224	-6227	-840	-5832	1744	-7160	1511	-3893	-1183	-11248	1880	-10384	808	-2953	-991	-12056	5488	9952	50	-49	-218	-16000	-248	-3200	311	602	-126	-15688	3224	184	-119	1784	-556	102	118	1
-12544	-1440	9424	-283	-6233	-883	-11872	4160	-7464	1300	-4475	-1250	-10424	4272	-12552	777	-2717	-735	-11976	5336	9664	87	-96	-271	-16040	592	-3272	763	655	-61	-16096	2048	-264	-336	1860	-493	49	123	1
-14336	-764	9256	-587	-6169	-1203	-13800	3544	-8408	1111	-5026	-1228	-10576	4208	-12984	814	-2678	-733	-11840	4792	10136	83	-86	-290	-16568	888	-2880	551	683	-131	-14216	1672	1440	-462	2325	-398	117	119	1
-17364	-1876	11168	-842	-5926	-1538	-13880	3912	-8792	1061	-5100	-1256	-7600	4208	-12312	754	-2548	-616	-12144	4816	10576	9	-33	-293	-16440	432	-2520	242	653	-152	-14248	880	2144	-381	2519	-370	95	141	1
-18456	-1980	11308	-886	-5893	-1588	-12616	2448	-10832	263	-5765	-1638	-5520	5984	-11624	603	-2287	-437	-12264	4872	10488	-17	21	-241	-16016	-136	-3584	215	768	-180	-15384	72	3992	426	2891	-395	83	132	1
-27488	-8020	13272	-952	-5910	-2252	-14768	-264	-11856	457	-5905	-1889	-3888	7368	-10992	648	-1861	-261	-12040	5512	10264	-14	111	-241	-16568	192	-3720	297	836	-191	-16832	112	4344	1376	2893	-366	87	127	1
-32516	-14704	12236	-175	-5901	-2725	-18216	120	-9488	1255	-5907	-2114	-2832	4432	-8496	777	-1531	-144	-12152	5064	10704	23	189	-273	-16560	-624	-3488	455	907	-176	-16368	-504	336	1735	2632	-211	129	132	1
-32768	-1180	10060	455	-5236	-3499	-20752	-2696	-14344	2433	-5846	-2115	-3880	2584	-3776	1355	-1680	-276	-12168	5264	10704	26	317	-262	-17168	-160	-1104	588	1050	-222	-17944	3248	-3600	575	2086	-153	147	133	1
-32768	2592	5044	-515	-4503	-4151	-23920	-3448	-21600	3428	-5469	-1467	-5104	24	-864	2210	-1586	-401	-12520	3848	10792	60	412	-256	-16064	1048	-280	439	1326	-321	-17528	7672	-1168	-520	1606	-156	126	132	1
-32768	392	-4228	-277	-4278	-3254	-23792	-3584	-21040	3454	-4603	-771	-14712	-2536	9128	1926	-2113	-754	-12992	5416	10880	16	517	-281	-16112	5504	-1512	-148	1596	-555	-17120	8376	6256	-166	1198	-96	118	119	1
-32768	7444	-19104	532	-3543	-2059	-17688	2408	-27552	3039	-3130	-369	-22560	-5328	23344	977	-2475	-1199	-12840	6152	10808	22	516	-310	-18216	3136	-2912	-538	1681	-696	-17840	5688	7176	719	1137	-34	108	121	1
-32768	11016	-32768	850	-2137	-805	-6928	6928	-28904	693	-1738	-301	-8776	2000	23768	1193	-181	-525	-13792	4096	11528	-163	1081	-912	-20304	-4368	-3056	31	1941	-747	-19064	1960	4096	944	1179	-17	52	132	1
-32768	21468	-32768	-605	-567	121	-1488	3888	-26144	-1516	140	-467	-17968	136	20168	-802	726	321	-13336	4904	14936	-32	1465	-977	-20976	-3576	-2816	580	2331	-807	-20528	504	2752	845	897	-133	138	124	1
-32768	13636	-32768	-1527	1142	685	-6296	-3048	-25264	-1945	2149	62	-16952	856	10128	-823	847	655	-13680	4960	14904	-38	2120	-1108	-22472	-2192	-2272	492	2571	-880	-20848	120	3352	1207	579	-249	196	129	1
-32768	620	-16256	-26	1969	1543	-9416	-4168	-26760	-1002	3556	502	-9856	1088	528	100	970	439	-12960	5456	15600	17	2849	-1301	-22544	-2864	-2064	133	2730	-978	-19928	-216	4952	1620	156	-195	174	138	1
-32768	-872	-1444	1492	1936	2043	-15976	224	-21944	-574	4149	916	14296	2648	-23864	909	3865	981	-12264	6272	14776	65	3569	-1527	-23352	-3040	-1248	29	2895	-1024	-19568	40	7448	1819	-416	-282	152	161	1
-18780	-17480	22596	-614	2322	2105	-32768	8160	32248	-3532	1572	814	-1648	-8752	-26696	-1255	4685	775	-11632	8040	15784	351	4682	-1987	-25984	-3864	-2864	232	3049	-961	-21256	2232	16360	2305	-1850	-488	253	138	1
32767	-30936	-29200	-317	4897	-227	-32768	9296	-18672	-667	1067	-470	-32768	5680	18224	1085	2904	-1501	-16016	16072	15896	704	6515	-2550	-32768	-1216	7176	1306	2965	-892	-23112	2640	14584	2866	-1430	-285	214	138	1
-32768	-3060	30968	1193	5559	-1102	3136	-15064	168	3072	2686	-31	-32768	-4272	10896	3276	-303	-1749	-28376	5368	14568	1010	7027	-3478	-29912	2560	3496	1479	3251	-651	-18944	2520	7584	1759	-1271	-287	146	95	1
-18260	-32768	-1620	526	754	961	-32768	-18064	-17088	4203	3911	268	-31120	11496	-13440	3412	1202	577	-32376	21400	16952	1555	7849	-3492	-32768	12912	480	1275	3623	-1178	-20248	5224	6096	1606	-1345	-280	202	123	1
-17712	-4156	8380	165	849	642	-17592	5048	-16896	5237	2803	620	-10096	5160	-15936	-1078	1914	-616	-32768	23808	13528	692	6047	-5016	-29608	8576	-7456	431	3482	-1158	-24168	20696	-10416	1053	-1111	625	0	116	1
-14452	-2996	10496	492	451	319	-14104	25056	-13560	-359	2019	-297	-9592	1456	-17088	-3752	1928	29	-18168	32767	32767	913	4727	-5067	-26288	7568	-7272	-1111	3089	-1177	-30104	12112	-9880	-102	-1734	844	122	103	1
-12092	-5408	10192	317	239	45	-5128	800	-13568	-5729	644	-641	-5496	-16552	-12512	-2647	1613	734	-32768	31968	20688	-842	1466	-2314	-23392	-3960	-17384	-2501	1989	-623	-32768	-5992	-3744	-2736	-3770	719	254	139	1
-11656	-2276	12220	134	213	-16	-17600	-13256	-7536	-4630	209	-505	-8208	-13752	-10728	-2436	1633	603	-7200	16504	24360	-995	-1904	340	-19512	-3640	-5712	-1489	389	-157	-32768	-9728	-6184	-1543	-3722	1116	253	121	1
-12052	-1956	11196	-152	95	63	-20848	-17248	-4280	52	949	-166	-27056	728	-6832	-331	2004	-132	-4000	15976	23328	-1021	-1965	510	-14080	-7632	-5072	190	-524	154	-31744	-7056	-6168	216	-3581	1326	134	85	1
-11620	-3000	11208	-205	104	-15	-15952	-9000	-7624	3937	1244	352	-19128	3160	-4848	411	1441	539	-11056	8744	14264	-454	-2401	1584	-6600	-4440	-10704	725	-1717	850	-27392	-3320	-5216	1210	-3474	1433	190	59	1
-11408	-4172	11172	52	123	-72	-18384	1528	-7176	4083	1142	120	-15576	-248	-3872	411	1339	854	-11752	6808	14056	4	-3776	2491	-6208	-4600	-8080	1127	-2722	1259	-21928	-1736	-5640	1131	-3514	1377	61	186	1
-11472	-3928	10420	170	107	-36	-13336	6656	-4672	945	570	140	-11096	-7304	-3448	304	1776	362	-12416	4032	12248	402	-4659	3013	-8640	-3984	-7368	1267	-3381	1721	-18536	-2048	-6344	210	-3417	1092	164	155	1
-11216	-4100	10800	102	78	-90	-13232	-1552	-5280	-1372	391	-43	-16096	-760	-1968	794	1570	-131	-12088	376	11328	916	-5131	3133	-10512	-4568	-5656	1162	-4001	2158	-16800	-3336	-8352	-118	-3272	935	7	163	1
-11372	-4268	10648	26	110	96	-17448	-5552	-1888	-1937	230	-286	-17224	2944	-4208	284	987	560	-13088	-1992	11752	1681	-5179	2988	-11368	-5048	-6504	837	-4322	2423	-13776	-4024	-8520	-183	-2547	947	71	157	1
-11516	-3148	11056	-67	172	209	-17520	-6424	-3672	-1379	383	-320	-15288	120	480	-644	1437	577	-18808	1488	12664	2169	-5282	2845	-11216	-4368	-8760	182	-4738	2575	-11176	-3088	-8656	-706	-2182	758	31	173	1
-11608	-2504	10860	-64	234	173	-15448	-4832	-3272	-569	502	-59	-14752	-880	2632	-230	1611	312	-20856	3584	12728	2128	-5565	2991	-12352	-7032	-8520	67	-5246	2715	-8072	-2864	-8856	-440	-1877	742	212	144	1
-11536	-3224	10644	-1	278	134	-13928	-5200	-3656	171	663	139	-16224	-1464	-1488	463	2065	380	-20488	3848	13232	1961	-5379	3361	-13296	-8336	-9512	542	-5459	2818	-5776	-2648	-9584	-22	-1898	807	34	133	1
-11480	-3808	10456	75	282	215	-14624	-2888	-4280	477	715	125	-15096	-808	-4784	513	2155	375	-21576	3000	14776	1903	-4920	3728	-14800	-8648	-11680	921	-5756	3032	-1992	-1224	-9712	-564	-1775	583	105	145	1
-11680	-3632	10628	62	333	320	-16360	-1240	-4744	-60	662	-22	-17424	1712	-4592	93	1799	144	-28816	-344	14104	2019	-4172	3891	-15712	-7616	-14112	822	-6020	3228	-1104	-2072	-8424	-849	-1077	176	85	200	1
-11860	-2620	10944	40	422	349	-16944	-904	-3472	-947	608	-96	-18152	1848	-4320	28	1716	103	-32768	-4368	9088	2127	-4112	4144	-15008	-8008	-23288	150	-5830	3136	-1448	-616	-5632	-794	-810	142	99	177	1
-11324	-3256	12016	-101	520	269	-16592	-4456	120	-1318	711	-10	-19848	-3240	5160	-189	1154	69	-32768	-14848	2680	2241	-4163	3924	-18968	-8984	-24496	127	-5457	2686	-3968	4096	2160	-147	-1005	314	134	143	1
-12052	-1732	11980	5	820	216	-16320	-6632	2216	-801	1133	293	-19776	-5800	9304	-89	996	121	-32768	-21296	-7560	2551	-3535	3699	-20576	-15128	-31360	98	-4610	1807	-9888	9248	13424	1174	-1458	488	87	103	1
-11520	-3868	13584	44	1173	237	-16424	-8560	2784	330	1683	545	-19816	-4656	9120	245	869	231	-32768	-18000	-19704	1433	-2604	3064	-10592	-13464	-32768	1716	-3068	1001	-14152	7056	20952	2351	-740	532	133	48	1
-11612	-3052	14300	95	1748	398	-20176	-4240	-848	636	2097	653	-19688	-88	8832	152	982	241	-32768	-20264	-30824	-601	-1567	1358	-7920	-3624	-27728	1742	-1111	498	-12584	8208	15056	2217	1117	763	147	117	1
-11392	-1488	14628	10	2383	398	-22312	1168	-120	-423	2225	773	-19688	744	9240	98	1009	231	-32768	-26056	-32768	-1436	23	70	-5840	-1896	-26008	-537	699	-434	-12192	9864	12144	1332	1471	202	123	90	1
-10380	-1728	15268	-152	3159	210	-21464	976	-200	-1362	2317	867	-21392	4976	7384	-1021	811	162	-23216	18160	-19992	-2023	2544	-1477	-13160	-800	-11568	-816	2038	-1169	-12784	14352	13648	142	1322	-530	114	147	1
-9696	-3112	16232	-257	4107	100	-23104	-1752	1312	-1566	2437	922	-22424	-600	9104	-1425	110	444	30968	32767	32767	-1450	2160	-1532	-32768	21088	32767	4118	-46	-533	-19168	15840	7736	-955	1222	-482	132	165	1
-6472	-4756	17800	-224	5777	28	-28440	-4944	6952	-1636	2501	1130	-26448	-3376	16616	-1442	-726	300	-32768	-18656	2312	-1628	4209	-3057	-9096	4288	-17000	-2702	2047	-59	-26616	264	14488	-3299	1693	97	132	139	1
-8372	-8128	16396	-426	7809	89	-29160	-5080	12720	-1515	2587	1457	-20656	-4288	14976	-784	-1709	71	-30272	-4648	10104	-1414	2898	-3636	-20264	-6328	-16000	-3456	2277	-1655	-23672	6560	24216	-3771	510	204	142	88	1
-31696	-11888	7080	-521	9041	1212	-25272	-10920	2680	-1657	2945	1711	-10680	-11408	10320	-1905	185	876	-32768	1872	6016	-1911	1690	-2380	-27624	-3376	-13344	-2282	2396	-1289	-20816	-15880	-6056	-2096	2054	-427	139	133	1
-32768	-11424	12324	660	7740	2617	-26032	-10504	-10208	-542	3571	1559	-22472	-8432	-5960	-1432	7	366	-16976	1584	10056	-1110	615	-1453	-10760	-7392	-12584	-1026	2166	-738	-14768	-11976	-14640	373	1741	137	191	158	1
-30660	-17404	18508	1160	7280	3042	-32216	-5856	-3904	-393	3104	1598	-32768	4896	-10936	338	-986	-271	-15856	2720	10312	-513	-47	-887	-15120	-4312	-12960	240	1997	-330	-9936	-288	-10344	2493	1591	17	117	124	1
-18956	-17948	32767	1229	6714	3200	-28800	-6656	5344	-1153	2167	979	-32768	4776	-11224	464	-1958	-619	-14888	376	11656	-230	-79	-483	-17200	-6872	-10704	760	1554	-217	-18224	9328	-9408	1737	1946	233	165	61	1
-32768	6420	16004	-808	5769	1789	-16696	-4336	-24952	476	1387	760	-31464	-3544	-5072	526	-2793	-455	-13440	4248	10536	-91	35	-163	-20032	-432	-7776	627	1189	-306	-21320	7856	-6408	719	1819	215	147	34	1
-32768	-18796	26224	-966	-1919	-648	-11760	-1416	-20504	1921	1452	911	-28824	1560	-9616	1424	-2836	-608	-12856	4432	10392	-44	79	-59	-16592	600	-5808	138	889	-410	-19616	2600	-2608	-79	1642	-210	111	123	1
-7888	-12900	20896	136	-4877	-712	-20040	-16	-3200	-1281	48	228	-28440	7216	-13072	1009	-2391	-767	-12400	4968	9920	42	75	-45	-16784	-640	-5224	101	723	-142	-17208	1256	-992	147	1729	-529	101	114	1
-1124	-7068	12664	259	-5035	-353	-13240	-4968	-4152	-911	-1448	-14	-27216	5152	-14096	259	-2367	-935	-12520	4952	9912	55	69	-47	-16384	592	-4840	154	617	-60	-15232	3312	-464	190	1528	-554	178	165	1
-5364	-5832	9092	230	-5002	-305	-6880	-1936	-10304	500	-2168	-335	-21888	2144	-13560	13	-2948	-1031	-12304	4632	9904	1	98	-47	-16280	-160	-4208	-44	517	-139	-13872	3728	1296	141	1505	-591	0	149	1
-9936	-6616	8292	258	-5373	-516	-3776	1608	-7472	882	-2813	-535	-16736	2616	-11824	-207	-3167	-1001	-12424	5048	9384	-30	136	-28	-16992	656	-4416	4	458	-111	-14184	4824	952	16	1483	-595	0	99	1
-10888	-6004	9080	322	-5795	-760	-3448	1440	-8240	1278	-3436	-893	-11320	1456	-9728	120	-3071	-865	-12224	5624	9424	-50	114	-59	-16584	1824	-3568	143	374	-115	-15456	4408	1008	-175	1645	-532	44	115	1
-11856	-4352	8044	160	-6104	-966	-9376	1752	-8656	1157	-4116	-955	-10512	3560	-11256	435	-2647	-636	-12392	5528	9728	-57	114	-81	-16368	3400	-2752	247	422	-165	-15248	3040	2056	-293	1533	-470	106	115	1
-12252	-2696	7448	-219	-6061	-1238	-8232	-1136	-7048	733	-4664	-1041	-10856	3160	-12512	517	-2767	-752	-12360	5320	9080	-16	56	-165	-15088	3024	-1800	122	439	-229	-14584	1920	2352	-203	1800	-333	141	107	1
-13876	-2724	8656	-527	-5879	-1458	-10696	1712	-9120	598	-5104	-1249	-8488	3232	-11368	723	-2746	-633	-12136	5360	9496	-29	2	-250	-16344	1488	-1584	-58	574	-250	-14832	1480	2816	-197	1897	-294	127	114	1
-15300	-2844	8900	-590	-5830	-1505	-10712	1824	-10848	310	-5399	-1478	-6024	3704	-10440	663	-2424	-432	-12520	4632	9480	-59	-8	-342	-16256	880	-2904	-53	647	-202	-15096	1280	3472	356	1998	-321	135	112	1
-23544	-5196	11804	-1079	-5755	-1896	-12992	440	-10840	297	-5621	-1731	-4768	4544	-10672	734	-1986	-305	-12584	5008	9744	-78	2	-370	-16184	1112	-2512	108	771	-246	-14904	3152	4080	1393	2209	-368	134	149	1
-25036	-7312	12524	-973	-5680	-2185	-15624	-272	-11216	743	-5759	-1846	-4272	4472	-10016	894	-1484	-246	-12184	5456	9640	-99	36	-421	-16504	560	-2824	330	876	-239	-14760	4544	4288	1971	2554	-455	89	145	1
-29052	-11604	13180	-618	-5334	-2464	-19216	-80	-11072	1051	-5822	-2011	-3936	4960	-7280	959	-1308	-213	-12672	4544	9920	-114	105	-445	-16024	120	-3368	532	994	-268	-15992	4152	3488	1650	2663	-438	102	142	1
-32768	-3272	12740	-99	-4790	-3154	-22400	-968	-16776	2298	-5738	-2184	-5272	1168	-2736	1492	-1386	-332	-13024	3720	10080	-116	173	-439	-16392	1080	-1632	588	1151	-334	-15976	2024	456	466	2381	-232	78	129	1
-32768	52	7540	-833	-4432	-3968	-22592	-2184	-15720	1988	-5745	-2090	-7424	880	624	1962	-1438	-353	-12976	4360	10632	-102	310	-409	-16600	2216	-1104	236	1324	-481	-16808	3864	-1048	-562	2091	-130	90	132	1
