#Activity	walking 
#ActivityID	1 
#Date 08-22-13-48
acc_rf_x	acc_rf_y	acc_rf_z	gyro_rf_x	gyro_rf_y	gyro_rf_z	acc_rs_x	acc_rs_y	acc_rs_z	gyro_rs_x	gyro_rs_y	gyro_rs_z	acc_rt_x	acc_rt_y	acc_rt_z	gyro_rt_x	gyro_rt_y	gyro_rt_z	acc_lf_x	acc_lf_y	acc_lf_z	gyro_lf_x	gyro_lf_y	gyro_lf_z	acc_ls_x	acc_ls_y	acc_ls_z	gyro_ls_x	gyro_ls_y	gyro_ls_z	acc_lt_x	acc_lt_y	acc_lt_z	gyro_lt_x	gyro_lt_y	gyro_lt_z	EMG_r	EMG_l	act
-11256	-4500	11728	-247	576	492	-16380	-148	-3692	-8781	3525	-1954	-11136	384	4656	498	3020	-6	-15764	11980	13112	7374	-27213	32767	-15056	984	-7280	-3336	-4781	2087	-5848	-2464	-12032	-2312	-323	337	126	127	1
-11160	-3996	11436	-340	529	516	-15860	112	-2808	-7295	3730	-1597	-18904	-4928	-1192	131	3506	71	-19256	13160	16908	11583	-25411	32767	-18576	2064	-8616	-3227	-5066	2066	-4664	-5128	-10248	-2472	73	197	125	132	1
-11140	-3896	11548	-473	676	502	-16552	324	-1268	-5499	4344	-1428	-19648	-4904	-4088	363	2585	179	-26072	20256	20052	11941	-22769	32767	-23104	4488	-11064	-2859	-5475	2124	-4424	-4616	-6240	-2166	190	26	150	132	1
-11028	-5052	11892	-1027	1729	727	-16132	-328	-888	-4691	5867	-2003	-19536	-2448	744	1324	1653	-79	-32768	26032	21328	10092	-25785	32767	-28872	8504	-13736	-3074	-5708	2361	-6016	-2984	-1608	-2295	-254	-10	145	135	1
-11336	-4492	11732	-1438	2592	921	-16748	-36	-956	-5839	7346	-1443	-16080	-2368	8664	730	1743	-63	-32768	31932	8956	-5379	-22124	32767	-30840	7008	-14336	-2985	-5504	2564	-12552	1592	9600	-2508	-1326	166	139	137	1
-11320	-4892	11740	-1536	2703	952	-16216	-2104	2024	-5903	9554	-859	-16152	472	7552	-463	1792	122	-32768	17144	5852	-1451	-25176	32767	-24504	512	-20512	-2324	-4547	1848	-25992	4200	24648	-2995	-2718	590	128	134	1
-11224	-5756	12152	-732	4557	2396	-15684	-2640	3840	-1328	12613	-458	-18928	400	7296	-197	1510	-301	-32768	-14872	-912	16789	-10497	32767	-14200	-1152	-26392	-1333	-2870	1757	-18744	-5824	32767	-2390	-187	114	129	147	1
-11064	-5456	13400	-232	6576	3256	-17352	-404	1040	1878	15732	-249	-18120	-2296	7464	-696	1115	-354	-32768	-32768	-13548	19359	-8588	21720	-7720	-520	-11984	2420	-1831	940	-10712	-6832	32767	634	-255	-283	129	133	1
-11888	-5260	14788	483	9702	4328	-19184	-2276	-1516	2423	18148	481	-19248	-6376	752	-1049	1069	-68	-32768	-12068	-20716	-11930	1510	-15832	-5504	9736	-10688	2052	987	48	-24328	3864	24408	2249	-1309	60	128	128	1
-12180	-6888	15540	921	13772	6448	-21184	-1380	-3152	2915	19895	1111	-19128	-6880	360	-1015	1034	-49	14808	-32768	-2300	-28170	17550	-32768	-17416	24496	4728	176	3864	-1418	-20592	14472	11512	1525	-1603	475	129	132	1
-12024	-5928	16280	324	18984	8763	-22016	444	-4420	2031	21212	1217	-21384	-6008	80	-535	410	-20	-32768	32767	14796	-17251	26742	-32768	-32768	-344	-14208	-5622	5027	-2080	-32768	11576	25256	-1130	-2099	1503	126	151	1
-11544	-4772	17192	-140	26034	9937	-24772	3460	-2168	5171	22113	2489	-23696	-7416	5056	51	335	68	-32768	13616	28876	-13807	26509	-13318	-30600	-10368	-19184	-2717	5188	-1733	-18840	-6824	20152	-3846	-1270	2211	121	141	1
-11700	-6524	19756	613	32767	13670	-27172	3452	2532	5864	24084	2597	-27824	-4376	11136	218	-209	242	0	-7260	17016	-3399	3920	-7434	-15736	-1936	-11664	118	3362	-786	16520	-23328	-32768	6992	6198	-1560	115	109	1
-9732	-13228	19620	1527	32767	23642	-32768	6816	3628	5393	25812	754	-28232	5000	15184	-314	-1241	174	-21940	21724	-3532	-9686	2092	-14603	8744	9848	-15624	3183	2097	-312	-2192	-8768	-22232	2701	-2216	-626	140	181	1
-21484	-18652	20304	-129	32767	31187	-32768	8228	9428	-9065	28653	-2506	-26696	14088	26400	-1918	-4637	898	-9920	224	18760	-9782	-4288	-6597	-11968	8248	-9952	1345	1700	33	-16800	25776	4288	1325	-188	241	131	88	1
-32768	6520	17264	-13260	32767	25517	-30016	-2380	-476	-13742	32553	394	-12920	8344	-8240	-4582	-2220	461	-9276	6496	14816	-5835	-1793	-2721	-32768	-2512	-10176	1069	1865	-384	-32768	-11264	-15808	-1104	2577	1125	109	116	1
-32768	-17012	11668	-21856	32767	19326	-27292	-2952	-5628	-14597	32600	3579	-31200	-12088	-12536	-2897	-2900	-248	-9076	6264	12404	-2732	427	-1195	-12584	1776	-7288	2816	779	-221	-17304	-4904	1032	1269	1448	-221	114	125	1
-26656	-31036	22720	-17673	32767	24153	-19264	-11768	-10348	5967	27698	4164	-27752	744	-16448	224	-3283	-1084	-8752	7948	11656	-1998	1064	-1359	-13640	8360	-4568	1604	856	19	-8016	1904	504	1180	1441	-674	159	115	1
-32768	-27780	18968	6362	14469	22780	-15036	820	-23200	16724	12600	-2617	-30336	9864	-3080	1497	-3466	-941	-9192	6688	11936	-251	2540	-742	-16136	7056	-8912	-609	1421	-184	-18272	2120	1088	273	1565	-395	156	137	1
-10676	-18304	23936	7296	-23198	-1332	-11032	8380	-5564	6746	1075	-4411	-27704	6632	-4704	535	-3253	-759	-9384	7936	11268	1026	3116	95	-18160	1600	-6016	-1106	1361	-211	-20912	3488	-1376	-266	1854	-174	128	129	1
7876	-10312	19280	7186	-26753	-7074	-6024	6180	-768	-3198	-7471	-4386	-23896	4472	-2864	-789	-3158	-993	-9400	7340	11364	1712	3246	-459	-16304	1728	-7192	467	672	13	-17608	1320	304	-196	1876	-617	120	135	1
4984	-3328	15428	1766	-23055	-12419	-5184	5344	-3596	191	-14363	-4784	-20736	3192	-4992	-1309	-2643	-382	-9556	7948	11540	1434	3187	-661	-16016	5608	-6024	1268	300	89	-15536	2072	1104	80	1896	-596	126	126	1
-2524	-2160	15892	-2873	-23306	-18539	-5196	4052	-7320	343	-20420	-4171	-19400	3816	-6672	-1419	-2537	-182	-9644	8084	10668	1697	2750	-1082	-14928	7776	-4936	976	318	68	-16296	4512	1888	-333	1934	-220	136	127	1
-8732	-3084	15656	-2715	-29595	-22564	-6568	4568	-9016	-2204	-26498	-2683	-16936	3384	-7504	-1398	-2417	-312	-9784	8296	10504	1389	2640	-1385	-14424	8232	-4016	62	549	-84	-15712	3408	2200	-807	1958	-319	125	135	1
-11124	-928	15264	991	-32768	-23788	-6500	3592	-8064	-3793	-32382	-1119	-12608	368	-8368	-1392	-2325	-525	-9916	8184	10368	995	2476	-1596	-15032	6432	-4344	-432	722	-199	-15232	1792	1928	-713	1950	-460	122	128	1
-11812	3080	14672	1757	-32768	-23968	-6668	3500	-7168	-1257	-32768	214	-10160	-1192	-8424	-856	-1827	-446	-9840	8288	10100	221	2189	-1895	-14520	4616	-4880	-41	632	-184	-15016	2312	1784	-457	2015	-330	124	124	1
-13032	3480	15320	103	-32768	-23674	-9112	2444	-7612	3775	-32768	2071	-8840	-1288	-9432	-144	-1322	-288	-9948	8164	9964	-800	1707	-1979	-13552	5664	-4384	465	506	-135	-13960	3208	368	-269	2111	-169	139	127	1
-16416	1384	16480	-1232	-32768	-22097	-10160	2280	-9132	9049	-32768	5094	-7592	-1168	-10504	786	-945	-253	-9852	7676	9904	-1898	1257	-2012	-13184	6296	-4328	249	589	-199	-14408	3280	-216	-139	2238	-114	129	125	1
-20848	-748	17928	-1743	-32768	-21397	-10096	3660	-10244	8449	-32768	10824	-5136	-176	-11976	2218	-576	-393	-9760	7720	10256	-2481	1026	-1761	-14488	5504	-5432	-248	765	-286	-15072	2264	2032	-349	2443	-99	119	126	1
-24184	-2384	19024	-2226	-32768	-22748	-13272	3808	-9952	166	-32768	13071	-3208	1832	-12112	2988	-23	-288	-10028	7044	10688	-2007	1086	-1906	-16680	2232	-5504	-151	753	-274	-15376	-1024	5320	-836	2851	-43	122	127	1
-23924	-4656	20648	-2853	-32768	-24163	-19468	2388	-10036	-2520	-32768	15715	-2360	1856	-9216	2938	130	-81	-10068	6860	10784	-985	1519	-2057	-16624	2608	-5240	652	576	-133	-13896	-3888	3784	-926	3405	-233	127	133	1
-32380	-13464	27828	-2767	-32768	-22557	-29016	-1340	-13040	208	-32768	17713	-3424	-1496	-5536	2862	154	39	-10044	7304	11052	-165	2178	-2622	-16208	5128	-3800	951	592	-61	-15960	-952	1320	85	3228	-82	127	138	1
-32768	-19532	4864	6000	-32768	-25498	-30484	756	-12060	-5241	-32768	17290	-8176	-2544	2856	1923	-103	254	-10040	7832	11168	317	3269	-3446	-15528	6192	-2960	735	788	-176	-20064	848	-1888	-306	2224	-161	103	132	1
-32768	-5820	64	4158	-32768	-17012	-22732	-1976	-16664	-2461	-32768	10502	-26544	-1232	20640	2318	-2051	199	-10168	8620	11064	81	4257	-4908	-15744	6616	-2584	768	827	-166	-17128	7144	6336	-703	1712	-183	156	131	1
-32768	12380	-15736	-6096	-32768	-25276	-16288	5408	-20140	-16204	-32579	3804	-30520	15832	32240	2600	-1365	-331	-10420	8940	11508	-858	5459	-6086	-14720	8968	-1608	925	1264	-529	-15096	4624	9128	549	1847	-186	112	133	1
-32768	24136	-27952	-17363	-23701	-22428	-6516	-5580	-7860	-31831	-14109	-47	-2200	17592	32767	-1645	-720	2102	-11008	8656	13104	-2185	7063	-8322	-16560	9896	-2952	700	1580	-787	-19648	3832	3576	670	1628	35	81	136	1
-32768	15184	-32768	-6667	-1895	2295	-5556	-12820	-10492	-4625	5960	864	-25056	3744	23328	-1059	-1334	1059	-11396	10544	13560	-2738	9760	-11282	-19416	8968	-3656	775	1814	-1024	-20552	7896	2928	619	1008	-83	121	138	1
-32768	10840	-32768	14606	20797	32767	-11916	-10992	-15144	15160	22800	-5037	-18472	-5800	15616	-1875	-1518	-255	-11448	11476	15096	-2343	13417	-16001	-21928	7488	-4448	1134	1928	-1137	-21488	3680	3632	704	584	-62	159	136	1
-19992	1240	32767	-1518	32767	26268	-32768	4500	22348	32767	25797	3083	-17040	-5688	16560	-1800	-1530	-304	-10968	11748	17108	-2304	18416	-21187	-25112	8504	-4280	1239	2023	-1293	-24552	5456	5088	707	479	-54	141	129	1
-32768	-10660	11556	14624	32767	22746	-32768	2088	-20296	32767	26286	854	-21752	3168	32767	-689	232	-798	-11736	14048	17956	-3331	24637	-27476	-27928	9512	-464	1180	2205	-1412	-27056	5984	14960	205	-207	-18	135	134	1
-32768	-4288	23728	10948	18723	13916	-16508	5760	-14636	6956	26620	-14204	-14944	11784	-32768	-5014	2931	-961	-11152	19288	19580	-3271	32042	-32768	-32768	13376	8176	1751	2273	-1406	-30472	2544	23808	580	-1909	45	140	139	1
-19308	-11520	13020	2942	18326	11614	5156	648	-12928	-15984	25811	-8848	-4744	-4632	-10152	-847	-274	1052	-22568	22928	19464	-981	32767	-32768	-32768	18464	6592	3119	2287	-1300	-28488	-4160	19720	2149	-3835	-596	155	133	1
-11716	6048	17588	7826	-3438	9553	-14248	-18940	-12088	-6267	15783	-15258	-13688	-10064	-18584	550	28	534	-30732	26140	16924	8667	32767	-32768	-29784	19168	-5568	3799	2113	-1741	-22680	4488	-792	1476	-2488	-325	119	129	1
-12692	2256	15168	3134	-904	2550	-25308	6436	-12596	4276	14046	-6480	-32768	3600	-14224	12	1796	-169	-32768	32188	8552	4233	29478	-32768	-19216	15008	-5240	4079	2023	-1715	-27080	5376	-16632	1161	-2528	572	164	132	1
-11116	-6004	11808	1932	-1256	899	-14720	468	-8108	-15605	12747	-4559	-20976	-2224	-5568	-943	1619	-242	-2216	32767	13724	-2429	17931	-32768	-16312	11952	-15400	309	2705	-1284	-32720	-3432	-7464	-453	-3392	921	133	123	1
-10752	-3496	13168	1759	-406	1720	-15448	-1360	-9344	-17074	11800	-6482	-13704	-1768	-2400	-604	1283	422	-32768	22524	10308	-5344	-9845	-24528	-14656	-792	-21496	-2065	2094	-868	-29776	-9136	-2904	-576	-3379	599	117	130	1
-11220	-2052	12592	538	1566	142	-18236	-4024	-8728	-9365	8296	-4157	-23672	-2384	-5872	-273	1547	359	-236	27720	8872	-3191	-22159	3054	-15528	-4800	-3280	-191	185	263	-29752	-6560	-4488	605	-3103	640	133	149	1
-11280	-4284	12116	186	788	-149	-17492	-2096	-7852	-3789	5085	-3620	-19272	-2872	-2240	366	2131	217	11444	16280	5836	-2794	-14331	9713	-8104	-5408	-688	1643	-1242	1114	-25720	-3920	-5016	1409	-2936	1058	135	119	1
-11344	-3092	12772	-547	1524	-413	-17208	348	-7832	-2167	3558	-1887	-19056	-3176	-2656	783	2208	502	4792	7912	6524	4330	-7132	17363	-6136	-2528	-2032	962	-1638	1521	-20256	-3048	-4968	1731	-2608	1081	134	132	1
-11376	-3792	12308	-1014	2114	-614	-15872	664	-6744	-3966	2440	-992	-16888	872	-848	1056	2098	419	-1852	7952	8576	13401	-5743	28461	-6496	-2472	-4104	-352	-1859	1810	-16072	-3864	-5752	1636	-2286	911	128	131	1
-11340	-3976	11896	-1438	1960	-500	-15848	1168	-4876	-8046	1917	-1385	-16256	1480	912	837	2061	387	-5392	12112	9772	12265	-8818	32767	-6496	-2232	-4048	-827	-2347	2164	-14696	-3520	-6232	1406	-2183	815	120	128	1
-11288	-4124	11796	-1628	1987	-234	-15764	-216	-3012	-9063	2229	-1664	-15416	-904	672	628	2124	338	-6620	11568	11444	4336	-13455	32767	-7984	-1736	-3512	-1156	-2757	2454	-11072	-1544	-6712	1369	-2020	684	127	132	1
-11256	-4884	11528	-1385	1784	54	-15696	-1840	-1632	-4531	2300	-1836	-14656	-2696	-1144	448	2336	292	-7724	6012	13860	1313	-16679	32767	-9504	208	-3552	-2036	-3030	2569	-9720	624	-7344	1076	-1656	813	133	145	1
-11432	-4040	11344	-595	1462	380	-14616	-516	-2976	619	2333	-803	-12888	-2744	-600	79	2822	291	-9336	4376	16172	4891	-18886	32767	-10664	752	-4824	-3192	-3328	2493	-9888	352	-7696	627	-1263	797	128	130	1
-11744	-3448	10640	-61	729	160	-13980	440	-4948	180	2377	-248	-15536	2008	6688	59	2276	65	-12920	7148	17252	7685	-21756	32767	-12304	128	-6240	-4086	-3630	2405	-8288	-40	-9496	-137	-995	679	135	134	1
-11680	-3592	10480	-124	547	209	-15240	2644	-3452	-7553	2835	-1315	-8616	4480	9312	776	2619	-311	-15728	8868	18256	7824	-25694	32767	-14304	-1704	-7288	-4389	-4129	2285	-5968	-824	-10128	-1195	-716	496	128	133	1
-11256	-3960	11308	18	57	853	-15988	424	-2360	-9726	3927	-1774	-15344	-32	7584	173	3526	165	-17216	9112	20296	8715	-27529	32767	-16944	-3248	-7576	-3855	-4757	2020	-4696	-1512	-10544	-2011	-480	335	131	130	1
-10972	-3964	11848	4	248	1265	-16740	544	-1928	-6133	4406	-1566	-21312	-6960	328	-951	3497	451	-21268	12344	21736	8967	-27956	32767	-19224	-1496	-8024	-2707	-5506	1904	-4184	-2896	-10320	-2635	-152	202	123	129	1
-11256	-3736	12120	-552	1067	904	-17296	1692	-2368	-3815	5332	-1002	-19736	-3352	-4232	912	2408	17	-27600	16060	23828	8739	-28566	32767	-22656	3096	-9736	-2040	-5931	1957	-3432	-3416	-9432	-2924	120	-73	150	134	1
-11388	-3800	11948	-1011	1910	1043	-16148	1248	-1568	-5569	6707	-1380	-15912	-2136	3160	1858	1873	-83	-32768	21740	25960	8824	-30780	32767	-23856	4104	-10600	-2020	-5977	1981	-6416	160	-1376	-3216	-232	-104	144	132	1
-11400	-4228	11560	-859	2385	1090	-15060	-932	1236	-4485	8628	-319	-14160	-1904	10904	157	2028	256	-32768	8780	26784	12064	-30489	32767	-30816	9960	-12128	-2214	-6128	1907	-12424	4008	2024	-2593	-1013	223	144	132	1
-11344	-5472	12416	-251	3548	1558	-16172	-3500	3340	-302	11337	618	-14376	-968	10904	-168	1992	276	-32768	20192	2152	8217	-31295	32767	-18144	8248	-16408	-2505	-4754	1583	-25144	-320	21088	-2921	-3350	1537	126	135	1
-11500	-6136	12976	141	5594	3417	-18328	-992	2252	1365	14376	722	-20432	-1568	6224	-86	1383	-268	-32768	-32768	-10176	13860	-23653	23856	-15632	-4848	-19144	245	-3427	2577	-15792	-8624	32767	-4642	-1093	-946	123	137	1
-11988	-5284	14556	732	8443	5627	-18792	1380	-304	473	17475	794	-18016	-2456	4904	-976	1018	-199	-32768	-32768	-12444	32767	-2011	17476	-712	8168	-10656	3503	-1133	924	-13808	-15752	32767	1837	125	-1077	132	152	1
-12312	-2492	16616	1501	12587	6411	-19684	-792	-2684	3736	19729	2087	-20216	-6952	328	-760	979	47	-32768	10668	-18048	-8457	1495	-13544	-6120	11840	-15136	1363	1736	-695	-23944	880	13560	3222	-1928	685	124	130	1
-11748	-6440	16492	767	17990	7871	-23184	1608	-3292	4737	21296	3119	-22024	-4664	824	-718	579	239	-32768	-15912	1184	-32768	2142	-27224	-12696	3424	-19880	-1474	4249	-1680	-11344	13880	5752	2828	-1371	491	131	149	1
-12036	-6984	15660	-44	23895	10579	-22028	2764	-2912	2190	22891	2379	-20736	568	3160	-690	51	151	19788	32767	11436	-23489	10336	-15847	-32768	12648	32064	-347	3340	-1088	-6368	8160	-2960	1376	426	682	134	149	1
-11764	-5628	17412	625	30461	15046	-24372	2056	-1736	1652	24121	2931	-21960	-3256	7736	-578	93	91	19288	-32768	22744	-27367	32250	-30439	-29576	-5328	-5168	10	3422	-1148	-31432	3648	24704	-2381	-376	2085	117	148	1
-9408	-7384	19820	2185	32767	23414	-29332	4180	920	3636	24959	2965	-26688	-4640	14336	-480	-129	217	-32768	544	32767	-11081	32767	-15809	-26808	3152	-14048	-2350	4535	-2205	-18384	5760	376	-2330	1609	-851	120	115	1
-11768	-15532	19224	1538	32767	30524	-32768	11232	9088	-7207	26111	1921	-29240	1544	27384	-961	-2249	599	-12836	19864	7308	506	16914	-23219	-10208	-3880	-13672	-1375	3778	-1778	-13456	-32768	-14368	592	2050	-1660	124	127	1
-32768	-9336	15792	-5341	32767	32767	-32768	3468	7044	-12940	31803	107	-29288	-1528	29176	-3014	-5177	1103	-13720	-3696	10852	-18388	1757	-17618	-4656	9976	-18848	1277	2421	677	-7928	-32768	-9344	513	1321	-595	129	122	1
-32768	-10960	13988	-21532	32767	20970	-31868	-6204	-3264	-21263	32237	6760	-24080	-1440	18232	-3180	-5273	1119	-14168	8300	12808	-8181	-632	-6364	-24688	-4872	-16232	-749	2348	-375	-28680	9784	-16352	1267	1468	389	125	120	1
-32768	-23888	13476	-20143	32767	28532	-25244	-10644	-3796	5040	29408	8303	-30664	-11840	-18264	46	-2735	-863	-10524	6748	12240	-2491	2067	-1823	-16640	-528	-12672	1845	1421	-141	-24688	-128	-6176	622	1621	-147	130	122	1
-6348	-32768	18400	-83	32767	32767	-17456	-11348	-20152	18040	22180	6786	-29976	6024	-10168	1050	-3349	-1148	-8436	9252	10520	-1619	1634	-2239	-15968	5456	-8112	4340	388	306	-14576	3168	-2952	931	1657	-219	136	111	1
-32488	-26508	19792	14987	-2603	17379	-17252	1676	-20512	24802	8914	-1229	-31736	5760	-4288	1522	-3447	-958	-9284	7844	11460	-353	2752	-1885	-13664	13680	-8096	1804	742	-50	-17560	3232	-1504	341	1758	106	153	134	1
-8084	-19140	18164	16935	-28362	-3638	-12612	8376	-6180	13700	-2488	2090	-29696	3616	-5048	614	-3068	-1348	-9556	8812	10740	168	3033	-1817	-15528	7544	-7872	-1243	1324	-402	-19552	1984	-2336	144	1768	-403	146	127	1
4720	-8696	13628	13537	-28940	-8979	-3448	1892	-3792	2511	-9809	-925	-24680	3080	-4472	-369	-3072	-1260	-10052	7540	11344	1474	3558	-889	-18224	928	-7992	-1334	899	-301	-20136	2760	-1952	-270	1867	-440	127	129	1
2492	-5060	10200	6102	-25551	-13641	-3752	2152	-5624	3619	-16493	-895	-19800	2784	-5800	-424	-2369	-749	-10540	7176	9392	3078	3373	-600	-16312	800	-7200	135	483	-33	-18208	144	-1592	-580	1925	-779	137	126	1
-5372	-3608	9700	-970	-27402	-19010	-2960	1816	-8024	3033	-22020	-2110	-16504	4896	-7248	-468	-2338	-672	-10000	8500	10104	2113	3004	-333	-15456	4056	-6216	1236	56	207	-15872	408	616	-607	2018	-353	132	133	1
-8752	-6228	10452	-2514	-32768	-23113	-3996	2680	-8524	-1126	-27270	-103	-14320	3896	-7496	-624	-2212	-583	-9900	8724	9804	1761	2323	-596	-14320	7744	-4560	1204	-35	215	-15384	1152	1680	-581	2058	-131	117	125	1
-9464	-5372	10756	933	-32768	-24571	-5780	2404	-7300	-5975	-32565	-279	-13304	1904	-7912	-547	-1951	-589	-9956	8280	9992	1493	1872	-703	-13920	7976	-3152	178	308	39	-15144	1504	2128	-471	2031	-193	115	122	1
-10704	-1556	11276	2517	-32768	-26540	-6168	1152	-6992	-3841	-32768	-30	-11144	240	-9272	-498	-1724	-782	-10000	7908	9784	989	1629	-592	-13824	5576	-3304	-315	524	-83	-14384	1880	1792	-148	2048	-303	132	120	1
-12324	-740	12660	1407	-32768	-28234	-8748	420	-6876	2742	-32768	1618	-8136	-168	-10120	-500	-1394	-927	-10008	8700	9076	250	1264	-690	-13528	5400	-3536	191	444	-60	-13728	3168	1272	183	2129	-169	135	124	1
-17028	-3260	14800	595	-32768	-27699	-10996	-648	-8864	9870	-32768	3315	-7040	-1112	-10808	674	-1076	-558	-9556	8448	9024	-929	837	-924	-13176	7032	-4344	432	428	-38	-13920	3536	1200	361	2380	-32	125	124	1
-21344	-4276	16516	922	-32768	-26178	-10648	600	-10484	12310	-32768	6598	-6440	-688	-12888	2112	-675	-625	-10020	7428	9352	-2375	380	-1185	-13296	6768	-5984	38	537	-120	-12920	3200	3264	-19	2770	111	122	127	1
-24936	-5048	18796	340	-32768	-26358	-13940	2188	-11044	7811	-32768	9336	-5312	1552	-13984	3362	-204	-613	-9700	8692	9424	-3606	-141	-1091	-14904	5640	-4824	-28	580	-125	-12272	1248	5192	-1115	3304	-61	121	132	1
-27908	-7692	21264	596	-32768	-28036	-18916	1752	-10864	4489	-32768	12360	-3216	3072	-11328	3460	71	-397	-9768	8984	10000	-3317	-158	-1728	-16592	3800	-3456	360	574	-52	-15960	48	1008	-529	3336	27	129	132	1
-32768	-10736	24612	1404	-32768	-30145	-25232	-28	-12472	4486	-32768	14721	-2592	2240	-9696	3258	278	-255	-9936	8124	11100	-1484	899	-2512	-18224	3688	-2304	980	531	54	-21056	-168	-2832	-36	2273	-89	128	136	1
-32768	-16816	26912	3643	-32768	-30674	-32768	504	-14180	3562	-32768	16233	-4704	-1216	-2696	2864	111	56	-9868	7532	11512	97	2170	-2790	-16504	6152	-1736	935	676	-84	-19312	3064	4096	-1095	1832	-320	128	134	1
-32768	-13416	10568	6142	-32768	-31139	-28720	1480	-23812	-1972	-32768	12930	-16984	-1168	10696	2010	-1022	240	-10212	8372	10780	540	3682	-3002	-14504	9048	-488	743	978	-245	-13752	3288	10480	-244	1960	-218	120	132	1
-32768	-2932	-7776	1530	-32768	-19850	-23444	7828	-19596	-12971	-32768	1326	-32768	9368	32767	4239	-3294	-1059	-10564	9944	10540	-150	4906	-4021	-12752	12056	1032	828	1327	-447	-17016	2544	9592	742	1783	113	143	131	1
-32768	32767	-26360	-32768	-31018	-17368	-10984	-7256	-17140	-32768	-24959	-7923	-560	4992	32767	-1285	457	1401	-10056	10108	12276	-1215	6561	-6902	-16408	10368	-1856	591	1796	-751	-19288	7472	4336	618	1356	315	116	135	1
-32768	23372	-32768	-32768	-13363	-7276	-344	-12932	-10956	-16089	2742	2240	-19696	3640	32767	-1227	-1418	1125	-11000	10184	13996	-2830	9158	-9902	-18960	9688	-5224	557	2053	-1009	-19520	9720	2328	748	1014	52	96	142	1
-32768	3864	-28208	14553	2966	32767	-7568	-2084	-15604	-5278	21852	-3277	-21328	1016	10704	-2619	-1624	-179	-11384	11824	14184	-2394	12357	-14697	-21024	7256	-5016	1081	2066	-1061	-19912	1032	528	893	370	-30	115	129	1
-32768	12148	-7620	14806	12466	32282	-15284	-7304	-20592	17594	32767	-2200	-6976	800	10904	-2398	-1044	226	-11064	11688	14920	-609	16044	-20414	-22936	3792	-5256	1644	2081	-1006	-19792	-4424	4136	1193	98	82	127	134	1
-23904	-32768	32767	16643	21023	13357	-29016	14660	20376	28323	23787	2262	-5456	8072	-1744	-3549	1183	125	-11236	9624	17048	-10	20777	-23362	-25072	4392	-6120	1769	2132	-1030	-23728	-696	6768	1437	191	25	134	134	1
13888	14020	9332	6688	23826	9468	-27144	604	4492	32767	12145	-5439	-18096	8264	-12088	269	940	269	-11380	12696	17580	697	28352	-28731	-30960	5904	-1944	1783	2163	-1109	-26672	5344	13720	1300	-313	-8	144	140	1
-32768	7900	30748	6658	32767	3086	-28908	3956	-14644	32767	22239	2612	-32768	-32768	19928	3607	-1359	-2583	-8744	19468	18944	1753	32767	-32768	-32768	11336	6664	2873	1984	-1050	-26672	5000	24128	2016	-1738	-237	124	135	1
-18560	200	16788	-1503	23513	17790	-20080	15592	-12824	18209	21031	-10904	-6400	32767	-10896	670	3289	1330	-28128	15224	18136	9231	32767	-32768	-32768	17016	3976	4086	2041	-1271	-24264	-3424	20152	2608	-3238	-1121	131	119	1
-29396	-9672	2256	11673	8965	15962	-15132	-21808	-13404	-15717	22400	-14904	-14712	7032	-17456	-2864	-475	-89	-32768	32767	15336	13200	32767	-32768	-25640	26568	-1736	4388	1909	-1481	-22680	9456	-1648	1685	-2567	-635	143	125	1
-23028	-3496	10476	6654	149	7972	-13944	-8780	-17020	728	13428	-9689	-18104	-17088	-11672	-2170	727	-412	-32768	30000	11052	2507	29304	-32768	-18072	16880	-5576	2859	2418	-1818	-29584	9288	-20712	252	-2697	467	109	128	1
-13488	-1384	13000	2880	-880	2372	-19192	1712	-13660	-5052	11920	-6814	-22832	-5336	-9872	-84	1477	-76	-1500	32767	14856	2846	18598	-32768	-18200	9568	-13528	-200	2753	-1565	-32728	-1824	-4832	-705	-3437	854	151	129	1
-10788	-5624	12564	2137	-418	917	-15968	2284	-8680	-21123	12537	-5679	-20784	1520	-5360	-141	1383	-14	-31168	21604	15692	8199	-11143	-24734	-14560	-544	-23464	-2197	1933	-1279	-31952	-5944	-4152	-481	-3222	663	128	130	1
-10936	-3384	12836	1545	2072	324	-17360	-5696	-8292	-14221	9233	-4970	-17360	-208	-488	-385	2040	331	-2516	32364	8904	5168	-29019	-515	-14232	-3056	-5328	-83	-94	-14	-31880	-6208	-5056	258	-3109	710	135	150	1
-11504	-2596	12376	-399	2111	-322	-18640	-3116	-7760	-952	6348	-3738	-19192	-1112	-2232	-130	1989	473	9928	22404	4396	-3070	-25713	4450	-6840	-3160	-1944	1598	-1576	858	-26688	-2232	-5440	941	-3011	1109	128	129	1
-11196	-3704	12376	-1083	1430	-839	-17820	400	-6668	-1176	3620	-3854	-17400	-2040	-2120	308	2059	433	4128	11516	3800	-3319	-19363	10779	-4632	-480	-4816	1118	-2090	1286	-19384	200	-5832	1459	-2536	1219	118	135	1
-11604	-4844	11612	-1205	1386	-1208	-15976	644	-5212	-10266	3191	-2204	-17440	-1720	-2096	493	1955	396	-2308	6944	5112	6865	-16801	23860	-4496	-336	-6440	-280	-2434	1515	-15008	1208	-7360	1089	-2125	1204	129	133	1
-11356	-5048	11152	-1055	1084	-724	-15032	-868	-4268	-15934	3453	-2400	-17032	-1592	-2048	487	1930	401	-4316	11296	5312	12023	-16372	32767	-5376	168	-5960	-1004	-2835	1859	-14688	448	-7608	764	-1852	983	121	128	1
-11336	-4792	11368	-864	713	-327	-15912	-1312	-3356	-15052	3317	-2082	-15512	-2448	16	523	1870	175	-7352	13472	6316	8478	-17108	32767	-5920	960	-5776	-1502	-3198	2173	-12328	-952	-7904	641	-1586	903	108	129	1
-11284	-4120	11448	-715	626	-242	-15636	-1744	-2312	-9096	3087	-2120	-14880	-1664	-712	619	2051	92	-9668	11376	8400	4420	-18877	32767	-7336	1776	-5232	-2056	-3460	2402	-10376	-856	-8872	300	-1393	931	133	130	1
-11248	-4380	11368	-389	591	-231	-15404	-1676	-2208	-1609	3023	-1221	-14136	-1336	-1144	215	2440	183	-12332	9920	11004	5189	-20408	32767	-9648	2472	-6440	-2829	-3705	2528	-8624	-304	-9048	-136	-934	887	130	132	1
-11244	-4704	10860	-139	476	-8	-14848	-240	-4464	1105	2778	-510	-17264	3144	5672	-380	2101	-2	-15192	10956	13032	8010	-22352	32767	-11544	2944	-7416	-3829	-3945	2517	-7368	-520	-10448	-781	-651	851	133	129	1
-11164	-4840	11328	-314	46	495	-16192	2364	-3924	-7192	3115	-1427	-10144	3064	10632	-28	2492	-329	-18200	13620	14864	9739	-23941	32767	-14592	1624	-8304	-4389	-4315	2479	-6176	-1312	-12104	-1768	-366	798	130	130	1
-11296	-4052	11212	-275	-12	653	-15804	120	-3444	-10682	3995	-1835	-14312	-368	7040	-180	3716	25	-21176	14984	17064	10359	-24549	32767	-17896	1264	-8344	-4367	-4731	2361	-4976	-3176	-12624	-2625	-21	590	130	134	1
-11152	-4324	11768	-359	228	614	-16560	-100	-2088	-7135	4303	-1551	-19680	-6440	-3776	-1036	3468	306	-23424	16660	19968	10919	-21677	32767	-22712	1984	-8464	-3695	-5285	2237	-4936	-5512	-11312	-2980	141	295	120	134	1
-11120	-4480	11944	-732	1030	631	-16868	584	-1688	-4750	5176	-1455	-20240	-3248	-6712	892	1942	25	-32768	25744	23652	9866	-19810	32767	-30336	5152	-16832	-3742	-5479	2291	-5256	-4400	-4408	-3138	-387	96	135	137	1
-11264	-4704	11664	-1072	1703	948	-15892	756	-1524	-5452	6413	-1923	-16720	-2856	6080	1496	1649	-178	-32768	23688	22436	6958	-23209	32767	-31752	6608	-16072	-3634	-5644	2459	-8952	224	3728	-3153	-1449	158	143	135	1
-11360	-4564	11764	-1042	2406	1129	-16152	-776	436	-5775	7979	-1221	-14696	-2144	10424	-55	1973	152	-32768	9588	16304	12386	-21344	32767	-31136	5824	-16080	-3647	-5583	2467	-18904	2872	16744	-3158	-3080	586	139	130	1
-11244	-5648	11596	-623	3292	1946	-15360	-2516	4320	-3025	10861	-410	-18192	672	7176	-217	1807	75	-32768	-2116	1464	15698	-18066	32767	-19600	1696	-16520	-639	-4738	2043	-27088	-8736	31656	-3901	-2433	196	130	174	1
-11052	-6276	12756	101	4943	2973	-16296	-2560	4120	2090	14454	-247	-19464	-2128	9752	10	1263	-338	-32768	-32768	-5824	29335	-14082	25493	-4864	3584	-17128	1831	-2939	1693	-4480	-1680	32767	1366	-394	-192	134	141	1
-11372	-4592	14076	770	7681	4148	-17984	-96	-448	3164	17399	-10	-17208	-3592	5616	-578	1077	-239	-32768	-32052	-14668	20360	-9391	-1527	1136	13904	-13344	3020	-78	298	-23904	-2376	29984	2948	-1318	-417	129	132	1
-12464	-5252	15140	1573	11296	5020	-19944	-2412	-2940	5626	19434	1266	-20048	-7200	-424	-727	1036	131	-32768	-10148	-6176	-21154	-16566	-32768	-12672	5104	-17000	267	2604	-883	-20664	6696	13856	2955	-2112	297	128	132	1
-12416	-7124	15296	863	15741	8140	-21532	136	-3424	2865	21256	865	-21096	-1024	-328	-693	385	18	-32768	-14044	3868	-16216	-7367	-32768	-17440	-5464	-21304	-880	4410	-1744	-8320	5544	2688	1512	-806	729	131	158	1
-12084	-6028	15652	-536	20783	11184	-21216	3044	-4012	-370	22934	45	-19528	2144	3808	-881	43	-145	3348	32767	23968	-32768	10653	-26554	-32768	-5984	32216	2911	2145	-864	-5856	-360	-4992	2336	549	605	125	136	1
-11616	-4436	17288	-1350	27505	12647	-23760	3724	-4164	122	24023	722	-22200	272	6304	-1237	158	-112	23108	-9068	12088	-19013	25075	-22096	-27120	5952	2096	3287	2008	-859	-18168	1520	19944	-2425	498	102	127	129	1
-10780	-5248	19188	-1508	32767	16534	-27640	6852	-2236	1733	24686	717	-22360	-96	6360	-1206	165	-88	-32768	4128	32767	-9408	32767	-22514	-25656	7224	-23544	-3610	4583	-2773	-31744	12472	18416	-4299	44	-237	86	122	1
-9508	-12704	19544	208	32767	23575	-32768	9820	5044	-5272	25971	-471	-25344	1240	19296	-1282	-961	419	-20136	32767	-72	-10588	13377	-16640	-15912	-1888	-17440	-2513	4085	-1500	-17104	-32768	-15344	3181	2845	-1877	130	135	1
-27020	-13372	16968	-5224	32767	30721	-32768	6092	9668	-19737	30414	-1344	-28664	2480	18152	-3733	-4313	1218	-17284	-7700	14628	-13365	2276	-19567	-6320	896	-26056	-222	2297	-776	4664	13880	-7912	4274	-579	1528	132	100	1
-32768	-3400	15460	-16982	32767	25271	-29024	-8820	-3584	-21637	32767	513	-20304	-2624	3808	-3110	-2159	483	-10808	3600	15944	-9288	122	-5690	-17072	-4440	-12944	843	1855	-213	-25880	10280	-14928	957	1636	-933	125	124	1
-32768	-12712	10588	-23779	32767	22116	-28736	-10096	-3656	-17147	30806	5506	-31904	-14504	-16008	-1500	-2510	-126	-10812	5464	12604	-3983	2073	-1929	-21000	-696	-12688	2356	1238	-372	-29528	-504	-6784	91	1645	-275	127	118	1
-32768	-23200	17636	-23351	32767	23435	-19248	-9552	-1024	14404	24686	8563	-31352	-3520	-19320	171	-2877	-1113	-10524	6760	11268	-2649	1683	-2050	-13736	10104	-8760	3464	396	17	-16040	216	-1216	401	1771	141	133	127	1
-32768	-28128	16328	-4379	18035	22410	-13976	-8308	-29712	15708	16157	5478	-31144	4200	-3264	2064	-3544	-1052	-9192	7852	11436	-697	2552	-1394	-14960	8680	-7504	589	979	-268	-16160	-1248	-120	173	1886	77	125	122	1
-16836	-29976	20748	10166	-25776	33	-16668	3744	-12660	13397	1927	974	-30272	2088	-5192	1850	-3359	-1097	-9676	7384	11292	816	3381	-860	-16632	5632	-8512	-1552	1377	-441	-18952	-376	-1384	246	1784	-392	152	130	1
4296	-14780	15676	21421	-32768	591	-15108	3400	-9028	11676	357	1787	-27664	3664	-4584	428	-3020	-1340	-10004	8048	10900	1786	3746	-77	-17432	1336	-8592	-948	851	-167	-19960	3080	-2552	106	1737	-667	140	132	1
5368	-3224	11592	15671	-31287	-2181	-2360	-608	-4332	8057	-15510	366	-19952	-584	-4712	-444	-2512	-1099	-9804	7944	9336	2657	3013	-214	-15656	3168	-8392	894	258	29	-18744	5472	-1688	-130	1817	-791	124	128	1
-3296	-936	10076	2384	-31140	-11109	-4244	732	-8068	10684	-20960	1537	-18112	576	-7600	-731	-2165	-886	-9980	9308	9684	1711	2340	-574	-14688	7624	-6008	1608	-79	206	-15520	4104	-200	-525	1926	-491	137	127	1
-4564	-1884	10076	346	-31971	-12756	-3328	1544	-8032	2854	-26364	3157	-15712	280	-7960	-265	-2017	-731	-9996	8596	9872	1349	1840	-975	-14096	8744	-5296	851	50	18	-16040	1760	1800	-707	1944	-483	136	131	1
-8764	-10332	8904	-1030	-32768	-19855	-5764	40	-7220	-2147	-31723	4440	-13992	-576	-8304	456	-1910	-694	-9960	8324	9968	1265	1649	-1088	-14800	6816	-4200	-26	317	-96	-15840	-48	2208	-516	1931	-350	136	125	1
-11504	-7272	8716	2478	-32768	-21835	-6808	540	-6812	-2820	-32768	3760	-12360	1464	-8344	649	-1665	-671	-9980	8176	9960	1299	1496	-1105	-14768	5112	-4080	-106	390	-111	-14880	792	2472	-135	1922	-234	83	141	1
-13592	-5580	10352	2669	-32768	-25530	-8316	648	-7136	-2316	-32768	4547	-9416	1392	-9176	583	-1468	-737	-10084	8392	9432	853	1188	-1180	-13784	5520	-4160	388	288	-79	-14608	3240	1160	253	1983	-262	135	127	1
-15560	-6224	12152	1504	-32768	-27962	-11824	-752	-7812	-53	-32768	4684	-7104	448	-10128	1032	-1220	-673	-10296	8136	9000	-74	817	-1280	-12520	7088	-4432	583	252	-91	-13808	3976	-664	511	2159	-237	132	130	1
-19016	-7068	13984	366	-32768	-28293	-11172	-1484	-8908	5368	-32768	6262	-6896	0	-10704	2150	-903	-492	-10048	8256	8972	-1446	686	-1320	-12592	7112	-4192	223	396	-175	-13568	3328	-896	479	2485	-169	123	130	1
-23184	-7876	16020	-1411	-32768	-27981	-13008	-216	-9848	4874	-32768	6518	-5344	2032	-11976	2928	-416	-582	-10184	7192	9268	-2756	46	-1447	-14248	5792	-6984	-247	525	-207	-13304	1912	4984	-575	2744	109	126	129	1
-26396	-9420	18556	-2429	-32768	-28933	-17416	20	-9708	4025	-32768	7565	-2968	4936	-10240	2752	-97	-328	-10192	8620	9456	-2707	290	-1797	-16992	3344	-5664	156	432	-140	-14040	-2248	4664	-1295	3466	-177	124	134	1
-31644	-10916	22168	-2560	-32768	-31328	-22220	-536	-10388	6887	-32768	9081	-2224	4296	-8328	2229	113	-9	-9820	8248	10772	-1133	542	-2382	-17416	2152	-2680	1050	273	39	-17640	-1288	-392	279	2950	-163	125	133	1
-32768	-15916	25412	-1561	-32768	-32768	-30072	-1080	-13696	9102	-32768	11478	-4056	1200	-4616	2096	188	138	-10076	7056	11072	55	1435	-2662	-15208	7000	-1544	1229	407	-25	-20040	2816	456	-353	1809	-349	129	133	1
-32768	-12916	21968	3255	-32768	-32768	-32148	4328	-11624	566	-32768	12587	-10824	-4232	7680	1669	-555	335	-10144	8216	10828	329	2914	-2744	-14632	9792	-1392	594	865	-241	-18080	7504	9272	-1367	1681	-289	125	134	1
-32768	-3788	3560	-2197	-32768	-32768	-26112	4760	-15292	-18844	-32768	8915	-27280	-2096	16712	1639	-2695	-487	-10188	9588	10596	-62	4223	-4094	-14448	10224	512	521	1202	-449	-15296	2696	12424	78	1894	-101	138	133	1
-32768	16392	-15384	-12348	-31614	-22002	-17104	1536	-24228	-32768	-32768	-4385	-32160	13016	32767	2862	-956	-1245	-10424	11228	10924	-1302	5870	-6740	-15280	10704	808	831	1513	-668	-18112	2104	8448	830	1589	22	105	132	1
-32768	32767	-32768	-32768	-20571	-16957	4036	-10912	-8764	-32768	-6968	-3791	-3776	10072	32767	-1611	-811	1764	-10936	8524	14088	-2546	8325	-8394	-17264	10416	-2712	644	1950	-984	-20464	8368	4728	494	1101	176	67	136	1
-32768	2312	-32768	-9943	-2717	14907	-2436	-10184	-14548	-5049	16593	2206	-27632	5168	17088	-3185	-1768	690	-12308	3440	12032	-5706	7043	-6933	-20936	8312	-3592	585	2221	-1212	-20624	5960	4392	865	662	-47	113	132	1
-32768	6048	-15732	21476	6764	32767	-14612	-3548	-17876	9931	29613	-4221	-12448	-1568	11352	-2865	-1616	44	-11280	12472	14400	-1215	16051	-16798	-22808	5392	-3792	1313	2242	-1163	-20224	-1080	4112	1023	80	-89	117	133	1
-11352	-6484	32767	11003	12771	31344	-24192	3040	11488	13233	30896	-606	-3472	2544	-1960	-3297	531	29	-10568	10836	16160	-416	20490	-22428	-24024	5528	-5016	1705	2290	-1169	-21984	-448	9536	1016	-175	-43	126	134	1
1540	-24984	11696	12577	13000	11846	-32768	9840	13632	32767	10805	-2879	-26008	4728	-304	-1074	1079	123	-10788	12884	18056	-1091	27970	-28235	-30920	7784	-2536	1662	2418	-1317	-27144	7544	15648	1002	-579	66	162	138	1
-32768	8244	21240	8308	32767	-2744	-23640	1784	-20516	32767	23745	3438	-27696	-32768	22344	4922	-875	-1826	-10292	20808	20704	-1120	32767	-32768	-32768	14752	7016	2497	2303	-1319	-28592	8136	26080	2078	-1921	-179	157	133	1
-21448	11472	19988	1335	19465	19778	-24912	10760	-17796	29329	22515	-8711	-29848	-32768	19240	4929	-935	-1969	-26464	21324	20636	998	32767	-32768	-32768	19696	4720	3549	2252	-1597	-24648	-1832	18552	1867	-2961	-1085	155	131	1
-27428	-32768	1232	14902	19571	16553	-8640	-19072	-6936	-7677	22334	-10403	-10072	17080	-9088	-1746	224	89	-32768	29752	15288	6557	32767	-32768	-26848	24368	-3744	3687	2147	-1916	-24792	11008	-2808	1001	-2716	-392	108	127	1
-20080	3556	12916	12321	1272	17439	-9228	-7940	-20032	5826	13780	-16311	-13352	-18776	-6240	-2578	-542	-127	-32768	31432	10500	-2616	32767	-32768	-17848	14168	-4592	2837	2324	-1851	-29464	6064	-18464	-139	-2874	341	106	122	1
-14032	3988	16464	4696	332	4768	-23684	9600	-14908	-7043	12529	-5716	-29336	-3136	-7512	-414	1456	-151	3124	32044	15968	2000	24743	-32768	-17880	8904	-14944	-365	2585	-1615	-32768	-2216	-4168	-909	-3304	724	137	129	1
-11212	-4344	12416	2235	-447	610	-14876	-248	-8036	-22450	12881	-7263	-20144	3448	-5000	-1082	1160	-174	-32768	22976	16112	11546	-10649	-17478	-14384	-1512	-25464	-2376	1651	-1450	-32768	-5520	-4224	-340	-3175	548	142	137	1
-10952	-4104	12180	1557	917	790	-15272	-412	-9172	-29895	11762	-6389	-13864	-3968	-2032	-1388	1868	749	-1160	32388	8288	1197	-31005	4043	-13648	-3312	-5048	25	-443	-84	-32272	-4464	-4760	429	-3129	611	137	177	1
-10780	-3748	12524	-22	2069	-311	-18332	-10796	-5084	-9855	8081	-4603	-18360	-6880	-2040	-423	2011	499	9496	18752	4644	-6827	-27164	6471	-6512	-3280	-2392	1491	-1790	741	-27080	-1208	-5688	987	-2940	976	125	130	1
-11324	-4292	11692	-562	1418	-366	-18544	-4756	-6852	6889	4696	-3535	-17584	-5576	-3784	421	2110	680	4484	8324	4052	-4257	-20482	11334	-4520	-312	-4800	819	-2273	1126	-19264	-288	-6912	1337	-2627	1138	120	127	1
-11404	-4792	11628	-239	1088	-478	-16644	700	-6416	-183	2822	-812	-17880	-3480	-2592	923	2040	519	-2056	5304	5016	7162	-17444	22470	-4344	-1272	-6192	-410	-2608	1301	-15456	1816	-7992	1096	-2178	938	128	134	1
-11388	-4516	11816	-326	1047	-401	-14656	2024	-5136	-11754	3588	-1151	-16624	-416	-448	935	1916	410	-5432	10812	4900	12674	-17700	32767	-4480	-712	-7056	-974	-3071	1662	-13888	72	-7992	748	-1806	786	121	132	1
-11204	-4548	11692	-459	834	-173	-16140	1064	-4272	-18523	3882	-1759	-16128	96	824	850	1935	168	-8756	14324	5752	8203	-19694	32767	-5040	328	-6616	-1261	-3490	1997	-11664	-1480	-8560	433	-1637	724	135	130	1
-11384	-4080	11784	-610	914	-49	-16216	-1984	-3048	-13852	2964	-1594	-15928	280	1040	831	1945	162	-11304	12260	7492	2334	-23026	32767	-6232	1600	-6000	-1700	-3763	2294	-9864	-1312	-7792	231	-1271	651	137	129	1
-11376	-3836	11616	-564	921	-123	-15136	-2784	-2364	-1102	2533	-992	-14432	-744	-264	310	2418	71	-12592	8780	10236	3056	-25062	32767	-9320	2464	-5632	-2405	-3983	2452	-7136	-776	-9264	-173	-1024	649	130	130	1
-11520	-3652	10992	-306	831	-280	-14840	368	-3896	3463	2562	-777	-15296	400	1416	-74	2697	400	-14760	9172	11980	7727	-25216	32767	-10960	3160	-6400	-3422	-4154	2427	-6344	-592	-10496	-812	-737	620	136	129	1
-11256	-4164	11272	-236	402	-243	-15164	1696	-3500	-3070	2964	-849	-11104	2904	7864	-250	2633	-360	-18088	12816	12676	10249	-25469	32767	-13688	2280	-6904	-4035	-4429	2401	-4904	-1008	-12808	-1866	-392	593	125	133	1
-11148	-4936	11224	-382	321	246	-15976	948	-3040	-10308	4056	-1985	-11440	1856	9544	549	3300	-17	-20692	12280	15500	11955	-24632	32767	-16792	2120	-8064	-4221	-4599	2306	-4112	-4184	-12432	-2546	-11	418	123	130	1
-11264	-3740	11612	-539	430	392	-16188	576	-1620	-10467	4843	-2168	-18400	-4912	-848	-498	3634	200	-24576	17388	19024	12410	-21388	32767	-22648	2928	-9464	-3901	-5018	2112	-5072	-5120	-8784	-2682	-12	330	124	130	1
-10948	-4408	11804	-726	905	429	-16208	-812	-272	-6764	5847	-1716	-20888	-4832	-6176	-71	2234	179	-32768	26928	22268	8249	-21804	32767	-29664	7920	-13128	-3416	-5675	2284	-6032	-2584	-3632	-2851	-575	76	146	132	1
-11044	-4564	11832	-1057	1663	927	-15872	-476	-864	-5881	7340	-1965	-18688	-4864	5144	1195	1554	-124	-32768	18172	22792	11760	-23440	32767	-29208	4776	-17656	-3026	-5709	2284	-9760	2584	4584	-2860	-1570	-43	137	131	1
-11252	-5740	11844	-1156	2377	1541	-17148	-1148	264	-6826	9034	-1222	-14808	-4752	11640	81	1878	57	-32768	11780	14572	17412	-22327	32767	-24112	6816	-13728	-1805	-5530	2185	-17880	3280	14120	-2715	-2670	467	149	135	1
-11308	-5176	11952	-792	3211	2271	-15032	-2624	3604	-5585	11671	-386	-16616	576	7632	-718	1828	168	-32768	2836	3784	17326	-19309	32767	-20840	5520	-16520	-315	-4869	1991	-25904	-8472	28120	-2942	-1933	-39	134	135	1
-11276	-5860	12604	-205	4761	3202	-16588	-2428	3476	539	14978	63	-19144	-720	6720	-158	1362	-242	-32768	-31768	-4476	27941	-16613	29471	-9200	800	-14712	1608	-3341	1765	-4400	-1216	32767	1204	-496	-129	121	147	1
-11480	-4276	13780	128	7475	3814	-17276	-604	-236	3685	17972	623	-17352	-5696	6104	-476	992	-221	-32768	-32768	-13760	32767	-8086	11784	1616	11520	-7648	3676	-722	793	-21920	-4024	32392	2394	-921	-443	116	129	1
-12140	-5436	15220	846	11126	5070	-20120	-2016	-3616	5843	19833	1389	-18800	-6880	-16	-682	894	175	-32768	6336	-13664	-15760	-5802	-24836	792	12512	-9352	3515	-353	581	-19368	9096	17120	3095	-1836	333	129	127	1
-12960	-7332	15296	1067	15202	8220	-21008	-532	-4004	3552	21461	1400	-20064	-3568	-1800	-589	448	196	-32768	-10084	4132	-27850	-3675	-29238	-14024	4928	-18920	-2471	4442	-1732	-10848	12752	6408	1412	-1126	732	134	145	1
-11972	-6152	15916	-32	20564	11158	-21340	2380	-4744	1305	22981	682	-19824	1064	1760	-607	37	-30	-24892	-1372	8272	-15712	10362	-12866	-18688	-10320	-20640	-2870	5074	-1920	-6584	7080	-5448	106	610	1313	131	119	1
-11572	-3628	16812	-1308	27368	12501	-22824	5800	-4660	1417	23817	849	-20432	2384	6896	-927	88	85	-3844	32767	28204	-22952	22682	-5065	-32768	-1656	32767	2403	1889	-824	1472	-8192	-14880	-2678	2941	1058	117	142	1
-10200	-3644	19112	-2531	32767	16082	-25596	6396	-3900	-556	24719	74	-24080	3176	10192	-1141	-21	214	24664	-7604	5044	-27041	17791	-32467	-15704	9112	4792	3518	1511	-15	-32768	-1552	5600	-141	290	-279	137	102	1
-8820	-9840	18632	-1117	32767	22110	-26492	6376	-2920	-945	24860	108	-24672	3496	22304	-1189	-987	607	-32768	9592	32767	-10394	32767	-19363	-32768	8784	-21080	-3096	3987	-2588	-23856	6904	32767	-3221	-28	-311	127	138	1
-21376	-13068	18000	-4479	32767	29719	-32768	8156	12088	-19976	29011	-480	-28280	832	23504	-3874	-3713	1218	-22756	32767	5924	-8867	15518	-17670	-12760	-888	-14280	-2803	4054	-1651	-20160	-32768	-12032	1639	3171	-339	128	107	1
-32768	-2952	15944	-15888	32767	25485	-30568	-6192	-2044	-20902	32767	1545	-22880	-5024	6648	-3369	-2075	626	-18764	-11576	16888	-12883	5092	-18313	-5984	-6344	-23096	-1163	2772	-343	1000	2488	-12128	4683	720	925	126	137	1
-32768	-13308	12680	-22643	32767	22345	-30404	-11664	-3488	-23742	31392	5378	-31088	-12960	-14520	-1551	-2510	-92	-13504	10816	11740	-8996	657	-8080	-22728	-240	-14288	2272	1394	408	-22416	14248	-9976	1885	833	-790	140	160	1
-32768	-24852	17300	-24864	32767	23820	-20424	-7196	-416	18642	23183	7420	-30792	-3064	-17328	579	-2798	-1109	-10716	9448	11004	-3165	2628	-2667	-15968	7064	-9840	2172	1197	-159	-28368	5040	-8224	521	1292	-329	139	127	1
-32768	-15544	9560	-11836	32767	29170	-13628	-10744	-30272	14285	18763	6697	-31856	3144	-3944	1797	-3315	-1013	-9248	9676	10076	-2693	1418	-3603	-13856	6840	-8336	2905	742	-83	-14944	3712	-3440	728	1580	60	97	139	1
-23904	-30380	16332	-1626	-21825	-154	-17208	4288	-17796	12262	4419	410	-31792	3880	-4848	1520	-3348	-977	-9748	8872	10928	-1654	2082	-2825	-15632	8944	-9168	1370	797	-154	-17592	4952	-2360	-28	1670	290	154	123	1
-2188	-22500	13116	17106	-32768	-1730	-7916	1596	-4684	5592	-7684	1905	-28960	3328	-4160	334	-3013	-1267	-10696	7712	10940	-808	2284	-2097	-15968	6056	-10056	-789	1118	-373	-20584	-1000	-2696	-219	1729	-357	136	136	1
3808	-6448	9836	18853	-32768	-162	-2444	-1928	-4868	4352	-14018	-2211	-28688	2728	-3960	150	-3023	-1257	-10084	7460	11436	247	2990	-1197	-17672	2096	-9216	-1202	843	-284	-19528	1592	-1832	-360	1757	-531	124	129	1
-628	128	8732	8021	-31156	-8571	-2656	-1628	-5268	5813	-15273	-2011	-19288	888	-7224	-512	-2248	-861	-9944	8180	10684	1176	3046	-439	-16480	2072	-7936	-248	488	-65	-18136	1120	-824	-644	1918	-655	129	127	1
-4352	-2804	8768	-2413	-32526	-17995	-3136	3068	-8436	4148	-25340	1508	-16592	1896	-8416	-312	-2108	-808	-10028	8936	9868	1372	2675	-220	-15472	4272	-6824	952	56	170	-16432	840	432	-506	2017	-372	143	127	1
-7892	-8732	8856	-3022	-32768	-22572	-4900	1376	-8268	-271	-30631	3597	-14728	2104	-8064	-20	-2102	-844	-9960	8536	9944	1254	2146	-528	-14816	7112	-5320	1038	-47	187	-16032	1704	1960	-456	2043	-270	129	111	1
-10492	-8056	8956	2338	-32768	-24755	-4868	32	-7396	-3481	-32768	3150	-12936	504	-9368	456	-1825	-850	-9940	8316	10012	1245	1827	-689	-14336	6736	-3728	404	178	75	-15064	1096	2688	-477	2087	-319	124	128	1
-12624	-5260	9872	5344	-32768	-27291	-6000	1000	-6976	-2495	-32768	2491	-8616	1920	-9584	199	-1551	-843	-9976	8084	9820	1321	1718	-743	-13960	6312	-3008	10	385	-11	-14424	1784	2176	-209	2100	-282	139	122	1
-15836	-4472	11288	4140	-32768	-30102	-9032	-560	-7880	2085	-32768	3771	-6184	1040	-10688	337	-1202	-753	-10136	8236	9220	870	1585	-769	-13376	6504	-3448	178	430	-67	-14272	4464	1368	83	2158	-238	134	122	1
-19536	-6560	12772	2717	-32768	-31596	-10824	-2408	-8744	8800	-32768	4773	-6176	-464	-11080	1467	-855	-490	-9968	8704	8776	-89	1285	-1001	-13064	7096	-4256	292	472	-98	-13968	4536	2496	11	2263	-126	125	126	1
-23584	-8120	14468	2037	-32768	-31526	-10420	-2400	-8772	10263	-32768	5396	-5736	656	-12696	2840	-468	-614	-9612	8060	9128	-1013	1251	-1170	-14160	5560	-4616	134	562	-157	-13144	2352	3688	-319	2565	165	126	130	1
-27320	-9940	16808	1276	-32768	-32011	-15820	380	-10532	9452	-32768	8949	-3640	3520	-12880	3490	-6	-510	-9844	8272	9752	-1318	1411	-1344	-15440	4936	-4424	274	612	-123	-13344	-304	7400	-1098	2987	59	127	134	1
-29724	-11388	19540	1410	-32768	-32768	-22040	536	-9584	7802	-32768	11343	-2952	4384	-9224	2869	283	-215	-9996	8628	9980	-1477	1781	-1447	-15808	5192	-3096	551	645	-70	-14632	-104	2744	-62	3051	-167	127	132	1
-32768	-15856	23152	2382	-32768	-32768	-28796	-960	-12188	9560	-32768	13607	-4224	1928	-4536	2415	230	-64	-9980	8184	10312	-1261	2256	-1999	-14936	6008	-3056	609	771	-76	-18752	568	-632	270	2301	-242	129	133	1
-32768	-15336	21320	6611	-32768	-31957	-32452	1760	-11972	728	-32768	14431	-9480	-3672	7080	1858	-352	89	-10248	8780	10236	-920	3073	-2780	-16112	6936	-2912	622	958	-164	-18664	4824	2720	-1209	1855	-103	128	137	1
-32768	-6960	7356	3561	-32768	-29050	-26968	2396	-13456	-20124	-32768	10165	-25712	-4016	18080	1537	-2463	-457	-10392	8824	10768	-950	4207	-3709	-14864	9056	-2576	737	1118	-308	-16600	6576	8792	-458	1950	-66	142	135	1
-32768	9504	-12108	-7083	-32768	-14510	-18860	4384	-22072	-27980	-32768	-3609	-32768	18256	32767	2565	-1403	-1395	-10404	10768	10932	-1779	5933	-5713	-15288	9952	-768	765	1425	-493	-17280	2864	7624	555	1782	-5	123	132	1
-32768	32767	-32768	-32768	-28763	-12149	-17796	1920	-21556	-32068	-32768	-5962	-1464	7408	32767	-1856	-855	1417	-10912	8352	13648	-2632	8378	-8228	-16792	9880	-3272	642	1806	-766	-19584	6000	4352	297	1319	171	120	134	1
-32768	10228	-32768	-18647	-8508	12737	-3512	-9712	-12712	-5843	9635	-386	-25848	3272	22768	-2460	-1479	839	-11436	10436	14484	-1719	11791	-10840	-20488	8384	-3872	634	2063	-1003	-21184	6840	4480	582	839	-43	123	135	1
-32768	7676	-17204	18071	6943	32767	-12412	-516	-17264	3692	24842	-4331	-14248	-640	11472	-2145	-1207	-362	-11308	13016	13816	-653	15629	-16414	-21624	7336	-3520	1158	2166	-1010	-20168	-512	4552	909	198	-27	129	134	1
-3628	3360	22320	24183	12551	16798	-17136	-1840	-11332	12885	32767	-2237	-4376	-80	4272	-2444	-73	-70	-11380	11276	14784	484	19649	-20652	-22848	5184	-4672	1539	2271	-980	-20200	-3792	8856	1180	-177	48	122	135	1
1268	-32768	32767	16019	10380	11020	-19568	-352	-1532	14406	32624	-2074	-10864	8688	6648	-1351	971	381	-10900	11480	16876	1139	25402	-25966	-29088	6280	-5384	1736	2283	-980	-26864	2864	12216	1516	-587	152	138	136	1
-2772	32767	8268	12044	32767	14366	-20672	-2448	-18324	32767	21954	-192	-32768	-26296	17456	1239	-693	-580	-9580	17920	18712	2006	32767	-32768	-32768	12000	3184	2834	2071	-926	-28264	7208	22048	2202	-1561	-151	132	134	1
-32768	-256	26300	5387	25298	19934	-29372	13304	-10412	17955	24552	-2113	-24040	14632	16320	355	850	-1584	-19468	20784	18180	3481	32767	-32768	-32768	17048	7504	3848	1998	-1090	-22896	-4168	19016	2639	-2553	-995	160	131	1
-23140	-27512	10984	6741	27783	7928	-8804	1784	-7860	-10317	24608	-11294	-1976	22048	-18216	-1681	1922	842	-30780	23296	17124	11770	32767	-32768	-26848	22464	-2432	3711	2278	-1431	-18600	1504	4776	1286	-2579	-546	103	134	1
-28556	-1236	6804	6559	8232	13098	-10456	-14360	-20788	-12477	20590	-14743	-12824	-7128	-11648	-2723	-458	1420	-32768	26496	14432	5050	32767	-32768	-20744	16320	-5744	2865	2245	-1481	-28008	9000	-14120	1327	-2567	240	151	131	1
-14772	4444	15936	3505	275	4977	-18864	-1368	-14888	-65	12741	-6939	-28448	-8592	-14352	-802	1870	-242	-22936	29188	18764	6308	30004	-32768	-19656	6792	-10904	1407	2526	-1322	-32768	6112	-8304	135	-3132	540	114	129	1
-11644	-5492	11936	1353	-75	-40	-17508	-3300	-9456	-10764	11697	-5549	-20736	-5336	-10152	-349	1261	56	-32768	3284	12424	13068	12282	-32768	-14904	2400	-22648	-353	1788	-1121	-32768	-496	-4352	-536	-3074	530	136	128	1
-11580	-3964	12100	1488	1053	593	-15156	-4432	-8960	-11065	10709	-5482	-18144	-3480	-4496	-23	1795	649	-16900	32767	11012	14626	-28997	243	-12616	-1016	-11504	125	208	-335	-31168	-4320	-5440	-23	-2958	484	141	142	1
-11220	-3232	12604	426	2041	111	-17988	-3408	-8036	-3283	7185	-2790	-16688	-872	-1304	675	2061	409	7348	25232	5268	-1559	-32768	5380	-9192	8	-1048	1533	-1342	605	-28936	-1032	-5304	587	-2972	847	136	142	1
-11276	-3656	12308	-1007	1748	-593	-17808	1736	-7552	-3370	4864	-3358	-19344	1288	-1640	716	2055	499	5380	13828	3984	-7479	-25773	7398	-5504	144	-4800	766	-1861	937	-23288	1304	-5272	1201	-2512	1139	129	134	1
-11392	-3660	12120	-1070	1580	-652	-17308	220	-6396	-12012	3510	-2962	-17816	-544	-1520	341	1912	388	-1024	7408	4728	-1019	-21038	17621	-5408	-200	-6680	-673	-2166	1174	-17336	1168	-7064	1032	-2174	1315	124	135	1
-11500	-5272	11604	-1464	1391	-1205	-16400	-1972	-4624	-15194	3088	-2297	-16216	-3472	-1144	279	1945	388	-4124	8892	5512	7884	-20145	30834	-6520	-696	-6880	-1259	-2716	1432	-15320	1688	-7224	509	-1960	1170	128	132	1
-11336	-5064	11196	-1192	1272	-862	-15772	-2168	-3352	-12690	2623	-1413	-15712	-3456	-120	599	1926	365	-6956	13172	5908	6929	-20085	32767	-5880	848	-6432	-1522	-3197	1750	-12376	512	-7648	160	-1725	981	126	129	1
-11356	-4900	11224	-1069	990	-530	-15108	-1396	-2648	-10012	2863	-1396	-14576	-1480	-128	720	2118	330	-10836	13032	7264	1670	-22308	32767	-6688	2352	-6048	-2111	-3451	1973	-11344	160	-8080	-44	-1542	970	114	130	1
-11376	-4600	11168	-829	673	-226	-15108	-1400	-2260	-5920	2796	-1471	-13384	-1808	-1608	476	2416	426	-12344	10000	9728	275	-25234	32767	-6960	2648	-6080	-2221	-3493	2003	-8984	-168	-8392	-306	-1114	936	136	133	1
-11336	-4652	11160	-739	696	-211	-14888	-1164	-2848	-3114	2947	-758	-15512	800	192	-362	2581	134	-13268	9940	11412	2982	-26263	32767	-11368	3688	-6720	-3688	-3979	2085	-8272	-488	-8784	-396	-1075	939	134	130	1
-11448	-4580	10552	30	134	61	-15172	-1060	-4460	-1296	2772	-675	-12016	640	8416	90	2524	-344	-15268	11524	12844	5825	-26290	32767	-13096	2664	-7232	-4287	-4283	2021	-6488	-464	-10912	-1634	-523	797	128	129	1
-11320	-4888	11208	-235	-150	351	-16428	1660	-3696	-8428	3142	-1477	-10968	2176	10432	746	3176	-62	-18472	13256	14372	7508	-25252	32767	-16160	1728	-8184	-4340	-4610	1957	-5112	-2976	-12432	-2635	-160	686	127	128	1
-11256	-4568	11228	-340	-189	520	-15936	-404	-2076	-10612	4140	-1435	-18896	-3048	-2584	-1202	3188	406	-21720	15864	17472	8734	-22878	32767	-20520	1568	-9176	-3879	-5034	1925	-4952	-5208	-10456	-2988	21	447	126	128	1
-11132	-4820	11588	-430	116	851	-16440	-536	-1044	-8588	4818	-1244	-20496	-4968	-7696	-179	2052	197	-30112	23376	20824	10643	-22721	32767	-25600	5568	-17376	-3653	-5407	2056	-5672	-6352	-6832	-3115	-424	179	126	133	1
-11164	-5024	11644	-562	694	1078	-15912	-276	-1240	-5882	6051	-1199	-17984	-5408	4552	1428	1577	-189	-32768	25824	21444	10057	-25297	32767	-29880	8312	-15088	-3269	-5695	2288	-8008	-5848	-720	-3078	-1048	-212	134	135	1
-11312	-4740	11764	-556	1449	1191	-16816	-552	144	-4243	7468	-951	-15032	-2488	11808	184	1848	19	-32768	15472	18168	8383	-25289	32767	-27488	4016	-18640	-3425	-5408	2587	-14560	-1192	8976	-3007	-2066	-105	140	137	1
-11144	-5156	12012	-538	2447	1717	-15916	-1308	3080	-4278	9963	-536	-17936	1400	5776	-382	1909	164	-32768	-2996	10708	19199	-17107	32767	-25472	-216	-14872	-687	-5220	2502	-27144	-1464	24080	-2971	-2921	44	129	136	1
-11132	-5848	12512	-226	3928	2361	-16212	-3012	3680	67	13334	256	-19560	-3440	7360	124	1418	-239	-32768	-18220	-2328	25963	-13889	32767	-14928	5632	-24888	417	-3593	2289	-12904	-6032	32767	-1861	-294	580	135	161	1
-11344	-5688	13328	36	6515	3360	-17684	-680	596	4261	16188	625	-16720	-4504	7080	-361	964	-203	-32768	-32768	-12408	31142	-9957	17927	-1400	3272	-11480	3047	-1549	1008	-13568	-7328	32767	1473	-674	-8	127	130	1
-11808	-5604	14456	612	9348	4532	-18196	-2716	-2452	4279	18572	1151	-17720	-5536	880	-686	977	84	-32768	-7652	-14820	2690	-7626	-14418	-5760	10744	-15032	2042	1296	-127	-22864	3816	18880	3734	-1672	132	134	135	1
-12644	-7172	15164	1378	13009	7221	-20572	-1280	-3872	3638	20019	1665	-20064	-4008	-1400	-646	608	97	-32768	-8124	-104	-22956	-5521	-32768	-14016	4144	-19848	-588	3652	-1254	-14504	9520	7680	2429	-1527	306	117	139	1
-11984	-6372	15568	366	17634	10026	-21224	2524	-4444	713	21548	1034	-20304	1384	1200	-767	158	-6	-19660	4224	15096	-17823	4883	-22725	-17344	-6584	-21992	-1521	4775	-1681	-3952	8296	-4232	1072	217	999	130	150	1
-11980	-3732	16500	-1202	23510	11541	-21892	4804	-4772	-287	22752	933	-20064	2240	5328	-1100	138	-14	31592	32767	10844	-24407	-4570	-12195	-32768	3952	32767	3198	1186	-152	-12784	-4376	-2040	399	335	1058	126	136	1
-10844	-4056	18548	-1995	32683	13640	-22380	5156	-4756	-528	22892	1045	-24208	328	7624	-1102	137	37	10760	-32768	19380	-18979	32767	-27849	-18112	7640	-6648	1574	2328	-1311	-29592	16920	26368	-2763	-553	623	121	127	1
-9940	-8744	19400	-1570	32767	20641	-31956	7912	1356	-3799	24582	376	-28968	-1456	15912	-1283	-292	331	-32768	-1352	32767	-9096	22948	-24860	-30736	2696	-13096	-2804	3976	-1880	-21248	-17248	13648	-2140	572	-1805	126	140	1
-16252	-15124	20132	-4353	32767	27711	-32768	8484	11856	-16896	27548	-725	-28272	2512	23840	-2786	-3231	1024	-21956	32767	-136	-7627	18049	-17474	-9352	-616	-11440	-456	3099	-1055	-11480	-30160	-15288	2304	2368	-197	125	130	1
-32768	-1884	17636	-13767	32767	29670	-31728	-2560	-600	-13769	32767	-1872	-19880	-3288	8032	-3358	-3716	1160	-14572	-12504	18248	-12897	3380	-16347	-8912	2312	-17736	923	2103	514	-8400	12104	-7920	4392	-158	6	120	130	1
-32768	-13776	12788	-24312	32767	20563	-32028	-5404	-3068	-25639	32002	6156	-25064	-8312	-5808	-1445	-2163	-132	-13788	7572	12888	-6308	1563	-5622	-22360	176	-12512	327	1903	-362	-25904	10384	-11888	1577	1454	-251	129	143	1
-32768	-23136	18720	-24947	32767	23461	-22348	-9100	-2704	16155	26356	7760	-29752	-11312	-19936	190	-2778	-854	-10360	10492	9388	-2151	2778	-2091	-22688	-144	-12000	367	1876	-350	-22712	2352	-6440	710	1630	-147	142	129	1
-30788	-22596	14300	-8784	32767	32767	-14956	-11236	-23612	17118	19939	8143	-29704	2104	-5544	1504	-3252	-940	-9952	6832	11684	-1633	2612	-1726	-14816	9144	-7960	3115	415	162	-16304	3104	-1128	490	1861	136	131	121	1
-22728	-28756	19824	3786	-17918	6223	-17892	4028	-15472	19548	6161	1320	-31320	2344	-4288	2101	-3415	-825	-9972	8116	11060	60	2924	-1336	-15352	9888	-8024	652	849	-143	-17664	-656	-400	153	1972	115	127	122	1
-1000	-21936	17788	18395	-32768	2150	-9852	3240	-2204	9089	-5624	4612	-28296	3848	-4872	1072	-2972	-1139	-9628	8780	11080	1357	3341	-1129	-16360	6328	-8128	-1066	1148	-278	-18368	616	-536	233	1788	-345	134	121	1
5784	-5228	12984	17482	-31447	2464	-2404	436	-3564	5992	-12247	972	-24056	1584	-4288	-113	-2856	-988	-9996	8936	10512	2271	3687	-544	-16896	2592	-8088	-886	774	-78	-18320	3936	-1248	-13	1799	-607	133	128	1
5516	-3860	12536	15880	-30861	1344	-4504	1688	-7152	6847	-18416	2871	-18744	-192	-6280	-500	-2267	-652	-10156	8936	9804	2443	3093	-225	-15688	2376	-7080	512	341	55	-17112	3880	-488	-411	1878	-659	131	128	1
-4984	-5988	9464	-4305	-32768	-14806	-3532	748	-7796	1360	-23211	3839	-16544	944	-8256	-276	-2019	-645	-10020	9272	9448	2185	2442	-244	-14384	7168	-5560	1455	-8	285	-15472	2504	784	-594	1980	-325	136	124	1
-8728	-11724	8544	-2705	-32768	-17353	-4784	-1960	-7780	-3140	-29354	6182	-15208	-248	-8640	151	-1881	-706	-9996	8888	9584	1785	1867	-552	-13720	8984	-4344	916	115	153	-15488	1792	1912	-451	1971	-209	143	122	1
-10384	-10136	7704	2402	-32768	-18975	-6276	-2872	-6820	-4717	-32768	4927	-12304	-2448	-9376	631	-1610	-590	-10020	8372	9716	1528	1595	-603	-13888	7688	-4064	118	404	-16	-14944	2576	1480	-129	1967	-187	128	141	1
-13780	-8168	8020	3582	-32768	-22675	-7796	-2692	-7108	-412	-32768	5352	-10944	-304	-9408	404	-1188	-782	-9992	8572	9292	1172	1563	-593	-14088	6416	-3456	19	509	-102	-15128	3872	832	116	2043	-126	118	129	1
-17300	-10532	8964	3521	-32768	-26664	-10444	-3704	-7848	2042	-32768	6552	-8544	-840	-10224	572	-1108	-737	-10092	9352	8664	479	1433	-867	-13584	6880	-3720	397	482	-79	-14352	4592	280	272	2214	-58	130	128	1
-19008	-11828	10460	4076	-32768	-28741	-13108	-4268	-8476	7761	-32768	6967	-6952	-464	-10480	1554	-895	-711	-9932	9096	8636	-736	1029	-1436	-13144	7256	-5968	227	539	-86	-13568	3928	4160	117	2421	119	133	130	1
-22492	-11712	12060	3142	-32768	-30711	-12808	-1796	-9276	8316	-32768	8046	-6384	1072	-12272	3060	-615	-820	-10120	8352	9428	-1256	1153	-1405	-15232	4680	-4120	139	558	-114	-12528	384	7328	-590	2901	93	123	130	1
-25728	-12760	14076	765	-32768	-32768	-16788	-860	-8880	3962	-32768	8252	-4280	4496	-11920	3516	-383	-627	-9960	8456	9544	-1272	1343	-1646	-14904	4816	-4104	495	543	-39	-14104	-480	3624	-370	3255	-198	124	132	1
-27492	-13780	17032	-558	-32768	-32768	-21644	-1500	-9556	5049	-32768	7771	-2664	5408	-9048	2875	-236	-196	-9828	8620	9788	-1294	1882	-1583	-14208	5688	-2144	539	661	-54	-16776	1504	-2048	477	2453	-145	128	133	1
-32768	-17220	21896	-2018	-31414	-32768	-27460	-3748	-15724	8924	-32768	8205	-4352	3976	-3616	2460	-400	63	-10108	7908	10064	-662	2643	-1699	-14856	6008	-2992	439	872	-107	-18448	2240	-336	-874	1613	-81	125	131	1
-32768	-21392	17840	318	-32404	-30553	-30408	3136	-27304	22911	-32768	6410	-10800	-2000	7544	1377	-893	263	-10236	8396	10252	-188	3411	-1945	-14712	7288	-4392	427	1065	-168	-16032	5680	5160	-1201	1750	-42	121	134	1
-32768	8016	10500	-10802	-30561	-32768	-24964	4152	-14832	-24452	-32768	5019	-23496	-5528	17136	432	-1855	-463	-10404	8792	9936	-240	4342	-2421	-14096	8544	-3648	644	1126	-267	-14624	4848	5648	137	1930	-144	140	133	1
-32768	1096	-7880	-21226	-32715	-32085	-19716	-2684	-22604	-31508	-32768	-1352	-27584	3720	27016	547	-1011	-1293	-10504	11396	10092	-1170	5608	-4100	-15344	11192	-1488	719	1383	-409	-15088	4432	5704	294	1907	-121	105	134	1
-32768	29976	-31788	-23803	-32768	-17400	-8868	-7448	-12612	-32768	-17247	-11369	-12736	2360	32767	-1637	-1149	408	-10864	9892	12964	-2053	8012	-7212	-18208	9104	-3000	655	1730	-638	-20368	4472	6112	189	1316	242	135	134	1
-32768	29428	-32768	-21200	-14846	4220	-524	-11844	-10160	-4167	6621	-1279	-24832	-376	27504	-1901	-1181	549	-11252	9748	14868	-1137	12278	-9595	-21248	8184	-3288	744	1955	-853	-21608	4560	5688	901	1003	114	125	132	1
-32768	7156	-25224	7494	7590	28436	-12684	-2216	-17400	16249	22024	-4113	-14448	-2952	13664	-1241	-1441	-568	-10828	12080	14456	442	16427	-13943	-22120	7264	-3536	1110	2102	-922	-21040	600	4312	997	448	90	132	129	1
136	-428	19112	25406	14891	16194	-15564	160	-18368	22699	32767	-2704	-8032	-2072	5656	-1258	-482	-600	-10888	12036	14480	1536	20794	-18392	-23088	5032	-4688	1444	2224	-926	-21016	-1336	6072	1126	36	107	127	133	1
16524	-32768	32767	29180	6045	7091	-32768	10624	26788	32767	13683	665	-13584	3304	-5144	-2041	1303	-474	-10420	12180	16980	2440	26968	-22877	-28544	5624	-3368	1768	2213	-914	-26672	2728	10688	1226	-320	62	147	133	1
23576	32767	14284	18271	32767	10238	-16396	-3224	-20844	32767	22631	-560	-23576	-17576	13576	3291	765	-1082	-8956	15956	19160	1644	32767	-27396	-32768	9792	4904	2554	2018	-947	-27968	5248	20984	1570	-1263	-127	128	134	1
-32768	15320	32767	8032	27007	22442	-29300	19736	-20100	32767	19362	2591	-25112	-8936	9264	2158	-97	-1092	-20912	20220	19748	2037	32767	-32768	-32768	14640	9104	3856	1864	-1107	-25000	-3992	22944	2784	-2927	-769	147	131	1
-20208	-32768	13620	3122	27939	10729	-12028	4144	148	-7826	22187	-11253	-8712	32767	-19488	1154	2470	1725	-32160	26368	20520	14221	32767	-32768	-27984	26296	-3096	3725	2357	-1298	-22296	-520	8552	2257	-2737	-782	110	128	1
-10924	17908	16496	12189	8847	15454	-15280	-16936	-18696	-5573	20918	-15869	-12520	-6096	-19888	-3800	-535	44	-32768	26176	13772	3101	32767	-32768	-22376	18704	-5096	2301	2524	-1713	-27256	15064	-14200	1435	-2507	191	128	127	1
-17692	-11628	10816	5737	1706	6415	-16908	-5608	-12776	-257	13959	-3929	-19728	-4704	-11104	-1619	1225	-508	-20916	27832	22704	3694	32767	-32768	-20720	7160	-8720	834	2723	-1576	-30920	5800	-9072	-356	-3228	641	147	137	1
-12800	-1616	12908	2249	4	1532	-16912	2440	-11356	-10818	12376	-7902	-20432	-4272	-9928	-1260	1151	138	-27264	3692	13540	18742	18086	-32768	-16416	1216	-19640	-365	1890	-1259	-30528	-1736	-4360	-912	-3185	433	181	131	1
-11156	-6588	11480	1564	269	617	-15976	-2036	-9000	-24988	12753	-7103	-19824	-4936	-4960	-1172	1469	746	-17484	32767	13044	19582	-28019	-3318	-10880	1136	-9800	542	188	-501	-30368	-7608	-4624	-37	-3015	207	142	148	1
-10728	-3880	12616	948	1808	410	-17688	-8168	-5844	-10820	8674	-4607	-17672	-5064	-1712	-135	1901	581	7896	24612	7824	2698	-32768	119	-9640	-40	-48	1771	-1335	429	-30632	-6600	-4664	178	-3046	256	133	136	1
-11256	-3752	11928	-105	1700	91	-17896	-2984	-6552	1652	6299	-2739	-18216	-1656	-1552	356	2033	555	5512	15108	5660	-1903	-32768	1040	-5400	-1080	-3912	1359	-1951	948	-22592	-536	-5088	1349	-2725	624	126	121	1
-11044	-3672	12340	-251	1276	-378	-17484	1264	-6124	-3734	4293	-2670	-17208	-1368	-1024	593	2086	509	12	9972	5072	1922	-31492	9557	-4528	-640	-5992	280	-2452	1318	-17680	616	-6712	1519	-2285	796	127	138	1
-11328	-4752	11912	-716	1264	-568	-16184	1004	-5192	-12206	4143	-1936	-17136	-816	-1032	434	2025	443	-2724	9356	5336	7884	-30372	20696	-6632	-1000	-5984	-154	-3026	1655	-13960	864	-7464	1046	-1991	906	125	131	1
-11284	-4648	11732	-859	1152	-404	-15604	-1112	-3948	-15283	4151	-1973	-16960	-1016	-800	409	2011	402	-2960	9548	5492	8619	-30024	22396	-6832	-728	-6032	-210	-3107	1717	-14288	1720	-8072	519	-1863	648	125	130	1
-11216	-4660	11516	-728	1010	-101	-16108	-1988	-2516	-12235	3794	-1454	-15104	-2472	288	645	2085	164	-8476	12396	6720	7178	-26526	32767	-6672	2024	-5600	-1172	-3670	2219	-11528	128	-8656	274	-1635	591	129	129	1
-11204	-4600	11372	-351	865	137	-15272	-2864	-1772	-4474	3760	-1187	-14544	-1912	-1072	615	2298	183	-10268	10968	9212	5489	-26224	32767	-9264	3064	-5680	-2051	-3894	2405	-9144	-296	-8816	113	-1225	619	129	134	1
-11220	-4088	11380	88	730	254	-14932	-916	-2660	1135	3826	-348	-13048	-2200	1144	399	2722	365	-13624	11064	11752	6855	-25820	32767	-10904	3512	-6680	-3044	-4061	2428	-7752	-496	-9648	-261	-913	612	130	132	1
-11392	-4528	10908	202	523	355	-15080	208	-4504	-46	3880	-156	-14680	2920	6224	-182	2139	-516	-16664	12396	13792	8785	-26181	32767	-13480	2928	-8368	-3927	-4256	2435	-6824	-504	-10976	-1100	-601	580	128	129	1
-11044	-4664	11576	123	342	933	-16180	2172	-3964	-8416	4362	-1554	-10752	3240	11176	633	2965	-117	-18752	14124	15916	10282	-25808	32767	-16808	1960	-8192	-4302	-4566	2365	-5136	-2360	-12080	-2056	-218	474	124	129	1
-11204	-4240	11456	268	377	1048	-16120	-1172	-2792	-9084	4975	-1187	-17488	-3584	616	-1062	3584	405	-22052	14900	19088	12251	-22751	32767	-21024	1248	-9296	-4188	-4971	2230	-5144	-4608	-10784	-2436	28	335	121	130	1
-10972	-4356	11936	46	686	1258	-16616	8	-2416	-5031	5199	-1171	-20536	-5296	-7616	-745	2787	255	-30092	21736	22796	12496	-20565	32767	-26608	2928	-12576	-3683	-5320	2206	-5880	-5432	-5664	-2623	-199	49	153	132	1
-11172	-4236	12076	-482	1509	1283	-16716	1332	-2848	-5513	6327	-1395	-19496	-3032	-2792	1293	1633	30	-32768	22140	24660	8835	-22782	32767	-31184	5312	-12216	-3125	-5710	2372	-6872	-1824	624	-2933	-1022	-155	138	139	1
-11452	-4220	11828	-819	2150	1475	-16368	-632	-1604	-7550	7466	-1411	-14920	-2912	9776	896	1857	-97	-32768	12776	21368	10921	-21226	32767	-28376	4888	-15008	-2282	-5748	2339	-12520	3304	9448	-3057	-2170	17	145	131	1
-11316	-5036	11396	-568	2760	1868	-15252	-1376	1884	-6041	9147	-547	-14408	608	8224	-601	1920	155	-32768	4044	10676	14947	-18149	32767	-25456	1560	-13944	-1038	-5287	2355	-22424	56	22384	-3203	-2548	354	135	137	1
-11232	-5144	12280	143	3782	2555	-14836	-3308	3888	-1771	12364	-1	-19304	-432	5784	-240	1616	-111	-32768	-16240	-2736	15979	-16848	32767	-15152	-2536	-19936	-473	-3664	2057	-12736	-2360	32767	-2595	-1349	115	129	166	1
-11552	-4460	13392	834	5846	3768	-17592	-616	616	2122	15437	-60	-17864	-4848	6560	-376	1100	-226	-32768	-32768	-13076	30267	-9294	18712	1320	6968	-5632	2971	-1508	841	-17040	-7056	32767	497	-654	-1049	126	137	1
-11500	-4364	14908	1127	8912	4066	-18848	-1712	-2356	3200	17762	1183	-17992	-7264	1240	-701	1068	133	-32768	3612	-16868	-8350	-6158	-18035	-8208	13328	-14480	1097	1379	-463	-22120	5016	19224	2269	-1881	-308	129	148	1
-12532	-7188	15240	1363	12671	6199	-20512	-2572	-3208	3306	19455	1802	-20480	-4576	-360	-795	707	261	-32768	-11568	1052	-29550	-5452	-32768	-12696	3720	-19624	-1691	3690	-1547	-15064	8584	8032	1241	-2084	18	127	134	1
-12380	-7256	15152	679	17195	9954	-21384	1160	-3688	-74	21204	1245	-20520	992	1328	-886	230	-28	-32768	-5228	3744	-17013	3254	-18872	-18800	-8136	-22384	-2134	4701	-1813	-6752	2136	-1488	1533	-564	965	126	142	1
-11916	-4828	16036	-452	22184	12255	-21608	3080	-4288	-1641	22510	1078	-19480	992	5272	-1220	147	-9	21140	32767	8576	-16935	13960	-14989	-32768	-2896	26448	2552	2445	-717	1304	-15280	12360	329	363	901	128	148	1
-11700	-4224	17372	-347	29184	14427	-23980	3640	-3956	-825	23585	1290	-22048	-768	6240	-1313	239	95	12980	-9488	12892	-13127	27759	-23178	-23440	2760	2736	3781	1977	-495	-19656	-4296	5816	1068	688	516	152	154	1
-9560	-6440	19000	-644	32767	20222	-28364	5860	-2260	819	24121	1041	-26072	-2128	10456	-1015	-10	302	-32768	720	32568	-6033	32767	-19456	-27064	11256	-17504	-1823	3872	-1978	-31576	7464	14824	-1920	285	552	124	124	1
-9660	-13556	18700	-179	32767	26879	-32768	10692	6356	-9652	25279	-185	-25208	1944	26040	-1460	-1510	660	-23984	13688	14276	11	16977	-22692	-16128	-4088	-17552	-2078	3674	-1297	-17968	-22888	-12016	1625	2277	-465	132	92	1
-29364	-11192	15864	-6867	32767	32448	-32768	3656	7536	-20701	30054	-706	-26440	-1160	21104	-4043	-4128	1132	-8600	-288	13824	-10979	4533	-14530	-11440	-528	-17552	302	2305	17	-7976	4232	-15232	3487	1102	327	129	143	1
-32768	-4160	13244	-21609	32767	22352	-29072	-9828	-4212	-23386	32019	2782	-23288	-10656	-1936	-2649	-2028	203	-14184	5548	12064	-6317	1161	-5157	-15656	1224	-13728	1296	1613	-79	-21872	15632	-8480	1012	1029	-507	125	117	1
-32768	-18676	8456	-25869	32767	22428	-28688	-9800	-2852	-10023	28923	8165	-29680	-14616	-18872	-555	-2585	-456	-10452	8884	11448	-2095	2819	-1489	-16976	6216	-10576	334	1616	-340	-23304	1608	-6024	-696	1601	-206	128	109	1
-21908	-31500	20912	-16322	32767	30906	-15912	-10900	-12204	15859	25764	8877	-30208	3824	-14528	1098	-3167	-1085	-8612	11472	9036	-1993	1919	-2067	-16368	0	-8408	2263	925	-39	-17088	-3288	-1208	15	1753	166	104	133	1
-32768	-32768	21108	2561	2494	20654	-14648	-3712	-32768	17358	13388	2985	-32288	6416	-1976	2229	-3575	-981	-9784	7124	11644	-684	3018	-1464	-16552	6360	-7736	1972	675	75	-17024	-208	-344	457	1748	418	158	124	1
-12012	-27016	18316	15070	-28708	561	-15872	4528	-9024	14273	656	1375	-30208	2640	-5088	1340	-3058	-1287	-10224	8152	10680	487	3221	-1118	-15144	8176	-8696	16	921	-79	-19224	-480	-1424	587	1719	-257	142	119	1
5240	-11556	13944	19722	-32365	-460	-4640	700	-2264	6516	-9895	1336	-26680	3056	-4824	-143	-2968	-1474	-10248	7172	9204	2526	3203	-807	-16776	4176	-8888	-995	865	-131	-19888	2664	-2104	360	1646	-712	115	128	1
5348	-3112	10000	11900	-27869	-5567	-2796	464	-4912	7591	-15767	-410	-18456	-1784	-5144	-712	-2630	-1489	-9900	8640	10564	2131	3319	-67	-16688	2352	-8112	-115	494	131	-18816	3192	-1856	-166	1860	-677	130	128	1
-3704	-1892	9604	-653	-27423	-14201	-3424	1096	-7704	9187	-21039	696	-17160	984	-7952	-416	-2079	-948	-10044	9504	9652	2377	2920	-134	-15736	4320	-7576	892	93	224	-17464	1840	48	-294	1925	-681	149	132	1
-8104	-8964	8960	-5220	-32768	-20718	-3384	788	-8496	3215	-26132	1662	-15288	2000	-7560	-70	-2080	-730	-10120	9280	9432	2259	2155	-535	-14680	6832	-5624	1258	-119	308	-15968	1680	1176	-250	1992	-297	130	130	1
-7804	-9604	8652	-719	-32768	-22377	-4988	1004	-6836	-3477	-31890	2769	-13728	416	-8216	523	-1856	-729	-9972	8800	9604	2124	1617	-742	-14536	6976	-4288	705	29	214	-15672	1416	2112	-257	1996	-249	136	126	1
-9292	-5460	8724	2063	-32768	-23607	-6448	1208	-6316	-3403	-32768	1886	-11016	1776	-8408	487	-1512	-649	-9948	8448	9608	1966	1390	-794	-14320	6944	-3392	159	242	120	-14936	2808	2192	-167	2012	-328	105	141	1
-12224	-3940	10644	813	-32768	-26534	-7976	556	-6968	-1294	-32768	2600	-9304	1168	-9304	677	-1118	-539	-10084	8720	9148	1498	1436	-819	-13536	7144	-3608	75	333	10	-14192	4472	528	118	2072	-295	244	128	1
-16176	-5872	12612	-577	-32768	-27972	-11240	-1132	-7920	1732	-32768	2536	-9176	1384	-9200	588	-1086	-589	-10044	9128	8360	655	1081	-982	-12888	6872	-4232	163	365	-47	-14208	5280	-472	274	2256	-171	201	129	1
-19572	-6576	14224	-1502	-32768	-27937	-10852	-1168	-9216	7415	-32768	4193	-5840	256	-11168	1869	-878	-662	-10200	8308	8624	-481	485	-1123	-13528	5144	-6488	188	384	-51	-12504	2656	4096	-271	2352	156	146	130	1
-22920	-7332	16344	-2763	-32768	-27613	-13224	720	-9824	5134	-32768	4746	-4800	1464	-11976	2944	-428	-531	-9988	8800	9308	-1358	559	-1084	-15184	5352	-4592	450	332	13	-11688	-960	7504	-1109	2790	79	147	129	1
-26324	-8896	18740	-3381	-32768	-28975	-18060	340	-9820	4109	-32768	6024	-3288	4544	-9664	2743	-62	-349	-9300	8728	9328	-1643	714	-1464	-15392	5592	-2792	606	372	31	-15688	560	4072	-378	3333	-161	90	132	1
-30400	-10176	21700	-3032	-32768	-31569	-22696	248	-10080	5074	-32768	7758	-3432	4032	-8072	2146	140	-177	-9872	8672	9792	-1424	1332	-1693	-15496	4392	-2664	637	539	35	-17736	1400	-224	654	2713	-288	125	139	1
-32768	-14256	24480	-938	-32768	-32768	-29696	-412	-11560	3896	-32768	9348	-4776	1816	-5056	1807	172	-45	-10156	8480	10340	-705	2191	-1797	-15680	6424	-2896	499	737	-114	-19656	2872	288	-823	1879	-146	124	134	1
-32768	-15000	21240	4275	-32768	-32340	-32212	1548	-12064	2025	-32768	9523	-11336	-4192	7400	1372	-487	92	-10156	8888	10308	-116	2823	-2454	-16064	7592	-3328	486	942	-175	-18208	5776	6304	-1430	1931	-139	121	137	1
-32768	-980	8172	-2123	-32768	-32768	-26756	3848	-13652	-15316	-32768	8002	-26416	-2544	18512	1153	-2892	-611	-10264	9460	10308	-123	3857	-3525	-15000	8816	-888	830	1059	-294	-15408	1968	10152	178	2024	-174	135	133	1
-32768	14668	-12284	-15465	-32768	-25264	-17724	5152	-23416	-30679	-32768	-5735	-29624	10216	32767	2903	-933	-1665	-10104	10924	10332	-1060	5620	-5351	-14104	11328	800	842	1461	-525	-17216	2912	8536	592	1634	101	117	129	1
-32768	32767	-32768	-32768	-26337	-21629	2352	-9424	-5692	-32768	-9627	-6376	-7344	6520	32767	-1424	-1028	1808	-10508	9320	13168	-2024	8704	-7576	-16760	10768	-2536	333	1985	-903	-19568	7936	4728	287	1275	289	118	133	1
-32768	-1424	-32768	-11174	-2410	9340	-2432	-11756	-13556	1859	13981	3078	-26392	4896	19520	-2470	-1486	672	-11300	11176	13828	-1419	12099	-10369	-20296	8792	-4280	373	2184	-1113	-20816	6816	3496	699	913	-27	150	136	1
-32768	9244	-11704	26177	5976	32767	-16136	-428	-17040	15526	25835	-4389	-13840	-152	11064	-2322	-1598	-129	-10648	13812	13296	-751	15797	-16573	-22064	5968	-3072	1247	2151	-1033	-21112	-976	2896	902	139	-22	126	130	1
-32768	-380	10848	18763	8751	15634	-17332	1840	-9900	17282	32767	-318	-4000	1040	224	-2255	100	223	-10560	11580	14872	760	20524	-21494	-23072	4984	-3376	1702	2220	-1024	-20920	-3144	8208	1173	-200	126	135	130	1
-252	-32768	20716	16994	13088	12068	-32768	8220	19804	32767	12802	-1902	-13920	4848	-7672	-1648	1335	204	-10448	11556	17336	173	27694	-23990	-29208	6400	-2440	1666	2306	-1131	-26144	1656	13704	1355	-272	100	141	139	1
-21008	23728	10332	11112	32767	11376	-22516	-5340	-19344	32767	22365	-158	-17256	4192	-5664	-1022	1172	167	-7668	17596	19416	189	32767	-31365	-32768	10040	5896	2406	2130	-1140	-29456	7552	23240	1558	-1369	33	125	133	1
-32768	2068	22060	8735	20048	20962	-27676	5740	-14900	30255	21850	-2014	-17160	15168	9824	324	1725	-411	-24168	21736	18824	3962	32767	-32768	-32768	17240	9360	4129	1907	-1227	-25312	-2256	19856	2556	-3261	-648	146	134	1
-23196	-32768	9056	12067	22859	12530	-8264	1732	-7100	-2322	22648	-11252	-9936	29232	-22936	-1383	1613	103	-32456	29604	18380	13330	32767	-32768	-26168	28032	-4480	3474	2413	-1459	-22040	8192	2096	1566	-2768	-764	153	131	1
-21396	9600	12732	9231	6370	14752	-11188	-8292	-19444	-6887	18917	-13858	-11504	-9016	-14272	-3229	-1054	197	-32768	28788	14036	2717	32767	-32768	-20816	15928	-4616	2319	2530	-1820	-27120	12536	-17472	315	-2602	299	101	135	1
-13284	-528	14276	4586	450	5297	-18988	-356	-14756	-5819	13963	-6326	-24856	-6096	-13520	-771	1836	43	-18152	29400	21864	5238	31562	-32768	-19440	9144	-10816	756	2674	-1595	-31152	2864	-6824	-991	-3319	671	133	126	1
-11824	-2788	12600	2072	-352	1133	-15908	1564	-10876	-14547	11819	-6057	-22416	848	-8576	-700	1353	-146	-32768	15840	15488	11672	7051	-31900	-15568	256	-22384	-1275	1882	-1431	-31680	-3576	-4800	-694	-3032	533	139	127	1
-11260	-3640	12528	1654	2229	471	-16228	-3140	-9572	-18085	10918	-6697	-16952	-2480	-3352	-901	1845	580	-10044	32767	13568	10837	-29650	464	-12936	-1144	-7648	-215	85	-418	-31144	-5624	-4928	149	-3014	477	143	154	1
-11096	-3544	12540	34	2384	-303	-17776	-5440	-7332	-5258	7013	-4572	-17720	-3712	-1832	-350	1816	412	8844	23104	7380	-2001	-32768	4442	-8664	-1904	-216	1417	-1515	499	-28032	-1608	-5168	696	-2995	731	131	137	1
-11264	-4368	12064	-894	1720	-912	-17840	-652	-6436	-1659	4429	-3571	-18056	-3248	-2424	299	2212	633	4288	12796	5676	-4432	-28288	7060	-5224	-752	-4864	1005	-2139	948	-22000	24	-5784	1335	-2587	899	131	132	1
-11460	-4184	12008	-813	1217	-1007	-16644	-660	-5728	-9204	3612	-2711	-17464	-1816	-1592	361	2098	496	-2480	8944	5720	2048	-26746	17413	-4656	-328	-6968	-96	-2618	1279	-17096	1696	-8096	1159	-2342	1026	126	136	1
-11268	-5128	11628	-993	985	-927	-15304	-520	-4580	-15539	3797	-2458	-16072	-1576	-608	180	1927	367	-4800	10768	5992	6639	-27497	28050	-6824	728	-6760	-650	-3164	1563	-14360	2096	-8216	739	-1908	825	128	134	1
-11204	-4744	11372	-922	840	-713	-15920	-1316	-3256	-15967	3585	-2260	-15560	-2520	784	272	1927	165	-7292	12152	6936	5836	-26786	32767	-6544	1672	-5952	-1125	-3592	1833	-13152	1240	-8712	313	-1614	890	101	126	1
-11124	-4444	11728	-902	888	-507	-15796	-2448	-1636	-10854	3582	-2251	-14848	-2160	496	472	2094	107	-10976	12560	7904	2368	-27655	32767	-7832	2976	-6368	-1964	-3774	2011	-11544	968	-8504	-15	-1264	909	137	125	1
-11132	-4616	11560	-597	978	-286	-15516	-2920	-1268	-1992	3689	-1194	-14720	-2624	-128	302	2421	211	-12408	11068	10200	1406	-28349	32767	-10568	3472	-6848	-2832	-4046	2103	-8440	-16	-9560	-492	-1041	884	138	133	1
-11152	-4700	11348	-163	1027	-173	-15064	-1088	-3340	1816	4012	-333	-17592	-1016	3976	-63	2493	122	-15148	11332	12008	4022	-27770	32767	-12008	3760	-7704	-3796	-4272	2061	-7648	-408	-10384	-1187	-854	836	130	130	1
-11348	-4628	10952	-238	684	393	-15612	820	-4036	-3811	4221	-1234	-10080	1664	11208	401	2595	-451	-17828	13680	13264	6319	-27136	32767	-14640	2592	-8472	-4389	-4540	2007	-5736	-1584	-11800	-2175	-646	770	125	130	1
-11320	-4472	11312	-228	670	802	-15596	-216	-3560	-9272	4831	-2040	-13752	-448	5520	14	3439	84	-20672	16052	15132	6816	-25351	32767	-17976	2208	-8728	-4446	-4820	1934	-4704	-3856	-11568	-2737	-327	506	126	130	1
-11116	-4364	11680	-262	746	760	-15696	-528	-2952	-6080	5116	-1575	-18152	-5256	-4760	-1343	3205	332	-25664	17568	18736	8208	-22101	32767	-22304	2664	-9856	-3819	-5295	1926	-4336	-5976	-9848	-2723	-63	141	130	131	1
-11104	-4164	12072	-576	1287	695	-16920	284	-3084	-5218	5506	-1583	-20248	-2840	-8264	490	1919	191	-32768	26076	21444	9393	-21756	32767	-26736	8952	-13824	-3648	-5652	2083	-5352	-5936	-5568	-2850	-638	-124	102	135	1
-11196	-4672	11900	-1052	2081	819	-16340	32	-3460	-6151	6376	-1644	-17440	-3744	3240	1234	1673	-67	-32768	26396	19328	8727	-22749	32767	-29920	8072	-14224	-3312	-5697	2271	-8920	-4264	2064	-3037	-1398	-352	149	135	1
-11440	-4436	11740	-1464	2779	981	-16832	-548	-812	-7750	7445	-1242	-14544	-2144	9952	-31	1945	30	-32768	3428	17624	11703	-22185	32767	-27120	4520	-19448	-2623	-5601	2713	-17392	-288	13456	-3518	-2656	-164	134	130	1
-11044	-5060	11964	-1131	3640	1464	-15188	-2440	3604	-6494	9994	-787	-17080	1456	7648	-523	1840	-68	-32768	-8936	5516	31503	-14734	32767	-24304	4440	-18544	656	-5162	2733	-24504	-2200	32767	-3610	-2195	-63	130	138	1
-11152	-6068	12984	-505	5278	2624	-16524	-3328	3728	-844	13684	-428	-20056	-3144	9272	-394	1432	-332	-32768	-32768	-8132	32767	-7486	32767	-4736	3352	-16584	2500	-3325	1757	-2656	-6344	32767	1212	-1010	260	120	131	1
-11412	-4624	14400	-145	7968	3794	-18960	-640	-468	1238	16538	144	-17848	-7880	4824	-755	1152	-74	-32768	-31216	-17244	32767	-5309	14445	3368	13856	-10616	4326	-693	524	-24216	-8216	27192	4310	-1022	-888	128	131	1
-12308	-5564	15228	448	11863	4938	-20504	-2016	-2420	2535	18743	1251	-20536	-6256	288	-797	966	255	-32768	1848	-15176	-17720	-9229	-31660	-13888	18392	-12976	1844	2024	-604	-21744	8176	14784	5220	-2416	130	129	129	1
-12020	-7408	15412	-306	16478	7125	-21692	-784	-2940	1549	20550	1145	-21104	-376	1288	-878	366	94	-32768	-7776	3052	-18284	-12681	-32768	-13048	208	-23680	-1927	4755	-1681	-11400	13680	3344	2619	-788	851	132	147	1
-11944	-6136	15296	-1584	21642	10059	-21296	2472	-3752	-976	22072	640	-19712	2352	4432	-1117	111	-95	-14996	9000	12076	-9995	-439	-22733	-20072	-12624	-21504	-1867	4848	-1757	-4136	10704	-7952	696	1112	1357	128	140	1
-11364	-5116	15992	-2645	28302	12158	-21956	4420	-3436	-926	23518	684	-20024	1168	6528	-1496	80	29	18484	32767	6360	-22915	-305	-5761	-32768	104	32640	4602	982	-262	-5272	9056	-10176	436	1374	1593	135	127	1
-11040	-6164	17896	-2404	32767	16369	-26256	4676	-1884	-1536	24450	19	-24480	392	9080	-1393	-34	140	18024	-32768	21132	-23924	32767	-32430	-21136	21952	-2320	2967	1840	-1007	-32768	13040	26488	-2875	-2150	-214	118	131	1
-10408	-10704	18324	-2011	32767	21690	-32768	8096	3880	-8324	24842	-799	-27744	-1800	19888	-1493	-691	514	-32768	2476	31748	-12477	23052	-26227	-26056	4616	-17440	-5273	4491	-2742	-15696	-19744	14656	-2598	1477	-1802	115	127	1
-24264	-11360	16376	-8996	32767	28827	-32768	7616	10800	-23173	28606	-1531	-28616	-1704	18920	-4383	-3939	1195	-32768	-8144	29056	-9302	18948	-27226	-6504	3968	-18448	-3030	3843	-1143	-15064	-26752	-20448	1513	1658	882	131	141	1
-32768	-5480	14040	-25237	32767	21349	-29444	-10552	-2152	-27300	32767	680	-20784	-8400	3496	-3021	-2194	578	-21996	-4716	16004	-10979	-2	-14350	-13704	-9296	-21144	29	2033	485	-8528	3400	-6072	2917	544	266	131	121	1
-32768	-17012	9996	-28147	32767	23827	-29936	-13188	-2832	-22369	31286	5300	-22512	-9680	-1584	-2790	-2104	310	-11708	-928	18564	-6518	434	-5729	-24496	-3144	-14552	2144	1375	-5	-28768	6944	-8480	1636	1376	-778	133	146	1
-32768	-24068	18432	-25677	32767	25985	-19864	-9672	2108	18211	23595	9221	-30560	-3808	-18160	649	-2816	-1161	-9460	11604	9372	-2800	1661	-2007	-16056	4776	-8672	3888	548	101	-22968	2216	-3416	961	1407	-141	130	125	1
-32768	-25640	13864	-8741	19328	24198	-13396	-11160	-32592	18010	17991	6898	-31552	4472	-2824	2019	-3445	-1020	-9276	6944	11524	-2022	1425	-1869	-14120	8456	-6560	2908	534	-20	-14720	3568	-1200	623	1796	118	110	110	1
-18052	-32768	20092	6181	-26958	-824	-18552	5776	-14660	15392	2977	602	-31104	4312	-5480	1695	-3346	-1098	-9320	8376	10648	-811	2217	-1498	-14920	10976	-7520	627	860	-144	-17880	776	-936	94	1847	-93	147	126	1
2368	-18128	14392	21369	-32768	616	-7024	3140	-2900	6213	-9588	3427	-28376	4056	-4104	548	-2997	-1304	-9788	8632	10704	192	2773	-1241	-15928	7544	-8712	-1780	1319	-393	-18848	408	-1000	169	1795	-445	129	116	1
5420	-3476	10880	18044	-32768	-1038	-1624	140	-3688	3493	-14237	-1000	-21200	104	-4856	-258	-2455	-875	-9784	8472	10752	1185	3217	-569	-17824	392	-8296	-1473	942	-195	-19120	4408	-1632	-193	1837	-624	125	126	1
-1180	-368	9780	5230	-30876	-9082	-4844	1836	-6976	8204	-20134	75	-18160	416	-6752	-496	-2231	-879	-9992	9432	10020	1470	3014	-250	-16056	1024	-7600	644	319	30	-17528	2560	-752	-563	1978	-614	127	133	1
-5728	-4656	9660	-4282	-32768	-17574	-3284	2272	-7852	3144	-24630	2704	-15584	-144	-7320	-32	-2081	-675	-9920	9312	9604	1380	2261	-428	-14768	6064	-6144	1633	-57	287	-15584	128	592	-507	2054	-345	136	126	1
-8392	-9164	9372	-3836	-32768	-21567	-5864	1364	-7616	-1433	-30264	4536	-14784	232	-7080	519	-1991	-583	-9916	8524	10112	1154	1747	-642	-14488	8184	-5064	1030	52	159	-16104	1680	1200	-346	2030	-367	131	127	1
-10504	-8976	9208	2065	-32768	-23512	-7072	1396	-6960	-3373	-32768	3621	-13096	2752	-7904	514	-1790	-587	-9848	8452	10000	1088	1696	-643	-14528	7832	-4008	-49	382	-27	-15688	2360	936	-319	2099	-362	124	131	1
-12444	-6812	10260	6250	-32768	-24801	-7860	1360	-7056	-3232	-32768	3326	-9208	2400	-8264	177	-1570	-658	-9712	8888	9376	1002	1735	-822	-14664	6064	-3320	-230	526	-112	-14792	3256	728	-132	2188	-269	147	119	1
-15752	-4804	12200	5485	-32768	-26512	-10680	-60	-7864	-248	-32768	3086	-7560	768	-9408	429	-1449	-671	-9964	9428	8740	495	1561	-1215	-13584	6512	-4792	289	444	-104	-15088	4584	2032	210	2270	-148	127	123	1
-19500	-5072	14060	1828	-32768	-28369	-12056	-1744	-9080	6212	-32768	4562	-6824	-152	-9760	1557	-1062	-399	-10096	8648	8896	-528	1081	-1747	-13552	6632	-5064	445	391	-85	-12424	2808	3168	-42	2501	71	127	124	1
-22244	-7708	15368	-633	-32768	-28313	-12348	-576	-9816	8772	-32768	6259	-6064	792	-11248	2618	-665	-437	-9680	8868	9568	-1290	1107	-1938	-14608	6288	-4696	446	429	-102	-12040	824	8328	-816	2876	122	123	128	1
-25384	-9472	17272	-813	-32768	-27719	-15920	864	-10260	5657	-32768	7292	-3920	4520	-10768	2887	-201	-354	-10040	8904	9480	-1774	1304	-2321	-15688	4824	-3856	481	523	-91	-15384	464	3616	-479	3445	-172	120	137	1
-28568	-10284	20060	-694	-32768	-29205	-20400	820	-10080	5283	-32768	8777	-3016	5200	-8184	2282	69	-76	-10104	8392	9920	-1700	1549	-2877	-15464	5056	-2752	707	601	-125	-17888	1840	-1640	827	2757	-239	124	133	1
-32768	-12872	23484	-229	-32768	-30941	-26588	-152	-11132	3822	-32768	11152	-3496	3432	-7016	1910	237	21	-10084	8200	10560	-1336	2451	-3087	-15408	5352	-2784	727	622	-140	-19144	2464	-792	-709	1764	-169	123	141	1
-32768	-17420	22748	4081	-32768	-29787	-32288	556	-14068	4618	-32768	11235	-7632	-2920	784	1556	-74	224	-10260	8024	10856	-756	3645	-3724	-15752	6904	-3616	508	990	-299	-17264	5320	5632	-1442	1804	-168	135	133	1
-32768	-4272	12284	-500	-32768	-32768	-29180	-168	-8360	-19323	-32768	10724	-23088	-7072	18496	1041	-1970	-126	-10372	9104	10928	-879	4829	-4686	-15168	8824	-1800	659	1160	-422	-15912	2352	8872	170	2004	-198	85	132	1
-32768	3452	-10084	-7901	-32768	-26932	-18964	8028	-22200	-26643	-32768	-915	-32768	4240	32767	3637	-1018	-1710	-10736	10776	10816	-1775	6549	-7102	-16048	9736	-288	857	1464	-607	-18376	1448	7416	646	1762	55	133	128	1
-32768	32767	-32768	-32768	-29584	-18676	-2760	-7572	-9832	-32768	-16874	-10397	-1944	5696	32767	-1359	-814	1268	-10660	7768	14116	-1791	9682	-9329	-17728	8920	-2336	672	1900	-923	-19032	5600	4824	494	1335	237	124	133	1
-32768	14868	-32768	-29707	-5939	-1886	3232	-16928	-11024	-3136	11684	5684	-26088	5224	28320	-2168	-1449	1288	-11352	9992	15108	-1218	14284	-11762	-21312	8520	-3864	417	2223	-1207	-21344	7048	4376	727	1014	-99	118	137	1
-32768	2380	-19688	26511	5368	32767	-14768	-3184	-16016	11558	26111	-3767	-16352	-1408	11528	-2755	-1666	-82	-11292	10652	14852	-1078	15060	-12530	-22304	7184	-3448	1015	2276	-1199	-20928	360	4096	915	273	-163	130	134	1
-17424	9472	28412	18501	11978	31737	-19768	-1860	-692	19689	32767	309	-3936	-920	1400	-2547	27	96	-10932	9776	14660	400	23587	-18265	-23360	6656	-3520	1589	2303	-1150	-21232	-472	9384	1018	-124	-6	123	133	1
5984	-32768	19816	12847	17291	19850	-32768	13748	16076	32767	17378	-2239	-20376	5320	24	-1302	925	287	-10716	13716	16652	149	30488	-28826	-31064	8272	-1328	1754	2317	-1258	-26984	4424	17032	1135	-388	117	139	133	1
-32768	19836	14080	11392	32767	-90	-24832	1688	-27228	32767	26874	1837	-25912	4824	2256	-627	643	239	-9620	19796	19948	-534	32767	-32768	-32768	12632	7992	2618	2114	-1227	-29680	6984	27288	1612	-1725	-76	148	134	1
-32768	17104	25604	3766	18072	19252	-23340	5016	-14436	19618	27551	-6996	-13264	22720	-1144	-1304	3064	-231	-30908	20868	20384	3300	32767	-32768	-32768	22000	6224	4109	2071	-1444	-26464	72	17176	2445	-3439	-835	139	130	1
-14324	-25600	6212	9316	19576	14335	-8692	-7304	-6100	-7320	20939	-15127	-11256	20704	-22160	-2042	1092	501	-32768	31676	15524	5881	32767	-32768	-26392	27376	-3760	3227	2390	-1737	-25328	11696	-2704	1266	-2656	-501	141	131	1
-23296	-404	8784	10666	698	14307	-8176	-12744	-21256	-2315	18420	-15070	-10912	-15520	-11688	-2937	-1031	433	-32768	31684	10792	-4582	32767	-32768	-20336	13056	-4328	2196	2487	-2028	-28928	9168	-20368	-389	-2837	615	81	132	1
-11704	-596	15212	3776	-290	3745	-24400	8216	-16444	-4372	13502	-4798	-30928	-5904	-12328	-209	1646	-2	3660	29604	19244	5654	27169	-32768	-18848	8560	-13408	-209	2666	-1637	-32768	-1568	-3960	-1318	-3410	846	174	127	1
-11352	-6060	11660	2313	-939	1337	-15016	-660	-9396	-20701	12796	-6591	-22712	2272	-7504	-846	1669	-223	-32768	26952	17088	15699	-9916	-18174	-14448	-384	-24808	-2081	1654	-1458	-32232	-7672	-4872	-588	-3202	481	138	134	1
-10796	-3784	12592	1693	699	1227	-16692	-3948	-9528	-21036	11183	-6659	-14440	-2912	-1976	-1024	1912	653	-552	32767	9932	2451	-32707	2836	-14000	-1584	-3760	168	-384	-75	-31752	-6312	-4992	388	-3195	577	142	148	1
-11252	-2736	12712	-23	2504	-253	-18916	-5280	-7420	-8084	7707	-3787	-18760	-3848	-1888	-313	1806	553	9120	19376	6536	-5827	-30270	5383	-6408	-3432	-1720	1480	-1686	726	-27848	-1208	-5600	1068	-3029	920	123	129	1
-11292	-4488	12084	-440	1772	-668	-18184	-1644	-6412	-3220	4787	-3640	-18312	-3568	-2424	472	2324	692	1640	9436	5524	-2945	-25931	12052	-4800	-880	-6000	771	-2322	1170	-20440	392	-6440	1507	-2598	1040	118	139	1
-11328	-4528	11960	-1142	1682	-1058	-16364	-132	-5616	-6127	3831	-1507	-18016	-1248	-1720	583	2135	548	-3132	8036	5876	6493	-25604	24395	-4968	-856	-6280	-124	-2844	1456	-15560	352	-8024	1145	-2217	1129	136	129	1
-11380	-5364	11516	-1456	1718	-582	-14896	4	-4336	-12270	3898	-1613	-15800	-688	-96	453	1937	461	-5024	11240	6356	9531	-25360	32767	-5872	192	-6008	-689	-3325	1827	-14864	624	-8872	672	-1942	965	128	127	1
-11320	-5104	11396	-1357	1532	-38	-16204	-552	-2988	-15857	4128	-1767	-15536	-2056	280	450	1927	321	-7880	12632	7040	5344	-25909	32767	-5664	688	-5320	-1269	-3648	2126	-13248	-432	-9064	405	-1737	773	103	128	1
-11212	-5004	11444	-1173	1385	329	-15928	-3172	-1956	-10451	3940	-1334	-15120	-3032	-664	532	2120	173	-10036	9244	9260	2805	-27305	32767	-8064	1800	-5488	-2002	-3833	2306	-9080	-1608	-9008	336	-1251	826	134	130	1
-11232	-4676	11612	-471	1288	513	-15012	-2540	-2648	322	3750	-14	-14408	-2720	-1600	376	2523	126	-12336	8360	11752	5860	-27489	32767	-10168	2280	-6320	-2849	-4098	2393	-7248	-624	-9848	-312	-1023	818	133	131	1
-11332	-4256	11016	-134	1074	409	-14724	400	-6108	3032	3304	723	-15680	-96	5264	268	2666	206	-15540	10520	13384	9432	-27762	32767	-11896	2688	-6856	-3813	-4339	2384	-5944	-584	-11512	-1174	-762	760	133	128	1
-11180	-4928	11212	-500	595	691	-15696	3176	-4868	-7023	3468	-329	-9496	5000	9952	424	2816	-365	-18972	12880	14696	10651	-28234	32767	-14856	1272	-7792	-4298	-4602	2389	-4832	-2912	-12848	-2197	-500	610	128	129	1
-11344	-4576	10948	-155	351	1060	-15776	20	-3800	-11677	4177	-1071	-15768	-80	4976	-502	3677	311	-20880	13192	17036	11020	-26315	32767	-18128	1320	-8152	-4380	-4854	2242	-3872	-6352	-11776	-2613	-211	321	128	131	1
-11116	-4372	11408	-58	363	1537	-16468	796	-2676	-8932	4426	-1151	-18424	-6160	-3768	-1448	3585	470	-24684	16644	21176	11027	-22145	32767	-24144	2224	-9728	-3737	-5359	2173	-3760	-6648	-9128	-2554	-157	-42	117	128	1
-11288	-3852	11968	-167	1008	1439	-16908	836	-1744	-5928	5134	-834	-20424	-2048	-7832	797	2007	172	-32768	26360	24360	8337	-22697	32767	-29432	7760	-13080	-3535	-5827	2350	-4696	-3632	-3528	-2839	-753	-240	144	133	1
-11316	-4308	11672	-548	1661	1730	-15144	1236	-848	-6937	6786	-983	-16912	-3200	9136	1585	1685	-70	-32768	13800	25648	11035	-24157	32767	-29608	5496	-16600	-3194	-5850	2361	-8816	2312	4720	-2991	-1726	-126	142	133	1
-11412	-5116	11316	-251	2233	1821	-16028	-1480	1980	-5863	8779	-148	-14112	-2576	15256	-268	2065	167	-32768	5716	15616	15707	-25366	32767	-23712	6232	-16696	-1670	-5449	2098	-18528	3016	18112	-3217	-3044	654	132	134	1
-11188	-5584	11980	237	3226	2758	-15040	-3696	5120	-1665	12164	710	-18720	704	7104	-568	1900	183	-32768	-9040	1708	12643	-24403	32767	-21624	-4144	-22000	-775	-4063	2246	-26080	-5768	32767	-4454	-1818	236	130	144	1
-11252	-6316	13204	913	5352	4475	-18244	-1372	3624	2176	16027	881	-20256	-2328	8688	-250	1248	-239	-32768	-32768	-11692	29826	-16287	24519	-2488	-1208	-12008	2413	-2521	1241	-9760	-9928	32767	1230	-594	-592	132	134	1
-11548	-3800	14932	1689	8845	5708	-18144	-4	-536	2622	19473	1362	-18152	-4720	5696	-764	885	-117	-32768	-19080	-18176	13154	-9497	-6889	-1600	11968	-15120	2217	669	-74	-22432	-3608	24064	3585	-1463	-321	126	129	1
-12472	-5708	16496	2105	13524	7078	-21416	-1284	-2728	4661	21611	2296	-20848	-5912	1640	-989	758	277	-32768	-11688	-1836	-24792	-9329	-32768	-13152	2744	-21040	-237	3092	-1261	-17224	6528	7184	3145	-1716	188	126	132	1
-12628	-8300	16400	1004	19109	10970	-23432	1452	-2440	2668	23439	2259	-21912	-632	2064	-901	162	120	-32768	-10864	3860	-17532	-1883	-23802	-17016	-5856	-23656	-939	4519	-1812	-3712	5648	-608	2292	-143	370	128	142	1
-12360	-6104	16920	176	25634	14705	-22656	4208	-3064	102	25491	1256	-20048	1560	6920	-981	-133	34	17700	32767	14592	-16795	1798	-18237	-32768	2744	32767	3816	1477	-202	-8008	-5304	4984	1791	-220	641	126	146	1
-11800	-5440	18624	-75	32767	18635	-26344	3708	-2888	1281	26338	1532	-22888	-888	10648	-1115	-40	110	8288	-32768	22292	-14777	32767	-30167	-32768	16264	-22272	3127	2149	-931	-32768	15072	26232	-2392	-934	771	83	130	1
-7436	-7568	22024	-961	32767	29044	-32736	7372	1604	41	26421	812	-27648	-3536	16976	-927	-441	372	-32768	6664	32767	-10816	21898	-24053	-21096	5520	-11760	-2869	4581	-2025	-22184	-16168	6032	-1191	1439	-1667	126	137	1
-15352	-17360	21684	65	32767	32767	-32768	10028	12336	-17109	28719	-282	-31528	-24	20904	-3434	-3711	1113	-24876	32767	-1304	-10591	14771	-17094	-7544	-1704	-18216	-1395	3696	-1209	-7656	-22872	-28752	3185	907	611	133	97	1
-32768	-304	16256	-13314	32767	32767	-31148	-6644	-608	-17607	32767	543	-31744	-688	17296	-3992	-3964	1165	-16256	2224	12600	-10254	425	-14712	-8568	-3376	-19408	1406	2001	378	-7264	8024	-7848	3227	644	-267	135	164	1
-32768	-13760	11980	-25538	32767	25179	-30360	-9892	-4172	-25907	32767	6042	-27688	-13272	-11784	-718	-2637	17	-11424	-1292	18404	-5676	2174	-3783	-24104	-1344	-14296	1511	1685	-85	-32768	13072	-9856	892	1051	-504	127	111	1
-32768	-28984	14836	-21167	32767	27581	-20916	-11940	1200	9409	27200	9796	-31360	-3792	-21216	684	-2737	-1200	-8496	10416	10944	-2640	2067	-1722	-15192	6864	-9176	2021	1183	-158	-22312	240	-4352	50	1489	-383	131	112	1
-32768	-22900	14352	1889	18738	32767	-15336	-13500	-30032	15015	19644	6086	-32768	5768	-2816	1912	-3575	-1081	-9164	8108	11184	-2278	1929	-1797	-15584	3232	-7616	2396	751	-114	-15112	1160	-920	414	1879	96	129	150	1
-18216	-28216	18920	12221	-23353	7829	-18564	4996	-12948	22369	2759	599	-32768	2568	-4760	1572	-3465	-1200	-9492	7028	11776	-63	2529	-1319	-15576	10232	-7872	1065	809	-81	-16712	272	-680	325	1832	76	143	118	1
-13176	-26996	20004	14506	-27121	4997	-7680	4396	-4180	14707	-9807	3623	-32464	2304	-5704	1426	-3329	-1293	-9588	8104	11196	1031	3059	-1211	-16152	7496	-9144	-900	1096	-318	-19464	2232	-2232	353	1725	-426	143	117	1
5468	-5988	11484	13784	-29565	-7118	-2184	1400	-4880	7978	-15231	1282	-22144	664	-5712	-494	-2744	-1402	-9856	8044	10840	1653	3455	-327	-16488	2560	-8192	-722	749	-165	-20208	5120	-2512	-71	1798	-662	116	120	1
-1664	-3344	10036	3091	-27780	-15912	-4020	1532	-7096	6356	-20841	3094	-18208	48	-7640	-317	-2221	-1037	-9948	8212	10620	1974	3250	-147	-16000	2416	-7808	519	300	-9	-17264	2544	-976	-402	1937	-727	136	131	1
-6452	-7284	8840	-2749	-32113	-22492	-2596	-108	-7816	2587	-26530	3052	-15176	1704	-8576	-5	-2025	-803	-9988	8912	10140	1855	2755	-426	-15312	5952	-6152	1358	-45	193	-16128	776	992	-451	2009	-328	136	125	1
-9820	-9740	8792	-191	-32768	-24889	-4052	140	-7760	-207	-32233	4439	-13768	2032	-8728	330	-1920	-737	-9944	8264	10320	1690	2340	-738	-14672	7216	-4464	972	30	113	-16088	712	2424	-405	2023	-237	139	127	1
-10508	-7116	8288	3773	-32768	-25631	-4796	40	-6616	-2716	-32768	3784	-11768	1376	-9400	667	-1614	-791	-9864	7968	10400	1665	2123	-850	-14760	7216	-4616	879	59	100	-15344	-56	3456	-309	2017	-294	69	129	1
-12464	-4080	9552	3844	-32768	-27367	-6960	4	-6848	-797	-32768	3709	-8088	2568	-9664	384	-1385	-785	-9840	7812	10320	1844	2076	-753	-14296	5808	-3608	118	406	-5	-14256	1240	3080	60	2039	-337	133	127	1
-15952	-4960	11444	1737	-32768	-29611	-10680	-808	-7904	3383	-32768	5010	-7048	1168	-10696	470	-1154	-745	-10096	8228	9420	1637	1862	-720	-12952	7248	-4104	327	405	-38	-13992	4320	936	449	2150	-336	136	125	1
-20212	-7432	13396	706	-32768	-30577	-11252	-1928	-9420	9437	-32768	6119	-6176	-624	-11744	1834	-812	-513	-10112	8692	8652	589	1354	-886	-12256	7344	-3376	418	438	-96	-13008	5208	-1352	580	2529	-176	123	127	1
-24224	-8784	15288	784	-32768	-30658	-12808	-432	-10288	9075	-32768	7098	-6184	1360	-13544	3345	-316	-675	-9240	8428	9300	-587	961	-1167	-13560	6136	-7176	188	558	-113	-13528	3176	5888	-221	2787	157	125	130	1
-28132	-9916	17488	728	-32768	-31925	-17244	404	-10820	6812	-32768	8573	-3808	4256	-12320	3758	-51	-462	-9860	8172	9884	-861	1211	-1164	-16256	4544	-4288	304	507	-106	-12496	-312	5808	-1258	3516	8	123	132	1
-32688	-11084	20516	1473	-32768	-32768	-22264	-644	-10596	7417	-32768	10203	-2568	4776	-8952	3074	86	-193	-10124	7840	9880	-955	1193	-1585	-15320	4336	-3696	661	471	-55	-15944	1336	-3280	335	2969	-275	126	122	1
-32768	-14228	23684	3303	-32768	-32768	-28800	-544	-13108	10076	-32768	12036	-3080	2480	-4176	2354	22	-8	-9932	8504	10516	-909	1646	-1673	-13904	5840	-3888	721	626	3	-21640	2832	-6240	371	1536	-440	128	128	1
-32768	-6608	21176	3153	-32768	-32768	-32532	3176	-12576	-705	-32768	13145	-8592	-2992	9344	1635	-540	160	-10252	7744	10760	-79	2307	-2357	-17688	6328	-3864	463	797	-154	-14512	4512	8904	-1972	1974	-125	120	131	1
-32768	-4396	2316	-4284	-32768	-32768	-25436	3592	-16660	-17601	-32768	9243	-26144	-2040	16848	1489	-2765	-564	-10096	7764	11064	240	3696	-2647	-13960	8088	-296	763	914	-272	-13488	24	11648	-1	2579	-210	144	131	1
-32768	14124	-15396	-14877	-32768	-20278	-19096	1232	-23984	-31208	-32768	-6556	-32768	20728	32767	2484	-1222	-1146	-10232	10136	10792	-179	5363	-4143	-14256	12328	1536	875	1321	-486	-19304	2888	8616	574	1887	133	100	130	1
-32768	32767	-32768	-32768	-26877	-18928	292	-8220	-10836	-32768	-11617	-5550	-2760	8984	32767	-2807	-1244	1645	-9992	10372	10908	-295	5680	-4532	-16744	12392	-2560	316	1912	-876	-20376	9664	7136	-160	1492	162	118	133	1
-32768	9596	-32768	-25663	-5656	4310	-892	-11296	-13708	-14922	12320	1574	-29720	552	20968	-3319	-1630	593	-10936	11840	13632	-1893	11150	-10297	-19648	9416	-3632	536	2124	-1089	-20784	6648	3208	723	1060	-85	129	135	1
-32768	4904	-21048	21645	2135	32767	-14344	-4440	-16536	420	27802	-5936	-12208	-2992	12192	-2791	-1641	-381	-11008	12724	14372	-1272	14944	-16226	-21856	7016	-4752	1261	2107	-1068	-20664	-680	1904	887	299	-11	138	133	1
-15736	1912	24344	16613	6612	32767	-20672	-1284	2440	13761	32767	-2099	-5656	-1208	-392	-2634	-143	-306	-10732	10760	15908	293	19267	-21177	-24032	4288	-4984	1718	2194	-1054	-21088	-1480	6640	1265	173	135	118	133	1
2412	-32768	20644	25546	6944	17507	-32768	12896	17804	32767	9641	556	-20144	3504	-5544	-2247	1660	-102	-10964	10960	17740	796	26477	-23329	-28992	5584	-3000	1624	2303	-1198	-26368	2688	11608	1234	-48	111	164	136	1
-21164	21940	4464	13439	32767	-4636	-13552	-3080	-19096	32767	23392	6885	-31968	-29672	16336	5307	-231	-2627	-9316	16932	19292	372	32767	-29581	-32768	10520	5640	2234	2220	-1220	-28168	7264	21440	1372	-1130	-83	120	134	1
-32768	19000	27388	9607	20716	22080	-29888	8256	-22040	32767	22356	-2192	-7664	1456	16224	91	1716	236	-14328	22516	19928	-878	32767	-32768	-32768	17336	9600	3478	2067	-1300	-26592	2112	22976	2522	-3095	-566	128	131	1
-18232	-32768	12428	4538	23436	9156	-13492	2472	-840	-2282	20961	-14035	-16352	32767	-32288	1275	2444	2347	-32768	22692	19172	9231	32767	-32768	-28632	26736	-4960	3781	2465	-1600	-24360	5576	12432	1291	-3248	-942	160	127	1
-26300	4148	9700	13394	10071	18529	-10012	-20540	-19624	1893	18442	-12055	-12576	-2480	-7272	-2956	-643	-686	-32768	28532	13972	1209	32767	-32768	-21688	21496	-3832	2988	2258	-1910	-25680	11080	-13272	233	-2633	100	93	129	1
-17728	-2828	15016	5945	1451	8020	-19124	6360	-15348	1553	12868	-5426	-19104	-6328	-9736	-1457	1221	-583	-21940	31728	19272	-2315	32767	-32768	-18344	7752	-4960	1407	2656	-1833	-29264	2216	-12128	-377	-3230	664	179	139	1
-13504	-372	12652	2060	-247	1190	-17120	1920	-10716	-17953	13064	-8310	-23856	-1520	-8152	-1532	942	-192	-27640	1968	12140	8828	22693	-32768	-14416	6112	-19224	-1185	2466	-1466	-31512	-3544	-2248	-843	-3252	712	111	127	1
-10804	-6268	11452	1923	-310	716	-14860	40	-9072	-30212	13293	-7935	-15944	-5216	-3720	-1541	1813	617	-21084	32767	13776	16872	-23689	-4037	-12288	-1784	-13768	-1507	897	-843	-30784	-5744	-5472	88	-2967	417	146	151	1
-10708	-2556	12920	1106	2269	330	-18332	-7664	-6036	-18092	8566	-6021	-15824	-5456	-1400	-157	2022	577	6304	28412	7412	-412	-32768	4752	-10592	-3312	-1152	1016	-1225	390	-30216	-2160	-5144	535	-3040	662	139	136	1
-11648	-3656	11856	-31	2264	-367	-18612	-7488	-6948	6741	6014	-3242	-18000	-1872	-1528	470	2178	612	6956	14560	5152	-5956	-28757	6850	-5016	-2136	-3896	1552	-2028	909	-24400	216	-5976	1125	-2774	819	120	134	1
-11280	-3852	11988	-191	1565	-699	-17136	3072	-6588	2360	3277	-2561	-17608	-480	-1552	472	2068	477	264	7416	5056	625	-24500	16062	-4424	-40	-5840	600	-2491	1246	-15176	-248	-6544	1338	-2310	936	124	136	1
-11404	-4472	11992	-539	1285	-890	-15732	2236	-5228	-12156	3767	-1733	-17160	-808	-832	261	1916	469	-3400	8792	5332	8363	-24013	27214	-5152	648	-5800	-302	-2934	1467	-14688	2144	-7592	908	-2059	965	122	131	1
-11400	-4660	11756	-883	1630	-803	-15672	-88	-4268	-20283	4556	-2620	-15992	-1712	-208	323	1918	268	-5812	12296	5944	8189	-23899	32767	-5816	1336	-5944	-996	-3354	1807	-13856	1288	-8200	561	-1777	819	122	130	1
-11348	-4792	11420	-980	1077	-399	-16164	-2360	-3052	-18892	4231	-2174	-15056	-2552	24	305	2078	172	-9872	12944	7116	3018	-25371	32767	-5992	2200	-6184	-1692	-3567	2022	-11520	200	-8864	334	-1530	800	128	127	1
-11348	-4376	11600	-890	1157	-248	-15900	-4540	-2268	-6357	3237	-1483	-15136	-2680	-1480	297	2347	117	-10988	9680	9716	1455	-27345	32767	-9136	2712	-6560	-2478	-3847	2176	-9344	88	-9800	-94	-1112	882	139	128	1
-11416	-4104	11288	-424	1113	-185	-15172	-1312	-3040	2677	3336	-495	-12144	-2928	-1864	149	2837	362	-12988	8996	12008	5345	-27395	32767	-10912	3016	-7064	-3261	-4156	2193	-8568	128	-10384	-721	-872	856	128	131	1
-11352	-4656	10960	-54	875	-62	-15144	268	-5628	910	3350	-113	-16000	3256	6944	-332	2524	-369	-16400	12180	13600	8540	-27476	32767	-12808	2728	-8264	-4093	-4415	2194	-6656	-912	-12224	-1599	-581	773	126	131	1
-11216	-4780	11280	-334	483	518	-16352	2436	-4148	-9426	3745	-1089	-10472	2912	9656	588	3322	18	-16968	12684	13760	8709	-27527	32767	-15736	1616	-8720	-4409	-4753	2177	-5024	-3312	-13040	-2485	-271	603	127	130	1
-11376	-4004	11012	-89	473	750	-15920	-892	-2776	-12234	4360	-1699	-16528	-3224	-1744	-835	3789	347	-22824	14548	17976	10352	-25914	32767	-19944	1040	-8944	-4104	-5143	2078	-3760	-5488	-11888	-2741	49	365	118	128	1
-11196	-4592	11528	-14	676	1031	-16172	-1104	-1004	-6959	4863	-1318	-21504	-5744	-9056	-77	2535	284	-29412	20944	21636	12416	-23244	32767	-25840	2648	-14784	-3784	-5520	2177	-4848	-6024	-7360	-2904	-210	58	163	134	1
-11216	-4164	11844	-514	1427	1302	-15916	668	-1400	-4560	6249	-1215	-19968	-4256	2512	1419	1560	-44	-32768	25152	23224	10425	-24841	32767	-30600	8800	-13616	-3279	-5853	2371	-6552	-5608	-744	-3037	-908	-174	143	133	1
-11408	-4312	11820	-1063	2276	1436	-17096	120	0	-8299	8267	-1119	-15560	-2816	14120	470	1855	-32	-32768	18352	18660	7653	-25020	32767	-28864	4536	-17336	-3468	-5495	2527	-11976	-928	10376	-3338	-2249	-66	134	131	1
-11496	-5248	11604	-962	3061	1951	-15728	-2412	3772	-7274	10904	-271	-16736	2432	9352	-904	1964	215	-32768	-2308	10776	17805	-16750	32767	-25216	296	-15600	-1596	-5143	2221	-23304	1128	24008	-3576	-3127	58	133	139	1
-11324	-6120	12232	-266	4466	2991	-15620	-2820	4564	-2377	14698	434	-19400	-592	7440	-423	1530	-222	-32768	-20840	-2008	27482	-12232	32767	-14200	-992	-24632	-32	-3771	2221	-16864	-6880	32767	-3071	-432	273	131	150	1
-11592	-5504	13416	286	6877	4209	-17596	352	748	1155	17925	665	-16656	-3472	7152	-793	1034	-333	-32768	-28832	-4076	30218	-10876	32767	1264	4496	-7856	3922	-1715	825	-12472	-13952	32767	1507	-636	-810	131	144	1
-12468	-4116	15340	1479	10828	5019	-19052	-1924	-2916	2607	20431	1478	-18976	-7048	144	-1045	1064	48	-32768	6620	-18804	-2788	-3330	-14652	-6288	14056	-14376	2521	1259	-389	-25544	2448	13256	4313	-2585	-201	126	120	1
-12808	-6584	15772	801	15793	7052	-22100	-976	-3296	3141	21961	2375	-21144	-5320	-184	-924	617	243	-32768	-7796	-236	-28327	-8708	-32768	-10760	7904	-19408	-838	3749	-1401	-11328	13344	5152	3214	-1386	-74	126	126	1
-12060	-7356	15620	-67	21043	11044	-21688	2228	-3204	872	23693	1656	-20336	1456	2992	-844	2	-4	1024	19256	21820	-23468	4455	-32768	-24896	-3896	4528	-1465	4120	-1670	-2224	8736	-2376	1624	648	975	127	145	1
-11884	-4724	17060	-616	27207	13492	-22428	3988	-3556	-1204	25252	1255	-20136	8	8048	-1128	47	-6	25308	32767	18020	-19208	10635	-23632	-32768	-5184	23128	2169	2271	-663	-12456	-8720	13448	-2775	1452	1347	141	125	1
-10300	-5356	19212	-328	32767	17932	-27604	4456	-1844	1975	26087	1989	-24096	-2568	11312	-1028	64	93	-32768	-14112	31752	-12936	32767	-21543	-30280	12560	-25456	152	3562	-1999	-32768	17568	15424	-3302	98	726	104	119	1
-11712	-10044	20528	-323	32767	27047	-32768	8728	4352	-2084	26836	658	-28536	-3360	20192	-1108	-678	409	-22880	-2928	19264	-3896	15741	-24384	-16176	-2784	-17416	-2749	4490	-1750	-22280	-26536	-14296	1825	2244	-2389	128	141	1
-25556	-15972	18196	-4812	32767	32046	-32768	7584	12380	-20001	30750	-504	-31816	-336	17000	-4062	-4279	1149	-17972	8176	4032	-15949	4104	-19432	-1688	5704	-21984	-458	2937	-511	1856	-192	-12416	3769	-422	1295	129	108	1
-32768	-624	16160	-21184	32767	25759	-30708	-9116	-3404	-23925	32767	2203	-22760	-7952	464	-2285	-2441	332	-18532	4304	13624	-10223	-1748	-8391	-18496	-4472	-18944	865	1944	152	-17712	12032	-12952	1657	1245	-118	132	125	1
-32768	-23892	6948	-27817	32767	24528	-29976	-8512	-3884	-27367	31323	8738	-32072	-12704	-17952	-537	-2737	-379	-11140	4972	13812	-3264	2357	-1704	-21864	2192	-13104	1532	1662	-228	-32688	-1192	-7200	347	1658	-112	129	155	1
-23176	-29868	16536	-16842	32767	32767	-18364	-14924	6460	18747	23647	10331	-31312	1320	-15792	523	-3060	-1122	-8316	10984	9512	-2480	1581	-2102	-19192	3056	-11984	1913	1483	-191	-17016	1160	-3272	1227	1630	-173	98	102	1
-32768	-32768	23804	6426	11452	29416	-12360	-10608	-32768	23419	14591	4292	-32408	6392	-2144	1735	-3696	-1021	-9440	7952	11240	-1379	2227	-1654	-14208	10424	-8280	2261	690	-5	-15640	6312	-1192	627	1842	202	145	130	1
-16668	-25508	21548	14616	-32768	-1198	-17884	8088	-11088	20313	-77	-269	-31232	1464	-5664	1109	-3199	-1309	-9892	8432	10724	89	2812	-1410	-15392	8560	-7792	-665	1219	-323	-18376	952	-1320	88	1883	-401	152	116	1
5756	-11848	15652	17124	-32768	-4334	-4968	3624	-1792	6975	-11478	1974	-28200	2432	-4904	11	-3125	-1377	-10056	7964	11296	1181	3561	-771	-17600	3776	-9280	-1451	1087	-367	-20504	3344	-1752	-168	1896	-539	115	120	1
7276	-3404	10488	8944	-32768	-8738	-2432	1284	-4336	5687	-17438	-753	-20792	-128	-5544	-399	-2568	-974	-9120	10996	10532	2485	3507	-406	-16952	1728	-8176	-334	705	-124	-18792	2552	-1480	-584	2030	-664	123	132	1
-1588	-2096	10012	-2174	-30044	-15328	-3992	3148	-7276	5718	-22887	-140	-17656	3120	-7928	-327	-2305	-745	-10132	8984	9828	2200	3059	-664	-16272	2912	-7520	1068	208	108	-16912	224	320	-701	2096	-475	154	132	1
-7264	-6664	10188	-6862	-32768	-21183	-2792	2428	-8160	-128	-28530	583	-15080	3936	-8120	-303	-2178	-501	-10060	8704	9824	2134	2416	-974	-15040	6536	-5352	1442	-13	237	-15528	-104	2136	-567	2107	-201	128	134	1
-10108	-7596	10552	-3179	-32768	-24200	-5540	2384	-7972	-6049	-32768	2190	-14136	3048	-8416	-143	-2003	-546	-9996	8632	9972	2195	2076	-1087	-14288	8432	-4320	608	234	95	-15672	720	2360	-356	2061	-241	102	126	1
-10360	-3880	10700	-173	-32768	-26947	-6500	2184	-6820	-8006	-32768	1696	-10728	984	-9640	-45	-1756	-730	-10020	8264	9704	2106	1942	-1261	-14216	6472	-3968	-154	509	-50	-15088	1720	1872	-144	2079	-361	138	134	1
-13556	-2728	12292	-134	-32768	-29164	-6660	1932	-6904	-7695	-32768	1498	-7488	1080	-10008	-510	-1440	-802	-10200	8560	9028	1345	1798	-1351	-13592	5368	-3648	166	502	-86	-13936	3672	936	130	2138	-276	138	116	1
-17832	-4520	14612	-1132	-32768	-29571	-11960	-2016	-8544	3378	-32768	2350	-5672	-1120	-11152	526	-926	-430	-10244	8628	8380	92	1519	-1593	-12032	7040	-3520	523	470	-77	-13440	4272	-680	344	2342	-74	127	124	1
-22480	-6064	16060	-2034	-32768	-29138	-11292	-1648	-10008	10754	-32768	5470	-5944	-600	-12896	1963	-567	-588	-10112	8560	8544	-1199	1164	-1996	-12040	7208	-3872	521	491	-90	-13232	4368	3120	0	2704	66	120	127	1
-25652	-8016	17740	-2568	-32768	-29350	-14356	1100	-10480	7870	-32768	7240	-4624	1632	-13688	3321	-160	-653	-10572	7152	9448	-1942	1289	-2065	-15336	3840	-5936	-22	671	-180	-12648	1800	7016	-1044	3257	117	123	129	1
-28668	-10260	19896	-1578	-32768	-30597	-19736	1084	-10108	4668	-32768	9164	-2168	4136	-10808	3158	64	-417	-10352	8216	9504	-1921	1682	-1908	-15944	3744	-5744	473	588	-95	-14312	-880	688	-264	3570	-254	126	136	1
-32768	-12540	23412	-166	-32768	-32608	-25800	-428	-10788	5040	-32768	11090	-1752	2816	-8472	2743	140	-124	-10280	8008	10144	-1799	2148	-2199	-15440	4512	-3392	799	605	-2	-17928	-88	-4216	309	2420	-149	127	131	1
-32768	-19100	23328	3416	-32768	-32768	-32768	764	-14896	6581	-32768	12115	-4480	-1136	-504	2195	-89	159	-10284	7840	11052	-1046	3020	-2495	-15576	6328	-3432	605	809	-147	-19936	3968	1016	-1397	1651	-157	131	134	1
-32768	-19128	21820	4400	-32768	-32768	-29592	2108	-20176	-5429	-32768	10523	-20400	-6432	18128	1209	-1968	280	-10652	8648	10652	-739	4323	-3265	-16224	8096	-2984	550	1045	-279	-16136	5512	9608	-826	1960	-139	122	134	1
-32768	-1004	-7152	-7649	-32768	-31215	-18460	5024	-22208	-21448	-32768	934	-32768	7440	28952	3210	-2371	-1222	-10656	10020	11200	-1175	5839	-4932	-15376	9832	-576	839	1234	-422	-17320	1856	10040	689	2048	-61	147	132	1
-32768	32767	-28188	-32768	-32385	-22847	-11536	-9480	-15812	-32768	-23111	-10203	352	568	32767	-2012	-274	1142	-10964	9632	12680	-1767	8477	-7817	-17472	10224	-1152	812	1626	-701	-20976	4680	5880	415	1617	188	125	135	1
-32768	32148	-32768	-32768	-12337	-10448	1652	-14336	-10052	-17504	5180	2355	-23640	1128	32767	-1721	-1551	1116	-11244	9000	13568	-1736	9058	-8234	-21336	9816	-2504	554	2049	-1044	-23192	8176	6048	597	1080	12	124	136	1
-32768	-656	-31048	13096	627	32767	-9448	-6120	-15472	-1533	24074	-3718	-21104	-3200	11664	-2658	-1579	-166	-11172	12604	14128	-112	17097	-15999	-21944	7864	-1992	1028	2160	-1129	-21080	696	5752	1027	438	-165	130	131	1
-5548	6396	19152	23365	5091	30877	-16772	-5848	-14464	18479	32767	-2961	-4992	-1432	5824	-2317	-444	-288	-10656	13036	14408	859	21490	-21461	-23256	6064	-3088	1620	2241	-1084	-20264	-1528	9024	1247	6	44	138	132	1
7464	-32768	29588	25358	7370	17485	-32768	12700	21232	32767	17608	3445	-15624	656	-616	-2523	1715	-238	-10704	13312	16876	495	28423	-26509	-29240	8032	-1640	1828	2292	-1147	-25488	2280	14584	1386	-327	166	128	133	1
-8736	25832	2988	16650	32767	2192	-21872	-2532	-17100	32767	21548	1315	-30992	-19360	13464	5044	-362	-1643	-9368	20036	19392	-337	32767	-32282	-32768	11328	7552	2615	2079	-1138	-30112	6968	24672	1783	-1478	-31	133	134	1
-32768	20496	32244	8367	26377	23037	-27652	10216	-23128	32767	24242	1258	-16120	3920	18768	330	567	-387	-25580	20368	19608	3298	32767	-32768	-32768	18840	9584	4247	1831	-1321	-27576	1368	20440	2856	-3216	-625	123	131	1
-32768	-32768	-488	12497	23487	14116	-12140	-3940	-4464	-7461	20756	-16844	-14824	32767	-26416	1034	2573	2034	-32768	29308	16028	11961	32767	-32768	-27760	30512	-4320	3603	2263	-1632	-27288	-104	19968	2332	-3394	-886	113	134	1
-14960	14888	15596	12388	6521	18900	-9452	-12572	-15088	1985	18610	-15990	-10752	-9008	-15784	-4129	-662	-212	-32768	32767	12028	-2878	32767	-32768	-20368	15784	-5144	2004	2655	-2047	-28272	11440	-19856	-293	-2855	512	63	130	1
-11588	3868	17500	6031	449	6615	-17040	4244	-15552	-3724	14182	-4983	-22952	-11584	-12792	-1317	1473	-440	-8756	27884	20392	7009	28315	-32768	-19328	8304	-13512	-339	2802	-1745	-31648	-1408	-4824	-1627	-3524	837	93	129	1
-11884	-2892	12660	2501	-174	1468	-17036	4184	-9240	-26254	13796	-6683	-23112	224	-9184	-917	1222	-54	-32768	23804	15960	14554	-4852	-23792	-15816	-1168	-25808	-2024	1862	-1531	-31736	-7384	-4312	-717	-3176	549	153	131	1
-11508	-3852	12296	1972	395	1031	-16804	-5488	-9648	-29532	12595	-7823	-16896	-4096	-3392	-1126	2137	629	-4984	32767	11392	5419	-30953	1060	-13080	-1600	-5832	46	-136	-195	-31824	-7112	-5496	474	-3184	434	124	144	1
-11008	-4040	12524	547	1979	0	-16912	-9420	-5964	-5400	8370	-4143	-18440	-2904	-3608	-238	1907	493	8768	21152	6520	-4114	-30902	4691	-7024	-3496	-880	1541	-1561	662	-31072	-5776	-5160	638	-3170	499	124	132	1
-11292	-4344	11972	-195	2016	-442	-18604	-932	-5696	5773	4905	-3038	-18400	-2976	-1976	497	2204	678	2564	10496	5308	-3682	-26777	9937	-4272	-1368	-5704	1122	-2210	1117	-19848	-360	-6392	1550	-2585	1008	124	131	1
-11292	-4340	11988	-761	1497	-630	-16804	764	-5136	-2331	3975	-1361	-17088	-1904	-744	782	2153	492	-2008	7812	5272	4312	-25882	21087	-3904	-656	-5760	263	-2723	1428	-14360	1376	-7704	1258	-2190	1037	105	138	1
-11212	-5504	11448	-1108	1383	-204	-14448	2132	-3476	-15786	5035	-2143	-15992	-784	-296	447	1932	342	-4100	9848	5660	8647	-25865	30108	-5464	696	-6120	-434	-3130	1760	-13832	848	-8120	793	-1887	875	131	130	1
-11196	-5376	11256	-929	1196	312	-16164	-1116	-2104	-21172	5947	-2621	-15416	-2904	736	461	1846	189	-6780	11436	6492	6715	-25945	32767	-5352	1264	-5336	-1081	-3466	2043	-12736	568	-8400	555	-1632	777	95	120	1
-11236	-4860	11392	-569	997	771	-16164	-4940	-1584	-12400	4999	-1667	-14952	-3696	56	650	2008	15	-9188	10344	7968	3982	-27109	32767	-7304	2288	-5544	-1839	-3656	2232	-10136	-8	-8616	270	-1305	845	131	130	1
-11376	-4128	11480	-29	1029	767	-14596	-3108	-2476	3159	4623	408	-14696	-2088	152	664	2220	-111	-10992	8912	10580	5369	-27255	32767	-9584	2720	-6008	-2662	-3906	2335	-8344	136	-9320	-160	-967	853	140	131	1
-11404	-4316	11204	80	930	780	-14700	1144	-5428	3870	4759	50	-12592	304	3752	349	2194	-29	-13836	10424	12224	8395	-27022	32767	-11224	2920	-6936	-3534	-4149	2340	-7072	-24	-10928	-861	-755	767	135	129	1
-11248	-4708	11336	-149	760	981	-15704	2996	-4144	-7111	5140	-914	-18408	8768	11720	-258	2490	-95	-17112	12144	13676	10228	-27068	32767	-13824	2176	-7712	-4125	-4435	2331	-5560	-1504	-12504	-1952	-549	718	129	128	1
-11324	-4388	11356	175	726	1344	-15816	-1340	-3700	-8450	5774	-1343	-14040	-8	6416	-625	3619	43	-19424	12692	15736	12156	-25605	32767	-16968	1200	-8240	-4178	-4717	2222	-4432	-4112	-11776	-2579	-311	524	123	128	1
-11296	-4480	11600	244	930	1588	-16632	252	-3896	-3190	5584	-1225	-17200	-5952	-3632	-1574	3764	429	-23940	17032	19080	12788	-21957	32767	-21536	1920	-9808	-3789	-5187	2144	-3720	-5976	-10200	-2629	-151	273	122	132	1
-11416	-3328	11960	-257	1696	1093	-16924	2108	-3984	-4183	6020	-1152	-19216	-1896	-10464	563	2454	180	-32768	25456	22732	11381	-22008	32767	-27576	6880	-14216	-3568	-5608	2282	-4960	-4792	-6104	-2763	-522	-106	159	132	1
-11360	-4276	11828	-778	2421	1067	-15568	584	-3292	-6464	6954	-1512	-17168	-2616	968	1481	1842	68	-32768	25476	20856	10113	-22600	32767	-29752	7520	-13008	-3276	-5729	2371	-8072	-2416	1704	-2727	-1238	-372	144	132	1
-11508	-4504	11472	-795	3012	1343	-16060	-800	-304	-6306	8228	-920	-13520	-2192	12336	304	1972	-32	-32768	8852	17332	9826	-19430	32767	-28936	2704	-16584	-2674	-5547	2492	-17232	1920	12984	-3072	-2488	52	137	138	1
-11456	-5804	11344	-65	3858	2209	-14848	-3036	3672	-3697	10723	-353	-16616	1424	9312	-459	1951	35	-32768	-2180	4012	15684	-15262	32767	-24280	6192	-17568	-507	-5076	2312	-28024	968	31368	-3612	-2709	399	128	112	1
-11324	-6612	12808	908	5390	3522	-16868	-2916	3500	108	14478	-228	-20440	-2768	8200	-346	1548	-196	-32768	-32768	-8968	28529	-12639	32742	-4392	4856	-16520	1261	-3010	1617	-2360	1744	32767	-77	-416	147	129	192	1
-11768	-5116	14472	1776	8387	5187	-19004	572	-140	953	17809	80	-18656	-5800	5264	-672	1104	-137	-32768	-32768	-16500	32767	-6482	9266	440	12000	-11976	3332	-341	580	-20664	-9720	32767	2135	-926	-750	130	155	1
-12316	-4160	16076	1904	12802	6006	-21080	-1260	-2492	3280	20194	1482	-20192	-6408	1968	-786	951	148	-32768	2604	-12520	-17157	-10110	-31959	-13584	11888	-15688	1072	2239	-753	-23824	5472	9224	3688	-2201	88	126	120	1
-11912	-7184	15840	702	18297	7566	-22572	-368	-2216	3354	22083	1817	-21632	-2216	2984	-828	459	167	-32768	-10092	4228	-22326	-6509	-32768	-13792	584	-21448	-1638	4623	-1683	-8888	10464	1848	2225	-600	526	125	135	1
-11936	-6708	15936	-105	24215	11470	-22040	2440	-1916	947	24026	1087	-20912	1032	6776	-968	17	-46	19280	32767	7960	-28754	5675	-24486	-32768	-2432	21072	159	3324	-1028	-5496	2792	-6416	1785	1043	1147	126	136	1
-11676	-6048	17988	-440	31721	15271	-25088	3856	-1404	150	25701	962	-22360	-328	10048	-1220	-99	-8	22784	-9708	16720	-19237	28688	-24354	-30464	-2736	4032	2530	2473	-708	-17280	7016	9368	-2320	699	422	145	152	1
-9160	-7580	20624	-1595	32767	24974	-31264	7116	664	-1524	26566	-333	-27304	-432	15760	-1285	-492	159	-32768	-260	32767	-8995	32767	-21155	-27240	12640	-19312	-1726	4029	-2354	-28848	3184	13464	-3516	-107	-544	63	140	1
-13116	-14256	21132	-2467	32767	31387	-32768	11776	9792	-14728	28271	-1209	-27760	4712	27400	-2725	-3412	990	-25360	32767	-896	-8645	15684	-19313	-10744	2864	-21152	-1843	3827	-1455	-15776	-32768	-14176	2132	2704	-1167	129	124	1
-32768	-1940	16840	-13335	32767	32767	-32768	1136	144	-19724	32767	-2531	-18856	1728	4032	-3558	-2991	1094	-14472	-12524	19572	-14033	1924	-19136	-10984	-3496	-20288	-682	2512	25	-3296	10336	-11992	4178	-115	937	124	135	1
-32768	-7944	10216	-30753	32767	19419	-30576	-6612	-5156	-32768	32767	4712	-26880	-7616	-6432	-1792	-2395	114	-12368	1972	17056	-8176	680	-5872	-20816	-6064	-12832	943	1817	-171	-26592	15080	-12504	855	1266	-221	129	128	1
-32768	-27160	13276	-29614	32767	24168	-24244	-7884	-2516	7439	26579	8048	-30992	-7864	-20952	-522	-2581	-913	-10280	9632	11420	-2867	2414	-1400	-17720	3448	-9160	2406	1201	-92	-23224	-4560	-5040	24	1547	-321	136	117	1
-14552	-29456	16584	-11416	32767	32767	-14164	-13776	-23260	14947	21865	7637	-31056	4216	-6328	1035	-3390	-1090	-8388	8988	10692	-2192	1813	-1863	-15496	4640	-7360	3953	490	112	-15568	-512	-1664	938	1643	296	125	104	1
-31596	-30804	16028	6984	-13523	12973	-16768	6128	-21196	21282	6561	-2086	-32384	2240	-3672	1671	-3589	-1031	-9784	8144	11056	-340	2468	-1475	-14904	6528	-7208	3778	483	113	-16208	3680	-1696	564	1700	316	161	120	1
-5940	-20160	15600	18258	-32768	-980	-18048	7516	-16892	20194	4339	-2353	-29184	2744	-5200	557	-3044	-1400	-9660	8632	10772	595	2875	-1265	-15128	8576	-8968	-1146	1364	-400	-19224	1576	-1464	348	1638	-495	140	120	1
5628	-6872	11140	17117	-32768	-2970	-1020	-1204	-2432	3763	-12003	-1093	-22768	944	-4840	-331	-2866	-1317	-9888	8052	11036	1580	3422	-647	-18328	1408	-8416	-1408	1076	-292	-20120	3720	-2384	-7	1715	-553	128	125	1
2952	-1080	8748	6525	-30104	-9634	-4164	1592	-5852	10684	-18368	-193	-18296	888	-6392	-375	-2269	-916	-10080	8692	10248	1896	3297	-304	-16160	1536	-8496	130	617	-81	-18872	2152	-1592	-428	1849	-687	123	133	1
-4624	-2892	8292	-4170	-30420	-18359	-2740	1892	-8096	8424	-23278	53	-16656	2560	-7608	-253	-2205	-730	-10008	9288	9516	1761	2431	-576	-15208	4448	-7144	1555	59	240	-16328	1168	208	-405	1932	-359	150	131	1
-6656	-9084	8704	-4295	-32768	-22472	-3260	1968	-7732	467	-28508	2547	-15800	1360	-8040	28	-2210	-713	-9960	8720	9772	1669	1884	-815	-14672	7640	-5504	1432	2	230	-15944	1520	2136	-436	1962	-186	132	123	1
-9228	-7920	8820	517	-32768	-24323	-5940	224	-7524	-2005	-32768	2345	-13928	728	-8464	383	-2024	-739	-9916	8280	10280	1755	1803	-844	-14600	7680	-4384	384	321	82	-15736	1096	2952	-475	1995	-299	87	135	1
-11508	-5408	9636	3277	-32768	-27178	-6888	808	-7236	-1835	-32768	2772	-10848	2104	-8912	89	-1819	-871	-10056	8148	9904	1680	1994	-809	-14272	6264	-4448	-229	560	-49	-14672	1984	2608	-155	2026	-366	146	127	1
-14644	-4640	11548	2975	-32768	-29798	-8748	-756	-7636	1115	-32768	3786	-8808	240	-10056	350	-1548	-870	-10132	8780	9000	1330	1877	-866	-13760	5656	-4688	163	481	-56	-13792	4208	1184	120	2115	-282	141	125	1
-18420	-5860	13572	1652	-32768	-30894	-12160	-2596	-8904	6586	-32768	4216	-8024	-616	-10960	1518	-1133	-637	-10372	8796	8920	1208	1818	-904	-12800	7328	-4528	598	393	-31	-14256	4920	-1168	120	2303	-184	124	125	1
-21920	-7056	14928	197	-32768	-30755	-11964	-1664	-10020	11283	-32768	6789	-7768	-192	-11768	2447	-865	-688	-10156	8656	8656	-297	1006	-1383	-12808	6752	-4824	380	519	-98	-14344	4120	-1296	153	2758	-96	127	126	1
-25348	-8940	16612	-1362	-32768	-30368	-14820	-124	-10712	6305	-32768	8259	-5392	1768	-12184	2972	-287	-744	-10204	7988	9476	-836	997	-1309	-14336	5240	-8848	-100	674	-149	-13336	2552	6272	-787	3127	72	126	131	1
-28964	-11704	18676	-1329	-32768	-31071	-19864	-452	-10112	3280	-32768	9800	-3456	4904	-9360	2619	113	-498	-9892	8976	9896	-630	1312	-1125	-16872	3856	-4536	228	544	-92	-11928	-2128	3096	-1068	3476	-184	123	132	1
-32768	-13324	21628	-983	-32768	-32768	-25536	-320	-10248	1840	-32768	11039	-2432	4296	-6928	1906	200	-248	-10092	8212	10084	-396	1555	-1464	-14904	3840	-3392	767	487	20	-17496	-912	-2936	268	2543	-124	124	132	1
-32768	-20588	19904	-606	-32768	-32768	-32740	-288	-16236	1333	-32768	10317	-5552	-400	80	1503	-62	1	-10092	8088	10636	-71	2313	-1700	-15208	6512	-3032	710	647	-92	-19840	3624	-24	-1102	1848	-167	125	132	1
-32768	-21792	19464	-119	-32768	-32768	-27948	3796	-21492	-9398	-32768	7459	-17528	-5544	16936	984	-1276	91	-10192	8700	10392	319	3482	-1993	-15664	7992	-2304	450	942	-254	-16248	5976	7560	-1000	1953	-79	135	136	1
-32768	1748	-6548	-16777	-32768	-32768	-20320	5568	-20284	-32768	-32768	-1771	-30760	5360	23544	1926	-1809	-1190	-10296	9104	11312	120	5226	-3158	-15496	9608	-1336	639	1151	-417	-18504	3512	8736	350	1983	-38	127	135	1
-32768	32767	-23480	-32768	-30384	-30288	-12804	-9180	-17784	-32768	-25800	-11708	-5024	-1032	32767	-1495	-479	-28	-10428	10380	12260	-64	7962	-5541	-18128	9504	-560	737	1494	-630	-20680	2992	6520	326	1655	69	138	138	1
-32768	32308	-32768	-32768	-16801	-22040	292	-11648	-9164	-30981	397	-2161	-18896	768	32767	-2001	-1220	946	-10912	9580	14408	-127	12119	-7965	-19744	9712	-1968	580	1900	-923	-22352	6248	6512	481	1159	-53	100	136	1
-32768	368	-32768	-6149	-4063	19599	-7356	-8508	-12108	-7309	19302	-3289	-20368	-4064	16880	-2995	-1343	-109	-11028	11124	14200	401	16525	-11985	-21000	8280	-3048	687	2132	-1106	-20944	1560	4400	1009	678	-115	129	132	1
-32768	3388	-13984	15297	2728	32767	-15276	-8936	-18372	30702	31461	-5107	-9944	-6992	14080	-1128	-1636	-713	-10620	13356	13188	774	20585	-17948	-21832	6056	-3592	1248	2199	-1102	-19608	-984	4608	1181	201	-23	110	133	1
-15628	-32768	32767	29037	9679	25605	-25696	13692	17760	27686	29164	-1368	-7480	-3304	-2184	-1419	744	-432	-9084	13680	14344	-239	25570	-21547	-24224	6520	-4000	1614	2221	-1076	-22064	696	8832	1378	-106	38	137	132	1
4580	-17776	14884	30792	6836	9957	-32768	1056	17044	32767	7251	-6164	-13464	4592	-2448	996	2063	-720	-7836	14656	16040	-1509	32695	-26753	-31632	8488	760	1927	2129	-1166	-27656	5376	15720	1203	-768	11	163	130	1
-32768	26988	29364	15334	32767	1787	-11316	1824	-20212	32767	24178	7604	-32768	-32768	9040	2152	151	-2038	-14520	19760	17048	-1147	32767	-32768	-32768	14160	7472	3172	1905	-1146	-26576	4496	25464	2205	-2140	-453	146	130	1
-30036	18008	21012	7234	8178	30098	-22556	6108	-22552	32767	23256	7362	-4912	23712	5560	3325	2077	912	-32124	20292	19996	4845	32767	-32768	-32352	26016	3320	3300	2470	-1365	-24976	824	16536	2392	-3274	-890	164	131	1
-22924	-32768	4328	19892	25777	10117	-17400	17004	-13400	32767	19140	-7247	-17992	32767	-5840	1392	1362	634	-31624	28456	15560	1073	32767	-32768	-25488	24064	-4672	1438	2878	-1937	-25432	15376	-2384	1541	-2493	-175	79	130	1
