#Activity	walking 
#ActivityID	1 
#Date 10-06-18-21
acc_rf_x	acc_rf_y	acc_rf_z	gyro_rf_x	gyro_rf_y	gyro_rf_z	acc_rs_x	acc_rs_y	acc_rs_z	gyro_rs_x	gyro_rs_y	gyro_rs_z	acc_rt_x	acc_rt_y	acc_rt_z	gyro_rt_x	gyro_rt_y	gyro_rt_z	acc_lf_x	acc_lf_y	acc_lf_z	gyro_lf_x	gyro_lf_y	gyro_lf_z	acc_ls_x	acc_ls_y	acc_ls_z	gyro_ls_x	gyro_ls_y	gyro_ls_z	acc_lt_x	acc_lt_y	acc_lt_z	gyro_lt_x	gyro_lt_y	gyro_lt_z	EMG_r	EMG_l	act
-16108	-4108	10432	-3920	-32768	-30130	-11960	3220	-4564	561	-32768	-9787	-10228	-2360	-8864	23335	-12531	-4794	-11188	1916	12144	174	860	-1275	-16648	-2224	-1008	8213	6446	2945	-16112	524	116	11824	14552	5644	118	134	1
-16968	-5052	10720	-5089	-32768	-26871	-13828	4496	-5304	-1452	-32768	-11224	-9060	1184	-9792	26443	-11853	-3793	-11376	2320	12008	132	1035	-908	-17120	-452	-596	5016	6473	2648	-16580	580	528	9645	14287	5483	122	134	1
-19324	-7220	12408	-5019	-32768	-24483	-16860	5196	-6956	-2823	-32768	-12202	-8448	2728	-8912	19295	-9078	-3018	-10868	3124	11748	-333	981	-1453	-16220	-1704	1168	2483	6764	2326	-16932	-1528	3156	7188	14713	5160	122	133	1
-23468	-8148	15676	-4995	-32768	-25386	-20652	7132	-8112	-2382	-32768	-13235	-7608	3424	-6732	9567	-3848	-2326	-11608	3272	11672	-1509	927	-2414	-16092	-140	724	3929	7910	2946	-15580	1024	3876	4068	16790	6138	119	132	1
-27288	-5728	20388	-8042	-32768	-27276	-26376	11888	-9096	-6203	-32768	-13804	-8768	6120	-2884	4136	-563	-1653	-11780	3356	11864	-2762	168	-2090	-16424	120	-168	4812	10147	2869	-14988	504	2260	-1826	15855	8931	124	133	1
-32768	-3848	21260	-12258	-30360	-27708	-31340	11708	-13324	-9358	-32768	-14543	-10004	5936	824	5163	441	-1881	-11372	2284	12604	-2468	-34	-2596	-16208	-604	996	3135	11849	2281	-17168	-372	3292	-2454	12561	7847	121	129	1
-32768	1112	14280	-11938	-29868	-24165	-27792	9668	-17264	-11287	-32768	-13233	-14392	-600	6212	-109	-1916	-3860	-10888	3016	12240	-3022	203	-1888	-16404	-128	2132	1352	13845	1985	-18608	200	5996	1249	9707	5448	120	131	1
-32768	7076	2824	-10599	-29169	-22053	-22792	11384	-21232	-9386	-32768	-10781	-20224	-4572	16748	2015	-5058	-7591	-11960	2600	13024	-2759	996	-3972	-17680	664	-228	836	16025	1080	-17672	448	4976	1594	8614	5199	121	132	1
-32768	6856	336	-10175	-29228	-21896	-15524	9192	-24672	-11050	-22892	-10088	-18312	5596	27792	1348	-3708	-6581	-12312	2312	13444	-2733	2824	-5124	-18568	-1148	-2208	-1245	17238	382	-17632	-392	492	4534	7419	5500	121	132	1
-32768	32767	-28836	-14499	-19302	-13525	-3072	7736	-22416	-10701	-3593	-6156	-13980	6508	32592	-10955	-4844	-265	-11908	2464	14588	-4019	5925	-6252	-19440	-1992	-4024	-1525	17989	358	-17580	1804	-1160	6590	5571	4001	121	129	1
-32768	20520	-26736	-8303	2593	-3882	-6680	2932	-18172	2380	11951	1288	-13772	-1920	21368	-10703	-7626	3226	-12256	300	15920	-4916	11023	-6779	-20400	-4648	-5808	-3189	18364	-353	-19780	3172	-2544	6950	4451	1683	115	127	1
-20016	968	11972	24338	8284	13789	-21704	5760	4344	-2541	17860	6559	-14480	-8988	5696	-8002	-2219	1835	-11624	2160	16976	-6769	15297	-8535	-21940	-3284	-4756	-5476	18131	-383	-20936	2908	-104	6703	2078	-617	116	127	1
10992	-20984	32644	9405	20199	19503	-32768	-3296	24392	6881	8656	99	-19708	-3700	-364	-1246	8751	206	-10216	2736	17700	-7985	20946	-9595	-25052	-3576	-2744	-7193	18146	-997	-24152	1056	6036	5050	-3249	-998	121	129	1
-19004	12836	8916	10374	19742	17627	-1580	20908	-9664	25781	7502	2966	-14932	-1464	6248	12241	6843	1215	-9408	4200	17712	-8839	27136	-11647	-26944	-7352	2976	-2987	20173	233	-22980	-3864	11652	257	-9557	-2731	128	132	1
-13096	-7832	14772	-933	26019	488	-23888	18684	-2160	6118	15960	9246	-14708	8532	3668	20958	8261	2832	-7312	7644	19188	-11117	32767	-18310	-29080	-10848	8976	2136	23203	1800	-20616	-14200	14392	206	-12409	-7415	119	131	1
-25732	544	19316	-486	18391	10525	-22500	5252	-6416	2357	16858	534	-19732	7260	5328	10169	9327	3500	-6292	6832	21988	-14573	32767	-23214	-32768	-19404	15576	11075	26696	2838	-21992	-18052	15356	7168	-15395	-15101	129	129	1
-17288	-18816	9120	-20	14405	6268	-21924	2060	-4412	3658	16076	1884	-20912	-4032	-7152	-4971	13458	1829	-27160	7204	14992	-16302	32767	-32381	-25660	128	-2384	9630	27600	3375	-18880	-6492	7128	13820	-14343	-13959	125	133	1
-11428	-4552	9852	10592	5978	8571	-17480	-5204	-8064	11974	10375	-53	-14840	-10872	-5684	-6566	13628	-4070	-32768	1808	3804	-11483	32767	-32768	-24248	2972	-8392	8123	27714	3669	-21360	5776	-4644	32767	-6784	-12046	129	127	1
-14804	-5528	11768	6185	1392	6323	-15116	7764	-6200	10496	6905	1408	-16276	-3676	-7028	3180	12223	-4767	-32768	5516	18836	-9606	32767	-32768	-22592	5104	-5912	-6444	19208	4654	-30352	3976	-14340	32767	-11929	-1443	128	134	1
-12884	-2916	13308	2947	1335	3854	-16808	8484	-4952	-1365	8844	185	-18260	1268	-4428	-570	11365	-3319	-12764	12740	24284	-2555	22385	-26069	-18364	-364	-8628	-8758	13515	3118	-32024	3064	-13680	11556	-24706	5288	133	134	1
-11568	-3988	12240	601	1309	949	-17612	4888	-2884	-6953	9237	-644	-16232	-1552	-1452	-4713	12425	-2198	-28240	13360	22964	5759	-9290	-1195	-12144	-3188	-5560	2607	8422	1293	-26160	2736	-2900	3741	-32768	-354	136	131	1
-10652	-5484	11296	-46	725	176	-17228	992	-1540	-4276	7622	-519	-15724	-4196	268	-4688	13268	-647	-5400	15580	17740	9027	-23868	9074	-9860	-896	1792	8710	-596	502	-25532	2012	-3556	4710	-24806	1413	130	126	1
-10548	-5136	11344	-522	764	-410	-16560	1936	-1040	1118	5040	-169	-15592	-5096	896	-990	12953	828	2368	12460	11616	4858	-24507	11580	-6728	700	1796	6496	-8988	340	-20628	3652	-8056	5959	-18655	2689	123	121	1
-10116	-5504	11104	-320	747	-547	-16704	2320	-1412	2210	4253	-61	-15964	-4812	172	2091	13838	857	-5452	8992	10184	2012	-25794	10776	-6044	6180	-1484	731	-17305	-974	-15720	4308	-9304	1460	-17348	3566	124	119	1
-9940	-5596	10916	-112	699	-516	-15732	2376	-740	992	4223	457	-15724	-2584	1236	2747	14680	-759	-6348	2208	10236	5713	-32315	10161	-6712	2748	-3112	-1423	-24829	-2362	-14196	5792	-8488	-4588	-16774	3462	129	114	1
-9284	-5832	10488	188	591	-96	-15956	1920	-184	-4188	6023	587	-15636	-1868	3044	192	15287	-2315	-5160	-152	8900	15287	-32768	13016	-7440	-1600	-3124	2932	-30009	-4272	-12768	6136	-8528	-9786	-16698	3076	128	119	1
-9408	-6644	10052	1042	486	980	-16504	100	-232	-4101	6459	748	-14260	-1428	3236	-3185	16075	-3773	-11676	3288	8632	19593	-32768	14730	-8724	-132	-4460	6701	-32768	-3895	-10732	5336	-9780	-15885	-15135	2218	126	123	1
-10000	-5072	11148	1960	438	1864	-15192	1776	152	625	5988	845	-14300	340	2740	-5156	17210	-2710	-17068	1988	10544	19966	-32768	17141	-11116	704	-6828	5718	-32768	-3554	-8556	4228	-9768	-21369	-13994	363	130	126	1
-10488	-4892	11072	1969	362	1759	-15680	2864	-776	1621	7379	1141	-14952	-136	3080	-3436	17360	-2863	-16192	944	9724	22601	-32768	22745	-14052	-3176	-5408	6827	-32768	-4216	-8552	2764	-9788	-24435	-13887	-274	129	122	1
-10092	-4472	11440	1428	406	1341	-16108	3124	-1092	999	8192	1337	-15592	-1448	1132	-1011	18546	-3516	-17076	3272	10596	22295	-32286	25782	-17760	-1464	-7372	5092	-32768	-1930	-8300	1456	-10592	-24699	-13067	-979	130	121	1
-10624	-4148	11420	551	647	799	-15940	3640	-1760	-1054	8813	1773	-18332	-2120	-920	1324	15400	-4370	-23008	1372	13728	19291	-25353	27482	-20916	-216	-10372	3234	-32768	-2614	-8776	-2296	-7840	-16973	-10147	-1470	134	122	1
-10296	-5252	11360	-60	910	653	-16112	1804	-224	-2675	9646	1985	-17252	-3104	1568	-3270	11798	-2772	-32768	-844	19216	19508	-23571	28059	-27312	-3360	-13656	3117	-32768	-2262	-10060	-8560	-2560	-8662	-9355	-3099	134	119	1
-10276	-5764	11364	91	707	1551	-16420	564	-428	-514	9947	2441	-16936	-3448	2104	-5759	10321	-1819	-32768	-6548	18108	20435	-24574	30477	-26820	-5320	-15076	9290	-32768	-1329	-10912	-9524	1960	-5697	-4430	-678	128	120	1
-10436	-5536	11612	302	956	2539	-17184	1280	112	1560	10751	2929	-17556	-2472	2016	-3644	9379	-2678	-32768	-10512	14092	19328	-25427	32373	-26264	-1444	-17572	14301	-32768	-397	-13980	-2792	7812	13706	-157	4718	128	126	1
-10268	-6192	11196	885	1467	3549	-16476	536	-1064	3506	11692	3554	-16280	-3044	3380	-3687	8708	-2897	-32768	-18100	5896	17392	-26795	30937	-24948	-3596	-18248	12158	-32768	106	-18268	872	12296	8358	-2157	7467	131	127	1
-11132	-4104	12668	629	2591	4084	-16228	2908	-2368	5457	12825	4478	-17312	-3176	4216	-5314	7968	-2483	-32768	-21768	-7720	12568	-23241	26502	-18084	3264	-19020	9194	-23529	1825	-17220	-4400	17680	777	-4660	8852	129	130	1
-10004	-5500	14116	-72	5554	4369	-18948	3496	-848	2869	15589	4644	-19328	-2900	1816	-6551	6511	-1676	-32768	-28840	-20448	9583	-15477	16527	-9400	2156	-21388	1807	-11859	4606	-12832	-9812	26320	-1276	-1699	5862	129	123	1
-12000	-5692	13724	733	10705	6487	-19796	4088	-2088	5549	16415	5390	-19644	-4232	1748	-6620	4835	-938	-27488	-32768	-21544	12650	-1328	9364	-7008	872	-21004	-1949	3785	4597	-13240	-7780	21540	1604	-2890	1617	127	118	1
-11152	-4388	14876	951	16092	7002	-19060	6452	-3112	7448	17429	6261	-19012	-2860	1292	-5698	2706	242	-32768	9704	-11316	-20963	10489	-2268	-15308	-3508	-14068	-13197	10201	1869	-14060	76	12008	1365	-1271	2748	129	128	1
-10360	-6160	15584	1890	21913	9281	-20784	5824	-2648	6901	18617	6324	-19664	-2972	3164	-6013	242	1181	4804	22008	32767	-12010	16823	-11784	-32220	-16556	27612	-20797	2116	-940	-15700	-72	2148	-13832	8015	4734	140	121	1
-8604	-6000	15736	2185	28089	12914	-23900	5176	-1496	6078	19418	7051	-23016	-4000	8892	-5862	-5488	2004	-5068	-25680	1308	-14721	17950	-12613	-6656	-20728	-13708	-28372	7619	359	-20316	-7588	8608	-21965	12993	849	125	122	1
-8408	-7800	16672	4162	32767	17941	-26864	7332	4072	2068	20989	6822	-21016	-2544	22520	-2809	-20111	2459	-32768	-372	25940	-4571	26711	-10162	-30836	-10032	-5788	-8278	15225	3257	-23552	-19388	2436	-20240	8498	-9149	132	116	1
-7620	-10384	15868	7661	32767	22327	-30108	6992	12376	-6025	24807	7810	-20580	5188	13980	-7807	-13648	4507	-32768	32767	12336	-5391	7722	-1766	-26960	11304	-4224	-3105	19201	5601	-19724	-492	4616	1382	8641	-834	125	120	1
-18100	-11784	15476	9413	32767	29578	-30132	5732	6972	-8789	26049	5788	-24448	6224	9336	-14297	-16025	6970	-11848	-10608	16132	-10138	6162	-9728	-15464	4468	-3500	-19268	11978	5162	-15000	24612	-9628	9912	14720	9235	128	114	1
-32768	-6020	7980	3037	32767	32767	-25404	3364	-15320	-5768	28865	6488	-24528	-1948	-5668	-30819	-17098	7230	-19092	6572	11688	-9464	1500	-9520	-15460	4168	-5484	-15285	8579	3037	-12056	8632	-8736	-11612	7043	8040	123	138	1
-32768	-11788	15096	152	32767	28295	-27268	5440	-8724	-1569	25193	8411	-26496	-6656	-15416	-27393	-18589	1075	-13680	16	13320	-5913	17	-5024	-18192	-8700	-6076	-8112	8724	2007	-20396	-6332	-5760	-11709	7154	6533	131	135	1
-30764	-14492	23660	-5058	32726	23752	-19192	1320	-8404	-2915	22547	6675	-26720	-7764	-11412	-3551	-23591	-4622	-12172	828	13548	-3211	108	-2651	-17392	-4452	-3312	4340	10896	3814	-16476	-1596	-1936	681	9015	7324	135	140	1
-32768	-10888	20288	4269	-635	12740	-10544	2268	-9800	1108	11546	4708	-25680	-3352	-4156	6488	-25810	-3963	-11536	2808	12588	-1786	-23	-2269	-17040	-596	-2104	8023	10291	4086	-15828	2764	-1340	3403	9927	6291	127	132	1
-4200	-8904	19224	578	-26226	-641	-7436	-1000	920	-3484	2956	1822	-23912	-268	-3000	3686	-24802	-4336	-11464	2236	12156	-1587	186	-1341	-17632	900	-2428	2595	7823	2861	-15668	1704	-940	277	9549	3042	109	127	1
6168	-10520	13228	-2014	-24256	-5576	-8880	708	4224	-4066	-5258	-3247	-20856	-2816	-5212	-1506	-21344	-6272	-11132	2364	12592	-1061	318	-1014	-17512	-836	-1968	-3374	5346	1671	-17080	1524	-416	-2886	8870	2351	127	126	1
2164	-8524	10604	-3269	-21822	-10859	-9108	800	3944	-4363	-6733	-3832	-17480	-6372	-6804	1661	-18488	-6789	-11032	2584	12288	-523	375	-714	-16696	-2944	-1436	-786	5519	1870	-17908	1040	-452	-3622	9953	3112	127	127	1
-6492	-8640	10192	-1807	-25691	-18405	-6040	-188	-4032	5999	-22429	-4272	-14324	-6008	-7776	8679	-16475	-5700	-11260	2716	12068	-333	410	-849	-16028	-2292	-1000	3088	5838	2135	-15112	-168	-452	-2116	10553	4528	117	127	1
-6168	-6960	10016	1306	-31627	-23888	-6028	208	-4072	6283	-23685	-4253	-13892	-4980	-8584	14212	-14298	-4935	-11556	2256	12048	275	579	-711	-15992	-2452	-1404	5715	6019	2273	-14736	-2360	628	1991	11458	5140	122	128	1
-7908	-3080	10840	722	-32768	-25767	-9164	3488	-5108	-375	-32768	-4446	-12812	-4320	-8872	17800	-13586	-3903	-11268	2344	11952	272	861	-43	-16508	-1464	-720	6910	6493	2494	-14628	-856	1936	5803	11419	5196	119	128	1
-13472	-2648	11060	-3493	-32768	-24290	-11120	1100	-5160	-605	-32768	-4912	-12196	-3012	-8500	22952	-13250	-2852	-10572	3524	12232	-5	570	-762	-16652	-296	216	2788	5834	2243	-15944	900	1424	6791	12790	5134	121	131	1
-16936	-4348	10852	-5686	-32768	-20903	-11132	3084	-5888	-624	-32768	-5736	-9524	-8	-9372	24793	-11601	-1719	-9936	3448	12060	-562	977	-1043	-16516	-1768	452	169	5498	2361	-15848	236	1184	6571	14074	5457	113	135	1
-18088	-6152	11256	-6043	-32768	-18160	-14396	5972	-6984	-7020	-32768	-5971	-8752	1236	-10340	21156	-10008	-1922	-10596	3520	12344	-1346	1028	-1650	-17140	-872	-912	43	6011	2296	-15756	-740	820	7030	15127	5797	126	132	1
-21620	-8020	13000	-6687	-32768	-18771	-17160	6212	-8280	-13689	-32768	-7841	-7824	1596	-8784	12849	-6551	-2712	-11696	2676	11940	-1451	468	-1992	-16416	-1264	-1664	4145	8000	2781	-15904	420	1840	5890	17360	6982	123	135	1
-24864	-7708	16648	-9594	-32768	-22907	-22352	8616	-8640	-16347	-32768	-10399	-7792	2844	-6312	5505	-3278	-3168	-11404	3228	11984	-1836	-156	-1237	-16580	-1104	-636	6375	9724	3049	-15296	-928	2332	2037	17582	8091	126	133	1
-30620	-10164	19532	-13880	-32768	-25617	-29160	9148	-11284	-17052	-32768	-13445	-9288	5668	-1076	3086	-2672	-2293	-11324	2392	12444	-2015	-210	-1952	-16608	-196	412	3998	10276	2791	-15452	-192	1368	2425	14768	7339	127	132	1
-32768	-7440	17716	-14044	-32768	-27327	-30124	7476	-14624	-13149	-32768	-14319	-9880	1860	1320	3431	-1601	-1567	-11456	848	12444	-1892	200	-2193	-16100	-692	664	2295	11774	1675	-18172	716	3272	2153	9374	5518	121	131	1
-32768	-9216	9560	-7522	-32768	-27209	-28192	4260	-14016	-5496	-32768	-12584	-13400	-4720	7884	250	-1445	-4018	-11472	3784	13052	-2305	961	-2748	-16756	64	-468	2014	13277	1242	-18104	868	3860	1810	8775	5302	121	131	1
-32768	-504	-352	873	-30259	-26586	-30316	5132	-12892	-2559	-32768	-11953	-23248	-2140	18740	13135	-7275	-7314	-11024	2132	12836	-1816	2431	-3581	-17984	-928	-2728	315	13993	952	-17188	1020	1440	1523	9817	5479	123	131	1
-32768	11104	-16064	-3800	-21498	-26047	-16672	10300	-24752	64	-24307	-9908	-18828	9616	28636	9567	-398	-6967	-11912	2856	13540	-2637	4351	-5079	-17752	-1412	-3604	181	15002	1021	-17496	1900	-616	4036	9188	4642	119	131	1
-32768	32767	-28632	-15761	-8617	-18090	-2352	4440	-23784	-6855	-1841	-6345	-13360	6248	32252	-8689	-5369	1405	-11212	852	15752	-3429	7617	-5606	-19836	-2648	-4212	-1904	15884	-291	-18680	2988	-784	4222	7072	3661	122	129	1
-32768	15208	-24060	-8435	7636	-4243	-7060	864	-20416	-1525	14841	519	-13536	-4712	19888	-8847	-7322	2348	-11008	2820	16304	-4845	11461	-6051	-21120	-2268	-3920	-4998	16402	-864	-20700	2376	-372	4430	5541	1566	124	128	1
7608	-12564	13940	21391	11173	18162	-25584	4688	14392	-5247	18349	3506	-11764	-10124	280	-6625	3591	-1486	-11448	3248	17212	-7056	16103	-7378	-23744	-2788	-3780	-4878	16953	-805	-23632	2472	888	6769	3715	-833	131	128	1
-2216	2576	16856	8671	28402	20292	-24520	3296	7292	26078	5446	-2339	-19168	-2572	12	-1665	10500	-2946	-10180	3484	17116	-7757	21823	-8543	-25380	-4012	-1044	-5789	17603	-1015	-26060	408	3088	8542	279	-1137	131	128	1
-26220	12144	16388	7197	26913	6718	-5532	19268	-5780	23078	10577	6652	-27140	-4380	12844	15433	-6727	-1593	-8992	3524	17832	-8633	27782	-12058	-25664	-6740	1468	-3001	19629	-106	-23856	-3468	15564	3348	-10985	-3008	129	133	1
-20664	1624	17808	-103	24453	4840	-27148	20376	-5528	11720	15688	3892	-24380	-2032	12412	20364	-4795	-1308	-7420	5840	18956	-11302	32767	-17416	-30532	-13312	9660	1986	23280	-688	-18676	-16216	13968	-3678	-16173	-7670	124	133	1
-23732	-4476	17432	-3940	15933	9839	-22320	6644	-5484	1231	18701	-638	-17284	12016	-2196	8016	14428	4118	-11216	5396	18644	-13786	32767	-23832	-30044	-16084	13700	12492	25929	3376	-21344	-18424	11304	10098	-12976	-15479	123	130	1
-11832	-15888	8064	-1617	13121	3876	-18552	-180	-1960	3489	16620	-1056	-16672	-8052	-8164	-11521	14005	3079	-32768	-428	10104	-8731	32767	-30028	-23860	1288	-9744	13603	29517	5066	-17988	-5260	7396	16137	-13943	-15421	127	131	1
-19248	-13900	7068	4647	7822	5809	-15784	-7056	-7940	6827	12767	-1474	-13636	-10488	-1820	-3516	8700	-3796	-32768	6544	4432	-6797	32767	-32039	-30124	8780	-8596	3949	29377	2337	-22552	5636	-8748	32767	-6194	-11664	127	134	1
-14444	-1764	13204	6725	2120	6832	-18620	3508	-6576	8429	8776	1058	-17432	-7440	-5448	-5071	8833	-3316	-32768	10088	21140	-3481	32767	-32768	-20892	3356	-6636	-7921	17712	5121	-28908	1852	-14784	29651	-12804	-1828	127	133	1
-12012	-4956	12324	5249	1127	4921	-16008	6760	-5340	1372	9120	-164	-17860	1752	-5040	-5784	9827	-6908	-1408	16824	22060	1748	21347	-26198	-16936	-8	-7652	-8294	13084	3288	-30540	1472	-12528	11908	-25551	5119	135	135	1
-12104	-3788	12692	2753	405	3032	-16444	7024	-4280	-4305	8412	-631	-15860	-2892	-2772	-7628	12138	-2958	-26544	14436	19320	5687	-6575	-2402	-11892	-1664	-7636	1049	7633	2667	-24496	2396	-3468	7168	-31236	650	131	120	1
-11296	-4056	12256	3	669	274	-17184	5096	-1800	-5624	7624	-950	-16060	-5420	-272	-3583	13257	460	-7436	13752	16728	7965	-24558	8481	-9320	-980	828	8019	293	1593	-24188	880	-4320	7481	-24425	1075	129	127	1
-10232	-5684	11220	-351	188	-278	-17404	456	-168	-628	6094	-1266	-16252	-6168	1484	1569	13538	2009	3812	12228	11524	5362	-26746	11614	-7204	-296	1484	7181	-7945	1733	-22420	4036	-7876	8461	-19191	3011	121	125	1
-10148	-6220	10924	633	-126	151	-16096	-496	500	6875	3766	-837	-15272	-5296	3120	6621	13552	233	-2296	7616	9496	3821	-24457	12782	-6488	3236	-1568	1024	-16657	533	-17692	3548	-10084	3462	-18735	3145	125	122	1
-9332	-6084	10924	1392	-460	992	-15936	1276	288	9338	2915	-124	-15796	-2812	3728	8920	13272	-1931	-5208	4688	8996	5003	-26815	14975	-6092	1824	-3076	-2870	-23968	-1356	-15028	4488	-9356	-2039	-17860	3057	132	184	1
-9816	-4592	11396	1001	523	676	-14912	5336	-836	4438	4555	301	-16128	516	5240	8275	12647	-3173	-7696	3280	9880	8072	-29506	17797	-7212	-276	-4148	-1461	-30231	-2990	-12808	3908	-8648	-4971	-17614	2361	132	221	1
-9288	-5296	11236	773	869	834	-15332	4880	-220	-5930	8541	-525	-14932	2232	4716	655	13738	-3020	-12556	828	10916	12572	-32575	20668	-7488	-524	-4620	-890	-31041	-3023	-11312	4700	-9192	-7913	-16124	1493	129	174	1
-9612	-5376	10968	1164	747	1378	-15504	4276	-268	-6682	8883	-642	-14232	-708	2896	-6658	14530	-2120	-16164	156	11600	17472	-32768	22610	-11520	-96	-5764	4369	-32768	-3899	-9892	4600	-8964	-16290	-15059	333	128	124	1
-9892	-5136	11496	1634	435	1967	-15908	1416	-628	590	8056	-166	-15836	-2328	800	-5278	14072	-971	-15424	-1512	11364	22781	-32768	23336	-13652	-2872	-4736	5174	-32768	-4216	-8564	3600	-9572	-22783	-13367	-204	130	112	1
-10092	-4728	11428	1438	365	1484	-15920	3760	-2220	5093	7687	286	-15676	-2168	-3176	-2498	15214	-1495	-14004	-836	11952	26604	-32768	22288	-17004	-4568	-6964	7521	-32768	-2901	-8056	2436	-10708	-21515	-11775	-623	129	108	1
-10332	-4780	11484	1362	133	1504	-16516	4028	-4060	2717	8008	-306	-15088	-1760	-3664	-1086	16805	-2131	-24272	128	15448	25704	-28734	20461	-18276	-1576	-10692	13012	-32768	-3364	-8260	-1612	-7760	-15663	-10262	-1842	131	108	1
-10696	-4940	11212	1497	-64	1796	-15940	2600	-2664	1088	7524	-244	-15080	-3304	-568	897	17049	-3715	-32768	296	20952	25070	-29565	21637	-26088	-5140	-13844	15243	-32768	-1525	-8608	-6324	-2364	-7826	-10350	-2379	128	102	1
-10144	-4468	11472	591	457	717	-15412	3452	-1248	-968	7694	348	-15104	-984	1760	1298	16209	-3679	-32768	-4824	21660	25445	-32727	28336	-28388	-3888	-13096	18944	-32768	-1084	-8720	-5400	60	-3283	-6372	-1881	132	108	1
-9932	-5732	11448	304	770	1306	-16996	1360	-308	-331	8249	343	-17628	496	3780	1056	15876	-4260	-32768	-8108	16008	24340	-32022	32767	-27304	-2868	-16032	19730	-32768	-405	-11448	232	6884	13174	-1541	5119	133	111	1
-10496	-4616	11976	33	1219	1567	-16112	1516	68	732	9921	1431	-18912	-2656	6696	672	12767	-5732	-32768	-11644	8384	18511	-27695	30020	-27596	-164	-16548	9872	-32768	-1369	-18816	2088	11836	12163	-1250	9221	129	115	1
-10356	-5168	12388	-541	2651	1274	-17336	1948	-368	-714	12428	2527	-18492	-2384	5064	-4139	9458	-4644	-32768	-16548	-7380	8245	-21108	24221	-19588	608	-19396	3239	-28852	638	-18420	-4136	15076	589	-1212	8717	132	107	1
-10436	-5164	12524	-969	4442	1850	-17888	1920	-716	-1026	14664	3404	-19620	-2936	4196	-8126	6407	-3301	-32768	-26248	-19844	3864	-11210	17299	-10640	288	-22836	976	-15436	4371	-13972	-9380	28628	-4852	-880	3554	131	102	1
-8668	-5340	14956	-629	7763	1974	-17964	3192	-656	133	16537	4159	-18960	-3920	3852	-8376	3778	-2743	-32768	-32768	-21332	11172	3569	13943	-6524	1808	-22312	-986	1630	4699	-13124	-9052	25436	-2661	-3316	582	131	102	1
-10652	-5832	14668	193	12212	3899	-19704	4256	-1124	4872	17742	4749	-19276	-5364	1776	-7698	2529	-1384	-30848	-19828	-14368	-1124	13361	7972	-10252	3168	-19300	-8008	15164	1992	-13956	-776	16092	-543	-3720	1933	129	110	1
-10992	-6652	14628	546	17893	5131	-20420	4820	-3704	8242	18350	5513	-19044	-4424	668	-6209	1850	-290	-32768	32767	32767	-18058	8457	-7718	-27316	-18068	19892	-13161	13294	-3392	-14664	4200	392	-2759	3943	3455	127	116	1
-8828	-5160	15836	128	23830	7508	-21388	6472	-3960	7225	19077	5772	-20732	-3424	3180	-5438	-1074	735	8124	30392	19048	-15578	16597	-27801	-18048	3004	6884	-26167	-3230	10870	-21820	1792	1296	-14999	18205	1877	130	116	1
-7920	-6364	15184	-631	31349	9776	-23776	8572	-460	4927	20345	6133	-22160	624	11296	-7962	-8465	2424	-8268	-26856	12156	-17393	20797	-9378	-5852	-28296	-10096	-28263	7095	-5914	-14412	-2716	4560	-24803	8995	-633	124	123	1
-6736	-5784	17424	-603	32767	12804	-27184	10888	4676	-2140	22229	5135	-20060	6000	15248	-10660	-20007	3740	-17536	-3956	18080	-9362	22714	-5308	-23624	-14892	-3760	-9283	12393	4724	-18172	-23268	1036	-23950	7710	-3728	125	119	1
-7720	-11372	14632	334	32767	17496	-29156	9376	13676	-9309	25238	4910	-21104	13196	7744	-17551	-11290	5555	-32768	-3984	17224	58	15454	-10841	-24948	3452	-7888	-4087	16532	4569	-18992	-9508	3284	2749	8806	-4594	124	119	1
-19152	-8804	12872	-3097	32767	23924	-26896	6340	5020	-12526	26030	3200	-22008	5072	8072	-27579	-14895	7934	-15668	11624	6608	-12102	2243	-6624	-24072	13244	-6064	-10630	13429	7889	-20004	-2712	-1196	7251	11064	-3171	128	119	1
-32768	-4776	2532	-3197	32767	26232	-23364	3044	-15176	-5789	27859	6089	-22692	-8284	-11176	-32768	-15531	8168	-13860	5716	10676	-4770	2657	-5364	-15240	884	-2776	-12863	9775	2835	-13868	11800	-6892	-6281	10853	10421	127	139	1
-32768	-11536	14768	-7360	32767	20286	-24772	5368	-14316	-451	24148	9385	-28304	-15724	-14960	-19083	-18519	-1190	-12804	208	12684	-5747	839	-6249	-16196	-1460	-3648	-8642	8397	2839	-15152	-608	-3372	-8679	7831	5123	132	140	1
-23796	-13616	17036	-9697	32767	17717	-20380	2316	-12248	-1020	21442	9504	-26408	-9628	-12408	7958	-24219	-3889	-13044	2528	12256	-4212	-404	-5069	-18000	-2644	-1992	945	9395	3196	-17112	628	-2168	-1754	8152	5060	123	131	1
-32768	-20724	14752	2463	4207	12509	-12600	-1120	-8608	-191	11076	6557	-26032	-2300	-3920	11460	-24328	-2875	-12668	1936	12212	-2557	-855	-4620	-17280	232	-1664	2983	8930	2789	-16692	1596	-96	868	8325	5703	127	126	1
-7272	-13404	18920	6770	-21060	-1111	-7900	-5000	-3972	664	2204	3122	-24200	-1548	-2468	8309	-23556	-4493	-11012	4272	12036	-1992	-822	-4393	-17848	388	-1256	-120	7387	1939	-15404	5076	-492	1362	9494	3534	123	126	1
60	-8548	15256	3080	-31977	-4444	-8980	-2164	1348	-1412	-6222	-908	-20864	-4136	-5180	4087	-20746	-6199	-11936	2108	12168	-2455	-906	-3795	-17096	-96	-2140	-4742	5320	979	-16492	3624	-680	-6587	8248	2001	118	128	1
4052	-5384	11080	-3517	-32768	-2146	-7596	-1108	2112	47	-14535	-3220	-18008	-4360	-7008	7440	-18098	-5921	-11300	2608	12548	-1573	-937	-2448	-16716	-3604	-1736	-5574	4590	817	-16488	-1220	256	-11034	8150	3348	125	130	1
-2340	-7792	9444	-6769	-32768	-2285	-4308	-492	-2256	1118	-21458	-4607	-15976	-2024	-7540	10872	-16252	-5233	-11052	2384	12384	-1259	-561	-1950	-16132	-3624	-384	-1688	5746	1399	-16108	-5252	1192	-7546	7813	4957	128	134	1
-6612	-7924	8540	-6550	-32768	-6517	-5276	1856	-4080	-2114	-27629	-5648	-13552	-780	-7600	12092	-14594	-4148	-10680	3136	12156	-1180	-279	-1937	-15516	-3296	-644	2056	6588	1960	-14400	-4532	1324	315	9961	4570	118	127	1
-7096	-6752	7980	-6650	-32768	-11490	-7852	4136	-3204	-9192	-32367	-6534	-12888	-1420	-7948	12130	-12758	-3860	-11000	3344	11888	-2021	-322	-1601	-16056	-2148	-416	4570	7462	2552	-14132	-2440	2344	5437	10028	4303	127	131	1
-11848	-6392	8512	-9023	-32768	-16777	-10488	4032	-4020	-10474	-32768	-7838	-12004	-2044	-7996	13808	-11096	-3763	-11336	2500	11688	-1839	-312	-1665	-16452	-436	-164	4807	7992	2359	-16112	1808	2284	7447	10291	4401	119	136	1
-15612	-8404	8916	-7641	-32768	-20393	-12520	4792	-6012	-10710	-32768	-9491	-10260	-540	-8248	18937	-10640	-2967	-10572	3976	12212	-2724	1	-1771	-16744	-920	-536	3464	7811	2623	-15672	2532	-36	4017	12625	4184	121	135	1
-19316	-7688	10328	-6223	-32768	-21622	-15392	4572	-6748	-11350	-32768	-11621	-8988	1876	-9436	17851	-10263	-2733	-11012	2268	12808	-2801	186	-2087	-16568	-2844	-1680	1262	7399	2250	-15404	-716	-1036	3410	13154	4167	121	138	1
-24064	-8160	13748	-8535	-32768	-23864	-18940	4468	-8688	-10365	-32768	-14286	-7828	3300	-7508	9699	-8114	-2580	-10956	2032	12656	-2617	356	-2122	-16668	-1160	-3904	994	7530	2698	-14476	-600	-2104	5397	15234	4619	123	136	1
-27692	-6804	16968	-13220	-32768	-26851	-23628	9744	-10992	-8936	-32768	-17062	-8756	5412	-2876	2813	-7052	-1769	-11024	940	12508	-1582	416	-1083	-16716	-2056	-2380	2818	8122	2439	-17092	1600	-900	5860	15441	5264	127	130	1
-28392	-1500	17168	-18669	-32768	-28437	-26696	13180	-11008	-9370	-32768	-17661	-9000	5920	-2136	2263	-6860	-1435	-10900	3276	12608	-1361	634	-1700	-17008	136	672	2974	9149	2032	-17808	196	3060	-1115	11388	7300	127	141	1
-32768	-2780	16428	-17867	-31332	-29556	-24600	9436	-18724	-12768	-32768	-15195	-10404	-2968	2668	-3612	-1102	-2718	-11532	2684	11964	-1566	539	-2898	-15624	-540	108	1844	10136	1907	-15040	-804	5484	-37	8662	8049	127	141	1
-32768	612	9188	-6756	-32768	-26359	-24380	9728	-17956	-11175	-32768	-12066	-13504	-10492	8192	-2977	-836	-6250	-11708	2252	12608	-1721	956	-3936	-17140	-680	-1288	1543	11762	1338	-15892	-1200	4312	5031	10549	7494	126	139	1
-32768	7544	-2632	-1519	-29466	-20560	-22128	8460	-17652	-8795	-28109	-9939	-18068	-652	17168	5632	-2324	-9404	-12124	1836	13360	-1814	2268	-3672	-17832	-1520	-368	1814	13851	1072	-18524	-1728	4548	7266	11933	7103	125	139	1
-32768	11496	-15708	-2051	-18941	-10354	-13692	6664	-20748	137	-19361	-10241	-14364	1656	23512	348	5365	-5917	-12248	3252	13868	-2995	3976	-6063	-18672	-456	-1176	-5	15427	1161	-17900	-1884	4232	8525	11465	5073	126	135	1
-32768	28700	-21140	-11740	-6203	-4097	-4192	9024	-21380	-754	-3998	-6143	-13844	2288	29252	-5080	-3479	2588	-10800	180	16268	-4615	6856	-7012	-18952	-3172	-2544	-1959	17010	-37	-18564	400	1628	7813	7509	2885	116	131	1
-32768	15380	-18356	-5443	6038	-1475	-5940	5552	-18744	23	12104	897	-15652	-4088	20172	-1901	-6075	1820	-11828	1232	15916	-5712	10912	-6890	-19924	-3592	-3852	-4347	18178	-427	-19980	960	892	5745	3668	1932	119	130	1
-32000	-13896	21756	19846	727	7176	-20828	6284	9252	-6189	18272	5362	-14168	-3304	6612	-4013	2750	1192	-11616	2232	17192	-7365	15447	-8788	-22076	-4040	-3468	-5263	18938	69	-20852	1516	3812	5179	-64	-758	116	130	1
19144	-19056	23912	7408	16717	14175	-29076	-236	25092	10963	6208	-781	-16968	1824	3060	514	8697	3089	-10360	2664	18184	-9013	20872	-9876	-24820	-4448	-1492	-5085	20067	14	-23904	772	8584	3676	-7093	-2106	127	127	1
-16752	15564	8188	8030	26263	9775	-1560	21672	-6904	20337	8148	1298	-16172	2756	6100	9186	4732	4722	-9048	4884	18476	-9183	27590	-12652	-27532	-8492	3628	-1509	22300	1448	-18940	-8608	10092	41	-12443	-4467	127	130	1
-18060	-7016	16904	-1042	28577	685	-24604	7244	-2140	3173	16971	6004	-17704	3356	9684	15835	5430	-45	-6932	7632	20424	-12109	32767	-20673	-30464	-14672	9188	5250	25122	3370	-17496	-17388	12444	1624	-11534	-10649	119	128	1
-26108	-4208	16272	-3817	17657	11812	-24640	5196	-6892	2601	16472	1784	-21424	2912	4804	4368	6745	2039	-7632	6628	21488	-16003	32767	-21339	-31980	-15880	12368	13944	27990	3672	-20472	-13840	11272	8158	-13358	-15640	123	123	1
-17928	-19820	8580	249	14521	4334	-21740	1300	-5176	6371	15580	1067	-21220	-3204	-6124	-4865	10421	-321	-32768	3880	9732	-15081	32767	-28141	-21376	3568	-10988	10042	26858	3647	-22320	296	3892	26725	-9000	-15158	115	127	1
-15696	-2444	14880	7544	6210	6195	-16176	1508	-6340	11674	10551	785	-13608	-10968	-6688	-4756	11063	-4703	-32768	5564	1884	-13988	32767	-32768	-28772	7284	-15248	638	24119	2124	-27408	8484	-12824	32767	-7394	-11038	127	128	1
-15064	-7028	11328	5593	3426	4133	-15304	5796	-6232	5445	9739	-9	-17088	-3336	-4776	1720	9131	-3458	-32768	1436	17068	-7872	32767	-31270	-20108	9384	-12928	-10810	17692	1621	-32768	4916	-16588	19743	-17945	1575	133	135	1
-12048	-5708	11244	2925	1627	2422	-17156	5084	-5268	-2302	9710	49	-15668	-1108	-5028	-792	9450	-3696	-6880	8964	21180	-2518	5938	-17497	-15648	556	-9208	-4854	13777	126	-28068	4312	-9292	6839	-31019	3876	138	129	1
-11832	-3788	12540	1184	1078	879	-17324	5392	-3520	-4171	8392	-428	-16852	-2288	-588	-782	10515	-3076	-15016	6992	18296	-4443	1688	-13966	-9556	-1152	-2592	185	6101	-979	-27036	944	-312	4433	-29277	2225	126	122	1
-10512	-5808	11336	85	1244	-506	-17444	2416	-2104	-4069	7522	-444	-15924	-5296	136	-259	10142	498	-396	12600	12252	4125	-20409	6625	-7928	212	1168	2553	-1716	-1339	-23320	2732	-5916	6797	-19010	3059	129	120	1
-10028	-6380	10800	-23	1321	-755	-16592	1124	-1520	-110	5404	-511	-15992	-5660	812	3258	10752	370	4	11352	9176	-43	-20133	8453	-5928	2056	-392	-389	-9944	-2573	-20076	3368	-7372	4417	-16611	3299	139	116	1
-9764	-6280	10960	82	1176	-810	-16440	2112	-1236	1609	3970	-279	-15972	-2348	832	4877	11969	-1688	-5088	6288	9288	-926	-23217	10675	-5260	3160	-2828	-4649	-17301	-4192	-15712	3276	-8312	-1201	-16874	3463	125	120	1
-9860	-6116	10612	116	1018	-761	-15864	3136	-1108	-368	4016	-256	-16328	920	1588	3024	12362	-1955	-6088	3508	9656	3565	-28275	13764	-5320	1252	-2780	-3599	-23272	-5611	-14464	4856	-8412	-7551	-17816	2405	128	116	1
-9792	-6384	10372	214	979	-459	-15476	2660	-1556	-2903	4651	-520	-15004	-40	800	-3454	12546	-1784	-9364	2828	9564	7516	-32018	16154	-6988	532	-3684	-1454	-28832	-6639	-12648	3144	-7400	-10303	-16592	1455	130	121	1
-9988	-6348	10372	631	781	-177	-15772	2180	-1612	-4309	4835	-665	-14116	-1344	356	-7632	12102	-1214	-12168	3348	9128	10680	-32768	19257	-9680	448	-4096	1462	-32145	-7414	-12164	2764	-7868	-13181	-14849	876	131	122	1
-9616	-6264	10568	1000	798	118	-15956	1848	-916	-2814	4294	-943	-15576	-3452	20	-8010	12421	-1370	-10260	2416	9192	12077	-32768	22404	-11812	-1284	-4088	-567	-32768	-9847	-11356	4060	-7572	-19030	-14559	922	130	119	1
-9568	-6104	10648	1327	745	540	-16748	1908	-784	-782	3867	-1314	-15768	-4220	-600	-6947	14884	-1826	-11360	2492	9704	12080	-32768	25446	-14320	-2188	-5124	-2936	-32768	-10974	-8848	4324	-8436	-25695	-14815	467	127	121	1
-10040	-6456	10456	1841	754	1148	-16052	2236	-1916	2518	3308	-1287	-15060	-2884	84	-4012	17426	-3386	-18208	1360	11064	12910	-28689	26318	-17124	-648	-8028	-1252	-32768	-10810	-7904	1940	-7404	-27884	-14348	-966	129	120	1
-10812	-4660	11288	1104	597	583	-15984	3728	-2256	367	4581	-828	-14968	-1064	2308	-1751	18077	-3960	-27524	124	14168	14906	-28266	24534	-17504	104	-10196	4318	-32768	-10033	-7776	-2416	-4436	-22289	-12664	-2795	131	121	1
-10612	-5116	11040	137	866	-497	-15812	2468	-960	-2614	6577	-451	-15044	-128	3384	2115	17379	-4922	-29408	1044	15360	14518	-29988	22970	-24764	-832	-12160	4563	-32768	-9615	-8044	-3564	-3780	-20151	-12138	-3148	132	125	1
-9536	-5872	10584	-328	818	-1157	-15472	180	2072	-3041	7873	49	-19008	-3464	2672	1157	13937	-3905	-32768	-2452	13904	14362	-29713	25573	-25080	-588	-17196	10111	-32768	-9904	-12548	-6824	4948	-7712	-8850	-2710	131	121	1
-8964	-6712	10832	-201	964	-492	-16532	-1404	2600	649	8348	771	-19528	-4416	6008	435	9692	-3941	-32768	-3728	8132	16954	-30143	30162	-23960	2828	-16048	14413	-32768	-8471	-11668	-2256	5540	8174	-1470	3713	131	123	1
-10160	-6532	10960	-102	968	505	-16628	-284	-316	2358	9266	1962	-17932	-2864	7580	-1916	8782	-4337	-32768	-336	-1056	15447	-26045	32690	-23316	2748	-16040	11264	-32768	-5634	-13084	-2036	5340	12483	7074	7400	131	126	1
-10372	-6232	11192	-398	1424	1110	-15920	1008	-840	-536	11698	2919	-17216	-1996	5248	-5670	7303	-4222	-32768	-2080	-7512	6959	-18547	30007	-21248	5364	-16312	6009	-28051	-1180	-15020	-3068	6352	-1375	4316	7864	131	125	1
-10324	-6108	11476	-687	2007	1223	-15460	416	-56	-1124	14142	3820	-17212	-2828	4516	-8428	3893	-3894	-32768	-7388	-12880	-516	-11961	26249	-17008	5604	-17372	-3756	-20926	1360	-16968	244	18768	-8582	-2339	7327	135	116	1
-9972	-6460	12476	-1080	3506	1808	-17632	1776	-1604	1909	14987	4504	-17536	-3684	2584	-9627	1812	-3191	-32464	-16240	-17340	-1299	-3055	24451	-11752	2516	-17272	-7683	-9182	3046	-14300	-5680	21776	-11332	-1832	6736	131	121	1
-11180	-5640	13264	-2321	7378	1441	-18700	4700	-4060	3025	15833	4685	-17372	-3736	-648	-10474	1944	-1441	-26892	-16440	-17716	-746	10080	20716	-10796	1912	-14780	-8884	3057	4916	-13176	-5592	16812	-8153	-478	4932	128	117	1
-10188	-5592	13704	-3101	12118	1093	-18032	7140	-4196	221	17632	4564	-17432	-2180	-1028	-11479	948	-109	-20440	6684	-5092	-19079	17954	8740	-16112	-4160	-2896	-17721	7803	5208	-15788	-500	12720	-6842	833	5220	127	112	1
-9304	-6104	13904	-3412	15791	2229	-19024	5484	-2252	402	19137	4562	-18292	-304	1616	-12302	-2266	1022	3392	12140	32767	-17283	26514	9326	-26908	-19620	24408	-24179	300	1203	-15648	940	2428	-14495	7438	7285	137	115	1
-10832	-6764	13708	-4045	21033	5108	-21328	4548	-3484	2510	19490	5202	-20464	-1548	7960	-12599	-7331	1754	-9684	-7920	3004	-16354	31761	1703	-10620	-7684	-8392	-32768	2026	3428	-19084	-5216	11496	-25843	6639	5298	126	123	1
-8816	-8792	14332	-6086	28654	7533	-23256	8224	-1004	648	20396	4697	-20768	2012	15168	-11924	-14661	3174	-20568	-20740	27700	-6283	28846	-7120	-20096	-22004	-3548	-23523	8552	1582	-17148	-13100	11420	-32768	12517	-749	119	123	1
-5560	-6952	16080	-8218	32767	9648	-27052	10760	3500	-7423	22408	4601	-21944	10580	13928	-9974	-13410	4663	-18480	-64	12268	3890	21167	-11610	-16064	-12684	-2212	-6426	14406	6207	-14076	-23284	-9316	-16884	13732	-746	130	116	1
-8352	-10384	14316	-11633	32767	14114	-25796	9960	7556	-11412	24865	3062	-24576	9472	5348	-22453	-9406	6212	-32768	32767	14560	-6204	18993	-9965	-20108	10744	-668	690	13185	10036	-13700	1676	3392	8887	3640	-212	119	121	1
-15024	-8444	9856	-11795	32767	20889	-24752	4264	3292	-8568	24162	2976	-18460	1372	2752	-30366	-16500	7103	-22324	-88	14128	-12968	2161	-17356	-23384	12976	-2188	-16880	8656	9301	-20124	23948	-2516	10859	4246	5631	121	142	1
-32768	-13768	-460	-9823	32767	21784	-21076	508	-14940	1683	23332	5055	-19812	-8684	-8964	-32768	-18844	4665	-18348	4748	11080	-10432	-4765	-15499	-17236	2348	-5384	-24153	5528	4904	-21696	7792	-5436	-11914	7054	13297	135	146	1
-32768	-10192	10348	-14878	32767	20370	-23748	3620	-15608	6359	22702	7673	-25476	-10640	-11176	-14730	-22417	-1759	-14092	-356	13884	-6792	-5579	-5426	-16664	-13308	-6916	-13767	6902	2176	-14420	-4968	-4116	-14024	5924	6776	130	137	1
-24028	-10576	14408	-20876	28051	15850	-16764	5096	-14100	-169	20337	6954	-27412	-7728	-8292	5443	-22227	-4011	-12768	1176	11572	-3457	-3943	-3219	-15756	-5252	-2316	6379	11049	5842	-14188	-3148	328	1613	5955	3509	123	120	1
-27856	-18680	16804	-14461	-3596	22165	-12368	2836	-9588	-4892	13257	3361	-25964	1576	-3556	10319	-21444	-2181	-11944	1856	12276	-3206	-3322	-3172	-18620	1564	-3576	9470	11361	5422	-18224	10188	-3004	6010	7294	4008	123	120	1
-3916	-13816	15648	-7847	-21250	8151	-5576	-6096	-4436	-11220	4910	-4133	-26120	2960	-3200	5162	-21716	-3129	-12220	1172	11448	-2690	-3196	-2514	-18412	2240	-4732	191	7704	2319	-18128	6816	-4092	-9725	7065	3342	125	130	1
400	-9828	12400	-7440	-32768	4884	-5620	-884	32	-12348	-2458	-6658	-22424	980	-6944	-880	-18976	-4717	-11820	320	12572	-3003	-2004	-2039	-17068	-3052	-4808	-9662	2891	351	-16828	-832	-1940	-17465	7901	4973	121	131	1
1628	-6384	8028	-10081	-32768	3426	-5060	560	-352	-11968	-10071	-9086	-19204	2036	-6968	-825	-16891	-4174	-11936	492	12560	-1636	-871	-1338	-17108	-3808	-3660	-9497	1400	659	-16324	-3188	-1224	-12941	7149	4309	126	128	1
-1732	-6452	6816	-11503	-32768	633	-3084	1144	-2084	-10146	-17511	-12000	-15460	2304	-7584	-642	-15175	-3464	-11332	868	12532	-458	-183	-767	-16448	-5016	-3516	-6540	1777	1524	-16380	-4004	-1340	-9355	9752	4102	120	128	1
-4112	-4500	6776	-14319	-32768	-4398	-4244	4280	-1668	-13577	-22849	-14104	-12276	2288	-8120	-1675	-12973	-2118	-11460	1032	12096	-126	124	-120	-15052	-4816	-2696	-1601	2483	1875	-15332	-3948	-284	-4910	9798	4822	119	123	1
-3968	-2776	6984	-17365	-32768	-8515	-8684	3972	-1268	-14882	-27059	-16668	-10948	-212	-6964	-4250	-11624	-2659	-11928	1428	11688	200	333	553	-15668	-3484	-712	1861	3689	2246	-15228	-3368	2404	-1886	8773	3755	123	132	1
-7668	-3568	8988	-17873	-32768	-12175	-10648	7204	-3612	-8072	-32112	-17853	-11244	-2060	-5244	1549	-10658	-2653	-11344	2492	11852	297	69	-83	-16084	-2048	40	2623	4475	2626	-15456	-3688	3076	-839	8204	3437	124	127	1
-17776	-3580	12980	-16755	-30823	-16595	-12272	9372	-7608	-8234	-32768	-18129	-10996	-1524	-5120	3249	-10764	-2509	-10728	1844	11572	169	-136	-445	-16012	-2128	-272	1980	5126	2512	-15024	-2928	3144	1446	8389	4259	124	127	1
-21416	-1172	15004	-17352	-32768	-22230	-14692	10088	-7844	-10770	-32768	-18738	-9084	1072	-5900	9335	-11398	-1385	-10676	2288	12012	-325	-32	-855	-15752	-3484	-1424	3215	5991	3386	-15200	-472	1100	3682	10716	4364	127	131	1
-18700	1532	15660	-19341	-32768	-25152	-16964	11084	-7568	-13608	-32768	-19384	-8976	716	-5560	8495	-11364	-1628	-11788	1092	12064	-601	10	-712	-17032	-1400	-3248	2649	6128	3268	-15712	492	-1164	1998	11754	4041	126	135	1
-21404	4872	16872	-21968	-30468	-20856	-19732	11664	-9340	-16779	-32768	-19591	-11776	-16	-616	-1448	-7732	-649	-11524	1012	11592	-264	255	-511	-16672	-1856	-3324	1993	6031	2583	-16704	2380	-1096	899	12212	3887	127	141	1
-31072	2856	19932	-23461	-28631	-13445	-22764	11056	-14804	-18976	-32768	-19680	-12272	-1580	1488	-2398	-5308	-1505	-10576	2056	12316	79	804	-270	-16724	-3212	-2236	5241	7071	2948	-17208	932	-260	-1817	10935	5205	122	137	1
-32768	6340	16100	-24519	-32768	-10160	-20876	10828	-15592	-25561	-30340	-18115	-11964	-5732	6088	-8006	-4087	-2258	-13224	1664	11900	-149	1551	-748	-17352	-612	-676	3569	7502	2247	-17812	-1644	1316	190	11156	7706	125	133	1
-32768	5988	9992	-23745	-32768	-7584	-19936	9060	-12960	-26530	-24928	-16180	-13784	-3892	11776	-16292	-4506	-965	-12224	2404	11508	-231	1426	-1020	-15004	-1720	984	549	8674	2310	-15228	-3588	7072	-2898	11748	8495	126	139	1
-32104	13576	7280	-12403	-26945	-760	-17120	10652	-13240	-18277	-19667	-12859	-14768	-2272	14488	-19272	-3502	-1893	-11720	1200	12324	-2840	524	-1670	-15712	-712	-1064	-2557	9651	1792	-14388	-2476	2328	4433	10890	5034	124	133	1
-26176	15892	-1064	-9078	-18700	-718	-15652	10260	-12724	-12662	-12271	-7752	-10836	-7092	13896	-15626	2879	-5342	-11696	848	12872	-3030	1259	-1843	-16684	-1228	-2972	-4155	10217	1279	-17096	740	-920	2624	7709	3488	122	135	1
-25008	9008	-5700	-1934	-9036	5223	-11240	7676	-11376	-6337	-5923	-5930	-11964	-6352	15448	-8914	3856	-4676	-11824	948	13008	-2562	2677	-2790	-18184	-2372	-3640	-2364	11675	1084	-18668	1000	-596	228	7964	5617	124	131	1
-24516	11720	-4908	7661	-210	8839	-10136	8780	-11900	1484	-591	-2798	-12744	-5932	15812	-8048	3023	-3708	-12160	1944	14092	-2702	4951	-3793	-19040	-2432	-2780	-1945	12870	1356	-18652	-1416	1296	1520	6580	5251	125	127	1
-15260	17676	-4684	20929	7468	8693	-12948	10712	-8420	6805	7181	3247	-15456	-4632	15380	8802	-1035	2628	-10496	44	15804	-2730	8653	-3580	-19020	-5088	-1904	-776	15134	1426	-18576	-2980	4248	5784	1095	1589	125	127	1
8112	-8612	32068	6908	16888	7337	-28468	6740	25912	12015	1167	4210	-21176	80	13420	11938	3748	2303	-11436	924	16568	-2886	13334	-4289	-22364	-4288	-2904	-1349	17306	332	-22432	-2988	6348	5612	-4563	-206	130	127	1
-17776	11340	10708	4479	17843	10998	-8732	7124	-4076	14766	6815	3483	-16300	5980	15968	18979	6126	4880	-9268	-1064	17812	-908	20369	-2021	-22452	-10280	-4336	969	19044	665	-21948	-6180	12988	-441	-9507	-3616	117	132	1
-16352	-3264	15520	573	11318	10658	-23156	3416	-804	6666	10714	4749	-11904	3052	11328	21829	9456	7422	-9452	2364	19592	-477	31229	618	-27420	-13924	4096	8305	23447	-316	-20368	-6184	11348	4149	-9992	-7858	123	126	1
-24388	-20696	11936	5384	10073	7877	-24388	-5312	-3868	9177	11970	2022	-23040	620	2644	3031	8162	4704	-7196	9188	20428	-6329	32767	-6233	-29576	-6964	10348	3308	24861	-2383	-23624	-7140	11740	3170	-10931	-11432	127	128	1
-16012	-984	12232	9819	1304	6978	-16448	780	-6932	12115	9212	2199	-18124	-8384	-5380	-12896	11365	-5020	-10976	10720	18588	-10580	32767	-16245	-32204	-9940	10876	-2692	23404	-3876	-20436	-7836	10816	1021	-14201	-16683	123	130	1
-13188	-4428	10880	6157	1906	5422	-14228	5044	-4972	5451	8152	3332	-13016	-2424	-7092	-2535	12133	-8202	-30080	9388	9424	-16260	32767	-31465	-23264	5120	-7188	-7099	21728	-1482	-19472	376	7532	9600	-11963	-13878	130	131	1
-11836	-732	13456	3598	599	4611	-15332	8648	-3768	498	7428	974	-18432	4856	-3816	-1903	9598	-2452	-32768	1708	3016	-18592	32767	-32768	-23784	5164	-12764	-15775	18525	-3022	-22760	11188	-3108	21051	-8454	-9665	132	131	1
-11452	-1860	13220	786	481	1516	-18328	6972	-2996	-3527	7561	-1336	-18388	1628	-1276	-7040	6398	-772	-32768	1024	12284	-20792	30782	-30110	-19256	8332	-16900	-20439	18169	-4659	-28344	11532	-11284	12470	-11665	181	128	134	1
-11188	-4112	11580	-328	867	50	-17676	292	-2796	-1133	5657	-2651	-16504	-6080	-1996	-6909	8711	-2558	-8804	6012	23128	-15688	9155	-18157	-15868	2136	-8572	-17433	15528	-7393	-28328	9424	-10020	962	-20883	5846	130	132	1
-10772	-4928	11200	-414	753	-302	-17000	-488	-2736	4518	1857	-2517	-15992	-9320	-1528	-2761	10326	-2056	-16780	9064	18088	-10397	-12654	-9167	-11932	-896	-1852	-10104	9819	-9725	-24024	7924	-3644	207	-27841	687	130	131	1
-10728	-4872	11448	-399	637	-589	-17116	1380	-2692	4267	341	-1952	-16764	-6552	-1016	-111	11456	-1000	-2784	6624	14552	-5297	-19406	-5339	-6672	2660	-1504	-6808	3696	-11392	-21280	8620	-3872	-2372	-20842	498	129	129	1
-10536	-4848	11280	-216	587	-796	-16596	2552	-2240	757	359	-1803	-15796	-2444	-52	-630	13945	-2595	-1008	10880	9700	-5186	-21938	-3899	-7240	1968	-420	-2217	-1750	-14368	-19752	10760	-7220	-7237	-17310	2137	133	116	1
-10500	-4424	11372	-390	833	-969	-16608	2144	-1272	-3930	979	-2104	-14744	896	1456	-7110	14568	-3624	-6164	13380	7108	-9714	-25280	-2063	-6916	6636	-2096	-3039	-8280	-16545	-17476	8124	-7752	-13586	-15323	2074	143	110	1
-10124	-4408	11052	-351	686	-1084	-16360	88	444	-5282	1406	-1991	-14604	-568	4116	-13738	11749	-2337	-7704	11392	6480	-13478	-31119	893	-6612	7196	-2544	-5182	-14429	-18729	-16116	7712	-8128	-17792	-15803	2684	148	116	1
-9896	-5112	10940	-232	567	-785	-15692	-2644	1572	-2727	1220	-1801	-14776	-5832	4920	-12298	9935	-3245	-10164	10808	6304	-13053	-32768	5503	-8424	6368	-3948	-5888	-19992	-21010	-15296	7360	-7180	-20715	-15964	2950	142	123	1
-9776	-5148	10912	69	337	-271	-15908	-1940	1884	357	1196	-847	-15648	-5980	4272	-4121	8139	-5383	-12972	10496	5000	-10008	-32768	10777	-10340	5904	-3336	-6133	-24541	-22868	-14480	6624	-7628	-24767	-14060	3137	140	122	1
-9788	-5232	11020	70	201	-174	-15216	-160	364	-2026	2724	-430	-16436	-6320	4948	-2488	6743	-4378	-14912	12356	3940	-6824	-32768	14342	-11800	6396	-3008	-6185	-28879	-22888	-13436	3512	-9400	-30436	-13325	3112	140	121	1
-10532	-4696	11344	-273	100	719	-16640	252	-420	-7006	4917	-298	-16676	-6748	3260	-5405	6719	-3486	-16884	14456	2384	-5414	-32768	17088	-14172	5540	-3484	-7387	-32768	-21372	-11572	-496	-9256	-31964	-12370	2162	139	120	1
-10312	-4908	11220	-255	206	809	-16540	-892	692	-6498	6025	105	-17272	-5408	1472	-6331	5744	-2685	-17636	13352	3692	-2801	-32768	21973	-17104	4828	-6464	-6891	-32768	-19310	-10888	-1224	-7236	-29713	-9990	1227	136	120	1
-10224	-4580	11500	-197	160	601	-15948	24	796	-3752	6669	229	-16156	-4080	1636	-6750	3442	-2311	-24908	12952	5388	747	-32185	29470	-17932	5020	-7884	-2635	-32768	-18114	-12380	-1244	-5724	-27170	-8500	1233	134	121	1
-10640	-4360	11292	-85	252	364	-16028	616	12	-1617	6760	652	-16072	-3752	1660	-6564	3251	-2350	-26428	13716	11148	354	-29807	32767	-25184	5852	-8576	-3070	-32768	-17037	-13580	-1500	-5300	-23765	-7382	1963	134	125	1
-10704	-4364	11132	-82	342	176	-15572	712	-1004	-1907	7165	485	-15228	-4024	1524	-6908	2501	-2584	-32768	11204	13320	70	-30336	32767	-26696	3624	-10564	-6096	-32768	-17681	-14292	-4064	-2556	-19462	-6770	3057	135	125	1
-10492	-4620	11064	36	404	0	-16608	-492	-1196	-2481	7641	640	-15892	-5780	492	-7098	2475	-2595	-32768	12452	10588	-1176	-32768	32767	-27096	1932	-11332	-2636	-32768	-14950	-14280	-7592	2388	-16513	-7059	4131	135	123	1
-10164	-4896	11132	55	675	233	-15872	460	-1336	-1462	7573	714	-15864	-6260	232	-6526	2343	-2262	-32768	9164	4428	-3116	-32360	31811	-24972	2272	-9792	-3236	-32768	-10887	-12068	-7848	1840	-12050	-2655	6959	133	119	1
-10164	-4472	11416	-110	739	277	-16536	420	-2524	-1429	7806	844	-15948	-4284	868	-6782	2300	-1808	-32768	7140	-2132	-2392	-27542	32542	-23120	4732	-12812	-6128	-32768	-6469	-12416	-6316	3536	-13685	-302	6661	135	115	1
-10508	-4860	11260	-329	1094	363	-15728	840	-1888	-3435	8867	915	-15332	-2728	1676	-9884	2054	-1819	-32768	1080	-5216	-530	-18622	32767	-22080	820	-15112	-8415	-32768	-3087	-12800	-8660	7872	-19398	-1763	4366	133	113	1
-10632	-4396	11244	-520	1436	421	-15120	588	-1108	-4016	10369	791	-15808	-1124	4268	-11898	-139	-2655	-32768	-6156	-8540	6454	-6960	32767	-16888	1364	-15988	-5262	-25414	111	-15632	-10192	12676	-18751	-6435	1951	132	117	1
-10240	-5328	11644	-627	2098	478	-16280	8	124	-2868	11996	960	-15896	-2372	5980	-13109	-2017	-3226	-32768	-5664	-13292	5749	827	32767	-13092	3076	-14640	-3262	-15329	3883	-15580	-10112	14360	-18316	-6789	2072	131	118	1
-10168	-5632	12112	-878	3469	1445	-18188	624	-3084	-1568	12463	1133	-15636	-5240	1860	-14406	-265	-2775	-27256	-7664	-13872	-652	10146	31946	-12824	5600	-12028	-6511	-5438	6189	-12472	-2608	17596	-7701	-2821	4361	132	122	1
-11060	-6696	11636	-1849	5740	2218	-18192	1980	-4604	-2875	12571	348	-15764	-4400	-4348	-14162	920	-1534	-27332	-2016	-7940	-7073	15801	22577	-14480	5256	-7884	-17835	1307	5433	-13436	2172	11724	-7209	-125	6743	131	116	1
-10704	-2972	13556	-1526	8332	2997	-17572	4248	-4920	-4423	12754	-18	-16764	-4076	-2904	-13291	-571	-864	-17132	-10256	14656	-17576	23465	9873	-17816	-10948	8260	-29357	3461	2914	-12156	2716	2508	-18407	4264	9084	129	116	1
-11300	-3780	13040	-1981	10402	1718	-16848	3364	-4496	-2381	13295	409	-17064	-3820	1968	-12826	-2718	-1134	-132	-15272	22344	-9960	27219	13008	-18100	-23656	4356	-25557	-298	3224	-18632	-7452	3212	-19368	11510	8002	128	123	1
-11348	-5344	12292	-3249	13889	944	-18832	2580	-3224	-1936	14299	436	-18956	-2232	4848	-12637	-3820	-642	-20040	-9872	11748	-6216	32767	3076	-11496	-10412	-8048	-23298	4186	3551	-16784	-15500	2368	-23135	7097	-1619	127	113	1
-10304	-5032	12940	-4754	17826	2024	-18940	5944	-5124	-4225	15134	-1320	-19496	1744	1468	-16371	-5157	1143	-21364	-8824	20016	1512	19045	-5160	-12036	-10008	-7208	-21919	4919	3778	-15880	-14348	1840	-21024	-108	-1626	132	112	1
-9760	-2796	14584	-7219	24144	942	-20756	9664	-5340	-8255	16056	-2308	-22236	4476	2400	-19455	-10030	2567	-21404	9416	11756	6415	15353	-4554	-20476	-9284	-5552	-4378	10740	7148	-18208	-12832	1184	-14143	2465	42	123	116	1
-9256	-3796	14312	-11883	32767	-3416	-20360	12708	-3376	-14238	17362	-3364	-22260	11992	5516	-21986	-13945	5572	-14428	4344	8856	-2240	4358	-2696	-20688	4448	-6564	504	11797	9618	-18612	628	-2016	2939	5738	1801	124	118	1
-8396	-3864	13684	-19540	32767	-5817	-19364	12748	-1676	-19359	18330	-5877	-21312	16340	8000	-25230	-15045	11082	-12496	9688	9100	-410	1095	-2854	-17884	-120	-5552	-5217	8652	7129	-16512	10436	-8068	7927	8451	7668	120	130	1
-13640	-3620	7952	-28670	32767	-3672	-20852	8480	-1240	-30490	20617	-8193	-20268	8944	3900	-32768	-15778	11731	-12320	5752	11144	-3732	216	-4139	-14788	-2560	-4744	-7022	5340	4924	-15348	4404	-5028	-1793	6174	9152	112	127	1
-30124	-10484	5748	-32768	32767	-3307	-18568	-808	-10040	-31540	22747	-8550	-19192	2940	-6640	-32768	-17090	10655	-12416	4528	11840	-3099	-571	-3185	-16900	-6160	-3976	-2315	4552	4338	-17748	-668	-2784	-4968	6277	6590	126	137	1
-29436	-10892	860	-32768	27569	-7481	-20052	108	-14676	-24743	24549	-5052	-24680	748	-14536	-32768	-20613	5528	-11440	4724	11420	-3125	-349	-3029	-17016	-3860	-2312	775	4625	4585	-17472	-744	-488	-2424	7156	4748	128	135	1
-23948	-15308	3208	-32768	15074	184	-17888	5516	-13316	-26972	24553	-6887	-26896	1604	-12308	-22163	-23275	2104	-11232	6316	11292	-3807	-808	-3654	-17028	-1016	-1648	-1338	3558	4245	-15316	5652	4	-4270	7631	4029	123	130	1
-10704	-15820	3480	-32768	468	8291	-10688	2204	-14536	-28620	23974	-10227	-24124	1976	-6880	-16201	-22105	2210	-11200	5048	11320	-3902	-1595	-4081	-17320	-556	-56	-8544	1829	2642	-16768	5700	780	-15681	4901	2247	117	137	1
-30892	-21592	18384	-32768	-30849	25040	-7396	-4428	-8240	-32768	19172	-15080	-20832	1196	-4644	-19045	-20163	2658	-10960	6636	11356	-5877	-2135	-5748	-16608	-1204	-944	-11783	986	2096	-17180	4076	12	-24185	2817	1376	119	126	1
-1152	-10396	15020	-27925	-32768	14578	-7576	-1104	2144	-32768	10318	-18781	-20108	-1296	-7064	-20426	-17121	1616	-11272	3428	12556	-5866	-2262	-5008	-16020	-5632	-1448	-9730	1773	1143	-16980	-1084	1104	-28568	1748	2332	119	127	1
4316	-4112	10848	-28511	-32768	15095	-8440	2944	7040	-28570	1545	-21916	-16468	-1792	-7980	-13031	-14799	1076	-10644	5908	12220	-6081	-2065	-5300	-16728	-3152	-1924	-4049	2718	1773	-16984	-2960	-1700	-20988	5923	4092	117	129	1
1280	-4232	9328	-26468	-32768	11801	-6568	5328	5976	-19936	-4945	-23010	-13296	792	-6592	-9377	-14331	1775	-12008	-680	12536	-5717	-2430	-5576	-15440	-4732	-6512	-5265	1638	1646	-14492	-5840	-3296	-11329	8955	6697	117	127	1
-2184	-5960	13212	-19779	-32341	5296	-9096	8776	1640	-13029	-13734	-21964	-13972	1208	-4836	-9735	-14401	2014	-11384	-1528	13164	-2364	-835	-2779	-16192	-7684	-6160	-3970	1436	1083	-14672	-6384	-5068	-3841	11016	5579	116	133	1
-7960	-344	16796	-16299	-29769	-3117	-10848	13116	-1280	-12704	-18588	-21334	-13508	-1456	-3284	-5680	-14364	2406	-11132	1096	12708	-1485	-62	-1695	-15400	-5548	-4360	-2987	1143	1981	-15208	-4884	-4112	3324	14369	5872	116	127	1
-10404	5868	17440	-21354	-29941	-11661	-10440	15188	-1944	-15470	-20401	-21902	-12432	-396	-2576	3468	-13522	3040	-10768	3004	12288	-1669	9	-1452	-16280	-4520	-2036	-1135	1300	2734	-14612	12	-3240	6720	14753	3959	121	129	1
-13856	4084	17296	-26584	-31006	-13624	-12912	11052	-2904	-21285	-20051	-23260	-13352	1804	-3160	4207	-12498	3838	-11244	2124	12292	-1514	-42	-2025	-16336	-4208	-1976	-695	1370	2867	-16212	1524	-1116	2442	11905	3781	119	129	1
-13788	1828	17432	-25017	-32768	-8518	-15148	8688	-1948	-20360	-22867	-23989	-12536	1280	-1892	-3165	-11693	4023	-11184	1944	12224	-732	205	-1794	-16200	-2260	-760	-1120	2256	1713	-15336	-852	192	-589	9786	5327	122	129	1
-13968	3048	18256	-22841	-32768	-2214	-15924	10840	-3080	-17367	-26788	-23970	-11164	-1080	-860	-11378	-9419	4120	-11012	4088	12072	-1373	-484	-2942	-16124	-2776	-332	-3388	2080	1720	-15060	-2232	348	-8935	12182	7305	121	135	1
-16584	5276	20240	-26104	-32753	-1541	-18144	15232	-4720	-21380	-27371	-21833	-11072	-2952	708	-15633	-5688	4108	-11396	188	12604	-2346	-603	-3813	-16520	-3588	-1552	-5013	3442	2089	-18060	-180	920	-13274	14073	4794	121	130	1
-19068	3588	22056	-28312	-30197	-3248	-20912	15036	-5236	-27868	-25444	-20360	-12684	-3864	4068	-13973	-3977	2436	-11220	1416	12880	-2392	-161	-3091	-16236	-3596	-1396	-5452	3521	1814	-19452	532	-620	-10581	9077	1379	120	129	1
-23372	4252	22796	-26173	-28937	-5234	-22012	13580	-7468	-28029	-24338	-18330	-14756	-6068	8632	-12290	-3917	705	-11368	2048	12312	-2535	-42	-3259	-15780	-2376	-660	-8351	5627	224	-18336	-1448	-716	-8478	3861	112	123	130	1
-23984	6124	20584	-19711	-28677	-4297	-22132	10928	-5776	-22816	-23077	-14670	-15016	-9844	11212	-9749	-3112	-1903	-10652	-204	13588	-2958	362	-3644	-16440	-3688	-3744	-6233	7343	247	-15412	-3280	-752	-7314	4870	480	122	131	1
-21172	6380	14428	-11759	-25897	-441	-18992	9528	-3132	-16081	-21510	-10043	-12644	-6340	10968	-8583	450	-3078	-11344	1792	13544	-3366	1804	-3615	-18088	-2308	-4392	-7672	7022	-752	-15900	-2252	-4168	-8138	8192	523	120	133	1
-17308	4728	7412	-5201	-15014	7723	-18160	8920	-3148	-9409	-19059	-8161	-11428	-676	13260	-6771	1169	-1265	-11504	1720	13576	-4470	3555	-3759	-17288	-3304	-3712	-5118	7599	-914	-17116	-900	-5640	-6318	6473	1502	117	132	1
-22196	7808	5480	-1632	-8503	11830	-14584	8624	-7080	-2809	-15035	-6398	-11856	2684	17264	-1384	-1886	2354	-11500	2248	13460	-4061	4699	-5276	-17968	-2700	-2712	-3721	8467	-1067	-18100	440	-3320	-2372	3309	1289	118	132	1
-21904	10396	2364	-1334	-6093	4784	-11400	10600	-8776	-978	-8489	-1073	-12200	3020	17548	-437	-2365	2738	-11248	812	14060	-4507	6004	-6392	-17888	-2460	-2364	-3787	8654	-1165	-17376	652	-3664	206	3845	-91	121	134	1
-20892	6500	668	4006	-2545	348	-11460	7592	-10052	-27	-2489	1516	-14284	4456	14188	-1697	-4848	3617	-11248	-964	14628	-5195	8462	-5495	-18852	-4804	-5544	-5278	9232	-2575	-17692	2468	-4436	-2303	5158	-391	124	133	1
-22900	1644	2948	8539	-1864	444	-13900	2412	-7636	3648	1563	4182	-15976	2468	12824	-5900	-6974	1697	-11344	444	13792	-5681	10774	-5723	-17872	-3380	-3960	-4021	9831	-2753	-18300	1212	-3052	-2220	4571	-418	120	132	1
-23600	11392	-2076	8156	500	8138	-10924	1760	-10984	12954	5070	5098	-13280	2880	11488	-5115	-5620	-1236	-11532	1076	12520	-6691	12016	-7192	-17720	-2488	-2408	-3285	10828	-3468	-16648	24	516	351	1744	-1638	117	133	1
-7360	-16500	20960	4446	-47	9144	-23676	3060	15880	-299	7253	5181	-9516	3576	11252	1966	1278	-1390	-11712	564	12992	-8528	13513	-10950	-18892	-2060	-2432	-2431	11979	-4140	-17936	552	3372	-259	-997	-2674	124	132	1
-5448	-620	10804	643	9084	12767	-11776	7608	4040	-2386	6749	295	-14184	3432	6116	-3276	13903	3120	-12100	2420	12948	-9729	18004	-13465	-19608	-4060	-676	-971	13126	-4752	-19836	-804	4624	-1678	-3536	-3688	120	131	1
-8464	-4524	12256	-3713	14385	3080	-18356	4600	2596	-5592	10365	5524	-18604	-2860	1124	-11642	10735	2398	-11776	2172	14208	-10646	24447	-16380	-21768	-7200	2244	2943	15540	-4902	-20784	-2864	7952	-5659	-6944	-5930	120	128	1
-16556	-9280	11588	-789	8713	6207	-20484	-640	-4560	-1537	9614	1520	-19436	-7964	6484	-5709	5129	1258	-13036	4352	15452	-14596	32648	-21366	-24436	-6096	7600	3833	18062	-6064	-21308	-6076	11564	-7607	-13039	-8443	118	131	1
-13740	1484	11328	3119	2815	3965	-21008	616	-6608	1810	9406	1023	-19084	-3620	4532	-6033	11018	871	-17592	5872	13800	-22341	32767	-28456	-24176	-2076	7716	-2603	18904	-7844	-20760	-3252	12000	-3280	-13287	-9188	120	131	1
-12432	-4992	11180	1244	2356	2147	-16320	4348	-4720	3473	7048	1281	-15932	-2444	-5560	-8673	13600	-2070	-32768	-5108	11688	-29816	30858	-32768	-23248	8	-6684	-7491	20693	-6931	-16920	-1780	10044	4025	-13699	-11191	129	127	1
-11208	-3704	12340	948	1478	1578	-16108	3740	-3344	2421	5111	361	-15804	-2396	-2212	-4977	11218	-1902	-32768	-972	11112	-26732	22348	-32089	-30208	456	-7340	-12289	22109	-8995	-19844	5252	1192	7001	-14395	-9884	128	127	1
-11480	-3828	12192	-377	1229	487	-16736	4472	-2672	-360	5025	-94	-17288	-3936	-1692	-5334	10200	1073	-32768	9188	13928	-28777	12145	-29343	-25020	3780	-7540	-21006	19103	-8529	-24344	7732	-7144	1732	-13348	-4366	130	125	1
-10528	-4540	11852	-737	645	-351	-16572	2708	-1872	-2166	4761	-624	-17580	-1068	-672	-4684	7974	-889	-240	19260	12972	-32768	4142	-16885	-18888	5016	-9576	-29686	14643	-8765	-26164	7520	-8732	-3591	-16889	2040	126	128	1
-10548	-5176	11272	-778	542	-497	-16400	1408	-1744	-1102	3413	-1058	-15136	-4248	408	-4048	8947	-2561	-31428	1372	11072	-32768	-17050	9328	-15100	1124	-13048	-29465	10506	-12374	-24776	7116	-7344	-2644	-22520	4167	126	130	1
-10224	-5268	11300	-653	263	-561	-16616	1200	-1816	414	2187	-1080	-15232	-5244	612	-4091	10544	-598	-6368	3744	13132	-28755	-24497	23691	-15092	-1548	-1588	-27593	3776	-14554	-26344	8740	-6608	-2723	-24614	6011	127	133	1
-10004	-5608	10996	-280	173	-525	-16872	892	-1288	881	1485	-1040	-16136	-5016	1248	-5553	10904	-64	672	6872	10736	-24587	-19254	20023	-10488	1196	-168	-26444	-4237	-14533	-23772	8812	-6716	-8988	-24870	5633	122	129	1
-9808	-5868	10844	400	22	-164	-16576	384	-1196	598	1228	-908	-15540	-4432	1552	-6052	11551	-297	-3732	5428	9268	-20560	-17616	15714	-8968	3844	-2092	-25433	-10313	-15230	-20172	5896	-6996	-12589	-22919	3413	121	125	1
-9988	-5088	11164	359	-61	162	-16108	1780	-816	85	975	-625	-15904	-1740	2004	-5765	11909	-1256	-6960	5424	9792	-15050	-22071	11732	-8276	3512	-2664	-18674	-14482	-16604	-17616	6216	-7876	-15716	-20443	2495	125	120	1
-10372	-4716	11256	-132	-66	95	-16324	2096	-232	-2050	1662	-697	-15836	-856	4048	-7238	11636	-1825	-8652	6568	9364	-10096	-26915	8472	-8972	3568	-3080	-10660	-18431	-17937	-17744	5628	-7808	-18089	-19649	1965	127	114	1
-9692	-5588	10952	-95	-6	56	-16068	292	584	-2464	2636	-730	-14448	-2148	4288	-6541	11949	-2934	-13332	6756	9384	-4456	-31892	8534	-11132	5548	-4176	-6092	-22417	-19500	-16644	5020	-7800	-20834	-18568	1801	128	117	1
-9680	-5720	10708	574	42	342	-15796	-944	776	-313	2824	-84	-15696	-3932	4404	-2001	12708	-4047	-18976	8028	8572	1165	-32768	10424	-11616	4276	-4564	-1168	-25803	-20315	-14564	3528	-8028	-22946	-16912	1012	128	119	1
-9528	-5456	10980	1199	137	916	-15564	400	412	330	3470	364	-17084	-5828	3240	547	10435	-4378	-18764	9184	6788	5744	-32768	12790	-12812	2800	-3880	4864	-29618	-19277	-12136	1488	-8452	-25273	-15139	-805	128	121	1
-9592	-5440	11060	1604	357	1240	-15984	1276	-232	-2222	5137	372	-17636	-5312	1756	-1416	7530	-3939	-17812	6824	4332	13909	-32768	19095	-16468	472	-3720	11766	-31682	-16215	-11640	880	-8624	-25919	-13629	-1253	129	118	1
-9896	-5164	10924	1906	490	1316	-16264	584	-376	-4075	6912	372	-16732	-4224	2188	-3868	5892	-2610	-19636	11572	6408	18004	-32768	19960	-20812	4468	-5776	18179	-32768	-11124	-12440	-376	-5924	-22851	-14010	-1458	127	123	1
-10596	-4716	11472	1365	592	1526	-16192	388	-668	-2837	7576	565	-16016	-3688	2176	-5264	5882	-2467	-29032	13252	8468	15948	-30676	21090	-24616	9908	-9456	7004	-32768	-8774	-13576	-2620	-4440	-17874	-13279	-1460	128	127	1
-10724	-4216	11460	971	272	1400	-16032	1372	-900	-858	8346	906	-15756	-2536	1624	-5005	6206	-2484	-32768	13464	10204	10305	-29131	27575	-25540	5932	-12024	-4838	-32768	-8543	-12000	-4428	-3908	-13060	-11413	-1111	128	127	1
-10012	-4856	11516	606	434	1064	-16224	1548	-344	-924	8941	1257	-15764	-3228	1304	-4926	6304	-2169	-32768	10240	11712	3100	-30783	32767	-26472	4188	-13572	-10019	-32768	-9345	-11428	-5096	1464	-9337	-11663	-209	130	126	1
-10176	-4880	11532	634	496	1020	-16096	316	-1276	-290	9465	1213	-16656	-4704	888	-4626	5492	-2223	-32768	4348	10136	-714	-31696	32767	-24336	1436	-9180	-11169	-32768	-11180	-8784	-800	1148	-5119	-6225	4678	127	126	1
-10372	-4720	11632	755	682	1467	-16248	596	-1944	-27	9702	1699	-16144	-4324	552	-4447	4793	-2492	-32768	-1024	6412	1038	-29483	32767	-21808	392	-11284	-3372	-32768	-8210	-8896	332	2272	-4389	-618	9510	127	125	1
-10124	-5300	11656	685	1235	2155	-16716	1500	-2456	371	9921	1564	-15488	-3004	-240	-5009	5087	-2759	-32768	-6048	1932	3127	-25643	32767	-23096	1972	-12656	-509	-32768	-4247	-11880	-1992	6072	-14415	762	7746	126	121	1
-10380	-4012	12136	183	2121	2270	-17300	1780	-3296	-358	10369	1812	-16212	-936	-908	-6962	5099	-3057	-32768	-12752	-2828	8722	-19035	27218	-18952	1152	-14704	2285	-28865	-213	-16404	-7124	16608	-18394	-6751	4306	126	124	1
-10840	-4608	12092	-437	3628	2705	-16220	2796	-2376	-1185	11646	1519	-17108	-740	1724	-10224	2676	-3117	-32116	-18984	-10640	15646	-10940	20034	-12800	1620	-16664	6059	-17058	3357	-13660	-12492	19532	-10943	-5151	2846	125	114	1
-10112	-4668	13184	-226	5512	3160	-17796	1792	-2540	-173	12926	1609	-17460	-2460	3552	-11639	1910	-3384	-28012	-18080	-13492	14191	-1404	12800	-9992	2404	-15328	7294	-3940	5722	-11728	-7744	19168	1239	-4707	902	126	114	1
-9408	-4464	15724	549	9479	4276	-19932	3856	-1972	611	13871	2355	-18548	-3856	1820	-12346	2090	-3078	-26320	-12712	-11308	4471	7067	3375	-11852	4876	-13928	1986	6058	6434	-12680	-104	14448	3068	-3617	2508	126	122	1
-10692	-5100	14284	51	12610	5160	-18432	5016	-2744	1024	15078	2112	-18764	-3660	1860	-13368	918	-2000	-26724	-10816	-5416	-4745	12027	-5475	-13092	4396	-13560	-8985	11836	5922	-13972	3788	10240	910	-1494	5450	125	117	1
-11224	-4572	14296	-426	16675	6133	-19312	5276	-3848	854	16125	1231	-18492	-1796	1892	-12907	428	-1103	-25932	-6736	952	-6358	14583	-6781	-15476	1316	-12644	-15801	16123	5432	-9560	344	9184	-17007	-1149	5979	126	121	1
-8528	-4152	14204	-888	20475	7250	-19456	5312	-3960	1141	16427	585	-18640	-136	1808	-13468	-572	-487	16956	32767	32767	-13908	8142	-7410	-29652	-29732	28192	-16752	5938	246	-6536	1664	-5548	-11235	24002	8660	126	120	1
-10308	-3208	14944	-1816	25426	8937	-21876	6288	-2860	133	17320	437	-21644	-1200	3876	-13771	-3308	-113	3076	-4952	1676	-12807	18393	-655	-10012	-5724	-2180	-23232	-1160	6004	-32768	-4268	-6260	-3184	10162	4111	127	120	1
-9412	-5104	13372	-1211	32767	9108	-21144	8540	-40	-1452	18868	-14	-20176	604	9144	-14674	-7998	682	-23512	-8236	11472	-11055	29814	9016	-14808	-13644	-8104	-26071	5213	-408	-13880	-6224	9460	-28294	4598	828	130	130	1
-7604	-1624	15224	-2593	32767	6811	-20340	13900	2328	-5621	20475	-1449	-19864	9140	13588	-15945	-16858	5047	-12236	-17056	21064	-3658	22949	377	-19468	-18368	-7936	-19278	7048	4946	-14876	-23544	3220	-32768	9753	3411	125	121	1
-10608	-5900	14620	-11619	32767	1124	-23440	20928	3328	-21245	22493	-3419	-19804	22816	13280	-14517	-18512	13328	-24996	-3668	16704	8179	17092	-4780	-19568	-10840	-4292	1360	14343	7912	-17252	-17688	-696	-1345	10779	219	123	114	1
-31380	-5668	336	-18604	32767	2111	-18744	1736	-7712	-30094	29261	-5330	-18288	7388	6260	-32768	-16639	11461	-11840	21524	3644	-6985	6309	-3387	-24236	19156	-3716	-484	13023	12965	-20344	14656	-276	19207	10665	3899	126	119	1
-32768	-5288	-512	-21169	32767	5425	-25336	-3368	-16632	-17852	29007	-1356	-23320	-5632	-12460	-32768	-13987	9379	-14632	8712	9444	-6241	2626	-6125	-18064	3928	-3364	-19310	6494	6274	-15500	21956	-3820	-794	8908	11973	129	158	1
-32504	-10848	13412	-30980	32767	5657	-25316	4192	-8552	-12247	25790	3272	-25904	-8140	-16128	-32768	-12959	8381	-13844	-712	13484	-7312	-152	-6585	-15776	-1256	-5420	-12199	6596	3731	-19116	3640	-3996	-13971	7045	9126	113	145	1
-16480	-11852	14116	-32768	25928	5316	-17496	3216	-14156	-9500	19803	2229	-26324	-8808	-10556	2189	-26008	-2465	-12696	2148	12820	-4879	-820	-4407	-17968	-5876	-4036	1269	9033	3986	-22516	-5776	-3300	-8183	5293	4341	116	135	1
-32768	-25700	15516	-24333	-4445	18317	-12636	-2268	-6696	-17275	13735	-1981	-23080	-2744	-2160	882	-23640	956	-11988	2584	12584	-2852	-631	-3319	-16444	-3600	-2556	10773	10239	4573	-15568	-1256	-388	1418	7356	6058	121	113	1
-6328	-13432	18080	-12719	-32768	8087	-3784	-3892	-2860	-21561	7363	-6667	-20988	-1136	-3772	-4872	-20305	-1659	-10408	4536	12184	-2215	-588	-3870	-17452	-1072	-1416	10651	9310	4940	-16468	3944	-2444	3794	7967	4946	124	128	1
-712	-8048	10612	-12206	-32768	8525	-8080	-3060	3432	-21215	-967	-11418	-15780	-1964	-5408	-6728	-16079	-3553	-11796	3100	11788	-3338	-702	-4795	-17596	2736	-4320	-2656	4452	3422	-15824	4404	-4988	-3782	9777	2903	123	125	1
456	-5400	6552	-16088	-32768	6491	-7860	-2912	3396	-19874	-2110	-11608	-14472	-1460	-6556	-2308	-13799	-4037	-11656	1136	12180	-3344	-481	-4000	-17000	-4132	-4972	-9782	1179	1455	-15892	-88	-5360	-12227	9908	3192	129	131	1
-4164	-7480	6480	-16146	-32768	2021	-6000	1608	-936	-4876	-17856	-12602	-13980	-932	-6476	1125	-13657	-4298	-11368	552	12772	-243	810	-2081	-15084	-7144	-3724	-3284	2019	1916	-16272	-4476	-2024	-8544	9584	5541	125	131	1
-7032	-6436	9200	-12973	-32768	-6113	-8048	7596	-2612	-6202	-24452	-12897	-13192	-2436	-5476	4202	-13217	-3211	-10876	2224	12332	559	1285	-1522	-16100	-4316	-2004	5530	3900	3437	-16084	-4320	348	802	10159	6922	118	126	1
-7732	-836	11616	-15104	-32768	-15958	-11748	9544	-1588	-14122	-26974	-13082	-13412	-5260	-5568	7619	-11275	-3316	-11168	2344	12520	-44	1317	-1341	-17204	-1312	-1528	3519	4140	3529	-16484	-1288	1600	8900	11367	7185	114	127	1
-10952	-3176	12532	-18240	-32768	-21890	-11256	6688	-2956	-15598	-28455	-15180	-13616	-3780	-6756	17061	-11000	-3456	-11444	2644	12056	-307	1497	-1136	-16084	-1588	-116	-650	4432	2427	-16976	424	2384	10273	10681	6344	118	130	1
-11020	-5784	13504	-14563	-32768	-21666	-14340	4856	-2144	-10726	-32768	-17652	-12032	408	-8220	23483	-12305	-3338	-12032	6360	11780	-2217	945	-1064	-16948	-444	-1184	-864	5236	2802	-16956	2428	1108	7044	11999	6497	128	133	1
-13172	-4704	14968	-9805	-32768	-19262	-16176	6764	-3428	-4040	-32768	-19001	-10024	1640	-8524	19038	-11469	-3031	-11608	2220	12332	-1400	1032	-1993	-16808	-3468	-2476	578	6732	3003	-16612	-992	1188	-610	13168	7391	126	129	1
-17860	-4312	17856	-10509	-32263	-22087	-19656	9068	-5820	368	-32768	-17974	-8996	2200	-8028	17620	-10902	-2828	-11704	2468	12460	-1392	1688	-1443	-16628	-3032	-2816	1913	7785	3543	-17080	-1076	-440	-5162	15255	6944	126	136	1
-24160	-6916	21464	-11807	-30681	-26636	-23616	11704	-7264	-2690	-32768	-18191	-9188	4544	-4108	-1465	-1899	-108	-11824	488	12312	-1067	2583	-1310	-16652	-2960	-3060	1743	7773	3541	-15532	1716	-4872	-2089	16190	5291	125	131	1
-29704	-6656	25844	-11624	-29252	-30649	-30128	12104	-10120	-2860	-32768	-17871	-10636	4200	664	-6789	-515	466	-11980	1444	12460	-695	3453	-390	-16588	-3008	-4000	-264	7475	2686	-16412	1048	-4536	-3561	13458	5128	125	131	1
-32768	-648	24884	-9483	-28919	-30756	-30708	13428	-10416	-5045	-32768	-14757	-15052	-3048	6808	-4594	-2781	-2482	-10848	1652	12844	-869	4012	12	-16760	-1824	-1620	787	8306	2618	-15812	-552	-572	-4660	11148	6611	124	132	1
-28440	9460	10668	-726	-24103	-18965	-24940	8964	-17780	-8698	-32768	-10603	-17644	-8496	16432	-1211	-7063	-8523	-11736	3080	12368	-786	4766	-959	-17664	-1300	-1344	-123	8891	2469	-17352	-1916	932	-2590	10128	5968	124	133	1
-32768	1852	3064	-7939	-31749	-18353	-20180	6124	-18540	-8832	-30746	-7762	-13644	-2588	17396	7535	-2005	-17894	-12192	2340	12872	-1064	6326	-1543	-17628	-2160	-2120	-764	9984	2081	-17916	-2812	304	1226	9053	5102	122	132	1
-32768	16632	-19636	-14750	-26918	-7497	-7764	11308	-18072	-9212	-17585	-12478	-14752	11020	29980	2088	1323	-7571	-12296	1696	12724	-1508	8325	-2275	-16840	-2936	-2652	-1564	11434	1903	-17924	-1096	656	3506	7756	5030	125	131	1
-32768	29036	-27136	-23462	-8018	-6387	-2328	5024	-16940	-8348	4709	-4743	-13588	3508	31096	-4236	-9844	5825	-11808	508	12512	-2609	10119	-1857	-16092	-1036	-1336	-4241	13481	716	-18212	2568	2836	3754	4598	3460	122	131	1
-27868	52	-15160	5766	11985	-2691	-8584	5064	-16268	7558	12762	4118	-12912	-3128	16012	-4107	-3963	1838	-11976	4736	13452	-3262	12162	-2692	-19664	172	-1748	-6704	14518	36	-19064	3440	2624	3969	4413	2351	125	129	1
-14924	-11768	14048	23606	12130	9897	-29244	2664	10612	1729	15313	5006	-12400	-10112	440	-6860	2079	-854	-12164	4880	14392	-5283	15663	-5517	-23272	-2732	-2436	-4193	15913	372	-21664	2468	1212	6454	3829	1383	125	127	1
-4296	-5808	15012	18089	21980	13585	-19020	-1112	7712	25230	4683	-1588	-19552	-7652	-5360	5494	7953	-1579	-11024	4860	14808	-5051	21117	-8084	-22496	-4956	-1328	-1998	17427	728	-23088	-492	1244	8514	493	921	128	127	1
-19636	15256	14680	11639	21355	5383	-7996	16472	-4516	28572	6276	4949	-20844	-8004	9420	18121	-4384	-3197	-9724	2164	15716	-5292	30659	-11191	-22556	-8772	-24	736	19284	973	-20700	-5876	8212	8458	-5882	-1328	125	127	1
-10744	5476	16992	5360	24731	3154	-24732	16072	-992	19676	11015	6024	-14764	7224	11924	28917	5348	627	-9376	2080	16824	-6486	32767	-11035	-24488	-12452	3732	4423	21482	-175	-21204	-11076	16060	1320	-16503	-6131	122	129	1
-25756	4068	21100	1783	16764	16767	-19912	8964	-6348	7514	15289	1801	-15972	14148	4688	18639	15304	5487	-15484	6872	13148	-9468	32767	-16505	-26104	-8068	11540	8498	24427	-704	-18092	-12908	12332	6729	-14039	-11531	126	131	1
-16008	-29452	14792	6336	12223	6798	-24304	-1008	-4720	1396	16354	-303	-20040	3596	-4516	-4215	13987	3664	-32768	8580	9792	-12732	32767	-30826	-27484	3016	-4192	726	25660	2122	-18784	-10128	9384	12071	-12579	-11455	122	131	1
-12020	7036	19108	8514	80	10063	-15544	876	-5684	14128	9882	-439	-15820	-15064	-9444	-15511	15326	-6396	-32768	4240	8652	-10345	32767	-29346	-31916	-672	-8480	-5687	27073	-21	-20904	6704	-156	17305	-15695	-9022	126	129	1
-12956	-3476	13396	5602	386	5519	-16680	5684	-5452	7648	8908	262	-14672	-5464	-5748	-1029	12397	-6924	-32768	7852	14364	-10809	32767	-31894	-25520	348	-7500	-12490	19717	420	-23032	6964	-2048	18261	-14157	-7507	129	138	1
-12144	-3636	12688	2244	345	2550	-16988	7580	-4080	115	8954	142	-17852	348	-5572	-2957	10270	-1913	-26052	14716	21192	-5010	24428	-27072	-19236	1196	-8132	-14413	16538	1358	-30492	-2168	-12480	15759	-19631	1035	127	138	1
-10744	-3232	12444	1080	562	564	-16840	5432	-2428	-4256	9083	-1183	-16504	-2504	-1244	-2797	10660	-1272	-32768	-4088	14200	-10324	10313	-18926	-13500	-2796	-9600	-8622	9923	1848	-26324	-1696	-7388	9480	-27519	-11	131	133	1
-10236	-4420	11836	500	636	-101	-17120	916	-1588	-3089	7790	-1267	-15252	-7036	-684	-577	13709	364	-14216	5328	19764	4151	-22105	-624	-8972	-2280	-3128	4907	5273	562	-24708	-904	-4264	6796	-27121	-557	126	126	1
-10040	-4492	11604	628	591	-44	-16816	296	-584	2449	5153	-813	-15392	-5148	800	2136	12711	1288	288	9304	14980	11278	-24487	5585	-9316	-3012	1240	11351	-1218	1286	-24576	-788	-5996	6601	-22848	465	128	121	1
-9440	-4704	11372	707	254	323	-16100	1800	-1004	5044	3574	-459	-15640	-3148	412	3531	13015	-194	284	9040	11292	11699	-22585	4014	-6932	-412	-236	10754	-9142	1680	-19268	-780	-7704	4077	-20539	849	124	120	1
-9412	-4432	11392	594	467	414	-16076	3288	-944	2169	4244	-467	-15836	-1284	1544	1757	14338	-2053	-4668	7296	10268	9525	-23336	3947	-6952	1016	-2008	8008	-16402	958	-17208	876	-8532	2509	-19976	892	126	118	1
-9480	-4632	11408	677	476	463	-15244	1836	-500	-2526	6382	-391	-15456	-768	3796	-845	13497	-2536	-7972	4840	10144	10199	-26782	6149	-6880	564	-4188	5141	-23019	-261	-15408	1960	-8380	868	-19150	133	128	116	1
-9716	-4500	11572	812	356	1139	-16024	1000	-584	-3971	7767	-206	-14788	-1288	4568	-4177	13707	-2419	-10800	3720	10548	12440	-30970	11077	-8360	-1496	-5040	6631	-28347	-852	-14552	2072	-8468	-1680	-18335	-50	128	123	1
-9660	-3956	11756	935	106	1151	-15936	1584	508	-2962	8835	395	-14604	-1712	3748	-5804	15197	-2077	-13620	2260	11084	15905	-32768	17357	-9348	-1684	-5608	9374	-32541	-1141	-12428	3860	-8984	-5169	-17020	-106	127	122	1
-9656	-4196	11940	1003	60	1224	-16120	2320	-276	45	8174	581	-16748	-2628	1084	-3607	15697	-2359	-15160	1868	11696	19153	-32768	22591	-10972	-484	-5564	9567	-32768	-1692	-9524	3952	-9652	-10688	-15486	-1346	128	126	1
-9996	-3484	12264	751	284	969	-16316	4084	-1576	-700	8180	846	-16852	-2204	-1444	-33	13332	-2841	-12768	348	11880	23207	-32768	25349	-14108	-1868	-3516	7507	-32768	-1460	-7732	4760	-10056	-16494	-13268	-1873	127	121	1
-10312	-3616	12256	496	532	619	-16204	2640	-2356	-1972	8363	805	-15780	-2580	-812	1957	12002	-3411	-11544	-2076	13660	29369	-32768	25972	-18904	-4524	-8772	4549	-32768	-1558	-8444	4644	-10052	-18033	-10677	-1757	128	120	1
-10012	-3956	11916	215	827	720	-16516	1936	-2400	-628	7905	960	-15984	-2900	-400	913	12267	-3342	-25440	-1536	17024	29085	-24993	24412	-18988	-2264	-11620	9606	-32768	-4800	-9612	952	-7552	-13782	-9097	-1631	128	123	1
-10020	-4076	12152	47	992	974	-16396	2748	-2744	-325	7792	1273	-16196	-2832	-820	-434	12113	-2846	-32768	32	22316	23247	-30297	21599	-28276	-6872	-15840	14296	-32768	-3467	-10436	-2816	-1140	-9282	-11690	-1895	127	123	1
-10168	-3968	12044	-211	1569	1133	-16492	2648	-2596	-1711	8497	1295	-16436	-3048	-856	-1042	10907	-2505	-32768	-9816	18896	22415	-32573	27911	-28208	-3052	-16380	22294	-32768	-3919	-10208	500	4388	534	-9282	1039	129	123	1
-10308	-3984	12392	-508	2348	1238	-16708	2312	-1928	-1680	9369	1992	-17592	-2792	920	-2171	8896	-2696	-32768	-5932	9352	17440	-32768	30833	-26392	3808	-18212	19365	-32768	-3409	-11232	1720	6444	12561	-871	6582	132	127	1
-10664	-3444	12196	-397	3150	1466	-15944	1940	-1524	-205	10651	2703	-16952	-2128	3768	-4258	7261	-2849	-32768	-9332	-1984	7857	-31707	26310	-25240	836	-17360	4211	-32768	-2288	-14632	-3104	11584	2731	1532	5621	129	123	1
-10160	-5020	13004	388	4507	1947	-17536	1124	-776	1104	12295	3325	-17856	-1140	4904	-6233	6716	-2787	-32768	-20628	-13592	7398	-20849	24116	-16700	1584	-20528	2741	-24058	1455	-17056	-6776	19276	-3687	-1535	3136	130	117	1
-10340	-4784	14412	903	7980	3932	-19920	3840	-1532	1933	13474	3922	-19760	-1968	2988	-7414	6223	-2772	-32768	-27728	-20644	10294	-6851	18361	-10528	1084	-21588	3555	-10225	4693	-13808	-9780	26672	-6399	-41	3678	130	116	1
-10560	-3880	14612	1482	11353	4636	-18880	3924	-2176	3811	15423	4499	-18792	-4392	2016	-8156	4657	-2050	-32768	-27912	-19176	7641	2532	9214	-7680	4512	-19396	651	5420	5659	-11848	-3320	21980	-4	-1770	2584	130	120	1
-10752	-4960	14716	2159	15163	6056	-18956	3420	-2780	6322	16169	5204	-18808	-3920	2036	-7940	2607	-877	-27656	-20004	-12384	-5879	9555	-3176	-9780	3856	-17972	-8621	15326	3793	-14764	2032	15952	-3138	-1730	3858	129	128	1
-9824	-5576	14336	2578	19154	8733	-19464	4024	-3172	6589	17038	5144	-18948	-2660	2704	-8683	493	345	23864	7120	32767	-12051	7209	-15849	-30164	-25960	32767	-10998	10090	-3542	-11972	440	1640	-13174	5746	4886	128	117	1
-10652	-4520	15408	2376	23431	11293	-21888	4760	-2480	3923	18447	5291	-20836	-3824	4952	-9363	-3275	909	9596	1120	4724	-22486	14089	-20004	-8932	-780	-3116	-32768	-2714	7798	-21800	-7512	628	-13842	18660	2407	131	117	1
-9896	-7028	14028	3311	30710	14609	-23040	6512	240	2811	19867	4937	-20712	212	10336	-10724	-9481	2154	-20720	-23688	17404	-10503	27764	1248	-11648	-21144	-6444	-28332	7848	-5152	-14616	-5956	5652	-30741	5321	-3301	125	127	1
-5468	-600	17196	4115	32767	16939	-24828	11072	1108	-2682	21190	4435	-18296	8972	15376	-11003	-18989	2857	-14316	-12436	19544	-5150	19976	-12718	-24640	-10008	-4708	-16900	11775	4689	-18932	-22220	4568	-23736	5591	-1460	123	108	1
-12288	-8488	13068	4726	32767	15550	-26360	11912	12552	-15854	24860	4896	-21884	12624	3460	-23019	-8963	7006	-32768	27172	18468	-3557	10676	-6426	-23800	4508	1576	-5429	14526	6028	-20084	-1452	-2284	6938	10662	-1053	123	113	1
-32768	-4392	9496	929	32767	20705	-21528	2196	-8048	-15753	28512	2097	-19552	4788	3612	-29501	-14736	8502	-9928	-10236	18368	-14314	4687	-13628	-18716	7256	-4164	-21205	9598	7050	-19040	29488	-6912	6992	13703	9775	124	123	1
-32768	-3324	4856	-551	32767	25070	-29076	-1156	-11420	-7037	27756	4990	-24172	-7732	-9628	-32768	-15527	6918	-17984	5888	11800	-9057	-169	-9306	-14048	-484	-5268	-15741	8261	3266	-18212	28708	-7972	1267	12700	11542	125	143	1
-32768	-8964	15444	-4122	32767	22544	-21980	3696	-10572	-3911	24147	6050	-28284	-12432	-16960	-19101	-17707	-1844	-14500	-996	13696	-5398	-515	-4259	-17964	-8228	-6008	-4221	9935	3073	-16680	-8300	-2988	-10509	5578	6898	127	140	1
-20884	-14452	20944	-10700	25736	16688	-18712	2340	-9812	-2141	19146	5101	-25660	-7712	-10360	5259	-23750	-4249	-11856	1724	13448	-2462	184	-2375	-18080	-4436	-3892	8570	11938	4881	-19088	-148	-4672	3823	8965	5359	126	129	1
-32768	-14764	23012	-10934	-2718	11928	-10144	2360	-10660	-5486	10375	1747	-24052	-752	-4304	7198	-24470	-1860	-11804	2728	12288	-1254	80	-1814	-17312	-52	-3832	10276	10619	4595	-15268	4164	-4024	7120	9815	6818	132	130	1
-6224	-12480	17040	-13601	-29888	-291	-7876	-888	-116	-13122	3154	-748	-22912	-416	-3636	2993	-22269	-3574	-11812	2120	12324	-1167	-65	-1244	-18080	1540	-3664	3140	6938	2632	-16512	5484	-4128	2205	9471	3844	125	126	1
3880	-11144	9980	-12756	-30371	-1830	-8276	-572	2728	-13594	-4128	-6406	-19832	-3016	-5452	-881	-19149	-5538	-11364	1824	12528	-1046	-139	-844	-16984	-2156	-3284	-4047	3406	1355	-16864	2376	-2552	-6580	9344	2842	122	130	1
1628	-9624	7492	-10160	-27031	-4601	-5348	-616	428	-8039	-11741	-8079	-16240	-3040	-6764	2247	-16293	-5102	-11320	1964	12492	-232	104	-315	-16572	-4212	-1836	-1990	3141	1759	-16288	-1836	-920	-7682	9277	3819	128	131	1
-3780	-8988	7672	-7967	-27273	-9688	-4992	-656	-2468	-1912	-19532	-9281	-13712	-3324	-7640	6667	-14565	-5028	-11016	2600	12176	141	317	15	-15764	-3408	20	1293	4201	2477	-16012	-4704	1056	-3957	9433	5491	125	131	1
-6736	-7520	9208	-6872	-31356	-16642	-6984	2212	-3636	-1281	-26095	-9513	-12788	-3892	-7372	9163	-13037	-4747	-10780	3092	12048	64	264	-399	-15452	-2180	192	3720	4930	2714	-15224	-3556	2252	4401	10727	5771	122	131	1
-9020	-5648	11124	-7177	-32768	-23081	-10328	4112	-4756	-3862	-32047	-10924	-12216	-5236	-6860	11723	-12244	-4383	-10932	3112	11732	-202	67	-683	-16032	-2200	460	6609	6219	3156	-14104	-1692	2712	8652	11033	5523	120	130	1
-12340	-2388	11812	-10319	-32768	-26377	-13184	3588	-2968	-3792	-32768	-11876	-12348	-4804	-7712	18607	-11221	-4273	-10660	3956	12304	-1108	-83	-812	-16560	-1288	264	7241	7005	3401	-15028	56	1556	12092	11374	5626	122	129	1
-14032	-3240	11816	-11755	-32768	-24690	-13100	4780	-3844	-796	-32768	-13122	-11032	-824	-8428	25843	-11863	-4003	-11156	2036	12380	-1610	-83	-1059	-16460	-872	-820	3438	7070	3017	-16984	596	552	12014	12031	6027	120	131	1
-17016	-5760	13452	-9202	-32768	-22266	-16540	6056	-6056	-716	-32768	-13339	-9936	928	-8460	22560	-10904	-3510	-11180	2488	12212	-1527	3	-954	-16476	-1004	-856	2813	7018	2861	-18524	-264	1880	7713	13278	4542	122	129	1
-19608	-5752	15492	-6197	-32768	-23237	-19284	7940	-6960	-1215	-32768	-13107	-8592	1516	-6592	13099	-8218	-2656	-10756	3412	12672	-1445	341	-1356	-16596	-2284	-1632	1357	7898	2692	-14000	1176	144	194	16028	4886	124	132	1
-24736	-3320	20204	-8902	-29013	-27519	-23236	11252	-8564	-4206	-32768	-13041	-8612	3204	-3316	5641	-4131	-2382	-11272	864	12624	-834	713	-1384	-16724	-2648	-4504	3999	8242	3296	-14708	376	-6136	1977	16446	6131	125	133	1
-32768	-6668	22576	-11962	-29260	-31320	-30316	9612	-13196	-4717	-32768	-13981	-11252	6016	2308	4674	-3675	-1267	-11376	1240	12732	-436	1247	-887	-17344	-1836	-2812	3356	7902	2747	-18096	2748	-2376	1573	12338	5111	127	131	1
-32768	-944	16956	-10507	-30811	-31132	-26720	9608	-14460	-4332	-32768	-13067	-13356	1000	3440	4533	-1230	-2680	-11436	2568	12440	-539	1460	-1077	-16644	520	748	1590	8565	2189	-17556	1464	3620	-2245	8884	7004	126	132	1
-32768	-904	8456	-8601	-29245	-29322	-23396	6816	-16348	-3579	-32768	-11485	-13076	-3920	6400	254	3287	-5247	-11584	2724	12476	-1120	1628	-2152	-16656	756	1252	-5	9908	1673	-16496	-1832	6316	-1033	8801	7924	124	133	1
-32768	3812	-1256	-2461	-26895	-24804	-22256	8220	-18968	-1424	-31280	-10399	-16640	1488	16872	9977	-2273	-6437	-11200	2512	13228	-1282	2567	-4085	-18052	-1080	-672	596	12075	1238	-17020	-2804	4916	3036	9860	6939	129	130	1
-32768	13536	-13480	-2072	-20674	-20924	-12908	7496	-22244	-660	-20594	-9169	-16388	4040	26176	7570	-1098	-7333	-11776	3552	13500	-1867	4631	-5155	-17712	-1324	-572	1147	14400	1135	-18308	-2368	2932	6463	7857	5672	123	133	1
-32768	28260	-25508	-10922	-8924	-14608	-3860	7104	-21320	-264	-3487	-5622	-13720	4772	27340	-6463	-2372	-746	-11256	1960	15452	-2911	7463	-6373	-19048	-3116	-2788	-748	15989	349	-18740	868	1884	8377	5403	3625	122	131	1
-32660	16412	-20868	-4956	8612	-7322	-7332	4140	-19056	4892	11227	520	-14780	-3020	20112	-3697	-8872	1032	-11560	1684	15484	-4883	10927	-7090	-19760	-3688	-4392	-2791	16900	167	-20008	3176	-888	8486	5327	2077	120	130	1
-19568	-14444	11744	23167	9451	4416	-21132	6976	3196	1891	16229	4728	-13724	-6160	7172	-3675	-1966	192	-11448	1900	15708	-6015	14846	-7759	-20464	-3588	-3732	-3007	17650	248	-19376	3044	-168	7437	3374	382	121	129	1
13368	-15584	30752	11614	23674	12521	-27640	1072	26752	13667	6525	-147	-18804	-1924	5888	-2051	5092	447	-11100	2992	15520	-7248	19148	-8818	-22212	-2760	-2740	-4606	18019	-12	-21532	2060	3368	5563	-833	-229	134	130	1
-26816	14340	10420	11189	22900	12584	-792	15952	-9864	29518	8222	2055	-14844	-1960	11644	13346	4255	2140	-10144	3208	15920	-8024	24205	-10569	-22852	-5564	-2072	-3272	18883	598	-19964	-2016	9388	3236	-7094	-1650	122	131	1
-8296	232	16064	1194	25312	1495	-22408	17508	-1672	14443	14579	9719	-13260	3380	3092	25109	9346	-1233	-9140	3708	17784	-10239	32767	-13169	-27348	-9328	4460	1246	21586	147	-18676	-8860	9660	2586	-11412	-4994	122	132	1
-23116	-1480	19252	-1462	20299	12370	-21732	8468	-5076	6619	16540	-242	-19768	13956	5064	14159	9443	2146	-10428	8808	18420	-12784	32767	-19238	-28948	-13188	12216	7775	24184	2374	-18872	-15540	8844	7993	-12720	-11063	124	132	1
-18112	-25808	12836	2181	14744	7605	-23496	-952	-7816	5300	15843	34	-20852	-2988	-6396	-5506	10546	2595	-17624	6628	15972	-15302	32767	-27733	-28376	-5828	6452	9618	25241	3401	-21696	-10000	8712	14104	-16576	-13752	122	132	1
-18900	6520	18840	8842	1843	9997	-16232	588	-8056	17746	8362	-596	-16132	-15056	-9996	-10079	13297	-4518	-32768	-1224	4280	-8259	32767	-28292	-25308	4188	-15148	4189	26971	3323	-19460	1332	840	23604	-10424	-10862	129	132	1
-13404	-4248	12884	6235	303	6664	-15328	6740	-6592	9580	8142	-170	-16420	-896	-6348	995	11023	-6463	-32768	744	4540	-8391	32767	-28639	-26960	3376	-12544	-4941	22356	2714	-27812	3948	-9432	26991	-7752	-4758	133	132	1
-12468	-3204	12676	2151	820	3003	-17200	9676	-5552	-46	8502	-117	-17848	304	-5120	-257	11978	-3557	-32768	7784	19768	-3161	27279	-28795	-19752	1880	-8020	-5463	18755	2756	-31108	-1708	-16232	21017	-15450	2884	130	138	1
-11324	-2896	12376	593	567	572	-17540	6724	-3500	-6063	9021	-1604	-17668	-2084	-2252	-2321	12426	-1599	-19396	-1844	13760	-2993	14545	-20148	-15100	-1476	-8260	-2233	11514	4089	-26748	-1184	-9144	13469	-27996	1945	133	131	1
-10644	-4316	11664	48	499	-147	-16896	1636	-1648	-4884	7647	-1753	-17376	-2668	-2052	-2269	12376	-1495	-16256	6316	17200	8879	-13136	-3185	-7156	-1868	-5092	6592	6413	3815	-22368	-1996	-2816	9434	-27782	-653	137	127	1
-10184	-4612	11608	220	438	-42	-16640	396	-688	3380	4194	-1291	-15460	-4700	8	60	12410	-386	-1572	12740	13000	13092	-19399	5895	-8600	-2132	1228	12940	-269	3717	-21924	332	-4804	11774	-20711	1254	128	118	1
-10136	-4472	11300	162	296	-113	-16576	2828	-1356	7280	2168	-676	-15704	-3224	1072	5285	12922	-585	1388	10436	10140	9820	-18033	7029	-5376	1468	532	8371	-9064	4074	-17828	1720	-7880	9087	-16854	2423	127	123	1
-10012	-4408	11500	196	213	-139	-15844	4508	-1144	4109	2995	-729	-16184	-1096	1668	5602	13841	-2187	-2204	6396	9664	7894	-18266	9429	-5020	1220	-1672	2810	-16679	2583	-15532	3580	-8680	3424	-16742	2717	128	121	1
-9524	-4412	11492	419	122	30	-15040	3236	-472	-1074	4755	-691	-15588	236	3224	1138	14462	-3095	-5784	3420	10312	10504	-21102	13028	-6200	-528	-2680	1600	-22714	1399	-13964	3156	-7732	-2392	-17492	1820	129	121	1
-9292	-5172	10972	676	35	725	-15424	1584	312	-4735	6657	-741	-14324	-164	4752	-4295	13830	-2659	-7916	3304	10424	12460	-24413	16393	-7784	-1856	-3120	3972	-27300	670	-12900	3472	-7348	-5579	-16545	1077	127	125	1
-9740	-4912	11132	1436	-143	1518	-15628	512	736	-3144	8173	-451	-15024	-1728	4448	-6788	14186	-2513	-11424	2148	11396	13444	-27755	19441	-9188	-1196	-4572	3673	-32768	138	-11132	3684	-8380	-9083	-14281	544	129	128	1
-10348	-3448	12136	1552	-245	1529	-15352	3120	248	1870	8276	286	-14956	-968	4840	-2752	15812	-3872	-16388	-604	12980	16401	-32768	24060	-10268	-764	-6684	3660	-32768	-1234	-9120	3528	-9320	-14310	-12885	-535	130	129	1
-10052	-3984	11784	1249	-34	1087	-16200	3728	-1072	1052	8880	709	-15640	-1452	4248	-1409	16340	-3225	-14860	-1540	13296	21644	-32768	27968	-14368	-2832	-4192	4595	-32768	-2246	-9436	3996	-8692	-19798	-12559	-1633	132	125	1
-10140	-4240	11656	1115	0	1267	-16688	2640	-1824	-742	9165	654	-16624	-3488	-1724	-742	16093	-3542	-13092	-3388	12796	27552	-32768	27568	-18372	-5648	-5996	2254	-32768	-1326	-9176	3756	-9476	-22789	-10788	-1436	132	121	1
-10236	-4080	11992	1086	431	1484	-16668	2708	-2400	-282	8591	1004	-17652	-5024	-3368	2997	13005	-4254	-23352	-3148	14508	28926	-26148	23685	-18216	-3212	-9892	7015	-32768	-4038	-9900	-1152	-7036	-19421	-9375	-1960	130	123	1
-10644	-3524	12296	544	706	1556	-16072	4176	-3120	527	8139	1283	-15432	-2720	-1128	1687	12154	-2926	-32232	852	21200	22299	-26886	18687	-29064	-7128	-12480	10549	-32768	-2183	-11016	-7152	888	-9187	-12034	-2505	132	122	1
-10504	-3360	12076	200	1198	1275	-15640	3760	-2952	-870	8813	985	-15640	-444	-520	-1584	12044	-1142	-32768	-9444	19812	23341	-28550	23649	-27508	-5840	-16148	16940	-32768	-2364	-10796	-6332	7136	-1411	-11072	-2191	133	121	1
-10204	-4024	12484	-83	2063	1310	-16436	1816	-2100	-118	9418	1307	-17508	-3060	-812	-406	9343	-2091	-32768	-8812	13788	20297	-30291	29841	-25220	-568	-16316	19996	-32768	-2623	-11924	476	10192	10904	-1767	5222	132	127	1
-10160	-3680	12488	-13	3004	1669	-16952	2308	-2064	743	10233	2421	-17216	-3728	1792	-948	7817	-3284	-32768	-11124	5424	10986	-30143	27395	-23484	2692	-15412	5913	-32768	-4198	-14676	1428	10248	11122	1124	7391	128	126	1
-10548	-4780	13180	515	4623	2174	-18268	2568	-2208	1159	11474	3092	-17844	-1452	3140	-4483	8377	-2984	-32768	-13968	-8508	2888	-24550	23188	-18904	24	-16988	-976	-26208	-1780	-13332	-5932	9136	-3445	2990	8069	127	123	1
-10572	-4488	14572	770	8121	3933	-19572	4000	-1604	1636	12679	3695	-20464	-32	3284	-7017	7118	-2433	-30296	-22132	-18520	2899	-10950	19655	-12380	28	-19660	-1459	-14396	3214	-15560	-8212	22672	-10243	1065	5050	130	122	1
-10440	-3084	14804	1250	11230	4605	-18096	4672	-684	2378	14740	4505	-19212	-2668	4364	-8994	4066	-1934	-28536	-27308	-17964	5765	4667	15111	-9556	2312	-18700	-3080	-1462	3984	-14432	-11528	23364	-4620	-2172	1446	130	118	1
-10912	-4504	14484	2227	15265	5283	-18504	3172	-1852	6144	16604	5293	-18012	-4304	3704	-9050	2339	-1169	-32768	-4480	-11420	-18139	8782	6811	-13636	784	-13396	-12635	7715	2323	-16624	-1384	16696	-988	-1944	2352	130	136	1
-10336	-5340	14624	3088	19349	8741	-19740	3824	-3096	7839	17207	5750	-18716	-5980	3244	-7476	728	-258	-3476	12176	32767	-13750	19663	-7559	-27908	-15272	29820	-21529	4263	-2619	-16788	2512	3292	-7087	6238	4802	130	120	1
-10828	-5200	15640	3436	23747	11696	-22872	5408	-2956	6069	18186	6376	-21540	-5504	4288	-5519	-1518	640	-10040	-20960	3916	-16134	15295	-15213	-9080	-14832	-9752	-30237	5168	3979	-18244	-5396	8276	-22318	12704	3608	127	131	1
-8412	-6296	14824	4271	31087	15223	-23484	7688	-84	3870	19399	5671	-22100	-544	12132	-7253	-9570	3712	-13936	-12560	22868	-4815	27351	-8744	-18692	-20204	-2360	-15237	13145	883	-13784	-13020	1704	-27479	15022	-4057	123	123	1
-5256	-2884	17612	5015	32767	17180	-26444	13132	3960	-4120	21670	5890	-18084	9280	15356	-7986	-20167	3851	-25296	-4244	14292	-106	13360	-17498	-25848	3244	-6472	-3769	18579	6468	-19704	-14212	3536	-8471	2761	-4727	123	113	1
-11400	-11320	12988	6382	32767	17745	-26576	9792	13384	-16793	25690	5375	-22608	14216	4668	-19075	-10653	6373	-10580	6352	10532	-14920	3452	-13247	-22412	12420	-6076	-14762	13090	8710	-20636	16212	-7348	15965	13444	4296	123	122	1
-32768	-4072	7260	3184	32767	25043	-20792	-20	-11120	-13203	27940	3076	-20820	4896	-252	-28564	-12769	7225	-18076	7096	10688	-7249	577	-7141	-15636	104	-5656	-16454	10025	3243	-13756	16072	-7664	-7170	9057	10397	127	129	1
-32768	-4916	1620	2555	32767	26724	-26768	2260	-11208	-3454	25869	6032	-25076	-6216	-15132	-32768	-14742	6566	-13968	-2252	13364	-5346	-595	-4964	-16856	-3648	-7400	-9850	9365	3139	-18784	-664	-6896	-13711	8673	7302	125	143	1
-32768	-9752	17644	-3880	32767	21694	-21536	4300	-14896	-2613	23077	5398	-26576	-10532	-14180	-14840	-21100	-2623	-11972	548	13520	-2652	41	-1849	-17832	-7520	-4964	2389	10712	3612	-16588	-3288	-4476	-2668	7470	6800	126	141	1
-4284	-11824	25532	-11378	16067	17261	-15836	2656	-12396	-2600	17594	4449	-25552	-10692	-13268	-9386	-21754	-3478	-11836	1724	12624	-1054	158	-1262	-16936	-2580	-3220	11094	11313	4363	-16892	1576	-2188	2229	9077	6378	125	131	1
-17748	-18356	21252	-10444	-14879	4255	-11300	-2092	-4556	-9312	9183	296	-23880	-1404	-2736	3792	-22652	-2953	-11412	2564	12220	-625	78	-968	-17676	132	-1804	9524	9817	3662	-15860	2484	-1120	1923	9177	4255	132	130	1
-1240	-12324	13684	-12031	-25819	-2497	-9384	-1508	1800	-11956	2413	-2826	-20756	-2172	-4032	-1414	-19711	-4365	-11380	2340	11824	-1193	-121	-959	-17572	2468	-1696	828	6813	1969	-14648	4480	-260	-883	9973	3118	124	129	1
4440	-9704	8556	-11125	-24173	-2279	-8640	-968	2604	-8221	-6196	-6535	-17520	-4072	-5412	-718	-17276	-5892	-11592	1888	11940	-2031	-535	-672	-17168	-1052	-2016	-4750	5004	968	-16856	2660	-1872	-7161	8969	3047	125	131	1
1048	-8996	6876	-7849	-19600	-3534	-6072	-516	564	-2469	-13424	-7778	-15216	-4248	-6508	5181	-15146	-5574	-10864	2120	12480	-1875	-486	-209	-15900	-5448	-1520	-1544	5785	1730	-15796	-3600	-1264	-9016	8176	4132	122	131	1
-4168	-8780	8364	-6141	-20351	-9062	-5516	1328	-2880	1015	-19486	-8234	-14048	-2572	-7520	10053	-13491	-5178	-10840	1500	12276	-825	189	-6	-14752	-4968	-2164	6439	7483	3025	-14740	-5976	88	407	9143	4928	125	126	1
-9760	-7568	10384	-5256	-25773	-16866	-7088	3488	-5124	-1046	-24513	-8781	-13540	-2400	-7064	12843	-13189	-5116	-11292	2544	11828	-153	366	-45	-16728	-1452	-968	9009	7902	3115	-14500	-2516	1520	11200	10376	5395	122	130	1
-11416	-5836	12376	-4928	-32538	-23125	-11660	4748	-5048	-4788	-30031	-10633	-13932	-4624	-5668	15343	-14098	-3584	-11196	2980	12072	-603	364	-289	-16928	-512	-992	4833	6975	3253	-15516	716	800	13598	11790	5934	119	129	1
-13140	-2116	12840	-8011	-32768	-25483	-12836	3940	-3252	-4772	-32768	-11769	-13376	-4444	-6888	20602	-12672	-3541	-11036	2736	12572	-636	529	-975	-16516	-808	-660	-489	5563	2133	-16868	-204	1256	12020	12625	6314	119	129	1
-15160	-2388	13012	-11194	-32768	-24198	-12596	4340	-4460	-3675	-32768	-13095	-11844	-84	-8588	25507	-11551	-3667	-11476	2756	12112	-1224	367	-1258	-17056	-708	-1976	-1491	5285	1851	-15924	1652	540	11403	14316	5262	118	132	1
-17112	-4784	13920	-11409	-32768	-21580	-16320	6020	-5212	-4041	-32768	-14279	-10336	3188	-8940	19892	-10100	-3221	-11520	2696	12312	-1029	349	-1612	-16588	-2712	-2280	3192	6674	1961	-16028	1360	-956	7114	15991	5417	125	132	1
-17352	-6044	15408	-9443	-32768	-21422	-20324	8292	-4912	-2651	-32768	-15163	-9464	3332	-7212	9232	-6488	-2571	-11332	2304	12328	-553	391	-1911	-16476	-1508	-2432	5291	7402	2530	-19008	1436	1248	115	15379	4556	124	141	1
-21192	-3256	20548	-10915	-28936	-23119	-23976	14488	-7316	-4228	-32768	-15491	-9376	5556	-4196	1540	-2312	-1222	-11384	2236	12596	-271	672	-2250	-16944	-1500	-2372	3248	7043	2113	-14856	2260	-3156	-1261	15487	1722	124	132	1
-32768	264	24524	-16743	-27127	-25807	-29888	15064	-13232	-8144	-32768	-16284	-11280	5912	612	856	-2598	-56	-11512	1848	12276	-392	1009	-2063	-15612	-688	-1628	1809	7517	1709	-16184	408	-1056	-772	9949	2044	125	130	1
-32768	8744	20176	-18143	-29597	-24931	-27136	13040	-15436	-14176	-32768	-13737	-12920	-788	4072	2095	-4180	-3428	-11560	3588	12392	-643	1435	-2412	-17572	-136	-780	579	8207	1195	-16888	-1112	2412	-2518	7912	5743	124	134	1
-32768	3176	8828	-12180	-28700	-22552	-21604	8700	-20416	-6887	-32768	-11561	-12536	-5680	9064	2793	92	-6830	-11836	2072	12492	-699	2349	-3205	-16568	-2108	-1020	3122	10683	1389	-15472	-4624	4304	3429	9842	7938	122	136	1
-32768	11340	-5524	-884	-30378	-23920	-19228	12004	-21784	1325	-28752	-8059	-17808	5568	17504	8692	-2437	-3383	-11896	3360	13400	-1299	3849	-4554	-18640	-480	-632	3284	12651	1319	-17084	-3924	3064	11159	10300	7114	122	138	1
-32768	19472	-18372	2723	-17684	-24653	-10244	10376	-22156	6546	-17335	-5390	-15688	6928	25220	3605	291	-1631	-10888	1272	14892	-2949	6390	-6440	-18756	-2992	-2132	652	13892	501	-18796	-156	248	9572	7332	5179	115	137	1
-32768	28348	-24600	2379	-2635	-21956	-4440	8352	-22428	11475	-2855	32	-14380	3592	23416	-4755	-3922	1764	-11660	1260	14864	-4563	9753	-6826	-19156	-3004	-3940	-3342	14595	-342	-19492	5104	-1036	5658	5094	3103	121	134	1
-32768	24880	-19096	9764	13821	-7548	-13620	6360	-15136	10413	10802	4309	-14080	-4472	15292	-2741	-6463	3038	-11892	1092	15108	-6413	13077	-7292	-19592	-2628	-4088	-6295	14918	-1185	-19552	6232	-224	4980	3988	609	127	132	1
-20944	-12756	32767	7443	13296	3974	-23792	5644	24040	-2925	13004	7052	-15572	-6456	-736	-386	4210	677	-11304	2864	15536	-7568	16333	-7927	-21480	-2320	-2288	-5800	15906	-1507	-22072	3828	2092	5253	1816	-745	126	130	1
-8964	4628	10120	227	17400	19738	-14224	4432	-1300	14484	7743	-1571	-24292	8	7276	4532	6194	2482	-11576	4404	15064	-8359	20139	-10656	-22632	-2948	196	-4729	17391	-1052	-22088	400	7568	4495	-3301	-1281	115	130	1
-13696	-556	14252	1175	18318	12220	-12004	14772	-988	6995	13384	7393	-11144	2656	5156	17357	7893	2991	-9764	4552	17184	-10021	26714	-15602	-24940	-5908	2360	-2285	19572	-319	-21648	-5804	16880	-2264	-14604	-2915	121	127	1
-13668	-7136	11352	-1052	23873	5622	-23888	10800	-1472	-600	16731	1166	-17140	10780	2756	10251	10655	2356	-9424	7624	17460	-12123	32767	-21847	-27128	-15108	8504	4005	22214	843	-18296	-20464	13652	-3786	-13537	-9833	115	130	1
-22048	-528	14676	-990	15333	9605	-20440	3176	-5740	5184	14218	1716	-18980	-1224	1064	-4895	9525	2307	-16068	5624	16708	-13706	32767	-24857	-27888	-11404	10244	14340	25414	4154	-19524	-18160	8760	13341	-12015	-14526	121	124	1
-14036	-7288	13240	12393	4558	9193	-20720	-4608	-7156	10943	11412	-945	-18668	-11232	-6952	-8974	12417	-2194	-32768	-2180	7212	-7909	32767	-28273	-24996	3872	-9520	14036	27511	5486	-19632	-2912	4836	20111	-11722	-12274	126	130	1
-13636	-9088	11856	5271	1335	4839	-14884	8532	-5040	14143	6635	1148	-14860	-6532	-8452	3167	14065	-5552	-32768	4448	4732	-4494	32767	-32768	-29348	7452	-11584	3954	26486	4402	-26564	1996	-8896	32767	-5996	-7706	131	127	1
-13008	-2240	13248	3175	112	3776	-16176	8320	-5648	4126	7211	-168	-16964	-532	-6300	4341	13177	-2262	-32768	8704	18912	-1522	30576	-32768	-21792	4672	-8072	-4867	17827	6835	-30128	528	-14580	28461	-14649	2795	130	130	1
-11608	-3104	12096	1097	-26	762	-18392	5812	-2844	-2407	7828	-568	-17400	-188	-3492	-1033	11833	-1175	-25312	656	20140	1604	11554	-21857	-16836	2340	-12516	-129	13714	6495	-26440	496	-9252	14272	-27161	5053	132	128	1
-10392	-4544	11896	880	-37	421	-16884	1896	-896	-1064	6577	-526	-16436	-3364	-216	-2503	11511	-1009	-13072	13836	19516	15015	-15968	-1531	-12080	-4476	108	9242	8098	4636	-24416	-4	-3468	10402	-27819	2183	133	129	1
-10016	-4716	11416	897	-380	494	-16092	1284	-240	3697	4157	122	-15288	-4624	1160	-19	11851	-753	2168	15832	14504	14395	-16794	6310	-8908	-4684	3348	10678	-679	5019	-21764	192	-5896	11119	-21936	3098	130	130	1
-9364	-4820	11552	949	-603	908	-16072	3616	112	4430	3474	166	-15504	-4408	2160	4036	11258	-479	-920	12504	11656	10318	-15028	11284	-7544	640	880	7902	-8908	5272	-18168	1040	-6428	7844	-19252	3524	129	124	1
-9420	-4680	11464	1143	-510	1273	-15196	3996	408	1363	4719	-9	-15752	-1280	3280	6146	11401	-1065	-4200	7564	12304	7032	-19206	14693	-7020	736	-972	1674	-16525	3806	-15708	4052	-7996	1747	-19102	3543	130	121	1
-9284	-4484	11484	1376	-407	1495	-15368	3504	848	-873	6030	91	-15252	1708	4468	2491	12644	-1999	-5016	3452	12884	9676	-21974	18139	-8012	-1336	-1940	-195	-23668	2157	-15524	4228	-7960	-3656	-18748	3359	128	121	1
-9524	-5148	11292	1868	-658	2003	-15888	1072	560	-2010	7792	410	-14484	1624	7128	-2263	14876	-3999	-5248	3184	13020	10304	-22173	18472	-9572	-1792	-3788	21	-30216	1048	-14148	4268	-7860	-8501	-18348	2487	130	121	1
-9880	-4640	11588	2326	-974	2304	-15312	1060	256	824	8731	1043	-15916	20	5552	-1658	14521	-3543	-12904	736	14616	15460	-31355	23396	-10892	-2196	-5444	1857	-32768	351	-12272	4344	-8508	-12739	-16715	1565	130	121	1
-9592	-3624	12068	2096	-1185	2398	-15976	4580	-788	1692	9101	1418	-16136	-1580	-140	-3917	15440	-1573	-13056	484	14656	18582	-32768	25644	-12988	-2768	-4472	2294	-32768	-830	-10916	3444	-9128	-18575	-14818	386	128	127	1
-10052	-3480	12460	1648	-489	1782	-16980	3864	-1852	373	9395	1543	-16872	-3376	-2812	-2698	13213	-1467	-14764	696	14792	20943	-32768	26713	-15400	-3612	-5104	-223	-32768	-1384	-10000	2744	-10480	-22172	-12564	-265	123	123	1
-9988	-3648	12036	1448	-217	1544	-16184	3692	-2164	-731	8896	2253	-15320	-3252	-1212	99	12972	-2705	-17664	-276	15824	22375	-32178	27908	-19388	-4844	-8672	-2332	-32768	-1938	-9128	1484	-11088	-21376	-9598	-613	125	117	1
-9796	-3912	12412	1188	144	1838	-16328	3332	-1424	-678	8543	2400	-15280	-1408	412	591	13886	-2854	-23616	-884	19064	20580	-26171	27686	-22132	-6604	-10580	3479	-32768	-4368	-8684	-1952	-6312	-17491	-10302	-1676	132	117	1
-10148	-3368	12200	889	23	2225	-15728	3548	-2248	837	8171	2661	-16240	-1168	-676	-522	13402	-2190	-32768	-3476	24676	19929	-25339	27759	-29688	-6604	-16376	7344	-32768	-2867	-11664	-7832	-1604	-14408	-11878	-3429	130	119	1
-10060	-3756	12636	702	536	2572	-16368	3620	-2148	731	8770	2765	-17612	-2304	-1412	-84	10987	-1897	-32768	-13204	19736	20102	-29698	32767	-25860	-4276	-17916	12540	-32768	-3770	-10556	-4960	7240	-2450	-8508	356	125	122	1
-10020	-5044	13080	692	1773	3015	-17856	2472	-1176	1131	9650	3277	-18776	-1756	1464	-728	8897	-2676	-32768	-14040	10556	14020	-32457	31480	-24100	2360	-17964	8763	-32768	-4210	-11928	-1916	10104	9661	-623	7023	126	126	1
-10260	-4324	12708	1300	3279	4780	-16696	2896	-844	1220	11146	3582	-18056	752	5236	-4754	7715	-3039	-32768	-19584	-3008	6033	-29172	25862	-20992	-2736	-18544	-947	-31363	-3774	-13112	-7536	13776	-2389	1760	7017	126	124	1
-10424	-4404	14060	2253	5841	5975	-18000	4084	-1312	2257	12728	4336	-18552	2448	4024	-7746	6703	-3205	-32564	-23820	-16980	1127	-17513	20018	-12000	-100	-21320	-3770	-18690	861	-15652	-12188	21704	-7883	-2434	3843	126	121	1
-10784	-3376	14644	3139	9567	7356	-18504	6492	-1432	2758	14182	4914	-19380	504	2156	-10847	4207	-1946	-29868	-32768	-20220	2084	-1400	12976	-8308	440	-20772	-6694	-5034	1858	-14412	-16316	23340	-5602	-2397	2493	127	117	1
-10844	-3888	15304	3921	12809	8340	-18408	4616	-1448	5197	15765	5301	-18676	-4464	3256	-10651	2327	-828	-32152	-28348	-12408	-6281	5202	3816	-6536	2520	-21464	-13270	7994	1448	-13216	-3868	16028	2282	-2513	871	130	129	1
-10396	-4972	15084	5300	16408	10475	-20196	4916	-3176	6910	16161	5802	-19208	-4332	1748	-8262	1950	-172	-24728	-22468	14136	-8558	5367	-13017	-19752	-7576	-6424	-14990	14865	-1179	-12288	-2128	14232	2417	-1010	743	127	122	1
-9352	-3136	16404	5904	20516	13395	-20992	7692	-3320	3595	17267	5300	-21152	-3088	3100	-9254	-206	2010	9036	32767	32767	2212	9105	-23214	-30092	-22540	17560	-7527	3367	3961	-16184	-6812	-8264	996	24517	-263	130	113	1
-9860	-3364	16532	6629	26548	19047	-24504	6976	-20	1500	18910	5517	-23600	-2268	9168	-9404	-7216	2394	-8944	-23500	408	-1433	20291	-10156	-9116	-14760	-9616	-208	14682	-948	-26984	-18736	2100	-731	-1199	-9438	115	132	1
-6160	-1588	17856	8259	32767	23288	-26060	11164	4788	-3453	19984	6483	-17368	1024	15096	-6711	-20480	1079	-23604	8172	16824	1179	24452	-3106	-29252	-4104	-4816	2768	17109	3849	-23532	-10832	10476	-4993	5943	-3858	120	124	1
-6288	-3372	18068	8708	32767	22834	-23780	8788	8704	-7246	21407	6105	-22080	9180	4076	-12243	-7260	5603	-27660	5820	15772	3044	18919	-2092	-22224	1584	-4740	3923	19175	3692	-16612	-5236	-1732	14957	15354	898	127	123	1
-17924	-5416	12348	14431	32767	20897	-24404	7900	5340	-12902	21918	4022	-21176	4760	4716	-20576	-10052	8762	-21544	15404	3548	-7042	8172	-2445	-20408	10072	-6320	1153	15669	5836	-16544	12412	-10280	17047	13283	5062	129	111	1
-32768	-3372	4516	8273	32767	29185	-20928	-3536	-12204	-11752	26799	3853	-20876	-3484	-6788	-32768	-15159	9511	-15256	2768	10424	-5563	5273	-5344	-17300	1812	-6056	-4291	10106	3546	-16896	12596	-8276	3137	9446	6104	127	136	1
-32768	-9096	12744	7393	32767	28340	-25620	1576	-15388	669	23247	6090	-25220	-8556	-9636	-24444	-18181	1928	-11864	3796	10936	-6550	3493	-5090	-17832	-1080	-3440	-3099	8008	2599	-15932	6872	-5296	-7083	10418	4132	123	128	1
-28708	-7988	14780	-1731	28600	21913	-18548	4340	-11224	-193	18350	5530	-24144	-8596	-11040	-5267	-18021	-3886	-13412	2796	12596	-4748	2277	-4686	-17044	-2748	-2616	3134	8325	2501	-17772	2084	-2732	-6246	10221	3104	131	130	1
-29720	-2016	15228	-6104	10044	11073	-11896	1272	-9140	-4534	12566	2797	-23824	-4024	-5840	7185	-20891	-4007	-13204	3476	12072	-2517	1115	-3794	-17580	612	-3560	3222	7135	1686	-16728	1720	-2916	-2628	9681	2648	130	127	1
-15500	-15588	17048	-12135	-16074	-5290	-9276	-1424	-2564	-10616	7953	1786	-20976	-316	-4428	6834	-19791	-3611	-12364	2792	12308	-962	371	-2350	-17704	-2868	-2704	-302	5328	582	-16364	-1872	-976	-5947	9351	2603	116	128	1
-2384	-15360	11516	-8631	-22473	-9254	-10936	-1992	2676	-8312	-1152	-3187	-19016	-2536	-5132	3222	-18255	-6225	-12444	2092	12360	39	201	-892	-16816	-3292	-2080	-164	4999	476	-15764	-588	-216	-4739	10264	3085	124	124	1
-640	-12200	9348	-2486	-21709	-12164	-7604	-3100	1196	-330	-9465	-5722	-16784	-4396	-5956	5346	-17084	-7050	-10992	4800	11200	157	473	-689	-16908	-1288	216	-299	4587	459	-16392	-72	-788	-3899	9948	3517	126	125	1
-7592	-8840	9592	-1364	-26173	-15461	-6112	-2248	-3284	6195	-16517	-6782	-14868	-2132	-6696	8481	-15651	-7144	-10664	5796	10904	-424	684	-2113	-16504	-984	-324	800	3637	636	-14532	2016	-1680	-2122	12703	4448	131	131	1
-7604	-6096	9864	-3332	-32768	-20648	-7880	1884	-3260	6708	-23851	-7762	-14620	-1460	-6632	11823	-14666	-6881	-11920	3520	10856	-51	-23	-3023	-16844	-1828	-1580	1369	3195	389	-14928	492	-620	-729	12856	5079	123	129	1
-5820	-4068	10704	-6687	-32768	-24010	-11252	4908	-3196	1458	-30352	-9276	-15188	-2560	-6124	14260	-14116	-5788	-11904	2532	12132	199	174	-2155	-15892	-3864	-2156	1110	3141	467	-13756	-2460	-772	1996	13189	5531	127	128	1
-11040	-3220	11848	-11520	-32768	-25210	-12332	3096	-4208	-1583	-32768	-10754	-14244	-2492	-7192	16954	-12681	-5353	-11656	2524	11960	373	485	-461	-16540	-4088	-144	2118	4436	592	-16192	-4856	2336	7454	11887	5158	118	128	1
-16420	-2652	11756	-15192	-32768	-25269	-11468	4740	-4940	-2667	-32768	-12465	-12268	500	-8200	19731	-11331	-5076	-10456	5092	11280	180	1147	-310	-16532	-2528	2572	2910	5688	1224	-18040	-2588	3392	5011	12842	3969	118	132	1
-14308	-2900	11552	-16938	-32768	-23243	-14528	6880	-3668	-8863	-32768	-14781	-10224	2336	-9176	17739	-10633	-4379	-11372	5432	10808	-1251	1762	-2195	-16880	-176	844	1355	5953	1390	-16424	1232	1836	1285	15337	5916	124	133	1
-16728	-5652	13460	-16385	-32768	-22293	-17456	6660	-5896	-10088	-32768	-17240	-8972	3664	-9048	10521	-7395	-3647	-11976	4100	11112	-1907	1488	-3143	-16344	-1332	-716	638	6854	1159	-14240	720	204	-1258	15900	6874	127	133	1
-21696	-6332	18520	-14796	-29076	-24098	-22828	8740	-6820	-7667	-32768	-18554	-8900	5192	-6640	3773	-3971	-3218	-12328	2936	11372	-1679	1295	-2983	-15052	-3248	-328	2342	8644	1344	-15220	-2444	472	-1996	14937	6028	129	132	1
-30204	-4836	23748	-15832	-26580	-26614	-28832	10512	-10496	-7451	-32768	-19806	-9444	5436	-2432	-1139	-3687	-3294	-11696	3880	11256	-1745	338	-2949	-15776	-680	1900	1862	10430	1588	-18236	-2340	2756	-1712	13427	4679	126	131	1
-32768	2668	22940	-17070	-27369	-27341	-29932	11960	-14076	-7947	-32768	-18624	-12072	740	2308	797	-4365	-5496	-11084	6096	12344	-2312	856	-4800	-18728	548	940	-3414	10185	634	-19192	444	1168	-4753	11496	4857	123	129	1
-32768	7248	15344	-17036	-26440	-27651	-26492	9636	-16604	-8026	-32768	-14409	-13480	-7852	8148	-5539	-4744	-10755	-12596	3112	11636	-2106	1308	-5841	-16648	-2240	-1296	-3394	11902	577	-18264	676	732	-4499	9553	5315	122	133	1
-32768	7956	1304	-6094	-25754	-23636	-18844	10496	-21204	-2063	-32734	-11540	-17888	-2676	18352	4933	-4748	-16092	-13276	1016	12160	-2171	2346	-5028	-16352	-2232	-1672	-2909	12324	617	-16116	-2060	2892	-196	8893	4612	126	132	1
-32768	18368	-17984	-5084	-19926	-20949	-11120	12680	-22640	-1771	-20671	-12344	-15756	5196	32767	4697	1963	-8737	-10908	1728	13700	-2646	4094	-3529	-16112	-3820	-700	215	17581	-43	-16076	-4516	3568	5086	6432	2296	121	133	1
-32768	32767	-29404	-17325	-2674	-19890	408	6412	-19308	-929	2411	-5577	-14548	5952	32192	-1683	-6040	2773	-11768	3340	14236	-3453	7287	-3949	-19580	-1628	-2916	-4917	18058	-1042	-18292	-624	-356	4233	4711	410	126	131	1
-30008	11052	-17232	1754	12841	-10860	-9280	4004	-17072	13955	12633	2020	-13308	-1828	16260	-3555	-5698	1276	-12492	2736	14376	-4235	12088	-5087	-20640	-4704	-4812	-6117	18662	-2267	-20044	2656	-2200	4386	3317	47	118	129	1
-3940	15780	31812	28249	15179	6062	-23184	3908	15644	7857	13808	4922	-12332	-7164	-2544	-5668	6215	-68	-11444	5080	15704	-3500	17677	-6342	-22788	-5212	-2596	-2450	20013	-1660	-22796	1240	1124	6361	344	-563	128	127	1
-2064	9764	18572	13265	21670	13155	-19744	10108	7368	24893	4824	466	-17516	-4844	-888	-1253	7808	-1412	-10060	5788	16656	-4549	24477	-10053	-24508	-5428	-324	-2988	20204	-1713	-22504	-2612	7836	2514	-6961	-2472	131	127	1
-16564	19528	15136	6978	27252	7177	-10460	21172	-1664	20453	10689	7634	-22424	-888	8268	18233	-2954	987	-11468	6948	21976	-7500	32767	-13083	-26852	-6712	5368	-2205	22831	-3422	-19980	-7856	14428	-6093	-15282	-5091	123	134	1
-29176	5484	20708	1662	20788	15736	-28992	15076	-7524	6052	18118	3895	-17632	16240	14248	26072	5125	3498	-10612	11124	16536	-10139	32767	-23376	-30036	-9220	12388	165	25359	-3116	-20032	-9324	14536	489	-12331	-8050	121	134	1
-32768	-32768	13696	10086	12459	2866	-29924	-2700	-11356	2192	21042	652	-23828	6060	-300	6437	11404	3924	-18788	16372	16048	-16149	32767	-32768	-32768	-2040	10632	1777	26516	-2330	-22812	-3780	12988	5784	-16792	-12873	127	136	1
-8880	7456	15764	5884	-123	8773	-12940	1568	-6980	18926	11064	394	-15284	-14096	-15984	-16531	19469	-2649	-32768	564	8736	-16562	32767	-32768	-29132	6428	-10516	-8027	26474	-1686	-21196	5244	2000	15371	-12749	-11064	125	138	1
-12232	1924	15060	5249	-1131	5594	-13816	3712	-6552	11936	8678	-572	-11428	-4744	-7244	-1192	12582	-5528	-32768	8204	11964	-13604	32767	-32768	-28024	880	-9572	-15317	21338	-2603	-28036	3400	-11104	25308	-9282	-4423	133	139	1
-10844	-3476	12544	1687	101	1872	-17944	6868	-4600	2232	8794	1296	-18452	-528	-6808	-3872	7222	-779	-31584	18808	20960	-6723	25035	-32768	-20092	2228	-7368	-16245	15318	-199	-32768	-2652	-11940	15042	-21613	2949	140	136	1
-10576	-3108	12532	1554	302	539	-17304	6656	-3732	-4665	9209	63	-17440	-1224	-3552	-7399	9495	-3324	-32768	2768	9428	-21697	10666	-25799	-14344	-1060	-7112	-13791	8305	1083	-27840	-2940	-8280	7001	-30141	2710	129	134	1
-10296	-3272	12236	403	535	-274	-16796	4112	-2644	-6248	7982	-751	-15824	-7912	-2028	-3052	15322	130	-19168	8988	19836	-6162	-23547	6657	-4940	-2076	-2060	-1085	3539	-1339	-23124	-636	-3252	8963	-28131	1325	133	134	1
-9988	-4260	11620	59	559	-537	-17036	864	-1028	-2360	5677	-652	-15416	-5676	-636	2745	14415	2525	812	13852	15416	-538	-26751	17196	-9792	-892	3092	5255	-5144	-764	-22024	1052	-6056	9828	-21336	2705	129	124	1
-10420	-4404	11556	155	256	-533	-16960	544	-720	4417	3149	-286	-15976	-3860	1424	6402	13970	524	28	9012	12596	1067	-26830	16137	-6032	2200	964	3099	-13800	-736	-17772	3768	-8400	6240	-18897	3161	125	120	1
-9852	-4344	11776	146	83	-537	-16368	3020	-44	7418	2049	-44	-16076	-980	2936	6916	14363	-1377	-3356	5300	11216	3872	-28728	15200	-6984	1968	-1280	-10	-21407	-2038	-16580	4224	-9164	-804	-18479	2997	127	117	1
-9436	-4204	11628	14	267	-410	-15008	3572	200	3649	3624	-87	-15172	1540	4964	2229	13290	-1786	-6844	2952	10560	9352	-32050	15266	-6800	376	-2920	343	-27539	-3567	-15996	3856	-9088	-2176	-18452	2922	130	116	1
-9560	-4528	11376	6	391	-107	-15148	1992	296	-2799	6257	-270	-14440	312	5732	-3857	13149	-1779	-10632	2204	10764	13922	-32768	17061	-8904	-968	-4316	3216	-32768	-4317	-12120	3288	-9644	-8981	-16579	1578	132	120	1
-9380	-4688	11168	202	355	698	-15488	984	732	-5647	8043	229	-14572	-1560	6856	-5136	15266	-2742	-14232	1468	10804	17828	-32768	20326	-9912	-2776	-4736	7040	-32768	-4743	-10276	3604	-10216	-13288	-15011	328	128	127	1
-9368	-4732	11236	210	306	810	-16072	844	668	-3868	8980	729	-15672	-3156	6760	-2639	17385	-3725	-10904	996	10356	20456	-32768	24228	-13744	-3520	-3416	5652	-32768	-5485	-8376	4392	-9632	-18430	-14526	-881	129	124	1
-9540	-4164	11332	898	99	1810	-15816	1052	620	-3	10022	714	-16592	-4568	3392	-2679	15428	-3567	-13692	516	12500	22524	-32768	26834	-17072	-2860	-8160	509	-32768	-5564	-7720	3732	-9248	-22741	-13438	-2154	130	126	1
-9836	-3784	12124	1117	-197	2142	-15580	2768	-1600	3364	10072	1328	-18092	-2460	-4196	-2884	11056	-1407	-15728	304	12432	22552	-32432	26840	-18044	-3720	-10152	6648	-32768	-6373	-8008	-480	-5940	-20939	-13533	-3777	125	124	1
-10352	-3316	12156	721	144	1358	-15836	5244	-3256	351	11044	1232	-14036	-644	-712	-713	11011	-2100	-32768	1644	19484	19029	-26077	24684	-26488	-1644	-14536	6475	-32768	-5839	-9020	-5612	-2604	-14313	-12862	-4957	123	120	1
-10216	-4116	12076	585	531	1211	-16608	2080	-2520	-2184	11150	1127	-14356	-2748	-808	-2637	13989	-2569	-32768	-2620	16912	16700	-30179	27954	-24848	-4676	-17716	10652	-32768	-6389	-9996	-5832	-404	-13457	-13696	-5060	129	121	1
-10096	-4160	12184	698	965	2086	-16552	1084	-1032	-166	10651	1699	-16528	-4020	1136	-2127	11651	-2823	-32768	-8060	13484	16351	-29998	31471	-24196	740	-14996	16529	-32768	-6099	-9256	-2764	5920	2005	-2858	1657	132	125	1
-10192	-3624	12844	585	1544	2742	-16604	1864	-2344	2900	10799	2414	-17300	-2956	2372	1211	9688	-4079	-32768	-6048	5676	12143	-30845	28822	-24228	940	-15388	11706	-32768	-4688	-12696	-2276	8968	11855	2554	4553	134	130	1
-10928	-3284	13024	396	2931	2634	-16632	2204	-2628	3236	10922	2520	-16768	-2956	2156	-2308	9037	-3478	-32768	-13628	-3888	8572	-24876	21930	-24120	664	-15516	10852	-32768	-4245	-15736	-4720	10612	1671	1872	5296	127	123	1
-11848	-4504	13648	801	5320	3626	-17892	3204	-2536	579	14396	3536	-18520	-2488	2336	-6711	6885	-2273	-32768	-18480	-14560	7498	-13176	15025	-15128	1964	-19660	3992	-17247	875	-16924	-4480	18880	-3019	-1756	6120	130	125	1
-10612	-4360	15644	1540	10224	4906	-21204	3860	-1956	1635	15142	3833	-21636	-2392	3564	-8685	4719	-1955	-32768	-23632	-17456	5260	-713	8307	-9892	3316	-20484	1767	-5126	3374	-14544	-8620	21496	-1142	-2371	3572	129	118	1
-10584	-4052	16228	2531	14277	6393	-20616	5160	-1884	4404	16547	4581	-20108	-3048	3224	-8474	3446	-1372	-32224	-23172	-14424	1223	6192	2347	-10168	3428	-20256	-2918	7299	3921	-14640	-4396	17096	432	-3771	2196	127	120	1
-10464	-4836	16000	3090	19538	8429	-20420	5408	-3116	6252	17260	4669	-19476	-3572	2232	-7968	2375	-128	-10960	-1516	-1452	-21167	10852	-11943	-18440	-5132	-9192	-13343	12376	3027	-15988	1068	12076	-1675	-1898	3799	127	125	1
-8108	-4376	16496	3928	23733	10033	-21712	5760	-2936	5225	18015	4535	-20704	-3732	3608	-7881	462	1145	-1312	24736	32767	-11995	14645	-13437	-27172	-16416	18112	-20867	1390	2699	-11816	3856	-100	-20470	21122	7183	126	123	1
-8492	-4576	16128	4312	30616	13776	-24036	6024	-504	4533	19353	4891	-22484	-2632	8424	-8697	-5438	2217	-11064	-21944	3940	-14384	17422	-10203	-8232	-14748	-11364	-28369	6797	513	-20284	-3216	5408	-14802	14619	1610	127	128	1
-5532	-3532	16088	5665	32767	16782	-24428	10644	1304	-50	20616	4563	-21292	1520	20008	-8691	-21280	4047	-21288	-9560	22284	-2840	23491	-8691	-24232	-15416	-2712	-14101	11463	1933	-19396	-14744	3044	-23517	7132	-3417	124	119	1
-8268	-8880	15224	5457	32767	14428	-28340	16488	12960	-14765	24544	3836	-21636	13884	12096	-14665	-11394	7849	-24252	17372	18968	-4526	12886	-7157	-22600	3072	1348	-5733	13944	5504	-16992	-9112	4388	-5455	9894	-82	122	123	1
-32488	-9048	10812	2565	32767	19169	-23212	2260	-4168	-20184	29920	1078	-20760	7848	10720	-20200	-16992	9205	-10744	-408	15280	-13620	4054	-13770	-19284	8220	-2460	-16924	10711	7704	-18028	17924	-3768	11091	13699	6383	126	119	1
-32768	-1808	4864	1091	32767	24975	-30528	-3236	-10812	-8795	29221	4714	-24272	-5160	-11644	-32768	-15589	8524	-16728	5464	11196	-9866	-413	-8624	-16396	1068	-6020	-16115	8871	3528	-15888	9840	-7320	-8905	7850	9862	131	149	1
-32768	-8896	19544	-4038	32767	22083	-22184	4992	-8040	-2355	24271	6205	-27480	-9736	-16656	-27261	-17452	-37	-14056	-1488	13824	-6174	-761	-4851	-17140	-7224	-6712	-8276	9295	2721	-17960	-5832	-4300	-8414	7947	8581	123	141	1
-18880	-15824	21452	-11511	29175	15055	-18940	2392	-10344	-1273	18678	4862	-26212	-8376	-10780	2811	-23864	-3682	-12468	-236	13684	-2546	-94	-2321	-17160	-7732	-6648	-6262	9549	2895	-15824	-1852	-2108	3745	7846	6210	129	135	1
-32316	-17584	26440	-12857	-4520	10475	-11660	892	-9420	-7076	10710	1079	-24896	-1692	-3760	7183	-24231	-2190	-11264	2784	12516	-1086	-91	-1695	-16884	-1744	-2768	11554	11633	4325	-16060	2976	-1660	6408	9302	5690	129	137	1
-5792	-14756	19556	-15270	-27583	-795	-8712	-452	964	-16319	4277	-1269	-22852	-1168	-4436	1504	-21614	-4160	-11380	2664	12264	-1245	-109	-1419	-17972	1388	-2544	7272	9424	3222	-17120	4508	-672	1899	9701	3686	128	131	1
2688	-13104	11216	-12864	-30568	-1781	-9140	-2264	2020	-14605	-4399	-7262	-20036	-3792	-6052	-1333	-19486	-6227	-11292	2928	12036	-1895	-359	-1242	-17744	1200	-2168	-2901	5896	1230	-15856	4324	-984	-5318	11077	3262	119	129	1
-340	-11360	8060	-7582	-27912	-3027	-6884	-2260	448	-6812	-13802	-9168	-16572	-3468	-7448	2659	-18156	-6033	-11156	2272	12096	-2397	-739	-1226	-16292	-3116	-2124	-5763	4834	943	-16056	-328	-1356	-9972	9877	3218	125	128	1
-5024	-7984	8052	-5878	-30529	-8068	-5628	256	-2884	1184	-22273	-9647	-13992	-1864	-7824	6594	-15433	-6066	-10832	2044	12576	-1963	-306	-443	-15464	-5828	-1516	-1151	5669	2042	-15356	-4964	-516	-8371	9322	3895	131	131	1
-5276	-4280	9604	-7706	-32768	-15842	-7724	5524	-3128	289	-29109	-9933	-13916	-1964	-7760	9750	-13902	-5586	-11184	2684	12172	-1708	81	-479	-15152	-3244	-1528	3547	6927	2880	-15312	-3904	412	671	10483	4675	123	130	1
-8524	-2392	12152	-11817	-32768	-22783	-9444	7576	-4288	-6754	-32768	-11153	-12312	-3192	-7488	12045	-13022	-4009	-10308	2436	11984	-927	35	-872	-16168	-3032	-712	6682	7870	3537	-15160	-1016	632	5662	11569	5120	116	127	1
-13308	-2444	12528	-14586	-32768	-26092	-11772	4920	-2836	-9156	-32768	-13401	-11536	-2300	-8392	16334	-11925	-3095	-11244	2004	12436	-1087	-116	-1250	-17000	-180	-1552	3881	7539	3618	-16080	592	804	6938	13058	5762	113	129	1
-15572	-3592	14064	-12645	-32768	-24981	-13328	4992	-3784	-4451	-32768	-14971	-10052	908	-9304	21748	-11053	-2269	-11284	1488	12532	-1227	67	-1315	-16856	-1152	-1956	-2825	5808	2358	-16932	-288	560	5953	14773	5978	124	139	1
-18560	-3728	15608	-9530	-32768	-24303	-17700	7892	-5564	-89	-32768	-15114	-8700	2752	-9856	19132	-9807	-1934	-10716	2608	12500	-1025	349	-1558	-16508	-2980	-1852	-1568	5935	2491	-15220	160	208	3177	15954	4683	126	134	1
-21264	-2772	18912	-9488	-32768	-26271	-20716	10928	-7024	-2240	-32768	-15009	-7848	2712	-7916	12663	-6444	-1241	-10824	2592	12532	-408	582	-2080	-16872	-1528	-2016	3029	7093	2860	-15924	1404	-1288	4604	15635	4905	126	131	1
-27104	-1984	23872	-12923	-32343	-30226	-26084	13180	-9816	-4899	-32768	-14966	-9728	4836	-2244	7329	-4617	181	-11200	2148	12600	-496	878	-2521	-17412	-860	-2652	3405	7246	2461	-17780	2336	-1212	2262	15131	7149	126	132	1
-32768	-200	25008	-14789	-32768	-32768	-30164	13964	-14604	-5024	-32768	-14074	-11248	4252	1716	8377	-3216	-719	-11516	1172	12860	-783	1558	-2209	-16776	-1792	-1488	1561	7642	1927	-16740	-96	2492	-2882	11883	7240	123	133	1
-32768	5976	16184	-15106	-32768	-32768	-26936	12992	-17884	-9615	-32768	-9045	-13396	-3136	5068	2686	-2902	-3871	-11404	2648	12504	-1043	1885	-2549	-15832	-264	1408	601	9725	1491	-16876	-2592	7288	-779	9468	6081	119	136	1
-32768	-1904	-2664	-3803	-32004	-29478	-23328	6208	-21204	-5430	-32768	-9103	-15228	-3148	12612	3707	741	-8561	-11660	3524	12876	-1615	2444	-4690	-17668	216	960	369	12106	1147	-17896	-3176	7252	5673	10051	6474	119	136	1
-32768	13144	-15528	-1505	-26888	-21840	-15460	7236	-24892	-2059	-25011	-9450	-16788	6656	22508	6642	-619	-4790	-12200	3368	14100	-2758	4890	-6469	-19244	-2184	-8	1112	14749	932	-19116	-3188	6696	10925	10196	6625	123	134	1
-32768	26760	-26320	-13592	-9731	-17499	-6628	9348	-25108	257	-9581	-6382	-15856	9184	30180	-1963	-1074	1075	-11824	2976	14252	-2878	5168	-6828	-19388	-4132	-1220	714	17628	281	-19004	-896	4220	9869	8418	4313	122	132	1
-32768	17656	-25408	-8078	7387	-13343	-3920	2784	-23220	2375	8784	195	-15084	292	23508	-11515	-9165	2406	-11060	1704	16368	-6655	11804	-9066	-19936	-3332	-2748	-4383	18816	-287	-19860	-32	2020	7717	3483	1103	118	129	1
6884	2704	-12100	20120	15467	11975	-18528	148	-9304	6365	17389	2211	-14660	-8816	10284	-7940	-4788	170	-11352	1408	17472	-9463	16060	-10010	-22736	-4660	-2956	-6909	19631	-887	-21752	2720	4320	4911	-1030	-336	118	128	1
1664	-12800	32767	12497	23007	19096	-32768	-552	21676	16428	6361	-1734	-19592	-3884	6696	-480	8730	-1463	-10708	3860	17928	-10548	22301	-12030	-25816	-4548	-1528	-6432	20486	-436	-24288	2428	9196	2411	-6815	-1136	122	127	1
-17972	10744	12760	11417	22585	13750	92	19900	-5520	26743	9722	5316	-15772	-1352	10592	17917	6117	19	-9632	4960	17776	-11726	29283	-17617	-28776	-7804	5360	-2083	22550	571	-21060	-4248	11804	1032	-10435	-4222	117	128	1
-23404	-2664	19040	1788	23802	7187	-24696	18456	-4548	8339	17198	6653	-13776	7960	1448	23160	11620	1955	-5828	8132	21060	-16397	32767	-27708	-30444	-13824	10888	3418	24934	2361	-18844	-15504	11088	5153	-11016	-10598	118	125	1
-25384	-3152	14424	474	12866	13050	-23148	5144	-8512	3483	18649	341	-20820	10152	2872	5685	10289	2179	-13508	6128	21132	-21399	32767	-30182	-32236	-13512	11356	11063	27045	2312	-21836	-14692	10384	3741	-19117	-14416	114	128	1
-32768	-27384	10424	8435	8067	6785	-20812	-3468	-11880	4770	16846	-837	-18536	-6192	-5036	-6401	9998	-1419	-32768	-5096	6680	-11576	32767	-30250	-25460	4372	-13260	10907	29740	3627	-18612	-3348	-564	24263	-12890	-13266	127	130	1
-13124	408	13792	6990	744	8946	-14356	1112	-6472	18538	7285	-1017	-13256	-14548	-7404	-2408	12450	-5696	-32768	7584	13552	-7633	32767	-30761	-28796	3112	-9504	247	23615	3268	-28128	-296	-8744	32767	-11673	-8501	150	133	1
-11964	-1072	14004	6689	-442	7017	-16472	5704	-6420	12593	6437	-1198	-19088	-2824	-6264	6080	9738	-4237	-26804	15540	22208	-1782	32673	-30830	-18920	2744	-6200	-1879	15813	4877	-32768	-4016	-14676	23553	-18035	2052	129	135	1
-11444	-1860	13336	2425	867	2465	-17832	10220	-5264	2166	7708	-156	-17652	216	-3776	2108	10817	-3967	-32768	-2128	10984	-6753	16276	-16904	-13084	96	-13080	534	8612	5775	-28948	304	-9748	13138	-26668	3637	132	130	1
-10868	-3024	12740	247	673	448	-16668	7120	-3664	-6532	8680	-1117	-17680	-1764	-2768	-2529	13439	-825	-18024	9072	17020	7825	-18906	9059	-6348	-2140	-3804	8664	3465	3015	-23856	-784	-4048	11094	-26501	1575	124	120	1
-10124	-4316	11812	-1112	1000	-534	-17072	3072	-1712	-6867	7468	-896	-15676	-3500	796	-1702	12904	902	-1044	13152	12140	10813	-23691	19930	-7652	-480	720	12636	-4744	4880	-23996	112	-4292	11578	-24803	2112	121	115	1
-9868	-4304	11784	-1590	1319	-1320	-17160	2128	-948	-4155	5774	-473	-15724	-4644	392	366	12763	539	1484	7220	9232	8706	-20026	19822	-5164	2772	-8	5144	-14467	5339	-16352	2556	-9564	8760	-16906	3355	123	117	1
-9688	-4708	11488	-974	1073	-849	-16284	1832	-736	307	3933	-322	-15456	-2072	324	1686	14365	-2050	-3196	2872	9428	8163	-19727	18082	-4200	1384	-2192	-1848	-22241	3578	-13056	3828	-9092	3861	-15369	3374	127	122	1
-9540	-4096	11628	-570	974	-835	-15624	4556	-200	416	3459	-444	-14908	1148	420	1249	15349	-2842	-5712	112	10580	11556	-23208	17458	-5656	-1256	-2912	-1613	-28197	2044	-11672	3792	-8688	-39	-14255	3312	124	121	1
