#Activity	walking 
#ActivityID	1 
#Date 08-22-13-49
acc_rf_x	acc_rf_y	acc_rf_z	gyro_rf_x	gyro_rf_y	gyro_rf_z	acc_rs_x	acc_rs_y	acc_rs_z	gyro_rs_x	gyro_rs_y	gyro_rs_z	acc_rt_x	acc_rt_y	acc_rt_z	gyro_rt_x	gyro_rt_y	gyro_rt_z	acc_lf_x	acc_lf_y	acc_lf_z	gyro_lf_x	gyro_lf_y	gyro_lf_z	acc_ls_x	acc_ls_y	acc_ls_z	gyro_ls_x	gyro_ls_y	gyro_ls_z	acc_lt_x	acc_lt_y	acc_lt_z	gyro_lt_x	gyro_lt_y	gyro_lt_z	EMG_r	EMG_l	act
-11316	-3624	12264	-429	715	-1228	-16592	1120	-5912	-1783	4039	-1639	-15496	-2968	-976	525	2182	407	-3316	9004	5428	2064	-23131	20860	-4544	-200	-8128	-449	-2421	1088	-17448	16	-8248	1371	-2255	1113	118	131	1
-11052	-4680	11928	-825	1168	-1202	-15260	816	-4464	-10259	4241	-1358	-16696	-912	440	706	1967	694	-4196	10860	5328	5732	-24864	30226	-5584	-224	-6688	-864	-3026	1462	-16016	2008	-8616	817	-2167	919	124	131	1
-11040	-4688	11800	-1004	1036	-822	-16020	-388	-3180	-16951	4409	-1530	-15904	-896	1736	497	2021	307	-5912	11232	5984	4345	-25055	32767	-5008	696	-5360	-1112	-3488	1797	-12256	840	-8600	300	-1977	924	142	130	1
-11060	-4604	11576	-1013	949	-163	-15952	-2764	-2108	-12382	4273	-1612	-15056	-2360	1912	349	2073	99	-8448	10108	6996	2934	-26056	32767	-6384	2336	-5152	-1727	-3712	2038	-9312	432	-8136	-41	-1478	820	138	132	1
-11000	-4256	11868	-969	1083	-98	-15712	-2508	-1740	-1937	4090	-1375	-14528	-2144	904	290	2218	158	-11608	9140	9184	4774	-26894	32767	-8248	2728	-6240	-2523	-3971	2129	-7240	-304	-8816	-417	-1281	754	144	127	1
-10904	-4336	11660	-601	1214	-191	-15388	176	-2888	2642	4205	-504	-15144	-1496	2744	84	2260	201	-14300	11080	10784	7182	-27836	32767	-10360	2648	-7352	-3244	-4181	2179	-6896	-600	-9568	-1114	-1053	719	137	128	1
-11048	-4376	11360	-530	1072	132	-15384	1104	-2860	-4093	4838	-444	-11904	848	5736	-310	2039	23	-15896	12732	12328	8187	-27833	32767	-13032	1696	-7552	-3558	-4519	2196	-5792	-1392	-10224	-1832	-883	610	126	126	1
-11076	-4924	11496	-325	1064	716	-15944	-732	-2628	-8342	5727	-1367	-15344	4024	9088	-307	2485	-187	-18028	14368	14504	8805	-25811	32767	-16352	2032	-7840	-3515	-4887	2184	-4936	-3120	-9832	-2163	-608	431	126	129	1
-11088	-4020	11612	-17	1130	1154	-15996	-920	-2672	-5413	6102	-959	-15040	-2048	6752	-370	3832	2	-21984	16340	17056	9652	-22266	32767	-19320	2616	-8000	-3214	-5263	2223	-4432	-5064	-9984	-2176	-358	182	121	130	1
-11032	-3880	11964	-192	1494	897	-16060	592	-2484	-3397	6732	-752	-18888	-5384	-3320	-1202	3469	337	-30560	19988	19920	10306	-20653	32767	-23160	5520	-10288	-2905	-5492	2303	-3776	-5400	-7904	-2214	-166	-110	108	129	1
-10924	-4520	12152	-503	2210	1195	-16400	488	-2360	-5323	8062	-1108	-20056	-1264	-5064	664	1877	27	-32768	28316	20336	7748	-24192	32767	-28296	10600	-14880	-3468	-5476	2488	-6496	-2488	-264	-2392	-993	-83	145	128	1
-10924	-5160	12016	-681	2967	1812	-15780	-704	-1612	-5462	9174	-1274	-15344	-3440	6016	1140	1768	-162	-32768	9872	21432	6484	-25758	32767	-27912	5096	-14496	-3598	-5305	2494	-11424	4200	8856	-2606	-1730	157	142	127	1
-11296	-4644	11812	-704	3728	2132	-16660	-1772	-416	-3810	10672	-105	-14016	-1632	9648	-483	1876	54	-32768	3120	10996	16143	-19127	32767	-27584	4792	-13952	-3010	-5400	2410	-24360	2448	23944	-2609	-2432	685	132	125	1
-11528	-5424	12232	-393	4860	2802	-15156	-2060	1660	-2785	13408	258	-17040	1544	4752	-511	1719	-40	-32768	-17224	-6816	17775	-17442	32767	-12976	16	-19648	414	-3650	2112	-12672	-3120	32767	-2486	-1015	446	125	139	1
-11460	-5772	13448	348	6914	4162	-17396	-888	840	397	16517	342	-18728	-4328	5992	-391	1324	-204	-32768	-32768	-16660	32767	-11738	16939	1072	9848	-6768	3508	-1397	962	-17584	-8464	32767	761	-419	-701	127	151	1
-12124	-4588	15588	1292	10208	5358	-19812	-1708	-2660	4169	19015	1300	-19688	-7712	3168	-631	1096	48	-32768	4664	-16700	-3811	-9154	-22363	-8936	14912	-17160	970	1794	-461	-24560	2896	19848	3189	-2163	129	123	126	1
-12796	-6024	16504	1196	15002	7229	-22484	-228	-3544	3328	21105	1778	-21768	-4712	1480	-787	797	235	-32768	-9064	2512	-28889	-7952	-32768	-12728	504	-22224	-1710	4042	-1595	-13320	9424	5208	2022	-1255	45	126	143	1
-11744	-7532	16468	-26	20875	10263	-23388	2136	-3304	168	22709	1586	-21640	1720	3232	-897	259	57	16604	24388	7688	-29965	5378	-28120	-32768	1016	14728	-302	3876	-1156	-9104	2224	-1304	1105	127	1023	124	127	1
-11652	-4948	17924	-993	27833	13586	-23180	2448	-3480	-240	22972	1453	-22040	128	8072	-1022	208	36	9956	-3752	21072	-20816	22619	-28546	-32768	-8176	7368	2876	2612	-554	-23496	-9416	30720	-1273	-894	1220	120	140	1
-10632	-5940	20188	-205	32767	18569	-28908	4900	-1784	512	25451	1643	-26768	-3392	13328	-870	48	213	-32768	-2068	32767	-8321	32767	-15313	-23696	6264	-16720	-529	3997	-2211	-17496	4480	-3056	-675	1865	-207	116	132	1
-10996	-11104	21428	823	32767	27962	-32768	9820	7856	-4253	26791	1323	-28976	64	25536	-1076	-1496	621	900	2092	13496	2757	15997	-25183	-13304	-5656	-10696	-1482	3824	-1627	-25104	-25648	-17088	3096	1981	-1915	140	155	1
-28940	-16996	18152	-2293	32767	32767	-32768	4768	10228	-14604	31407	-470	-28264	3008	20200	-3270	-4358	1377	-32768	32767	-11612	-16793	11788	-23315	-688	15024	-27784	2570	2044	269	1872	5696	1352	3041	-667	587	121	116	1
-32768	-1720	16888	-13762	32767	29204	-29496	-7968	-4348	-11877	32659	2405	-21512	-4424	1704	-2495	-2116	360	-23444	2088	16708	-10207	-479	-13083	-25424	-1432	-18512	-601	2250	-163	-27336	13368	-12984	1138	1112	-37	127	107	1
-32768	-19792	9672	-20833	32767	23705	-25976	-8484	-5152	-989	31181	5944	-28992	-12904	-15712	-1481	-2324	-55	-12492	3968	12584	-4173	2850	-2971	-16576	1576	-13008	605	1923	-447	-28776	-1752	-6216	438	1803	-166	127	138	1
-14292	-32768	21464	-10135	32767	30152	-17492	-10864	-19148	9906	26752	6399	-31192	-1728	-13920	317	-3005	-942	-9496	8456	10804	-2494	2076	-2072	-16152	-1232	-10136	2677	939	-6	-15520	1272	-2496	861	1699	-278	126	136	1
-32768	-31000	25420	1562	-3194	17450	-19376	-2228	-22220	14453	12415	2425	-32768	3312	-4008	1958	-3391	-1008	-9304	6708	12164	-1284	2077	-1329	-15936	8408	-8152	2843	477	135	-16112	1864	-624	526	1808	255	152	117	1
-5944	-24572	19008	13156	-25412	5487	-13372	1392	-6044	11941	-158	2916	-31760	1840	-5952	1317	-3217	-1229	-9692	8884	10548	262	2331	-995	-14536	9816	-7944	-32	1027	-169	-19016	1224	-1328	254	1840	-183	150	121	1
5704	-10800	13764	16297	-25154	2643	-4984	1344	-4600	8308	-7479	1939	-27384	2768	-5088	211	-3118	-1311	-9764	8000	11132	1323	2970	-481	-16760	5112	-9616	-1375	1070	-313	-20168	4552	-1248	-39	1843	-647	130	142	1
1548	-5584	11392	9926	-22790	-5197	-4940	1076	-7448	7706	-14735	3341	-22328	-32	-6288	-422	-2440	-831	-9684	8744	10488	1932	3109	144	-17016	2736	-7872	-391	597	-48	-18056	3864	-864	-492	1998	-734	169	127	1
-6052	-6548	10540	2211	-27514	-16045	-3320	-640	-9392	5024	-20188	4352	-19576	1576	-7952	-627	-2244	-1002	-9844	9464	10060	2120	2820	76	-15448	4560	-7440	943	145	63	-17488	2712	152	-545	2100	-594	122	134	1
-8792	-11032	9432	2211	-32768	-22250	-4852	-232	-9132	95	-27132	5644	-17592	1744	-8856	-298	-2137	-946	-9900	9340	9520	1861	1944	-407	-14576	7440	-5656	1309	-47	178	-15400	1512	1624	-603	2170	-137	128	129	1
-8096	-9020	8380	6629	-32768	-23357	-4692	-956	-6864	-3157	-32768	5235	-13496	-408	-9696	197	-2190	-1059	-9844	8828	9912	1559	1522	-760	-14560	7744	-3816	718	112	96	-15592	944	2552	-564	2119	-161	117	124	1
-10360	-4428	8964	6520	-32768	-24368	-6116	-512	-6348	-1107	-32768	4496	-10632	1296	-8984	197	-1991	-936	-9880	8344	9856	1419	1438	-825	-14400	6768	-3240	-44	386	-23	-15016	648	2832	-353	2095	-228	135	132	1
-13444	-3560	10308	2259	-32768	-27242	-8132	-1444	-7208	2490	-32768	6319	-8504	1168	-9656	687	-1443	-647	-9932	8352	9404	1131	1464	-773	-13856	5936	-3904	-54	472	-69	-14288	2592	1928	-3	2090	-275	134	140	1
-16184	-6548	11984	-240	-32768	-27567	-10548	-2132	-7952	6873	-32768	6535	-7320	1256	-10112	1286	-1260	-656	-9956	8948	8632	378	1178	-879	-12992	6864	-3432	366	416	-51	-14376	4248	-128	293	2153	-191	129	113	1
-20428	-7516	13616	-877	-32768	-26306	-9700	-808	-8748	8098	-32768	7160	-5824	2040	-11376	2157	-950	-618	-9920	8972	8608	230	1071	-964	-13192	6720	-4120	308	525	-74	-14416	3600	1744	226	2351	-44	131	123	1
-22336	-4984	14828	-4196	-32768	-27038	-9872	-620	-8476	8032	-32768	7290	-3928	2952	-12296	2910	-606	-444	-10136	7436	9596	-931	964	-1301	-14560	5120	-6392	54	607	-101	-11952	-336	6288	-629	2754	239	121	125	1
-23028	-6064	17584	-8684	-32768	-27877	-18504	132	-9744	6466	-32768	10596	-2872	5104	-9320	3018	-164	-218	-9640	8912	9568	-856	1461	-1172	-15144	6168	-4840	292	575	-54	-13184	-1872	4784	-885	3488	-27	122	135	1
-32768	-11444	22060	-9082	-32768	-28059	-22372	-1560	-12364	5342	-32768	12606	-3816	3184	-1920	2637	-249	-57	-9928	8532	9780	-806	1726	-1362	-15136	6104	-2600	680	579	-6	-17304	616	-1064	491	2882	-106	123	129	1
-32768	-12172	24276	-8009	-32768	-29558	-30516	1704	-11836	-1855	-32768	12410	-6128	-992	1912	1902	-930	-10	-9816	8888	9644	-794	1836	-1443	-14176	6536	-3168	656	757	-56	-18736	3080	-1104	-259	1804	-40	124	129	1
-32768	-8764	17272	-10188	-32768	-32687	-27100	-232	-14072	-9943	-32768	10432	-13064	-6560	10752	649	-1539	28	-10040	9172	10064	-175	3001	-2033	-15688	8584	-3648	558	951	-146	-18344	7544	5392	-1203	1732	-48	123	136	1
-32768	-3992	4488	-11313	-32768	-31674	-21652	-3280	-14464	-17522	-32768	6858	-21920	1152	17088	1009	-1738	-508	-10136	9604	10160	-256	3811	-3157	-14496	9496	-2040	753	1088	-288	-16448	5240	9056	132	1885	-156	113	134	1
-32768	3516	-10064	-6820	-32768	-23493	-19684	-3084	-18844	-22656	-32768	-674	-18400	2944	32767	670	-731	-737	-10148	10424	10412	-1293	5061	-5177	-14584	10400	-1192	911	1356	-473	-16704	3816	8040	496	1761	0	140	134	1
-32768	26108	-31092	-12540	-22653	-12727	-8580	-2312	-10152	-27469	-14172	-3708	-10800	8632	32767	-1047	-909	534	-10796	9756	13020	-2346	7872	-7488	-17160	10696	-2032	621	1819	-775	-19880	5768	6712	241	1383	244	112	135	1
-32768	19652	-32324	-11551	-2708	4359	-3700	-10108	-12696	-4797	8158	-4186	-23544	-3424	21880	-1654	-1362	528	-11032	10848	14516	-1856	11872	-11078	-20960	9224	-3392	605	2125	-999	-22088	6896	6624	813	1001	66	140	133	1
-32768	5768	-16680	8062	10552	17250	-14156	-6364	-18848	11123	22276	-5237	-13976	-5208	13640	-957	-1400	-509	-11036	11952	15248	-557	16570	-16662	-23184	7264	-3488	1110	2233	-1079	-21328	2992	5648	935	534	6	129	130	1
-26516	-14448	9056	23149	17700	16739	-16984	-304	-10436	22374	29077	-4372	-7784	912	3088	-634	135	-500	-10916	12196	15644	473	21509	-21914	-24272	6912	-4312	1470	2339	-1123	-22568	1344	6840	1014	134	-31	120	131	1
-2072	-18428	32767	20319	11784	9984	-32768	9052	18600	32767	14406	-1612	-10216	8328	8288	-1065	779	-253	-10736	13088	17580	1242	28695	-25056	-29424	6984	-2288	1562	2400	-1192	-26632	3128	14064	976	-341	-124	138	130	1
-1744	32767	15472	11578	32767	14090	-19592	5972	-18948	32767	23008	-485	-25160	-27248	12088	766	582	-458	-10164	18208	19044	1156	32767	-31143	-32768	11168	7032	2403	2215	-1168	-28136	3648	24632	1440	-1559	-213	135	129	1
-32768	2968	26992	1671	22976	19918	-24824	12084	-14080	18805	23398	-2087	-23392	17320	11752	1682	644	-402	-23576	22964	19528	1416	32767	-32768	-32768	19280	8480	3763	2166	-1231	-24592	-5496	23432	2408	-3172	-785	186	130	1
-12716	-26752	9404	2315	25691	8759	-11780	-924	-8024	-5333	21843	-13734	-12136	27592	-13632	-620	2518	234	-28584	28240	19488	11505	32767	-32768	-28936	26128	-48	3219	2545	-1557	-23920	5744	7536	1435	-2733	-659	104	131	1
-32768	6460	13496	8081	12014	15066	-14460	-14992	-18904	-1210	18598	-13289	-10432	-10312	-10104	-2640	9	691	-32768	29560	15368	4023	32767	-32768	-21648	16600	-4560	2612	2539	-1774	-27144	12440	-18496	1352	-2361	295	135	131	1
-14832	-6676	13652	7802	6139	10381	-19024	-1868	-11864	4799	12864	-7068	-27768	-12208	-12192	-857	1643	101	-19016	30460	24336	2824	31683	-32768	-19848	10016	-13248	854	2548	-1400	-32768	3656	-6920	-786	-3310	749	63	130	1
-13668	-3820	12248	3401	1229	2797	-15680	-2144	-8520	-7366	12020	-7060	-19056	-4696	-6688	-198	1276	-19	-32768	15788	17460	8589	-235	-26845	-16560	-1848	-25464	-1243	1730	-1260	-32768	-3624	-6056	-740	-2984	395	149	127	1
-11568	-3916	12160	2861	1369	2588	-15464	-1696	-8400	-15014	11536	-6888	-17328	-704	-3152	-166	1915	508	-7064	32767	13076	8112	-32048	2312	-13120	-936	-5280	491	-235	-198	-32768	-7328	-5848	154	-3229	352	134	140	1
-11508	-3152	12288	2610	1524	2339	-17700	-3900	-6676	-10467	8853	-3824	-19840	352	-1336	-18	1796	422	10844	20428	6932	-414	-31187	5053	-8752	-2056	-1112	1634	-1609	662	-27080	-3032	-4568	879	-3173	726	125	135	1
-11120	-3536	12136	104	2115	917	-17652	-2068	-7644	-3311	6454	-3804	-18808	-1424	-1000	283	1925	318	3824	12572	5944	-1770	-25220	8231	-5088	-624	-4648	905	-2169	1131	-20904	-1264	-6352	1616	-2750	881	129	136	1
-11396	-3512	12256	-77	1825	48	-17184	728	-7088	-7032	3924	-2650	-17160	-864	-1216	464	2062	148	-3016	8956	6468	4572	-25342	19631	-4816	-640	-7192	-267	-2622	1452	-16904	1472	-6208	1476	-2526	947	128	140	1
-11300	-4180	12196	-178	1691	-358	-16340	64	-5220	-13353	3764	-2216	-17192	-1752	-664	680	2040	398	-4992	10272	6712	9199	-26374	30435	-6264	-560	-6560	-673	-3179	1803	-13336	784	-8168	842	-2142	903	123	134	1
-11316	-4548	12000	-489	1574	-544	-15948	-352	-3920	-15251	3886	-1707	-16256	-1208	424	768	2123	302	-7396	11576	7020	7706	-26491	32767	-5712	592	-5184	-987	-3629	2121	-12672	744	-8952	468	-1837	787	122	131	1
-11264	-4520	11656	-720	1347	-384	-15488	-364	-3244	-14342	4066	-2067	-15016	-488	984	723	2212	186	-9404	10884	8200	4648	-27903	32767	-7040	3000	-5224	-1734	-3767	2350	-10184	88	-8808	305	-1391	742	123	130	1
-11320	-3840	11620	-740	1267	-411	-15204	-1076	-2256	-10117	4373	-2675	-14584	-264	128	378	2309	166	-12256	9360	10696	5352	-28665	32767	-9400	3432	-5680	-2702	-4007	2398	-7720	-280	-9544	-56	-1133	711	150	128	1
-11168	-4400	11236	-475	1256	-400	-15236	-1604	-2164	-3293	4240	-1972	-14416	-1368	768	30	2500	128	-14300	10004	12284	8431	-28809	32767	-11728	2864	-6776	-3643	-4195	2373	-6264	-8	-11112	-904	-871	721	139	129	1
-11220	-4256	11172	-187	1120	-127	-14700	-72	-3468	-894	4396	-1494	-11120	-304	6336	129	2359	38	-16360	11748	13396	10721	-27768	32767	-14568	1456	-7384	-3973	-4502	2336	-5608	-784	-12216	-1847	-648	679	127	128	1
-11052	-4836	11412	-63	929	432	-15904	960	-3424	-6118	5063	-2491	-13136	5128	12040	293	3053	-598	-18004	13252	15760	11701	-24408	32767	-17656	1712	-8112	-3968	-4829	2191	-4584	-3984	-11160	-2385	-477	509	129	129	1
-11212	-4092	11188	-66	972	601	-15376	-220	-3048	-7960	6006	-2552	-16360	-2736	3024	-307	3787	-35	-25552	17444	19768	11905	-20853	32767	-21520	3000	-11416	-3473	-5236	2171	-3888	-5472	-8776	-2344	-471	290	120	129	1
-11128	-4532	11972	-275	1345	744	-16700	-204	-2808	-5202	6296	-2048	-20224	-5656	-6184	-757	3135	239	-32768	24232	21868	10965	-22567	32767	-26928	6344	-15472	-3315	-5601	2258	-4536	-3200	-3272	-2606	-1005	-20	141	130	1
-11184	-4020	11992	-682	2183	897	-16728	-112	-3044	-6259	7396	-1867	-19128	-4376	-3912	1084	1793	5	-32768	19220	20568	9474	-22914	32767	-27584	5048	-15912	-3242	-5635	2370	-7384	1424	1936	-2694	-1555	-206	143	133	1
-11284	-4728	11936	-1052	3076	1160	-17064	-1272	-840	-7002	8681	-1600	-15200	-3792	9720	863	1930	-183	-32768	9760	15488	11990	-19565	32767	-25528	11112	-15136	-2324	-5441	2148	-17288	3312	15624	-2301	-2351	324	130	128	1
-11552	-5108	11908	-815	4117	1834	-15036	-2676	3204	-5061	11294	-612	-15480	2216	12672	-728	1835	-92	-32768	9492	13012	11681	-19090	32767	-24008	8032	-21424	-1465	-4531	1775	-24944	-2320	29392	-2814	-2307	567	124	140	1
-11256	-6096	12952	-111	5960	3027	-16692	-3624	3792	-370	15126	-719	-20368	-1496	7616	-650	1541	-255	-32768	-32768	-12196	19415	-14757	30124	-4072	2696	-14888	832	-2572	1547	-3648	160	32767	-357	-390	-194	122	138	1
-11952	-5476	14484	429	8773	4870	-19068	-908	72	1145	18526	-304	-19280	-8904	6048	-720	1125	-211	-32768	-32768	-19012	26278	-5839	3457	-1392	12288	-12848	2229	282	523	-21816	-3704	32767	1283	-1032	-284	131	130	1
-12708	-5196	16492	1323	13417	6354	-21404	-1688	-2504	2970	21131	738	-20760	-7120	2072	-784	827	96	-32768	-2556	-8372	-16692	-6123	-29414	-11176	7832	-19800	114	2750	-886	-20584	6048	12080	2464	-1796	204	126	141	1
-12096	-7908	16636	325	19443	9091	-24148	508	-3276	2858	22851	722	-21688	-1304	2856	-810	444	88	-32768	-11872	4096	-24114	-1588	-26842	-15784	-3520	-23224	-1302	4503	-1619	-7968	8320	1864	1359	-571	295	126	136	1
-11956	-6588	16592	-977	25898	12575	-22532	3248	-2832	487	24363	383	-20672	2272	6312	-967	107	-44	22496	19128	32767	-18764	12889	-20623	-32496	-3464	27672	1332	3349	-1176	5192	-2872	4072	689	749	1088	127	137	1
-10760	-5380	18344	-1429	32767	16501	-24508	5000	-3192	-995	25975	-305	-21680	1928	10656	-1341	-27	30	26380	29684	9396	-19401	15468	-19574	-25744	2416	15216	4005	1580	-82	-23976	-3168	-3776	1595	1640	-152	114	120	1
-10252	-8792	20200	-905	32767	24262	-32584	7800	68	-3251	26585	-1220	-23480	2192	10968	-1357	-37	18	-32768	-1264	32767	-5935	32767	-17887	-27392	14400	-22136	-2383	4191	-2644	-29984	11272	24688	-4275	-485	577	132	117	1
-17652	-14268	18376	-4489	32767	29621	-32768	10648	11068	-18194	28475	-2356	-26960	4704	22240	-3334	-3114	1106	-21008	14260	12260	1009	17591	-26543	-17488	-2368	-17928	-3097	4192	-1595	-15848	-32768	-14360	2047	2940	-430	137	154	1
-32768	-2576	18036	-13820	32767	31749	-31836	-3172	-28	-17615	32767	-3051	-20104	-8	4896	-3815	-2480	1064	-10204	-4144	13628	-12777	5600	-16244	-9200	3400	-22104	-283	2685	-336	-3776	6440	-15200	4378	658	934	124	111	1
-32768	-8128	16768	-24352	32767	22901	-30620	-6864	-1524	-20773	32767	2019	-28096	-11000	-8104	-1885	-2448	237	-17352	8112	11020	-8081	250	-7240	-16088	-2528	-16592	1927	1665	65	-22840	16528	-12848	1751	943	-843	136	114	1
-32768	-26556	16884	-29404	32767	19029	-21516	-7744	-3708	7968	27375	5787	-30032	-7328	-19280	-336	-2824	-728	-9972	10216	10712	-3118	2166	-2311	-18776	5800	-11328	2170	1335	-146	-25096	480	-9744	-229	1600	-161	131	119	1
-32768	-15700	16164	-11230	26439	32437	-16784	-8388	-22040	6238	19840	5395	-31984	2056	-4776	1481	-3342	-882	-10096	8548	10132	-2629	1789	-2473	-15376	3312	-9768	3289	672	29	-17144	800	-2976	254	1843	175	109	105	1
-17580	-30220	20384	2704	-23780	4421	-18904	1592	-13816	9309	5572	830	-32768	3032	-5256	1571	-3422	-959	-9548	7924	11516	-806	2717	-1834	-15256	10032	-8080	1407	825	-46	-17776	704	-1744	54	1907	327	160	119	1
2708	-19604	17128	17054	-32768	4062	-8636	1204	-2828	6646	-7265	2238	-29960	3408	-5240	353	-3124	-1456	-9796	8480	10824	484	2768	-1607	-15712	7824	-9288	-1129	1258	-379	-19400	912	-2944	225	1862	-400	150	127	1
6068	-7560	12396	16280	-29160	152	-4376	188	-4960	8727	-14143	553	-23744	-168	-5400	-140	-2692	-1122	-10072	8192	10936	1504	3373	-889	-18064	1344	-9328	-1345	926	-268	-19600	3264	-2304	-196	1891	-554	130	135	1
-2388	-3480	11096	6490	-28281	-9230	-3756	2888	-7628	11066	-20393	2107	-19448	3592	-6928	-414	-2490	-987	-10036	8900	10208	2176	3335	-426	-16632	1264	-8192	238	450	-12	-18280	1440	-976	-583	2089	-622	116	139	1
-7780	-7476	10108	-938	-32768	-19139	-4276	3248	-9188	2547	-25833	2761	-16936	4992	-7616	-147	-2292	-777	-10012	9572	9264	2142	2795	-538	-15096	5544	-6328	1468	-24	268	-16288	872	840	-592	2121	-284	142	133	1
-9536	-8668	9924	732	-32768	-23378	-4856	2436	-8032	-4235	-31850	3799	-16232	3648	-7848	-64	-2389	-779	-10036	9020	9580	1685	2186	-877	-13984	8480	-3984	1128	31	183	-15352	1712	1600	-564	2104	-192	122	124	1
-10116	-5968	9844	3582	-32768	-24891	-6064	1660	-6968	-5863	-32768	1494	-11352	3144	-8240	-390	-2176	-805	-9852	8544	9828	1406	1907	-959	-14104	7704	-3792	2	402	3	-14816	1808	1928	-562	2087	-216	140	141	1
-12020	-1984	11556	2057	-32768	-26761	-7972	312	-6748	-3474	-32768	1998	-8904	1976	-8880	-450	-1672	-605	-10020	8336	9540	1073	1877	-973	-14144	5800	-3560	-339	594	-96	-14616	2408	856	-387	2119	-172	155	130	1
-15864	-2624	13828	-1960	-32768	-27944	-10640	-2356	-8140	5346	-32768	2729	-7208	168	-10096	163	-1158	-389	-9996	9168	8952	482	1704	-1192	-13360	6096	-3320	160	539	-94	-14592	3816	296	-40	2208	-103	131	122	1
-20276	-5424	15864	-3905	-32768	-27112	-10588	-1316	-9448	10526	-32768	5063	-6128	160	-10896	1143	-863	-472	-9968	9176	8772	-239	1429	-1552	-13632	6296	-5864	225	591	-87	-13688	3344	4928	-248	2372	146	123	122	1
-22728	-4884	17148	-5466	-32768	-25950	-12416	568	-8936	8816	-32768	6774	-4648	1096	-13760	2555	-531	-529	-9952	7952	9836	-646	1474	-1503	-15568	4280	-4344	201	599	-67	-12000	-504	8472	-921	3069	251	125	129	1
-23408	-4008	18796	-9346	-32768	-27125	-17640	1828	-9184	5551	-32768	9321	-3000	3752	-12440	3042	-237	-449	-9944	8372	9456	-823	1893	-1623	-15520	5056	-3888	569	596	-30	-12992	-1560	4736	-550	3743	-84	120	132	1
-27528	-8652	23508	-10756	-32768	-27001	-22768	232	-9892	3431	-32768	12890	-2736	2376	-7336	2858	-3	-331	-9844	8676	9756	-1007	2484	-1879	-14264	6416	-2624	620	738	-83	-17384	720	-1384	770	2824	-59	121	130	1
-32768	-16320	26616	-10552	-32768	-27860	-23696	-592	-11512	3815	-32768	13051	-4104	-1288	-2152	2555	-468	-228	-10056	8428	10336	-863	3251	-2221	-14400	6592	-3160	459	964	-159	-18896	3304	-256	-908	1771	46	128	131	1
-32768	-9332	18168	-12745	-32768	-32768	-29636	1180	-15116	-8164	-32768	10067	-10944	-4584	10336	1268	-1360	-43	-10284	9024	10480	-687	4333	-2853	-16288	7280	-3888	387	1159	-271	-17320	6384	6592	-1126	1900	6	124	132	1
-32768	-208	3680	-16252	-32768	-32768	-23264	-1376	-16024	-19986	-32768	5978	-22184	392	19640	880	-2505	-312	-10556	9868	10604	-1142	5482	-4068	-14896	8664	-2184	729	1272	-387	-16064	3768	7568	391	2029	-142	79	131	1
-32768	4804	-11232	-16510	-29673	-30548	-19164	-2516	-21852	-24841	-32768	-2142	-25776	9080	32767	1219	-857	-875	-10728	10880	11636	-2251	7624	-6461	-17528	9560	-1584	798	1561	-599	-19728	3224	6040	359	1789	168	106	132	1
-32768	28428	-32028	-18114	-21087	-17203	-5296	-4552	-10744	-30658	-13758	-4087	-6912	9928	32767	-2289	-656	796	-10908	9056	14676	-1316	11045	-9561	-20088	9056	-2888	600	1967	-848	-21528	4008	6088	390	1325	145	113	132	1
-32768	22604	-32768	-14574	-3019	3356	-1044	-10600	-10700	-9697	10059	-3456	-26992	-8480	22424	-1836	-1357	360	-11324	11256	15336	-200	16079	-13398	-23256	7304	-3344	778	2179	-1035	-22248	2128	5824	1020	908	-36	131	131	1
-32768	6212	-17340	7259	10154	19836	-14048	-9904	-17524	14417	25265	-5114	-12256	-6984	15960	-853	-1454	-800	-10976	11492	15228	56	16978	-14383	-22104	7152	-2144	1231	2279	-1073	-20760	1248	6584	1022	378	-41	136	132	1
-14896	-26364	14144	32767	31095	27026	-25540	7944	2588	32767	28963	-1981	-10664	-448	3624	-657	377	-691	-9464	14352	14704	997	27416	-24141	-24976	7336	-3072	1460	2401	-1129	-22216	1024	9880	1157	0	-8	124	129	1
7928	-3916	30656	21918	25944	8372	-32768	5752	11296	32767	15239	-1062	-18088	608	14408	52	599	-391	-8636	16208	16744	571	32767	-29576	-31984	8200	-152	1800	2334	-1130	-28096	4944	18856	1147	-814	-61	151	132	1
-32768	32767	28516	11434	32767	3272	-26280	11344	-26920	32767	26232	4968	-24704	-32768	14536	3527	277	-1090	-12412	21504	19468	-892	32767	-32768	-32768	13824	9600	3332	1997	-1135	-28376	5640	21448	1195	-1056	-112	161	133	1
-24556	13412	22068	-2189	20310	23123	-17304	11928	-11892	16937	24690	-8158	-12552	32767	-9200	1967	1719	1330	-32768	20312	18108	7165	32767	-32768	-32768	27008	2920	3755	2460	-1340	-24032	-1104	12920	2037	-2905	-1002	131	133	1
-32768	-32768	-7716	20207	20645	19142	-8876	-31092	-6020	-8782	22752	-10532	-7608	15664	-8792	-851	377	134	-32768	31644	15376	2107	32767	-32768	-24576	22848	-3104	1938	2757	-1923	-26568	11144	-4112	1037	-2408	-83	110	137	1
-15840	7924	15928	13775	-524	20129	-12508	-4088	-18676	18022	12313	-17551	-19880	-15648	-8080	-2037	-27	-98	-30168	32767	20200	-4557	32767	-32768	-21904	7272	-7160	879	2987	-1789	-29152	6488	-12960	-118	-3047	884	120	126	1
-13836	13320	19232	6480	1088	7932	-22488	7512	-16428	-5801	13799	-6315	-27312	-7616	-7336	-805	1517	-271	-28960	7008	12236	6690	23218	-32768	-20168	3488	-17944	-261	2334	-1305	-32768	-2776	-4680	-1238	-3425	641	188	122	1
-10764	-6456	12484	3395	-260	2420	-14208	2180	-7804	-28589	15796	-7452	-24712	-4344	-7168	-798	1421	-258	-22244	32767	15380	16674	-26681	-7433	-14120	-280	-12000	405	569	-689	-32768	-9736	-6352	-153	-3247	147	141	143	1
-11992	-2104	13068	2199	341	1865	-17228	-5268	-8680	-25478	11749	-6679	-14104	-3648	-2760	-651	2036	623	6876	26836	8648	2363	-32768	-1803	-11304	-1256	-288	2094	-1235	398	-30792	-5792	-4928	832	-3422	541	145	140	1
-11584	-2844	12432	443	2566	807	-18388	-9720	-7524	2168	8616	-3002	-17208	-2472	-1896	282	2363	372	6652	15648	6660	-1957	-31053	529	-6656	-2024	-4904	1706	-1894	891	-27808	-1968	-5728	1647	-3137	817	113	143	1
-11044	-3828	12272	41	1892	297	-18176	1508	-7392	7547	4741	-3020	-19920	-2136	-3488	769	2182	611	728	9316	6144	2696	-26614	11130	-4432	-1928	-6456	620	-2455	1273	-17424	136	-7088	1792	-2637	960	128	129	1
-11432	-3984	12192	58	1563	-124	-16272	2580	-6136	-4881	3927	-1401	-16840	-896	-1376	994	2187	472	-2520	8064	7020	9529	-25612	25076	-6576	-1776	-6480	-139	-2968	1586	-16320	1536	-8088	1215	-2351	897	133	140	1
-11408	-4320	11912	-159	1473	-69	-14660	1384	-4324	-16634	4947	-2792	-16568	528	-16	877	2065	388	-4824	10884	7348	10157	-24581	32767	-5512	-1032	-5368	-654	-3435	1926	-14600	-320	-8528	745	-2041	767	124	127	1
-11332	-4616	11548	-302	1251	248	-15960	-572	-3180	-19564	5259	-2517	-15304	-976	1160	699	2065	214	-8368	11996	8340	4521	-26101	32767	-5752	592	-5296	-1400	-3700	2235	-11728	-912	-8896	530	-1817	655	116	132	1
-11244	-4080	11668	-164	1108	316	-15712	-3284	-2172	-11933	4808	-2150	-14872	-2552	208	645	2174	34	-10792	7532	11056	3201	-28325	32767	-7936	1616	-5352	-2390	-3938	2399	-9256	-1200	-9528	173	-1347	641	140	126	1
-11512	-3776	11520	260	1036	518	-15032	-2912	-2624	649	4748	-1265	-14584	-2440	-696	510	2409	35	-13064	6660	12916	8049	-29549	32767	-9888	1592	-5656	-3407	-4187	2411	-6672	-1792	-10976	-352	-1067	539	135	128	1
-11184	-3736	11352	531	984	452	-14420	852	-4844	3516	4574	-377	-14056	-384	3680	242	2389	68	-15136	9340	14032	11938	-30328	32767	-12432	128	-6424	-3924	-4489	2434	-6192	-2000	-11320	-526	-1013	516	126	130	1
-11104	-4932	11380	287	880	851	-15900	2644	-4320	-6727	5110	-1453	-16832	7088	7952	-286	2416	1	-17532	9640	15528	14544	-30105	32767	-15136	-1064	-6760	-3808	-4773	2422	-3344	-4320	-11752	-1806	-759	227	123	128	1
-11472	-3692	11460	336	901	1418	-15972	-44	-4776	-9822	5602	-2318	-10192	2232	8272	98	3799	-155	-20424	11112	19916	17772	-27320	32767	-19008	-432	-8168	-3109	-5303	2364	-2864	-6664	-10472	-2037	-585	-63	121	126	1
-11256	-3524	11704	89	923	1422	-16436	504	-3768	-7006	5668	-1616	-17416	-3520	-2528	-1483	3850	321	-29524	19280	23332	16996	-27000	32767	-24520	4544	-12416	-2303	-5794	2448	-3080	-4600	-7072	-2195	-578	-402	152	127	1
-11376	-3216	12024	-469	1676	1158	-16084	1588	-3064	-7148	6372	-1709	-20904	-2744	-10344	300	2352	93	-32768	23272	26668	12971	-29150	32767	-31000	8136	-16384	-2782	-5943	2540	-6176	2592	1960	-3123	-1129	-267	145	126	1
-11588	-3940	11640	-684	2337	1396	-15496	-148	-1504	-8344	7978	-1932	-15976	-3832	5560	1315	1798	-312	-32768	12892	18556	11530	-26411	32767	-26960	5016	-12688	-2518	-5726	2128	-11432	4120	2200	-3143	-1278	248	135	131	1
-11408	-4308	12132	-427	3176	1461	-16456	-2504	1336	-5363	9957	-640	-14192	-2968	15624	-338	2057	-161	-32768	11276	4500	3411	-18841	32767	-23456	3904	-20472	-2818	-4629	1794	-19032	4680	19672	-2545	-2554	995	131	192	1
-11352	-5700	12728	-113	4766	2617	-16040	-3040	4500	-3456	13327	-323	-19440	200	7520	-808	1879	119	-32768	-22780	-7700	4476	-12789	32767	-15656	-880	-22920	-1382	-2979	1776	-16800	5552	32767	-3835	-2017	-461	128	131	1
-11352	-6224	13876	953	7373	4566	-18016	-1972	3268	-87	17403	5	-20472	-5392	8512	-517	1239	-238	-32768	-32768	-17044	28924	-3541	20394	-1768	6272	-13384	1546	-858	734	-14704	-16320	32767	-1286	-157	-689	129	139	1
-12548	-3772	16208	1671	11223	6362	-19640	-1384	-1136	2742	20749	768	-19456	-6048	5608	-885	846	-65	-32768	-2216	-15264	-2187	-757	-14865	-7680	10392	-20256	506	1784	-381	-25440	-5816	16016	2351	-1477	685	125	138	1
-13160	-5840	17088	1474	16983	9203	-23620	-224	-2540	2545	23009	1421	-21592	-4008	3344	-1158	645	169	-32768	-11304	1000	-22896	-1142	-28090	-13960	1024	-23472	-537	3587	-1351	-13520	2944	3512	3043	-1063	518	127	134	1
-12336	-7468	17092	515	23335	13498	-23668	2480	-2068	739	25058	1219	-21816	-792	5376	-1043	153	27	19760	25220	9496	-19334	10036	-26543	-32184	5848	25400	781	3702	-847	-5216	648	1496	3446	-99	530	123	133	1
-11988	-5872	18616	690	31004	16854	-24836	3080	-2372	648	26788	738	-21440	-664	5840	-1039	87	16	13280	3408	22152	-10186	32767	-27399	-32768	-7216	-4584	1301	3168	-755	-18400	11968	21864	-1234	924	560	127	136	1
-10568	-6420	21316	661	32767	23308	-30284	4656	-832	2803	27398	536	-26752	-3032	15800	-754	-266	235	-32768	-4952	32767	-2409	32767	-15269	-15672	10232	-12768	-715	4279	-2257	-27432	1640	-3552	-3034	551	-183	69	158	1
-6536	-14828	24088	234	32767	32767	-32768	10848	9396	-6311	28451	-750	-28504	3120	25688	-1689	-2665	824	-14212	16428	9844	4057	20055	-28031	-12952	-3088	-15936	-1603	3731	-1320	-13968	-29680	-18312	2099	2223	-487	128	120	1
-32768	-9372	19396	-3245	32767	32767	-32768	1088	3992	-14803	32767	-2046	-22384	3896	7560	-3207	-4009	1166	-10944	-3236	11420	-16079	662	-17430	-8464	10648	-17840	1072	2589	666	-6984	6288	-14424	3266	288	-191	120	103	1
-32768	2280	15536	-23182	32767	22307	-31524	-3924	-3940	-19348	32767	3165	-26184	-8656	-6592	-1728	-2236	-16	-17124	2048	14392	-8271	-875	-6472	-21976	-5720	-17312	-836	2349	-507	-32296	14176	-14512	921	1044	121	128	113	1
-32768	-24608	13784	-29749	32767	21091	-23896	-9252	-5096	3338	29987	6940	-32512	-8440	-19920	-666	-2670	-647	-10640	10644	10656	-3395	1652	-1999	-16464	2864	-11296	1686	1489	-148	-22928	-2432	-6352	56	1626	-45	129	128	1
-26640	-32768	21460	-1882	31536	32767	-16912	-14740	-21780	7195	20895	3919	-32768	5024	-6680	886	-3349	-1031	-9296	8880	10652	-2280	1231	-1807	-17704	-576	-9176	3807	510	158	-16312	-840	-2944	610	1837	249	136	129	1
-24308	-26644	19924	13114	-15133	14434	-20164	2272	-15388	18216	5964	-2291	-32768	3336	-4696	1459	-3439	-1101	-9524	6900	11808	-244	2242	-1159	-18000	752	-9360	3900	429	166	-17712	392	-1376	335	1848	330	158	117	1
-228	-16056	18436	16866	-29961	35	-9828	3852	-4816	14158	-6525	1516	-31168	3184	-5808	252	-3140	-1579	-9932	8536	10476	693	2472	-1260	-14248	9208	-8656	-842	1189	-272	-18848	72	-1576	317	1801	-445	123	134	1
6404	-8236	12340	13069	-26731	-7440	-3836	2720	-5492	7658	-12604	-51	-23416	2400	-4360	-615	-3171	-1668	-9700	8364	10944	1595	3275	-596	-18464	1600	-8592	-1669	1033	-263	-19976	2664	-1976	9	1836	-561	139	125	1
248	-5228	10308	5308	-24235	-14351	-3652	3972	-6964	6586	-18711	1441	-19072	4136	-6096	-513	-2465	-1110	-10188	8416	10392	2365	3384	-294	-17168	-128	-7160	-148	521	62	-18224	632	-264	-576	1994	-730	127	138	1
-6128	-5240	10384	-1294	-27917	-21648	-2432	1676	-8648	3087	-24757	340	-16016	5072	-7216	-413	-2358	-870	-9916	9148	9832	2320	3035	-351	-15792	2880	-6152	1481	-10	318	-15816	-1808	1864	-569	2074	-556	141	134	1
-9796	-5344	11056	-2150	-32768	-26479	-3748	3104	-8408	-2592	-30098	941	-14752	3672	-7848	-418	-2311	-688	-9824	8948	9700	1820	2427	-721	-14352	8024	-3904	1714	-112	406	-14856	792	2712	-325	2061	-99	122	127	1
-9152	-4148	10668	328	-32768	-27542	-5632	2740	-6864	-7503	-32768	-148	-11712	4096	-8576	-621	-2059	-841	-9872	8520	9856	1563	2093	-1053	-13384	9680	-2568	515	305	162	-14816	1504	2600	-282	2054	-111	133	128	1
-10052	-408	11664	980	-32768	-27428	-6240	64	-5788	-3764	-32768	343	-9232	688	-9248	-639	-1801	-955	-9788	8148	9940	1252	1964	-1058	-13976	7352	-2424	-471	716	-66	-14744	3736	1432	-205	2012	-245	157	129	1
-13172	-380	13472	-868	-32768	-26731	-9240	-1368	-7072	6842	-32768	1578	-6248	-376	-10464	99	-1263	-622	-9948	9224	8484	295	1851	-1446	-13376	6568	-3968	-139	727	-123	-14224	5600	2320	-9	2088	-147	133	125	1
-18116	-2156	15776	-2271	-32768	-25288	-10324	648	-9280	12525	-32768	4600	-6344	-128	-10704	1216	-970	-514	-10076	9080	8268	-1766	1281	-2312	-12528	7224	-7032	210	626	-63	-12136	5152	4832	-196	2316	263	125	123	1
-21488	-3056	17520	-2691	-32768	-23712	-10076	1248	-9496	12153	-32768	5209	-5200	888	-13256	2663	-569	-603	-9976	9172	9200	-2888	1227	-2752	-14552	5448	-3808	492	571	-82	-11264	1456	8912	-917	2962	251	125	127	1
-24692	-4308	19956	-3181	-32768	-24023	-15160	2500	-10932	3577	-32768	9328	-3400	2968	-13368	3455	-206	-494	-10264	7664	10232	-2021	954	-2985	-16584	4560	-3104	767	614	-83	-15912	240	3768	-142	3416	-192	121	132	1
-28492	-6088	22888	-3420	-32768	-26069	-20556	1372	-10744	2195	-32768	11467	-2296	3368	-10360	3214	157	-394	-10100	8016	10608	-1434	2021	-3233	-15856	6128	-2728	763	794	-108	-18320	592	-216	961	2586	-192	125	130	1
-32768	-10572	27160	-3272	-32768	-27998	-28352	-412	-14396	2317	-32768	13261	-3168	1920	-6920	2883	312	-206	-10240	8236	10764	-601	3188	-3484	-15904	6280	-3640	398	1028	-235	-19408	2240	1328	-477	1740	-172	123	132	1
-32768	-7604	26572	-2584	-32768	-30802	-32768	-216	-7208	-8347	-32768	14685	-7632	-3416	1296	1683	191	-22	-10644	8760	10552	-587	4020	-4363	-16352	6792	-4608	591	1101	-288	-16688	4624	6072	-1422	2125	-155	121	133	1
-32768	-11920	6832	-4265	-32768	-32768	-26264	-1412	-13016	-19255	-32768	10831	-29464	-2312	19528	1402	-2604	-275	-11552	10168	11704	-1144	4802	-5259	-15200	8104	-2048	959	1195	-363	-15296	1272	8216	444	2197	2	100	129	1
-32768	18972	-18436	-13196	-32768	-19918	-20060	8148	-21200	-31593	-32768	-6674	-32768	21536	32767	3247	-1636	-1313	-10720	9448	12204	-1557	7101	-7967	-16616	8792	-56	1029	1550	-581	-17600	2272	8112	750	1730	154	110	129	1
-32768	32767	-32768	-32768	-21681	-17933	4384	-11856	-7444	-32035	-10832	-3682	1328	10952	32767	-2270	-715	2018	-10944	7144	15404	-1428	11223	-9605	-18968	8912	-2472	520	2049	-972	-20120	7152	7056	132	1409	151	122	132	1
-32768	32767	-32768	-32768	-18234	-17011	-580	-10724	-13952	-5550	15573	650	-29584	1416	18392	-3027	-1982	756	-10904	11228	14916	-571	16280	-12654	-22424	7440	-2304	463	2344	-1180	-21416	5136	6320	541	911	-207	101	133	1
-32768	6408	-12844	23242	3940	32767	-13116	-5312	-18644	9219	30453	-6018	-9568	-3112	12856	-2825	-1233	-131	-11024	13296	13772	323	21020	-19619	-22376	6128	-2464	1132	2437	-1115	-20576	-1408	7664	665	0	-230	125	132	1
4748	-32768	25064	20528	6011	25039	-32768	-1780	16844	29820	30336	-3040	-6104	2280	1720	-2915	714	240	-10688	12436	15988	861	26859	-25511	-25672	7208	-2680	1615	2466	-1103	-22144	-616	16104	760	-508	-56	125	129	1
21844	8368	20464	9962	32767	3780	-32768	17068	-5968	32767	20249	1277	-19184	3960	13920	1304	873	-326	-9512	17616	18476	1334	32767	-31674	-32768	11272	5304	2347	2299	-1107	-26896	6008	24456	1660	-1232	-99	142	131	1
-32768	18068	32767	12490	32767	3768	-29360	3356	-17052	32767	27016	2131	-32696	-17888	-560	1348	-293	-1560	-14968	21624	20836	2178	32767	-32768	-32768	17024	10472	3739	2012	-1245	-27664	-1000	20136	2897	-2476	-700	159	132	1
-5580	-4036	11188	-2038	23100	15950	-6480	13960	-17296	15727	22664	-12988	-8544	32767	-31440	224	2715	386	-32768	25184	16248	11054	32767	-32768	-29208	26176	-4920	4016	2361	-1446	-25616	4088	6208	1462	-2577	-812	142	129	1
-32768	-15828	312	12364	12609	19737	-10512	-29928	-9560	-6859	21067	-11961	-7064	-3680	-6984	-1422	-1077	1224	-32768	31252	12976	2777	32767	-32768	-21888	21968	-5840	2840	2325	-1711	-29528	12488	-15712	1292	-2256	82	120	139	1
-21044	2072	15220	7528	2459	10608	-23340	3108	-15096	2061	11775	-13237	-32768	-7360	-14840	-429	1362	-106	-26004	31568	19608	1162	30208	-32768	-20072	8560	-11432	750	2771	-1574	-32768	6024	-7536	-393	-3181	692	94	136	1
-12524	-5368	12056	1806	802	1769	-15236	-2556	-10336	-22594	13937	-8212	-21240	-1824	-9984	-1256	1347	-391	-32768	940	13404	8655	12662	-32768	-16520	3312	-22176	-1154	2115	-1310	-32768	-2088	-4056	-1049	-3074	793	137	129	1
-11576	-3952	12268	2602	887	2188	-16268	-3708	-10488	-30608	14512	-8336	-16264	-7144	-5872	-1211	1871	460	-14492	32767	12256	13282	-30200	-1381	-13096	-1256	-11856	-510	271	-464	-32768	-6768	-6632	36	-3043	536	140	146	1
-11020	-3604	12724	1318	2144	534	-18432	-8792	-7812	-10984	9083	-3945	-21144	-1576	-1424	192	1989	743	8460	24684	6396	-1769	-32768	4605	-9280	-2632	-1240	1118	-1421	556	-30008	-2672	-5608	756	-3108	861	133	128	1
-11492	-4888	11524	82	1931	169	-17436	-2860	-7224	3412	5589	-2354	-19560	-600	-3160	586	2296	583	4548	13796	4804	-6000	-26281	8151	-5880	-1952	-5064	884	-2080	954	-22824	-1136	-6736	1460	-2754	1150	127	134	1
-11540	-3348	12416	-281	1698	-323	-18060	1072	-6740	-1850	3441	-2054	-17872	-1048	-1064	832	2400	321	-920	7344	5292	999	-22665	19419	-4728	-1288	-6328	8	-2612	1282	-15472	-216	-7264	1354	-2258	1270	115	131	1
-11532	-5320	11724	-1072	1653	-606	-15428	2048	-5124	-10234	3543	-1098	-16656	1024	-648	1022	2322	405	-4256	7784	5960	9766	-21552	31629	-5192	-1248	-6848	-548	-3126	1587	-13904	656	-8624	764	-2070	1040	123	130	1
-11364	-5128	11264	-1420	1633	-249	-15224	1068	-3428	-18838	4324	-2281	-15832	1688	-232	737	2122	292	-6664	11616	6388	9593	-21920	32767	-5048	-240	-5096	-891	-3560	1959	-11616	-728	-8368	301	-1854	924	121	130	1
-11292	-5304	11288	-1298	1547	236	-16416	-2268	-2200	-16874	4351	-2833	-15440	-1392	-1320	520	2143	206	-9740	11260	7480	5030	-23842	32767	-5488	1752	-4272	-1438	-3751	2262	-8816	-1128	-8152	7	-1353	733	135	132	1
-11508	-4388	11276	-686	1648	407	-15000	-5296	-2052	-1451	3536	-985	-14832	-3072	-2872	419	2450	50	-12216	8560	9832	4355	-26180	32767	-7728	2728	-4904	-2293	-3917	2429	-6392	-1328	-8544	-102	-1039	719	147	126	1
-11648	-4220	10564	-129	1293	241	-13676	-60	-6296	4449	3542	-80	-13632	-1152	4624	391	2353	-81	-13880	8520	11620	7656	-27393	32767	-10416	2984	-5704	-3305	-4067	2464	-5208	-656	-9848	-676	-793	709	127	128	1
-11356	-4884	10616	-422	593	364	-15108	3192	-4404	-5745	3596	-1307	-11240	5832	9776	591	2264	-203	-16304	11232	13044	10302	-27338	32767	-13024	2160	-6872	-3993	-4275	2462	-4720	-1224	-10296	-1569	-604	690	128	127	1
-11552	-4988	10652	-310	301	905	-14960	-836	-2952	-12795	4716	-2322	-12072	1544	6888	-216	3587	-103	-19712	14608	15520	10308	-26581	32767	-16104	1864	-8320	-4276	-4614	2346	-4832	-3600	-9648	-2161	-462	661	121	131	1
-11260	-4956	11260	-1	223	1267	-16240	-540	-1952	-8839	5286	-2037	-19536	-5352	-624	-2386	3409	551	-23556	16352	18100	9290	-24780	32767	-20208	2056	-9104	-3973	-5096	2223	-4488	-5520	-9432	-2335	-370	360	119	130	1
-11332	-4236	11868	-367	1049	1236	-17168	388	-2480	-5835	6217	-1951	-20824	-2448	-5656	-343	2318	10	-28820	19280	21208	8739	-22168	32767	-25016	4432	-9568	-3301	-5457	2159	-3600	-4744	-7560	-2491	-295	-73	136	126	1
-11408	-5136	11844	-1018	2029	1115	-16600	536	-3340	-6267	7343	-2071	-17936	-3120	440	1258	1631	-241	-32768	25780	21124	6788	-21536	32767	-29632	9504	-13048	-3196	-5560	2252	-7072	-2320	-624	-2582	-914	-70	147	127	1
-11428	-4752	11520	-1263	2832	1405	-16296	-444	-1316	-8018	8565	-1496	-13296	-3624	11600	175	2136	-98	-32768	14184	20348	4937	-22370	32767	-29512	6480	-14088	-3550	-5165	2389	-15568	5568	13744	-2906	-2169	342	137	131	1
-11700	-4836	11772	-859	3758	1914	-15268	-2920	2736	-4923	10823	-567	-15728	800	6344	-843	1996	98	-32768	-4848	5428	20123	-17188	32767	-25752	-112	-10312	-265	-5202	2645	-28368	1776	30968	-3159	-3347	603	130	144	1
-11576	-5704	12668	-184	5523	2594	-16788	-3256	2928	-6	14222	151	-21056	-3264	6224	-9	1639	-289	-32768	-28020	-9536	32767	-13102	32767	-9016	8232	-25024	980	-3410	1978	-6680	-8376	32767	-1117	-490	247	126	135	1
-11908	-5896	14292	474	8717	4352	-20312	704	-4	2898	17133	367	-19200	-6720	7344	-315	1256	-193	-32768	-32768	-16736	32767	-8689	18409	-656	5920	-14432	4423	-1330	1127	-13976	-14128	32767	3107	-216	-812	126	128	1
-12372	-3924	16356	581	13755	5130	-21284	-704	-1920	4000	19812	1650	-21320	-5208	1320	-607	1115	192	-32768	5764	-17796	5235	-7932	-15789	-9624	17448	-15608	3894	1172	-109	-22320	3952	17208	5785	-2631	121	127	134	1
-11712	-5964	16140	-976	19527	6298	-21700	-492	-1920	4244	20208	1727	-22448	-1424	3256	-716	585	182	-32768	-2344	-2068	-19282	-12560	-32768	-11280	9088	-19384	-417	4714	-1434	-14360	17912	2384	2737	-1010	1096	116	134	1
-11444	-6496	15556	-2300	25726	9579	-21320	3004	-1632	2013	23994	1613	-19248	1816	6880	-915	165	50	-12188	32767	24864	-32768	5191	-32768	-32768	-3600	23448	-446	3540	-1627	-4304	21816	-6752	409	1130	1103	135	133	1
-10768	-6080	17012	-2857	32767	13823	-23864	3752	-1112	244	25935	1200	-22440	128	9640	-1283	57	-3	28820	2448	12024	-30670	12576	-20874	-32768	144	12312	1186	2624	-836	-21312	3408	10440	-3846	1173	1457	111	136	1
-9764	-9328	17880	-947	32767	20876	-30340	6788	1420	213	26973	932	-26272	-2352	15224	-1123	-284	207	-32768	-11740	32767	-12475	32767	-16345	-32312	1688	-25776	-4040	4820	-3221	-27680	12064	16152	-4884	281	-806	127	122	1
-16104	-14512	18244	-2908	32767	27848	-32768	10740	10028	-9910	28374	-125	-27304	1568	29456	-1482	-2941	956	-9916	10948	10652	-1941	13655	-22883	-14120	-4552	-15848	-3380	4451	-1940	-20128	-32768	-22952	1012	2861	-1445	133	139	1
-32768	-9072	16636	-11977	32767	32645	-32768	1624	2164	-17811	32767	-1477	-23088	184	5120	-3866	-4924	1495	-26480	2912	8088	-19824	8412	-20856	152	2608	-22456	1327	2302	617	1448	1336	-7312	5154	-823	998	116	137	1
-32768	-9120	16416	-21498	32767	24535	-32740	-13036	-2344	-18873	32767	4501	-28496	-6952	-8032	-1816	-2371	-46	-17440	14096	10868	-12033	230	-11257	-25312	-6336	-18744	416	2172	-176	-24656	14536	-14704	2279	1267	-890	119	131	1
-32768	-27496	17664	-23426	32767	22524	-23732	-6812	-3260	17356	28531	7542	-30328	-12280	-21128	-392	-2746	-937	-12268	2724	13756	-4346	2770	-3168	-18480	-72	-14616	3143	979	39	-31048	3168	-8960	1057	1589	-59	123	112	1
-29192	-15988	16412	-12363	32767	32767	-18012	-9320	-21396	14467	21142	7448	-32504	3104	-5992	1364	-3380	-1046	-9064	8560	10968	-3130	1724	-2838	-15784	8000	-10584	4319	256	75	-16056	5296	-4040	556	1862	-221	136	120	1
-24256	-32116	20792	528	-20739	6912	-19360	2040	-17464	13772	7239	1851	-32768	3120	-4992	1684	-3544	-928	-9596	8096	11556	-792	2373	-1505	-14152	11208	-8680	1135	816	-198	-18112	824	-1424	-160	2000	46	151	136	1
-1684	-22840	18456	15961	-32768	3619	-9656	1064	-3664	7884	-7002	2439	-32088	3176	-5968	500	-3230	-1330	-9672	8268	10944	222	2488	-1042	-15920	6616	-7856	-1735	1313	-412	-18768	-472	-1568	-106	1991	-245	144	123	1
5788	-7048	13704	15307	-32768	3820	-3224	292	-4380	4594	-14163	95	-24928	672	-5824	-15	-2797	-668	-9704	8504	10592	1269	3213	-941	-18216	2576	-8744	-1635	957	-202	-19888	3096	-560	-306	2003	-517	132	127	1
-2356	-3196	10672	4688	-32768	-4372	-3812	864	-7948	6616	-20583	1923	-19784	1432	-7232	-563	-2492	-851	-9848	8480	10552	1444	3303	-872	-16544	1032	-7248	276	337	10	-16824	2592	224	-486	2134	-554	124	136	1
-5828	-7424	9628	-2870	-32768	-13042	-3828	988	-8484	-682	-25764	2718	-17256	1904	-9080	-422	-2291	-745	-9864	9472	9600	1677	2632	-533	-14880	6640	-5552	1609	-104	287	-15392	2168	1576	-618	2142	-257	135	146	1
-7744	-9148	8588	-2602	-32768	-17951	-5168	1400	-7936	-5775	-32652	4848	-14664	2240	-10048	-228	-2351	-905	-9844	9080	9756	1374	2133	-837	-14152	9480	-3920	1032	75	162	-15352	1640	2616	-642	2132	-306	119	119	1
-9572	-7808	8288	79	-32768	-21830	-4932	164	-6696	-5659	-32768	3722	-10744	1040	-10000	167	-2176	-897	-9716	8648	9900	1254	1911	-1053	-14152	7704	-3088	-53	439	-28	-15400	816	2576	-544	2089	-325	131	150	1
-13236	-5540	9860	413	-32768	-25889	-6912	8	-7272	-5159	-32768	3911	-8008	2104	-9696	274	-1620	-629	-9932	8032	9728	1141	2046	-1021	-14328	5048	-3200	-202	596	-114	-14264	1504	1760	-203	2048	-235	137	124	1
-15876	-5968	11860	-886	-32768	-29222	-11432	-1896	-7848	-823	-32768	3970	-7088	1088	-10392	577	-1188	-523	-10028	8952	8968	630	1943	-973	-13104	6344	-3128	404	515	-90	-14120	4688	448	297	2118	-214	128	118	1
-20432	-8196	14228	-1356	-32768	-29873	-11420	-2948	-9108	7039	-32768	5711	-6392	1008	-11208	1276	-854	-571	-9924	9028	8404	-334	1524	-1435	-12480	8000	-4920	336	625	-146	-13192	4808	4792	186	2393	103	129	116	1
-25004	-8492	16660	-1843	-32768	-29579	-13876	-1072	-9672	10096	-32768	5961	-5216	1896	-12968	2560	-524	-560	-10120	7744	9360	-1145	1480	-1591	-14832	5152	-4664	69	690	-187	-10904	768	9056	-965	3091	275	123	132	1
-26788	-7284	18204	-4369	-32768	-31289	-19092	916	-9448	8500	-32768	7741	-3072	3944	-11800	3007	-161	-345	-10208	8624	9476	-1446	1681	-1716	-15184	5304	-4560	464	674	-123	-13872	-936	3736	-151	3740	-147	122	128	1
-30152	-8536	22388	-6131	-32768	-32562	-23096	-468	-10740	9810	-32768	10655	-2632	4176	-7600	2796	0	-205	-9768	9008	9956	-1642	2125	-2002	-15040	5640	-2880	686	734	-102	-18456	296	-2072	926	2704	-136	127	131	1
-32768	-12840	26504	-5983	-32768	-32768	-30348	-204	-17068	8336	-32768	12542	-4712	-616	2720	2448	-603	-24	-10028	8564	10344	-1305	2876	-2508	-15008	6312	-3040	650	910	-160	-19264	4360	-248	-951	1565	-71	131	132	1
-32768	-2596	19528	-7661	-32768	-32768	-30952	3436	-13568	-10649	-32768	12753	-13224	-9712	12776	546	-1830	-60	-10584	8276	10300	-664	3840	-3101	-15288	8272	-3912	525	1126	-282	-15824	7656	7448	-1255	1820	-54	127	132	1
-32768	-9716	1100	-9544	-32768	-32768	-21688	-3712	-17720	-17863	-32768	7762	-25184	4256	12048	1464	-1889	-775	-10300	9928	10440	-1043	4931	-4259	-14440	9832	-2352	715	1289	-438	-15528	2408	8832	424	1966	-101	123	133	1
-32768	11004	-14664	-7624	-32768	-21363	-19680	-3292	-22460	-30230	-32768	-4085	-14200	3896	32767	915	-573	-744	-10744	11376	11484	-2270	6711	-7067	-17096	10376	-1624	893	1577	-595	-19848	2360	7552	515	1673	220	153	133	1
-32768	32767	-32768	-28910	-25248	-13988	-4328	-6380	-9684	-27938	-10963	-5554	-10928	4904	32767	-1002	-722	1067	-11016	9064	14992	-2182	10290	-10119	-20168	9096	-2592	764	1980	-857	-21872	4576	7472	565	1237	276	112	134	1
-32768	11212	-32768	-9403	-26	8438	-376	-9492	-13384	510	12627	-1946	-24472	-7760	18224	-1575	-1382	234	-10952	10972	15636	-659	14940	-13941	-22656	7560	-2728	933	2226	-1020	-21760	2480	7208	1185	737	46	126	130	1
-32768	6528	-15504	20910	10002	22433	-13804	-9096	-20152	21908	26995	-4329	-9776	-6768	15064	-823	-1093	-692	-10776	12332	14788	425	20292	-19625	-22784	6376	-3096	1419	2368	-1043	-20256	-112	6984	1168	92	-79	124	130	1
-18576	-9604	18980	24081	23424	15566	-22564	4024	4348	32767	30699	-1777	-7184	488	976	-996	746	-489	-10284	11964	15960	1142	25563	-23995	-25176	5888	-3648	1632	2468	-1023	-21664	-112	12880	1282	-451	-78	136	128	1
9608	-23856	32568	19285	16952	18140	-32768	10512	12248	32767	12899	-2061	-19584	8216	12792	1217	1114	205	-10768	16064	18616	1576	32767	-29333	-32768	10584	2280	2420	2298	-1000	-27960	6672	20912	1749	-1161	-131	130	130	1
-32768	24864	28032	9881	32767	6338	-23424	16912	-27712	32767	26478	597	-30880	-32768	5552	1082	-157	381	-12200	22640	20476	1627	32767	-32768	-32768	17592	11432	3747	1999	-1099	-26872	768	24864	2748	-2408	-687	155	131	1
-11312	4500	19048	399	21528	21054	-16452	5560	-11324	6922	26893	-10370	-13904	32767	-16240	1330	2222	-198	-32548	20412	20104	11048	32767	-32768	-31016	25600	-2096	3825	2451	-1468	-24160	600	14144	1185	-2756	-793	137	132	1
-31956	-30876	12528	9702	29214	9916	-10916	-9344	-10536	-8203	21550	-12001	-4488	12552	-1776	-1946	-733	-369	-32768	28464	15556	7054	32767	-32768	-23664	23216	-2712	2846	2373	-1665	-26904	12488	-11592	1348	-2349	20	145	120	1
-15804	-1080	14212	8925	6406	14100	-18836	-6988	-21924	7032	14877	-17597	-25528	-10648	-15384	-2493	934	254	-29028	32767	17632	1766	32767	-32768	-20632	7824	-7536	1700	2589	-1591	-32768	8360	-8984	-117	-3076	772	101	138	1
-16192	3068	13932	3143	2856	3583	-15192	960	-13788	-3398	13841	-5337	-20360	-8152	-8912	-1171	1248	-205	-21820	11164	13092	12653	28176	-32768	-15368	7344	-18096	-551	2220	-1199	-32768	-1656	-3496	-1065	-3154	727	150	134	1
-11596	-7728	11796	2377	-339	1496	-15368	-3912	-7608	-13585	12804	-7857	-19016	-5024	-6936	-316	1628	319	-23264	32767	11800	16743	-22418	-1185	-13256	-720	-16096	-614	614	-689	-32768	-7792	-6088	-139	-3098	451	128	127	1
-11084	-3840	12520	1854	1950	1467	-16660	-3452	-8544	-13823	10620	-5596	-17680	-1560	-3280	82	1902	632	6496	27664	7048	-1785	-32522	7250	-13216	-968	-12248	-304	303	-473	-31568	-3936	-5088	685	-3210	765	141	132	1
-11080	-3152	12536	384	2578	639	-18804	-3440	-7744	-5021	7522	-3208	-18024	-288	-1496	326	2159	295	6044	15504	5380	-7556	-26857	9198	-5680	-1456	-5352	1056	-1945	1006	-24960	-1096	-6360	1619	-2842	1079	130	170	1
-11368	-3436	12292	-397	1825	354	-17964	196	-7640	-6910	5066	-3635	-19048	-1144	-2072	463	2116	318	-108	6892	5940	-977	-23468	18321	-4256	-992	-5928	-145	-2458	1366	-16840	-352	-7608	1623	-2400	1179	121	127	1
-11416	-4312	12388	-791	1734	-315	-16864	580	-6016	-12381	4103	-2825	-16936	-800	-1216	684	2149	384	-3388	7404	6624	8461	-23136	29766	-5520	-1832	-6280	-809	-2937	1642	-13672	1040	-8600	1018	-2045	957	126	132	1
-11396	-4308	11928	-1195	1928	-448	-15724	0	-4832	-12492	3581	-2116	-16544	368	-16	839	2142	316	-6508	11016	7264	9636	-24137	32767	-5280	-1272	-5864	-1018	-3512	2011	-12328	-792	-8352	534	-1759	943	126	130	1
-11396	-4716	11556	-1208	1710	-379	-15320	432	-3568	-13342	3792	-2238	-15520	512	520	661	2166	248	-9124	11028	8392	5395	-26142	32767	-5728	688	-4232	-1358	-3832	2312	-10472	-1400	-8984	229	-1531	776	105	135	1
-11352	-4324	11348	-1125	1545	-74	-15252	-1148	-3444	-11350	4081	-2428	-14576	-760	-792	342	2270	195	-11284	8808	10600	3555	-28124	32767	-8488	1912	-4592	-2029	-4076	2491	-6720	-1424	-9072	-5	-1102	686	138	130	1
-11432	-4544	10984	-592	1186	70	-14764	-2216	-2792	-4735	4030	-2016	-14048	-2392	-2736	-41	2555	201	-13316	8056	12764	6743	-28913	32767	-10592	1800	-5360	-2988	-4261	2513	-6248	-984	-9568	-480	-826	610	137	131	1
-11380	-4160	11000	157	710	263	-14396	-1176	-5256	-410	3803	-1372	-12328	-2328	4360	-69	2923	291	-16460	10788	14076	10153	-29151	32767	-13296	-152	-6480	-3715	-4458	2543	-5320	-2608	-10776	-1285	-727	480	126	131	1
-11636	-3856	10456	8	234	662	-14336	-996	-6060	226	3651	-1278	-12632	4832	9456	184	2942	-572	-19984	13232	16444	12067	-29428	32767	-16248	-1368	-6960	-3666	-4785	2589	-4136	-5400	-9888	-1986	-651	221	130	129	1
-11284	-4476	11232	618	62	1025	-16084	544	-3488	-12174	4044	-2786	-13960	1992	6280	-237	3887	9	-23220	13748	19256	14332	-28317	32767	-19688	-736	-7184	-3082	-5284	2682	-2976	-7592	-8776	-2094	-547	-162	114	127	1
-11048	-4940	11300	625	-244	1524	-15236	-524	-1524	-10375	5053	-2180	-19304	-4400	-4624	-1195	3287	129	-26864	17252	22036	16505	-25530	32767	-25072	3664	-8496	-2465	-5579	2779	-2288	-6848	-7176	-2237	-505	-594	149	128	1
-11008	-3960	11912	174	286	2106	-16284	684	-1588	-6506	5873	-2299	-20824	-4256	-6304	911	1768	-121	-32768	25252	24984	13455	-23000	32767	-30824	9480	-13984	-3368	-5513	2760	-6768	592	1656	-3185	-1041	-472	135	163	1
-11168	-4136	11960	-464	1310	1603	-16528	1856	-608	-8474	7917	-1783	-16008	-4384	12328	1128	1790	-436	-32768	8376	25072	10818	-20437	32767	-31448	6648	-12000	-3195	-5396	2044	-16096	8392	8328	-3085	-1620	156	134	129	1
-11272	-4340	12188	-741	2612	1238	-16568	-1836	2960	-6367	10213	-739	-15504	-4688	13992	900	1872	-375	-32768	12012	3552	1755	-14420	32767	-25832	6344	-25512	-3109	-4588	1472	-21568	6312	21072	-2511	-2758	1340	133	126	1
-11156	-5764	12928	-227	4540	2426	-16796	-4012	5004	-764	13919	-220	-21512	-200	6816	-378	1723	-31	-32768	-24576	-13520	-4834	-16936	31892	-11488	-3000	-16096	-1110	-2822	975	-9816	280	32767	-3894	-2148	-168	131	139	1
-11300	-6276	13804	340	7227	4345	-18116	-808	1980	2096	17681	-59	-19152	-4864	8216	-571	1043	-340	-32768	-32768	-15456	2014	-16836	27038	-520	11720	-12400	2869	-685	737	-16624	-22736	32767	-38	87	-1480	128	139	1
-12380	-3804	15784	1201	10960	5473	-19396	-2556	-2412	3947	20541	985	-18968	-7256	3072	-925	892	-8	-32768	9200	-12768	-4159	-7121	-23346	-10704	11560	-20808	611	1905	-667	-23768	-6104	10808	3207	-1613	366	125	137	1
-13064	-8408	16640	1154	16205	8378	-23700	-2032	-3472	3958	22361	1696	-22632	-5584	432	-964	601	159	-32768	-10472	1908	-29560	-9048	-32705	-13352	-3088	-22576	-471	3672	-1646	-13832	4144	984	3094	-1303	388	128	138	1
-11996	-8072	16584	-390	22164	13575	-23656	2844	-3068	193	24127	879	-21552	208	3792	-905	8	-35	24088	29048	4572	-16269	2419	-26415	-32216	5208	21912	1309	3462	-734	-4480	712	2032	3347	-468	599	126	126	1
-11896	-4756	18312	-512	29500	15982	-23668	3420	-2676	-740	25828	644	-21264	-1336	9136	-1004	-25	7	11360	-2708	21192	-12270	28012	-28041	-32768	-4144	536	3376	2557	-659	-16208	208	32767	-2039	650	21	112	127	1
-10676	-5944	20852	-58	32767	20905	-29560	4868	-1932	3794	26223	1484	-26720	-1824	14080	-758	-162	158	-32768	1780	32116	-5305	32767	-15495	-15392	11168	-14848	-365	4037	-2419	-29200	2280	-3856	-1658	1011	448	131	111	1
-7856	-12476	22756	-1320	32767	32288	-32768	12492	7656	-4825	27131	-440	-27712	2232	27968	-1266	-2051	802	-7536	14952	6664	1427	16112	-23812	-11352	-2400	-12624	-1742	3670	-1563	-15768	-27056	-23592	3011	2333	-1054	128	122	1
-30148	-14156	17436	-3810	32767	32767	-32768	4692	8004	-19623	31684	-1970	-26072	6728	21112	-3362	-4724	1418	-22164	4260	4808	-15862	4313	-18043	-6704	9672	-21872	1063	2262	142	-1776	8272	-8600	3244	172	-33	123	104	1
-32768	864	13984	-19332	32767	27823	-28968	-8288	-5536	-21646	32147	764	-25128	-4944	-80	-2684	-2222	301	-21756	6792	12828	-9208	410	-10745	-23808	-4928	-19152	-406	2238	-387	-30552	12064	-12488	598	986	-155	138	125	1
-32768	-17072	8748	-28859	32767	21121	-25996	-8368	-4796	-3141	30043	5066	-30304	-15240	-19080	-1643	-2393	-140	-12424	8632	11000	-3921	2195	-3174	-16256	2512	-12680	1323	1742	-297	-24168	-3120	-7400	259	1656	-297	119	109	1
-16680	-32768	20688	-15794	32767	32736	-17396	-11584	-17464	7085	24896	5959	-31328	400	-13560	459	-3016	-1017	-9900	8852	10320	-2642	1562	-2374	-16304	1064	-10272	2910	832	-41	-15720	1192	-2680	712	1754	66	119	138	1
-32768	-32768	23636	1311	-7212	16993	-18328	-776	-23532	11599	10879	538	-32768	2488	-3768	1871	-3487	-1078	-9644	6616	12188	-1356	1938	-1549	-15696	9936	-7368	2426	544	34	-18032	3368	-1384	329	1848	166	143	146	1
-6628	-24472	18244	13462	-29454	3847	-13508	1192	-6212	11624	-1092	2325	-30712	1616	-5624	1061	-3089	-1309	-9560	9456	10092	-44	2267	-1472	-14528	9008	-9296	-700	1140	-335	-19184	1256	-1632	-72	1885	-256	135	129	1
5436	-10668	13728	17027	-29167	-643	-4152	-152	-4244	8585	-9472	904	-26928	1368	-4768	-24	-2970	-1505	-9864	8220	10824	726	3093	-709	-17800	2168	-8952	-1602	1041	-364	-19976	2432	-1488	-312	1830	-561	148	111	1
2480	-5632	10592	10988	-25402	-8621	-5340	1288	-7000	10658	-17007	2659	-21608	-496	-6536	-375	-2279	-1052	-9776	9088	10264	1548	3062	-206	-16752	2576	-8024	-237	523	-86	-18648	2512	-1152	-521	1933	-725	124	133	1
-5584	-6144	10064	2827	-27867	-18348	-4080	600	-9216	8662	-22633	3596	-19304	2704	-8296	-338	-2168	-1083	-9888	9576	9936	1728	2649	-209	-15800	3984	-6888	1137	49	118	-16456	1056	1016	-576	2048	-421	134	130	1
-10004	-9732	9740	1975	-32768	-24301	-3716	956	-8540	4508	-28800	5192	-16416	2888	-7848	104	-2188	-1021	-9876	9056	9780	1857	2072	-534	-15120	7040	-4896	1336	-95	200	-16216	584	2424	-573	2080	-170	130	132	1
-10620	-8936	9052	5974	-32768	-26051	-5604	852	-7844	-976	-32768	4082	-14016	2616	-8096	568	-2034	-986	-9808	8760	9908	1880	1911	-671	-14752	7560	-3768	559	145	80	-15656	320	3536	-462	2068	-256	114	133	1
-10716	-4040	9716	6708	-32768	-26632	-7108	1672	-6360	-2522	-32768	3643	-10048	3752	-8264	221	-1947	-992	-9824	8524	9676	2144	1871	-732	-14520	6464	-3256	-77	396	-29	-15152	1192	3368	-184	2003	-337	140	136	1
-13692	-2132	11468	2987	-32768	-27939	-8828	-756	-7284	844	-32768	4629	-8016	2072	-9128	494	-1491	-774	-9964	8848	9072	1824	1610	-916	-13768	6456	-3856	103	438	-63	-14320	3976	1896	111	1978	-286	137	125	1
-17572	-4760	13364	-429	-32768	-27644	-11712	-2036	-8628	7514	-32768	4834	-7120	800	-10232	1364	-1230	-627	-10036	9512	8244	684	1155	-1195	-12512	7328	-3632	470	403	-93	-14256	5600	1136	179	2031	-169	132	126	1
-21280	-7036	15340	-1150	-32768	-25503	-11724	-2040	-8844	8332	-32768	5331	-6160	1896	-11080	2238	-846	-637	-10556	8708	8344	-768	861	-1295	-12640	6736	-3960	300	557	-170	-12768	4088	3672	-109	2187	67	127	129	1
-23776	-6856	17448	-1946	-32768	-24400	-14816	1360	-10000	3843	-32768	6893	-5528	3928	-11088	2928	-507	-507	-10076	8072	9092	-1850	887	-1660	-14456	5360	-4248	54	664	-200	-11992	632	8000	-904	2733	250	124	117	1
-27140	-7504	19972	-3651	-32768	-26020	-19328	1124	-10344	2065	-32768	8510	-2896	4376	-9160	2880	-54	-341	-9356	9144	9516	-2109	1254	-2014	-15056	5392	-4784	177	724	-160	-12872	-256	6280	-861	3513	-41	121	133	1
-32668	-9488	23012	-4195	-32768	-28314	-23452	588	-10904	-279	-32768	9728	-2992	3984	-6264	2350	10	-255	-9912	9088	9552	-2183	1691	-2330	-15472	5504	-3256	295	816	-230	-16840	560	-816	614	2984	-110	123	133	1
-32768	-11676	24568	-2433	-32768	-28308	-29744	1780	-13284	-1402	-32768	9560	-4568	544	-2360	1863	-215	-82	-10256	8624	10464	-1641	2240	-2635	-15624	4824	-3392	486	916	-201	-19392	1384	-1248	-756	1957	-66	124	135	1
-32768	-108	18000	-6935	-32768	-32768	-30488	1944	-16204	-12835	-32768	8589	-12784	-3856	14392	1001	-1086	-13	-10460	8508	10212	-639	3131	-3055	-16064	7080	-3272	569	1043	-271	-17408	5560	6328	-1430	1864	-80	126	134	1
-32768	-8228	-1436	-9688	-32768	-32768	-22200	1600	-19064	-18206	-32768	4224	-26464	5648	20952	1576	-2402	-1014	-10152	9632	10684	-858	4606	-3968	-14352	9352	-1168	578	1294	-431	-14920	1408	9840	244	1932	-81	127	129	1
-32768	29224	-22204	-19533	-32768	-19166	-14504	-2736	-18404	-32768	-28146	-10625	-12480	1280	32767	-53	-341	-784	-10356	11600	10912	-2232	6127	-6579	-15976	9856	-1320	614	1648	-593	-18248	1568	7536	570	1704	236	129	129	1
-32768	32767	-32768	-32768	-23039	-13653	2972	-12816	-5540	-18425	-1703	-844	-14368	3016	32767	-1194	-1122	1490	-10984	9764	14208	-3173	9527	-9766	-19888	9480	-3920	453	2014	-891	-21752	8400	4464	456	1278	197	123	129	1
-32768	-384	-32768	1425	1445	24728	-6832	-5656	-15156	8268	16802	-1255	-23648	-3840	14648	-2317	-1516	159	-11356	11736	14696	-2308	13527	-14097	-21800	8112	-3104	787	2135	-1021	-21616	3528	4040	932	617	-24	134	130	1
-32768	10524	-9148	24528	10159	32767	-15088	-3500	-21560	25122	30159	-3005	-11152	-4384	12528	-919	-1485	-302	-10504	13092	14688	-1097	18504	-20405	-23984	5712	-3960	1324	2256	-997	-22216	-1368	6336	968	-53	-68	111	131	1
-2220	2616	32767	18711	8102	9329	-22316	6236	-1072	13913	32767	-1918	-5256	1480	-3576	-1468	550	47	-10340	12132	16276	346	24030	-24112	-25672	4736	-3912	1679	2286	-975	-21872	-1440	12360	1183	-270	-134	136	132	1
8184	-32768	20388	15657	6510	13584	-32768	7216	22068	32767	9695	-2122	-12184	13320	2408	-726	1348	83	-11296	13920	17168	-499	30486	-28560	-32768	8232	736	2112	2215	-1057	-26576	3440	17512	1491	-811	-98	148	130	1
-29432	32767	4144	9447	32767	9636	-11028	2992	-27908	32767	25211	2775	-32768	-32768	15176	1168	-256	-756	-8940	21772	19236	-354	32767	-32768	-32768	13256	7616	3144	1926	-1028	-27136	3896	27912	2683	-2114	-523	160	129	1
-26460	-1080	20388	4730	19054	21028	-28900	9172	-9768	18728	24050	-3999	-17528	22968	9488	557	1061	-702	-31028	16464	19228	6472	32767	-32768	-32544	21336	2088	3975	2170	-1334	-23552	-544	18616	2580	-2453	-1042	148	131	1
-18852	-20644	11728	9023	25844	7692	-9692	-2756	-7524	-4410	22276	-13637	-8152	21472	-11512	-953	2040	529	-32768	28764	14124	6251	32767	-32768	-24352	26112	-1576	3447	2202	-1659	-24336	1032	16384	2132	-2400	-938	114	135	1
-26752	10172	14164	5831	10913	14105	-11620	-7772	-17652	-9674	22126	-14213	-13592	-5400	-6168	-1990	171	660	-32768	32044	14704	-3021	32767	-32768	-19320	13488	-7536	1776	2612	-1860	-31040	13168	-16656	145	-2722	467	174	127	1
-17200	-1512	13960	5070	4480	7580	-21236	-2496	-14252	-594	12456	-6425	-28272	-7776	-12768	-1125	1854	327	14280	32767	16296	8652	23805	-32768	-18088	12184	-11752	-557	2442	-1515	-32768	1896	-3128	-1975	-3292	844	117	126	1
-12788	-6688	11768	1490	1025	679	-15292	-4204	-8720	-10062	11934	-7221	-19248	-5408	-8152	-823	1202	115	-32768	32767	15368	14139	-16775	-10755	-13824	1512	-18600	-1518	1202	-1340	-32768	-6440	-5680	-842	-2966	452	156	130	1
-11448	-3380	12204	1500	2095	834	-15564	-3196	-8584	-12310	10172	-6220	-16600	-3096	-4296	-399	1949	632	1796	31564	9636	-988	-32768	3226	-12344	-320	-2016	465	-724	-167	-31112	-4824	-4608	169	-3137	652	154	150	1
-10532	-4048	12516	264	2690	166	-18480	-2820	-6920	-8734	7337	-3381	-16888	-1952	-2032	176	1944	372	7300	18668	6396	-6629	-31910	6127	-7304	-1552	-3376	1015	-1701	437	-25512	-1288	-4776	991	-2850	874	123	138	1
-11340	-3960	11708	-731	2132	-207	-17656	-1256	-7292	-6263	5141	-3244	-18048	-1112	-1016	450	2187	523	24	11164	5368	-3298	-28735	13912	-5568	-248	-5904	359	-2397	884	-19776	-136	-5920	1383	-2431	1025	127	130	1
-11476	-3920	12004	-456	1642	-648	-16896	88	-5800	-13480	3502	-2778	-17176	-392	-1368	548	2192	378	-3968	10384	5716	3635	-29136	25249	-5928	480	-6584	-62	-3014	1246	-16176	1816	-9504	811	-2252	1150	133	136	1
-11712	-4464	11864	-526	1450	-715	-16104	-1232	-4364	-16033	3543	-2297	-16344	-1056	-280	512	2080	353	-5600	11416	5692	5981	-29022	32767	-6040	1576	-6232	-776	-3450	1623	-13592	1368	-7952	242	-2127	962	128	126	1
-11280	-4404	11812	-710	1232	-788	-15524	-800	-3040	-15320	3683	-1626	-15272	-1616	688	483	2095	251	-7680	11664	6272	3921	-28778	32767	-6440	2016	-5208	-1483	-3723	1902	-11064	64	-8712	24	-1885	842	126	130	1
-11340	-4592	11392	-709	1118	-636	-15560	-1884	-2128	-12578	4146	-1709	-15056	-2288	-264	356	2251	170	-8872	9432	8152	3892	-28235	32767	-8576	3144	-5048	-2261	-3940	2068	-9680	-472	-8952	-203	-1324	896	126	132	1
-11400	-4272	11300	-360	1024	-233	-15096	-2060	-2480	-6537	4145	-1751	-14152	-2096	-240	62	2487	249	-11828	9832	10476	7109	-27239	32767	-10200	3200	-6328	-3181	-4114	2129	-5888	-480	-9200	-615	-1098	750	127	135	1
-11460	-4104	10992	-86	805	151	-14972	-1188	-3404	-2116	3984	-1064	-14184	-984	4936	60	2482	277	-15424	12204	12432	9482	-27098	32767	-11568	2328	-7616	-3905	-4330	2178	-6248	-2352	-10856	-1317	-785	643	122	122	1
-11232	-4560	11416	-45	582	512	-15768	1632	-3084	-7577	4734	-1710	-11448	2616	10760	145	2603	-363	-17784	14544	14716	9306	-26964	32767	-14576	1392	-8120	-4081	-4651	2173	-4536	-4000	-12144	-2012	-506	512	123	129	1
-11256	-4460	11216	260	578	993	-16276	-416	-2500	-10072	5767	-2455	-13264	128	9320	155	3661	-43	-21000	14808	17268	10167	-25151	32767	-19040	832	-8984	-3724	-5034	2152	-3760	-5472	-11408	-2218	-185	291	120	129	1
-11028	-4228	11936	-116	940	1298	-16096	-44	-1304	-8015	6404	-1442	-14520	-648	7256	-99	3709	-14	-26384	18376	21444	12783	-22443	32767	-23896	2728	-13552	-3416	-5456	2228	-4728	-5664	-6936	-2371	-275	7	139	129	1
-11112	-4232	11980	-541	1865	1502	-16424	388	-1272	-6709	7944	-1599	-20192	-4288	-3512	540	1925	34	-32768	23932	23152	13083	-23008	32767	-29184	7432	-13600	-3306	-5765	2427	-5736	-4384	-2664	-2695	-718	-198	144	131	1
-11476	-3940	12084	-761	2811	1530	-16068	-92	-1320	-5813	9355	-1521	-15864	-3360	8616	994	1776	-260	-32768	16844	21432	12959	-22767	32767	-28176	4552	-16904	-3300	-5617	2527	-10000	736	5696	-2903	-1759	-146	134	133	1
-11324	-4512	12240	-830	3932	1883	-16860	-1652	516	-4522	11143	-669	-15064	368	9672	-602	1942	36	-32768	4500	14204	18353	-17349	32767	-25216	3736	-16216	-1688	-5437	2233	-21744	1944	20288	-3092	-3146	437	128	159	1
-11812	-4712	12420	-655	5453	2702	-15580	-2204	1904	-2701	13977	2	-17536	-720	4728	-497	1726	-46	-32768	-8712	-892	16159	-14135	32767	-21160	-1384	-26616	-777	-3885	2349	-21264	200	32767	-3729	-1684	336	130	125	1
-11856	-6464	13476	8	7681	4097	-17992	-2484	1120	935	17063	399	-19120	-5456	6632	-423	1278	-249	-32768	-32768	-12908	27932	-10342	24286	-64	-384	-12440	2278	-2091	1104	-7440	-8496	32767	624	-670	-651	129	132	1
-12452	-4012	15268	948	11105	5924	-18320	-1588	776	1234	17497	371	-18160	-6360	4200	-785	1057	15	-32768	-18760	-17600	18167	-6197	-3365	-3096	11616	-15752	2277	801	-17	-23304	-3704	26464	3135	-1527	-318	123	127	1
-12736	-4840	16740	666	16184	7145	-22380	-312	-2908	3552	21853	1723	-21560	-4768	1880	-834	837	259	-32768	-2780	-4536	-21755	-7307	-32768	-12976	7960	-19336	104	3189	-1121	-19232	8320	7184	2878	-1665	113	126	129	1
-12004	-7360	16084	-715	22239	9873	-22916	1988	-2652	2329	23583	1440	-21168	744	4248	-841	269	92	-14768	-1060	4476	-31078	3182	-32768	-23192	3920	-2768	-430	4423	-1583	-6824	6712	3168	1765	-331	595	127	153	1
-11712	-5056	17576	-1381	29136	13306	-22984	3772	-2764	279	25318	800	-21048	584	9152	-1073	87	62	19292	32767	26128	-25158	7872	-28410	-32768	-2288	26384	1368	2727	-737	-17896	-1088	22904	1395	-1807	1807	122	137	1
-10228	-5980	19816	-991	32767	18851	-28456	5260	-2176	1336	26605	518	-21256	208	9288	-1071	93	70	-32768	-14908	32767	-12249	32767	-20607	-28360	488	-24544	-281	3874	-2403	-21424	17136	-3912	-1999	2139	828	124	136	1
-9120	-13556	21000	139	32767	26909	-32768	10584	7340	-6236	27393	-326	-29520	1120	28704	-1399	-1784	753	-6728	-4060	23104	-3891	15147	-25251	-12704	-2312	-14240	-1872	4439	-1637	-27232	-25896	-13824	2796	2064	-1974	130	163	1
-32540	-16232	17264	-6023	32767	32767	-32768	5356	9056	-20286	32249	-1800	-29224	4712	25008	-3747	-4666	1282	-32308	17204	-3356	-17794	8629	-20115	376	5520	-25264	1021	2668	-65	3344	1944	-3072	3426	-657	851	122	86	1
-32768	-7928	15108	-19910	32767	27563	-31416	-10072	-5272	-21727	32767	942	-26616	-8144	-8	-2720	-2166	163	-22300	4980	16336	-11696	108	-11613	-23488	-1712	-21416	214	2134	43	-22000	16920	-13944	1031	1121	-373	138	125	1
-32768	-20120	9636	-25531	32767	24741	-27712	-10856	-3848	-1249	31547	4662	-28672	-16320	-21432	-1399	-2499	-288	-11780	4288	13008	-4152	2566	-3071	-19968	1616	-14512	1261	1830	-281	-32768	-3280	-8664	43	1861	-48	126	127	1
-9108	-32768	22508	-13659	32767	32767	-17900	-10396	-18400	12591	25146	6636	-32480	168	-12040	706	-3057	-1104	-9356	9460	10136	-2667	1973	-2620	-15560	152	-10224	3337	794	71	-16832	1168	-4096	1061	1715	-235	106	147	1
-32768	-32768	26428	-2121	-6934	18456	-18560	980	-25868	15440	10834	1145	-32768	2544	-3608	2030	-3537	-1115	-9184	7040	11824	-1392	2257	-1927	-15328	9480	-8552	2612	577	-12	-15448	4712	-1528	499	1908	203	140	85	1
-6844	-27188	20280	9975	-32329	2581	-13188	2692	-4616	10429	-2644	2347	-31608	4256	-5880	986	-3084	-1402	-9772	8108	10880	112	2395	-1668	-14416	10088	-9296	-383	1139	-285	-18992	1712	-2008	-32	1966	-228	124	118	1
6992	-12496	14140	15368	-30900	710	-3852	760	-3240	6500	-10684	274	-25912	3152	-3976	-185	-3176	-1478	-9756	7936	11312	995	3166	-1072	-17400	4112	-9392	-1578	1096	-390	-20992	2600	-2088	-230	1981	-529	174	128	1
984	-5784	11044	9765	-27438	-7386	-4452	2612	-6980	7724	-18133	952	-21392	2288	-6208	-652	-2469	-1045	-9664	8556	10904	1814	3494	-422	-17472	640	-8064	-474	679	-139	-18904	632	-448	-446	2094	-686	120	137	1
-6496	-5516	10200	1261	-31556	-19048	-3680	2188	-9256	4130	-22891	1511	-17792	3816	-7408	-514	-2340	-867	-9732	8832	10504	2356	3392	-355	-16552	2136	-7192	1102	163	138	-16224	-1040	1080	-370	2168	-444	129	133	1
-8560	-8600	10100	207	-32768	-25745	-4332	3100	-7896	-2753	-29260	3202	-15712	3608	-7744	-58	-2286	-754	-9892	8948	10056	2413	2957	-745	-16512	3048	-6528	1282	92	191	-15720	-184	2184	-337	2162	-167	129	130	1
-9112	-6500	9748	3997	-32768	-27761	-5460	1268	-6848	-4930	-32768	2016	-13608	2600	-7832	220	-2182	-774	-9828	8372	10196	2471	2741	-977	-14384	8048	-3608	697	218	141	-15760	1328	2384	-352	2110	-353	101	134	1
-11288	-1828	11044	4820	-32768	-28610	-6804	932	-6536	-2246	-32768	1427	-9472	3344	-8528	-313	-1920	-938	-9900	8016	10180	2512	2633	-1070	-13952	7304	-3632	-123	516	-28	-14600	2416	1928	-242	2099	-446	149	128	1
-13752	-388	12956	1171	-32768	-29536	-9356	-992	-6948	3306	-32768	3016	-7040	496	-9592	32	-1440	-671	-9904	8636	9108	1849	2360	-1243	-13376	6616	-3744	32	570	-93	-14504	4552	776	-74	2131	-355	133	126	1
-16884	-3496	15020	-1484	-32768	-27810	-11632	-2292	-8392	11887	-32768	4681	-6512	-144	-10576	1010	-1111	-551	-9940	9204	8504	544	1770	-1747	-12120	7512	-3464	451	520	-100	-13968	5392	-56	17	2261	-120	132	127	1
-21344	-5852	16836	-1294	-32768	-24687	-11040	956	-9928	12422	-32768	6755	-6232	800	-11944	2201	-719	-633	-9896	8536	8808	-755	1518	-2226	-12848	6728	-5288	176	679	-177	-13024	4688	3304	-321	2593	160	123	136	1
-24448	-5840	19132	-1790	-32768	-23911	-14852	2568	-10516	5978	-32768	9298	-3976	3032	-12760	3129	-393	-494	-10224	7056	9656	-1887	1622	-2384	-13304	6248	-5888	83	703	-191	-11824	408	6480	-1305	3268	173	116	129	1
-27120	-6956	21972	-3072	-32768	-26137	-20000	1832	-10536	1876	-32768	11695	-2648	3728	-9000	3005	-6	-371	-10328	8200	9640	-2226	1969	-2374	-15392	3832	-6024	307	651	-145	-13304	-1576	2032	-365	3675	-192	121	130	1
-32768	-9992	25200	-3127	-32768	-28221	-25872	1156	-11148	-3243	-32768	12900	-2704	2152	-6512	2631	-24	-289	-10008	8672	10300	-1836	2344	-2790	-15616	4672	-3496	708	648	-100	-18648	-1328	-2600	506	2576	-130	126	130	1
-32768	-14440	25968	634	-32768	-26311	-32644	-20	-12068	-5720	-32768	12137	-5896	-2456	-160	2020	-310	-141	-10200	7848	11208	-1156	3217	-3432	-16512	6168	-3800	738	803	-143	-20728	2872	992	-1140	1841	-48	127	131	1
-32768	-6528	11788	561	-32768	-28184	-32768	-788	-9144	-8482	-32768	11942	-17896	-4688	17240	1212	-1763	26	-10548	8396	11188	-642	4601	-4237	-16488	7856	-3104	702	1014	-272	-16880	5184	9552	-576	2062	-70	120	130	1
-32768	-1692	-8688	-3743	-32768	-24241	-21160	6820	-18124	-11115	-32768	1678	-32768	6080	32767	3504	-3115	-1345	-10696	10084	11268	-1231	6205	-6134	-15344	10168	256	1011	1255	-431	-16408	4416	10584	-205	2096	-79	149	133	1
-32768	32767	-29904	-32768	-30795	-21569	-8992	-5952	-14716	-32768	-21903	-6474	-1808	3368	32767	-1952	-157	1447	-11052	9192	13172	-1741	8968	-9284	-17656	9872	-888	782	1725	-729	-20568	4144	6392	568	1655	232	125	134	1
-32768	24608	-32768	-31699	-9772	-8432	-1300	-13688	-11840	-7262	4004	1851	-21608	2000	32767	-1076	-1664	1162	-11284	9700	15224	-1381	13479	-11589	-21472	9496	-3296	464	2200	-1077	-22960	8528	5528	691	1148	-74	137	137	1
-32768	3208	-26736	14468	4034	29428	-8700	-4444	-16864	4909	22061	-4352	-19216	-5040	11760	-1626	-1542	-43	-10800	13204	14548	-142	18113	-17178	-22928	8328	-2560	933	2272	-1153	-22112	1512	5760	952	544	-102	139	138	1
-32768	14276	-6212	14338	8189	22005	-10280	-4276	-17448	9182	24422	-4703	-4912	-888	6776	-1471	-558	-235	-11604	11640	14700	365	23458	-19769	-23608	6184	-2688	1550	2327	-1119	-21168	-664	8960	1182	34	-69	130	129	1
6156	-32768	32767	16979	9508	12348	-32768	8640	26208	32767	19629	260	-5448	9976	8256	-2219	1273	100	-10744	12464	16740	393	29914	-29110	-28920	7840	-1672	1881	2309	-1193	-25264	2784	15544	1397	-264	4	101	130	1
13544	23636	10560	6980	32767	8770	-26916	3832	-22184	32767	21159	-3133	-32768	-14784	10600	139	553	-25	-8140	20620	19712	-402	32767	-32768	-32768	12464	8448	2619	2094	-1170	-30752	6824	26816	1597	-1441	-100	118	137	1
-32768	5176	32767	7374	27341	17125	-26684	3588	-12916	23298	26825	-5138	-26928	3776	12880	1913	671	-747	-24700	22592	19352	4573	32767	-32768	-32768	19672	10152	4232	1923	-1277	-30880	7184	28824	1844	-1800	-146	125	131	1
-9720	-13756	8572	612	26325	12227	-6772	10520	-11136	1074	22606	-12710	-6368	32767	-19016	-908	2233	-175	-32768	29968	17416	11739	32767	-32768	-27944	29024	-4328	3751	2397	-1516	-22880	8264	-680	2053	-2535	-992	134	129	1
-32768	-7360	12240	9093	17741	17930	-6236	2940	-8376	-2838	22437	-12873	-10840	-8928	-5680	-2780	-1181	553	-32768	32767	9420	398	32767	-32768	-20744	17240	-3536	2754	2493	-1857	-28856	11584	-18672	703	-2587	354	145	133	1
-14244	1400	15340	7854	4062	11624	-20608	-1944	-14232	-585	14252	-11068	-30496	-12720	-15416	-1405	1647	388	-3552	32767	20272	5646	25897	-32768	-19224	11192	-14744	155	2757	-1508	-32768	2728	-4696	-1163	-3408	845	93	131	1
-12836	-5044	11804	2884	1224	2670	-14940	-4396	-9444	-10535	12626	-7054	-20064	-4840	-8928	-639	1514	-64	-32768	24072	17020	13062	-8373	-23380	-16648	144	-24600	-1756	1802	-1388	-32768	-5872	-5872	-660	-3059	573	150	129	1
-11984	-3292	12296	2825	1247	2518	-15136	-1416	-9576	-16116	12300	-7021	-17848	-2720	-4176	-298	1987	560	-5448	32767	10628	3517	-31848	1636	-14160	392	-5272	33	-138	-97	-32768	-7008	-5952	369	-3290	510	114	173	1
-11748	-2752	12236	2454	1342	2193	-18588	-4584	-7636	-9434	9121	-3605	-18768	-2848	-3576	93	1849	537	8940	22224	6968	-5094	-30068	6080	-8480	-2920	-3256	1116	-1466	675	-29456	-2224	-5832	1003	-3217	902	129	147	1
-11540	-3976	11992	-7	2319	568	-17828	-2820	-7652	-49	6224	-2677	-19160	-2232	-2184	390	2116	362	1724	11520	6052	-3911	-24992	12954	-5640	-1768	-6464	677	-2195	1151	-22288	-432	-6920	1564	-2807	1129	124	133	1
-11864	-3216	12072	-455	1668	68	-17256	300	-7356	-5094	4322	-2134	-17272	-1424	-1360	767	2366	311	-3500	8796	6316	4584	-24648	25748	-5160	-776	-6864	-121	-2796	1467	-16928	288	-8552	1149	-2423	1359	124	131	1
-11480	-4528	11832	-337	1659	-39	-16868	368	-5496	-12241	3555	-1887	-17320	432	-304	1038	2283	441	-4700	10344	7296	8811	-25106	32767	-6312	-688	-6312	-812	-3297	1844	-15288	176	-9128	764	-2116	939	127	132	1
-11556	-4140	11668	-779	1722	-223	-15744	484	-4244	-14396	3655	-1582	-15848	1184	616	863	2162	318	-7496	11056	8260	7317	-25419	32767	-6336	-48	-4792	-1180	-3711	2167	-12712	-600	-8984	544	-1797	941	125	126	1
-11552	-4436	11392	-924	1546	-250	-15420	-788	-3080	-14122	4042	-2084	-15080	-392	144	705	2217	163	-10404	9116	10372	5726	-27357	32767	-7720	1888	-4880	-1821	-3947	2389	-9432	-672	-9152	245	-1401	875	131	125	1
-11556	-4300	11284	-596	1415	54	-15132	-2212	-1572	-8691	4075	-2069	-14560	-1888	-1952	464	2373	167	-12052	8824	12416	7506	-28450	32767	-10200	2488	-5456	-2773	-4192	2471	-6240	-1152	-9792	-98	-1070	858	145	127	1
-11580	-4152	11008	91	1128	266	-14280	-1516	-2960	-2150	4198	-1099	-14104	-2552	-1704	58	2733	144	-14804	10472	13932	9871	-28908	32767	-12152	1960	-6912	-3679	-4407	2497	-5336	-1976	-11072	-882	-771	843	132	131	1
-11572	-4228	10520	611	608	502	-14160	-508	-5640	-139	4056	-957	-14064	944	8144	357	2605	158	-17896	12632	15096	10877	-28947	32767	-14304	536	-7936	-4191	-4690	2507	-4160	-4760	-12136	-1630	-663	679	129	133	1
-11192	-4992	11172	644	130	1023	-16360	1948	-4212	-8319	4218	-2002	-14488	2312	8480	317	2486	73	-20892	14408	17548	11493	-27585	32767	-17640	392	-7920	-3982	-5154	2466	-2856	-6744	-11080	-1979	-514	341	125	130	1
-11548	-4288	11012	872	164	1434	-16428	-332	-3488	-9418	4909	-2085	-17912	-1040	1136	-1359	3918	288	-25840	17016	21484	12663	-24932	32767	-22304	1520	-9872	-3434	-5584	2515	-2360	-7664	-10248	-2079	-226	-172	89	131	1
-11376	-3468	11936	-127	639	1639	-16152	2136	-2668	-8916	5666	-1901	-21640	-1648	-10728	-337	2503	-12	-32768	23920	25204	13163	-24363	32767	-29336	5768	-13520	-3278	-5792	2644	-3856	-3920	-4144	-2695	-529	-385	126	131	1
-11508	-3256	11624	-687	1696	1297	-15752	1552	-1456	-9256	7217	-1856	-16192	-3528	4560	1491	1764	-276	-32768	19748	24996	10261	-25017	32767	-30504	6640	-14480	-3741	-5764	2675	-7304	1304	504	-3454	-1558	-105	156	123	1
-11692	-3636	11516	-592	2501	896	-15784	-2244	800	-5888	9095	-987	-13520	-1376	16728	-344	2085	-170	-32768	4212	18176	15860	-19432	32767	-30808	4832	-20552	-2381	-5457	2153	-21520	6968	19808	-3673	-3451	773	131	172	1
-11420	-5728	12224	-319	3910	1697	-15964	-3248	4216	-2979	12237	-382	-19504	352	5656	-818	2034	96	-32768	-6232	-2080	11270	-15814	32767	-23472	-11016	-21920	-1449	-3807	2465	-26896	1176	32767	-5400	-3524	1091	127	108	1
-11504	-6792	13352	248	6081	3366	-18400	-2828	4044	-652	16391	165	-21112	-7416	8328	-446	1375	-316	-32768	-32768	-12156	32767	-9617	27126	-376	568	-18160	1454	-2026	1103	-7208	-14312	32767	-602	-450	-1252	127	144	1
-11968	-4188	15060	1170	9670	5614	-18452	-900	-936	1450	19675	279	-17960	-6680	5488	-773	944	-76	-32768	-14996	-17332	22402	-4915	856	-4112	11952	-19024	1983	1069	-147	-23072	-12688	28760	3445	-1454	-543	127	130	1
-12888	-6772	16892	1184	14736	7054	-23116	-2244	-4028	4587	21704	1910	-22520	-5848	1008	-912	902	312	-32768	-3268	-5284	-23349	-9578	-31229	-13432	7112	-19904	653	3195	-1220	-20264	6848	4400	4147	-2076	230	123	139	1
-12368	-8400	16452	-293	21033	11151	-25028	2628	-3732	1271	23171	1458	-22960	1352	1136	-832	318	8	-32768	7272	16328	-24663	309	-26734	-20888	2512	-2664	119	4403	-1464	-7088	7048	176	2842	-475	371	127	176	1
-11608	-4344	17340	-1232	27963	14081	-24476	3036	-3464	667	23443	1414	-20792	280	7120	-1111	106	-21	23612	32767	24328	-25615	-36	-22633	-32768	1560	30696	2717	2401	-541	496	-4408	17280	1004	959	990	129	135	1
-10372	-3668	19232	-1002	32767	17351	-27616	5340	-2040	1712	25514	2379	-24504	-2704	11672	-1042	209	152	-15312	-21336	20692	-12446	32767	-21463	-28248	5568	-24664	333	3196	-2053	-32768	20440	2648	-1926	730	1545	106	147	1
-10676	-9616	20444	-993	32767	26605	-32768	11588	6536	-3441	26217	1516	-28952	-2712	19048	-1233	-446	550	-25028	1188	25960	-6745	21806	-22427	-15880	1272	-17944	-2341	4272	-1990	-22584	-15872	-2560	134	1391	-1895	128	142	1
-24144	-15516	17884	-5887	32767	31398	-32768	6808	14236	-18908	30112	-289	-28496	4296	20072	-3260	-3705	1355	-13968	32767	-168	-7189	22694	-21464	-7000	-888	-17768	-977	3119	-1609	-112	-17616	-1744	1484	176	1206	126	150	1
-32644	-15612	16904	-5525	32767	32641	-32304	-8980	-1504	-15442	32767	502	-18224	-2256	3824	-3044	-2624	916	-14216	-9672	19348	-19209	7150	-19588	-14824	7392	-19080	248	2354	749	-19808	12232	-16152	2186	1553	-626	139	134	1
-32768	-23560	7744	-27270	32767	22992	-30504	-6948	-2568	-11054	32196	7355	-29240	-10912	-9752	-1652	-2399	-115	-18832	8036	11224	-9077	3754	-8603	-21208	-1520	-17496	-138	2310	-496	-30056	5600	-6240	590	1535	41	131	106	1
-26684	-32768	21420	-12124	32767	31207	-18328	-13872	-13452	12242	29035	7160	-31792	-5688	-15736	934	-3108	-1210	-11200	7348	11940	-4346	3300	-4035	-16520	760	-12760	2489	904	25	-18192	2592	-4448	838	1601	-73	96	109	1
-32768	-32768	23816	4563	3423	24553	-19904	-2752	-28048	17242	14465	2676	-32768	5760	-3976	1799	-3485	-1024	-9832	8144	11544	-2765	2422	-2509	-17112	4128	-8808	3831	356	146	-17144	1928	-1848	536	1969	74	126	139	1
-13852	-26432	21540	12480	-25974	5432	-16344	2672	-10444	15782	2722	2853	-32768	3552	-6088	1325	-3311	-1213	-9492	8244	11200	-794	2927	-1317	-14152	11568	-7360	1188	714	-54	-18240	-488	-1120	170	1990	184	147	125	1
2668	-14016	16156	16527	-31556	1586	-6392	1196	-4360	8618	-7852	1740	-30008	3904	-5600	17	-3281	-1542	-9912	8012	11072	411	2603	-1129	-15544	6840	-7512	-1257	1197	-344	-19696	1768	-1376	242	1939	-375	126	124	1
4428	-7476	11964	11593	-28657	-4369	-5380	1632	-6608	4897	-15313	1585	-23432	-240	-5992	-279	-2595	-966	-10048	8188	10788	1588	2992	-769	-17512	2400	-8360	-1175	870	-171	-18392	3648	-528	-82	1961	-710	130	137	1
-4172	-4900	10772	2308	-29607	-13327	-3312	8	-8796	5079	-21435	2568	-19824	1848	-8344	-375	-2436	-1083	-9964	8988	10308	2095	3000	-604	-16608	1528	-7336	27	465	-42	-17128	1112	232	-378	2092	-736	121	130	1
-8508	-8972	9836	-1696	-32768	-20705	-3760	-116	-8824	720	-27642	3662	-16232	2664	-8832	-113	-2330	-880	-9968	9244	9832	1898	2578	-558	-15544	4440	-5960	1457	-45	276	-16432	632	1776	-403	2151	-184	135	133	1
-9472	-8644	9308	978	-32768	-23806	-4592	1160	-7356	-5331	-32768	3739	-14264	2288	-8960	189	-2167	-883	-9884	8912	9896	1543	2069	-844	-14592	8224	-3624	1366	-13	262	-15704	1608	2344	-383	2107	-174	135	127	1
-9656	-5368	9076	2961	-32768	-25212	-5684	956	-6328	-5477	-32768	2236	-11128	2384	-9072	323	-1934	-931	-9848	8360	9900	1310	1882	-1094	-13496	8912	-3280	264	386	69	-14968	1904	2384	-323	2033	-302	145	129	1
-12868	-2752	11036	1261	-32768	-26732	-7816	-316	-6784	-1006	-32768	3211	-7920	3568	-9360	-43	-1645	-873	-9996	7924	9588	1060	1843	-1071	-13864	6144	-3608	-392	674	-90	-14264	2824	1592	-104	2017	-262	144	115	1
-16480	-4052	12968	-1583	-32768	-27656	-11144	-1260	-8236	4457	-32768	3556	-6064	248	-10632	669	-1239	-682	-10096	8592	8756	210	1606	-1109	-13064	5768	-3512	162	584	-107	-13952	4304	-56	209	2109	-148	130	123	1
-20356	-5852	15336	-3000	-32768	-26753	-10152	-248	-9404	7786	-32768	5417	-5136	1104	-11984	1796	-809	-637	-10072	9480	8112	-1678	1148	-1713	-11944	8432	-4424	450	576	-60	-13680	5256	1792	327	2378	41	103	126	1
-23620	-6696	17372	-3753	-32768	-25792	-13136	1024	-9932	4942	-32768	6275	-4688	2872	-13888	3029	-490	-548	-9668	8140	8644	-4257	928	-2183	-12880	7264	-6048	-96	682	-152	-10800	3776	6480	-712	2950	318	134	132	1
-26916	-7960	20372	-3620	-32768	-26650	-18072	924	-10544	3292	-32768	7782	-2360	4712	-11600	3091	-164	-362	-10240	7868	9972	-3636	1148	-1685	-16648	1896	-5416	89	739	-183	-12920	-1616	4720	-864	3736	75	118	135	1
-31576	-8860	23832	-3200	-32768	-29023	-23576	736	-11264	2662	-32768	9771	-1504	2952	-9200	2726	37	-222	-10196	7696	10900	-2137	1454	-1927	-17672	3072	-3472	1036	597	20	-19000	-3440	-824	724	2961	-2	121	133	1
-32768	-13820	27416	-876	-32768	-29736	-31528	-500	-14392	5130	-32768	11174	-3576	368	-4136	2474	38	-28	-10204	7452	11232	-573	2725	-2380	-15648	7184	-2936	1028	736	-20	-20224	760	712	-315	1780	-128	124	135	1
-32768	-3420	23580	-441	-32768	-32768	-32768	3248	-13148	-3277	-32768	11573	-10664	-4152	10824	1655	-613	92	-10316	8292	10988	146	4060	-3017	-16224	8344	-3568	550	1090	-214	-18024	6736	8560	-1177	1918	-105	123	138	1
-32768	-456	18976	-1861	-32768	-32768	-25336	5032	-18840	-16411	-32768	8196	-30144	824	19096	1884	-3351	-718	-10384	9560	10872	-278	5545	-4384	-14912	9856	-1072	914	1278	-322	-15952	3544	11544	678	2131	74	120	133	1
-32768	30172	-23364	-21416	-32768	-25840	-17616	940	-23576	-32768	-31559	-9061	-25640	14464	32767	1809	-536	-926	-10572	11116	12140	-1813	7821	-7488	-16856	11248	-712	1060	1609	-553	-18704	4360	7608	875	1725	219	114	131	1
-32768	32767	-32768	-32768	-19460	-21916	6308	-12564	-8264	-26047	-3142	-332	-11200	6696	32767	626	246	-411	-11164	8520	15528	-1521	11786	-10045	-20712	10136	-2760	676	2100	-923	-23072	9512	6248	435	1233	151	123	133	1
-32768	-3020	-32768	-4836	-416	18527	-4080	-9292	-15780	-1661	19300	5	-29704	-888	14576	-3143	-1923	641	-11088	11648	16012	-54	16815	-14316	-23648	8232	-2120	800	2337	-1102	-22528	3136	6392	846	593	-130	116	132	1
-32768	7056	-12108	24956	6193	32767	-15116	-7224	-23724	19497	32606	-5787	-10520	-3704	12040	-2372	-1255	-130	-10472	12864	14964	1367	21822	-21203	-23952	5352	-2728	1531	2380	-1045	-20880	-2792	8296	1077	-47	-124	125	131	1
-27024	-28752	31396	19256	18695	19883	-27308	13292	16248	32366	32112	-979	-2672	1232	-2736	-2534	1345	-148	-10668	11708	16236	1648	26674	-24177	-26912	6880	-1992	1932	2420	-1030	-23216	-848	14640	1368	-328	-56	137	128	1
21404	3992	16188	8910	25217	13030	-32768	6784	4428	32767	14048	-3513	-20448	7360	-1056	2764	1629	-104	-7884	17592	18724	2310	32767	-32768	-32768	10808	4160	2390	2273	-1067	-29208	5632	22584	1885	-1169	-102	127	131	1
-32768	7544	32767	8446	32767	3240	-29040	5324	-18828	32767	25954	2246	-32768	-32768	12256	1920	-1122	-1076	-16668	20864	19604	3057	32767	-32768	-32768	16472	8112	4033	1900	-1116	-25712	728	22472	3156	-2668	-692	150	130	1
-10588	464	15256	-2867	19404	18783	-14836	14232	-14848	17327	22819	-14231	-9072	32767	-30056	148	3298	-275	-32768	28932	18512	13617	32767	-32768	-28904	28440	-3672	4214	2341	-1295	-24928	4632	8552	1441	-2840	-924	139	129	1
-32768	-32648	4100	11840	23951	15042	-11460	-14888	-12772	-6677	19739	-11869	-4152	1528	-7040	-2707	-978	858	-32768	29772	15776	4248	32767	-32768	-21160	20448	-5664	2559	2623	-1755	-27440	13920	-16120	942	-2463	-54	116	132	1
-16580	-5060	12748	9109	5506	14280	-18624	-4760	-14496	4284	12289	-12961	-28336	-14768	-16696	-1836	1338	392	-21972	26456	22768	7593	31663	-32768	-21312	8416	-11376	637	2720	-1590	-32768	3424	-7984	-1078	-3349	661	84	129	1
-15260	1132	13440	5946	4189	7382	-15852	-2660	-11788	-10153	12543	-7872	-24520	-7008	-8728	-852	1498	-243	-32768	15900	17104	16487	4005	-32768	-16336	-488	-25184	-1112	1915	-1368	-32768	-5288	-4592	-832	-3004	564	165	127	1
-11876	-7100	11536	4853	321	4557	-15616	-1000	-9056	-23217	13374	-7182	-17728	-3864	-5344	-637	1912	286	-9732	32767	12384	11060	-32768	-2070	-13192	96	-6816	359	-5	-239	-32768	-7864	-6040	355	-3117	307	121	135	1
-11640	-2652	12976	2921	883	2516	-18360	-3952	-8012	-15104	9457	-5039	-17160	-3456	-4240	-578	2030	471	9588	24912	6864	-3229	-32768	1940	-8904	-2184	-896	1649	-1508	643	-29416	-2472	-5248	1031	-3164	747	137	144	1
-11296	-3648	12096	808	2325	1022	-18992	-4172	-7636	-1829	6714	-2651	-19200	-224	-1768	268	2320	499	4492	13136	5772	-5810	-27935	6184	-5712	-1192	-4744	1014	-2158	1102	-22840	-96	-6392	1623	-2716	1049	130	126	1
-11776	-4020	11936	-378	1970	356	-17580	492	-7092	-697	3927	-3048	-18560	-2112	-2096	529	2303	372	-1976	8148	6120	2583	-25037	19040	-5328	-944	-6504	-75	-2661	1414	-16176	1216	-8672	1258	-2384	1199	129	126	1
-11612	-4836	11704	-279	1794	-315	-16028	980	-5048	-8537	3353	-1638	-16888	-816	-960	757	2182	349	-4236	9476	6616	9822	-24442	31513	-6392	-432	-5808	-692	-3154	1731	-14280	360	-8472	688	-2130	915	128	133	1
-11452	-4916	11492	-441	2027	117	-15348	188	-3832	-15774	3701	-2180	-16136	-264	192	734	2025	295	-7172	12196	7160	8529	-24217	32767	-5440	392	-5248	-1120	-3535	2042	-12072	8	-7736	379	-1799	881	118	132	1
-11452	-5076	11288	-538	1745	258	-15824	-804	-2752	-17381	4108	-2135	-15376	-1280	88	657	2128	180	-9116	10616	8400	4263	-25710	32767	-6432	2176	-4696	-1744	-3715	2282	-9288	-872	-8128	217	-1449	859	125	130	1
-11496	-4280	11084	-368	1381	369	-15008	-1872	-2380	-11678	4239	-1947	-14384	-1496	-1176	489	2267	90	-11404	8140	10780	4657	-26589	32767	-9008	2880	-5560	-2711	-3897	2357	-6400	-720	-9200	-58	-1123	803	152	133	1
-11848	-3672	10836	88	1023	87	-14356	-1936	-3196	-3604	4325	-1355	-13624	-1512	-272	79	2548	32	-14076	9008	12548	8045	-27224	32767	-9432	2896	-5568	-2883	-3930	2357	-5592	-784	-9992	-737	-845	767	130	124	1
-11552	-4356	10608	330	619	62	-14552	-108	-4660	81	3977	-835	-10912	1080	7360	181	2477	-7	-16792	11700	13732	9575	-27713	32767	-13024	1432	-7360	-4209	-4387	2299	-4552	-1536	-11952	-1728	-638	745	126	132	1
-11380	-5116	11040	235	316	396	-14680	284	-4512	-706	3979	-842	-10952	5456	11520	701	3490	-449	-19468	12936	15988	10331	-27258	32767	-15984	1160	-7576	-4160	-4713	2160	-3768	-3408	-12304	-2385	-438	592	123	128	1
-11360	-4328	11012	281	266	637	-15804	36	-2708	-11332	5391	-2128	-18504	-2080	1880	-1266	3874	221	-22928	14600	18348	11435	-24851	32767	-19856	1440	-8672	-3688	-5154	2058	-3480	-5544	-11272	-2568	-267	309	115	126	1
-11092	-4460	11588	90	538	817	-16356	-140	-1504	-7740	6081	-2033	-20120	-4264	-6864	-761	2847	162	-29792	22044	21784	10453	-22857	32767	-26192	3864	-13784	-3543	-5436	2126	-4568	-4544	-5248	-2658	-604	23	136	128	1
-11164	-4356	11656	-438	1431	749	-15988	384	-1644	-4368	7255	-1771	-19112	-4104	-680	1532	1658	-108	-32768	23752	22532	8401	-24908	32767	-29912	8016	-13624	-3381	-5725	2276	-7016	-2520	-600	-2799	-1261	-166	143	130	1
-11392	-4564	11632	-539	2238	960	-16276	-732	-580	-4751	8807	-1575	-14232	-4016	13472	782	2047	-169	-32768	11064	19340	10074	-24873	32767	-28232	4504	-16552	-3026	-5638	2315	-13248	1992	8536	-3024	-2389	41	136	133	1
-11252	-5488	11636	-714	3401	1380	-16332	-1844	3468	-5082	11221	-616	-16112	1784	8560	-620	2087	130	-32768	3456	6996	16210	-20018	32767	-25576	-6288	-15080	-534	-5327	2550	-27456	-256	29600	-3300	-3427	373	134	134	1
-11236	-5948	11684	-631	3624	1525	-15880	-4068	4672	-703	15093	-149	-20672	-3296	8776	-191	1589	-224	-32768	-25860	-5084	25470	-16555	32767	-11688	7088	-21888	732	-3584	2012	-7224	-7336	32767	-1997	-265	352	127	160	1
-12120	-5776	13132	378	7945	4237	-18340	-1160	1092	2661	18650	192	-17088	-6128	8512	-533	1074	-283	-32768	-32768	-16120	32767	-9346	15418	2128	7888	-11352	4087	-1265	1061	-16240	-12024	32767	1824	-486	-685	126	149	1
-12488	-6008	15492	1193	11739	5764	-19796	-2788	-2600	4345	21365	1061	-19088	-7024	2176	-847	1027	134	-32768	8120	-17696	-3924	-7705	-19610	-8544	14136	-14984	2342	1658	-416	-22992	3928	21792	4162	-2215	106	126	133	1
-13028	-7532	16036	1211	16645	9162	-22704	-844	-3768	3525	23205	1449	-21240	-3224	496	-883	603	150	-32768	-9232	568	-23092	-6861	-32768	-13912	4456	-20968	-981	4197	-1442	-12080	12024	6320	2541	-1465	655	127	144	1
-11772	-7428	16184	-239	22660	12664	-22648	3880	-4632	29	24822	539	-20088	2912	2704	-993	119	-5	16340	32767	32767	-24510	7558	-26320	-29408	-688	18184	-428	4014	-1513	-6240	7824	-2480	1313	326	1019	124	139	1
-11012	-3068	17696	-1782	29866	14635	-22892	6184	-4876	-1502	25697	837	-20120	1232	7344	-1247	220	117	24032	26608	12196	-28746	12398	-16664	-32768	1008	22080	2467	2209	-527	-10240	-6344	9536	-1859	1578	1523	125	141	1
-11264	-3456	18040	-1924	31434	15178	-28100	7424	-1988	147	26430	1367	-24624	-1720	11880	-979	113	296	-32768	-16324	32767	-10615	32767	-16093	-28352	4800	-21328	-2142	4262	-2819	-23344	20240	13680	-3125	1043	797	112	152	1
-9404	-14736	20156	-380	32767	24775	-32768	11284	10612	-8735	27874	525	-27192	3000	27464	-1584	-1913	955	-11684	-8396	25276	1561	17015	-26850	-15584	-4736	-16984	-3350	4776	-2068	-20448	-29048	-10592	1880	2266	-2398	129	126	1
-32516	-14028	17992	-4479	32767	32767	-32768	2232	7496	-14257	32408	-240	-26272	4192	24128	-3548	-4775	1361	-32768	32767	-14308	-19486	9847	-23018	1976	11368	-25832	384	2763	-372	2968	-3976	-7696	3279	-79	1724	117	116	1
-32768	-3836	16600	-15978	32767	25772	-32560	-11896	-4492	-17865	32767	3434	-27648	-10040	-4480	-3100	-1843	83	-23276	4420	15300	-12421	-1233	-12616	-22632	-3816	-24616	-378	2299	184	-22096	18488	-14936	1265	836	-504	129	103	1
-32768	-23148	13184	-17617	32767	24096	-27664	-7852	-5620	8599	30120	7311	-31984	-19488	-17080	-546	-2670	-674	-22184	7180	12856	-10786	68	-8939	-20384	152	-16152	2156	1695	-211	-32768	-760	-11944	590	1682	-422	123	104	1
-3696	-32768	21740	-12767	32767	32767	-18896	-9688	-20208	14689	24642	7845	-32456	2216	-11376	1822	-3286	-1089	-9956	9600	10044	-3308	1389	-2309	-14920	4288	-10232	4196	571	55	-28680	-1880	-9400	652	1512	-320	83	132	1
-32768	-32768	20992	-4929	-4636	12569	-19288	80	-20580	14342	11208	2928	-32768	5880	-4392	2224	-3447	-944	-8992	7764	11596	-2028	1791	-1859	-15392	5128	-8464	2636	695	-179	-15304	3168	-1408	368	1933	280	151	119	1
-8580	-28740	18316	10541	-32768	1091	-12656	-356	-6084	6017	-887	2827	-32768	4968	-4872	1050	-3244	-1288	-9380	7396	10928	-783	2385	-1580	-13248	11248	-8320	82	1011	-243	-20016	64	-1688	102	1902	-2	131	117	1
5060	-14524	13316	18237	-32768	3853	-5528	-1076	-5260	4553	-9664	159	-27776	-304	-3080	-382	-3135	-1321	-9612	8076	10824	-199	3146	-1129	-16816	6664	-10440	-2153	1318	-388	-20688	2728	-2280	46	1852	-629	144	129	1
256	-5120	10976	12272	-31063	-1849	-5248	1372	-7764	9775	-17506	324	-23576	2304	-6224	-762	-2569	-1020	-10252	9020	10636	865	3274	-319	-17264	400	-9672	-1383	913	-198	-20000	4848	-2208	-391	2012	-825	117	131	1
-7812	-4888	10492	1463	-32768	-13751	-3396	2036	-10432	4070	-23142	1817	-20216	2264	-7640	-466	-2511	-1019	-9996	8680	10256	1582	3114	-69	-16400	920	-8768	815	159	78	-17648	1288	-264	-680	2214	-559	129	135	1
-7996	-8016	9880	-1530	-32768	-21539	-5404	2640	-8728	-3581	-29353	3405	-19552	1808	-7744	-379	-2499	-1004	-9828	9304	9792	1801	2539	-439	-15600	6064	-6000	1711	-198	311	-16000	-320	1912	-730	2291	-122	127	138	1
-7056	-6700	9260	1915	-32768	-24988	-6108	2920	-7120	-6649	-32768	2555	-15344	2680	-8440	129	-2331	-857	-9852	8496	10072	1759	2316	-859	-14416	7840	-4344	931	28	185	-15752	-912	3536	-573	2234	-257	106	128	1
-9608	-3564	11068	4041	-32768	-26549	-6968	780	-6700	-2877	-32768	2412	-11048	2280	-9320	-25	-2056	-909	-9876	8368	10264	1942	2292	-1019	-14392	7456	-3632	-142	381	31	-14464	1024	3312	-273	2201	-377	158	135	1
-15408	-1596	13468	2335	-32768	-28305	-8304	-1472	-7920	4653	-32768	4072	-8048	800	-10560	342	-1647	-663	-9928	8472	9536	1886	2327	-1115	-14128	6512	-3704	-291	555	-68	-14520	4448	1144	16	2166	-408	134	130	1
-18760	-3232	15468	293	-32768	-27870	-10892	-844	-8988	10140	-32768	5780	-5864	512	-11144	1165	-1386	-612	-10140	9360	8244	683	1771	-1744	-12352	7040	-4528	342	420	-78	-14504	6088	-336	200	2333	-272	133	91	1
-21144	-3948	16784	-899	-32768	-25726	-9772	868	-9948	9694	-32768	8000	-4752	504	-12656	2189	-1046	-598	-10056	9164	8124	-1235	1217	-2450	-11512	8336	-4968	346	476	-103	-13704	6288	-304	63	2669	-32	128	119	1
-23164	-4900	18676	-2003	-32768	-24592	-13140	2228	-10768	5226	-32768	10433	-2240	2704	-14176	3038	-468	-487	-9956	8236	9156	-3219	1229	-2626	-13448	4768	-8144	-314	709	-187	-11992	2368	5376	-947	3073	326	117	124	1
-26672	-7008	21904	-2367	-32768	-25753	-18052	1388	-11160	2620	-32768	13375	-1112	4728	-11456	2947	81	-295	-9644	8368	10312	-2828	1565	-2032	-17416	1936	-5264	221	595	-78	-12136	-4800	5408	-1003	3667	-11	119	127	1
-32768	-10380	25760	-2053	-32768	-27767	-24652	-108	-12752	-453	-32768	15097	-1640	3240	-8792	2639	242	-154	-9976	8760	10520	-1621	2007	-2686	-16880	4456	-2272	1164	433	108	-17696	-5200	168	556	2865	-93	122	130	1
-32768	-16292	25988	1236	-32768	-27175	-32768	-280	-13500	-3544	-32768	14816	-3672	-936	-4088	2472	238	20	-10292	7968	10888	-619	3098	-3350	-15584	7456	-2424	958	702	-41	-21296	2328	1552	-556	1888	-47	123	129	1
-32768	-7052	14000	1317	-32768	-29908	-30528	-716	-23860	-2773	-32768	11277	-13992	-2824	11896	1545	-715	95	-10420	8488	11140	-301	4812	-4050	-16496	8664	-1744	611	1082	-247	-21272	3944	3624	-850	1853	-70	121	131	1
-32768	-2728	-8840	-4789	-32768	-27357	-21416	8300	-20552	-14488	-32768	2291	-32768	2008	32767	3517	-3697	-909	-10756	10252	11432	-1240	6580	-6041	-15224	10608	440	942	1374	-387	-17688	3648	12048	861	2097	-32	133	134	1
-32768	32767	-29148	-32768	-32027	-23362	-9696	-10128	-20216	-32768	-23927	-8567	-840	2992	32767	-1280	783	739	-11444	10484	13760	-1729	8974	-8559	-18240	10448	-1544	860	1849	-688	-19640	5040	6040	643	1662	188	124	130	1
-32768	31796	-32768	-32768	-9896	-11652	1528	-12160	-12520	-14966	5286	3597	-17768	7352	32767	-1686	-1549	1220	-11144	8948	16096	-829	14604	-11830	-21816	9272	-2504	585	2279	-1064	-23352	9472	6408	631	1128	-7	123	134	1
-32768	-100	-30852	10938	5015	32767	-7364	-5412	-16652	-3395	25926	-3226	-21664	-2224	11408	-3202	-1667	358	-11016	13292	15244	228	19769	-17449	-22968	8552	-2664	919	2430	-1159	-22256	1448	6584	783	447	-120	151	131	1
-32768	11456	-7444	11015	10981	29821	-16256	-10364	-29316	23273	32767	-3764	-3288	-2672	6912	-2742	-481	-186	-10536	13076	14272	1191	24995	-24036	-24312	6216	-2824	1499	2490	-1090	-20104	-2352	9696	1131	36	-73	121	127	1
32767	-32768	32767	12156	11716	11451	-32768	19812	32767	32767	20357	2652	-1968	6576	2104	-2546	2076	150	-9992	14232	17080	1796	31777	-30878	-29440	8856	-728	2082	2383	-1058	-25792	1816	16016	1482	-276	-9	135	136	1
32767	32767	13532	5855	32767	6359	-23016	-6696	-20156	32767	20006	-3175	-32768	-31936	1216	3517	180	-583	-8212	19200	19364	1846	32767	-32768	-32768	12072	7552	2928	2083	-998	-30936	6408	28864	2047	-1653	-65	125	131	1
-32768	7108	32767	5181	32767	15670	-32716	4260	-15756	32767	24094	1605	-25616	2200	32767	2184	-178	-1239	-32328	19460	19420	9380	32767	-32768	-32768	22064	6976	4767	1991	-1180	-28648	-1648	24128	2096	-3487	-756	174	128	1
-32768	-32768	3704	5653	28127	13534	-31548	7756	-18488	32767	24817	-246	-11312	32767	-13536	135	2548	290	-32768	32767	17108	12899	32767	-32768	-27024	31248	-696	3855	2280	-1450	-26240	11432	-4512	2068	-2460	-860	128	121	1
-10104	13564	17620	12105	6455	18552	-12500	-11732	-15348	1764	17016	-17360	-9008	-14568	-20536	-3848	-254	917	-32768	32767	15300	2796	32767	-32768	-21320	13688	-4096	2162	2745	-1831	-30512	11056	-16440	288	-3043	531	137	136	1
-14184	-4088	13172	8547	1909	9728	-15296	-2236	-16056	-3515	13433	-4427	-25552	-13776	-12008	-801	1473	-183	-828	32108	18776	9439	24752	-32768	-18104	9728	-15712	-441	2614	-1389	-32768	-1944	-3208	-1551	-3508	885	80	138	1
-12448	-4616	12124	3750	-1193	2644	-17544	3112	-10088	-21355	13776	-6594	-21776	-608	-8928	-264	1584	-193	-29968	32767	14936	15517	-17917	-11664	-15768	-800	-19192	-1208	1287	-1045	-32768	-10376	-6344	-178	-3244	540	140	121	1
-11448	-3168	12628	2992	-731	2440	-17456	-4076	-9776	-26699	13388	-7562	-18104	-592	-2040	-684	2361	562	3224	32767	9508	-989	-32768	3142	-12840	-1848	-888	1054	-874	308	-32768	-7688	-5224	891	-3479	703	143	130	1
-10328	-4120	12716	1435	1983	1305	-17432	-6812	-6616	-5665	9093	-4304	-19832	-48	-792	-185	2135	573	8592	17284	7136	-5867	-28318	6773	-7224	-3672	-3744	1576	-1837	988	-26896	-1584	-5840	1673	-3212	1071	125	162	1
-11304	-4552	11816	196	2458	634	-17788	-1360	-7192	6654	5569	-3588	-19192	-3216	-2400	345	2183	602	1208	8164	7276	343	-23473	17443	-5064	-2200	-5136	655	-2418	1427	-17968	368	-7048	1729	-2763	1272	120	126	1
-11436	-3780	12240	-246	1815	92	-17340	1972	-6216	-535	3684	-1109	-17192	-2680	-1592	1130	2413	314	-2336	8000	7964	8858	-22397	30328	-6088	-936	-4792	-305	-2857	1673	-14864	320	-7840	1048	-2377	999	126	131	1
-11080	-5344	11580	-345	1939	318	-14596	2636	-4660	-14110	4790	-2126	-16664	1584	-320	1253	2207	470	-6268	11696	8760	8563	-22838	32767	-6152	-1104	-5032	-1148	-3230	2005	-13120	-2440	-7368	749	-2139	987	126	145	1
-11428	-5240	11376	-562	1567	506	-15320	404	-3216	-20940	5807	-2707	-15312	736	208	928	2108	245	-8844	11196	10288	2442	-25529	32767	-7184	-224	-4600	-1724	-3599	2289	-11904	-1408	-8264	682	-1821	896	116	136	1
-11336	-4656	11472	-219	1491	747	-16208	-3336	-2232	-14168	5257	-2523	-15256	-2296	-912	772	2149	61	-10048	6968	12556	1303	-27437	32767	-9448	1192	-4392	-2568	-3876	2419	-8536	-968	-9184	346	-1362	895	124	116	1
-11548	-4320	11592	589	1314	749	-14512	-3404	-2568	1168	4807	-336	-14688	-2456	-1264	672	2389	-130	-12988	6928	14232	5957	-28384	32767	-10808	1360	-5712	-3558	-4136	2408	-7264	-2024	-9904	-190	-1116	677	146	124	1
-11416	-4600	10856	1111	946	975	-13988	296	-5380	4036	4952	-209	-13408	352	5464	160	2264	-143	-16148	10308	15208	9019	-30022	32767	-13184	-296	-6904	-4238	-4414	2433	-5272	-3856	-10904	-1113	-1073	610	129	128	1
-10892	-5448	11220	1342	575	1630	-15664	2948	-3948	-6547	5418	-1741	-12096	5888	10768	180	2683	-45	-18584	11304	17696	10590	-31232	32767	-16096	-1896	-8224	-4113	-4888	2408	-3800	-4848	-10728	-1862	-1004	253	128	128	1
-11228	-4256	11020	1685	355	2456	-15704	-28	-3720	-10382	6403	-2269	-12784	1096	6920	-733	3930	-50	-22208	13832	21088	12258	-30537	32767	-19704	-848	-8904	-3166	-5601	2403	-3992	-5000	-11000	-1975	-955	179	120	128	1
-11184	-3588	12084	366	823	2235	-16536	1688	-3432	-6875	6946	-1891	-18784	-2656	-1928	-2040	3653	334	-27760	16572	24488	13960	-29003	32767	-24040	3312	-9840	-2395	-6098	2491	-2336	-5496	-9952	-2385	-313	-428	154	126	1
-11284	-3248	12584	-476	2218	1774	-17720	2008	-3420	-7477	7912	-1821	-20456	-1960	-9776	418	2149	102	-32768	22608	26980	14023	-28254	32767	-24992	3960	-9888	-2332	-6131	2496	-5200	536	-2072	-3307	-626	-354	140	125	1
-11192	-4660	12052	-838	3500	1967	-16364	116	-1768	-6880	9016	-1391	-16632	-4680	6856	1228	2019	-237	-32768	10472	27160	14402	-26709	32767	-31576	9448	-12976	-2532	-6090	2223	-12640	5504	3472	-3388	-1227	145	142	136	1
-11832	-4484	11848	-235	4641	2511	-16312	-2904	1116	-3465	10890	-177	-13776	-3240	13664	-527	2108	-31	-32768	15464	6616	8726	-24778	32767	-23624	9696	-23760	-3309	-4784	1487	-22344	3872	18920	-2901	-2874	1298	128	161	1
-11848	-6728	12836	493	6414	3944	-16520	-2484	3908	-1761	14272	36	-20064	656	6656	-658	1887	40	-32768	-26140	-12436	5933	-23017	32767	-14664	-4496	-18528	-523	-3357	2185	-10344	5840	32767	-4246	-2811	-181	130	136	1
-12536	-6160	14568	1492	9549	6712	-19172	80	1760	503	18282	37	-21256	-4104	8744	-452	1292	-223	-32768	-32768	-17072	32767	-3888	21165	440	8408	-12488	2587	-966	782	-12064	-19920	32767	-802	-82	-1659	126	135	1
-12856	-1872	17384	1729	14921	7870	-21492	1160	-2500	3106	21339	955	-20352	-5336	4168	-751	995	77	-32768	10388	-18208	-3413	906	-11520	-8096	13240	-21352	773	2039	-646	-17008	-20496	32767	92	-64	-1236	126	126	1
-12208	-6308	17380	490	21430	8931	-24296	1632	-2264	3208	23540	2095	-22256	-3864	3800	-980	727	343	-32768	-12244	2256	-32768	-1921	-27751	-12152	1544	-24168	-1380	4162	-1677	-14608	7176	536	3030	-1112	861	125	123	1
-12272	-7892	16496	151	28400	12404	-23848	1748	-832	2530	25257	1848	-21408	376	7000	-840	213	150	-4780	-7428	7028	-22116	10793	-26009	-27440	-888	896	-939	4407	-1369	960	4088	640	3882	228	692	128	146	1
-11428	-7588	17512	-235	32767	19414	-25424	2396	-608	1752	26910	1030	-22224	-584	11832	-1045	-10	98	25036	25252	23076	-16652	19613	-32768	-32768	-9776	13328	2123	2604	-385	-17624	11288	5104	-716	1527	336	79	138	1
-9676	-10260	20596	-429	32767	29869	-32768	7844	2160	-3034	27216	-366	-28632	-1408	17952	-1211	-440	263	-32768	-2832	32767	-6125	32767	-20741	-24280	15816	-20240	262	4195	-2407	-32768	4856	13416	-3870	-69	8	129	109	1
-19364	-15384	19152	-1280	32767	32767	-32768	9828	12372	-17554	29045	-1414	-28288	2000	26352	-2701	-3273	1060	-14928	19304	8796	-1653	18304	-25902	-11864	1216	-15720	-1453	3995	-1458	-15536	-32768	-31216	2539	2645	-528	120	147	1
-32768	412	17880	-17845	32767	32329	-32768	-5668	-84	-16829	32767	-385	-21544	-1704	5752	-3273	-2747	976	-13476	-5072	13068	-14803	4444	-18826	-5720	720	-20584	818	2688	223	-3856	11392	-14160	3854	44	11	131	102	1
-32768	-17960	12552	-27506	32767	25930	-32768	-10372	-1720	-15692	32435	5926	-29512	-10984	-12368	-1529	-2618	-194	-17500	6004	13480	-8630	1990	-9735	-22040	-1072	-17944	1110	1956	-178	-30128	18208	-14952	478	1006	-562	131	109	1
-32768	-32768	19068	-14104	32767	32767	-19768	-13764	-10880	8524	30274	7154	-32656	-5160	-15984	979	-3020	-1316	-10656	10752	10624	-4320	2222	-3717	-15752	5688	-10928	1215	1672	-391	-24312	-3584	-6776	-541	1766	-94	121	137	1
-32768	-29352	23736	5446	3123	26661	-18844	-3740	-31268	15303	15657	1879	-32768	5680	-3984	1949	-3499	-1111	-9636	8588	10984	-3292	1563	-3477	-16696	904	-9944	2969	771	-120	-18496	296	-4912	339	1992	364	112	135	1
-13248	-26944	21252	12393	-27078	4629	-17488	2740	-10948	16896	2224	1898	-32768	4680	-6416	1003	-3313	-1289	-9876	7248	11544	-1807	2262	-2328	-15312	8384	-8992	1574	718	-115	-17288	720	-2024	12	2132	329	159	120	1
3304	-14892	16672	16514	-30793	-2435	-6676	1864	-4052	11084	-9241	1577	-30448	3968	-5160	-223	-3257	-1740	-9516	7836	11424	-203	2492	-1892	-16912	5344	-9104	-724	1057	-328	-19984	-1136	-1592	-153	2084	-438	147	123	1
2864	-8448	11688	11674	-27471	-11464	-4956	2252	-7100	8047	-16825	1234	-23032	80	-6240	-316	-2617	-1264	-9668	7584	11564	970	3360	-1197	-18008	1976	-8504	-991	734	-181	-20184	880	-1016	-337	2084	-563	130	126	1
-6076	-6088	10472	3516	-30336	-20976	-3020	764	-9396	6686	-22520	1588	-19552	5000	-7888	-290	-2470	-1216	-11476	7556	12408	1362	3805	-615	-16592	2656	-7192	7	409	64	-17664	264	336	-531	2171	-716	129	136	1
-8096	-8028	9800	431	-32768	-26784	-4008	1960	-8900	17	-29027	1628	-15760	5792	-7680	-197	-2432	-936	-9768	9208	10068	2428	3522	-740	-15728	4464	-5208	1121	59	221	-16232	400	1992	-468	2184	-534	149	134	1
-9456	-5336	9684	1505	-32768	-28986	-4608	1872	-7336	-4874	-32768	1715	-14312	3512	-8432	-347	-2278	-991	-9840	9016	9816	2261	3032	-1045	-14792	7544	-3640	1303	16	266	-14840	952	3440	-378	2205	-123	129	129	1
-10236	-2236	10536	1247	-32768	-30654	-5928	1044	-6540	-3089	-32768	337	-9656	2208	-9144	-552	-2048	-1054	-9820	8336	9956	1812	2594	-1261	-13560	8152	-2808	504	354	103	-14432	1744	3400	-220	2106	-100	119	99	1
-13208	-1480	12396	-579	-32768	-31364	-8512	-712	-6668	2632	-32768	2182	-7288	968	-9896	-255	-1424	-772	-9916	8068	9728	1293	2551	-1365	-13456	7416	-2520	-72	630	-56	-14320	3448	2896	-137	1988	-151	149	134	1
-16936	-3856	14816	-1422	-32768	-29567	-11420	-2096	-8048	10054	-32768	3443	-6088	-576	-11072	693	-1106	-737	-10140	8380	8912	571	2318	-1482	-13520	7000	-2816	-108	656	-76	-13776	5400	1232	-23	2030	-117	126	126	1
-21388	-5076	16592	-1358	-32768	-26844	-10852	280	-9952	11745	-32768	6046	-5896	88	-12928	2062	-802	-775	-10244	8832	8180	-438	1657	-1658	-12152	5816	-3920	238	723	-172	-13368	3904	736	33	2418	59	124	123	1
-24312	-5428	18928	-2143	-32768	-25817	-14404	2200	-10620	6851	-32768	8812	-4472	1680	-14304	3368	-573	-686	-9980	8072	8936	-1388	1548	-1777	-13304	4864	-5192	261	814	-149	-12032	720	6480	-440	2952	306	122	127	1
-28392	-7456	21844	-3229	-32768	-27413	-19012	1492	-10804	2799	-32768	11072	-2168	2648	-11512	3449	-248	-493	-10248	7332	9932	-1885	1908	-1612	-15232	4856	-4944	57	861	-190	-11672	-520	4672	-642	3548	45	122	140	1
-32768	-10264	24868	-2663	-32768	-29482	-24496	172	-11500	-1225	-32768	12338	-1376	2184	-8024	3243	-109	-361	-9996	8928	9860	-1740	2313	-1840	-16096	4784	-4904	356	846	-146	-16088	-1912	-1928	493	3208	-91	124	131	1
-32768	-13400	25788	-1616	-32768	-30363	-31080	160	-13696	-1280	-32768	12358	-3376	-288	-2088	2645	-355	-110	-10224	8740	10324	-1546	2874	-2323	-15888	4208	-4088	806	855	-40	-20512	-560	-3408	-241	1913	69	128	130	1
-32768	-4064	16400	-5721	-32768	-32768	-31036	1676	-20320	-8800	-32768	10758	-12320	-2584	14832	1251	-1333	182	-10220	7756	11148	-903	3868	-2867	-16440	6696	-3752	1076	906	-94	-17032	5760	7512	-760	1879	-82	126	130	1
-32768	-8924	-4640	-9919	-32768	-32714	-23348	3844	-16944	-20349	-32768	3474	-32408	5648	23248	1846	-2869	-760	-10680	9552	10840	-696	5388	-4030	-15512	10592	-1448	1026	1174	-297	-14648	3984	10784	727	2252	5	151	133	1
-32768	32767	-20880	-28391	-32768	-19872	-16260	-8080	-19784	-32768	-30030	-9296	-9040	1264	32767	-606	304	103	-10708	10896	12308	-1817	7763	-7192	-17864	10072	-848	903	1580	-543	-21008	4960	7624	754	1934	200	159	133	1
-32768	32767	-32768	-32768	-18317	-17277	3092	-7936	-10864	-24246	-2617	-21	-12248	2032	32767	-1223	-1365	1430	-11216	9008	15872	-1743	12212	-10358	-21744	10248	-2160	779	2014	-893	-24464	8616	7648	480	1267	34	89	135	1
-32768	360	-32768	-1849	-108	19894	-4880	-7940	-14712	-6805	19652	-2166	-25968	-3600	15872	-2424	-1849	165	-10996	12556	15736	21	17341	-15511	-23376	9064	-2008	971	2277	-1042	-23000	1600	7632	905	657	-113	134	134	1
-32768	9664	-10952	16114	4811	32166	-14880	-9312	-23928	23542	32737	-4966	-7168	-1376	13576	-1441	-1397	-315	-10576	13476	15424	1267	22912	-22204	-24960	6272	-1728	1433	2415	-1069	-21528	-2496	9080	1285	169	-71	98	130	1
26472	-2372	32767	17052	5739	8358	-17396	4056	-14336	20888	32767	-3046	-840	512	17120	-2113	686	-70	-10628	11936	16196	1441	29501	-27748	-27200	4584	-1816	1848	2424	-1014	-22320	-2200	13936	1577	-201	-48	129	132	1
20204	-32768	21184	23087	4691	3657	-22048	6048	5524	16990	30451	-854	-3160	4344	-32768	-1089	3423	-371	-8540	16568	18764	994	32767	-32506	-32768	8720	3880	2600	2207	-977	-27936	3936	21864	2049	-1046	-179	181	129	1
-32768	32767	-4788	12746	32767	7559	-5900	-5000	-28960	32767	26077	571	-32768	-32768	32767	6021	-2855	-801	-20012	18220	19136	4234	32767	-32768	-32768	16048	6920	4300	1849	-987	-27720	3184	29368	3127	-2657	-772	136	126	1
-32768	11380	23552	11413	12880	30665	-32768	2608	-21416	32767	23208	-7110	-11712	32767	3096	2920	3359	-912	-32768	28168	19476	16673	32767	-32768	-30888	31920	-1720	4437	2297	-1140	-25488	4416	8992	2021	-2625	-1168	107	130	1
-19232	-31912	9716	12249	26431	7007	-9000	1676	-7756	-2904	23528	-14138	-16048	23696	-8784	-2314	185	-506	-32768	32767	15728	2268	32767	-32768	-22280	23080	-3768	2261	2727	-1879	-27928	18616	-15544	1480	-2594	-100	108	129	1
-23496	11680	15532	7015	9029	15124	-11808	-6244	-22692	-9069	20888	-14488	-11160	-5288	-8392	-3240	-236	470	-24324	26544	23924	6781	32767	-32768	-22640	8928	-12032	330	2924	-1797	-31376	6648	-8552	-1453	-3554	903	97	130	1
-14092	2412	16656	6331	7211	8686	-20168	-4132	-13568	-6112	13212	-6187	-26368	-9432	-11056	-1023	1994	-98	-32768	11540	15268	19682	7669	-32768	-18792	-1504	-26512	-1160	1988	-1560	-32768	-5888	-4568	-1506	-3148	836	174	134	1
-15260	6740	16760	5062	6502	7461	-16204	-5092	-8268	-15911	13293	-7278	-22128	-6272	-8616	-944	1144	122	-13156	32767	10796	12956	-32768	-1333	-13224	128	-8776	581	92	-523	-32768	-9312	-6176	253	-3202	401	128	137	1
-12236	-3648	12144	2389	3877	1180	-15964	-7256	-9280	-6795	9961	-5640	-16424	-5888	-4440	-243	2006	646	7588	27104	6012	-5024	-32768	2948	-9400	-912	-2528	1814	-1422	394	-31216	-600	-5464	1202	-3212	777	131	125	1
-11672	-3456	12496	279	3481	51	-18244	-1392	-9036	-1473	7028	-3019	-19000	-80	-2992	543	1801	523	2608	14164	5128	-9471	-30143	6772	-5424	-248	-6744	1154	-2088	851	-24816	2552	-7376	1546	-2792	1013	132	116	1
-11440	-4368	12100	-758	2407	-523	-16764	1312	-7312	-6950	5125	-3882	-18544	2112	-1552	645	2249	516	-2060	8748	4980	-1934	-28356	20173	-4520	456	-7744	-137	-2675	1150	-16904	3624	-8320	1023	-2353	1189	130	135	1
-11408	-4880	11944	-892	2270	-865	-16780	-232	-5848	-14377	4137	-3504	-17912	704	-1176	169	2143	361	-3528	9160	5380	6644	-27329	32472	-5496	1464	-6864	-1023	-3131	1435	-16000	2456	-9680	343	-2060	1166	133	132	1
-11584	-4956	11516	-844	2085	-602	-16624	-2484	-4024	-17154	3470	-3067	-16136	-3192	-384	-42	2019	123	-7252	12948	5420	6914	-26447	32767	-4752	2328	-6912	-1796	-3532	1708	-13392	840	-9440	132	-1790	1053	122	130	1
-11480	-5148	11324	-984	1600	-599	-15608	-2484	-2308	-15370	3820	-2358	-14832	-4536	144	366	2130	138	-11284	13904	6084	1858	-28208	32767	-5752	4616	-6432	-2633	-3775	1914	-9592	832	-10096	-343	-1448	1216	130	136	1
-11344	-5184	11204	-828	1107	-373	-15344	-2520	-1596	-10332	4298	-2225	-15336	-2448	-144	658	2235	195	-13484	12264	8020	201	-29447	32767	-8768	5416	-7552	-3746	-3988	1967	-8448	24	-9752	-1005	-1038	1141	134	129	1
-11332	-4968	11144	-471	1091	-33	-14828	-1872	-2040	-6022	4635	-1500	-14496	-1576	-968	334	2504	129	-15800	13524	9672	2207	-29031	32767	-11760	3832	-8248	-4647	-4246	1863	-6248	-1160	-11600	-1683	-945	978	127	127	1
-11280	-4996	10688	130	727	511	-14216	-1340	-5216	-4397	5022	-1898	-13992	-1112	5296	-120	2831	115	-16432	13820	10012	2556	-28817	32767	-13864	1792	-8320	-4619	-4620	1805	-5232	-3064	-13440	-2294	-735	812	128	131	1
-11436	-3940	10756	410	-35	712	-14812	576	-3960	-9164	4832	-2312	-9432	1976	13088	93	3271	-595	-19924	15732	13128	6777	-24398	32767	-16688	2264	-8728	-4100	-5034	1823	-4648	-5680	-12696	-2925	-691	522	109	129	1
-11260	-5200	10724	468	-67	1138	-15848	-2116	-2664	-8082	5063	-2651	-14200	1176	5528	-845	3658	55	-25544	20592	17408	8621	-20382	32767	-22072	3936	-12288	-3642	-5485	2069	-4568	-6232	-7176	-2899	-788	245	145	130	1
-11032	-4796	11504	405	236	1610	-14944	1012	-2180	-6677	6046	-2297	-19296	-2512	-9504	-949	2666	115	-32768	23636	22104	10060	-21682	32767	-26544	7176	-13456	-3438	-6038	2375	-5208	-6952	-4912	-2727	-995	-297	141	131	1
-11196	-4000	12180	-92	1214	1360	-16752	-268	-3040	-6578	7114	-2469	-19472	-4416	-1800	811	1713	-222	-32768	24708	20704	14638	-23732	32767	-29224	7760	-13992	-2558	-6173	2589	-6560	-3264	-416	-2571	-1527	-452	140	133	1
-11188	-4892	11876	-528	2193	1295	-17136	-120	-2216	-7526	8482	-2401	-14464	-3632	11552	218	1935	-334	-32768	3980	19160	17493	-25072	32767	-27328	1480	-17336	-1912	-5935	2935	-13368	2256	11784	-2791	-2347	79	137	134	1
-11144	-5872	12120	-619	3350	1541	-16212	-2196	1416	-6358	10270	-1577	-16280	128	5560	-756	2029	38	-32768	-1136	7304	26797	-19358	32767	-24624	8984	-15192	820	-5488	2907	-22816	1608	31392	-2873	-3500	744	120	169	1
-11364	-5260	13004	-185	5305	2571	-16560	-3732	3536	-3021	13658	-1250	-20040	-5568	7336	-318	1657	-269	-32768	-22784	-8720	25025	-14425	32767	-8704	7096	-21952	1384	-3501	2199	-8744	-11296	32767	-1684	-762	700	124	174	1
-11688	-6172	14220	353	8377	4156	-18960	-1408	508	1138	17050	-838	-18256	-7224	8440	-399	1159	-194	-32768	-32768	-18044	29323	-10740	14351	-496	8056	-11832	2495	-395	711	-19008	-12192	32767	3250	-535	39	129	143	1
-12408	-5048	15896	750	12715	5505	-21468	-2156	-2764	3456	19741	26	-20896	-6056	2656	-764	1083	203	-32768	-476	-15524	-3993	-6282	-20548	-13384	11776	-18336	972	2210	-546	-24624	6816	12928	4456	-2370	312	125	115	1
-12416	-7040	16752	-652	18145	7921	-23952	-340	-3072	2411	21649	310	-22624	-1064	1832	-796	650	39	-32768	-5912	1404	-23191	-5225	-32614	-13704	232	-25224	-1196	4558	-1413	-12632	14816	2808	2434	-1033	786	124	137	1
-12108	-7648	16660	-856	19227	8444	-23372	3408	-3224	302	23288	24	-21576	2624	5760	-1065	268	-144	-32704	-3336	6852	-13603	4126	-17521	-18936	-11224	-26792	-1236	5017	-1744	-3760	13016	-8480	895	953	1195	118	134	1
-10060	-4240	18116	-3892	32767	13723	-24084	6784	-3012	-289	24793	-493	-21232	1848	9000	-1505	221	40	32767	32767	6224	-25279	-721	-7989	-32768	6160	32767	4382	1093	122	1312	-616	-26144	-493	2978	595	122	125	1
-9732	-7108	18784	-3110	32767	18787	-29708	6484	-1244	-2592	25823	-1067	-27704	1736	12064	-1674	-29	272	8600	-32768	22040	-20008	32767	-32768	-23736	21936	-15168	1304	2318	-1451	-32768	24184	32767	-3683	-2916	206	120	135	1
-14764	-12584	18740	-5559	32767	24545	-32768	11240	8884	-13730	26975	-2069	-28296	1568	29360	-2130	-1820	987	-32768	-5928	32767	-7073	20099	-26196	-27632	-1976	-13904	-4450	4811	-2472	-12704	-30720	12760	-2431	2551	-1823	122	163	1
-32768	-4744	15840	-16474	32767	26948	-32768	4656	6388	-23085	32767	-2959	-28808	2264	25880	-4401	-4390	1504	-17964	32767	-8560	-13029	18249	-16431	-3480	-952	-16640	-2210	3861	-1077	-8624	-19144	-17872	3086	122	1596	126	177	1
-32768	-9712	19384	-28623	32767	20368	-32356	-12116	-1752	-26382	32767	1336	-24832	-7176	-6336	-3565	-2061	387	-14204	-9852	19332	-12002	3588	-17125	-12800	-3584	-16744	1213	2062	790	-11920	9352	-10208	3498	814	-806	118	104	1
-32768	-22844	12788	-29280	32767	20705	-25708	-8624	-5412	4995	29092	4462	-30888	-17256	-17688	-1030	-2858	-545	-12888	-132	16900	-6579	2668	-7166	-21784	2160	-13760	2030	1693	-125	-32656	11880	-9328	1181	1314	-919	130	104	1
-5888	-17668	18584	-25797	32767	32767	-16136	-6052	-23344	13862	25014	8056	-31096	-3064	-11264	1360	-3300	-1136	-10092	11944	8688	-3964	2469	-4222	-14936	4136	-10464	2808	981	-128	-20864	3296	-5168	313	1651	68	123	127	1
-32276	-32768	16376	-11632	-9959	5820	-18968	968	-20556	6208	12290	3104	-32768	4808	-4656	2056	-3452	-960	-10256	6416	12052	-3416	2145	-3011	-15208	6592	-8104	2545	641	-102	-16688	1872	-2048	-133	2046	345	147	120	1
-5200	-29072	15436	14682	-32768	2386	-11436	-1792	-4368	1692	-1600	2829	-32160	4056	-4856	943	-3191	-1219	-10432	8040	10700	-1177	2392	-1971	-15024	8936	-9296	69	1020	-254	-19048	-3744	-1832	-138	2066	151	129	115	1
4852	-8892	12228	21638	-32768	7356	-5036	-3048	-4684	5778	-10536	-396	-25984	-2200	-3488	-191	-3229	-1385	-9652	8388	11488	210	2716	-1374	-17264	3928	-9160	-1564	1190	-326	-19736	1080	-1632	112	1958	-266	141	119	1
-1924	-1104	11028	11009	-32291	-3016	-3268	-464	-8836	14106	-17971	1261	-21296	168	-7368	-488	-2548	-987	-9992	8448	10740	1626	3142	-594	-17328	1328	-8232	-830	718	-23	-18824	2712	-952	-262	2056	-658	108	130	1
-4536	-5392	9488	-257	-32768	-15580	-3068	1920	-9336	7367	-23197	3948	-18464	560	-8616	-184	-2311	-887	-10292	9056	9892	2056	2816	-250	-15904	3048	-7320	783	181	188	-16608	1712	416	-477	2171	-456	130	138	1
-5956	-9972	7748	-1136	-32768	-20899	-4556	656	-8220	-965	-29652	6013	-15992	1272	-9504	17	-2265	-945	-9880	9592	9484	2109	2181	-249	-14520	7472	-5584	1402	-75	325	-15768	1488	1760	-520	2190	-169	126	130	1
-7660	-10516	6968	3702	-32768	-22295	-4224	-888	-6772	-4728	-32768	5038	-13408	1208	-9472	25	-2285	-1185	-9800	8964	9812	2010	1748	-529	-14128	8800	-3968	788	140	190	-15456	2056	2456	-393	2139	-253	127	126	1
-11004	-7864	7840	6052	-32768	-24235	-5652	-2232	-6540	-1531	-32768	4403	-9200	-640	-10816	541	-1784	-967	-9852	8492	9784	1833	1641	-719	-14024	7048	-3544	5	438	40	-14744	1768	2256	-195	2138	-174	134	91	1
-14652	-7240	9384	4366	-32768	-27634	-8508	-2732	-6844	2667	-32768	6551	-6888	552	-10296	744	-1221	-743	-9888	8236	9268	1383	1746	-737	-13648	6256	-3192	50	534	-23	-14104	3456	744	100	2203	-66	149	132	1
-18172	-10112	10728	3136	-32768	-29954	-11108	-3612	-8188	7701	-32768	7649	-6656	472	-10592	779	-1162	-730	-9768	9528	8444	532	1576	-1111	-12776	7968	-3336	351	512	-38	-14640	5232	-1000	414	2385	-12	137	128	1
-21576	-12012	12472	3678	-32768	-29942	-10308	-2260	-9312	8496	-32768	8227	-6152	1168	-12664	2505	-680	-772	-9980	9136	8580	-690	1063	-1701	-13296	6384	-6240	104	631	-60	-12536	3928	6384	-218	2687	214	124	125	1
-24636	-12408	15012	3151	-32768	-30112	-14812	-948	-9980	5228	-32768	9205	-4232	3864	-13624	3458	-458	-625	-10020	7592	9724	-1352	1258	-1396	-14944	3856	-4064	145	610	-103	-10408	-408	8256	-922	3354	306	121	128	1
-27280	-13224	18080	1879	-32768	-31546	-19996	-548	-10068	3562	-32768	10117	-2280	5640	-10456	3181	-67	-338	-9884	8564	9684	-1183	1546	-1313	-15064	5304	-3168	617	603	-23	-14408	-992	1776	194	3365	-91	123	125	1
-32768	-13804	22168	-586	-32768	-32768	-25096	-1572	-11856	5649	-32768	10621	-2104	4680	-7696	2479	131	-157	-10244	8696	9944	-908	2216	-1678	-14568	7056	-2672	582	803	-9	-19920	16	-1584	347	2208	-40	124	130	1
-32768	-22200	22568	-964	-32768	-32768	-32672	-2260	-15336	4419	-32768	10394	-5208	416	1480	2072	-283	74	-9948	9164	10260	-345	2801	-2231	-16016	6808	-4272	407	1029	-86	-20072	5144	3256	-1153	1721	38	124	134	1
-32768	1900	14104	-3716	-32768	-32768	-28500	3280	-16812	-11172	-32768	8240	-15888	-7088	16504	1038	-1634	13	-10104	9136	10724	-970	3930	-3144	-16232	7616	-3696	767	1103	-147	-16152	6464	7752	-172	2039	42	121	132	1
-32768	-1868	-2732	-14723	-32768	-32768	-21808	-472	-19572	-26265	-32768	2654	-28968	4568	19352	1528	-1720	-1078	-10288	10308	11228	-2150	5835	-4609	-15520	10736	-1464	1095	1251	-315	-17608	2928	7376	711	1954	28	140	135	1
-32768	24820	-22864	-22216	-32768	-18593	-15160	-7596	-17972	-32768	-27993	-7853	-7240	-248	32767	-482	-524	-494	-10496	10896	12724	-1528	8742	-7756	-18616	9512	-1176	1014	1646	-511	-21232	3200	7608	488	1563	279	149	133	1
-32768	32767	-32768	-32768	-19323	-4920	1752	-8456	-8828	-22731	162	-3072	-16648	1768	32767	-1641	-1120	820	-10376	10792	13304	-1361	9341	-8299	-21792	9496	-2400	876	1991	-814	-22112	5184	6384	989	1264	91	120	133	1
-32768	4168	-32076	-3540	4969	21821	-6416	-7120	-14772	2359	19984	-2199	-21784	-3008	15176	-2508	-1520	309	-10468	11108	15204	690	18506	-14552	-21648	8336	-1736	1114	2191	-981	-21512	3008	6440	1177	690	-31	135	134	1
-32768	5020	-10180	14381	10438	25346	-15620	-5732	-23492	22749	32767	-3544	-11600	-4768	11096	-1084	-1191	-483	-10552	12656	14024	2331	23740	-20578	-22920	6680	-2096	1516	2364	-1017	-19936	-640	8184	1231	140	95	137	132	1
-16376	-32768	32767	28170	24889	15231	-31384	17740	23408	32767	26040	-1075	-6816	-1408	-3736	-1702	1262	34	-9216	13588	16388	2317	29746	-25900	-26896	7048	-1304	1966	2383	-976	-24504	856	13616	1495	-244	-23	131	136	1
29300	24440	15744	18084	32318	20581	-28884	-4608	-2124	32767	15922	-3921	-22328	-312	6736	2956	1923	-372	-5180	14972	18808	646	32767	-30125	-32768	8696	6000	2638	2158	-983	-27712	4320	22840	1751	-1262	-266	126	131	1
-32768	4784	32767	10747	32767	10414	-32768	14568	-22848	32767	24552	3429	-32768	-32648	6936	2418	-466	-1417	-19584	18976	20632	4102	32767	-32768	-32768	14712	8424	4093	1970	-1125	-26104	-504	28400	2918	-2897	-777	148	129	1
-7588	-8204	12120	-481	16224	19978	-6452	11584	-9440	10870	24277	-14698	-3936	32767	-25640	557	3459	471	-32768	27348	17568	14012	32767	-32768	-30336	31816	-2968	3481	2626	-1279	-24272	1760	3032	2640	-2571	-962	86	120	1
-32768	-22940	2048	18375	15703	20948	-11288	-20432	-14800	-4045	20258	-12952	-6576	-216	-9912	-2568	-1093	265	-32768	27116	17976	2775	32767	-32768	-23592	18008	-5720	1601	2916	-1928	-29872	17528	-15544	1093	-2539	165	160	136	1
-17588	-5400	13868	9644	3874	14296	-19812	4228	-18028	5565	13732	-12774	-27608	-12080	-10464	-1695	787	179	-25512	23200	25516	7071	32767	-32768	-22192	7496	-14408	493	2740	-1648	-32768	5512	-9016	-1393	-3458	737	126	141	1
-14136	4772	15236	4805	2309	5847	-16432	-468	-12456	-9132	13136	-8507	-23208	-4600	-7344	-796	1420	-462	-32768	18712	18024	19024	6722	-29103	-18064	-2152	-25400	-698	1740	-1434	-32768	-6192	-5616	-1158	-3152	430	133	131	1
-11008	-6780	11804	3696	858	3536	-15148	44	-9400	-24106	13999	-7853	-17928	-1784	-5600	-1007	1582	254	-9896	32767	14028	11687	-32768	-2974	-12872	672	-6512	912	-69	-388	-32768	-9608	-5440	210	-3280	263	144	129	1
-10864	-2928	13260	2314	2131	1945	-18152	-6556	-7740	-13297	9293	-5864	-16104	-4344	-2392	-342	1983	619	7748	22928	8088	-2443	-32768	-887	-8992	-976	-2080	1833	-1491	438	-29224	-3016	-5296	1112	-3266	571	133	144	1
-11344	-4108	11820	934	2222	987	-18548	-4920	-7984	2942	6194	-3079	-18248	-2520	-1544	289	2528	427	1940	12852	6904	-2962	-32768	3818	-4728	-1088	-5720	1063	-2164	982	-23464	-352	-5920	1723	-2827	738	127	138	1
