#Activity	walking 
#ActivityID	1 
#Date 09-24-16-37
acc_rf_x	acc_rf_y	acc_rf_z	gyro_rf_x	gyro_rf_y	gyro_rf_z	acc_rs_x	acc_rs_y	acc_rs_z	gyro_rs_x	gyro_rs_y	gyro_rs_z	acc_rt_x	acc_rt_y	acc_rt_z	gyro_rt_x	gyro_rt_y	gyro_rt_z	acc_lf_x	acc_lf_y	acc_lf_z	gyro_lf_x	gyro_lf_y	gyro_lf_z	acc_ls_x	acc_ls_y	acc_ls_z	gyro_ls_x	gyro_ls_y	gyro_ls_z	acc_lt_x	acc_lt_y	acc_lt_z	gyro_lt_x	gyro_lt_y	gyro_lt_z	EMG_r	EMG_l	act
-32768	-12936	15192	-4271	-32768	-12965	-24532	-7868	-16240	-8999	-32768	8907	-14872	5984	6208	1385	-8210	1623	-9200	3624	13396	143	-156	-1686	-16092	4016	-1716	2423	6105	2438	-15740	3888	2176	4962	12817	1254	126	132	1
-32768	-6620	6716	-2963	-32768	-17390	-18420	-7704	-14228	1018	-32768	4710	-13352	2728	10848	8175	-5430	3445	-9120	3068	13720	83	1302	-2497	-16144	1700	-1964	2418	7104	2664	-16992	2076	2952	4269	13478	1594	124	129	1
-32768	672	-432	-5929	-29845	-17523	-22064	272	-12332	-3301	-29204	3690	-14176	9084	21844	11322	-7418	2897	-9152	2968	14116	161	2345	-2439	-15584	2648	-1284	3773	8439	2981	-16280	2696	2476	5700	12775	1146	123	126	1
-32768	10148	-19896	-3743	-20633	-10539	-9564	-3108	-14796	-9362	-16610	-2319	-15132	12000	32767	6672	-8442	-123	-9344	3308	14512	214	4152	-2613	-16216	4536	-1436	2264	10333	2861	-17284	5168	2180	3525	11360	1548	126	124	1
-32768	19556	-27280	-6428	-1996	-1901	-1784	-9080	-15516	-7841	3110	-5022	-14328	3572	31364	-2360	-3478	-3193	-9568	2984	14912	85	6727	-3017	-16804	3608	-1744	1683	12433	2718	-18016	6312	2716	619	9411	2032	121	123	1
-32768	4584	-9164	3201	9074	4480	-11168	-10800	-17080	7122	13628	-2742	-17220	2360	9952	-6474	4922	-7222	-9972	3296	15412	725	10750	-3247	-18500	2168	-2372	2568	14609	2370	-20148	6516	2672	1490	7371	567	128	125	1
-28996	-5528	-12776	22223	24051	5893	-19340	-3256	-17620	16542	21402	-3612	-16368	2752	2632	-5512	7440	-10344	-9900	3668	16260	614	16087	-3985	-20432	2184	-2632	2692	16606	2919	-22300	4124	2680	3872	3741	-301	126	124	1
-7172	360	32767	9554	27743	-12777	-25700	17104	7312	26214	21465	1117	-20424	-644	-3232	7610	10625	-9855	-9576	4004	17196	-131	23172	-4843	-23212	336	-2196	3643	18541	3209	-23848	2912	6672	3115	911	58	136	128	1
-13772	5660	15652	6170	32230	-9435	-26864	2836	-8684	29616	16635	-561	-20852	-512	-1956	10201	9301	-10005	-9764	5296	17916	-1346	31580	-6254	-25324	-1220	-852	4215	20529	3713	-24656	2008	11624	1678	-3106	-254	119	128	1
-25004	24360	30384	1713	20481	9379	-16772	11720	-10760	20593	17005	-4642	-16584	4260	-3288	19188	9659	350	-9936	6172	18628	-1552	32767	-9315	-25728	-1644	-668	4352	20760	3806	-26296	2696	20540	-674	-15138	-2255	131	131	1
-12664	-19588	9700	-317	14749	8831	-20700	-500	-6824	7106	16953	-4960	-17472	7428	-13404	20273	2021	-4481	-9744	10516	18584	-1136	32767	-14891	-32768	-8088	6736	13401	22276	6979	-22184	-6252	15556	641	-23177	-6932	120	131	1
-17572	-512	16156	7637	16805	4339	-16512	-10808	-8680	13901	12148	-6324	-15392	7360	-4700	4408	7053	-4068	-24996	13104	16676	-1811	32767	-26392	-27580	6216	2808	20028	21919	8418	-21912	-9864	7148	4711	-16902	-9770	138	137	1
-12572	-7472	12412	5624	6670	5679	-17892	2320	-10340	14922	10777	-6473	-14164	5980	-6256	-327	9137	-5441	-32768	9404	21308	-3623	32767	-30249	-27060	7916	488	20128	22244	8774	-22308	5424	-1140	13855	-17191	-4767	121	132	1
-10936	4580	15564	3939	1820	3158	-18856	8468	-8660	-1601	10894	-6067	-20596	5472	-4680	-6151	10890	-5078	-26904	12076	24200	-2866	32767	-29546	-23776	7532	-9788	10343	19494	8073	-28892	6548	-11232	19178	-14019	-1887	116	133	1
-9444	-2164	13916	2000	1552	1143	-17332	1188	-5332	-14638	9456	-5220	-20392	5064	-4780	-6996	11153	-4362	-25584	12292	23944	-1805	32767	-29276	-17572	2380	-11972	5686	14385	5782	-31784	5708	-11320	17794	-14984	-720	110	127	1
-8716	-2300	13360	1803	1127	1082	-16288	-3932	-4708	-11849	7189	-4986	-16332	-640	-1604	-2915	10604	-1386	-32768	20352	32767	22915	-2250	-7392	-16664	3144	-11712	5546	13479	5346	-24456	-2632	-7100	2053	-21643	2719	129	117	1
-9304	-340	13796	1172	1046	740	-17396	-4944	-4632	460	6124	-3455	-16792	120	-196	1664	9835	-2004	-2256	23208	20088	15576	-26175	-414	-12704	-1392	-5684	13443	-1331	6296	-23604	404	-6040	1112	-21581	299	116	133	1
-9588	-1472	13456	513	1217	497	-18020	-1416	-4848	6455	5528	-2588	-17032	2072	-1416	3555	10657	-2134	-328	21940	17632	13361	-26893	150	-8816	1848	-5172	12772	-8304	7216	-21020	464	-5460	6541	-18024	-782	118	120	1
-9440	-1796	13128	431	1220	182	-17468	1472	-4772	1170	4719	-2570	-17232	1772	-2576	1954	11496	-1777	7716	5844	6940	6591	-17232	9206	-8256	2596	-5232	11686	-9233	7300	-17060	2248	-6288	8751	-15293	119	120	121	1
-9540	-1840	13016	852	1110	-300	-16748	-692	-4756	-3814	3728	-2624	-16808	1264	-2660	1747	11846	-1473	-1940	6540	11724	7839	-14849	11801	-6124	2392	-6452	1527	-18226	3176	-15348	1572	-7556	6314	-14098	1005	124	119	1
-9444	-1852	13108	972	705	-592	-16508	-2852	-4156	-4448	3351	-2020	-16480	900	-1596	1747	12520	-1929	-9004	6588	17324	7056	-22137	13298	-6356	3880	-6812	-3248	-22471	2407	-13888	2540	-7664	3142	-14600	2061	131	125	1
-9136	-1740	13016	656	457	-707	-16216	-2500	-3588	-1611	2773	-1651	-16060	1576	-580	2525	12344	-1905	-7836	4056	17196	7359	-31130	15761	-9276	2312	-7064	-5828	-26906	941	-12624	3332	-6732	359	-14385	2580	131	120	1
-8928	-1420	13192	365	523	-634	-16092	-1028	-2968	350	3045	-1624	-15600	2236	348	2249	12117	-1445	-5308	2272	14432	9629	-32768	17796	-10332	580	-7460	-7380	-31066	-1241	-11436	3496	-6800	-1660	-12398	1758	128	111	1
-8892	-1844	13236	280	641	-325	-16284	-676	-2332	685	3050	-1405	-15644	2564	612	1000	12134	-1486	-9060	2872	17044	10313	-32381	19007	-10460	592	-8416	-8838	-32768	-3622	-10764	3352	-6944	-1924	-11796	1478	131	124	1
-8944	-1624	13092	316	699	85	-16388	-440	-2536	-1099	3263	-1596	-15244	2040	520	-1009	12403	-1475	-14196	2780	20332	8758	-32768	19732	-11700	408	-9532	-9565	-32768	-5433	-8444	1380	-8620	-6584	-5991	-279	130	130	1
-8928	-1540	13188	425	774	439	-16104	-1416	-2324	-1382	3587	-1545	-14788	1100	196	-2174	12726	-1400	-16096	908	20128	9930	-32768	20742	-13892	512	-10116	-9118	-32768	-7502	-7108	816	-9116	-10401	-2524	288	127	133	1
-8904	-1388	13168	443	906	626	-16252	-996	-2692	-498	4126	-1435	-15064	936	-216	-3141	11940	-1496	-18244	1172	18980	12966	-32621	21608	-16144	1068	-10640	-8695	-32768	-10575	-5792	-232	-8748	-14133	-755	2728	127	132	1
-9104	-1544	13364	244	1204	557	-16716	-300	-3072	-849	4589	-1315	-13940	2868	3352	-2407	12350	-2636	-26244	4956	23340	11354	-28907	22295	-19312	1508	-10788	-6236	-32768	-11786	-6296	-1124	-7852	-13618	212	4193	123	128	1
-8980	-1332	13124	173	1600	594	-16448	1048	-2720	-2982	5201	-1735	-12932	5120	3132	-337	16241	-3500	-32768	7016	26736	7159	-31277	23868	-24276	7560	-11776	-7086	-32768	-11809	-9940	172	-1360	-9733	-2996	4170	124	123	1
-9120	-1400	13204	174	1751	648	-15544	-192	-2188	-4390	5941	-2146	-18092	5672	-12	-3498	16277	-1725	-32768	9780	21848	2068	-32768	25938	-23108	8084	-14644	-13398	-32768	-13955	-15660	2796	8688	-6465	-9654	4535	123	122	1
-8972	-1000	13436	97	2231	410	-15612	-108	-1952	-3528	7051	-2115	-19600	1428	-924	-3295	7574	465	-32768	2088	12232	103	-32768	28049	-22000	7004	-15084	-13544	-32768	-14137	-13636	3480	12284	-8916	-6011	3244	125	118	1
-9116	-928	13616	96	3278	100	-16352	-1208	-2496	-1891	8247	-1523	-17368	-168	1576	-2761	7165	-417	-32768	-3412	-1916	2072	-30009	23789	-17024	2668	-12592	-3464	-31693	-7876	-14324	-8860	20004	-8642	-1773	1418	126	119	1
-8976	-960	13772	-95	4482	194	-16588	-816	-1992	-906	9453	-1621	-16668	1340	3288	-2257	10135	-784	-32768	-7176	-5464	3003	-28935	22195	-8656	1420	-9688	8369	-18837	805	-22784	-15756	32767	-7454	-3929	3151	127	126	1
-9036	-852	14460	-655	6486	46	-16840	-720	-1144	-778	11274	-1120	-17684	444	5056	-1611	10741	53	-32768	-26084	-20276	16317	-8019	-4037	-3392	13372	-10320	10961	-491	5615	-22600	-2448	28640	5367	-4224	-475	127	131	1
-32768	6056	-6784	2353	7602	5656	-10612	-8776	-17684	4827	15296	-5735	-16624	1164	5028	-4481	5382	-7756	-9688	4140	16256	-876	14433	-4105	-20244	1160	-2236	2608	17286	3374	-20856	4316	5568	1928	3583	263	143	130	1
-7632	476	-9692	16607	23290	7195	-16356	-904	-13116	14418	21944	-6368	-14024	5132	1736	-3475	11893	-9235	-9784	4352	17092	-1374	20750	-5556	-22200	340	-2172	5050	19135	4423	-22504	2636	7340	5600	2648	-485	118	130	1
4320	4364	32767	1168	32531	-11406	-32768	23832	9652	25611	20458	2607	-24480	-336	31888	20836	11366	-8381	-9872	4184	18704	-2660	29446	-6890	-22604	216	-2148	5170	19462	4613	-26212	1448	10484	5398	-2338	-573	129	128	1
-28184	22920	25948	2174	30882	5369	-19344	1008	-13252	25956	16670	-3565	-13972	-5636	3792	13828	7448	821	-9668	6132	18560	-3162	32767	-9951	-30332	-4864	-32	5059	22885	5794	-27496	-1040	15296	743	-12156	-372	131	126	1
-17240	-5284	17684	-3659	19974	10258	-16592	5520	-8396	11690	20945	-6922	-16748	10608	-12524	26613	1498	-6709	-9920	10020	20048	-2076	32767	-15355	-32768	-10804	3772	13431	22841	8857	-24388	-9180	17540	-4802	-29317	-6282	111	130	1
-11936	-9556	12244	4141	21659	2889	-17280	-6740	-10060	14257	17461	-6046	-14512	12444	-8316	6658	5409	-4052	-21172	10604	21220	-1649	32767	-25816	-27352	2808	1756	23043	22051	9752	-20912	-13832	2488	9951	-13720	-10756	142	130	1
-22856	-56	17480	4406	12506	8376	-16644	-4304	-12888	11055	12790	-7490	-14136	4260	-6288	-363	7592	-3968	-32768	10764	22320	-2677	32767	-29999	-23172	14632	-8448	21661	23073	11186	-23416	5204	-920	19570	-17887	-5676	125	132	1
-15608	2112	17744	7167	7060	3931	-20092	5264	-11268	1537	10580	-8415	-23092	2616	-7268	-4137	11153	-5207	-22908	13528	20520	-980	32767	-29955	-24412	7660	-8696	14513	18710	9491	-30988	7188	-10584	22269	-13548	-1618	113	133	1
-16456	6424	19448	6437	5553	4036	-17032	2816	-7448	-12709	11451	-5508	-18044	36	-5664	-4558	10115	-3362	-13376	11544	24768	10987	32767	-22786	-17396	3376	-11868	6245	13554	6567	-30760	512	-9588	11379	-17429	3348	116	127	1
-9404	-2124	13748	2115	1875	806	-16448	-4064	-6196	-14080	9010	-5049	-16668	-616	-3416	-851	10460	-2449	-32768	21880	32767	27747	3838	-9347	-9912	7956	-15300	3844	7571	5156	-23828	-2976	-6576	2822	-22377	3682	126	114	1
-8896	-1840	13692	1526	1500	600	-16648	-3864	-5840	-4429	6401	-3067	-17548	620	-2236	1294	10674	-1959	-6024	26512	20920	17000	-22708	-1383	-13236	-1084	-7140	12135	-1723	7518	-25336	-1324	-5900	3173	-21858	995	113	113	1
-9504	-1604	13468	714	1537	142	-18468	-2860	-5896	6324	5164	-2548	-17600	3084	-2268	4055	11195	-2351	-2660	24720	17844	14103	-23851	-474	-8544	1196	-6648	12701	-8378	8855	-21072	1244	-6268	9251	-18404	0	122	123	1
-10084	-1628	13032	375	1499	-76	-18220	2452	-6448	4383	4204	-2406	-17344	4096	-3448	2968	12535	-1497	6616	5848	6436	7398	-16699	11275	-5664	1044	-6324	6114	-13704	6562	-16672	1116	-7152	10993	-15424	720	117	116	1
-9848	-1596	12836	452	1442	-685	-16564	1948	-5892	-3513	3095	-2833	-16756	3908	-3028	1638	12805	-1192	92	5828	9680	8778	-13836	14540	-5112	980	-6280	2204	-18327	5032	-14724	1076	-8068	8162	-13698	1492	125	115	1
-9768	-1940	12840	651	1432	-1430	-16732	-52	-4896	-7654	2306	-2792	-16496	2844	-1924	582	13942	-1235	-5656	5392	14460	7669	-17549	15582	-5196	2156	-6544	-1888	-22517	4514	-13320	2088	-7580	5164	-13623	2223	133	117	1
-9432	-1660	13004	451	1416	-1642	-17156	-1872	-3780	-7188	1964	-2390	-16292	1856	-420	322	13619	-1461	-8436	2892	16980	7072	-25258	16824	-7152	1808	-6524	-4220	-26411	3523	-11332	2700	-7476	1413	-13069	2730	128	119	1
-9500	-1508	12888	109	1477	-1684	-16024	-2036	-3108	-3088	2269	-2451	-15244	2084	664	1157	13302	-1509	-7656	252	16968	9838	-30542	18012	-9616	1472	-7480	-6511	-30083	1487	-10540	3180	-6692	-841	-11714	2255	130	121	1
-9400	-1860	12620	-194	1454	-1557	-15480	-1160	-2072	-595	2702	-1905	-14948	2220	1560	236	12748	-1506	-9016	68	18172	12500	-32319	18425	-11244	284	-8092	-8390	-32768	-1321	-9064	3296	-6600	-3270	-9486	1237	128	119	1
-9500	-2740	12524	-38	1247	-795	-15864	-664	-1764	-1824	2831	-1896	-14936	1288	1244	-2153	12629	-1603	-12540	612	20308	11920	-32768	18643	-11960	-552	-8996	-8872	-32768	-3605	-8224	2276	-7388	-5617	-7004	289	127	125	1
-9548	-2224	12416	90	975	-192	-15504	-1640	-1892	-3640	3623	-1825	-14768	236	564	-4263	12568	-1420	-14800	-68	20584	11603	-32768	19146	-13212	-732	-9180	-7612	-32768	-5811	-7780	1916	-7780	-7647	-3736	450	123	131	1
-9420	-1908	12732	250	883	225	-15920	-1268	-2208	-2733	4227	-1803	-15068	940	788	-5496	11817	-990	-17420	1100	19648	11925	-32768	19885	-14900	1148	-9444	-8575	-32768	-8391	-6352	936	-8004	-12593	-882	2435	126	127	1
-9648	-1664	12708	209	954	209	-16084	-684	-2900	-1815	5083	-1442	-13932	2144	3404	-4389	11947	-1607	-21644	3360	20488	10040	-30793	20786	-18056	1532	-10232	-8517	-32768	-10406	-6628	-1192	-7568	-14730	347	4644	118	121	1
-9600	-1944	12768	290	1045	324	-16248	-172	-2492	-2041	5742	-1534	-14780	3892	4052	96	15344	-2803	-28260	6060	24688	8230	-28773	22295	-22912	3860	-10556	-7743	-32768	-11068	-8948	92	-3700	-12099	-2415	4879	121	126	1
-9696	-2180	12556	400	1042	649	-15272	8	-2488	-3515	6551	-1826	-16456	5420	632	-3051	15440	-1579	-32768	8636	26196	4395	-31687	24627	-24080	9436	-14060	-10551	-32768	-13117	-14880	2784	6092	-9136	-7770	4903	122	125	1
-9316	-1468	13096	350	1402	752	-15480	-664	-2680	-2975	7488	-1552	-19116	2364	-1108	-3161	9978	-313	-32768	5620	16448	43	-32768	26790	-22000	4404	-12544	-11500	-32768	-13736	-16276	4488	10176	-8039	-7542	4376	123	116	1
-9044	-1116	13824	21	2810	537	-17688	-660	-3372	-2035	8426	-1331	-18384	460	-516	-2546	8035	-403	-32768	3720	3000	100	-31357	25702	-16804	6708	-13008	-6774	-32768	-9797	-11544	-3936	16276	-7930	-2134	1752	123	118	1
-9516	-1652	13532	-547	4560	556	-17412	268	-2560	-1584	9443	-1155	-17676	1392	2396	-2309	9651	-86	-32768	-18780	-15996	11499	-25062	16144	-13168	-1408	-8828	172	-24559	-1300	-19124	-17144	30580	-6729	-1708	3914	125	123	1
-9240	-1100	13736	-914	6547	583	-16696	100	-1348	-1643	11205	-1007	-17548	692	6052	-1551	10249	872	-32768	-27788	-21480	22897	-11525	1239	-2184	11200	-9224	11474	-6438	6384	-22936	-6304	32484	2221	-2807	623	127	121	1
-8980	-1040	15288	-1451	9817	92	-18604	-948	-300	1035	13347	-164	-19924	148	8184	355	8355	1253	-32768	-19436	-11604	-6221	482	-9525	-4084	12508	-14212	1354	9564	5550	-17856	5480	16384	5661	-7317	1684	126	130	1
-9244	-2864	15788	-1209	14550	44	-20972	700	-480	3379	15532	179	-21192	3388	8644	960	6017	1309	-32768	-13052	-4340	-12740	3844	-12162	-7596	6624	-17912	-5129	19797	4859	-13720	8876	1088	9565	-3666	3576	126	122	1
-9204	-1780	16396	-1056	20951	413	-21916	3976	-672	2620	17708	-628	-20856	5644	10324	-1035	2673	2684	-1016	3960	21416	-26655	10371	-14520	-21544	428	9480	-15476	20970	7964	-12320	6964	-3608	9972	3488	5626	126	125	1
-8192	184	18352	-1611	30883	-574	-25504	5724	844	100	20435	-967	-23456	5268	16064	-3206	-2715	3652	16	1784	19720	-10279	27739	-9658	-32768	-18248	-5204	-12719	16207	-2061	-23940	-1380	10936	-17273	-6047	2596	126	153	1
-6660	-4880	19588	-2104	32767	-2395	-32244	6312	5368	-1098	23298	151	-26524	7716	27832	-2788	-14840	5843	-32768	-26460	32767	-3307	23464	-6780	-16256	-8068	-10204	-18477	21660	5419	-19332	-12564	22892	-14094	8237	3069	126	109	1
-7660	-9692	22032	-988	32767	502	-32768	9352	11024	-9010	24350	-1844	-20712	15180	26008	4872	-6697	9163	-10700	22052	12076	1633	16597	-5380	-13624	1152	-8976	3362	20683	7810	-18628	-15904	-30340	-9591	8653	-3018	129	138	1
-32768	-8708	19796	-1178	32767	11006	-31240	-7816	-3000	-10621	27487	-605	-19212	6680	1312	-25254	12	9473	-9756	25944	8836	47	17370	-4256	-15212	15316	-12860	-2483	14367	9477	940	3452	-7780	23106	2601	-4763	128	120	1
-32768	-13512	23164	2547	32767	21604	-32284	-15056	-3020	-416	27940	-3211	-29592	-6712	-5068	-13496	-1990	2337	-16660	9848	15688	-6669	5175	-6941	-14528	6260	-16344	-3198	10984	8151	-18044	4744	-9960	12227	10720	4737	125	128	1
-26328	-13724	28464	8523	32767	28397	-29720	-1052	-3912	3571	25362	-4152	-32768	-784	-12144	-4179	-11264	-1327	-12356	-1500	15868	-1585	765	-1752	-20096	-56	-11212	5380	9901	5337	-27552	14692	-11292	7994	12173	5566	129	125	1
-13500	-9448	32767	-3873	32767	18719	-23492	-1224	-6192	3608	17684	-2249	-31080	7348	-4244	-6229	-17614	677	-9956	3512	14720	-917	521	-815	-15996	9804	-7684	9465	7975	5371	-19264	4880	-4380	2445	9779	3726	131	108	1
-32768	-13104	32767	-17311	3781	2912	-16332	-3296	-10056	-2872	10516	833	-29356	1816	-9208	-3814	-17623	2169	-8604	3548	14228	-3	960	-344	-16772	5640	-7168	2324	6138	3854	-14752	3824	-3564	3165	11001	1435	127	133	1
-284	-19048	25352	-9784	-22953	-68	-15592	-1412	-1192	-7738	2116	406	-28212	3588	-9480	835	-20135	2119	-9492	3040	14068	955	1615	162	-17212	4804	-7300	-1853	4782	1984	-17024	3332	-1596	1210	12732	1712	128	131	1
5956	-11772	13844	2549	-26719	-689	-10608	-6388	-1240	-5461	-6006	539	-22852	2272	-10284	1566	-18443	-540	-9020	3916	13756	1439	1773	268	-17520	1936	-5432	-28	3167	2219	-17220	1080	-2168	377	13566	891	133	129	1
3732	-6596	9768	6942	-25884	-2258	-6164	-6360	-2568	2612	-13445	2395	-21816	2240	-10428	1363	-18183	-649	-9120	4340	13292	1135	1668	228	-16252	3412	-4272	4629	1854	2370	-15856	3344	-2336	2424	13843	351	134	127	1
-848	-5244	10048	5580	-27197	-4302	-5900	-3932	-3620	7793	-19064	4297	-17152	2936	-12052	-2545	-19522	-3629	-9940	4464	13204	856	1388	189	-15584	4816	-3364	6208	1174	2228	-16328	3864	-1292	3126	13989	520	131	138	1
-4284	-6028	11280	3167	-31150	-5565	-6964	-3280	-4636	9259	-23856	5706	-13536	84	-11420	-2976	-19789	-4540	-9672	4372	13272	629	1302	273	-15668	4980	-2944	6126	1137	2153	-15204	2268	1356	2473	15385	1289	131	137	1
-7092	-6916	11824	1710	-32768	-6810	-7640	-3500	-5236	8043	-28366	6994	-11068	-1208	-11772	0	-19617	-4920	-9368	3896	13364	535	1450	224	-15168	3276	-1712	2902	1474	2047	-15100	-172	1784	3880	13423	1479	128	130	1
-9816	-7128	12368	629	-32768	-8694	-8268	-4420	-5968	7705	-32333	8257	-9584	-1844	-11424	4035	-19531	-5412	-9420	3768	13288	521	1399	125	-14492	2240	-1224	3477	1942	2355	-13900	-584	2052	6583	13542	569	128	137	1
-11772	-8356	13072	-249	-32768	-10757	-8124	-9164	-6060	9088	-32768	9217	-8792	-972	-11808	7945	-18572	-5784	-9624	4436	12980	348	1235	-112	-13004	4652	-1172	6386	2643	2357	-14496	1784	1468	12159	12586	407	129	135	1
-13048	-8504	12848	-2762	-32768	-12608	-12508	-3128	-6048	8703	-32768	11045	-7248	184	-13464	10706	-17310	-6354	-9544	4872	12636	3	841	-620	-14552	5716	-1348	5689	3311	2773	-13428	4252	2132	12635	13955	1674	131	133	1
-14328	-8820	13088	-3554	-32768	-12708	-17016	-2836	-7468	4302	-32768	10814	-6644	2060	-14376	13146	-15472	-6266	-9580	4300	13000	-385	477	-1264	-15436	4832	-2656	5058	3800	2208	-12692	3740	3332	7920	15058	3527	124	135	1
-24104	-9612	16792	-11891	-32768	-14890	-20228	-4556	-10668	1425	-32768	10303	-4700	4784	-10280	13562	-14595	-6675	-9280	3908	13024	-525	292	-1624	-14792	2336	-2316	5300	4144	2134	-15416	4628	-1932	10203	16975	2494	126	132	1
-31772	-17124	22728	-13821	-32768	-17491	-27964	-8064	-10272	1150	-32768	8964	-5880	6812	-2784	8827	-16776	-3266	-9376	4044	13308	-712	403	-2007	-15220	3136	-1032	7133	4960	2768	-18640	7076	-3424	11134	12795	-52	127	126	1
-32768	-20232	21116	-7929	-32768	-22178	-31336	-9748	-12980	2657	-32768	6482	-10572	6924	5532	3143	-16926	656	-9356	4084	13396	-682	529	-2071	-16392	4520	-864	4470	6324	2752	-20360	6884	-548	2725	6759	-344	130	126	1
-32768	-14080	13784	-3127	-32768	-29699	-24048	-5904	-18788	3943	-32768	3970	-16488	-908	5752	10500	-11316	-2365	-9548	3644	13844	-333	2898	-2363	-16436	2904	-448	2813	7911	2609	-17792	5792	4536	934	8307	592	128	126	1
-32768	3140	10280	-6559	-32768	-31567	-21612	-888	-16392	-920	-32768	2920	-14936	2064	11972	9815	-8250	-2866	-9228	3900	13856	36	4308	-2548	-15056	2984	1396	4400	9889	2750	-15928	5908	6716	3263	10012	538	130	129	1
-32768	6996	-1192	-2917	-31746	-18986	-22308	-8868	-17220	-8877	-29291	107	-13760	10104	20304	3948	-9592	-5353	-9336	4004	14484	314	6896	-2780	-17032	4308	1416	2337	12832	2594	-18724	5296	6528	3497	9453	939	126	129	1
-32768	16520	-26036	-4675	-22926	-3517	-8116	-4884	-19628	-5522	-15351	-6293	-15400	13128	32767	2491	-5643	-7383	-9512	3396	15360	945	10658	-3244	-18252	1664	-524	101	15542	2986	-20608	2132	5520	2445	6619	1775	127	127	1
-32768	21232	-27592	-13592	-2019	4523	-2728	-2748	-19812	-1761	4709	-8709	-13384	4312	27352	3230	1532	-6345	-9612	3144	16044	1644	16032	-2914	-19776	-268	-2180	845	18017	3546	-20880	560	5372	3008	4280	1636	133	129	1
-32768	12752	-21852	28522	20184	4586	-10768	-1284	-27176	11863	16510	-6521	-18544	2024	8852	445	5779	-9856	-9888	3732	16728	2920	23731	-2839	-22384	-1328	-2212	2760	20131	4375	-21936	16	6416	4780	2092	397	141	130	1
-5428	11948	32767	15325	32767	-14607	-24968	15540	22120	30778	26787	3662	-22208	-312	4632	2859	11235	-13434	-8768	4072	17648	4158	32767	-2812	-25056	-3032	-1356	5460	22273	5080	-25620	1576	8732	5698	-2615	-1030	133	133	1
-32768	32767	25564	6612	28404	11747	-32768	-72	-18072	32767	21109	-1649	-8868	6704	10896	32767	9256	-7772	-8900	4012	17704	4459	32767	-2638	-31804	-7280	1020	7180	23391	5832	-29856	1992	14552	2552	-10554	-1324	132	133	1
-13784	-7488	18488	438	15050	10150	-12712	24208	-5020	10813	24490	-5069	-15396	10300	-22888	19395	12009	536	-10180	11364	19616	8770	32767	-8106	-32768	-11696	6048	14887	22979	8477	-31204	-2800	32767	-7328	-32768	-5456	107	135	1
-4000	-13036	8300	2380	20744	3804	-9568	-14512	-10092	2863	20607	-4402	-12112	6660	-19004	-498	812	-2224	-30128	14328	17376	9901	32767	-21246	-32768	-10940	7424	17329	22662	8688	-14008	-22780	840	9978	-11491	-12072	121	127	1
-29844	-6520	17820	7694	12341	8736	-12356	-17012	-14416	12307	12202	-8027	-9380	-2948	-8404	-6837	7810	-1320	-32768	14420	19380	9607	32767	-23708	-26104	13604	-9736	16130	23808	10571	-25444	8436	996	17730	-20341	-7360	134	135	1
-16056	2836	19520	9242	4741	6075	-27348	7912	-13400	9703	10622	-6303	-29240	-584	-9684	899	11210	-7643	-28428	16280	25852	4641	32767	-29627	-24652	8044	-7272	13418	19847	8992	-32264	11500	-14796	23790	-12774	-3240	111	132	1
-10236	-2216	14992	3103	1639	1818	-17964	5672	-7408	-9964	12663	-3538	-21100	4160	-6704	-1260	9164	-6009	-17224	8180	26096	18476	31708	-18162	-19004	1780	-10624	6092	15145	4935	-30412	3560	-8632	11736	-18937	1518	117	133	1
-8784	-588	14144	2168	1108	1213	-15732	-1192	-7100	-13069	8609	-5252	-13820	4596	-2840	-907	10332	-2544	-32768	27096	32767	27427	2718	-8303	-10852	8480	-16752	4740	9700	2444	-24976	736	-6568	-1462	-23005	2234	127	127	1
-8420	-636	14208	720	1384	192	-17644	-1472	-6272	-7261	6471	-4652	-15484	5504	-1820	-1676	11679	-1242	-6356	24852	24088	11431	-28451	1095	-14080	-1424	-6368	11955	559	3266	-24032	2720	-5864	-3940	-23267	-1057	129	139	1
-8168	-1276	14052	-669	1953	-599	-18612	-2924	-4832	3669	5362	-3503	-17784	4152	-1796	-1703	12119	-1538	6416	12800	11712	-479	-30891	6475	-9456	4276	-4872	14548	-6744	3349	-22948	3872	-5572	812	-19466	-2039	131	131	1
-9252	-2592	13288	-814	2217	-631	-17956	-524	-4600	4117	3708	-3079	-17704	692	-2760	-2281	12928	-1131	7100	5244	7576	-3416	-24671	9743	-6100	5488	-5140	4898	-12987	1060	-19096	3840	-7360	1613	-16687	-937	127	121	1
-9824	-1988	12904	-202	1757	-980	-16760	856	-4176	-6161	3021	-3350	-17184	-1040	-2720	-3731	14317	-775	-292	4376	9924	-2446	-21194	10671	-5260	4648	-5900	-4688	-17939	-1743	-15636	3176	-7752	2465	-14601	305	115	122	1
-9460	-3184	12872	688	1302	-1224	-15840	-2904	-3380	-12143	2140	-2229	-17328	-2852	-1840	-2731	14425	-1089	-7112	5528	14252	-2517	-26139	9591	-5124	5220	-6960	-9533	-22539	-3226	-12472	3272	-8660	208	-14267	1809	130	125	1
-8992	-2620	12788	840	796	-1049	-16740	-5296	-2808	-7873	1904	-2023	-17724	-912	-992	1247	13094	-1782	-9732	4324	15704	-1524	-32768	9964	-6724	3728	-7212	-10363	-26780	-5169	-11416	4492	-8532	-2074	-13370	2728	133	124	1
-8944	-1644	13228	407	736	-896	-15708	-3152	-2036	-1198	2410	-1786	-15412	2120	1476	2252	12878	-290	-9380	4252	14012	1300	-32768	11099	-8556	2428	-7600	-9685	-31124	-7799	-9696	4500	-7896	-4728	-11422	2144	137	121	1
-8752	-1612	13384	57	941	-932	-16228	-484	-1676	1130	2805	-1142	-14724	3136	2416	118	13406	-80	-10928	5168	13424	3188	-32768	12097	-9180	1436	-8300	-9447	-32768	-9961	-9224	2956	-8888	-7173	-8496	1117	132	131	1
-8816	-2508	13052	-24	907	-647	-16296	-236	-1212	-2356	2986	-1296	-14656	2136	2156	-3683	13910	-702	-14988	7300	15184	3701	-32768	13689	-10192	820	-9240	-8201	-32768	-10980	-7940	308	-10024	-9041	-5712	-330	131	135	1
-9012	-2640	12704	195	682	133	-16116	-428	-1168	-3141	3069	-1390	-14756	400	1204	-7351	14688	-1048	-17524	7704	15748	4275	-32768	16296	-12304	1552	-9312	-6100	-32768	-11734	-6428	-864	-10136	-11412	-2784	-552	131	135	1
-9048	-2304	12872	386	399	598	-15984	-2624	-1884	-4334	4083	-1608	-14664	-16	1024	-8048	13909	-1363	-17544	6012	14160	9087	-32768	18726	-16748	2416	-9660	-4344	-32768	-13103	-4628	-1776	-9044	-14443	-439	1081	133	133	1
-8952	-1496	13132	252	549	489	-16196	-1224	-2220	-2523	4859	-1085	-13540	1928	3988	-5930	14943	-2344	-26868	11248	19944	9832	-31061	18834	-19976	5000	-10884	-3335	-32768	-13217	-4532	-928	-7564	-16120	-407	2424	128	127	1
-9012	-1704	12996	228	647	572	-16576	820	-1812	-3171	5625	-1458	-13320	4804	3816	-3438	16809	-3983	-32768	16572	24212	6361	-32768	21419	-25372	12404	-12464	-8963	-32768	-12537	-9572	172	-132	-10473	-4649	2801	124	122	1
-8852	-1932	13080	285	735	746	-15192	212	-656	-5276	6522	-2031	-18140	4616	1072	-4642	13955	-2007	-32768	15752	16880	-1180	-32768	26431	-21636	8624	-14696	-16772	-32768	-14425	-17164	3340	8960	-9048	-13702	3661	124	114	1
-8604	-1616	13452	357	1135	727	-15000	-80	-596	-5381	6704	-2070	-20692	-1676	-92	-4083	7078	229	-32768	7032	8848	-3646	-32392	30171	-18480	3548	-14628	-10727	-32768	-13445	-15244	2516	11016	-12227	-5781	3967	125	117	1
-8688	-1836	13580	295	1835	766	-16948	-2552	-2184	-125	8761	-1347	-20356	-2632	444	-4151	6896	237	-32768	-1776	-4032	-1900	-29176	25153	-18640	2616	-13496	-2948	-31409	-6988	-15188	-10552	19164	-12025	-4256	2387	126	124	1
-8692	-1904	13816	402	3132	910	-16944	-1152	-1896	-710	10335	-1207	-16100	-196	2608	370	12819	164	-32768	-24020	-21112	16357	-21941	13042	-8128	1420	-10836	11279	-18281	1921	-23092	-16000	32348	-2595	-2943	3080	127	129	1
-8312	-1220	14896	-185	5684	744	-17040	-1248	-1556	-807	10490	-1155	-18780	-1060	3660	1250	11367	1417	-32768	-20780	-21088	19275	-7882	-2327	-4388	14084	-9932	15391	-103	6957	-21856	-2524	25380	10072	-4232	-403	125	131	1
-8840	-1364	16080	-1165	9747	328	-19952	-160	-1520	2866	13653	-36	-22284	1660	4740	1225	7745	1399	-32768	-9832	-10316	-3714	3220	-14674	-5036	14512	-10552	14092	2291	7116	-17008	5820	10652	14989	-8049	2578	129	123	1
-8712	-1856	16504	-1649	14949	-57	-20124	-204	-1444	2959	14041	36	-21296	3996	6540	68	5449	1775	-16584	7468	-5624	-29676	14223	-19092	-12760	11128	-15748	-5968	20602	8190	-14060	9324	-828	13363	-1598	6688	130	134	1
-8616	-1932	17380	-1730	21300	-6	-22312	2572	-608	1396	17719	-834	-21608	5044	9104	-2879	3610	2419	5876	8404	32767	-19431	18563	96	-27324	-12908	11552	-25907	19078	3594	-9860	10068	-4156	6330	3416	7853	129	134	1
-8348	-2160	18316	-1717	30542	-451	-26024	2072	680	136	20095	-833	-24308	4940	12880	-4323	-519	2145	-9356	-21020	16140	-10534	30104	-11386	-32768	1348	-12748	-30645	16743	78	-25220	9996	9460	-28763	-8641	9625	132	126	1
-8028	-3060	20036	-3565	32767	-1709	-29936	6944	4340	-531	22644	-326	-26636	6368	23376	-5736	-10905	3984	-32332	-12900	29668	-2229	15627	-12561	-16272	-19488	-9376	-21311	19542	5582	-18408	-10732	22704	-23325	14494	1410	130	103	1
-4972	-8636	20952	-1176	32767	-248	-32768	14376	10576	-8740	24351	-2390	-22560	13344	32767	12736	-18107	10073	-10700	20680	11496	-1456	13800	-6183	-14516	7392	-4260	5260	18039	8257	-18472	-16836	-24168	-12004	11829	-5139	132	121	1
-28816	-9484	20740	-3895	32767	8215	-32768	13688	10908	-11278	24082	-2685	-13860	12540	-5044	-20560	-4918	11534	-12032	-24	13964	-9104	8426	-10863	-15224	18824	-10868	-8951	13592	8997	-1644	6820	-6672	16558	4506	-1510	136	116	1
-32768	-12500	22332	-445	32767	18901	-30164	-18076	-3552	-6350	27808	-4070	-27204	-3108	-2268	-15528	-1764	2152	-14876	5608	15224	-7789	1977	-8438	-14704	3344	-13816	-12045	11349	6251	-16888	1964	-6212	7587	9851	8906	128	130	1
-27884	-13168	27628	8549	32767	26632	-29644	-3220	-2876	2215	25923	-5116	-31308	-812	-12176	-8115	-8088	-1233	-11816	-508	16324	-3366	-233	-3573	-19984	-5152	-10252	2236	9572	5023	-25480	8128	-8072	7737	12431	8449	128	127	1
-9080	-8408	32144	1815	32767	19953	-22864	296	-5980	3550	18506	-3176	-31232	8660	-5376	-6900	-18098	488	-9080	4048	14864	-1607	-459	-1739	-16132	3880	-7540	11419	7839	6145	-21324	1912	-3340	3803	8923	3536	125	108	1
-32768	-9948	32767	-12244	12552	4154	-15320	-1856	-13188	-675	10540	-1488	-27424	5124	-8572	-7323	-17563	1519	-8692	1732	14736	-530	-122	-827	-16424	5420	-8572	3135	6243	4988	-14380	1488	-2204	2604	10972	1782	130	118	1
-4524	-16768	30320	-10026	-22778	-4258	-15832	2248	-1244	-6971	3217	-1527	-26056	3576	-8284	-1065	-20077	3013	-8332	2024	14632	564	418	109	-16396	2020	-6852	-2049	5124	3147	-17176	580	-1216	2355	12443	1952	129	129	1
7540	-9480	15832	-4112	-28458	-6678	-12532	-2320	-212	-7074	-4984	-1070	-24820	5452	-9972	-485	-18182	713	-8528	2860	14240	1175	987	707	-17008	3140	-5676	-2134	3887	3044	-16300	3256	-1240	692	12220	152	146	128	1
6292	-6184	10888	259	-26090	-7280	-7032	-5232	-1744	-2097	-13647	-86	-18592	5936	-9772	-4622	-18347	-253	-8544	3708	13788	1218	1071	989	-15968	3424	-4104	387	2867	3224	-15952	4588	-2232	23	12971	-305	136	132	1
-252	-4360	11460	1761	-26550	-7025	-6676	-3880	-3352	4409	-20037	717	-16968	4288	-12392	-6276	-19444	-1843	-8780	4096	13672	718	781	928	-15512	3696	-3116	4518	2054	2679	-15956	3560	-792	163	12927	1117	130	136	1
-4776	-3092	13768	1245	-31463	-6368	-7740	-2400	-4924	7801	-25109	1827	-15032	4424	-10008	-7366	-17712	-2166	-8432	4308	13840	18	541	453	-16088	3720	-2036	6969	1773	2473	-16608	3000	1028	1055	15884	1477	124	135	1
-7612	-1732	14752	-1763	-32768	-6389	-8500	28	-5680	5987	-29631	3579	-12424	-668	-11144	-5602	-19572	-3494	-8300	3472	14156	-104	524	-19	-16080	2764	-2276	5245	1890	2596	-15672	796	1956	2216	13348	1337	129	133	1
-10096	-2000	15048	-4552	-32768	-7234	-9796	-660	-6428	2749	-32768	5459	-9568	-1144	-10228	-1742	-18635	-4111	-8464	2492	14464	507	774	91	-15208	2052	-2220	826	2459	2455	-14784	-932	3516	2985	13020	-329	133	132	1
-11464	-2624	14692	-5501	-32768	-8177	-10408	-228	-6132	2455	-32768	6973	-8392	328	-11360	2212	-18041	-4478	-8460	3464	14124	754	901	23	-15992	1656	-1456	1272	2996	2759	-15532	-300	2040	6311	12573	-1352	127	131	1
-11600	-2856	14836	-5540	-32768	-8286	-12576	712	-6856	842	-32768	7815	-6980	1904	-11528	5075	-17173	-4349	-8760	4120	13660	603	853	-561	-15196	3004	-1332	4693	3412	3002	-14916	2804	1196	8942	12567	-539	129	127	1
-16040	-3204	16732	-8156	-32768	-8802	-16088	332	-7256	-1706	-32768	8115	-5164	2512	-12440	6657	-15940	-4518	-8652	4008	13684	359	544	-1173	-15168	4924	-1600	5935	4039	2889	-14396	4964	356	10370	12993	757	131	134	1
-19864	-3028	18204	-13017	-32768	-8995	-19424	-1364	-9192	-3354	-32768	7976	-2556	2616	-11620	6534	-12347	-4478	-8832	3756	14052	88	562	-1710	-15736	4616	-2108	3479	4650	2542	-15156	4288	856	9430	14351	1467	130	139	1
-21036	-3536	18684	-13617	-32768	-8953	-24292	-2380	-11088	-4400	-32768	7874	-2760	2456	-11244	6381	-11698	-4673	-8852	3316	14264	19	836	-1905	-15656	3052	-2440	2126	5365	2400	-14132	2280	2364	5525	15129	1943	127	130	1
-32768	-12648	26724	-15100	-32768	-12396	-31672	-7908	-13784	-292	-32768	7285	-9720	3820	2568	2864	-15028	-1870	-8816	3400	14064	-60	1343	-2357	-15800	2000	-2508	4353	5849	2753	-13980	1024	2368	1805	14738	2356	127	124	1
-32768	-15204	16360	-4616	-32768	-18817	-26504	-6944	-17696	5354	-32768	7205	-14840	-52	10332	6716	-15625	-1293	-8904	3692	14080	-153	2071	-2527	-15684	3956	-1500	4618	6835	2875	-17312	4752	-996	2951	15569	953	132	123	1
-32768	-2484	7952	-2250	-32768	-27740	-20644	-2124	-19096	3824	-32768	6195	-14816	320	12940	13694	-9669	-2138	-8944	3072	14304	-190	2873	-2843	-15548	3140	-368	2979	8523	2953	-21200	10056	-1628	3395	10714	-48	128	122	1
-32768	-1028	6288	-2486	-32768	-28288	-17512	-6064	-17736	-1035	-28169	2783	-12912	8368	24380	11088	-9250	-850	-8656	3064	15016	-306	4775	-3012	-16604	3072	-240	2459	10914	2958	-19312	6296	4636	-274	7739	1380	128	123	1
-32768	17000	-28104	3405	-19042	-12537	-8168	-3396	-18892	-31	-12450	-3687	-15724	13720	32767	7212	-6067	-2328	-8776	2836	15280	-220	5217	-2968	-17216	2444	-808	1241	13384	2746	-17060	2372	7468	758	8888	1646	126	125	1
-32768	23348	-26768	-5616	840	1608	-3376	-7336	-20320	429	6978	-6363	-14836	4668	26392	6060	-1514	-4535	-8956	2844	15952	801	11713	-2785	-17436	2468	-1516	1210	16103	2902	-17912	1716	5592	4104	8010	764	125	126	1
-32768	9388	-6704	5205	8858	9928	-11468	-6388	-20872	7339	17968	-4664	-17252	2412	4136	-501	6432	-7635	-8988	4060	16660	1059	16866	-3317	-20580	1160	-1276	2148	18446	3423	-22012	2876	4348	4749	5873	476	132	124	1
-8740	5176	11248	17200	21437	8453	-19372	2852	188	15668	22966	-4828	-12080	5124	-1056	-3384	11946	-8615	-9084	4276	17944	740	24197	-4645	-22832	-396	-1132	3928	20716	4493	-22416	2936	4472	4765	5149	413	139	126	1
3972	-1332	27020	5275	30020	-1766	-32768	14968	4528	22572	17521	3964	-23560	1832	11352	13481	3773	-7560	-8504	5008	19732	-50	32767	-5547	-27880	-1080	-324	4261	23436	4632	-26884	3680	11304	1643	-5345	224	135	127	1
-32768	13832	29584	2622	28400	4073	-17552	3948	-13252	24518	17413	-2170	-4516	6388	5880	26760	11100	-83	-8204	6516	19376	83	32767	-8080	-28528	-1528	-480	3943	23766	4628	-27528	1480	17676	-1297	-15100	-1112	127	129	1
-14040	-604	18364	-2293	17286	8592	-19024	9836	-5636	7312	21383	-7297	-6292	4000	3792	21734	13087	1403	-8788	5928	19336	100	32767	-8643	-32768	-11424	5456	14975	24277	8100	-28084	-8568	22492	-8299	-32441	-8406	117	134	1
-6992	-10860	10464	704	18871	3867	-16288	-5984	-6884	5491	18454	-5830	-13092	6704	-12920	-3431	5038	-1325	-30096	13488	20020	-81	32767	-26520	-27940	9876	28	20891	24290	8945	-21692	-12952	5552	6197	-13559	-11145	139	133	1
-20180	-2012	16956	2052	15683	6457	-14568	-7568	-10460	7670	11875	-6952	-12192	568	-4324	-8018	7387	-1606	-32768	14484	22876	-3071	32767	-30051	-26568	13840	-6680	14042	24994	9793	-23388	-6520	5480	8645	-16357	-9635	116	137	1
-14896	-5836	14728	5782	7853	4043	-21912	1564	-9732	2170	10979	-7562	-23160	252	-7060	-5471	12478	-6659	-23016	14960	24828	-2766	32767	-29982	-24456	7244	-7184	9293	19798	7297	-30908	8988	-12548	16547	-14238	-1444	114	136	1
-12508	-1780	15340	2590	3602	2278	-17868	2720	-7124	-8918	11910	-4903	-19688	180	-4788	-6272	10675	-4275	-8992	9924	27632	9757	32767	-20812	-18624	1520	-10448	2357	14007	4459	-31012	356	-6032	7579	-20252	1805	112	130	1
-9480	-1680	14276	1903	2215	1020	-16300	-2840	-6456	-12091	8756	-4763	-15660	604	-2956	-2633	11407	-2687	-32768	23604	32767	23952	7296	-5548	-10176	7420	-15620	2124	7712	2350	-24712	-304	-6196	-545	-22448	2036	113	114	1
-8888	-1936	13476	945	1964	134	-17508	-2080	-5292	-7907	7188	-4047	-16376	2544	-1820	-2121	12046	-1322	-4264	25388	25108	13302	-23752	4998	-14260	-1708	-6012	12007	-1630	3447	-24504	2912	-5416	-3680	-22960	-631	120	136	1
-8764	-1820	13932	-35	2238	-545	-17904	-3180	-4952	-1075	6002	-2832	-17864	1648	-1732	-490	12662	-1657	6480	13140	11900	1295	-25225	10688	-9216	3232	-5284	13557	-8922	3526	-23608	3120	-5828	1261	-18870	-1138	121	129	1
-8948	-3008	13008	-481	2334	-822	-17560	-1900	-4320	2181	4496	-2718	-17352	232	-2016	311	13214	-1256	6256	5560	8460	-973	-20208	14312	-6208	4536	-5736	3900	-15224	1241	-18764	3220	-7192	2802	-16258	-402	124	121	1
-9344	-3232	12696	248	1836	-631	-17432	212	-3952	-2170	3641	-2455	-16896	736	-2516	13	13923	-441	56	4424	10032	616	-16882	15756	-5980	3320	-6028	-3702	-20091	-1416	-16140	1920	-7920	3701	-14335	463	129	122	1
-10052	-3256	12552	1378	1401	-793	-16552	-1948	-3828	-7245	2786	-2150	-17144	40	-1836	1252	14256	-700	-9604	7252	15400	-310	-21328	14776	-6004	3412	-6212	-4483	-20887	-1631	-12704	1860	-9196	1967	-14049	1728	133	124	1
-9636	-3064	12644	1801	933	-1225	-16740	-2656	-3260	-7331	2540	-1908	-16436	580	-764	3276	14376	-1146	-16816	6496	19336	-1988	-32768	15342	-5844	5064	-8496	-8380	-28061	-3522	-10260	3032	-8928	23	-14081	2412	128	123	1
-9444	-2220	13092	1073	795	-1582	-16148	-1920	-2668	-4032	2818	-2115	-15316	3248	904	1926	13936	-735	-12240	2828	15684	1451	-32768	17376	-9632	3256	-7812	-9014	-32547	-5682	-9684	4480	-7752	-2889	-11893	2399	128	128	1
-8984	-2480	13188	336	988	-1779	-16136	-1224	-1932	-1449	2971	-1796	-15156	3336	1540	-193	13900	-797	-10660	2760	12768	6897	-32768	18499	-10244	1096	-7780	-9507	-32768	-8620	-8088	3456	-8552	-4781	-8756	1445	120	131	1
-9068	-2948	12840	-82	1210	-1342	-16352	-1332	-1364	-2641	3278	-1671	-15156	2100	1264	-3559	14105	-1105	-16004	6556	14716	7039	-32768	18059	-10596	1932	-8732	-8348	-32768	-9828	-7496	2164	-9920	-6966	-5127	258	127	134	1
-9300	-3248	12536	53	926	-481	-15788	-1676	-1484	-5545	3636	-1934	-14904	528	672	-6880	14535	-1564	-17148	5020	14340	7188	-32768	17838	-13664	2052	-10092	-7819	-32768	-10298	-6124	444	-10364	-11199	-2125	216	125	135	1
-9216	-2980	12700	296	618	86	-15872	-2608	-2004	-6136	4235	-1936	-14204	-600	656	-9391	14734	-1682	-19960	4964	14656	11756	-32768	18943	-17224	3632	-9848	-5936	-32768	-12901	-5192	-88	-8620	-15793	27	2506	130	132	1
-9216	-2652	12640	331	628	294	-15932	-2432	-2116	-3878	4964	-1441	-13364	840	3692	-7944	15621	-2453	-30204	11872	22944	10476	-29757	18854	-23248	5624	-11184	-2912	-32768	-12369	-5920	284	-5056	-17550	-1561	3754	129	129	1
-9176	-2628	12720	383	694	544	-16224	-500	-1808	-3812	5625	-1437	-12556	4080	3836	-4202	17260	-3648	-32768	18892	23216	2283	-32373	21450	-27540	15212	-12016	-12183	-32768	-12652	-12096	1548	3720	-11582	-7414	4984	125	121	1
-9172	-2584	12964	480	878	805	-15632	-328	-920	-5037	6420	-1570	-18432	3804	-352	-4846	14760	-1981	-32768	13356	13280	-6996	-30433	26120	-21156	8108	-14396	-17921	-32768	-14784	-18288	5152	11480	-9003	-13506	6062	122	111	1
-8976	-2292	13144	279	1645	781	-16424	-1344	-920	-3708	7867	-1584	-22816	-2260	-1000	-3702	6607	1142	-32768	7956	2908	-6564	-28912	29466	-17332	1668	-14908	-8853	-32768	-11393	-14352	-2120	12576	-12280	-7176	3023	123	117	1
-9192	-2308	13244	59	2763	781	-16736	-2080	-1084	-1249	9111	-1173	-17696	-2184	3812	-2253	8772	-135	-32768	-11140	-11328	3658	-25756	23194	-14796	2604	-12828	618	-27180	-2542	-18212	-13168	26344	-6409	-2974	3182	125	126	1
-8964	-2620	13616	-453	4634	834	-16572	-1888	-344	105	11055	-755	-16616	-200	5712	-582	10820	339	-32768	-23612	-22208	21923	-17307	12071	-5268	5728	-11376	13041	-12320	4868	-23156	-7216	25312	-803	-1436	1642	127	127	1
-9052	-2236	14252	-1074	7359	862	-17804	-1124	-16	945	13140	-477	-20104	436	6136	-494	9304	700	-32768	-19048	-18212	9042	-4481	-3160	-6308	16532	-12396	8349	3726	7195	-18124	3476	19184	5448	-4265	947	128	134	1
-8872	-2384	15904	-1645	11590	645	-20860	-356	-928	2453	15201	49	-21608	2296	6428	-591	6629	656	-32768	-9464	-16140	-24525	11965	-19575	-10592	11516	-18980	-5492	16286	7500	-18652	9548	10284	6187	-7821	5056	128	127	1
-9240	-2760	16660	-1310	17609	311	-22440	2920	-1540	2735	17204	-339	-21584	5108	7476	-2090	4402	1602	-5568	-20640	31696	-21883	18713	-13363	-15592	-2716	7188	-28823	24165	5874	-14444	9752	-1268	7962	-2674	8342	126	131	1
-9020	-1776	18688	-2159	26508	-778	-24744	4388	-708	775	19364	-998	-23892	4932	10848	-3673	661	2982	-19952	-6252	27004	-8733	23534	-18479	-21932	-14984	11904	-31686	23661	3585	-26480	4792	9872	-10707	-9529	9845	132	143	1
-6816	-1344	19432	-3556	32767	-2876	-30876	3672	4332	1154	22034	200	-28672	4460	18920	-3601	-7244	2588	-31728	684	24540	-4660	14227	-5807	-13304	-24812	-14552	-27057	22803	7029	-8920	-17708	19240	-27074	10586	3148	127	129	1
-6372	-10284	21088	-2936	32767	-1885	-32768	12268	10436	-2567	23755	-2045	-27756	12736	29644	-587	-22407	7124	-4604	-2380	15140	-262	13487	-6096	-7396	-1860	-5960	5796	19619	9842	-13192	-16832	-32768	-6973	16100	-10650	127	153	1
-13176	-8400	20724	-3994	32767	5201	-32768	14060	10588	-4694	23860	-2779	-12848	16120	1224	-2207	1375	9306	-11148	16116	9728	-6635	7228	-10202	-16660	18204	-10932	4273	15092	9879	-956	5020	-2048	13639	-2358	-2083	125	118	1
-32768	-11600	18480	-6019	32767	15262	-29336	-16552	-5452	-9826	27336	-3728	-20728	3136	3608	-23243	-4576	6109	-16220	-4560	17364	-6537	-764	-8369	-15916	18652	-10596	2241	14411	9619	-14960	6408	-7092	10688	9850	6927	130	115	1
-32124	-16136	24880	1752	32767	25576	-30012	-4960	-5188	-2021	25875	-6056	-30856	-2352	-11984	-11530	-1076	-496	-9664	-1272	16692	-2976	-753	-3287	-19760	-3756	-10172	-150	10986	4895	-28712	10684	-7672	3672	14976	9779	124	108	1
-21856	-11016	32767	-4375	32767	22229	-23176	-480	-6520	250	20877	-5405	-29964	4580	-9416	-9429	-13776	507	-8912	4272	14556	-1552	-623	-1577	-16412	4236	-7372	7863	9537	5516	-20960	-508	-1504	1013	8153	2989	126	111	1
-25508	-68	32767	-18542	18373	10594	-17496	-1824	-10540	234	13430	-2949	-26316	5580	-5524	-7379	-17147	1213	-8672	4048	14776	-1489	-579	-1568	-16272	4820	-9372	564	7694	5133	-12536	1072	-1660	3836	11123	1131	133	110	1
-10444	-20824	32720	-20227	-18117	4184	-16612	584	-1640	-8823	6639	-2181	-26172	5848	-8364	-2707	-19126	2671	-7800	1696	14700	328	305	-135	-16308	4240	-9112	-351	7527	4961	-16944	2196	-1472	2160	12098	1474	126	133	1
5756	-14644	19248	-5942	-27588	3343	-13896	-2080	156	-9848	-2124	-2920	-26868	5980	-8912	-1726	-18459	1377	-8064	2816	14532	891	748	14	-16708	3360	-5804	-2503	5030	3093	-17360	2792	-1168	-435	12851	1161	128	127	1
6640	-7432	13496	1680	-27135	1100	-8820	-4352	-1060	-3486	-10448	-2166	-19784	5140	-8872	-5236	-17669	359	-8760	3396	14272	723	884	276	-15928	3264	-4632	1894	4030	3206	-16140	4356	-1228	1045	13101	976	134	129	1
2212	-3784	12188	11	-26651	-2603	-7944	-1304	-2312	2692	-17436	-85	-17616	2924	-9944	-6797	-17495	-1203	-8648	3844	14172	317	627	456	-15476	4716	-4184	5326	3200	2693	-16388	5048	-1068	2539	12861	1460	128	128	1
-2628	-3776	13592	-3227	-29206	-5760	-8652	-288	-4148	4064	-22834	1514	-15028	3056	-10320	-7310	-17845	-2148	-8452	3648	14188	190	603	192	-15712	5388	-4124	3903	2827	1936	-15724	5192	8	-648	14692	1422	127	137	1
-5728	-4256	14488	-3916	-32768	-8259	-8860	-188	-5096	2931	-27505	3004	-12172	32	-9932	-6611	-19587	-3033	-8292	2972	14296	357	754	-10	-16136	3512	-4300	278	2693	1535	-16080	1796	896	-1303	14237	1498	129	127	1
-8104	-3284	14436	-3112	-32768	-10369	-9656	-160	-6020	2291	-31618	4381	-11276	-724	-10488	-2715	-19707	-3883	-8264	2772	14400	531	841	-95	-15580	1428	-3736	-934	2628	1853	-15140	-1292	1540	519	14270	464	130	127	1
-10752	-2696	15128	-2498	-32768	-12294	-9960	-628	-6168	3100	-32768	6149	-8988	-472	-10752	1493	-18322	-4339	-8172	2892	14292	627	956	-341	-15312	672	-2732	1646	2734	2278	-15136	-884	2580	3732	13786	-917	132	134	1
-12152	-2468	15628	-1099	-32768	-12777	-11800	-112	-6716	3572	-32768	7583	-7264	832	-11448	4171	-18004	-4293	-8404	3380	13944	547	766	-733	-15300	3148	-2448	3886	3036	2710	-15524	1068	1612	5971	13761	-890	129	131	1
-14728	-1672	17340	-2548	-32768	-12185	-14188	392	-7880	3574	-32768	8949	-5832	1988	-12160	6960	-16530	-4291	-8560	3416	14064	385	585	-1292	-15224	4048	-2376	3597	3533	2729	-14564	2548	1384	7466	14062	-208	128	127	1
-18820	-1616	18964	-7921	-32768	-11821	-17672	356	-8484	2535	-32768	9472	-3744	3064	-12088	9578	-13784	-4482	-8336	3524	14252	306	549	-1665	-15448	4428	-2780	2179	4103	2418	-15672	3568	28	7793	14642	464	128	130	1
-22728	-2948	20704	-11830	-32768	-10945	-21288	-188	-9936	9	-32768	10010	-2912	3100	-10060	9120	-10596	-4903	-8484	3240	14176	268	766	-1898	-15896	3344	-3308	2479	4582	2417	-15224	3676	-660	7974	14211	494	125	130	1
-32136	-6052	25304	-13709	-32768	-12067	-27772	-2924	-12856	835	-32768	10121	-4888	4100	-2180	6605	-10636	-3199	-8312	3044	14464	106	1488	-2344	-16396	3148	-3420	3366	4923	2441	-15324	3272	-256	6657	14913	579	123	125	1
-32768	-15096	21724	-6447	-32768	-16286	-30964	-6888	-14508	3700	-32768	10791	-10060	3240	7168	4302	-15687	246	-8560	3152	14664	16	2687	-2663	-16644	2388	-2656	4981	5632	2640	-15800	1724	3272	3881	15129	1037	130	123	1
-32768	-10028	10444	3769	-32768	-23049	-23348	-6548	-20436	6560	-32768	8757	-16148	-1672	8600	13347	-11368	-956	-8772	3032	14648	-79	3883	-2965	-15980	3108	-1284	5201	6913	2742	-15612	2288	3908	3330	15233	1742	122	127	1
-32768	-1976	-1464	4799	-31372	-23147	-20536	-6156	-18672	6175	-32621	6807	-16572	4636	18568	18114	-11220	-416	-8476	1860	15288	-34	6009	-2554	-15836	2104	612	3834	9689	2679	-19752	7208	5108	4167	13572	1136	129	129	1
-32768	11464	-21000	1833	-24184	-12470	-10392	-4528	-18960	2583	-19923	-207	-14644	19656	32767	14718	-10006	517	-8372	2916	15776	666	8780	-2428	-16968	2540	784	2116	13054	2538	-23188	9400	5320	3127	7776	403	129	125	1
-32768	26172	-32768	-8198	-6904	1883	-596	-5428	-20728	-7629	216	-7173	-13908	12808	32767	8433	-1491	-3352	-8716	3056	16668	814	12909	-2507	-19060	3176	-612	1183	16225	2531	-19576	4836	8268	645	6085	714	122	126	1
-32768	5768	-27620	10692	17752	10016	-10368	-5752	-26052	-1570	15242	-7141	-17192	6132	14320	-4374	7375	-6498	-9020	4172	17136	698	18955	-3349	-21476	1928	-544	1742	18893	2655	-19652	4552	7808	3067	6764	-217	130	127	1
-13868	11928	28596	3901	32767	-10727	-21284	14476	10980	14945	27985	919	-18668	6788	3276	-12685	13649	-10314	-8924	6044	18504	-965	27100	-5290	-24356	416	32	3560	21504	3781	-24528	4236	9184	5213	3465	-1098	135	127	1
-26824	4056	29056	2904	31852	9032	-32768	-11748	-7088	28849	22101	-60	-27864	5096	29264	17917	12247	-7349	-8568	5452	19484	-2544	32767	-7739	-28628	-1592	456	2309	24081	4230	-29436	3460	12444	-139	-4994	-907	122	127	1
-18492	-672	23256	1991	18515	7320	-13936	21208	-8676	23518	21603	-5105	-11660	-2024	-15748	10238	9519	114	-9292	8028	19924	-3154	32767	-11730	-32768	-8632	2616	4335	25126	5711	-30780	2044	27292	-8217	-24610	-1660	135	131	1
-13076	1004	21420	1621	17905	7712	-12124	212	-10068	1952	18817	-7906	-12504	8520	-23220	5962	2507	-4179	-12772	12992	22256	-3208	32767	-19820	-32768	-7608	7356	17360	23959	8311	-16912	-20864	3100	-3555	-16980	-8879	130	134	1
-16564	-8116	12596	-279	19709	5163	-10912	-1580	-10428	1235	19457	-6621	-11796	-2648	-8268	-8220	8227	1092	-32768	9172	22880	-3810	32767	-31927	-32768	-5384	5876	18606	23930	8562	-23492	-2108	5664	11994	-17120	-8118	128	135	1
-26240	-8108	16832	6714	8004	7715	-23908	-10740	-13080	3659	10663	-7411	-23996	-3428	-7068	-102	11180	-5749	-32768	13180	24488	-6378	32767	-32576	-26528	13508	-7496	13147	23993	9368	-25132	12468	-9816	22594	-15517	-2482	129	136	1
-11056	408	15348	3785	1678	3583	-19728	5376	-7812	2161	12833	-5217	-24412	-524	-7116	-200	10036	-6166	-16980	15956	27212	-1446	32767	-28674	-22952	4732	-10024	5017	18143	6178	-32624	7380	-11720	14796	-16248	1264	111	128	1
-9688	-2640	13808	2681	711	1742	-15236	-936	-6588	-7262	9765	-3699	-14760	1308	-3408	1088	10338	-3364	-30080	7284	25876	15625	26623	-19289	-15192	5752	-12540	-1518	12653	2973	-28708	-2916	-7632	1970	-20723	4344	120	128	1
-9128	-2124	13368	1580	562	928	-16904	-244	-6060	-6368	7304	-4013	-15036	4244	-1816	2102	11929	-1952	-20332	31420	32767	17815	-16841	-1658	-13664	3912	-8348	4325	3470	3734	-25952	-1124	-6304	-3602	-24825	2690	119	114	1
-9084	-1740	13648	491	951	314	-18508	-704	-5256	-2188	6183	-2978	-17664	2864	-1920	1419	12321	-1257	4500	19312	16188	2397	-26853	4214	-12876	-1692	-5168	10461	-4984	5873	-25016	92	-4936	963	-22705	-414	120	122	1
-9196	-2168	13536	-226	1487	-150	-17436	-1716	-4696	2706	4674	-2017	-17760	3516	-2008	1255	12711	-1177	10072	6692	9000	1263	-21689	9892	-7148	944	-5300	7535	-11868	4853	-21276	2156	-5916	6901	-19023	-523	126	121	1
-9652	-2732	12656	278	1255	-332	-17076	496	-4900	417	3677	-2540	-16328	1128	-2724	1017	13715	-953	3868	5000	10668	5455	-16593	14395	-6032	612	-6132	2810	-17592	1404	-18388	1960	-8240	6781	-16287	350	124	118	1
-9504	-3012	12796	576	1085	-679	-16532	-436	-4348	-4537	3023	-2503	-16716	1384	-2576	892	14633	-1021	-5804	6320	16264	6665	-20849	15379	-5416	3220	-6756	-511	-22618	744	-14040	-472	-8996	4890	-16068	1209	131	117	1
-9328	-3064	12740	716	893	-768	-16520	-2696	-3444	-5345	2363	-2206	-15940	1048	-948	1765	14826	-791	-9304	4028	18532	6362	-30579	15877	-6352	2840	-6908	-4447	-27090	-87	-11692	2512	-8560	1604	-16120	2270	130	120	1
-9060	-2656	12944	432	764	-554	-16612	-1972	-2384	-2803	2655	-2051	-15312	960	432	2380	14771	-1233	-7556	1584	16500	7844	-32768	17008	-8904	1452	-7052	-5723	-31574	-2094	-10164	3648	-7992	-1063	-14216	2480	133	124	1
-8992	-2452	12876	316	882	-268	-16008	-1424	-1608	655	2925	-1791	-15716	1692	1720	2144	13783	-1218	-7520	1404	15868	8906	-32768	17476	-10136	1204	-8168	-7480	-32768	-4812	-8572	3640	-8028	-2183	-10712	1355	134	131	1
-9192	-2544	12776	311	887	-59	-16004	-1352	-972	1664	3419	-1387	-15228	1752	1784	413	13494	-1365	-12580	1976	18632	8712	-32768	17845	-10456	604	-9436	-9882	-32768	-7096	-7680	2424	-9252	-3943	-6603	-268	130	130	1
-9276	-3316	12520	550	655	620	-16124	-1500	-1008	433	3825	-1425	-14924	1292	1980	-2682	12772	-1548	-15924	1876	19832	8910	-32768	18798	-12404	328	-10420	-9703	-32768	-8965	-6544	712	-10248	-7095	-3442	-1093	125	135	1
-9148	-2580	12700	711	318	1210	-16132	-1132	-1936	-1841	4540	-1641	-14264	928	1836	-5891	11596	-2000	-18304	1556	19472	11790	-32768	19754	-14908	772	-11296	-9487	-32768	-11642	-5528	-360	-10052	-13310	-445	-41	136	134	1
-9168	-2368	13096	637	568	1308	-16224	-896	-2468	-471	5132	-1381	-12612	2816	5280	-1937	13433	-3326	-22992	3244	21480	12854	-32737	20748	-18568	1312	-11636	-7323	-32768	-13660	-5464	-2652	-7532	-16410	1834	3189	126	129	1
-9204	-1940	13028	423	954	1205	-16696	832	-3216	-759	5772	-1489	-15304	5236	1544	-306	18086	-3380	-32768	7428	27968	10912	-31444	22881	-23760	5092	-12212	-4485	-32768	-13543	-6248	-1152	-4168	-13084	-1538	3175	122	128	1
-9136	-2008	13104	222	1403	1160	-16424	976	-2148	-3010	6470	-1819	-19364	5984	-552	-2931	16009	-1499	-32768	11244	23340	2877	-32768	26403	-24200	11928	-14200	-10832	-32768	-14716	-15504	2900	6308	-8683	-10646	4315	121	120	1
-9036	-2128	13656	241	2353	1069	-16364	232	-1908	-3392	7458	-2100	-20020	1812	112	-3941	9002	-691	-32768	6248	11088	-3977	-32768	29882	-19668	8020	-16780	-13520	-32768	-15514	-16056	5640	11684	-8879	-9566	4484	122	107	1
-9220	-1228	13556	261	3438	528	-16536	-944	-1896	-2283	9009	-1735	-17240	-1820	3124	-2033	8428	-314	-32768	1372	-3992	-5026	-29947	27775	-17988	4376	-15972	-12328	-32279	-10626	-12948	-4712	19304	-12226	-3458	1538	124	118	1
-9128	-2364	13844	156	5120	200	-16712	-1036	-1004	-537	10558	-1305	-16272	28	5032	-2373	11107	-42	-32768	-25420	-23384	12984	-21166	17726	-9048	324	-11684	1975	-19123	-648	-23284	-17988	32767	-13583	-1573	3191	124	129	1
-9072	-1696	14432	-13	7560	441	-17560	-992	-560	176	12488	-1153	-18636	-24	6316	-621	11571	530	-32768	-26024	-21872	14977	-6676	1501	-3332	14752	-10688	9874	-823	6135	-24272	-5780	27636	-577	-4147	-1206	125	132	1
-9116	-2584	15600	301	11282	458	-19848	-1548	-356	2051	14591	-704	-21288	636	6212	284	9155	711	-32768	-17700	-9612	-5843	3008	-11374	-7104	10872	-15824	523	13235	5699	-16376	3568	10936	12067	-7800	334	124	120	1
-9416	-3880	16260	1200	16546	1259	-21768	12	-328	3669	16728	-673	-22492	2668	7564	-608	5412	685	-32768	-4564	-12120	-21076	12724	-16711	-13016	9560	-16620	-1960	20637	7569	-13460	7248	-460	14554	-1763	4646	124	133	1
-9328	-2980	17192	1964	23276	2068	-22548	2940	88	2987	19116	-1571	-22376	3228	11376	-2030	1464	1946	10640	8864	32767	-16482	21477	-4598	-31228	-14756	14116	-21486	18936	4377	-12360	7416	-444	6649	973	7028	127	131	1
-5436	1420	23076	2331	32767	953	-27760	4748	4616	2225	21897	-1407	-24728	3368	15000	-2679	-2605	2261	-23836	-16064	12276	-11419	32016	-9536	-32548	5668	-17824	-27179	18748	2891	-24956	10312	11216	-24591	-8152	10358	126	132	1
-9116	-8632	20188	1368	32767	1211	-32768	7848	4780	-1103	23627	-1779	-27104	9404	24800	-4432	-11921	4286	-21988	-15092	29228	-1883	15542	-12063	-12856	-16112	-6868	-14224	20116	7191	-23848	10272	16264	-24701	-5045	11802	125	114	1
-11448	-11564	21920	2915	32767	5217	-32768	8808	10184	-10736	24222	-4741	-19864	18996	26708	13214	-9938	10286	-9872	24480	9484	-2437	15351	-6930	-15808	10696	-8316	1501	17365	7451	-16800	-11544	-18420	-6973	5647	-3558	132	141	1
-32768	-6532	21092	6107	32767	16942	-29688	-12068	-3148	-12810	27162	-3842	-15772	8256	-1636	-28188	-4967	10917	-22644	-1852	19924	-9858	12664	-9784	-13984	12760	-11148	-7774	12982	8655	1232	4444	-4008	16653	5249	370	132	127	1
-28564	-12396	26420	9630	32767	25531	-31676	-6444	-2672	-4317	26750	-5635	-30432	-6664	-10624	-17039	-1151	583	-14704	5760	16392	-6413	4178	-6247	-18000	1748	-13236	-8511	11079	6721	-22040	5380	-5568	6695	12943	7889	132	138	1
-22924	-8744	31496	3189	32767	22110	-25816	-252	-3148	-2328	23478	-4418	-30284	88	-12120	-8194	-12358	-1909	-12032	16	15832	-2423	1525	-2953	-18100	-2616	-8368	3958	10098	5785	-22868	5632	-6172	6818	9769	6860	127	113	1
-5592	-4448	29564	-11683	32767	14685	-20720	-1168	-8476	-750	14922	-2213	-28412	9376	-5120	-6314	-17624	350	-9528	3040	14904	-1641	617	-1791	-15452	6092	-7668	9715	8446	6491	-18940	3776	-2784	5865	9497	2653	126	129	1
-24604	-21260	32767	-18239	-8230	1952	-15392	-3588	-6504	-6543	7896	-1104	-28436	7652	-9376	-3361	-19309	2527	-9724	2436	14784	-1499	683	-1694	-16096	4768	-7452	2846	6953	5035	-13832	2780	-1796	2950	11120	1726	131	127	1
3888	-17204	21772	-6746	-25599	-2023	-15404	1168	-144	-7440	-117	-2660	-27352	6272	-9644	-2427	-19997	1388	-8028	1764	14260	711	1282	-757	-16640	3412	-6720	-666	5864	3260	-16948	2248	-1280	688	12165	2093	127	127	1
8072	-9040	14080	725	-25657	-5689	-9148	-3144	-960	-4951	-9387	-1817	-21096	4180	-9712	-3406	-18412	-47	-8824	2640	13876	1617	1574	-660	-16916	2720	-5576	-908	4609	3113	-16064	2844	-1356	1042	12499	853	136	155	1
3224	-5128	12708	443	-24332	-9303	-7080	-2740	-2616	1075	-17386	-76	-18152	4140	-10168	-4516	-17661	-1195	-10296	3784	13716	1244	1312	-423	-16016	2744	-5244	2795	3594	3324	-16340	3268	-1916	1144	13194	327	133	131	1
-3268	-4640	14172	-396	-27914	-11125	-8516	-2424	-4224	5029	-23189	1173	-14780	3972	-10412	-5311	-18151	-2021	-9484	3072	13780	351	695	30	-15588	3576	-4176	5396	2785	3133	-16852	2632	-404	1845	14710	1077	129	125	1
-6640	-2592	15220	-1259	-32768	-11527	-9064	-428	-5556	6686	-27998	2612	-13348	3760	-11376	-6951	-18122	-3095	-9420	3188	13792	-75	622	-27	-16052	4352	-4028	4998	2447	2769	-16152	2684	-460	1460	15307	737	127	129	1
-9744	-928	15712	-3231	-32768	-12556	-9348	620	-6396	4545	-32289	4183	-10088	128	-11320	-5895	-20415	-3886	-9092	2608	13968	166	646	176	-15652	2912	-3616	2356	2375	2640	-15268	1008	540	1790	14139	793	127	124	1
-11248	-660	15476	-4598	-32768	-13541	-9836	712	-6652	2875	-32768	6213	-9392	-780	-11720	-1361	-18163	-4728	-9056	2740	13924	484	870	263	-15360	2228	-3468	1336	2449	2631	-15300	-228	1032	2796	14116	-561	132	130	1
-12432	-1344	15744	-3776	-32768	-13164	-11636	356	-6768	2425	-32768	7624	-7264	764	-11976	2598	-17367	-4861	-9208	2944	13672	544	915	-54	-15128	2108	-2396	2927	2689	2928	-15016	516	1540	5939	13080	-935	133	131	1
-15240	-1200	17536	-3451	-32768	-11319	-14368	172	-7980	2072	-32768	8824	-6084	1660	-13160	6527	-15638	-4855	-9264	3372	13516	460	630	-521	-14892	3696	-2056	5119	3169	3106	-14696	3244	672	8279	13386	-489	129	137	1
-18948	216	18840	-9066	-32768	-9801	-18192	788	-8572	962	-32768	9457	-4460	2564	-13188	9381	-12888	-4718	-9284	3436	13400	419	597	-605	-15280	5540	-2636	4344	3665	2738	-14868	4412	-452	9241	14153	573	126	129	1
-23840	-692	20928	-16190	-32768	-8729	-22040	304	-10280	-2244	-32768	10155	-3196	3064	-10776	10095	-10154	-5503	-9300	3040	13496	79	180	-1501	-15476	3528	-3124	3129	4080	2499	-14784	3828	-144	8838	15198	1050	126	132	1
-32768	-7948	27464	-18158	-32768	-10244	-29936	-4436	-14832	-2818	-32768	9529	-3952	4980	1732	7267	-13712	-2945	-9236	2680	13896	76	555	-1648	-16036	2132	-3432	4219	4411	2607	-14348	2012	1168	7050	16055	1145	125	127	1
-32768	-15100	20444	-9110	-32768	-14439	-32644	-4636	-13768	1262	-32768	8889	-12720	3904	11684	3923	-18310	2306	-8628	3120	13860	163	1350	-1784	-16352	2072	-2024	6288	5161	2837	-14632	616	3524	4787	15933	1535	124	126	1
-32768	-8348	8684	-1279	-32768	-23775	-22088	-5472	-20420	1870	-32768	7345	-17536	956	9668	8195	-12856	-90	-9280	3084	13996	94	2471	-2148	-15884	3244	-348	6427	6522	3041	-17080	2676	3036	4510	15705	1699	124	124	1
-32768	180	-1312	1066	-32045	-26434	-18336	-6904	-19224	1957	-32313	4775	-13892	2336	15568	13623	-10268	-1020	-9156	2924	14336	122	3523	-2237	-14756	3632	2052	4341	9257	2988	-20284	9284	4316	4045	11841	869	127	124	1
-32768	11948	-22004	4234	-24534	-17626	-11432	-6112	-20004	2743	-19524	302	-12344	11988	32767	13982	-9853	-322	-8752	2672	15324	100	5577	-2502	-16424	3896	1124	1584	12646	2879	-20636	9908	5540	1726	7540	1537	125	123	1
-32768	27880	-32768	-2891	-6237	-3825	280	-5100	-22952	-560	290	-5695	-15060	9536	32392	11815	-3498	-4843	-8744	2788	16172	682	9366	-2665	-18888	2672	-752	1210	15563	2479	-19288	5744	6964	1371	7510	1677	129	123	1
-32768	13492	-16940	-1507	8878	5133	-7820	-10040	-22580	2952	15437	-4835	-15704	5200	10204	2261	7669	-6710	-9104	3576	16760	1174	14933	-3091	-20644	760	-944	2137	18079	2898	-20280	3196	6468	4495	7858	492	120	125	1
-12148	-4460	-10076	19601	24260	8436	-16056	-3464	-16952	11783	22691	-6210	-12716	7220	-1388	-6721	17061	-10552	-9480	4472	17864	467	22535	-4371	-22676	-732	-140	4141	20773	4001	-23792	2276	8472	5688	3645	-753	150	126	1
-9948	-744	-3572	18368	24194	6638	-32768	31592	14140	28037	18689	5643	-20088	1764	21840	14256	11020	-6537	-8812	4184	19476	-274	32767	-5518	-27596	-1088	876	3391	23979	4241	-27936	3148	12644	2291	-2849	-516	119	128	1
-32768	19216	24088	3816	32767	3236	-21872	-3696	-16148	26877	16064	-2421	-23004	-6728	13128	13246	1203	-982	-8912	7416	19820	-1046	32767	-8625	-32768	-6084	1556	3255	25809	5240	-29224	1328	18216	-1721	-12177	-885	114	129	1
-21604	-3764	21268	-963	18821	12067	-21184	9632	-9256	9682	20882	-9537	-21756	18368	-11868	29099	4415	-5614	-8312	13800	21560	-703	32767	-15332	-32768	-13436	6736	13531	24995	8405	-31500	-4152	32767	-12421	-32768	-6704	102	132	1
-10768	-7996	16192	5436	20661	2623	-17456	-4740	-9456	8655	18753	-7248	-14988	12572	-11020	-2088	4957	-3753	-30248	13148	21944	-270	32767	-28978	-28776	9988	-36	23343	24832	9805	-20688	-17044	3744	6226	-12786	-12025	151	131	1
-16628	-8712	12164	4591	7784	6182	-14108	-8984	-12404	7621	13233	-8378	-12432	-2640	-11272	-10569	9617	-1440	-32768	13648	23500	-3776	32767	-32418	-26672	15096	-9352	15773	25343	10514	-26408	9032	-5756	17955	-19869	-4689	128	134	1
-13204	4912	15552	4816	2371	3368	-20164	4296	-11476	2574	10036	-7507	-22112	-2312	-9464	-4465	12405	-6352	-22164	17172	26956	-2394	32767	-31427	-24872	6244	-9940	9150	19790	7867	-32768	7252	-13684	16970	-16945	-384	114	135	1
-9840	-2956	13812	2282	1774	743	-18140	2752	-6720	-13985	10437	-4548	-19504	820	-6580	-3204	11217	-3591	-6668	3388	25708	16732	32767	-20924	-16948	3008	-11428	1615	14402	4046	-29836	-1848	-6532	5298	-22354	3475	113	126	1
-9044	-3256	13136	1651	1415	558	-17244	-2736	-6052	-15966	7190	-5025	-16940	860	-3608	-1606	11751	-1869	-28676	28828	32767	26322	-7990	-4780	-12180	4412	-12396	5581	6088	3800	-25600	272	-5704	-820	-25244	2317	141	121	1
-9052	-1600	13764	771	1671	-8	-17580	-4456	-4800	-4379	4939	-3718	-16844	1480	-2624	-1069	11656	-1707	272	23724	19040	10378	-27417	1655	-11580	-1756	-5608	15222	-2808	6214	-24656	368	-5772	1414	-22843	-718	115	112	1
-9200	-1868	13464	349	2037	-684	-18892	-1388	-4296	3953	4426	-3099	-16960	3992	-1252	361	12399	-1305	9472	9724	8460	1074	-24702	6995	-7300	3804	-5544	12472	-9687	6527	-21448	2280	-6716	6989	-18963	-734	124	121	1
-9572	-2340	12932	274	2053	-1072	-17652	1220	-4120	-198	3618	-3023	-17232	1960	-2452	-1238	13457	-1102	6932	4384	7168	3443	-18265	12426	-4564	2288	-5672	3714	-15290	2599	-17140	2020	-8132	7918	-16139	676	121	119	1
-9836	-2944	12660	391	2003	-1707	-16188	-256	-3820	-5543	2829	-2905	-16336	-360	-1984	-220	14350	-758	-1708	5780	10976	4959	-17444	14210	-4168	2952	-6392	-1827	-19962	981	-14808	2864	-9540	5382	-14999	1852	125	121	1
-9336	-3172	12620	370	1549	-1651	-16180	-2292	-2732	-7956	2660	-2450	-15556	-204	-516	309	14342	-1253	-7252	4948	15204	4131	-24500	14530	-4532	3420	-7052	-5912	-24469	50	-12052	3396	-9488	1904	-15057	2671	127	122	1
-9244	-2800	12704	250	1236	-1276	-16312	-2764	-2524	-7867	2590	-2386	-15796	784	744	1139	13727	-1545	-8400	3260	16012	4689	-32768	16162	-6172	2672	-7304	-7477	-28733	-1784	-10680	4056	-8884	-1626	-13879	3113	131	117	1
-9124	-2508	12784	-89	1123	-1078	-15752	-1704	-1804	-1421	3076	-2036	-15056	2620	1172	179	13290	-1552	-8384	2864	14976	6674	-32768	18060	-8452	2264	-7856	-8505	-32768	-4201	-8896	4136	-8588	-3858	-11475	2199	132	123	1
-9216	-2696	12668	-180	1097	-784	-16260	-876	-1716	-900	3189	-1699	-15192	2652	924	-3730	13592	-1830	-11804	3592	16496	7268	-32768	19331	-9752	1688	-8580	-10365	-32768	-6866	-7688	2760	-9120	-6927	-8794	701	131	127	1
-9288	-3260	12536	-82	944	-203	-16560	-1024	-1728	-3904	3639	-1917	-14696	1352	76	-7992	13963	-1685	-15104	4188	17708	6902	-32768	20334	-11112	1176	-9284	-10788	-32768	-8445	-8792	2528	-9760	-10400	-5688	-417	130	124	1
-9232	-2688	12764	25	771	161	-16084	-1636	-2224	-5299	3921	-1927	-13808	136	752	-9264	13872	-1580	-17568	3480	17508	8632	-32768	21158	-13644	1632	-10144	-10110	-32768	-10073	-6680	1016	-10816	-14450	-2291	254	129	132	1
-9320	-2664	12764	21	888	175	-16640	-1576	-2628	-4259	4316	-1488	-12424	2776	3824	-6297	15470	-2975	-20668	4232	17632	11424	-32768	22348	-16816	2992	-10860	-9949	-32768	-13104	-4532	-620	-10012	-20044	-2086	3178	128	132	1
-9324	-2632	12700	6	875	328	-16320	-412	-1692	-4406	4974	-1487	-15608	3520	1496	-2752	17176	-3370	-29436	8420	23912	9837	-30306	23736	-21956	2948	-11220	-7310	-32768	-13538	-6264	-1888	-7024	-17595	532	4042	125	129	1
-9144	-2708	12656	246	870	739	-15828	-84	-644	-4918	5776	-1716	-20484	3924	332	-3620	13560	-1461	-32768	12868	27236	4662	-32768	26653	-25828	10684	-13780	-10906	-32768	-13670	-11712	684	2556	-13236	-6504	4059	123	123	1
-9212	-2504	12744	513	969	1187	-14920	-1052	-792	-4491	7192	-2094	-19328	-172	20	-2386	6382	634	-32768	12472	18760	-2653	-32768	29818	-23420	7912	-14428	-17059	-32768	-15271	-17692	3292	10604	-9886	-11317	4798	122	113	1
-9416	-2612	13008	460	1441	1074	-16208	-2848	-1988	-1632	7957	-1720	-15756	-2228	1472	-1992	8580	-368	-32768	6620	9076	-3600	-32768	31611	-22512	6428	-14376	-16495	-32768	-15484	-17260	3424	11356	-9859	-10083	4507	123	113	1
-8964	-2984	13076	468	2358	1408	-17152	-1488	-2040	-550	9338	-1170	-16216	688	1580	-1216	12859	-415	-32768	-7816	-9568	331	-28603	23877	-18200	-900	-11588	-5629	-30210	-6172	-17480	-16552	25444	-14523	-2313	3049	124	122	1
-9112	-1992	13760	-76	4090	1452	-16824	12	-884	-1020	10609	-1158	-17772	1024	3264	-498	12412	99	-32768	-29140	-25220	22417	-16879	10198	-4232	4256	-9208	10883	-13745	3573	-26660	-15652	32767	-6107	-4658	1140	125	131	1
-8836	-732	14948	-922	6976	722	-17792	-1044	-696	1260	12533	-403	-20084	288	4900	113	9756	684	-32768	-20704	-16276	8962	-1672	-4948	-4428	14672	-10668	9313	4300	6622	-20600	-1184	23588	9148	-3678	-1123	124	127	1
-8696	-2668	15924	-1723	11616	63	-21212	-524	-860	3854	14557	425	-20196	348	5012	201	9394	664	-32768	-11572	-7436	-8030	4648	-12444	-8844	9168	-15516	-542	16728	5715	-17616	4244	10384	11269	-7607	3581	128	138	1
-9476	-3656	16224	-1446	17280	367	-22144	1796	-1148	2938	16185	53	-22692	4504	6072	-2370	5156	1388	-32768	-204	-1768	-5967	8841	-11580	-11448	8420	-18300	-4832	22842	7789	-12296	5324	-2132	14900	2483	6410	124	137	1
-8888	-2368	16688	-1180	24431	480	-22856	3660	-376	249	18295	-922	-22260	5088	9572	-4943	2756	2102	12336	9460	32767	-21930	15554	-312	-12388	9288	-12968	-5894	23243	8333	-6912	5508	-6228	11348	3294	7127	124	127	1
-7744	-1060	18700	-2043	32767	-882	-26724	3864	2828	-662	20936	-382	-24596	3648	15172	-5183	-2791	2404	-1492	-19576	14972	-8314	32284	-5902	-32768	-1088	-11540	-24982	14916	-1080	-18008	10908	-8252	-24616	-4001	8034	126	149	1
-6792	-7228	18856	-2263	32767	-2480	-31172	5312	7052	328	23049	471	-26464	5564	24400	-4697	-11308	3487	-32768	-23612	32767	-2994	17496	-13836	-17096	-12720	-9032	-24908	19077	4238	-24340	-7400	28512	-19770	10875	1876	130	105	1
-8280	-10488	19900	-3004	32767	2244	-32768	10744	10800	-8357	23724	-2763	-22196	12924	32767	9888	-19184	9742	-9420	27420	10168	-1433	15109	-6986	-16584	3956	-5904	1106	17772	8237	-20828	-18236	-23712	-15919	11087	-3591	132	112	1
-32768	-10648	22596	-4190	32767	12876	-32768	-10976	-4068	-11241	24403	-2175	-15636	7940	-8452	-20053	-3088	8905	-16428	-2812	18792	-9328	11780	-9692	-15848	14820	-10964	-7705	13376	9077	1600	2028	-4980	18448	2537	-1175	126	123	1
-32768	-13912	23188	869	32767	23322	-31936	-11160	-3672	291	25867	-4637	-31056	-2388	-4140	-10775	-3967	2559	-14948	7612	14032	-6432	4252	-7832	-14836	2224	-13808	-8455	10651	7342	-17308	-640	-5952	10025	11561	7908	130	131	1
-28240	-10968	32508	-570	32767	24395	-28536	-36	-3032	2268	23750	-4869	-31900	2552	-11992	-4569	-10603	-715	-13536	-1652	17304	-2425	1519	-2995	-19472	-4664	-10796	5672	9314	6377	-23380	7780	-7656	11300	10595	6872	129	113	1
-7040	-2676	26728	-13605	32767	15865	-22596	-156	-9372	23	16855	-2459	-29372	8616	-5084	-6142	-19556	514	-9160	4512	14888	-1241	1221	-1201	-15740	4228	-7076	15792	7527	7436	-21404	3308	-3284	8741	9286	3552	125	106	1
-15172	-3428	28676	-15641	28223	13112	-16780	-2608	-7152	-8123	10412	-1098	-27672	6588	-8488	-5258	-18876	2298	-7912	2832	14424	-117	1496	-482	-17124	6852	-7840	8147	5758	5560	-14620	5108	-4052	6010	10884	708	129	114	1
1360	-17680	22252	-5688	-23895	-34	-15564	-292	-1388	-9385	2180	-2202	-27000	4648	-9608	-3728	-20137	2206	-8180	2696	14772	871	2352	-147	-17108	6608	-7512	6627	5585	5060	-16948	3944	-1560	2739	12704	2071	133	131	1
5448	-9516	13392	3720	-25860	-1928	-9056	-6008	-1904	-6314	-6445	-1778	-22928	3372	-10116	-3423	-18384	-506	-9140	3344	14216	1526	2345	211	-17316	2332	-5544	-2370	3267	2689	-16348	3760	-1992	427	13855	564	134	138	1
2296	-5516	11028	5265	-25849	-3547	-6548	-5808	-2856	1477	-14167	23	-19380	3604	-10344	-4583	-17711	-2768	-9024	4176	13788	1372	1728	218	-16036	2308	-3936	4303	2055	3247	-16184	3984	-2208	2149	12281	249	129	133	1
-2588	-4256	11944	2996	-29043	-4120	-7688	-4248	-4232	7918	-19871	1003	-16416	2068	-9172	-5446	-16884	-3973	-9220	4244	13516	787	1068	13	-15700	4652	-3184	6642	1318	2684	-16132	3712	204	1400	16597	346	129	137	1
-5436	-4448	13056	246	-32768	-4390	-8780	-2792	-5272	9899	-24879	2545	-15264	1312	-10936	-5166	-19495	-4680	-9136	3708	13784	614	747	143	-15940	3272	-2380	5467	1353	2418	-15572	1844	1340	1038	13827	1141	130	126	1
-8076	-4840	13800	-1639	-32768	-5030	-9048	-1312	-5996	7843	-29617	3960	-12200	624	-11096	-2624	-20668	-4824	-8912	3476	13952	705	993	360	-15520	2724	-2248	3511	1652	2382	-14976	-608	1940	2133	14341	834	124	132	1
-9984	-4092	13872	-3825	-32768	-6942	-9608	-952	-6288	5929	-32768	5317	-10556	768	-10852	757	-20525	-5175	-8876	3384	13848	812	1191	533	-15232	2732	-2248	3208	1764	2398	-14896	-936	2084	6167	12792	23	127	134	1
-11932	-4524	14112	-5216	-32768	-8545	-10808	-392	-6180	4682	-32768	6613	-8080	1500	-11156	3587	-19912	-4722	-9000	3940	13384	742	1010	341	-15076	2520	-700	5256	2775	2906	-14260	1180	1464	11222	11693	-213	129	130	1
-12792	-3116	14308	-7204	-32768	-9467	-13460	536	-6560	2107	-32768	7230	-6896	2840	-11496	5750	-18984	-4586	-9096	4652	13236	239	553	-281	-14828	4864	-692	6631	3521	2747	-13324	3644	2012	12721	12751	999	122	131	1
-15824	-1956	15156	-13871	-32768	-9759	-17016	280	-8228	-717	-32768	6935	-5316	3524	-11424	6289	-17974	-4723	-8840	4364	13360	-317	164	-1171	-15204	5172	-2208	5069	3959	2428	-13012	3388	4908	8029	14658	2767	128	134	1
-22828	-4008	18856	-16653	-32768	-9995	-19164	-1556	-10140	-3872	-32768	6855	-3736	4600	-8740	5383	-16448	-4786	-9000	3648	13612	-546	-235	-1758	-15352	2252	-2648	3852	4386	2350	-14620	3644	80	8009	17163	2289	125	132	1
-28488	-3096	22536	-18803	-32768	-10789	-25892	-2792	-12024	-3262	-32768	5774	-5436	3628	-2920	2951	-15659	-3939	-8864	3808	13784	-572	-64	-1995	-15856	2084	-1660	5418	4955	2583	-18416	7276	-3780	11206	15468	-707	124	125	1
-32768	-9656	20056	-17831	-32768	-14516	-28252	-4100	-14856	-2428	-32768	5735	-10324	3552	4880	2468	-18042	-2807	-8544	4148	13956	-401	683	-2585	-16872	3188	-1768	4189	5753	2689	-20716	6024	-3460	4039	9714	-1077	126	123	1
-32768	-5472	8740	-9049	-28773	-21488	-22544	-4460	-18256	720	-32768	5126	-12436	-1048	8904	5701	-11456	-4579	-8900	3556	13940	-247	1749	-2789	-15900	3680	-1536	2976	6867	2568	-17180	5464	2204	-1630	8617	-280	126	123	1
-32768	8488	2888	-5353	-24459	-22989	-19556	-4012	-22420	-1327	-32743	2828	-12316	488	16760	9548	-11099	-2500	-9088	3724	13992	-241	2920	-2854	-15204	3432	16	2616	8564	2462	-14932	6320	5404	29	11553	271	127	123	1
-32768	15796	-5308	-1433	-23568	-15163	-15088	-7400	-20580	-2169	-21441	2678	-11532	5900	22568	4710	-5186	-3792	-8556	3360	15024	23	4971	-2824	-16944	3488	1320	1273	11139	2136	-18560	5420	6328	652	11528	543	128	123	1
-32768	13244	-18908	7446	-17352	-4626	-10308	-5812	-20928	2549	-8889	402	-15760	5600	19936	3208	561	-5676	-8488	2824	15960	722	8752	-3110	-18820	976	980	112	14121	2314	-21812	2284	7336	554	8361	1199	130	123	1
-32768	14436	-21600	7234	-5963	1693	-7484	-3240	-22392	5657	3606	-2517	-14652	5056	16628	4785	-682	-5236	-8672	3336	16656	1257	13885	-2979	-19764	-456	-276	1253	17084	2889	-22164	780	7512	1245	5982	995	125	125	1
-32768	-11384	-15088	17965	5286	6786	-10744	-4240	-20664	5528	13340	-5472	-13300	5492	9440	5001	1135	-3122	-8980	3812	17548	1928	20869	-3014	-22208	-812	-1292	2383	19649	3557	-21648	812	7544	4341	4640	427	118	125	1
3340	29936	8080	22710	18317	9868	-13316	1740	116	8555	21736	-7005	-15248	3440	7684	1876	5506	-3440	-8612	4020	18348	2348	29538	-3148	-23552	-2024	-1392	3505	21928	3858	-22892	1152	7968	5968	2061	-357	135	125	1
-1640	12600	32767	13999	27815	11262	-32768	9076	6776	12091	15970	4993	-32768	876	27764	14351	7730	-7881	-7872	4324	18836	2690	32767	-3108	-29076	-3208	-200	3053	24146	3666	-27536	3692	10320	3012	-3019	-1464	133	127	1
-32768	4852	20468	4834	17884	8271	-12960	6284	-12896	19158	21851	340	-5124	-2320	3480	22310	14590	-2404	-6912	8692	18496	3831	32767	-5051	-32768	-11896	4060	6431	24510	5076	-28912	2240	15900	-998	-14843	-3381	96	129	1
-3416	-4676	14764	4393	16754	2655	-16336	4932	-2220	6466	21300	-7164	-14084	13212	-16092	10637	7472	-3192	-12616	16024	19996	6555	32767	-14531	-32768	-8052	7576	19933	22977	7649	-27364	-8876	27080	-14248	-32768	-10750	135	133	1
-13248	-3272	13644	5618	17484	6240	-11904	-6556	-9436	8880	15635	-4930	-8052	2748	-5436	-7194	6424	-1751	-32768	10560	19228	2119	32767	-28347	-25264	18320	-6356	18846	24612	8341	-20392	-9784	4908	5879	-12354	-10847	122	134	1
-18640	2376	16508	8269	6439	5988	-18196	-5200	-13060	10268	12386	-7305	-10932	524	-6016	-6301	10628	-4741	-32768	15920	21808	1908	32767	-27474	-27180	11112	-8428	9362	23900	7293	-25492	13272	-8376	16302	-17157	-4406	137	135	1
-12600	2276	16676	4369	922	2834	-21812	9856	-10196	-2302	12631	-4710	-28416	3828	-7888	-3907	13498	-7366	-25164	14492	26936	402	32767	-26936	-21936	4812	-9220	5741	19124	5059	-30932	8712	-13868	12971	-15185	-1235	129	132	1
-9280	-896	14184	1857	487	793	-16932	-1196	-6980	-11938	10671	-4316	-18112	3300	-4644	-4540	11424	-2062	-21692	12496	28356	1631	32767	-24904	-15092	5200	-11560	-43	14520	1136	-26428	-32	-3848	748	-21109	2058	130	125	1
-8724	420	14128	1170	487	186	-16976	-2728	-7404	-8662	7769	-5404	-15836	2360	-3180	-2414	12020	-1209	-24548	29568	32767	14315	-12625	-1763	-13088	6116	-10924	3834	7278	635	-23512	1788	-5772	-4011	-21766	1056	138	122	1
-8504	396	14228	-209	1032	-595	-17776	-3924	-6240	-863	6167	-3696	-17884	-120	-2936	122	12439	-1547	-108	16844	19344	2074	-29547	4401	-12240	-204	-4240	11780	-812	1111	-23256	4420	-5380	-3934	-20743	-1507	116	136	1
-8892	-636	13996	-896	1401	-721	-18436	-3428	-5400	4591	4322	-2612	-18684	1120	-2792	1194	13168	-1475	7456	9080	10176	-2533	-27674	7139	-8816	5976	-4656	9630	-7739	7	-22528	6260	-5840	233	-17246	-1339	117	124	1
-9100	-736	13488	-382	1216	-1337	-17204	-232	-5168	-672	3137	-2583	-17504	412	-2376	-792	14280	-1254	4804	6700	7688	-4391	-22133	7882	-6296	6588	-5500	224	-13754	-2843	-19248	7112	-7600	-840	-14711	-335	115	123	1
-8868	-1288	13668	-65	1096	-1879	-16836	-1716	-4092	-7200	2632	-2211	-18000	-3380	-2424	-2264	15331	-874	-2940	7544	10844	-5025	-22251	7677	-5444	7100	-6596	-7952	-18776	-4996	-15756	3484	-9236	-1464	-13443	1057	124	121	1
-8688	-1276	13356	-58	1034	-1620	-16832	-4072	-3408	-7774	2112	-1726	-16652	-452	-552	-186	14717	-987	-8568	7520	14036	-4512	-29420	8332	-5796	5996	-7040	-11039	-23266	-6536	-12232	3304	-9052	-3132	-13573	2518	138	126	1
-8588	-556	13548	-262	1193	-1471	-16332	-2524	-2940	-3491	1960	-1849	-15840	2040	1056	2859	14932	-71	-9328	6600	13440	-1447	-32768	10404	-7852	3752	-7524	-11040	-27689	-8751	-11324	4692	-8556	-5447	-12713	3305	135	117	1
-8592	-288	13532	-650	1540	-1519	-15720	-568	-2088	-782	2187	-1689	-14936	4772	2328	276	13856	372	-10820	7460	12700	1290	-32768	12831	-8768	3228	-7844	-9614	-31472	-11052	-9640	4288	-8128	-8583	-10274	2816	124	125	1
-8460	-1104	13308	-785	1740	-1358	-16200	-636	-1552	-2803	2424	-1809	-14732	2684	2452	-3901	14366	-140	-12896	8716	12808	1813	-32768	15157	-9684	2680	-8268	-8659	-32768	-12303	-8640	2612	-9100	-10655	-7915	1559	123	126	1
-8844	-1728	12972	-426	1446	-524	-15648	-2988	-1044	-5816	3039	-2049	-14996	-12	1884	-8373	14968	-925	-16680	9776	14336	1145	-32768	17299	-11160	3140	-8908	-7392	-32768	-13161	-7512	336	-9892	-11477	-5267	504	129	132	1
-8732	-1456	12924	57	1006	158	-15668	-3564	-1404	-6241	3607	-1745	-14864	-1332	1116	-9914	14421	-1627	-20236	10940	15476	1047	-32768	19408	-13848	4788	-9264	-7691	-32768	-13895	-6056	-596	-9796	-14054	-2923	813	127	129	1
-8708	-1252	13272	418	698	663	-15632	-2816	-1624	-4388	4444	-1290	-14636	-1288	1572	-8745	12856	-2164	-22796	10596	15744	3412	-32768	21491	-17900	5400	-9144	-8306	-32768	-14801	-5528	-2652	-7976	-17287	-426	2802	127	127	1
-8688	-868	13400	566	680	897	-16140	-1632	-2012	-3233	5212	-1059	-13444	1660	5160	-6151	14309	-3189	-28532	14816	19036	4425	-32768	22721	-21776	7640	-11548	-9802	-32768	-15059	-5704	-1852	-5096	-16364	-2276	3585	122	126	1
-8796	-864	13516	649	859	1218	-16128	-1436	-2084	-3230	5320	-986	-14120	4004	1904	-5592	15873	-3467	-32768	20868	21252	-1300	-32768	25366	-24324	11832	-12256	-18079	-32768	-14625	-12632	-1748	1520	-13401	-8033	3059	123	119	1
-8452	-632	13688	737	1190	1531	-16124	-656	-1808	-5964	6704	-1834	-19952	444	-1444	-5699	12198	-429	-32768	14068	13196	-7318	-32768	32523	-20592	4508	-14024	-20439	-32768	-15378	-19424	2420	9616	-14011	-11495	3531	120	111	1
-8656	-484	13812	556	2311	1468	-17228	-1688	-2008	-4344	7567	-1632	-20380	-2036	-200	-4966	8656	785	-32768	6488	4308	-5307	-31400	32767	-18664	344	-14360	-7834	-32768	-11776	-12704	-3736	10092	-16068	-6864	527	125	115	1
-8608	-452	13956	69	3706	1296	-16176	-1752	-1708	-2575	9040	-1550	-16708	-168	3416	-3349	9506	359	-32768	-13684	-11736	5590	-27287	23597	-14804	1952	-11644	3929	-27801	-2426	-17572	-14272	28328	-15084	-3326	2815	124	126	1
-8520	-8	14552	-771	5868	986	-16836	-1644	-752	-1699	10854	-1150	-16256	-600	6304	-325	12121	372	-32768	-27856	-24624	22952	-16008	8639	-3620	10460	-10752	13328	-10336	4452	-25116	-7980	32767	-5760	-5133	-322	124	132	1
-8244	-164	15544	-1277	9466	857	-18608	-2412	-608	192	12902	-732	-19692	-1368	6144	277	10174	1369	-32768	-17932	-17072	2961	-1811	-10448	-6036	15520	-13940	5072	7058	6697	-20364	748	19000	8637	-6621	58	126	136	1
-8712	-820	16580	-1685	13894	828	-21292	-656	-780	2161	15214	-240	-23744	928	6800	-535	7034	1118	-32768	-9524	-8248	-7066	4517	-19690	-8712	8132	-17688	-12	17276	6888	-16188	3508	3556	17300	-5350	4165	124	125	1
-9156	-1472	17072	-2111	19605	1290	-22432	1880	-424	1136	17288	-924	-22252	3256	9840	-2522	4259	2452	-6836	7596	248	-21997	18338	-18356	-15316	5108	-9332	-9160	22348	9518	-11808	1320	-392	17266	939	7379	128	145	1
-8572	-52	18232	-2606	27305	753	-24360	4032	212	-1004	19787	-1653	-23144	4504	12964	-4841	1711	3015	-3696	-972	32767	2488	32286	3583	-32768	-25596	20	-16363	18150	-3255	-13936	716	-1052	5734	-4046	7510	127	146	1
-8944	-2960	18924	-3040	32767	-932	-29564	4704	2852	-1915	22778	-1291	-25080	6572	17352	-6098	-3943	2796	-32768	-16800	26048	-7441	28539	-12595	-20096	6168	-21112	-31867	20456	5119	-27824	7236	29988	-29532	-2948	11069	130	114	1
-5660	-2328	22024	-4310	32767	-1313	-32768	7636	6852	-3579	24586	-2512	-27068	9408	31468	-5149	-19066	7419	-9160	2972	18484	2153	14495	-10258	-12348	-15256	-7504	-6766	19212	9606	-21504	-16328	-27244	-11677	18487	-3711	127	121	1
-15012	-10036	22576	-4334	32767	6418	-32768	6920	11644	-15669	24577	-4645	-19460	15316	27324	1802	-2381	11361	-13336	14756	13052	-3747	17201	-8376	-15296	11288	-8364	2480	14394	10714	-5320	-7984	-6348	6524	2244	-3787	119	127	1
-32768	-11672	18592	-5310	32767	14176	-30920	-16236	-1828	-16848	30073	-3588	-23384	2140	2108	-24543	-5003	7713	-13832	5312	14976	-8022	6040	-9454	-15824	15564	-14236	-4175	11394	10975	-12620	4772	-10384	13100	8971	4608	129	119	1
-30760	-15920	29800	5889	32767	26112	-31204	-16140	-3004	-15024	28322	-4376	-31448	-3524	-12592	-11466	-3474	123	-13540	-1552	16608	-3874	598	-4335	-19088	-376	-13352	-3534	9829	7032	-25460	12928	-9652	9767	13365	8018	131	116	1
-16648	-7644	32767	-4750	32767	21647	-25384	372	-6140	3010	20542	-4374	-31528	5536	-8792	-8491	-15612	-456	-9752	4960	14180	-1128	303	-1158	-16588	2272	-7452	10257	8529	5983	-20940	4796	-4124	4588	9596	6291	129	112	1
-32488	-2484	32767	-26911	19851	8400	-18164	28	-11660	-349	13127	-1377	-29328	7624	-6824	-5621	-18502	800	-8416	2852	14320	-99	672	-606	-17072	5908	-8172	7722	6578	5446	-16188	4096	-3556	4757	11451	2514	130	106	1
-8972	-28756	31956	-22209	-16043	3436	-15872	-2188	-2000	-11202	5460	-2631	-27572	8556	-8608	-2228	-19913	3234	-8620	2992	14336	740	1285	-383	-16544	5100	-7712	1875	5048	3515	-16524	3064	-1792	2908	12626	2516	129	124	1
5244	-17428	17200	3072	-24836	-428	-13416	-2360	-1224	-8716	-3537	-4751	-25844	5832	-10216	-4490	-19106	206	-8716	3308	14224	1527	1944	217	-17504	2404	-6612	-3703	3636	2416	-17428	344	-1176	-485	13581	1810	127	128	1
6640	-5168	11860	5550	-24191	-6780	-6576	-2396	-2424	-1517	-12004	-2489	-19516	3496	-10296	-6425	-17995	-1105	-9216	3788	13952	1479	1930	308	-16820	828	-5268	320	2269	3022	-16312	1524	-1500	126	14119	562	132	133	1
2148	-3340	11340	-574	-23643	-12142	-6236	-2056	-2656	-515	-12999	-1916	-17972	5136	-11496	-6929	-18624	-3287	-9392	4236	13304	1103	1459	449	-15744	2832	-4040	5020	1356	3043	-15328	2412	-1016	1472	15216	38	131	133	1
-2980	-4668	12560	-2285	-26870	-13179	-8160	-2524	-4440	5607	-24119	1101	-13600	3124	-10000	-6359	-17330	-3436	-9564	4204	13428	787	1190	513	-15580	3484	-2980	5769	1041	2824	-15832	3268	-252	1609	15274	757	129	136	1
-7000	-3848	14032	-700	-32566	-12830	-7744	-1960	-5528	7259	-28939	2132	-11568	1268	-10892	-6000	-20235	-4434	-9112	3936	13496	779	1152	599	-15656	3124	-2204	4622	1261	2628	-15620	1188	1296	359	14706	1243	127	135	1
-10088	-2100	14900	12	-32768	-12883	-8444	-908	-6324	7410	-32768	3478	-9236	-624	-10756	-2649	-19810	-4934	-9124	3756	13564	693	1154	420	-14832	2988	-2176	2558	1699	2678	-15512	680	1596	558	15010	975	128	129	1
-10956	-112	15168	-1199	-32768	-12880	-9892	0	-6320	6791	-32768	5616	-8484	-640	-11540	1408	-19048	-5399	-9036	4028	13332	638	1075	244	-15280	2428	-1536	2694	2199	2800	-14424	412	1588	7261	13220	81	131	137	1
-12372	164	15772	-3330	-32768	-12110	-11712	980	-6860	5054	-32768	7242	-6272	944	-11876	5194	-17571	-4927	-9212	4292	13144	353	710	-262	-14872	3236	-1260	4359	2779	2852	-14064	2368	1304	10393	13356	82	137	133	1
-15420	-360	17744	-5886	-32768	-10598	-14144	720	-8160	2368	-32768	8393	-5768	2056	-13116	7890	-16566	-4563	-9148	4476	13160	-238	239	-1011	-14632	3752	-1688	4921	3328	2849	-13560	2988	2200	10353	14554	1516	128	134	1
-18612	256	19024	-10667	-32768	-9439	-18176	788	-8480	-20	-32768	8888	-3448	2932	-13008	10132	-13889	-4462	-9232	3980	13436	-431	33	-1600	-15572	2976	-2544	4055	3799	2800	-13064	1532	3704	7465	15644	3042	127	132	1
-19144	340	19416	-11686	-32768	-9086	-22248	148	-10164	-3396	-32768	9399	-2300	2788	-9856	7616	-11296	-4703	-9088	3628	13656	-454	169	-2020	-16108	1132	-2108	5367	4244	2983	-15552	1144	724	7899	17845	2415	125	125	1
-32768	-5176	27688	-18405	-32768	-9109	-30000	-3324	-12748	-4029	-32768	8435	-5412	4924	300	5095	-13534	-2660	-8912	3832	13584	-319	529	-2374	-15888	2460	-1308	5793	5101	3282	-18648	5048	-2916	7250	14980	304	122	124	1
-32768	-8988	19468	-13495	-32768	-12461	-31128	-4316	-14884	-1397	-32768	7777	-11692	3476	10520	3529	-21094	1350	-9104	3972	13756	-92	1385	-2635	-16036	3712	-952	3600	6529	3401	-20080	7560	-1992	2462	9582	-101	126	120	1
-32768	-732	7120	-8079	-32551	-18310	-22912	-2864	-21932	-2546	-32768	5453	-18468	-272	13868	8626	-13731	-946	-9308	3512	13852	-18	2556	-2625	-15428	3312	56	2356	8319	3168	-17600	8064	4340	-805	9145	749	131	123	1
-32768	8016	-784	-5031	-30036	-18757	-18344	-6032	-20992	-3642	-30368	3629	-9744	3896	20704	8581	-8923	-144	-8776	3988	14620	176	4417	-2696	-16476	3992	1272	703	10780	2911	-17648	7040	6744	-1118	10113	1191	123	127	1
-32768	14144	-20724	3096	-23277	-12432	-11404	-6192	-20304	394	-16003	636	-15260	13040	31252	6837	-3580	-160	-9060	2940	15284	788	7865	-2877	-17816	1344	1000	222	13743	2857	-19852	4240	7720	183	9426	1214	128	123	1
-32768	20968	-31352	4274	-7730	-3364	-4540	-4032	-22028	1667	1704	-3424	-15272	8272	27344	6088	-2798	-5018	-8996	3300	16104	1168	12311	-3016	-18648	1876	-588	728	16647	3070	-20204	2416	6800	1932	7704	671	134	124	1
-32768	13704	-16832	1119	6999	2097	-8956	-7320	-22184	5624	14727	-3622	-14268	5060	13076	2864	3559	-4694	-9100	3840	16864	1697	18816	-2770	-21744	-232	-1928	607	19154	3333	-21932	1748	5168	2838	6066	609	134	124	1
-32768	5440	-13880	4281	8258	3618	-17332	-1308	-8212	13506	23455	-4932	-15836	3628	2604	-4840	8402	-6554	-9380	3592	17492	2069	27393	-3170	-23876	-1908	-1896	2500	21351	3810	-23300	1340	6904	3475	2923	-400	148	123	1
7060	-1216	32767	9147	29435	-924	-32768	19884	10628	22749	18561	4848	-16004	2996	-84	-5135	10219	-6965	-8072	4832	18332	2209	32767	-2957	-27492	-3080	372	3060	23704	3638	-26592	3408	10636	2043	-1415	-1335	124	124	1
-32768	10968	22320	4810	29708	4819	-18216	2128	-13388	26384	19184	-1445	-2148	5628	1044	32767	11170	-5759	-8024	7652	18104	3043	32767	-4700	-31328	-8236	5160	5058	25061	4602	-27188	3520	11956	1619	-3019	-1480	127	126	1
-14320	2672	18028	1174	16620	9509	-17352	13416	-7528	7368	20994	-8320	-19176	14572	-13340	14756	10683	-595	-11436	15008	18944	3982	32767	-12009	-32768	-7980	12008	13294	24526	6696	-29584	-52	32767	-14431	-32768	-6603	126	129	1
-8000	-11584	10500	1879	18624	5723	-15492	-7280	-5352	2532	20021	-4886	-13856	5776	-12428	-1489	5436	-2417	-32768	14844	18680	3080	32767	-28944	-28036	14684	-4936	16071	25546	8608	-16040	-15692	5416	5210	-10949	-10591	126	138	1
-24164	-3108	16444	6809	14512	8252	-14220	-13532	-10808	10195	12830	-6640	-8576	-152	-3072	-7295	8438	-3113	-32768	13452	20264	389	32767	-31684	-27228	13240	-6192	7801	26174	8577	-25836	11276	-3012	13862	-20182	-4519	132	139	1
-13812	-1536	15708	7767	6653	6123	-20696	3828	-10064	9800	11812	-6350	-21960	-1596	-5700	-1097	12315	-7972	-26248	13968	27308	4385	32767	-28346	-24212	3400	-8416	6558	21106	6055	-32204	10332	-16520	14866	-15386	-543	116	134	1
-11568	380	14864	3303	2220	2990	-18656	6796	-7568	-5605	12945	-4407	-20608	3476	-5004	-2796	10249	-4097	-12084	16544	27832	15380	32767	-17644	-18072	2324	-10168	3384	14992	2077	-30028	-1612	-4112	1921	-21742	2732	120	118	1
-9900	-908	13944	2019	1312	1582	-16472	-544	-7036	-13500	9924	-4870	-15252	3696	-3368	-2626	11538	-1475	-28400	32767	32767	7144	-3664	1400	-11564	9180	-13528	2350	8002	1683	-24856	-1116	-5704	-4007	-23694	2314	114	126	1
-9284	-924	13280	1059	1212	807	-17220	-2308	-6516	-10449	7884	-4530	-16292	3432	-3340	-3572	12223	-215	-1036	18736	23552	-7186	-25060	12673	-13096	-2660	-4524	8506	-1535	2039	-24544	2988	-5608	-4360	-22442	-619	124	132	1
-9164	-364	13792	45	1625	222	-17304	-4060	-5664	-813	6100	-2983	-18448	1692	-2124	-2436	13008	-616	7704	6704	13208	-8573	-25452	15956	-8944	3040	-4092	9464	-8891	1410	-23368	3304	-6560	1811	-17727	-804	128	123	1
-9500	-1932	13192	-658	1669	223	-18284	-2292	-5116	4350	5028	-2778	-17580	640	-2428	-1300	14083	-512	3260	1548	11248	-5841	-22110	15464	-5948	4656	-5692	1627	-15706	-1354	-18676	3784	-7672	1247	-15875	-31	127	121	1
-9936	-2092	12680	-105	1168	408	-16936	172	-4388	-1776	4170	-2635	-17488	-2604	-3108	-752	14691	-274	-5536	1516	14560	-1920	-26210	11037	-5580	5916	-6592	-6341	-21028	-2577	-15060	408	-9080	262	-14908	732	120	121	1
-10108	-2296	12500	839	807	52	-16040	-3236	-4092	-6078	3476	-2143	-18024	-1048	-2120	477	14527	-1027	-9000	1296	16428	883	-32768	6124	-6640	3724	-6804	-9412	-25731	-3364	-12808	1288	-9020	17	-14781	1737	126	120	1
-9688	-2136	12756	1131	500	-213	-16504	-3700	-3580	-4809	3081	-1438	-16024	-164	-868	3467	13446	-950	-11224	2360	16180	3505	-32768	4038	-8180	1224	-7968	-8119	-30328	-5507	-11176	3104	-8724	-329	-13112	1734	128	120	1
-9276	-1228	13076	822	209	-317	-16100	-2300	-2920	-1698	3283	-1459	-15804	2408	776	3317	14011	-439	-11696	3288	15180	5565	-32768	4882	-9300	556	-8688	-5954	-32768	-7963	-9580	4396	-8532	-2131	-9689	1004	135	123	1
-9196	-1308	13036	387	528	-293	-16072	-1456	-2692	698	3486	-1180	-15820	2988	704	1344	14048	-147	-12652	4252	14988	7256	-32768	8187	-9928	-1116	-9168	-5920	-32768	-10135	-8236	2536	-10060	-5033	-6627	-369	133	131	1
-9420	-1956	12860	118	762	2	-16160	-1604	-2740	861	3551	-1123	-15124	1756	1172	-757	14425	-1192	-17384	7652	17252	6463	-32768	12529	-11340	-568	-10088	-3379	-32768	-11865	-6836	384	-11208	-8541	-4099	-1523	130	133	1
-9412	-1932	12640	264	613	595	-15908	-1396	-2104	-2451	4181	-1337	-14876	1484	616	-4149	14679	-1682	-18484	7168	17072	4589	-32768	16263	-14704	2148	-10000	-3887	-32768	-13219	-5088	252	-10968	-13846	-1309	-643	129	131	1
-9236	-1764	12800	473	611	1006	-16212	-1688	-2544	-2647	4569	-1284	-14732	1596	576	-5993	14321	-2145	-22000	7172	17452	6160	-32768	18817	-18008	4600	-10884	-5367	-32768	-15320	-3452	-808	-9856	-18042	711	1929	128	127	1
-9340	-1384	13188	681	768	1200	-16388	308	-2556	-2679	5496	-1274	-13556	5228	5140	-7705	15376	-3668	-32768	12288	24480	4900	-32768	19745	-23260	6636	-12636	-7528	-32768	-15620	-3240	-972	-6856	-16484	-2073	2634	124	126	1
-9412	-1072	12900	637	1275	1276	-16388	780	-1968	-4329	6339	-1760	-13604	5236	4172	-4276	18412	-3866	-32768	19028	24996	-1362	-32768	24348	-26004	12300	-13340	-16506	-32768	-16366	-11492	-464	2552	-9061	-8172	1981	123	120	1
-9368	-648	13164	595	1774	1096	-14584	-24	-1212	-5169	7550	-1969	-18104	2600	88	-4072	13436	-218	-32768	18676	23404	-3064	-32768	25517	-20508	4840	-15720	-17873	-32768	-18124	-18736	3524	8932	-11533	-13349	2498	123	110	1
-8856	-1132	13500	599	2719	762	-16356	-1524	-1532	-3563	9272	-2190	-20296	-2756	1136	-3688	8210	1075	-32768	6728	-3576	-7775	-32768	29952	-19676	1420	-17236	-8284	-32768	-11858	-16184	-5208	13088	-17177	-4443	-92	124	119	1
-9224	-796	13732	689	4207	541	-16700	-1496	-1212	-662	10608	-1636	-16804	-1780	5164	-1391	11172	-175	-32768	-29788	-24668	21042	-26975	18046	-8500	-364	-12092	11035	-23608	82	-20264	-17764	32767	-18659	-5080	1391	124	123	1
-9204	-836	14348	279	6576	242	-16920	-1772	-920	352	12979	-1033	-17300	-1848	5744	10	12412	660	-32768	-26532	-27032	26914	-10743	1044	-868	19452	-10944	18707	-2299	6053	-26048	-9232	31380	2439	-2522	-3425	127	132	1
-9256	-1160	15996	116	10504	10	-20116	-2332	-1104	1965	15093	-325	-21120	-2284	5292	1195	9863	1347	-32768	-15440	-15568	-9483	2781	-16655	-6152	14740	-16420	3913	14065	6233	-16556	4360	11736	19023	-9130	773	127	132	1
-9712	-2512	16644	192	16052	905	-22140	-72	-1008	3129	17105	-425	-22824	1700	7384	942	5987	1739	-32768	9708	-8048	-15218	11648	-21987	-10892	11940	-16616	-2859	21868	6610	-15688	6512	6544	21411	-8387	2019	125	136	1
-9352	-1680	17204	81	23070	1814	-23188	3200	-160	2039	19491	-1302	-23008	4096	11808	-1439	2458	2927	16160	7400	32767	-13750	24282	-9608	-32768	-21848	15820	-25770	18902	4527	-10348	3096	-4204	10711	1617	6861	127	142	1
-8300	-1016	19996	157	32767	1537	-28152	2260	1952	393	22635	-1364	-25096	3924	17176	-3203	-2837	2703	-32768	-11272	12488	-10460	32767	-9729	-31292	7960	-19080	-29011	19665	3937	-32768	11408	17576	-32768	-14740	11435	129	128	1
-5824	-4488	21660	-227	32767	1636	-32768	5952	5924	960	25020	-1389	-28664	7300	30244	-4670	-15699	5088	-21500	-14484	30840	123	16410	-13089	-14260	-20660	-9280	-14393	21244	8853	-18236	-8932	-3288	-4535	21606	-1777	128	85	1
1452	-14056	25168	-1224	32767	5903	-32768	13140	10656	-12519	24185	-4067	-22784	18816	28652	7911	-5418	11086	-16968	32767	10700	-4961	16721	-7489	-14104	10212	-7172	8132	17838	9611	-15568	-17996	-17756	-1008	1687	-6043	128	144	1
-32768	-9292	20088	6387	32767	20245	-31372	-13216	-4220	-20990	29756	-4881	-22056	7180	3368	-27455	-3729	9397	-16072	-6424	17872	-8508	8227	-11849	-14320	18312	-13472	-4683	13990	11648	2324	11664	-9300	23922	5615	-703	135	125	1
-32768	-16060	27560	9013	32767	27353	-32432	-12456	-3396	-7247	27896	-5075	-31548	-4320	-13544	-15490	-4711	277	-14244	3640	16856	-6386	1053	-6354	-16844	3080	-14940	-8932	11377	7093	-21056	13000	-8004	7977	12974	8105	126	126	1
-23240	-11160	32767	508	32767	23337	-27260	568	-5216	2384	21782	-4966	-31152	7220	-9660	-10637	-15821	-1116	-11032	3000	14912	-1950	-344	-1844	-18068	-444	-7856	4857	10138	4827	-24940	8464	-8048	1683	11226	8622	129	102	1
-13924	-2980	30920	-18038	30745	11764	-19324	964	-9516	2520	12357	-2860	-31436	10084	-7608	-8980	-17930	1081	-9196	3360	14596	-1097	-292	-1498	-16612	6164	-8784	7946	8162	5483	-20160	1944	-4452	1681	10874	2872	129	117	1
-16336	-25104	32767	-24376	-12077	87	-15664	-772	-4888	-11093	5257	-2964	-29124	8312	-9660	-6029	-20252	2810	-8700	2832	14204	-197	111	-945	-16556	2912	-7896	2959	6278	4274	-13924	1008	-2204	1172	11886	2681	128	128	1
3016	-18648	19636	-5026	-26903	-2333	-13908	-820	-1580	-11780	-3783	-5275	-27188	7268	-10788	-6134	-19064	377	-8596	2224	14360	779	739	-474	-16976	3612	-7452	-2641	4967	2495	-17696	952	-1412	-839	13372	1741	127	122	1
6120	-6376	12772	1728	-27575	-6337	-6660	-3340	-2916	-4883	-12625	-4470	-20608	4256	-11292	-8432	-18064	-1319	-8680	3324	13980	808	1211	-259	-17024	3448	-7216	-3529	4767	2389	-16124	1144	-1524	-1445	13888	658	131	124	1
704	-2756	11260	-1714	-27493	-11623	-6312	-844	-3964	2556	-19710	-2074	-16056	5416	-12104	-7988	-18004	-3228	-9140	3748	13768	521	1389	-137	-16028	2580	-4640	2311	2331	3179	-16284	2628	-1764	572	14412	226	131	134	1
-2788	-2648	12000	-3975	-30473	-14198	-7116	-532	-4876	4947	-24947	-566	-15552	3720	-13068	-9662	-19444	-4517	-9268	3736	13744	370	1230	-103	-15552	3968	-3776	4440	1805	2917	-15900	3420	-848	285	15820	1091	132	143	1
-6488	-1416	13792	-4233	-32768	-14957	-7420	220	-5872	6162	-29919	734	-12516	1556	-13524	-6837	-20142	-4663	-9136	3572	13664	306	1215	-279	-15820	3064	-2932	2926	1720	2572	-16164	1588	648	-1438	16257	2375	126	133	1
-8812	48	14896	-3862	-32768	-15855	-8404	764	-6536	5491	-32768	2422	-8196	-172	-12848	-3437	-19855	-4763	-9096	3124	13644	414	1198	-306	-15224	2452	-2660	1240	2034	2599	-14760	-376	2036	735	15346	1874	129	130	1
-10296	1532	15968	-4854	-32768	-16428	-10132	952	-6956	5352	-32768	4728	-7516	-864	-11920	1153	-17876	-5255	-9036	3092	13636	470	1196	-295	-15212	1856	-2068	560	2538	2795	-14800	-748	2344	4387	14996	682	133	135	1
-13780	1548	17844	-5553	-32768	-15795	-10336	1164	-7048	5241	-32768	5087	-6456	-4	-12900	4409	-17218	-4786	-9136	3776	13264	302	916	-635	-14960	2480	-1396	2677	3041	3024	-14132	964	1708	8483	14008	-195	131	128	1
-16836	1456	19952	-7005	-32768	-13759	-14560	620	-8492	3730	-32768	8343	-4636	224	-13832	7728	-15125	-4942	-9432	3644	13236	28	502	-1088	-14764	3700	-1760	4403	3742	3141	-14028	3148	772	10265	14631	626	129	131	1
-19376	3248	20100	-12752	-32768	-11720	-18956	1332	-9064	2459	-32768	9724	-3308	1348	-14016	11092	-12514	-4802	-9224	3664	13268	-94	202	-1431	-15516	4216	-2492	4037	4341	2905	-13524	3708	2556	8737	15878	2303	127	131	1
-26772	-16	22848	-16985	-32768	-10443	-23716	96	-10976	-226	-32768	11341	-2420	1856	-11060	11584	-10098	-6163	-9088	3160	13744	-265	297	-2008	-15888	1936	-3048	3261	4629	2914	-13852	1356	1756	6223	17344	3055	123	131	1
-28812	-1516	24328	-16966	-32768	-10519	-32148	-3876	-15112	546	-32768	10727	-5788	6148	4676	8581	-16649	-2478	-9056	3136	13920	-129	858	-2228	-15964	1012	-1472	5123	5365	3267	-17616	1952	-552	6662	16920	1431	120	127	1
-32768	-14152	18728	-6149	-32768	-16596	-32052	-4968	-15896	1157	-32768	9687	-16272	5288	11876	7232	-22163	821	-8304	3740	13932	-67	1797	-2544	-16052	3732	-196	5952	6935	3577	-20984	7384	-2096	5211	9965	-365	128	120	1
-32768	-5036	5572	-774	-32768	-25381	-20052	-4656	-21208	3540	-32768	7445	-19172	3016	11236	10959	-10872	-1149	-8876	3204	14424	-129	3183	-2912	-15936	3412	-484	3268	8996	3682	-18848	7972	3988	1755	7772	954	121	124	1
-32768	4592	-4500	266	-29998	-25047	-18600	-6356	-18636	3464	-29928	4407	-10772	5896	23836	13031	-11443	2534	-8872	2412	15008	37	5385	-2642	-16328	2908	-216	2719	11425	3153	-16412	5528	7144	1218	10175	1894	128	127	1
-32768	19924	-28516	1707	-21012	-12682	-8552	-3024	-20644	-2063	-13525	-2982	-14440	13440	32767	14200	-7328	418	-8648	3096	15556	410	8826	-2648	-17576	2772	-4	1641	14312	2868	-18572	4300	6532	3245	10085	1246	124	126	1
-32768	26104	-30192	-5816	-979	2161	-2148	-10292	-21888	-3412	6477	-5790	-15560	8032	29392	10418	-2013	-6011	-8956	3156	16648	750	13693	-2867	-19320	2992	-552	856	17495	2760	-20724	4912	5748	2684	7111	599	127	125	1
-32768	8828	-10232	3002	8729	10504	-10760	-7296	-22668	5361	19350	-3973	-14928	6092	5260	-3921	8443	-7384	-9192	4908	17064	719	20559	-4056	-22684	160	-804	1521	19946	3261	-23248	4048	6360	1916	4393	419	122	124	1
-28076	-8180	1568	8685	10012	11504	-13580	-4900	-14828	5026	25648	-6716	-8972	7604	-4824	-13450	21379	-8859	-9124	4320	17516	39	29063	-5512	-23664	-3476	-800	3664	22203	4402	-23372	1420	9588	2765	541	-532	134	126	1
21560	2912	32767	13703	17640	-2381	-32768	24156	22456	19808	16699	-2872	-9660	4032	12700	11117	15256	-7146	-8376	4180	20208	-439	32767	-6485	-28172	-3272	472	5863	24736	4909	-25744	192	14820	3491	-5065	-1254	137	130	1
-19184	25424	7612	7034	32767	-4964	-22944	-3360	-13476	24668	15082	-474	-29316	-21988	12820	7100	-1393	-7012	-8052	7224	18124	-145	32767	-9025	-32768	-9780	4048	6439	25685	5648	-27732	-1348	22376	-1378	-16205	-2652	117	128	1
-27384	15380	29492	-213	20570	13385	-22220	10444	-9068	16508	18761	-4321	-16780	23460	-4144	32767	6702	-2879	-11684	15108	20308	-218	32767	-18362	-32768	-7576	12580	18388	24159	7948	-16828	-12708	2816	4643	-20838	-10548	129	135	1
-14296	-25028	10260	3906	21631	2196	-19588	-3228	-7204	11281	18705	-5054	-16424	20588	-11456	5628	4729	-4312	-32768	9592	19048	-2920	32767	-32768	-24732	16656	-3632	20331	25306	9725	-24388	600	4164	13012	-16396	-9360	125	139	1
-20364	9036	18952	4997	15879	7989	-11744	-6020	-12008	9067	13545	-8249	-8692	-436	-5956	-12534	6790	-106	-32768	15268	25140	-3075	32767	-32195	-27904	11656	-7632	12320	24677	8718	-25468	14948	-12152	21366	-16148	-2858	121	142	1
-16500	-5736	15984	8127	7086	4100	-19820	36	-11776	865	10856	-8982	-16288	-960	-8388	-6717	13332	-5921	-23856	15556	32756	1144	32767	-26727	-23588	5920	-11636	4087	19336	5295	-32768	5272	-12576	9723	-18788	1600	128	130	1
-11976	-3352	14852	3415	2801	1440	-19636	5976	-7964	-11840	12653	-5600	-23836	80	-7724	-7226	12353	-3417	-32768	15224	31348	18102	21981	-14417	-15500	7860	-15708	-2153	13263	1346	-29496	-2244	-6324	-3812	-23507	4734	117	122	1
-9728	-1324	13612	2318	1923	849	-17060	-3756	-7216	-19275	9260	-5115	-18188	-1124	-4972	-6130	12374	-2176	-14628	29828	32356	12401	-20620	634	-14960	624	-7628	5221	3182	2259	-27228	1308	-5748	-4592	-25449	1853	137	112	1
-9144	-1272	14096	829	2049	146	-17828	-7984	-6224	-6556	6142	-3680	-16768	76	-2664	-1369	12298	-903	2916	15956	15904	1123	-29716	7088	-10760	672	-5848	12688	-4820	3301	-24396	2488	-6220	1569	-21018	-670	120	146	1
-9452	-1208	13660	-427	2178	-676	-19060	-1768	-6156	5465	5665	-2398	-18164	1812	-3588	944	13243	-1193	7972	7688	8812	-1471	-26602	11207	-6388	4156	-5728	7688	-12327	2171	-22284	3072	-7172	3798	-16865	225	119	128	1
-9284	-1100	13532	-952	2356	-828	-18444	808	-5292	2183	4609	-2018	-18016	3020	-3468	-853	14362	-827	1828	5640	9580	-994	-22824	12903	-5264	3728	-6204	-789	-18004	-799	-17928	2616	-8288	2459	-15137	1221	122	123	1
-9704	-2252	12756	-593	2375	-1175	-16660	152	-4756	-4384	3245	-2370	-15892	-20	-3084	405	14913	-8	-5012	5620	12936	103	-26405	12627	-5148	3916	-6344	-1893	-18731	-1092	-14864	792	-10260	70	-14265	2073	125	118	1
-9620	-2404	12952	257	2086	-1435	-16124	-1960	-3580	-8014	2844	-2389	-16424	-760	-1752	1163	15256	-324	-8420	3496	15268	3185	-32768	13449	-6432	2320	-7452	-8732	-27718	-3131	-11912	2116	-9728	-694	-14501	3067	132	119	1
-9312	-2456	12924	487	1872	-1487	-16520	-4016	-2240	-6110	3035	-2084	-16280	668	-616	1463	13655	-127	-10080	3924	15448	6224	-32768	15295	-7824	1372	-7760	-7467	-32267	-5071	-9844	2380	-8876	-2256	-13304	2863	132	121	1
-9364	-1584	12736	355	1742	-1288	-15512	-2804	-2284	-1665	3357	-1693	-15148	940	48	2179	14373	151	-10096	3880	14852	6721	-32768	16905	-9024	1432	-8116	-7760	-32768	-7136	-8196	2624	-8548	-4134	-10128	1751	135	127	1
-9312	-1832	12656	91	1634	-967	-15392	-1404	-1852	97	3525	-1126	-15380	2068	12	-1921	13758	-1005	-12012	3680	15904	6545	-32768	18645	-10220	-96	-9176	-8885	-32768	-9136	-6300	1440	-9732	-6061	-7252	270	138	132	1
-9332	-2644	12432	332	1309	-122	-16204	-1548	-1968	-2656	3985	-1446	-14488	1868	4	-7809	13440	-1391	-18156	5348	19092	4728	-32768	19974	-11132	964	-10624	-7769	-32768	-10538	-5484	964	-11148	-8822	-3990	-845	127	136	1
-9344	-2216	12520	649	909	550	-15620	-2356	-2568	-4225	4300	-1558	-13172	928	3364	-9434	13235	-2228	-20868	3652	19828	5278	-32768	21175	-14296	2512	-10296	-9206	-32768	-12505	-3644	428	-10288	-14322	-558	586	127	134	1
-9316	-1868	12604	693	841	967	-15836	-2136	-2584	-4096	4829	-1189	-13688	1084	3104	-3014	17399	-3569	-22700	4316	19892	9635	-32768	21730	-19472	2928	-10668	-9436	-32768	-15082	-2368	-960	-9848	-19338	845	3348	124	128	1
-9244	-1972	12652	840	835	1452	-16408	-440	-1972	-4477	5555	-1298	-17712	4032	116	-4713	19103	-3107	-32768	10704	26468	7970	-32768	22485	-24540	5704	-12248	-8678	-32768	-15341	-5356	-1204	-5200	-17023	-210	3219	122	126	1
-9148	-1320	13096	762	1003	1575	-15396	1488	-1344	-5862	6512	-1698	-19544	3800	568	-6044	12950	-612	-32768	16524	25708	525	-32768	26669	-26048	11560	-13524	-16074	-32768	-16452	-13448	276	6072	-11816	-10665	2855	122	116	1
-9272	-460	13344	417	1723	1164	-15244	-500	-1448	-5913	8014	-1995	-17804	356	2020	-5047	6709	495	-32768	9420	10664	-4904	-32768	31669	-20148	5156	-16600	-14032	-32768	-16597	-21104	3380	12120	-11970	-11647	2442	123	111	1
-9160	-1464	13372	-56	2986	755	-17192	-2700	-1360	-2488	9260	-1258	-16536	-1692	3976	-3712	10910	-217	-32768	-1980	-7760	-537	-31641	26417	-18668	1932	-17408	-4383	-32768	-8286	-16728	-9172	19100	-16106	-5566	195	124	122	1
-9068	-1948	13912	-183	4502	1087	-16460	-1624	-176	-743	11293	-1002	-17136	-1884	5268	-1936	13586	-67	-32768	-29072	-25920	28079	-22980	11720	-7008	3292	-11408	13939	-19229	2998	-25684	-21688	32767	-9504	-3643	2128	126	124	1
-8696	-1388	15260	-370	7450	1012	-18316	-2012	-308	1102	13487	-416	-20632	-3328	5828	792	11657	672	-32768	-23592	-22228	16794	-5744	-5631	-2408	18124	-12944	15433	2312	7590	-22388	-3856	24020	10483	-3407	-2399	127	120	1
-9296	-2032	16448	-484	12684	681	-22160	-1428	-804	4402	15776	660	-22368	-224	5356	2466	8507	779	-32768	-15668	-10660	-9538	3921	-17026	-6392	12304	-18076	2880	17217	6765	-15668	8832	7116	19677	-9735	2807	125	132	1
-9184	-2344	17100	-258	19159	1333	-22180	2052	-1008	4611	17606	40	-23116	724	5652	2404	8123	1007	4268	1284	7864	-26270	9706	-21286	-13544	11900	-10672	-6729	23341	9116	-14244	9452	-1616	17855	4764	6023	125	133	1
-8472	-1456	17876	-629	27302	1141	-24172	5020	-172	2181	20090	-808	-23712	4428	11196	-2125	1556	3410	24604	8876	32767	-10073	29373	-2840	-32768	-31440	6528	-19236	17286	-575	-11856	4652	-2900	5317	-1195	7626	125	149	1
-10336	-816	21176	-2486	32767	-734	-30228	3200	4088	985	22667	-273	-27136	5384	17876	-2464	-4573	3412	-32768	-23880	20232	-8716	32767	-8023	-32768	-25808	640	-18417	16835	-2655	-28168	8868	24152	-32768	-8235	12924	124	112	1
-6016	-9208	20660	-574	32767	-796	-32768	8720	9832	-1953	25132	-976	-27836	9988	31868	-3931	-18574	5646	-13216	-2588	22876	4699	15332	-11550	-13288	-16500	-8472	-4581	21016	9054	-25848	-21524	-25548	-10121	23862	-5298	128	128	1
-16824	-11580	19620	-2524	32767	7469	-32768	4520	1848	-17300	23516	-4011	-19668	14176	19136	6681	560	10203	-7220	19832	9568	-2061	19428	-5345	-15352	15528	-10252	3637	16345	9468	-8988	-8884	-14472	6815	-405	-5496	136	138	1
-32768	-12200	21972	-213	32767	18843	-32736	-16804	-3924	-12882	30654	-4271	-21308	2664	4056	-24006	-5224	7566	-19444	2872	15836	-7831	6488	-9816	-14308	17908	-15532	-4569	12626	10082	-5544	5384	-11056	18446	10707	3794	124	120	1
-30608	-15200	31108	6343	32767	28010	-32264	-5524	-1408	-940	28176	-5499	-32768	-2996	-15000	-9395	-5386	86	-15756	-2336	18956	-5504	2023	-5967	-18964	-492	-14936	-4250	10194	6591	-26044	15204	-9668	10701	14634	7388	137	118	1
-18124	-10228	32767	-4298	32767	21367	-25244	1208	-6280	3832	21175	-4512	-30928	7168	-9316	-8162	-16884	0	-10276	5648	14388	-1815	332	-1333	-16756	3040	-7108	9895	8954	5095	-21180	6564	-5648	3812	9828	6957	125	112	1
-32768	-7272	32767	-18524	20517	6337	-18652	-376	-12236	-170	12989	-2201	-31128	8412	-6820	-7834	-18240	1607	-9072	3144	14600	-917	89	-793	-16724	7520	-8204	6956	7111	5384	-16932	3704	-3528	3239	11918	1660	127	107	1
-8488	-26188	32767	-12501	-19289	-3168	-17744	-96	-1624	-9235	5451	-2555	-30168	6692	-9776	-3886	-20995	2997	-8408	3384	14068	37	414	-189	-16332	4460	-6868	973	5709	3288	-14788	2760	-1728	2564	12340	2617	130	125	1
6660	-13824	19580	4033	-27433	-5891	-14636	-1804	-708	-6951	-3526	-3259	-28300	5232	-10856	-3247	-20844	-90	-8568	2948	14356	918	1169	227	-17128	3692	-6336	-4044	4528	1770	-17012	1192	-1024	-131	13746	1353	127	127	1
6828	-4136	13616	6249	-26367	-9210	-7488	-3336	-2048	-753	-12959	-1047	-20120	4776	-10988	-4983	-19899	-1303	-8636	4020	13848	1107	1449	316	-16956	616	-4492	-1148	3195	2473	-15688	1340	-872	-443	13915	785	133	123	1
76	-1704	13080	2294	-27553	-11569	-7040	-2476	-3736	4800	-20381	1278	-17264	5136	-11608	-6774	-19477	-3273	-9016	4840	13196	568	969	164	-15600	2404	-3708	4329	2233	2740	-15660	2576	-2056	799	14651	-150	133	136	1
-3816	-1724	14632	90	-32383	-10703	-8232	-1564	-4944	7198	-25647	2398	-16868	3584	-10788	-7884	-19578	-4141	-8844	4544	13648	-212	851	-71	-15652	4072	-2116	6376	1690	2662	-15876	3400	-1532	369	13591	587	131	134	1
-7448	-656	15232	-1137	-32768	-9384	-8404	-1072	-5216	7504	-26466	2607	-12272	296	-12016	-4817	-20735	-4417	-9012	4016	13720	-392	823	-219	-15948	4084	-1956	4136	1910	2411	-15480	1500	1292	491	16085	885	131	130	1
-10088	116	15592	-2911	-32768	-9013	-9468	676	-6788	4009	-32768	6007	-9072	-52	-12392	-1580	-21778	-4808	-8804	3600	13736	-89	950	-233	-14980	2616	-2008	1234	2337	2353	-14820	-44	1564	3096	15420	743	131	133	1
-11452	-356	15508	-4227	-32768	-9093	-10580	996	-6732	3128	-32768	7757	-7744	-220	-12020	2590	-20020	-4336	-8936	3952	13504	29	980	-518	-15452	2392	-1580	1751	2837	2485	-15076	188	1340	5886	14841	-334	130	132	1
-13536	-1768	16656	-3901	-32768	-8665	-12600	916	-7772	1990	-32768	9017	-6600	1808	-12640	5985	-19180	-4129	-9112	4328	13360	-38	675	-887	-15020	3100	-1448	4271	3368	2654	-14664	2444	704	9710	13935	-29	133	130	1
-18664	-3356	19956	-4735	-32768	-8623	-15452	324	-8644	1165	-32768	9847	-6224	2180	-12976	6573	-19095	-3942	-8992	4472	13352	-200	298	-1394	-15176	4680	-2144	5173	3814	2539	-13448	3812	440	10177	14358	1225	129	134	1
-21384	-1968	21012	-9418	-32768	-9298	-19784	400	-8800	-264	-32768	10030	-2720	3948	-12776	9702	-15842	-3836	-9020	3920	13580	-333	163	-1933	-16100	3960	-2720	3521	4244	2113	-13160	2256	3296	7066	16387	3011	127	134	1
-25448	-3500	22296	-15806	-32768	-9462	-25508	-1480	-11076	-3205	-32768	10095	-2976	2628	-8660	7782	-12195	-4093	-8824	3712	13880	-279	536	-2372	-16352	1056	-2648	4578	4544	2431	-15068	908	-80	6613	18306	2944	124	129	1
-32768	-11288	27512	-16006	-32768	-12366	-30712	-7664	-14280	-1740	-32768	9314	-6780	5316	1456	4945	-14274	-1800	-9112	3728	13808	-201	1168	-2452	-15756	1812	-388	6451	5615	2700	-20412	6000	-2108	8624	15266	-415	130	123	1
-32768	-11600	16212	-6020	-32768	-19268	-28336	-6224	-16652	2748	-32768	8770	-13284	772	8760	7802	-16480	-326	-9124	4020	14152	-162	2198	-2701	-16076	4500	620	4455	7567	2826	-22088	9264	-8	3573	9347	-758	128	122	1
-32768	-3960	3696	-1269	-32768	-25060	-22192	-6516	-22316	2928	-32768	7991	-16036	-1108	16996	10612	-14238	-2595	-8384	3876	14256	-96	3883	-2870	-16212	3184	1672	2161	10082	2512	-17468	7436	8180	-2179	8572	1090	125	123	1
-32768	5268	-12420	-21	-30026	-20065	-15452	-8636	-21980	-1724	-27310	3336	-9580	6620	27480	8285	-7602	-1156	-8272	3284	15632	395	6997	-2837	-17000	1992	1628	908	13302	2225	-17312	6004	9208	-225	11020	854	123	122	1
-32768	14784	-31812	-3109	-17925	-7825	-6488	-7116	-21812	-2530	-10944	-4958	-17040	14324	32767	6628	-3148	-2191	-8932	3252	15980	892	11150	-3180	-18120	1316	708	607	16611	2648	-20048	2968	8196	2759	10443	594	130	122	1
-32768	19720	-29496	-6324	423	2262	-3968	-7660	-23332	-2503	7715	-7082	-15040	4924	24372	3130	-1250	-4801	-8872	3596	17008	1692	17202	-2906	-20852	820	-332	356	19878	2605	-22244	1808	6760	2320	7174	715	132	123	1
-32768	-748	-19040	20032	17104	9368	-11608	-9168	-23360	4914	19950	-7515	-14588	3112	8080	-3037	5094	-7649	-9172	4440	17300	1313	25206	-3917	-23312	-1896	-1284	1377	22278	3504	-23524	-420	6880	3126	4477	653	125	122	1
-492	14552	32767	13591	32292	-9226	-26444	17588	20580	24163	24138	-1380	-17576	-344	2216	-4723	10533	-9254	-8652	5028	19416	1225	32767	-4328	-26192	-3648	-792	3820	24735	4024	-25828	412	9004	3540	223	-797	120	126	1
-26520	24668	19892	7047	32767	6945	-32768	-13100	-11204	32767	19742	650	-18536	-760	4356	-2292	9969	-9636	-7616	5980	18900	1822	32767	-5458	-31312	-7228	2092	4516	26465	4414	-29752	2596	14596	1160	-8392	-1529	116	129	1
-26276	1272	27016	2758	16576	13421	-18800	26556	-9392	23319	22336	-5181	-12756	11580	-10716	23292	16993	2338	-10168	14484	19764	1075	32767	-11939	-32768	-11172	8352	12828	25780	6636	-30288	504	32767	-6961	-32204	-4989	139	139	1
-1604	-11296	9760	909	20404	4293	-14020	-1196	-5600	-120	22789	-8219	-15408	12852	-23516	268	2659	-2829	-32768	16280	19992	1005	32767	-28849	-32768	11000	1016	19983	26000	8648	-16204	-17708	104	6935	-13112	-10975	123	136	1
-25556	-3784	16880	6670	15728	10372	-10260	-18048	-12868	4706	13654	-9762	-6368	-2168	-5784	-15563	6816	1371	-32768	14000	22944	-4513	32767	-32768	-27716	15112	-7300	9078	27128	9737	-26736	9300	-1304	10468	-21267	-4527	133	142	1
-15988	728	17760	8983	4308	6984	-21304	-476	-14480	9044	11789	-9630	-16908	-5596	-7904	-5946	12729	-7772	-25864	18224	26260	-2255	32767	-32768	-27188	4032	-7556	4672	22316	7350	-30444	10708	-15876	15696	-15304	-108	130	134	1
-11316	592	15224	3689	1543	2111	-20416	7228	-8688	-8878	14848	-5114	-30160	424	-10084	-3644	11972	-6395	-8736	11024	27692	13350	32767	-20596	-20104	-856	-10012	1271	15789	3660	-32708	7164	-15004	13612	-16656	96	117	130	1
-8696	-2320	13880	2563	851	1101	-16532	-4332	-7932	-17006	10740	-4911	-16944	600	-5460	-2600	11886	-2074	-32768	32767	32767	21129	610	-2151	-12064	8364	-15852	4515	8992	2636	-25600	-2400	-6284	-1106	-24571	1442	126	115	1
-8672	-204	14388	1120	963	762	-17976	-5020	-6976	-6057	7906	-4097	-16308	2364	-2560	1131	12831	-2010	-3428	25432	26972	4106	-28683	8167	-14704	-2332	-5036	12296	-1417	4238	-27192	1692	-5736	-2701	-24349	-1229	124	121	1
-9144	-528	14060	-565	1691	59	-18432	-2612	-6780	6867	6320	-2491	-18408	3128	-2836	4070	13534	-2069	8516	10484	13020	-2735	-29686	12680	-9556	3656	-4964	13315	-9324	4169	-24200	3596	-6580	3974	-19801	-1629	121	132	1
-9232	-1552	13576	-907	2139	-768	-18392	1580	-6108	5506	4600	-2522	-18004	3336	-3248	2789	14575	-1481	4904	5468	9468	-3049	-24565	14503	-5796	4656	-5756	3637	-16468	1320	-20256	3440	-7964	5227	-16608	-605	116	125	1
-9508	-1436	13400	-321	2211	-1919	-16948	644	-5404	-3359	3445	-2927	-16888	2224	-2788	666	15761	-742	-3424	5068	12756	-2131	-26288	13440	-5296	5996	-6784	-4885	-21993	-155	-16068	1372	-9636	4052	-15021	376	120	122	1
-9276	-2308	13196	-48	2026	-2252	-16616	-2400	-4276	-7650	2968	-2770	-17548	-160	-2068	-326	16116	-854	-6924	1404	14864	2621	-32400	11707	-5856	3792	-6972	-8670	-26891	-1481	-12596	2752	-10544	3271	-14349	2250	129	124	1
-9112	-2340	12956	-194	1733	-1738	-16696	-3524	-3240	-6723	2590	-2451	-16560	-1368	312	2498	15485	-800	-10712	3768	15772	7779	-32768	11264	-7364	2868	-7648	-7253	-31752	-3779	-10448	4356	-10224	1211	-13085	3348	133	119	1
-8864	-1760	13148	-319	1792	-1261	-15936	-2432	-2348	-3013	2784	-2182	-17160	1508	-632	2516	13097	-885	-10932	4896	14944	8327	-32768	11463	-8616	2896	-8120	-6120	-32768	-5739	-8128	4928	-9476	-2172	-10279	2431	132	119	1
-8960	-1560	13112	-495	2117	-1105	-15920	-1468	-2320	-882	3235	-1626	-15504	2788	716	-222	14384	-1097	-12424	5204	14780	8970	-32768	13404	-10108	1520	-9164	-7776	-32768	-7832	-7728	3352	-10488	-5030	-7084	1422	133	130	1
-9016	-2252	12928	-393	2077	-553	-16176	-440	-2180	-2012	3463	-1638	-14644	3204	888	-4656	14499	-1096	-17180	7668	17140	8956	-32768	16771	-11276	1388	-10360	-6625	-32768	-9607	-6284	1612	-11968	-7577	-4255	201	127	132	1
-9208	-1976	12848	-139	1876	-117	-15672	-744	-2356	-5673	4038	-2105	-13880	2604	1080	-11181	14379	-1129	-19740	7320	17440	8841	-32768	20802	-14248	2436	-10356	-6492	-32768	-11302	-4412	800	-11464	-12421	-1888	998	130	127	1
-9308	-1952	12588	110	1574	194	-15576	-2316	-2856	-6018	4715	-2067	-13336	1040	4124	-9475	14886	-1947	-21972	7548	18416	9717	-32768	23695	-18740	4464	-10268	-6137	-32768	-13447	-2940	1296	-10408	-21622	-2021	3525	127	126	1
-9420	-1552	12724	278	1383	482	-15612	-884	-2620	-5681	5539	-1987	-12864	2292	3568	-4992	19627	-3527	-32768	12852	26232	6745	-31404	25377	-23884	9244	-11824	-7539	-32768	-14083	-3632	1084	-4460	-16649	-2765	5480	122	124	1
-9184	-1384	12992	230	1431	498	-15180	112	-1912	-6230	6572	-1861	-16432	3972	1052	-5968	19374	-2335	-32768	17324	22136	-2431	-32768	28985	-24480	10964	-12412	-8957	-32768	-14257	-10192	2140	3780	-12084	-11150	5890	123	123	1
-8952	-1464	13392	-129	2073	471	-15740	-220	-1048	-6690	7798	-2188	-20264	840	160	-4892	10057	398	-32768	12416	7172	-10560	-32768	32767	-17284	7212	-18096	-23014	-32768	-15948	-15612	3160	7948	-14917	-11548	4700	122	98	1
-9160	-1776	13176	-427	3296	536	-16312	-1884	-1048	-4397	9263	-1797	-19700	-3356	4128	-6321	8233	935	-32768	4272	-6996	-7056	-29569	32342	-19332	0	-17284	-17398	-32768	-10103	-15244	-6968	16920	-21193	-6098	216	125	120	1
-8976	-2104	13152	-343	4404	1071	-15800	-3072	-924	-1322	10929	-1824	-14632	-2040	6560	-3852	12851	178	-32768	-32768	-24304	21567	-21172	18256	-6524	-1456	-11352	9824	-20845	2463	-26968	-20612	32767	-16733	-2887	3200	127	129	1
-9068	-1400	14368	-451	6365	1212	-16492	-2212	-752	1043	13129	-916	-17000	-1624	6832	338	13938	88	-32768	-28736	-22256	16415	-6539	-4523	-2508	20640	-11804	14158	601	7527	-24168	-4828	27744	-867	-3594	-3335	125	132	1
-8912	-1728	16184	-926	10463	654	-20268	-1628	-800	3465	15524	53	-21792	-192	6320	58	9303	-195	-32768	-19268	-10436	-8696	2449	-20284	-6636	10728	-17872	-446	15790	6161	-16520	6724	8584	12250	-10372	761	125	124	1
-9232	-2604	17188	-919	16465	1211	-20860	-1424	-684	3526	15872	115	-23320	1992	9436	-1773	5256	1476	-26872	32584	4228	-20204	5020	-20082	-12432	7368	-14332	-184	22251	8272	-16568	6492	-2188	20947	-180	7156	127	154	1
-8424	-604	18232	-1543	25026	678	-24712	5816	92	1577	20507	-1391	-23876	4536	13644	-2535	1486	3736	21112	3784	32767	-14951	25431	-3801	-32768	-26448	10828	-17189	18922	3575	-10576	-1020	-3368	14371	1934	5987	125	129	1
-6812	92	21404	-2301	32767	-1604	-31608	6176	2696	-657	23753	-1395	-27616	6620	21440	-3865	-5895	3840	-32768	-15076	14096	-9571	32767	-3591	-25936	9920	-19476	-32768	19534	3581	-22224	9192	10968	-32768	-7404	11352	126	128	1
-6684	292	21936	-2670	32767	-2097	-32768	11788	9384	-3232	26036	-1617	-28652	14156	32767	-1111	-21942	8298	-25612	-18348	32767	1320	17904	-15857	-17692	-16724	-9596	-17204	20680	7935	-26256	-16212	-14472	-14805	20477	-3307	128	151	1
-12120	-10256	25756	-3770	32767	3256	-32768	840	20188	-22054	24750	-3485	-19472	17396	-10564	-8442	2540	12089	-8196	27532	9056	-2298	20633	-4747	-14608	5672	-9292	1219	15896	10103	-13844	-17808	-16664	1301	2893	-2526	131	130	1
-32768	-14828	21948	-4737	32767	15674	-32476	-19472	-3976	-14319	29900	-3277	-25372	-1512	1740	-21720	-3093	5614	-19844	-916	17840	-7170	5547	-10376	-15412	15328	-16380	-338	12474	11951	-7984	5688	-10472	19446	7166	2251	136	130	1
-32768	-18616	30424	4079	32767	28019	-32768	-7128	-3748	699	27684	-5260	-32768	-4868	-14632	-10647	-6865	-124	-14476	-3792	17748	-4651	711	-4802	-18716	3072	-14228	89	10081	9170	-25240	14660	-11628	13084	13462	7100	123	116	1
-20996	-7724	32767	-4526	32767	23060	-26072	-1860	-6352	5536	21009	-3865	-32768	8768	-5708	-5405	-19048	-208	-10400	5016	14188	-1116	180	-939	-16684	4748	-7280	10691	8845	6201	-19984	8940	-6240	6116	9860	6324	117	110	1
-32768	-5288	32767	-23580	9864	11317	-18352	-2084	-11772	1029	12969	-941	-31400	4640	-8832	-3638	-21401	1984	-9056	3728	14120	-239	326	-438	-16628	8164	-7748	8016	6922	5329	-17716	7448	-5132	4422	11411	2898	127	98	1
-4120	-21412	29364	-21889	-23284	8334	-15696	-40	-1872	-11429	3301	-1444	-31432	6180	-11696	-1755	-20924	2095	-8772	4328	13568	478	784	-291	-16792	6568	-7268	2609	5112	3209	-15596	4424	-3004	2090	11884	3141	128	120	1
6016	-16172	15628	-4015	-30450	6734	-10644	-5184	-1804	-11235	-6640	-2309	-25992	5940	-12440	-3358	-19320	-104	-9156	3224	13960	1184	1267	305	-17272	3992	-7056	-4869	3668	1628	-17856	716	-2096	-1319	14147	2471	134	127	1
5556	-7736	9796	2819	-29745	2169	-5560	-4680	-3060	-2811	-15034	-1027	-20532	2880	-12612	-4471	-19341	-1576	-9304	3632	13712	1468	1275	499	-17172	-224	-5888	-1375	1947	2300	-16144	-412	-2332	-554	15262	461	140	124	1
1800	-6248	8704	-705	-28323	-3802	-5724	-2228	-4156	3953	-21601	1933	-15136	5604	-12924	-6282	-19764	-3587	-9336	4072	13452	1268	1192	698	-16140	912	-4576	5405	662	2872	-16668	-384	-2228	2501	15375	414	129	134	1
-2652	-7508	10272	-3405	-29570	-8434	-6416	-1484	-5304	5416	-26916	2872	-13908	2536	-12140	-6135	-19938	-4574	-9436	4220	13372	1237	1254	984	-15940	3216	-2600	7606	278	2970	-14940	1216	896	2634	15962	929	133	137	1
-7300	-7892	12380	-2837	-32768	-12188	-6464	-1808	-6476	4850	-31918	3350	-10092	472	-13176	-3360	-20427	-4693	-9184	4580	13268	971	1251	827	-15404	4660	-1296	5354	482	2654	-14804	1836	1108	2795	15706	987	129	137	1
-10720	-5892	14092	-1602	-32768	-16167	-6424	-1940	-6588	4861	-32687	3437	-7564	-296	-13220	934	-19931	-5212	-9268	4328	13188	724	1190	531	-14784	3644	-864	2542	1033	2563	-14144	728	1592	5361	15438	1247	133	133	1
-13492	-3404	15044	-2141	-32768	-18880	-8272	-1148	-7424	6948	-32768	5398	-4976	-324	-13492	4583	-18135	-4939	-9344	4288	12980	521	893	247	-14780	2400	-376	3328	1726	2681	-14452	1056	2036	9307	14437	948	132	129	1
-14828	-1444	15752	-4875	-32768	-19029	-10720	-736	-7340	5463	-32768	6726	-4012	368	-14416	7445	-16442	-4545	-9416	4684	12732	133	382	-215	-14476	3044	-140	6985	2502	2826	-13356	2112	3488	11673	13705	1532	130	132	1
-17440	-588	17160	-9169	-32768	-17119	-14812	-1360	-7432	4065	-32768	7579	-3120	628	-16312	9725	-14461	-4708	-9276	4624	12864	-379	-129	-1014	-15172	4384	-740	7586	3222	2940	-12708	2112	5872	9945	14194	3350	128	135	1
-21628	1176	18984	-15407	-32768	-14478	-19328	-416	-9884	2084	-32768	8194	-2100	2052	-14608	10994	-11256	-5327	-9060	4308	13104	-630	-338	-1589	-15428	2476	-304	6402	4268	2879	-15208	3360	2012	11715	16130	3025	124	131	1
-32572	-2040	26016	-18805	-32768	-14293	-27516	-1852	-11960	-764	-32768	9942	-3460	120	-7660	12544	-10965	-6512	-9184	4172	13248	-547	-322	-1862	-15424	2484	-136	6378	4421	2878	-18428	7952	120	11009	13280	531	123	124	1
-32768	-3180	27540	-18358	-32768	-14693	-32768	-5852	-12172	1026	-32768	10646	-9436	3304	6772	7545	-18475	-1499	-9088	4368	13516	-488	-11	-2203	-15404	3704	276	4836	7259	3318	-19304	8480	240	5246	9114	154	126	123	1
-32768	-11468	15796	-3875	-32768	-21287	-28324	-6480	-19900	-1972	-32768	9061	-15004	2192	11176	4068	-17454	-1696	-9224	5136	13540	-486	661	-2754	-16244	4864	-232	2453	8685	3223	-16664	7668	3124	971	10407	704	129	123	1
-32768	-4788	2644	-2319	-32768	-24882	-20968	-7792	-21460	-934	-32768	4899	-19148	6796	13324	8186	-8976	-2623	-9076	4528	13676	-407	1987	-3271	-15548	3080	504	1126	10361	3332	-15672	5580	3676	764	12102	799	123	124	1
-32768	6540	-12472	-2869	-30537	-19829	-17752	-5020	-18388	-14	-27370	-498	-12064	13948	32767	8155	-11337	2232	-8868	4260	14280	-155	3899	-3501	-15804	3456	820	866	12690	3483	-17608	4512	4188	548	10649	1084	124	125	1
-32768	27880	-32768	-8426	-16243	-7493	-4264	1680	-22260	-8993	-9111	-8024	-14076	14812	32767	11025	-1362	-907	-9020	3500	15572	247	7232	-3539	-17516	3504	-828	-1479	15424	3170	-19316	3980	5008	-800	8353	1750	116	122	1
-32768	21276	-22900	-8338	4051	4247	-844	-404	-21772	-11347	-5245	-8565	-16304	2688	25284	2045	-360	-7488	-8720	3612	16672	939	12784	-2968	-20564	996	-1704	-1356	18065	2959	-21904	3756	3848	-1174	6074	1511	119	125	1
-32768	9084	-5152	7991	7924	11477	-12920	-5828	-25868	6006	23134	-2201	-16168	3096	5120	-7562	5720	-10116	-8992	4672	17520	1929	20516	-3482	-23060	-1424	-2440	969	20072	4185	-22876	1556	5148	2188	3839	28	153	125	1
-11456	-3676	29052	22958	13154	8100	-22192	3168	8000	15951	26044	-5560	-11408	3836	-4324	-10296	19725	-9808	-8864	4348	18448	2247	30017	-3792	-24296	-3176	-2052	4457	22088	5216	-22724	1112	5392	2989	3213	-164	123	127	1
13016	-3036	17000	11054	28206	-8600	-32768	18552	5864	12411	16318	4039	-16200	2064	13044	9303	10680	-7104	-8032	4220	18548	2845	32767	-3683	-29104	-5740	-480	4282	24310	5470	-28072	-1168	13112	3315	-4780	191	143	126	1
-32768	18192	22400	3160	32737	-3002	-10812	1944	-13364	29112	17783	2373	-11560	-4932	9632	26160	23	-1478	-6256	7444	18572	5114	32767	-4950	-32768	-13964	4232	9781	24781	6963	-28392	-3604	21184	315	-15978	-2349	101	131	1
-13588	9256	21356	-5598	18769	12690	-25220	15408	-6880	17710	19488	-2971	-22432	19700	-8528	29929	7322	-3424	-13380	15680	20772	9140	32767	-13769	-32768	-6540	7796	22987	23337	9168	-23072	-14808	16592	-4601	-31637	-13585	119	134	1
-13592	-25400	9200	3886	19680	3445	-18180	-13000	-6400	8760	17909	-5015	-15580	8248	-9468	-1233	7538	-1690	-32768	11356	16208	6095	32767	-26663	-26768	19956	-5796	20951	25436	9512	-23476	-1804	5932	12000	-15452	-10861	122	132	1
-19364	4532	18388	7009	12438	9200	-13832	-6456	-11556	13988	13188	-7006	-9996	824	-5596	-7322	7874	-3417	-32768	17516	23856	3752	32767	-28948	-29044	12396	-6368	11722	24574	9017	-27948	16236	-14348	21806	-15744	-4532	134	137	1
-13556	-5160	14504	8864	8637	4577	-20756	6244	-9604	110	12546	-6287	-20772	660	-6628	-8630	12322	-7797	-26112	14408	32767	4014	32767	-28656	-22988	6288	-9388	2756	19533	6365	-32540	5224	-11112	9579	-19809	36	129	127	1
-11956	-212	15264	4324	4940	3640	-18480	2892	-7740	-10125	11691	-4577	-18592	444	-5168	-7295	11703	-3141	-32768	6000	32704	27334	20490	-17567	-15484	7000	-12868	-2219	13984	2625	-27620	-68	-5224	-1774	-23185	3382	105	122	1
-9940	32	15256	3500	3487	2342	-16796	-3104	-7108	-9698	8882	-4763	-17132	856	-3756	-2939	11833	-1458	-16788	31980	32767	23144	-22106	-4647	-14840	-196	-6468	6006	3664	2175	-24216	2284	-5120	-5284	-24293	273	127	122	1
