#Activity	walking 
#ActivityID	1 
#Date 09-23-17-56
acc_rf_x	acc_rf_y	acc_rf_z	gyro_rf_x	gyro_rf_y	gyro_rf_z	acc_rs_x	acc_rs_y	acc_rs_z	gyro_rs_x	gyro_rs_y	gyro_rs_z	acc_rt_x	acc_rt_y	acc_rt_z	gyro_rt_x	gyro_rt_y	gyro_rt_z	acc_lf_x	acc_lf_y	acc_lf_z	gyro_lf_x	gyro_lf_y	gyro_lf_z	acc_ls_x	acc_ls_y	acc_ls_z	gyro_ls_x	gyro_ls_y	gyro_ls_z	acc_lt_x	acc_lt_y	acc_lt_z	gyro_lt_x	gyro_lt_y	gyro_lt_z	EMG_r	EMG_l	act
-7492	-2028	13920	35	42	35	-15168	2128	-1984	-498	1085	230	-19280	3520	-6248	-334	1881	-71	-24032	280	21752	11724	-32768	20412	-15600	1904	-9312	-3204	-5194	-2052	-5688	-13072	-9320	-2672	-1368	-147	131	190	1
-7452	-2788	13520	114	40	73	-15320	-960	-688	-765	847	12	-18336	616	712	-108	1081	-63	-26024	-2584	30136	11893	-32768	22135	-28688	1232	-10096	-2469	-5309	-1933	-5248	-10024	-3392	-1868	-1205	-207	133	185	1
-7608	-3104	13552	125	100	113	-16920	-1480	-760	-294	972	106	-16296	-7064	6096	-415	1042	36	-32768	-4240	32767	12138	-32768	23195	-28768	5928	-12864	-919	-5239	-2245	-4136	-1384	328	-1158	-768	-13	136	186	1
-7752	-2664	13528	187	121	117	-16192	-1248	-1104	52	1097	69	-13688	-5304	1616	-798	1071	-1	-32768	-3520	31584	10186	-32768	25530	-30344	11016	-13800	-985	-5194	-2393	-6464	4968	-912	-546	109	342	127	182	1
-7884	-2752	13476	271	57	167	-15432	-3072	-2040	418	1191	113	-14120	-2936	-2912	-231	1208	105	-32768	-2056	23512	4886	-32768	26120	-30592	11208	-13792	-2005	-5038	-2647	-15672	4648	4384	-1171	464	948	126	171	1
-8120	-3528	13256	328	88	276	-16728	-3312	-2472	798	1287	114	-17072	-6840	-144	314	1316	116	-32768	-8856	15184	7827	-32768	20493	-30960	8384	-15328	-979	-4415	-2238	-24928	2200	18744	-3453	-152	1481	128	164	1
-7960	-2576	13612	344	189	317	-16928	-288	-2712	717	1487	211	-17416	-5936	1896	118	978	130	-32768	-24752	-3560	24404	-32286	7428	-18568	11936	-21792	1465	-3426	-1083	-21344	-15240	32767	-4145	-332	1203	131	162	1
-8204	-2412	13612	349	329	382	-18512	-1224	-2232	338	1697	282	-17728	-1640	1248	-7	853	122	-32768	-32768	-29208	32767	-19557	-7936	-7600	6528	-26120	3601	-1470	446	-10480	-19216	32767	1641	-853	216	133	164	1
-7940	-1252	14500	500	543	476	-20136	280	-3160	291	1877	221	-18472	-3320	1816	-165	823	231	-32768	-32768	-32768	32767	-16472	-9367	-10328	11760	-22504	4098	918	875	-19040	7984	19488	3635	431	-811	135	129	1
-8256	-1420	14232	565	818	382	-19776	-1392	-3328	400	2080	528	-18664	-9920	1184	-572	807	276	-32768	-13696	232	-11229	11378	-23502	-11672	14504	-21720	3890	1115	864	-14112	3856	3624	3605	1445	296	133	122	1
-9004	-3176	13848	634	1267	514	-21856	-4568	-2344	519	2213	576	-20576	-6896	1400	-647	570	455	-31992	768	14096	-710	9424	-23747	-13056	5824	-13688	-140	2259	1033	-7432	3912	-1160	4788	871	281	127	95	1
-9240	-2004	13696	806	1873	824	-22360	776	-2984	261	2400	433	-20296	-360	4456	-443	294	299	15352	-1160	21304	-18312	15831	-9368	-31936	-28944	24072	-1578	1570	-27	-10888	10224	-8856	2138	477	-453	142	0	1
-9684	-1420	13588	844	1999	882	-24264	1072	168	-552	2623	496	-21464	1520	6896	-493	243	272	-2536	-9360	8904	-11396	32767	2257	-22696	-6816	680	-1432	1634	1128	-32768	16304	24192	103	-449	159	128	0	1
-8328	-4312	18412	1536	3515	1562	-27576	-1000	2008	-716	2778	447	-23256	-1608	8280	-904	-317	297	-22104	-30112	32767	-9113	32767	-8539	-30920	3456	-7848	-1883	2269	1038	-14856	6288	14720	-4609	828	-110	113	0	1
-11460	-3308	15168	1776	4562	2107	-31184	-1192	5264	-647	2866	463	-23224	-2024	8720	-981	-381	319	-19192	20232	13928	-2708	22748	-6347	-25104	-1088	-3640	-2462	2439	807	-13248	-13296	-2512	-3845	2177	-12	116	0	1
-16044	-3852	26836	2929	5891	2945	-32768	-360	3840	-1329	2916	420	-26448	1160	19968	-652	-3320	331	-18664	8496	25104	-15922	22508	3189	-14224	12528	-2656	-2223	1977	661	-14464	-16448	-14072	1143	856	422	103	0	1
-24304	-876	28036	2969	6937	3288	-29824	-1448	1512	-2635	2745	352	-16376	11984	-920	-1782	-1995	319	-15688	-3096	22160	-6239	12723	-2479	-12448	6184	-8528	-1197	1699	1643	-2536	8160	-11656	2840	1096	792	105	0	1
-22644	1184	31048	1534	7899	3196	-26920	-792	-5208	-2288	3098	437	-23728	2472	-5720	-2088	-2043	-118	-12984	-6360	23312	-5133	8022	-2931	-19016	5232	-10784	-220	1352	1093	-24344	17416	-13800	622	1857	644	110	0	1
-23932	-12372	32767	-1236	7552	3348	-27880	1152	-3896	-3181	2931	741	-28744	-5080	-12488	-2990	-2050	-914	-10816	3576	14824	-2363	3029	-1399	-23840	1744	-4488	954	1286	593	-25400	4272	-10448	-957	1635	84	117	184	1
-10108	-6304	19052	-1326	5488	3333	-19648	-2872	-6704	-2105	2386	358	-30072	-128	-12360	-1442	-2738	-1101	-8304	1368	15952	-1212	1639	-1601	-16696	5968	-3704	1012	1130	482	-17528	-2104	-5184	-628	1444	-38	104	253	1
-28236	-32768	32767	-729	971	234	-14808	2088	-10272	-1059	1426	39	-28440	2184	-9560	-25	-2775	-1031	-7904	112	15856	-529	1143	-1370	-17696	512	-3736	407	778	226	-17320	-2264	-2056	36	1637	-281	109	253	1
-3980	-17252	21196	568	-1040	-1081	-15600	-2680	1240	-1451	478	-173	-27296	1688	-3640	523	-3267	-987	-7472	112	15344	-41	1352	-575	-19080	8	-3264	130	612	291	-17856	-2552	464	228	1681	-470	109	228	1
5568	-2360	13968	-796	-752	-1123	-11592	1312	552	-869	-562	-608	-22600	-1608	-2792	701	-3196	-863	-7440	768	15120	-3	1874	15	-18264	224	-2712	28	627	306	-16944	-1624	-304	495	1770	-531	106	196	1
4976	-1760	14616	-1148	-712	-1107	-6152	2184	-2176	-1431	-1134	-622	-20552	1208	-2408	1028	-2829	-520	-7784	1184	15000	114	2084	336	-16944	1192	-2296	301	643	235	-15664	504	-1424	466	1728	-756	115	154	1
-6688	-7988	22352	-1553	-2031	-886	-6776	-3520	-3776	-1329	-1588	-1128	-18872	2968	-5072	209	-2580	-538	-7952	1640	15064	415	1875	476	-16024	1256	-1680	880	708	243	-15608	3184	-1448	191	1743	-808	109	139	1
-7196	-5688	20176	-1570	-3096	-1209	-9040	-264	-2440	-260	-2206	-1473	-15336	3376	-6328	-88	-2118	-703	-7920	2024	14880	468	1401	104	-15512	1224	312	1631	798	300	-15456	3304	-1800	101	1753	-790	129	157	1
-6300	-5572	14488	-1775	-3600	-1579	-9400	1496	-856	237	-2768	-1352	-12776	-1488	-6680	-417	-2174	-899	-8104	1664	14840	188	879	-595	-15520	2448	320	1987	775	391	-14416	1728	552	-72	1862	-565	122	148	1
-7408	-5292	12904	-1688	-3781	-1847	-9072	1672	-2120	590	-3283	-1522	-13880	-2872	-8288	-57	-1966	-943	-7568	1392	14624	-1	448	-891	-16008	2792	-120	1799	628	391	-14672	1336	1560	-156	1823	-524	116	144	1
-9500	-4520	14316	-1983	-3899	-2235	-10536	2568	-3136	819	-3786	-1578	-10688	-3192	-8672	530	-1660	-779	-7664	1248	14752	18	394	-794	-16152	3048	-224	984	490	333	-13720	840	3008	-425	1946	-608	120	142	1
-11772	-3788	16124	-2189	-4010	-2527	-11656	2472	-3528	1024	-4225	-1582	-9040	-1720	-9296	1429	-1597	-478	-7784	1072	14608	150	638	-685	-16880	1960	-1272	256	467	238	-14304	2616	6384	-124	2396	-673	121	140	1
-15452	-2836	19936	-2444	-4242	-2796	-12712	4400	-6104	1278	-4632	-1623	-7264	272	-10000	2178	-1510	-157	-7808	656	14376	359	793	-618	-16544	600	-1456	307	571	196	-15536	3264	1928	822	2857	-529	125	141	1
-18584	-2052	19440	-2462	-4495	-3043	-14144	6192	-6312	903	-4981	-1619	-6496	3216	-10240	2311	-1280	113	-7896	840	14296	338	761	-613	-15696	648	-600	771	690	255	-19072	-424	-1928	177	2081	-180	127	142	1
-20036	-32	19172	-2512	-4388	-3251	-17160	5656	-8128	376	-5190	-1599	-6048	4728	-9392	1911	-914	165	-7320	1456	14496	127	596	-1340	-15520	768	-480	837	706	271	-18712	1936	-992	-770	1428	225	130	169	1
-24544	-580	21268	-2447	-4258	-3367	-21216	3416	-9552	199	-5339	-1596	-6192	3552	-8152	1205	-557	57	-7664	1112	14496	40	1051	-1684	-17392	2784	-872	489	866	326	-16216	4792	3752	-16	1272	-394	128	193	1
-29280	-3224	20684	-2100	-3977	-3419	-25376	1768	-11080	546	-5417	-1679	-6216	2168	-4992	332	-314	-183	-7688	656	14752	80	1701	-1568	-17648	680	-1568	58	899	301	-17400	2712	1720	394	1532	-335	130	203	1
-32768	-2996	23392	-1832	-3636	-3658	-28408	1152	-15976	1127	-5421	-1585	-8280	-1656	-408	145	-351	-354	-7784	800	14632	116	2296	-1512	-16880	128	-1016	122	1191	289	-16488	-568	736	147	1459	-243	129	174	1
-15616	-9160	15512	1204	279	347	-24064	5416	-10344	770	1796	114	-18600	-32768	-16584	-1256	988	-31	-24496	4488	32767	-4874	32767	-17655	-26856	424	3208	1246	2390	330	-31864	640	-11512	1831	-1452	1239	121	194	1
-10400	-3956	14640	826	18	230	-21008	-3752	-3600	-367	1528	-37	-21592	-6016	-11048	1812	1785	-596	-32768	-5256	20784	-20455	32767	-26490	-21576	7792	-4688	395	1995	384	-32400	-3136	-10216	627	-2315	1248	141	253	1
-8700	-3076	14400	520	-41	158	-16736	-1640	-6024	-335	1198	48	-21168	5552	-5568	1001	1666	177	-29384	17960	32767	-9710	11410	-15014	-14088	6184	-14704	-213	1208	299	-28800	-5384	-5136	-247	-2806	1281	144	253	1
-7516	-2172	14056	322	-6	83	-18320	3704	-3944	24	820	103	-16776	688	-2168	38	1605	494	-11784	16192	32767	477	-13256	-151	-14920	-3416	-2896	595	630	1	-26832	-1952	-4392	-505	-2921	1449	135	254	1
-7648	-2292	13736	226	87	23	-18464	4104	-3984	7	794	97	-18320	-616	-728	199	1658	691	-96	9736	18112	6499	-19684	7102	-11504	-2392	1600	1451	-123	-212	-25240	952	-6064	-446	-2911	1592	129	253	1
-7880	-2832	13752	176	139	-13	-17048	0	-3968	453	569	6	-15768	-320	-416	199	1843	723	64	5608	14352	6286	-22145	8095	-6384	4016	216	1269	-1093	30	-24648	-1584	-6232	-933	-3111	1369	132	253	1
-8228	-2956	13664	126	162	-53	-16544	-888	-3376	585	512	99	-14584	-64	-1032	2	1795	631	-800	2192	14768	5579	-25157	7113	-6464	6248	-864	90	-1799	301	-19848	-3224	-5760	-335	-2267	1417	139	253	1
-8212	-3176	13476	97	166	-54	-16248	-792	-2568	432	494	172	-15656	-1760	-1536	-305	1853	307	-3048	216	16240	7427	-28672	6057	-8064	3024	-704	-1158	-2410	135	-16928	-1976	-5704	196	-2119	1237	122	251	1
-8176	-3248	13484	79	150	-10	-15376	-64	-1888	-126	522	94	-15232	-2080	-640	-267	2011	220	-5120	480	17608	8124	-32768	5409	-7848	1152	-2344	-1707	-2996	-124	-15184	-1992	-6800	279	-1923	1192	113	233	1
-8052	-2984	13468	77	126	33	-15384	-704	-1152	-570	564	31	-14368	-1664	112	-13	2041	176	-5960	-240	15840	10154	-32768	6357	-8464	-1304	-2008	-1904	-3528	-356	-12656	-896	-8424	443	-1707	1211	123	225	1
-8092	-2624	13396	72	121	48	-15304	-1232	-1264	-463	566	14	-13168	-616	552	41	2236	266	-9560	80	18240	12678	-32768	8095	-10144	-1000	-2920	-1845	-4070	-477	-11464	840	-8992	263	-1476	1223	118	216	1
-8136	-2576	13508	63	104	26	-15288	-1664	-1384	-143	565	39	-13176	584	3160	-451	2505	305	-12824	-80	20528	13700	-32768	10013	-10232	320	-4648	-1703	-4420	-662	-9920	-768	-9600	-299	-1374	1151	129	213	1
-8108	-2632	13396	66	91	37	-15976	-1256	-1832	121	583	30	-14760	-2392	6440	-1097	3016	405	-13528	-1112	17576	16705	-32768	12027	-11240	1344	-3152	-2405	-4933	-824	-6168	-1888	-10744	-1074	-1248	764	125	206	1
-8104	-2216	13372	106	53	38	-15328	160	-2120	64	691	67	-16312	-3448	-1016	-1108	2741	318	-13800	-2200	12576	21130	-32768	14073	-13888	-1208	-3840	-3227	-5287	-1287	-5416	-3448	-11752	-1723	-1088	534	129	199	1
-7900	-2340	13348	182	-16	89	-15120	-912	-1736	-153	804	84	-18112	1616	-9896	133	1869	-177	-20232	-3840	19304	22628	-32768	15230	-19240	760	-8672	-2420	-5349	-1563	-5984	-7096	-11896	-2296	-920	191	132	188	1
-8140	-2728	13408	257	-44	166	-15880	-664	-2400	-96	859	34	-17088	-2592	-1744	326	1275	73	-25768	-2976	28024	25339	-32768	16760	-20344	3688	-9704	-1838	-5508	-1703	-5552	-8632	-8776	-2176	-727	11	133	187	1
-8168	-2440	13320	251	-8	186	-16872	-192	-2528	-10	920	75	-16632	-6632	3544	-93	1225	220	-32768	2296	32767	23561	-32768	19092	-32768	4976	-12136	-1517	-5616	-1670	-5168	-6048	-3488	-2258	-489	43	130	174	1
-8056	-2292	13468	236	60	186	-16928	-280	-2232	82	1015	94	-16016	-2304	1696	-440	1166	118	-32768	5176	32767	17680	-32768	23301	-31312	8616	-16560	-899	-5585	-1690	-8272	-2448	2240	-2149	-741	24	129	169	1
-7868	-2448	13756	265	152	224	-16536	-984	-568	226	1169	123	-17664	640	696	-144	1175	177	-32768	-8512	24728	20512	-32768	28677	-28488	7552	-17280	-1047	-5278	-1810	-14688	2928	4400	-956	-187	42	134	162	1
-8048	-2520	13868	281	251	249	-18008	-720	-1088	366	1372	208	-18744	-2168	3792	-34	1139	123	-32768	-21608	19184	20104	-32768	24781	-31176	5432	-16712	214	-4608	-1895	-20576	5936	15832	-745	-122	646	133	154	1
-8796	-1768	13768	289	383	265	-17488	-848	-2688	316	1616	301	-17608	-4736	2920	-425	878	4	-32768	-28904	2608	17516	-32768	9975	-24312	10288	-21728	2072	-3685	-1137	-17992	232	27368	-1875	550	1502	136	162	1
-7252	-1848	14324	441	577	367	-20208	-1488	-2368	214	1776	348	-18952	-4392	304	-574	856	-8	-32768	-32768	-25944	21920	-20992	-10938	-9800	10960	-30272	3154	-1847	99	-16640	-2808	32767	-1106	-424	1583	132	149	1
-8452	-1896	14028	448	859	451	-19336	1032	-2472	205	1980	454	-18112	-3808	1624	-638	704	68	-32768	-31720	-32768	16215	-771	-21061	-2248	10272	-28016	3200	946	975	-17008	-3440	29856	2387	334	-873	132	150	1
-8392	-1096	14356	650	1240	414	-18472	1304	-2528	127	2231	535	-18728	-3936	3328	-438	632	291	-32768	-8808	-2712	-16547	11378	-23519	-15384	11832	-22880	1483	2077	999	-13176	-3776	7064	3135	1241	-860	127	174	1
-10448	-896	13600	798	1844	467	-21432	-416	-2504	301	2463	616	-20344	-4632	4424	-792	356	378	-2664	10360	27208	-26649	10571	-14240	-23720	-6440	23672	210	1962	407	-11976	3656	-4368	4338	1152	-72	126	21	1
-9812	-2820	14196	1056	2608	812	-24456	824	-40	-3	2682	540	-21656	-1152	7712	-749	-83	468	-1664	5792	3088	-27086	28669	-1492	-29112	-6584	6920	-3148	1610	898	-13632	17536	17008	2636	427	-311	113	0	1
-9848	-4040	16840	1282	3345	1307	-28960	1400	1984	-868	2945	443	-24712	1000	12016	-282	-658	472	-10416	-32768	32767	-21806	32767	783	-24880	-2152	-6592	-4124	2287	575	-28704	27024	7408	-3026	67	1391	115	0	1
-10944	-3228	15708	1505	4599	1947	-32768	1200	6336	-1826	3008	496	-28816	-1568	19512	-52	-2257	561	-14568	-10480	31256	-8584	24803	-9875	-30392	-8960	-8760	-4373	2548	535	-22184	-18272	3504	-6035	276	-148	113	0	1
-17076	-6124	23852	2405	6387	2885	-32768	96	6656	-2778	2942	698	-21672	3776	9184	-1512	-3560	369	-15608	21408	13696	-9335	24888	24	-15144	1352	-3008	-1589	2744	756	-11888	-32768	-12808	-341	210	-91	105	0	1
-26312	-3168	28644	2751	7351	3406	-27528	-5240	-1592	-3456	3147	706	-24032	4760	2400	-2228	-1895	832	-18880	-18408	29056	-8942	12159	-3069	-14672	7264	-14200	-636	2002	1723	-7440	1200	-14432	4805	516	710	105	0	1
-21064	-5700	32767	1846	8064	3506	-29232	-5088	-4208	-2654	2910	900	-21584	-9296	-8280	-2567	-1615	-531	-17040	1408	21848	-2286	6720	-2212	-21400	5568	-10520	1552	1857	925	-19832	24904	-17168	2794	1797	470	111	0	1
-24660	-13328	32767	-510	6947	3725	-27312	-1008	-2600	-2355	2690	1163	-31240	-6704	-12664	-1718	-1903	-1169	-10792	2616	16296	-1017	2893	-1757	-18440	5240	-6568	2116	1440	883	-25256	4960	-13312	-635	1884	169	109	94	1
-32768	7948	32767	5	3824	3725	-19184	-4520	-10760	-986	2222	936	-28456	-4416	-13240	128	-2540	-1040	-8136	-424	16520	-428	1512	-1551	-18424	5480	-5016	1318	1197	389	-20336	1224	-6096	-1070	1273	-253	110	125	1
-24492	-29332	32767	-133	-311	1208	-16160	0	-10560	-67	1139	519	-29704	-1016	-8256	911	-2825	-847	-6616	-936	15352	575	1833	-778	-18688	1704	-3848	100	814	134	-16080	-2416	-2168	-878	1426	-475	120	157	1
-2568	-17264	20192	317	-2015	202	-16376	-304	-8272	-214	1004	478	-26640	1080	-5040	1316	-3276	-926	-6424	384	15384	1274	2846	226	-18752	688	-3144	-427	605	216	-18712	-5368	16	-166	1627	-709	108	163	1
1436	-9620	10788	-451	-1897	-193	-10520	1968	-584	-875	-724	-138	-23952	1000	-4376	1050	-3147	-787	-7112	152	15512	1536	3757	769	-18376	-280	-3144	-414	551	280	-17032	-3696	456	648	1820	-720	111	158	1
-2384	-10340	14324	-1104	-2053	-465	-4848	496	-2856	-1138	-1297	-98	-22544	-5568	-11944	1587	-2921	-812	-3856	1440	14240	1367	3624	1034	-17208	-56	-2448	428	586	242	-15312	472	-936	912	1844	-754	111	157	1
-6008	-11060	16352	-1128	-2854	-786	-6808	-3000	-4216	-941	-1783	-636	-19608	2368	-7336	982	-2532	-610	-8224	1656	14984	946	2996	812	-15736	1840	-440	1418	701	302	-14896	3360	-1312	969	1810	-726	123	153	1
-5700	-9000	12076	-1115	-3432	-1084	-7320	-2856	-3400	-825	-1893	-714	-14256	1704	-6296	775	-2066	-1004	-8120	2144	14824	587	2129	14	-15336	3376	704	2152	823	394	-15136	5216	-1200	811	1862	-601	126	147	1
-7124	-8356	11580	-1403	-3620	-1430	-7864	-88	-2728	421	-2945	-1124	-15424	-56	-6992	458	-2044	-976	-8032	1976	14968	-59	1494	-810	-15832	5200	704	2281	813	389	-14704	6152	-144	464	1906	-586	119	143	1
-9216	-8768	12504	-1609	-3800	-1832	-8544	312	-2816	504	-3376	-1295	-10912	-2216	-7344	401	-1763	-936	-7928	1312	14640	-409	832	-1168	-15912	5608	-160	1384	658	289	-14160	3968	232	-274	1873	-644	128	139	1
-11060	-8596	13308	-1745	-4001	-2283	-9968	-128	-2888	802	-3792	-1532	-10416	-2600	-8800	905	-1535	-802	-7568	376	14608	-315	626	-1108	-16368	1824	-1360	304	533	145	-14048	1200	1960	-584	2001	-744	127	135	1
-13536	-7300	15728	-1981	-4144	-2730	-11064	40	-3864	1224	-4193	-1687	-7600	328	-9760	1525	-1456	-537	-7512	264	14584	-311	733	-921	-16808	464	-1680	302	553	96	-14032	1368	6912	201	2578	-855	127	131	1
-15280	-6604	17372	-2190	-4325	-3175	-12120	1488	-4088	1788	-4622	-1785	-6088	2248	-9424	2002	-1398	-213	-7712	1064	14528	-425	569	-1340	-16320	1480	-1072	708	631	205	-15648	2480	1248	1186	2906	-847	130	134	1
-16744	-4856	18328	-2391	-4316	-3566	-14496	3376	-5240	2045	-5078	-1775	-5256	4728	-10656	2052	-1103	30	-7560	1240	14384	-528	319	-1948	-15480	1920	56	1117	722	291	-16256	2536	0	1135	2813	-808	130	135	1
-19512	-4048	21568	-2500	-4237	-3812	-17784	4136	-6352	1722	-5432	-1722	-5720	6640	-11712	1557	-647	65	-7664	1128	14736	-617	522	-2599	-16016	3136	-232	777	742	311	-18888	1592	-1336	164	1999	-398	130	146	1
-25488	-6004	26504	-2354	-4266	-4024	-22696	2088	-9672	1619	-5697	-1773	-6096	6224	-10920	745	4	2	-8064	312	14600	-428	962	-2610	-17400	2248	-1368	20	936	253	-16416	2416	3520	-539	1335	-385	129	141	1
-31920	-8088	28816	-2076	-4292	-4446	-28096	2008	-11864	2206	-5980	-1763	-5648	4808	-8392	268	434	-27	-7840	640	15024	-115	1836	-2114	-17176	96	-2120	-21	1042	256	-16344	2608	2432	427	1584	-475	128	149	1
-32768	-2912	29940	-2040	-4122	-5001	-32768	2168	-15992	2632	-6057	-1492	-6728	32	-3664	732	489	11	-7872	792	14568	-126	2547	-2405	-17424	1784	-1368	219	1278	340	-16720	-400	792	327	1624	-300	129	148	1
-32768	7128	28680	-2143	-3801	-5120	-32768	2288	-20336	2541	-5808	-819	-13056	-7896	1384	1361	118	-325	-7688	304	14768	-489	3527	-3185	-18288	2088	-1256	-37	1316	340	-17832	1880	776	-142	1419	-189	128	149	1
-32768	12948	17344	-1467	-3428	-4436	-29848	3088	-22880	2165	-5180	-390	-27544	-9896	18840	2260	-1080	-1109	-8048	304	14848	-675	5811	-3163	-19720	1072	-1896	-230	1606	244	-18528	2736	1016	-145	1376	-186	146	155	1
-32768	32767	2208	-1291	-2644	-2717	-20816	7768	-30552	479	-3807	-340	-26152	456	32767	3693	75	-2008	-8248	448	14688	-675	8961	-3305	-20416	1168	-2080	-344	1739	273	-17936	1288	2816	351	1180	-75	156	155	1
-32768	32767	-17712	-3657	-1830	-382	-4792	6904	-32768	-2070	-1332	-771	-21272	9176	32767	1018	-152	197	-8384	544	14808	-1211	12635	-3345	-19536	384	-2496	-404	1928	242	-17440	856	1696	565	1203	-158	170	152	1
-32768	32767	-32768	-1670	-56	1859	-1816	-1304	-28640	-3543	1306	-128	-19936	14808	28288	-1091	275	1826	-9696	-440	14424	-2930	16514	-2742	-20240	2272	-1448	-329	2189	179	-19848	7400	784	563	975	-388	161	151	1
-32768	30568	-16896	2697	1810	4950	-22576	-7136	-28680	-1327	2593	242	-15408	2456	2368	-2154	257	971	-9768	1400	14712	-5346	20468	-3035	-22712	3408	440	-392	2397	171	-22008	8240	3008	675	414	-572	126	204	1
-6928	-32768	32767	2570	1894	3387	-30096	1216	28184	-142	1944	713	-17424	-8680	-2272	-4012	117	-144	-10896	2240	15960	-9288	24305	-5444	-26616	1792	2520	-5	2555	261	-24312	4320	8432	485	-321	-542	118	180	1
-17792	-19236	-4820	2351	4880	1224	-32768	9136	-4728	1776	2464	157	-27096	-12208	28928	-473	-2810	-780	-11264	2056	18032	-15655	31888	-9066	-31904	824	5816	824	2725	342	-28352	5024	16368	411	-1809	-420	117	168	1
-24156	31620	32767	1259	3487	968	-23760	7472	-11816	1818	3156	1098	-12216	-14688	-4088	3253	762	-1562	-13400	4672	19544	-23515	32767	-14235	-32768	-2456	15024	2203	2992	370	-30952	536	20216	1814	-3083	-318	116	105	1
-32768	-32768	9120	732	2338	546	-13680	-2256	-12040	926	2887	953	-23200	29352	-22648	-534	1818	-964	-22368	-2152	32767	-28271	32767	-21775	-30016	2504	1344	2713	2832	817	-19816	-8832	12920	1536	-3272	-406	147	0	1
-8472	20484	32767	1557	873	763	-11416	-96	-17976	2509	2290	-405	-7896	17192	-18736	-3336	-199	320	-27440	1872	32767	-13309	32767	-18508	-29272	5248	-2584	3334	3172	652	-20552	-3144	3496	2811	-2047	191	134	0	1
-12440	-5888	16232	1177	247	272	-19712	10048	-11936	421	2036	107	-9344	-24456	-13712	-3819	177	906	-24840	4224	32767	-7275	32767	-15563	-30368	8456	344	2096	2564	526	-27984	912	-10880	2762	-963	752	125	62	1
-10916	-4448	14696	705	109	151	-13712	-2504	-3112	-1416	1603	-136	-25280	-19008	-16792	943	1879	-323	-21552	1896	26136	-2852	32767	-20171	-24072	1680	4424	822	1947	413	-30080	544	-10800	1736	-1815	1232	131	254	1
-8016	-3836	14164	416	56	79	-18488	-2232	-5000	-2263	1375	-374	-23640	5312	-7824	1281	2019	-81	-32768	11896	32767	-8112	22616	-27308	-15760	12760	-22744	71	1826	976	-28144	-2744	-7560	111	-2625	1320	142	253	1
-7584	-2452	14456	282	103	59	-18928	-1920	-3208	-492	896	-195	-17504	2968	-2024	-375	1812	620	-17432	20864	32767	2967	-10285	-11693	-15592	8	-5080	680	933	-45	-26536	-2736	-3552	-219	-2961	1378	141	253	1
-7440	-2416	14092	176	162	-30	-16736	424	-3696	692	637	105	-15864	-3680	-640	-259	1847	662	-1448	17328	18784	9355	-19520	2619	-19072	-8664	5800	1168	290	-195	-24624	-1520	-4480	-306	-2938	1650	133	254	1
-8068	-3124	13840	151	153	-93	-17544	-992	-4152	1162	568	130	-15560	-1432	-1248	24	1913	713	2064	12208	9936	5405	-18512	9116	-9800	320	3048	1513	-570	-47	-24536	-632	-4824	-544	-3077	1507	135	254	1
-7856	-3312	13804	107	124	-100	-15712	-904	-2520	912	499	135	-14328	-920	-1568	143	1937	680	-768	4448	17136	2924	-20134	10140	-5728	5584	-1168	709	-1476	331	-19464	-2312	-3464	108	-2513	1375	131	253	1
-7648	-3160	13912	60	93	-90	-15384	1384	-1840	369	478	189	-16056	-736	-1416	-46	2033	270	-1504	-256	18968	7173	-24711	9324	-8464	6472	-944	-632	-2038	337	-17760	-56	-5424	276	-2259	1458	139	253	1
-7480	-3220	13828	50	69	-36	-15384	1440	-1048	-626	554	51	-14152	-856	976	-253	2049	233	-2064	24	16912	9742	-28313	7671	-9384	1744	-520	-1574	-2685	29	-17032	1632	-6576	183	-2159	1356	122	253	1
-7680	-3200	13628	54	47	8	-15264	-1160	-1024	-1180	630	43	-13416	-2200	1592	-198	2078	208	-4992	144	18040	9618	-31792	6908	-8824	832	-2288	-2060	-3281	-189	-14096	896	-7752	20	-1930	1258	111	246	1
-7672	-2924	13596	61	11	-3	-15792	-3392	-1088	-717	622	163	-13320	-2256	1800	-158	2113	236	-7312	-232	18992	11331	-32768	7465	-9056	-568	-3568	-2035	-3767	-354	-12320	496	-8232	-19	-1709	1290	118	225	1
-7068	-3484	13656	83	19	33	-15808	-2688	72	124	596	155	-15328	-1448	5936	189	2933	318	-9576	-40	18160	13713	-32768	8873	-10824	-1112	-2904	-1831	-4154	-581	-11384	-928	-9144	-493	-1619	1246	122	214	1
-7064	-2848	13640	83	58	53	-16304	272	-1616	691	563	111	-16096	-3936	4344	-797	2859	472	-13080	-72	20376	16001	-32768	10917	-11800	120	-3840	-2360	-4712	-611	-7776	-3280	-9488	-1099	-1572	913	132	207	1
-7568	-2136	13892	90	70	59	-16056	1808	-2920	346	724	171	-16424	-2376	-4752	-1358	2578	416	-15384	-1208	21280	19222	-32768	13652	-12392	-944	-4664	-2671	-5031	-1005	-6760	-5248	-9984	-1587	-1521	598	126	200	1
-7540	-2576	13840	171	15	92	-15408	904	-2576	-207	804	84	-17848	192	-5912	3	1989	201	-13824	-4128	12848	22552	-32768	15714	-17448	-2000	-4440	-2696	-5340	-1353	-6392	-6208	-10392	-1875	-1347	328	125	188	1
-7336	-2832	13812	218	-9	153	-15600	-1208	-1968	-328	872	7	-15776	-1624	-2440	945	1356	220	-20424	-7112	24184	23349	-32768	14521	-21216	1128	-9272	-1633	-5457	-1372	-6688	-8600	-9600	-2047	-1084	56	130	180	1
-7108	-2548	13884	296	-6	219	-16808	-1952	-1264	306	916	38	-15792	-2648	1776	633	1449	229	-26168	-4976	31656	25273	-32768	13249	-26000	4408	-9808	-1138	-5611	-1329	-6432	-9544	-8296	-2011	-1036	17	131	180	1
-8072	-2220	14128	328	-4	275	-16696	-616	-1944	835	990	117	-16384	-184	2296	-14	1354	210	-32768	-312	32767	22862	-32768	15272	-32768	4400	-13944	-1295	-5670	-1425	-7392	-4736	2016	-1415	-938	117	128	170	1
-7464	-2464	13964	299	96	303	-16744	1264	-1496	677	1133	109	-17280	720	1000	-47	1221	178	-32768	-8520	30152	21149	-32768	19762	-29456	5664	-16592	-928	-5420	-1661	-12760	2008	4432	-421	-822	155	139	165	1
-7620	-2124	14352	307	183	346	-16864	-8	-936	234	1357	118	-18088	-1784	1512	96	1204	156	-32768	-19576	24632	19838	-32768	20401	-28808	5808	-18776	-592	-4916	-1863	-16752	8488	7352	93	289	313	132	162	1
-7816	-1692	14180	358	303	452	-18544	-1752	-3208	210	1583	142	-18880	-4152	1296	-281	996	14	-32768	-27384	15128	14489	-32768	12189	-28320	5632	-18000	847	-4164	-1774	-15104	9624	18536	-992	377	1273	134	158	1
-7208	-1008	15176	531	497	550	-21512	1064	-3264	211	1710	246	-20104	-2448	544	-604	853	-53	-32768	-28328	-9160	10046	-29783	-2809	-27576	6656	-18640	1152	-4005	-1660	-16632	744	32767	-2231	768	1542	131	135	1
-7824	-1636	14360	524	749	582	-20280	1776	-2096	24	1913	423	-19096	-1688	1912	-705	753	-12	-32768	-32768	-32768	21161	-13188	-13914	-7600	8192	-30072	2931	-686	364	-19176	-2240	32767	-652	-789	310	136	122	1
-8124	-1484	14376	569	1209	590	-19512	1680	-2136	78	2118	443	-18456	-1360	3064	-622	630	121	-32768	-21248	-27984	-1761	6297	-15053	-5880	12232	-27248	1404	1372	813	-18336	-1880	20968	1637	368	-1596	133	153	1
-8400	-316	14112	814	1748	462	-20560	1080	-2456	327	2327	565	-19336	-5648	2600	-665	642	302	-32768	-12272	8872	-16520	11292	-11438	-16320	5864	-22216	264	2503	660	-11648	-3376	5352	2643	917	-649	127	36	1
-8480	-2016	14460	1092	2465	636	-23552	-440	-688	349	2528	668	-21640	-6344	3960	-894	314	370	19272	17896	26392	-16984	17214	-10741	-28848	-7784	27640	-628	1875	11	-14064	2616	14400	3066	463	-547	120	6	1
-8416	-3676	15896	1262	3228	1137	-26976	1160	904	-278	2671	492	-24400	-1360	7120	-419	-100	513	-4048	-192	9848	-18816	32767	-4698	-29192	-3664	1680	-2451	1850	1397	-11024	16616	-18672	1715	2514	-479	119	27	1
-9996	-3304	15348	1414	4180	1705	-31328	736	3800	-1132	2799	482	-25960	-1904	13344	-45	-755	564	-23912	-22928	32767	-15773	32767	-3172	-26584	4416	-10200	-2088	2551	740	-32768	16	14344	-4012	-257	803	116	0	1
-12132	-4844	19572	1928	5688	2361	-32768	640	11376	-2343	2754	689	-26464	-2592	19328	-430	-2551	591	-16288	816	22464	-8382	23650	-4694	-25704	-3976	-7560	-2306	2480	940	-13176	-20912	-1536	-2431	539	498	100	0	1
-21544	-5024	32767	3275	6887	3281	-30080	-5912	688	-2869	3019	743	-18208	5136	6056	-1452	-3096	466	-31584	2936	32767	-11662	17142	-155	-14720	8336	-7312	-257	2500	886	-13792	-18952	-13808	3006	812	577	102	0	1
-26388	-5880	32767	2485	7639	3505	-28704	-6600	1568	-2475	3015	761	-24424	-1960	-888	-1789	-1847	451	-16080	-1384	22264	-5365	7362	-1320	-16256	7160	-10072	87	1898	1273	-14664	15832	-15848	3866	1025	95	108	0	1
-23976	-11488	32767	1426	8254	3497	-28248	800	-5152	-2239	2903	1112	-23272	-8152	-12144	-1950	-1605	-652	-14168	-1824	21704	-4360	6608	-1433	-19440	5896	-8136	979	1595	898	-18640	15912	-14176	-61	1824	-122	117	45	1
-15868	-18188	31960	-154	5373	3184	-24208	-3576	-6456	-1660	2638	1286	-29840	-5552	-13168	-960	-2471	-1160	-8632	808	16504	-660	1370	-1004	-19512	6256	-5088	549	1253	554	-23160	368	-9840	-1288	1677	156	115	158	1
-32768	-32768	32767	18	1573	1611	-17408	-1488	-16352	356	1865	580	-26912	-3296	-11792	716	-2730	-1019	-6152	1056	15728	-120	1476	-750	-18072	2088	-2840	-296	931	216	-18048	-1400	-3920	-1029	1423	-260	119	195	1
-8584	-25876	30580	585	-1081	-74	-19896	-1064	-200	-277	736	583	-27776	-2480	-11224	860	-2785	-985	-6744	240	15352	890	2773	-257	-18344	-672	-3616	-28	681	309	-16168	-5352	-1000	-415	1583	-566	120	208	1
1444	-13464	15288	318	-1262	-672	-15128	-824	1848	-246	-185	249	-25424	-752	-4488	1157	-3401	-939	-6072	16	15096	1922	4622	742	-18408	424	-3008	421	563	419	-17344	-4008	72	327	1772	-646	108	184	1
-416	-10608	17048	-440	-1386	-907	-7640	-120	-2248	-650	-985	149	-23872	-1936	-5096	906	-3337	-758	-7216	1152	15200	1237	4066	927	-17984	1304	-2344	641	555	447	-16968	440	-72	739	1967	-574	119	175	1
-5116	-10144	21740	-787	-2290	-1053	-5936	-3064	-4432	-684	-1568	-177	-19632	-400	-4432	765	-2867	-758	-7832	1880	15248	1023	3708	827	-16376	3032	-1016	1190	630	337	-15056	3016	-1064	744	1828	-529	117	178	1
-6260	-9088	17960	-818	-3445	-1137	-8544	-4040	-3400	-258	-2174	-644	-16544	744	-6232	1013	-2242	-922	-8184	2256	15144	917	3017	515	-15560	4048	32	1503	728	324	-14784	5080	-912	621	1789	-497	128	167	1
-6836	-7824	13584	-945	-3986	-1192	-8976	-3296	-2272	349	-2855	-819	-17712	-1272	-8552	643	-2059	-1065	-8032	2208	14976	483	2313	-113	-15480	3936	1440	1779	816	349	-14976	4792	232	460	1794	-452	124	160	1
-9324	-8696	13360	-1232	-4281	-1412	-8832	-1208	-3248	750	-3393	-873	-15456	-1912	-8512	572	-1980	-1092	-7712	1816	14712	-301	1455	-886	-15840	3320	728	1652	824	362	-14720	3872	2008	216	1729	-451	127	160	1
-11964	-9432	13844	-1480	-4546	-1762	-10368	-752	-4552	793	-3852	-1065	-10632	-3696	-9608	761	-1715	-909	-7472	1320	15232	-349	1236	-1040	-16176	2528	-8	1308	803	313	-14704	1912	2232	45	1683	-524	128	155	1
-14384	-9496	13288	-1716	-4740	-2162	-11328	-1192	-4208	1006	-4317	-1213	-9736	-2576	-10208	1520	-1534	-795	-7368	1120	14720	-133	1400	-936	-16400	2456	-872	899	778	262	-14800	728	2528	357	1860	-617	129	145	1
-17020	-9808	14052	-1930	-4765	-2576	-12208	-1136	-5032	1383	-4702	-1426	-7840	-160	-10592	2422	-1530	-526	-7672	1400	14784	19	1795	-950	-16616	2544	-1480	627	753	237	-14688	1896	4336	726	2331	-609	131	147	1
-19076	-9356	15200	-2115	-4659	-3092	-13944	680	-5648	1727	-5059	-1542	-5544	4016	-10544	2643	-1350	-200	-7688	864	14624	166	1735	-1151	-16456	1968	-2184	515	786	239	-14040	2416	2480	993	2701	-526	128	143	1
-21640	-9264	18064	-2270	-4447	-3608	-17480	904	-6840	1680	-5404	-1527	-5304	6920	-11520	2120	-1098	-65	-8112	1176	14520	436	1586	-1277	-15848	568	-2064	776	867	275	-15680	1632	-1808	105	2576	-65	130	143	1
-25328	-9244	20804	-2273	-4226	-4072	-22576	-240	-8960	1656	-5679	-1582	-5248	6784	-10224	1131	-610	-7	-7440	1072	14736	621	1904	-1407	-16168	1904	-1640	838	831	318	-16984	-720	-2336	-600	1983	-242	129	140	1
-32268	-11144	26016	-2169	-4056	-4484	-25776	-1192	-12208	1991	-5882	-1612	-5072	5640	-8400	443	-243	-75	-7536	1104	14536	825	2669	-1276	-16840	1984	-2776	594	939	463	-17680	3136	496	-336	1674	-319	128	141	1
-32768	-9116	27472	-1987	-4062	-4898	-29680	-1832	-15712	2602	-6056	-1678	-5112	5592	-7856	451	-200	-90	-8192	352	14752	1194	3652	-600	-17728	1096	-2840	199	1051	347	-16792	3344	152	-58	1756	-412	127	141	1
-32768	5752	27804	-2872	-3677	-5030	-32624	1600	-20976	2217	-5944	-1251	-8992	-4856	-816	1060	-263	-262	-7688	1376	14632	1524	4712	-198	-17616	2400	-584	244	1219	272	-17616	3352	1016	-12	1664	-477	131	144	1
-32768	14388	24948	-3226	-3420	-4304	-29464	4832	-24768	925	-5427	-809	-19128	-6584	2992	1249	157	-698	-8456	2248	14576	1123	5900	-1027	-18928	5400	296	203	1402	345	-18616	4808	3224	184	1510	-427	139	148	1
-32768	24224	14520	-2847	-3004	-3089	-25184	6952	-29888	-780	-4683	-961	-25376	1192	24392	1333	-938	-1036	-8776	2320	14648	-223	8035	-2951	-22120	3696	72	-54	1542	351	-20568	2008	3808	434	1479	-10	146	153	1
-32768	32767	-488	-3719	-2674	-962	-17440	5488	-32768	-3364	-2753	-1209	-18992	5584	32767	1012	300	-1158	-9024	1888	14240	-344	11587	-4087	-21384	256	-632	39	1851	321	-20352	-384	4152	1034	1332	55	161	151	1
-32768	32767	-31248	-4040	-1886	1460	-1040	1176	-32768	-4094	-69	-944	-21088	8120	32767	-1703	98	111	-8368	1368	14240	-1034	15678	-4487	-21528	-456	-792	61	2086	358	-20536	1056	3408	1465	1143	-191	151	139	1
-32768	32767	-23088	197	-309	3675	-5760	-3576	-29808	-1854	2010	3	-19432	1848	15336	-2118	120	753	-10256	96	14216	-2766	20867	-3650	-22488	-592	-496	-65	2388	337	-21992	4016	4648	1507	754	-352	140	203	1
-4188	-13428	16164	4834	-168	3558	-21272	-1536	248	393	2972	773	-10392	-11776	4064	-2970	147	-299	-9872	1440	15016	-5342	25019	-3622	-24232	-824	1512	-14	2619	355	-23640	3752	7256	1563	105	-505	115	164	1
17588	-32768	7992	3436	1858	1834	-32768	1096	32767	2809	1386	-119	-17472	-23048	9792	-2365	-414	-634	-9672	3528	16456	-10043	31944	-5448	-31472	-1224	5456	743	2814	451	-28800	3656	12608	1255	-866	-639	119	148	1
-15972	14952	20608	3300	5253	93	-22552	16320	-8512	4051	2408	207	-32768	-20864	-1504	4832	545	-1234	-11368	4488	19688	-16502	32767	-10171	-32768	-2080	14880	2080	3011	488	-28728	7256	19264	1317	-2591	-621	120	65	1
-14664	32767	32767	1488	3242	1926	-28664	11000	-11104	2423	2983	1435	-22320	13264	17856	6041	895	-608	-22064	-400	23208	-21216	32767	-17549	-32768	1744	10000	3024	3132	687	-28184	6480	20280	1578	-2867	-579	141	0	1
-27568	-32768	12208	2250	2540	861	-19248	-1376	-12128	118	3012	964	-18632	32767	-18992	-408	1896	-85	-30520	2288	32767	-16300	32767	-18274	-31096	10688	-2216	3161	3226	787	-20968	768	4160	2386	-2610	-143	138	0	1
-11384	32767	32767	1856	1062	904	-7968	-7096	-17240	1267	2487	-370	-120	3960	-19168	-5160	-564	808	-21128	3112	32767	-8368	32767	-13323	-32768	9408	1016	2020	3089	582	-25352	3712	-7944	2142	-1263	720	121	0	1
-23164	-20592	11748	1266	164	440	-12864	4264	-16064	220	2684	902	-13296	-30392	-17960	-3369	458	424	-19184	1632	28632	4975	32767	-18952	-29128	1016	9920	551	1937	164	-32632	-464	-14552	1074	-1742	1160	105	253	1
-11232	-3724	16000	653	-51	290	-23080	5536	-10816	-1972	1803	35	-25976	-13096	-13000	912	2060	-1311	-32768	1832	32767	5834	32767	-30758	-16712	5384	-10616	-1307	1720	332	-28400	-1208	-9864	-104	-2623	1264	125	253	1
-6904	-2096	14944	316	-185	127	-17904	256	-4640	-2191	1398	-263	-24232	9424	-6088	520	1863	126	-32768	32767	32767	1240	12282	-18452	-16168	14320	-16280	-136	1207	-347	-29008	-5280	-5176	-768	-3294	1238	155	253	1
-7644	-2900	14672	290	-184	115	-15968	-1624	-2136	-610	902	-116	-13512	2624	-2448	-616	1800	502	-15352	18448	32767	-13144	-24127	-1526	-17520	-2696	256	-260	138	318	-24920	-3224	-4200	-286	-3098	1345	151	254	1
-6452	-2148	14168	111	-101	-39	-18576	3496	-2608	685	552	81	-15944	-728	-944	-183	1772	792	-232	2144	17672	-2971	-31138	5365	-9656	-4456	1496	361	-186	-592	-24616	4552	-7504	-456	-2937	1520	129	253	1
-6424	-2396	14128	102	-86	-51	-17336	-1288	-2896	1342	517	140	-16936	-1624	-344	39	1913	1059	64	1776	11512	5493	-30246	5375	-7168	-1592	1192	1298	-1027	-760	-23312	-856	-7872	-569	-3203	1461	128	253	1
-6732	-3772	13196	164	106	-94	-17064	720	-3520	1334	412	39	-14232	-1928	-1288	-47	1856	442	-920	1208	10520	3785	-30467	598	-7272	5168	-440	1435	-1945	-204	-19112	-2120	-6664	-11	-2464	1551	142	253	1
-6928	-3600	13548	194	176	-52	-15112	2184	-3056	538	360	40	-16680	-1744	-912	-191	1970	282	-4200	320	13616	4890	-31224	-2181	-8504	6024	-904	572	-2657	-40	-16656	-1280	-6760	6	-2320	1263	107	253	1
-7424	-3600	13852	291	140	33	-14880	768	-3040	-1008	476	-70	-14808	-1456	224	-297	2020	134	-9144	2912	18688	9870	-32768	-1700	-7624	3568	-3224	-704	-3296	-209	-15216	-1120	-7440	-80	-2146	1219	111	244	1
-7100	-3484	13956	306	119	98	-15512	-1936	-1920	-1392	496	-111	-14528	-416	-1328	-514	2067	200	-13248	4824	22464	12418	-32768	505	-8944	2144	-4480	-1127	-3923	-525	-15376	-432	-7800	-159	-2129	1253	117	231	1
-7144	-2596	13908	225	100	69	-16536	-1184	-1144	-740	418	-81	-15168	544	256	-620	2067	442	-13960	3576	18000	16904	-32768	4993	-12560	-800	-1992	-1056	-4282	-631	-10568	1240	-8200	-649	-1974	1045	128	213	1
-6256	-2044	13968	222	160	22	-17576	-1480	-344	310	393	-18	-14808	-408	-248	-652	2083	423	-15608	3848	16624	19717	-32768	9599	-13992	-216	-2640	-1077	-4704	-607	-7568	-632	-9168	-1286	-1966	850	128	205	1
-6656	-1972	13808	245	201	-14	-16992	-600	-2024	1050	358	-1	-14704	-1624	832	-875	2101	308	-19424	2632	20328	19372	-32768	13142	-13336	1808	-4448	-1366	-5070	-564	-7352	-4248	-9680	-1937	-1898	551	120	197	1
-7192	-1852	12656	312	220	20	-15288	144	304	478	743	93	-15984	-4808	2904	-893	1947	200	-21816	408	24048	19967	-32768	16616	-15072	2416	-5968	-2157	-5476	-691	-5328	-7200	-10104	-2102	-1717	211	124	196	1
-6340	-2732	13464	412	226	115	-13432	-1792	2128	-597	921	-41	-16584	-7248	7512	-522	1984	88	-23488	-760	24968	22346	-32768	20307	-18624	-288	-7144	-2486	-5751	-1118	-4400	-8560	-10264	-1548	-1402	-63	135	198	1
-8036	-4516	14000	433	229	308	-15552	-6216	3912	-543	1312	-15	-17616	-5304	9480	-186	1948	4	-27776	-360	25856	20371	-32768	24037	-24344	-80	-8760	-2110	-5909	-1484	-4736	-5608	-8824	-751	-737	-198	145	187	1
-7344	-2836	14136	379	293	397	-16864	-2784	936	593	1456	148	-17920	-3688	7320	131	1913	148	-32768	-1504	28936	15787	-32768	28185	-27288	3712	-12240	-1920	-5910	-1684	-3792	-912	-7216	-277	-19	7	131	178	1
-7512	-2024	14288	323	324	383	-17320	1600	-2528	1023	1626	315	-15784	-624	1320	497	2006	140	-32768	-8064	29472	13253	-32768	30360	-30536	6168	-15448	-1769	-5733	-1963	-6328	4888	-2272	-662	50	447	136	169	1
-7640	-1180	14484	285	423	367	-17672	2632	-4824	462	1695	222	-15992	-672	-4168	127	1866	260	-32768	-14816	23144	15125	-32768	27744	-32768	8456	-17136	-1422	-5079	-2225	-15560	8768	4088	-1289	-78	1186	129	159	1
-7860	-1080	14248	262	466	369	-17232	128	-4120	-141	1782	140	-15984	-1640	-3552	-117	1570	151	-32768	-7184	10064	8182	-32768	19167	-28904	12896	-22688	-1265	-4535	-1766	-25624	9208	23176	-3042	-450	1265	134	128	1
-7156	-944	14448	371	623	486	-19920	-1808	-2264	-253	1831	147	-19144	432	216	-282	1209	-60	-32768	-25216	-10920	10497	-26900	6485	-19496	9960	-28552	-839	-3329	-899	-17336	-5584	32767	-4936	180	1164	142	99	1
-8316	-1640	14208	378	802	621	-19416	-216	-1592	-63	1992	262	-19216	-632	4632	-1076	881	-179	-32768	-32768	-29560	28256	-11896	-4549	-4288	6984	-32768	1519	-690	229	-10808	-2776	32767	-2743	-562	-717	139	113	1
-7652	-1168	14872	518	1136	649	-18304	1136	-1312	-187	2306	396	-17808	-4016	2432	-1340	669	-43	-32768	-16744	-32768	1449	5673	-5189	-2400	6400	-32768	1834	-225	386	-19064	-10896	21888	1095	431	-1901	118	103	1
-9220	-864	13896	775	1691	626	-21272	-1672	-2568	-75	2517	504	-19424	-11816	1536	-1206	693	239	-32768	-15464	5904	-24586	13036	-10688	-16400	16768	-20696	530	2551	1210	-12344	-4856	5232	3562	793	312	121	20	1
-10072	-2100	14028	1164	2479	913	-23992	-2664	-1488	50	2673	561	-21032	-7744	4672	-970	336	388	-9912	12424	20128	-12606	14402	-15777	-29752	-1368	32767	-1452	2065	-6	-9616	8240	29288	4359	22	374	117	0	1
-8088	-2944	15452	1559	3272	1411	-27640	936	1432	-363	2908	488	-24456	600	7232	-733	-114	546	-13296	18112	8152	-16260	32767	-10213	-32768	-11648	-88	-4785	1967	1488	-17512	20232	-23680	1733	2045	-106	137	0	1
-11128	-2660	15236	1706	4255	1933	-32264	1216	4504	-1083	2934	411	-27664	-672	13448	-483	-454	371	-27224	-13528	32767	-15173	32767	3266	-28864	192	-11920	-2682	2978	524	-32768	-3888	16304	-4545	8	1054	116	0	1
-12148	-2816	17716	2352	5801	2591	-32768	1048	13272	-2159	2912	638	-29488	-4440	21528	-700	-2511	415	-15672	-16936	32767	-10496	25139	-3991	-24456	-2464	-14472	-2915	2561	1699	-14952	-24336	-13792	-1945	862	804	104	0	1
-26692	-3552	32767	3725	7395	3776	-32768	-4640	3896	-3565	2798	647	-18568	7984	4272	-2049	-3128	362	-10592	1560	14768	-4174	21813	-2583	-11568	-544	-10048	-1046	2112	866	-7560	-16968	-18040	3748	303	766	98	0	1
-29036	-2864	32767	1846	8570	3726	-31304	-5544	2816	-3827	2727	605	-26936	4224	1704	-1696	-2158	502	-32424	2568	27168	-3253	11741	-3740	-14624	18024	-11768	1041	1645	1242	-19104	20456	-9968	3124	1316	58	104	0	1
-32368	-13816	32767	-99	8378	3990	-29280	-3736	-7376	-2939	3421	1087	-25072	-7656	-13888	-2411	-1550	-894	-9048	-7672	21864	-3628	4228	-557	-28712	6064	-10136	642	1485	1467	-25016	19096	-17560	-709	2103	-103	115	111	1
-10272	-18336	21308	-380	5495	3604	-24432	-4088	-7104	-1482	2810	771	-32768	-1000	-13080	-1344	-2438	-1402	-11648	4648	17152	-532	1407	-108	-16880	10464	-5320	-380	1179	454	-22608	1448	-9296	-2042	1649	165	118	189	1
-32768	-32768	32767	159	830	612	-18752	2976	-13768	-217	1888	317	-31336	-568	-13072	228	-2672	-1225	-6408	472	16232	-4	1716	-393	-16504	1328	-3624	-1815	743	155	-16568	1672	-3264	-1761	1531	-387	117	217	1
-7328	-24720	24860	1157	-1470	-1050	-17640	-2968	-688	-647	842	54	-30912	4256	-7120	781	-3449	-1252	-4584	-320	15600	1463	3972	-161	-18336	-5312	-3672	-14	610	334	-16752	-6784	-2208	-1173	1690	-864	117	218	1
5108	-6676	12360	-9	-1095	-1370	-11936	-504	696	-339	-255	-617	-24880	3296	-3944	701	-3573	-1201	-5656	-424	16024	2439	6488	391	-19408	-928	-3896	1204	501	565	-17616	-6960	232	-254	1816	-536	104	212	1
1260	-5660	17756	-1815	-953	-1418	-5432	768	-2520	-503	-1023	-426	-22352	1088	-4576	611	-3190	-1160	-7648	888	16064	2553	7062	825	-18088	560	-3008	1004	389	586	-17360	-5096	648	726	2112	-241	117	195	1
-4540	-7708	21652	-2029	-2043	-1335	-5256	-1832	-3224	-680	-1531	-967	-23448	-472	-10576	1093	-3061	-687	-7608	1200	15448	2173	5584	931	-16328	1672	-1240	792	328	422	-15504	-1072	272	1237	2029	-329	120	185	1
-3272	-5064	15868	-1716	-3005	-1274	-7704	-1400	-1424	54	-2223	-1665	-16904	6632	-6880	51	-2643	-810	-7760	1832	15008	1429	4697	621	-16520	1792	-776	646	324	429	-14392	400	512	1258	1918	-574	124	169	1
-4188	-2996	14124	-2125	-3261	-1426	-7928	3512	-1152	746	-2815	-1694	-12632	4104	-6152	-147	-2357	-971	-7800	2024	15080	852	3908	130	-16048	1808	376	1038	378	395	-15640	1752	-64	1273	1936	-679	121	157	1
-6876	-3888	16212	-2331	-3539	-1680	-8072	4088	-1672	377	-3201	-1772	-12376	1272	-6920	-481	-2069	-917	-7800	2296	15088	-84	3211	-788	-15448	2576	880	1529	458	413	-14624	3784	344	1006	1991	-610	119	166	1
-9760	-3116	20136	-2390	-4005	-1981	-9840	2992	-3392	126	-3675	-2033	-10592	-1176	-8432	-380	-1841	-835	-7832	1384	14968	-406	2619	-1409	-15528	1584	-584	1841	576	461	-14440	3992	-32	605	2025	-662	121	148	1
-10844	-1128	20352	-2706	-4446	-2313	-11368	3736	-2296	436	-4171	-2170	-9416	-1416	-9736	266	-1605	-663	-8224	1504	14824	-347	2049	-1509	-15832	2328	-1432	2183	732	421	-13776	4128	1440	503	2241	-736	119	150	1
-11108	-176	18848	-2894	-4583	-2534	-13088	4832	-2144	864	-4605	-2202	-6744	568	-10536	1019	-1409	-442	-7984	1280	14600	-294	1366	-1604	-16576	3344	-288	1938	821	412	-14408	5136	5256	472	2894	-764	122	150	1
-13012	608	21388	-2982	-4492	-2739	-15192	6264	-3520	1076	-5089	-2163	-5680	1792	-11656	1777	-1164	-144	-8336	1480	14752	-249	831	-2069	-16112	2728	-416	1501	953	386	-13648	3928	2928	814	3133	-723	126	150	1
-17060	2020	26180	-3140	-4546	-2941	-17592	7320	-5576	838	-5506	-2085	-5160	2880	-13320	2084	-914	90	-8392	1472	14648	-223	840	-2060	-14520	216	824	1325	1142	317	-18288	-480	-1496	-71	2112	-275	127	152	1
-18800	3084	26496	-3427	-4290	-2996	-23152	6920	-7200	439	-5858	-2028	-4520	4024	-12632	1629	-473	118	-7944	1392	14904	97	857	-2190	-15672	936	-224	1038	1141	340	-19976	-656	1672	-1042	1305	-206	127	145	1
-25196	704	30444	-3306	-3948	-3087	-27656	7176	-10736	521	-6041	-2032	-4792	4856	-9952	999	-54	81	-8064	1104	14680	463	1830	-2215	-18752	2272	-2040	371	1117	281	-16536	3832	3456	-488	1503	-507	129	143	1
-32768	-464	32767	-3153	-4070	-3548	-30496	5304	-16256	1038	-6164	-1985	-5912	4456	-4568	562	53	87	-7920	928	14536	590	2675	-2241	-18232	1136	-2248	78	1328	328	-16392	1760	592	322	1796	-536	127	145	1
-32768	6688	32767	-3071	-4339	-4192	-32720	6496	-20304	1425	-6038	-1386	-9704	-3960	1080	94	-489	-183	-8064	1776	14680	434	3955	-2805	-19096	944	-1224	83	1462	306	-18384	-520	-512	20	1749	-230	123	141	1
-32768	13436	23084	-2221	-4181	-4113	-31264	3848	-21808	1045	-5510	-683	-15424	-8040	6960	-548	-466	-760	-8544	1576	15016	-142	6176	-3061	-20352	344	-1088	-69	1596	257	-19408	208	2752	-144	1568	-13	129	141	1
-32768	20108	8648	-1069	-3706	-3126	-25424	5400	-27528	1243	-4432	-778	-24440	-4472	32240	718	7	-1253	-8136	1160	14736	-404	9423	-3695	-21640	600	-1088	-286	1782	333	-20008	-72	4336	274	1398	-29	148	145	1
-32768	32767	-10924	-2564	-2785	-1347	-14384	11848	-32768	-868	-2402	-562	-20928	-6480	32767	2449	-136	-844	-8304	568	14824	-863	13945	-4158	-21488	-2096	-944	-494	1927	337	-19960	1320	3104	654	1277	-171	165	146	1
-32768	32767	-32768	-2639	-594	394	6336	6024	-32768	-2498	656	-179	-22520	11360	32767	787	188	1292	-9296	0	14688	-2610	18799	-3865	-21544	-1448	-1184	-541	2228	294	-21240	6016	3288	590	1062	-412	181	151	1
-32768	28116	-13944	3003	832	2085	-13232	-5520	-30312	-1218	2579	322	-17384	11552	7536	102	623	1713	-9976	1056	15312	-6057	23136	-2655	-23192	2280	1808	-647	2552	188	-22192	9264	3808	654	618	-624	140	198	1
-19208	-21096	32767	3611	665	3256	-31976	-14136	24856	-946	2499	884	-12760	-2568	-1520	-3115	471	238	-9960	3296	15328	-10715	27876	-4989	-27616	2024	4656	-409	2705	248	-25528	6280	8392	437	-194	-620	106	208	1
-700	-13792	-14944	3626	3132	2318	-32768	8080	12160	3625	1840	-51	-16632	-9752	5016	-1626	-484	-537	-11120	4616	18248	-16687	32767	-9603	-32768	952	9048	642	2886	303	-29384	5984	18816	403	-1565	-544	113	191	1
-26072	23188	32767	2822	4574	464	-26992	20336	-13120	3105	2620	613	-29800	-25040	7496	2572	-165	-1959	-12856	5096	21184	-23270	32767	-16394	-32768	-2664	18080	2350	3110	350	-27872	5688	23680	1283	-3340	-438	114	1	1
-9940	23496	32767	644	3037	1431	-26536	14424	-5568	1205	3154	1621	-24360	17360	-3832	2813	1576	-1158	-30000	2816	32767	-28784	32767	-23994	-32328	6824	2760	3118	3248	727	-19424	-3352	12480	1926	-3220	-195	122	0	1
-32768	-32768	1112	1177	2318	402	-11008	-10032	-18512	-1424	3050	677	-17048	32767	-16224	-1457	1332	9	-28880	6184	32767	-14197	32767	-20716	-32312	9736	-904	2894	3384	684	-22576	3312	2864	2658	-2156	379	145	0	1
-9564	25164	32767	745	1200	706	-10304	896	-16984	1450	2072	-276	1240	-12120	-19280	-5432	-224	1516	-28184	8616	32767	-7732	32767	-16522	-32520	6096	5504	1342	2714	205	-28120	1032	-13680	1779	-1127	977	138	214	1
-10528	-328	19724	963	74	292	-18384	-304	-11608	20	2375	829	-21464	-32768	-19104	-1119	1204	99	-6032	-12832	11728	-14806	32767	-23221	-24168	7992	2784	-766	2097	329	-32392	-1768	-11216	458	-2036	1476	115	253	1
-12040	-7372	14136	445	-96	99	-19752	1120	-7568	-843	1458	-16	-23480	-2520	-12000	2135	2351	-740	-32768	18656	32767	-9032	14640	-25192	-15744	11936	-25680	-1537	1749	663	-27920	-3288	-7256	-577	-2894	1337	140	253	1
-8260	-3688	14624	233	-111	35	-17832	312	-5112	-610	1057	124	-22280	10952	-4072	607	1998	277	-13256	21920	32767	3672	-19944	-5815	-20248	-7032	1440	-70	973	-282	-29320	-1936	-4016	-602	-3151	1503	136	253	1
-6568	-2104	14444	72	-72	-25	-16792	6304	-2752	-542	664	-276	-14184	928	-640	-400	1815	686	3704	13984	9656	7147	-20665	5599	-15432	-7760	4936	885	206	-500	-26120	-1856	-5168	-420	-2958	1744	135	253	1
-6628	-2376	14028	-5	35	-94	-17984	1192	-2368	-235	614	247	-16112	-768	-336	-277	1984	1062	1296	8176	11008	587	-18557	7277	-7352	1376	1416	1602	-808	-348	-25456	-2800	-4504	-924	-3164	1522	131	253	1
-6696	-3696	13444	45	124	-106	-17336	-1208	-1880	35	558	24	-15192	-64	288	-217	2001	964	-1960	2704	18280	-1384	-21620	5801	-6160	5216	-1936	1003	-1685	171	-19520	-4280	-4584	-219	-2556	1473	123	253	1
-6724	-3752	13736	202	178	-80	-15712	-2752	-2112	743	451	65	-15040	336	-400	-490	2046	379	-3280	64	19632	6066	-26538	5041	-7752	5536	-1232	-74	-2218	20	-16680	-2888	-4568	-71	-2452	1461	124	254	1
-6348	-4504	12960	408	268	21	-15248	-2800	-1408	1059	412	121	-15464	-2416	40	-734	2106	184	-5656	2208	18856	11012	-30896	4596	-8408	2176	-1416	-989	-2950	-189	-15408	-1704	-6056	-162	-2289	1215	106	249	1
-7608	-3660	13584	580	275	103	-15024	64	-1112	444	583	76	-14240	-2448	1392	-539	2156	176	-7544	2696	17440	11888	-32768	5297	-8240	424	-1960	-1147	-3467	-280	-13200	-624	-7456	-159	-2091	1128	119	232	1
-7828	-2964	14300	546	238	156	-14784	-384	-736	-650	781	56	-13728	-2728	968	-372	2002	198	-8640	2392	15304	13762	-32768	7665	-10248	-632	-2088	-1142	-3950	-305	-12960	-136	-8000	-184	-2032	1129	107	218	1
-7740	-2720	14616	390	150	160	-15392	-2016	176	-679	873	43	-14728	-1776	1920	-411	1986	405	-12320	1904	18056	14691	-32768	10225	-11064	792	-2976	-1303	-4424	-305	-8272	-640	-9128	-568	-1752	966	128	210	1
-7888	-1996	15028	177	-8	111	-15568	-1920	480	-624	875	52	-14320	-2856	3872	-623	2253	251	-15600	-192	21744	16800	-32768	12621	-11096	2368	-4496	-1901	-4872	-373	-5456	-2192	-9776	-1177	-1716	624	114	201	1
-7856	-1756	15104	156	-47	99	-15096	-3016	-1304	871	996	220	-14320	-3720	6480	-752	2784	187	-21608	7520	25808	19973	-32768	14250	-13000	1576	-4352	-3015	-5327	-726	-5336	-4680	-11440	-1709	-1554	343	122	191	1
-4756	-6500	10212	350	21	202	-4096	-6280	-10688	1927	-1303	-940	-16120	-888	512	-245	2481	16	-16704	-5736	16136	27422	-32768	20074	-16136	-1184	-5528	-3767	-5541	-1399	-5424	-5800	-12760	-1753	-1142	208	127	172	1
-6968	-2260	13816	312	101	309	-13080	2336	-4632	1037	967	-229	-18712	-56	-3856	-30	1782	39	-22480	-4592	19600	26404	-32768	19787	-17496	-1592	-5552	-3784	-5578	-1566	-6728	-6704	-11624	-1617	-814	82	131	155	1
-7448	-1716	13904	356	157	365	-14528	-3928	-2920	-471	1105	-257	-16480	-3328	-1400	22	1462	61	-28904	-4384	31216	21081	-32768	19168	-27536	3272	-12128	-1922	-5674	-1749	-6680	-6544	-5112	-1363	-603	13	134	156	1
-7584	-2104	13716	336	198	382	-17960	-1320	-4352	-2	1454	225	-15080	-5768	-824	-197	1409	120	-32768	-2048	32767	19106	-32768	21978	-32768	4424	-15416	-1702	-5628	-2011	-6888	-2416	1696	-1383	-805	88	133	149	1
-7568	-1852	13948	368	261	359	-16960	-1560	-2952	-90	1299	-14	-14744	-1648	-3488	-227	1266	247	-32768	-10192	31592	16872	-32768	23851	-32128	8736	-17192	-839	-5198	-2306	-13064	5704	7344	-962	-1091	484	132	140	1
-8216	-2128	14212	408	301	428	-17120	-792	-2272	-13	1486	137	-16072	-1024	-728	-154	1439	196	-32768	-11072	29912	16400	-32768	23678	-28616	9104	-17792	-442	-4662	-2225	-21288	8792	11232	-875	-750	992	134	145	1
-7740	-1288	13924	415	411	515	-18040	-1960	-2264	-157	1652	173	-19736	-4416	2832	-423	1342	131	-32768	-18216	5552	12655	-32768	8989	-23360	9600	-21064	593	-3925	-1512	-17560	336	20512	-3238	460	1106	134	142	1
-8116	-2316	14076	487	654	600	-22640	32	-1688	-295	1845	318	-21376	-5096	2704	-706	1033	98	-32768	-30792	-15536	19640	-28564	-2076	-14872	11520	-26296	1931	-2672	-469	-9696	-5688	32767	-2242	-72	121	133	128	1
-7452	-1048	14560	550	1003	738	-20128	1016	-1624	-255	2058	391	-19792	-1640	3288	-818	866	232	-32768	-31832	-32768	17993	-11234	-9588	-6336	11344	-28024	2411	-31	641	-16560	-3256	32767	-323	-112	-1100	131	131	1
-8172	-748	14592	772	1565	754	-20608	1368	-2416	-140	2290	538	-18624	-1528	3064	-758	798	300	-32768	-16680	-15160	-12528	7144	-8780	-9888	13872	-26664	561	1702	810	-16552	-3376	15048	1579	464	-580	134	100	1
-9160	-136	14148	1133	2252	745	-21888	104	-1752	33	2506	657	-20072	-6000	3904	-1027	734	336	-22472	-11760	-16808	-22049	20374	-14150	-25424	14512	6272	-834	2292	779	-14888	-3480	11320	2605	-49	152	122	1	1
-9224	-1260	14700	1446	3044	944	-25744	488	472	-31	2648	672	-22968	-5248	4416	-953	424	440	-96	8600	20968	-23211	32111	-9953	-32768	-15712	20656	-3217	1999	290	-21952	10792	32767	4311	345	-18	117	0	1
-9500	-3024	17180	1572	3854	1316	-30704	-64	3648	-570	2788	682	-26704	-4992	7120	-423	-2	545	-29328	-11632	32767	-18513	32767	-563	-26680	-5544	-12384	-2329	2938	1498	-32768	21928	1704	396	1853	861	121	0	1
-11056	-3140	15372	1904	4998	1960	-32768	-600	7840	-1055	2782	750	-28952	-7672	15408	-385	-1035	640	-18504	-11696	32767	-12499	25930	-747	-28152	2752	-11032	-1314	3335	1114	-17544	-19440	-12552	-4004	271	366	113	0	1
-19124	-2524	31092	3347	6905	2926	-32768	-912	9664	-2469	2854	875	-27744	-2640	22216	-1157	-3545	615	-5472	-5048	11472	-5660	23905	1046	-10640	-2672	-11808	-2016	2538	1202	-7648	-26664	-24064	2022	480	1311	99	0	1
-28912	-32	30608	3268	7921	3610	-30688	-7304	5144	-3876	2853	904	-17640	1968	-5368	-1681	-2427	428	-13776	-3784	20344	-2726	20873	-4064	-8872	10576	-8392	-124	1828	760	-5968	936	-7976	3769	1038	557	100	0	1
-21624	-4636	32767	2301	8499	3637	-29816	-7832	-5280	-3024	3442	998	-24408	128	-2248	-645	-2022	-112	-23976	12592	21824	-6583	5919	-440	-27824	11536	-12320	823	1720	1797	-32768	28000	-17664	1965	1796	260	120	11	1
-27704	-15936	32767	-9	6014	3528	-28416	-3560	-4312	-1746	2992	1316	-28584	-4776	-12376	-1551	-1923	-1133	-13416	3608	18456	-1512	2017	-1498	-23296	5384	-8248	-542	1481	719	-22704	4368	-13040	-1841	1921	-551	121	138	1
-32768	-20164	32767	1491	2532	2453	-20464	-1856	-14304	121	2389	722	-29552	-2728	-13512	-123	-2471	-1377	-6328	-4912	18536	-1427	392	-492	-13640	7936	-6136	-1595	1015	339	-17888	1888	-6984	-1647	1469	287	117	131	1
-16940	-32768	32767	431	-377	-472	-21256	1048	-4128	-79	1204	523	-31576	1272	-10344	883	-2997	-1126	-7496	2368	15912	-494	-145	-57	-17592	-3200	-3064	-968	715	39	-16168	1376	-1416	-1409	1687	-563	110	138	1
-2220	-16796	19868	341	-1107	-1414	-17728	-1424	2048	-293	188	233	-27936	3200	-5728	1067	-3558	-997	-6504	-520	16064	265	140	61	-18512	-3832	-2872	-578	719	112	-16208	-4072	288	-1062	1785	-668	112	145	1
1264	-8600	19760	-475	-1286	-1469	-10112	-1304	-1496	-418	-630	-263	-24856	2680	-4256	786	-3635	-1121	-5256	64	14848	852	991	395	-18808	848	-2336	1119	626	525	-17408	-5264	16	-88	2017	-376	114	121	1
-2272	-6652	23128	-1215	-2025	-1301	-6544	-1664	-2424	-437	-1430	-512	-23328	1968	-4608	759	-3279	-771	-3712	1560	14192	360	2891	272	-16952	584	600	713	460	377	-17352	-2872	664	842	2095	-183	118	142	1
-5352	-5492	22904	-1640	-3204	-1228	-8112	-232	-3640	-316	-2012	-1061	-19608	3256	-4632	394	-2835	-600	-5552	1584	14520	73	5454	-180	-16456	288	-920	582	393	334	-14752	592	2304	1181	2015	-308	116	141	1
-4852	-4228	16416	-1970	-3953	-1235	-8816	192	-2336	-154	-2690	-1285	-16248	2888	-6576	217	-2513	-951	-7960	2000	15640	-431	6473	-94	-17376	1056	-1448	1206	477	397	-14960	704	1128	1203	2021	-574	124	144	1
-5748	-4168	12436	-2256	-4087	-1376	-9240	1920	-504	199	-3296	-1438	-16056	112	-7488	101	-2235	-899	-8336	1072	15816	-148	5442	-358	-15760	1720	-864	1541	505	420	-15464	-536	304	1209	2058	-656	125	148	1
-9308	-5840	15148	-2211	-4141	-1651	-9952	2072	-2560	6	-3749	-1612	-13024	-1336	-8544	-137	-1891	-752	-8336	1200	15664	15	4255	-850	-15544	1464	8	1767	505	453	-14032	720	-496	1227	2076	-679	127	147	1
-13572	-5700	20164	-2196	-4550	-2097	-11272	2088	-4456	308	-4180	-1776	-8992	-2456	-9408	185	-1661	-660	-8072	1120	14976	41	2952	-1115	-16184	3048	-632	1824	548	482	-15512	2672	-568	1093	2159	-802	124	147	1
-14096	-3112	18216	-2557	-4831	-2564	-12664	2920	-2704	841	-4597	-1812	-7816	-1544	-10096	1008	-1637	-573	-7744	1240	14960	-330	2194	-1308	-16056	3904	-792	1715	623	451	-14520	5688	576	887	2189	-837	122	137	1
-14716	-2108	16680	-2716	-4686	-2874	-14776	3760	-3320	1312	-4996	-1806	-4576	1136	-10856	2040	-1409	-288	-7800	808	14776	-452	1843	-1672	-16224	3696	-592	1422	695	379	-13632	6216	4664	685	2508	-741	127	145	1
-17756	-1144	21256	-2715	-4512	-3065	-16392	6016	-5984	1307	-5357	-1807	-4208	3976	-11256	2687	-1283	11	-7672	1224	14488	-216	1638	-2063	-16328	1048	656	1393	870	340	-13232	3384	6736	146	2973	-491	128	143	1
-22204	-1732	26192	-2759	-4509	-3313	-20000	6336	-7840	911	-5622	-1780	-4640	5752	-10392	2380	-1022	164	-7520	1320	14592	190	1744	-2535	-15536	192	1744	1440	1043	394	-19568	1504	2000	-189	2491	-285	129	147	1
-25968	-2924	27948	-2799	-4417	-3720	-23968	5488	-9224	801	-5801	-1789	-4768	6512	-8256	1425	-600	191	-7488	1584	14568	362	2391	-2874	-16112	2304	864	1129	1161	413	-20376	2704	1792	-311	1542	-439	127	144	1
-31284	-3772	31640	-2742	-4282	-4206	-28088	3056	-12440	1084	-5980	-1704	-4216	5816	-4432	526	-294	101	-8208	592	15000	318	2629	-2892	-17800	3952	-1904	57	1109	287	-16128	4728	1592	-379	1694	-447	126	137	1
-32768	1700	32767	-2626	-4292	-4496	-32752	1208	-16136	1328	-5934	-1414	-6808	-1176	-200	-181	-395	-126	-8480	736	14864	489	3086	-2829	-18120	1408	-3096	-181	1387	312	-15984	1192	-1232	95	1795	-419	126	138	1
-32768	9572	25540	-2335	-4143	-4181	-31128	1408	-19944	1636	-5665	-1014	-13768	-5520	2016	-478	-445	-475	-7816	368	14824	72	4036	-3431	-19528	896	-2288	116	1529	306	-17352	-280	-488	112	1793	-206	128	139	1
-32768	13540	13284	-1903	-3514	-3314	-26968	3872	-23080	1516	-4994	-716	-24440	-3344	12616	-20	-618	-747	-7840	336	14952	-220	6535	-3794	-21192	768	-784	252	1720	248	-19648	-1280	2976	399	1647	-110	141	142	1
-32768	23920	2680	-1791	-2724	-2360	-20328	5736	-32768	657	-3850	-749	-21232	-352	32767	1545	-195	-944	-7280	1272	14712	-599	10112	-4933	-21064	104	-328	170	1841	413	-20088	-1952	5952	844	1421	-89	156	143	1
-32768	32767	-14488	-3320	-1909	-742	-9752	9656	-32768	-1752	-1428	-626	-11992	-8248	32767	1471	-307	-196	-8400	880	14640	-1190	15101	-5579	-22760	-552	-864	-73	2063	355	-20848	4744	1912	1196	1340	-224	163	149	1
-32768	32767	-32248	-1411	-156	735	-2336	1312	-29680	-2931	1147	-186	-22960	8184	25464	368	150	1340	-9016	400	14448	-3272	20927	-5272	-23200	840	-216	-315	2357	253	-21960	9952	960	909	1080	-464	155	181	1
-32768	19760	-4928	2926	559	2150	-14648	-9280	-26536	-330	2572	231	-13544	3256	7920	-618	432	681	-10600	1288	15008	-7813	25684	-4920	-24336	1696	2096	-444	2572	194	-22560	8048	3168	720	575	-644	132	237	1
-20248	2388	7960	2428	961	2354	-18704	-2128	-3176	880	3045	1177	-6368	-5544	-360	-2091	574	-188	-11744	2568	15232	-13320	30370	-7002	-26176	-456	4448	-114	2678	251	-23288	2328	8704	532	-75	-758	118	231	1
26516	-32768	7960	2618	2103	2089	-32768	-8376	32767	2779	1483	99	-3936	-8064	-19736	-1005	934	-855	-11880	3064	16072	-19321	32767	-10682	-31016	-1272	10184	986	2859	344	-27600	3208	17768	588	-1177	-810	123	178	1
-18564	1140	16260	3248	5374	1156	-26576	18896	-15408	3176	2248	-117	-32768	-1568	18064	3235	153	-713	-12976	2760	17216	-20659	32767	-11605	-32768	-1248	17536	2423	3057	316	-25968	5728	22672	1338	-2883	-452	106	1	1
-20432	32767	32767	1564	4078	1708	-29368	13256	-10752	452	3133	1532	-24840	6384	14024	2694	1164	-1416	-32768	2240	32767	-29118	32767	-21850	-32640	8784	1760	3163	3321	729	-23464	-480	18912	2842	-3811	-11	132	0	1
-30184	-32768	32767	1667	3121	941	-19256	-704	-14480	-638	2945	570	-20680	32456	-8928	-1250	1676	-597	-32768	7496	32767	-22830	32767	-20514	-32768	11560	768	2615	3331	844	-24584	5240	2064	2876	-2107	216	146	0	1
-13952	25532	32767	323	1426	494	-13616	-3160	-15304	212	2681	-254	-3424	-6104	-22544	-5241	-193	1087	-31976	3568	32767	-5856	32767	-15276	-32768	4264	8824	692	2535	89	-28912	3480	-13744	1845	-1066	758	130	236	1
-18112	-11760	17524	902	501	265	-14984	-736	-12616	429	2543	643	-12664	-28368	-15872	-1982	832	336	-32768	-13616	12392	-23930	32767	-27333	-23824	9496	-9160	-453	2464	436	-32768	-1744	-13040	122	-2122	1362	112	253	1
-11424	-6100	14688	679	180	176	-16096	1704	-9856	-46	1626	-61	-20480	-12480	-13640	1302	2017	-920	-32768	24728	32767	1122	2755	-14838	-20920	6184	-10840	-411	1768	-109	-31928	-4280	-6560	-1042	-3015	1393	144	253	1
-7760	-3384	14616	513	154	132	-21976	1816	-6088	-169	1254	-49	-25112	7680	-6592	1182	1959	-25	-7504	20040	26032	-1641	-17326	488	-23880	-6680	4040	633	987	-41	-28968	-5352	-6040	-786	-3086	1657	147	253	1
-6972	-2396	14444	346	233	93	-16928	5368	-4008	-330	956	-257	-17360	6984	-2072	-173	1929	528	2344	8864	13048	-1181	-16358	7670	-12928	-2592	1792	948	106	-265	-27424	-3504	-6944	-138	-3032	1834	129	253	1
-6808	-2496	14044	194	363	5	-16872	3880	-2984	-508	734	-3	-15464	2008	-912	-665	1986	828	-1336	4768	18760	-550	-17880	8020	-7136	4056	-1624	1105	-833	-268	-24336	-1944	-5760	-89	-2987	1938	130	253	1
-7524	-3316	13808	155	386	-67	-17024	112	-2408	-342	680	-155	-15832	-120	-616	-474	2044	1034	-2936	584	21440	1097	-24607	5498	-6472	5376	-2688	495	-1614	49	-20376	-2552	-6392	-360	-3170	1712	128	253	1
-7920	-3492	13708	183	316	-103	-16352	-2648	-3664	33	603	-137	-14240	-1784	-1064	-543	2103	610	-2880	-312	18232	7939	-30208	4021	-6576	5304	-2512	376	-1703	24	-19312	-3056	-7608	-424	-2515	1743	136	253	1
-8128	-4056	13704	174	225	-91	-15640	-3984	-2360	536	591	35	-14800	-3232	-2600	-813	2280	249	-4976	2448	16072	10231	-32768	3172	-8112	1616	-1088	-1066	-2983	-312	-14696	-1976	-6512	-364	-2365	1544	120	253	1
-8572	-3800	14356	78	110	-33	-15408	-3944	-2816	570	588	33	-14488	-4464	-2592	-767	2535	181	-7504	2600	16232	10679	-32768	4168	-8232	1464	-1376	-1132	-3095	-316	-16400	-1776	-7752	-256	-2185	1442	107	232	1
-8128	-3376	13900	34	-31	-4	-15224	-664	-1976	37	677	166	-12328	-4360	-1392	-161	2578	267	-9984	2360	17024	13429	-32768	7035	-10464	-968	-2864	-1377	-4027	-432	-11760	-200	-8488	-228	-2038	1373	125	209	1
-7748	-2884	13392	36	-107	17	-15400	-232	-1728	-374	599	48	-13760	-2656	840	201	2620	369	-12216	1720	17952	15235	-32768	9882	-11160	792	-3400	-1439	-4446	-516	-10880	-2552	-8696	-558	-1888	1103	128	197	1
-6896	-2992	13188	119	-76	60	-15720	-1280	-152	-333	659	15	-15512	-1128	2752	-316	2590	378	-15032	-152	20976	17919	-32768	12487	-11424	1112	-4960	-2191	-4998	-576	-6168	-3952	-10472	-1201	-1787	780	123	186	1
-6824	-3200	13404	251	-6	143	-16632	-1544	-840	141	739	14	-16160	-3216	4696	-867	2657	315	-17200	-984	22752	21133	-32768	15410	-12464	-136	-5088	-2663	-5344	-1021	-4864	-5664	-11768	-1672	-1714	464	121	186	1
-7124	-2980	13408	354	50	223	-16352	-504	-384	320	878	23	-15816	-504	2264	-397	2607	115	-16256	-4216	18048	24239	-32768	17556	-17448	-1032	-4608	-2815	-5738	-1444	-5328	-5784	-13128	-1806	-1458	213	126	180	1
-7536	-2640	13988	400	69	288	-14880	232	744	226	1071	-5	-18800	1952	-744	526	2000	-66	-19968	-7472	23192	28001	-32768	17441	-25008	-1200	-9064	-2163	-5946	-1652	-6736	-6440	-11800	-1778	-1204	-28	128	170	1
-7228	-2960	13816	392	67	331	-15544	-1736	-96	356	1243	3	-17008	-3768	3840	316	1732	40	-32352	-2960	32767	28712	-32768	17331	-25568	-512	-9848	-1898	-5931	-1696	-6080	-7544	-7264	-1388	-867	-35	135	155	1
-7332	-3056	14032	383	70	342	-17512	-872	-2864	527	1374	42	-17552	-6560	2432	-244	1543	60	-32768	2288	32767	20523	-32768	19695	-32120	7208	-15896	-890	-6006	-1568	-5992	-4296	192	-1389	-994	233	129	137	1
-7944	-2244	13912	313	186	396	-17304	192	-2816	255	1534	78	-16392	-2048	-2376	-39	1229	29	-32768	-8032	28552	19292	-32768	24241	-30976	8224	-19800	-783	-5581	-1826	-9128	3824	2184	-1086	-811	528	127	129	1
-8300	-2608	13580	342	320	503	-18248	-1136	-2320	-52	1675	94	-17904	-1456	-1576	129	1286	56	-32768	-16440	18032	19130	-32768	22981	-28536	9280	-20128	-213	-4925	-1811	-17368	6792	6752	-850	-74	777	134	142	1
-7880	-2096	14304	467	549	579	-21680	528	-2136	39	1824	122	-20920	-472	3800	-428	1056	-39	-32768	-21728	8224	13201	-32768	13901	-28144	9336	-24088	437	-4222	-1280	-16936	4704	22536	-1575	11	897	136	148	1
-7768	-1860	14204	507	887	616	-20824	1104	-1904	-38	2082	311	-20032	416	4816	-862	792	-37	-32768	-32208	-12392	12230	-27500	679	-17336	11768	-29944	1329	-2963	-636	-15024	-248	32767	-1979	508	1271	137	139	1
-8584	-2400	14172	663	1420	705	-21784	16	-1624	-185	2314	318	-19688	-1496	3664	-1175	849	25	-32768	-32768	-32768	16607	-11520	-11221	-4512	10264	-32768	2012	-262	636	-17000	1824	32767	-839	-52	157	131	137	1
-8720	-1372	14100	926	2100	802	-21504	1008	-1184	-101	2543	389	-19344	-5416	4680	-1321	766	136	-32768	-18920	-24120	-6846	8921	-12461	-8088	14720	-29552	617	1753	938	-18640	-3848	15056	1105	684	-1214	129	1	1
-9052	-2028	14888	1262	2819	884	-22912	736	1056	-70	2799	525	-20840	-7672	6248	-1257	519	207	-11776	10392	9568	-28071	19654	-12319	-23048	8312	5672	-561	2607	587	-10896	-5360	8288	2428	740	-331	125	8	1
-9332	-3100	15940	1490	3520	1208	-27064	-488	2832	-205	2983	472	-22912	-4664	9680	-1178	107	534	4224	19344	16096	-27405	32767	-11534	-32768	-15160	21072	-4018	1516	520	-10512	7544	10936	3217	2126	-401	119	0	1
-10336	-3388	15864	1682	4865	1907	-32768	160	7664	-994	3105	346	-28440	-3632	13728	-400	-652	465	-29832	-21520	32767	-22486	32767	-1089	-28072	-8072	-16232	-3284	2773	1563	-32768	26048	23720	-866	487	1392	112	0	1
-13552	-3260	21212	2594	6747	2896	-32768	-1168	14256	-2385	3111	600	-28272	-4320	21288	-441	-2658	571	-21008	-18256	32767	-11436	27599	-4902	-32112	-2336	-12320	-1678	3295	1163	-16152	-19816	-2472	-4696	348	-298	96	0	1
-30388	-9472	32767	3058	8473	3522	-32768	-6504	3096	-3647	2996	575	-21672	2120	4952	-1704	-3434	257	-11368	12688	32767	-7938	21283	113	-13144	5608	-9232	-940	2840	1038	-9984	-32312	-21224	1914	314	1384	104	0	1
-27900	532	32767	2208	9236	3563	-30920	-5856	-7584	-2172	3715	709	-27624	-1400	-1656	-1539	-1882	271	-20976	-1912	25216	-5934	10046	-1841	-10032	14664	-12496	89	2144	1495	-7208	8712	-18216	5215	726	666	103	0	1
-32768	-12760	32767	-354	8966	3593	-31656	1544	-4488	-2176	3171	1327	-28408	-7624	-17000	-2165	-1685	-835	-13728	-1112	21368	-1894	5149	-1949	-21864	5104	-10440	121	1695	1086	-24816	31672	-19736	977	1994	180	121	253	1
-32768	-2388	21264	-1518	5176	2915	-23352	-840	-9416	-1091	2466	1067	-32768	-352	-13848	130	-2721	-1252	-9680	1016	17472	-597	2805	-1192	-22248	6544	-7808	614	1347	746	-25680	-1072	-13296	-2534	2017	-278	121	253	1
-32768	-32768	32767	-1195	93	-1172	-19224	4888	-9616	-636	1723	853	-32280	128	-12440	1149	-2869	-1148	-7776	504	16296	319	2088	-586	-18096	2264	-4800	-800	964	193	-20568	-6408	-5032	-1704	1632	-384	119	253	1
-3044	-21544	17852	851	-1971	-2242	-18376	-9016	896	-1231	796	545	-30864	4056	-5072	812	-3735	-1058	-6600	0	15888	1143	2272	9	-17968	-3992	-4200	143	697	245	-15712	-5184	-296	-799	1742	-620	131	253	1
5928	-4820	9740	1055	-1596	-1776	-12704	-2832	632	-79	-745	-690	-26296	2640	-3344	553	-3914	-1153	-6104	-32	15120	2026	2828	717	-18296	-2000	-3224	1283	574	545	-15552	-6696	856	149	1958	-722	75	253	1
2356	-2172	16040	-109	-1582	-1359	-4992	1120	-3048	502	-1431	-265	-25960	-4288	-11808	754	-3790	-800	-5872	1296	15016	1798	3443	1155	-18648	1360	-1616	1451	601	636	-17008	-2600	-296	1068	2227	-482	113	253	1
-2328	-2908	18572	-951	-2396	-969	-6952	-800	-3560	42	-1884	-430	-19592	200	-6792	945	-3035	-933	-10320	1336	15176	805	3289	772	-18456	1632	-1480	1451	598	630	-16512	1896	-704	1317	2210	-459	118	253	1
-3848	-3824	15920	-1140	-3168	-640	-7792	-904	-2968	316	-2579	-1008	-18056	4232	-6032	1018	-2785	-752	-8472	2408	15272	-109	3420	282	-15680	3984	328	976	672	307	-14176	4224	336	1276	2089	-447	122	233	1
-6800	-4772	16288	-1455	-3677	-634	-6648	2096	-2648	398	-3108	-1245	-13816	3712	-7840	564	-2569	-652	-7712	2240	15104	-245	2785	-152	-15400	1560	1008	1448	872	350	-14000	4488	360	1035	2085	-656	120	216	1
-10208	-6804	17492	-1802	-4233	-1038	-7000	4416	-3600	170	-3515	-1318	-13264	2072	-8736	-129	-2221	-731	-7808	2360	15032	-400	2067	-896	-14928	2736	1280	2039	988	443	-13824	3176	1480	647	2008	-722	126	216	1
-11392	-7672	14724	-1910	-4676	-1641	-8640	3104	-3088	-162	-3961	-1432	-9832	-64	-9816	55	-1902	-694	-7576	1216	15120	-712	1455	-1618	-16040	2520	248	2079	939	480	-14576	3304	1080	434	1963	-764	127	199	1
-12008	-6820	12600	-1843	-4749	-2159	-10104	1792	-2208	83	-4442	-1676	-7128	-1384	-10520	653	-1657	-532	-7416	1616	14928	-666	1334	-1860	-16816	4000	-120	1628	800	383	-15472	4664	3576	639	2303	-663	126	179	1
-14644	-5456	16560	-2099	-4668	-2681	-11032	3520	-4096	402	-4826	-1761	-5032	-256	-11664	1406	-1466	-212	-7632	1080	14512	-490	1193	-2000	-16672	4624	-480	756	783	297	-14608	5416	5864	694	2900	-571	124	185	1
-17760	-5128	20740	-2202	-4852	-3145	-13512	2840	-5528	694	-5263	-1728	-4392	1960	-11664	1887	-1134	49	-7896	1288	14632	-428	1151	-2033	-17168	1520	-752	279	835	209	-15136	3672	304	834	2789	-544	126	168	1
-20716	-2896	23920	-2254	-4966	-3408	-17720	2600	-6688	1035	-5762	-1776	-4504	3752	-12928	1817	-740	131	-7320	1200	14608	135	1842	-2601	-15584	-520	-1640	479	891	272	-18280	-376	-3096	123	2071	-330	128	148	1
-25996	-3760	27044	-2375	-5045	-3639	-21968	3288	-8528	1432	-6152	-1716	-4776	4480	-12840	1188	-196	142	-7960	1008	14992	246	2100	-2662	-16120	1904	-2128	844	927	350	-17096	-544	720	-401	1405	-562	127	137	1
-32768	-7184	27356	-2108	-5013	-4045	-26960	2384	-11728	1841	-6421	-1555	-4536	3840	-11352	603	316	-20	-8616	1032	14816	219	2216	-2756	-17760	4448	-2936	331	917	343	-15712	4008	136	-18	1868	-422	128	144	1
-32768	-5588	28256	-1663	-4707	-4558	-32768	1904	-15784	2175	-6523	-1198	-4032	-1880	-7576	626	512	-229	-8208	776	14200	408	2602	-2823	-16928	1848	-2240	35	1237	345	-15800	2832	368	192	1867	-274	128	177	1
-32768	1152	31444	-1729	-4458	-4849	-32768	1968	-22408	2292	-6316	-657	-8760	-7760	-2288	696	186	-548	-7368	512	14792	-255	3877	-2947	-19040	216	-736	-2	1364	278	-19944	2152	2224	-101	1645	-326	127	184	1
-32768	5744	19336	-1411	-4365	-4575	-31616	488	-24440	1984	-5587	-225	-24992	-7376	11576	1466	-863	-1026	-7456	1016	14744	-590	6264	-3848	-21232	1320	152	-5	1652	335	-20728	792	4984	261	1412	-266	129	183	1
-32768	25492	-2324	-1075	-3567	-3225	-21784	4192	-32768	1443	-4447	-573	-32768	-1160	32767	3732	-529	-1780	-7816	1288	15056	-623	6814	-4051	-21784	736	-584	-118	1849	403	-19960	0	5072	751	1356	-145	163	188	1
-32768	32767	-18708	-4033	-2347	-823	-9648	10280	-32768	-1731	-1921	-818	-16512	8536	32767	2280	-309	310	-8328	712	14168	-880	15027	-5797	-21288	-744	-1464	-162	2087	393	-19216	2704	2256	1064	1308	-197	191	173	1
-32768	32767	-32768	-1813	-562	1366	136	-1024	-32768	-3731	1217	-190	-20280	13224	32552	306	365	2261	-10232	-192	14616	-3051	20033	-4961	-22264	840	-808	-222	2374	306	-20608	8864	1864	926	1148	-464	169	190	1
-32768	23108	-6516	2922	664	3509	-15648	-7824	-28768	-988	2769	306	-16840	7280	4528	-1310	408	876	-9824	1648	15032	-8037	24316	-4324	-25288	2168	2000	-379	2605	253	-23488	8264	4384	782	639	-709	130	202	1
-32436	-20312	21380	2558	755	3328	-27968	-5472	21928	-968	2769	970	-10432	-4720	1208	-3959	-50	-289	-11096	3528	16944	-14139	29970	-6873	-28352	336	5888	82	2743	345	-25280	3520	10152	638	-163	-686	112	201	1
-5192	-21852	-13000	1666	4121	1319	-32768	12568	12288	3140	2201	186	-6240	-7560	-12592	-859	626	-691	-11432	3288	15984	-20813	32767	-11252	-32768	128	10656	1055	2909	460	-28528	4408	20040	829	-1544	-730	95	169	1
-30456	21184	32767	2027	5575	437	-20584	9960	-15616	3163	2709	583	-31080	-6760	14360	3110	166	-1436	-16272	1976	21712	-28548	32767	-18426	-32768	-1760	18928	2653	3113	461	-26816	4896	25664	1661	-3416	-486	106	0	1
-9840	19056	30740	219	3757	2080	-19472	11952	-7416	1417	2894	1038	-23752	21216	-13352	347	1757	-1396	-32768	3824	32767	-27533	32767	-22986	-32648	9272	-24	3378	3234	985	-18664	-4824	8136	2486	-3147	-71	116	0	1
-32768	-28280	9124	2130	2394	930	-17304	-11168	-23320	-786	2911	155	-15400	23360	-14320	-2896	642	-321	-28840	1216	32767	-9369	32767	-18297	-32768	10896	-200	3054	3375	952	-25896	4472	776	2898	-1817	400	136	0	1
-9440	-2124	15028	1180	778	567	-18064	4744	-16048	1241	2064	-448	-12568	-28992	-20600	-4831	-17	873	-31472	6256	32767	-4386	32767	-17355	-32600	3840	9560	1526	2384	38	-30632	4816	-16152	1897	-1336	1225	126	202	1
-6752	2792	20108	1189	74	396	-11936	1184	-5376	-263	1589	244	-13768	-21992	-17824	565	1799	-151	-32768	-5704	17728	-26948	32767	-29412	-23216	12968	-7544	-195	2272	755	-32768	-2784	-12712	-46	-2324	1550	133	253	1
-9172	-3188	14996	672	-107	159	-15544	-952	-6616	-841	1369	-299	-23240	872	-12656	2003	2351	-313	-32768	25848	32767	-1404	1696	-12627	-19296	4792	-11048	-647	1381	-23	-32536	-4800	-5312	-517	-3306	1452	141	253	1
-8420	-3832	14048	339	-61	69	-21992	1280	-4576	-283	971	101	-21328	8480	-3928	753	1995	327	-5192	22464	27680	1997	-19010	6315	-23680	-8600	6752	413	640	-158	-28712	-2992	-5224	-355	-3067	1759	133	253	1
-6972	-2512	13632	153	60	9	-16872	7384	-2248	-614	695	-244	-15568	4008	-64	-11	1964	611	6080	8672	11760	2294	-16994	12864	-12304	-3128	4472	951	-256	-187	-26560	-2272	-6504	-28	-3045	1909	133	253	1
-7348	-2004	13788	42	181	-87	-17144	2880	-2112	-580	625	0	-16376	4560	952	-135	2183	904	1392	1840	18536	2179	-17351	11328	-5688	3968	-16	927	-1303	-45	-24712	416	-7568	-678	-3129	1746	126	253	1
-7424	-3336	13424	37	222	-179	-16928	904	-1128	-54	495	-178	-14240	4680	1200	-438	2126	834	-2080	-3104	23496	3652	-24163	6767	-5952	6064	-2368	86	-2040	241	-20224	-4032	-6576	-322	-2927	1592	126	253	1
-7612	-3484	13356	153	187	-192	-15560	-2800	-1056	387	534	-40	-13992	560	168	-913	2072	549	-2648	-3640	20152	10226	-30558	3577	-8176	2016	-1136	-810	-2651	-43	-14000	-2288	-5120	-74	-2272	1639	136	233	1
-7680	-4500	13244	235	138	-87	-15216	-3800	-992	656	603	-8	-13880	-4736	-1320	-1295	2321	205	-5952	-40	18568	13921	-32768	3179	-8320	-744	-2080	-1391	-3340	-325	-14368	-1232	-7824	-211	-2134	1410	102	217	1
-8168	-4308	13152	217	89	21	-14584	-1896	-1768	72	724	54	-12472	-4952	-248	-1147	2686	90	-9480	976	18376	13198	-32768	5248	-8680	-2560	-3328	-1541	-3859	-469	-16272	-1768	-8448	-95	-2119	1449	134	200	1
-8264	-3568	13428	232	7	107	-14712	-1976	-1328	-699	848	45	-13464	-5264	1000	-896	2853	169	-11528	-408	18920	13579	-32768	8279	-10928	-2344	-3648	-1209	-4260	-654	-12672	-568	-9040	-232	-1806	1275	105	188	1
-7856	-2828	13376	249	-71	137	-15664	-1040	-376	-810	910	77	-15368	-5080	2944	-383	2775	171	-13904	-2280	19288	16169	-32768	10491	-12680	-992	-3464	-1262	-4700	-698	-10264	-2208	-9008	-907	-1712	1067	131	179	1
-7240	-2044	13792	290	-87	163	-16312	-528	808	-170	921	124	-15336	-3072	2696	-414	2451	404	-17576	-3680	22576	20013	-32768	12026	-13376	-320	-4680	-2105	-5193	-815	-6680	-4952	-9368	-1765	-1806	665	130	176	1
-7580	-2140	13748	351	-136	174	-15480	-640	624	507	990	157	-17368	256	2336	-563	2261	326	-18392	-6008	20136	24317	-32768	13201	-15648	-2048	-5560	-2588	-5417	-1237	-5768	-7872	-10672	-2424	-1858	263	118	170	1
-7268	-3552	13216	358	-105	220	-15384	-496	944	580	1005	159	-17592	1376	1208	355	1803	196	-19560	-6232	20160	24312	-32768	13478	-21896	-3320	-7896	-2012	-5614	-1437	-5368	-9304	-10040	-2410	-1787	-177	130	159	1
-7588	-3396	13656	310	-16	318	-15600	-256	-1424	665	1173	4	-17424	-672	2608	688	1549	68	-24312	-8808	32767	22549	-32768	13725	-24832	-1088	-12512	-1147	-5777	-1550	-5048	-9104	-9400	-2304	-1743	-255	139	179	1
-7784	-2348	13864	318	7	369	-17248	-784	-3656	483	1362	49	-15008	-3944	768	122	1510	-6	-29296	-16176	32767	27025	-32768	14138	-30736	-1808	-13760	98	-5668	-1999	-6440	-2896	-232	-1422	-1219	-120	131	187	1
-8016	-2440	13524	313	38	416	-16896	-448	-4760	352	1395	71	-13848	-4064	-4256	-474	1408	88	-32768	-18392	29200	26786	-32768	11531	-29808	-992	-14200	1287	-5384	-1948	-10400	-720	4184	-1230	-898	382	131	200	1
-7680	-2588	13628	313	117	494	-17608	-288	-3096	196	1448	80	-15480	-3248	-4960	-22	1574	97	-32768	-18368	19864	20031	-32768	4395	-28040	5608	-17672	2089	-5080	-1265	-16704	-2000	5144	-765	-264	793	129	195	1
-7992	-2656	13864	313	127	501	-18640	-928	-2200	291	1565	77	-16232	-3280	-4488	60	1583	92	-32768	-12496	14472	19333	-32768	-2723	-27440	10952	-18808	2229	-4589	-573	-16080	-552	14520	-495	354	441	133	181	1
-7128	-2008	14576	407	507	661	-20368	1200	-1368	195	1765	170	-21624	-576	4216	-380	1159	170	-32768	-1520	-4680	13556	-29130	-2525	-24776	10360	-21896	714	-3724	47	-13488	-72	16648	-522	424	236	140	164	1
-7636	-1588	14072	447	839	761	-23096	2280	-1512	-183	2069	337	-21016	-344	4928	-686	920	128	-32768	-6816	-15520	9023	-14657	13023	-13552	5424	-28616	-1300	-2193	-207	-15496	12384	32767	177	-56	-1202	139	130	1
-7448	-1636	15384	633	1427	853	-22232	448	-1280	-290	2311	371	-20648	-2232	2680	-753	953	117	-32768	-27040	-25640	-7588	-4056	24462	-4248	12328	-28344	-2728	60	-227	-19664	14616	27640	-2206	-618	270	122	143	1
-9316	-1376	14080	1052	2186	906	-22080	776	-800	109	2517	548	-20264	-5216	3400	-1102	881	180	-32768	-32768	-13872	-12126	9313	14767	-11712	8976	-25256	-3195	1644	481	-16096	-136	13360	-2583	-73	786	133	0	1
-9816	-1140	14744	1519	2920	1059	-22944	1272	-400	38	2700	553	-20768	-5656	5440	-930	611	333	2296	-6240	-25696	-16959	32344	991	-19664	11072	-9104	-3148	2270	886	-10208	-18968	12544	-356	386	252	120	3	1
-9656	-2440	15444	1694	3598	1287	-26432	464	3448	-381	2877	571	-22184	-3648	8112	-645	258	548	8528	-8952	32767	-15044	32767	-13548	-32768	-25280	21688	-3656	1609	212	-5664	-16816	15624	1420	1393	-349	120	0	1
-10988	-4292	16536	1917	4706	1902	-32256	-2544	7720	-1020	2989	600	-27144	-6552	12576	-482	-251	407	-32768	-4480	32767	-13795	32767	-9658	-32768	-4440	-16272	-648	2729	1856	-32768	-104	12888	4399	1681	842	112	0	1
-14756	-3500	20496	2958	6334	2862	-32768	-4624	8672	-1675	2882	761	-28520	-7880	16776	-613	-1702	424	-24872	-6400	32767	-8587	31695	-2337	-29904	2720	-9792	749	3385	1758	-15032	-1864	-2976	1141	534	119	105	0	1
-31380	-10536	32767	3695	7682	3593	-32768	-7776	3672	-3136	2985	721	-29192	-8608	17904	-1884	-4275	260	-6504	-4840	15024	-3331	25610	-2080	-9952	3776	-5072	482	2939	1474	-7176	-448	-20384	2936	855	1219	106	0	1
-28644	-520	32767	2703	8509	3801	-31552	-5232	-7008	-1828	3696	847	-18904	-3096	-7512	-1628	-1343	-146	-32768	17656	25368	-8301	13100	-1447	-11448	23416	-12688	1369	2439	1193	-7592	13456	-14464	2159	661	1199	111	0	1
-32768	-18568	32767	-385	7230	3903	-32160	-1176	-4696	-2277	3436	1422	-30064	-824	-14488	-329	-2317	-722	-10464	-4352	18368	-3364	6612	-2535	-24624	6520	-12096	-2336	1742	1325	-25552	19464	-20360	-990	1489	56	127	162	1
-32768	4812	32767	1699	3113	3402	-24160	-4184	-10416	-470	2780	747	-30872	4144	-13416	674	-2723	-1260	-8896	-2968	18576	-3387	4187	-1983	-20184	5176	-9776	-1320	1527	367	-24544	-3544	-12672	-2854	1736	-342	125	211	1
-18680	-32768	32767	181	71	155	-22992	2560	-4472	-509	1579	506	-31864	5104	-11800	738	-2972	-1288	-7392	160	16232	-978	2672	-890	-18232	-1656	-5048	-1485	1133	92	-21304	-8264	-5032	-1571	1785	-453	117	206	1
1780	-17764	20336	115	-900	-947	-18008	-432	3552	-537	649	168	-30064	5856	-7128	-8	-3552	-1195	-7224	-120	15912	232	2634	-555	-18016	-5248	-5392	836	853	548	-16128	-4256	-3464	-366	1891	-579	121	187	1
3524	-11100	17712	-721	-749	-1190	-10960	224	752	-864	-297	-365	-25440	4944	-4376	74	-3667	-1006	-7536	336	15280	230	2499	-78	-18568	1272	-3576	1782	685	717	-17032	-4704	-832	185	1990	-598	111	202	1
-1220	-9384	23396	-1436	-1269	-1257	-5480	96	-2248	-1029	-1162	-783	-23304	2152	-4936	182	-3395	-990	-7960	1048	15208	458	2580	139	-17768	1912	-3480	1802	667	736	-16272	-2272	-1224	753	2152	-474	91	191	1
-5792	-7872	26052	-1860	-2582	-1489	-7152	840	-3344	-789	-1722	-1228	-22032	3696	-5240	754	-3044	-838	-7840	1560	14992	500	2504	341	-15424	4864	-1520	1468	677	470	-16160	2312	-1336	811	2256	-398	121	178	1
-4652	-5412	19252	-2058	-3571	-1729	-9320	936	-960	-513	-2434	-1518	-19352	2912	-6928	-75	-2788	-865	-7968	1584	14912	473	2276	363	-16328	5224	-1096	521	628	316	-15312	2488	-1720	718	2327	-558	123	170	1
-4652	-3048	15320	-2228	-3857	-1965	-9904	2568	-592	65	-3086	-1693	-15368	2608	-7488	-261	-2370	-907	-7976	1472	15032	531	1759	293	-16216	1320	-632	371	692	297	-14440	1464	-496	498	2372	-738	123	159	1
-6472	-2236	16180	-2178	-3985	-2133	-10520	2664	-1416	370	-3621	-1824	-14048	136	-9528	-846	-2107	-956	-7880	1248	14880	869	1569	2	-15040	-2008	-440	1184	768	342	-13744	712	1752	254	2423	-833	125	148	1
-10048	-1800	19504	-2069	-4291	-2259	-11776	2104	-2720	774	-4080	-1969	-10920	-1808	-10208	-648	-1940	-899	-7800	1504	14424	1152	1483	-131	-15888	984	-560	2350	841	430	-12912	1880	3096	45	2500	-805	127	151	1
-12668	-1368	21292	-2255	-4619	-2473	-12584	3392	-3488	1354	-4622	-1961	-7704	-968	-11064	242	-1805	-751	-7520	1336	14600	504	994	-557	-16344	5176	312	2169	738	559	-14448	3208	6000	-112	2909	-664	127	147	1
-15796	-1932	23168	-2604	-4854	-2825	-14176	4832	-4936	1811	-5087	-1856	-4816	-416	-11248	1391	-1646	-492	-7664	1424	14592	-302	475	-1085	-15600	6496	-32	850	592	369	-14312	7400	3208	1140	3382	-707	125	142	1
-17524	-1428	23676	-2734	-4972	-3245	-16512	6440	-5552	1982	-5584	-1600	-4080	1232	-11928	2270	-1501	-180	-7528	1088	14320	-325	186	-1423	-16584	1336	32	0	743	232	-17280	4560	-1088	892	2828	-520	127	147	1
-20072	-72	26032	-2655	-4940	-3521	-19736	7920	-6752	1290	-5923	-1397	-4128	2848	-12216	2369	-1144	-41	-6912	1512	14384	59	663	-1956	-15440	-1152	72	373	882	262	-20368	-2032	-2920	-836	1573	-113	128	142	1
-24308	-464	29604	-2465	-4955	-3585	-23624	5376	-9144	541	-6164	-1391	-5536	4568	-10400	1909	-520	62	-7696	1240	14632	122	1236	-2563	-16808	904	-1912	933	890	454	-16328	-416	3448	-552	1177	-429	129	148	1
-31188	-2452	32172	-2430	-4859	-3663	-29120	2864	-12672	713	-6398	-1505	-6888	5048	-7352	1804	88	258	-7848	976	14440	271	1666	-2362	-18296	3768	-2328	571	969	379	-15568	4560	2352	610	1942	-502	125	152	1
-32768	1172	32767	-2715	-4770	-3636	-32768	1552	-17232	527	-6402	-1410	-7672	2368	-3736	1769	382	432	-7832	1264	14576	453	2158	-2601	-17784	3272	-1160	110	1216	375	-17048	2808	-584	485	2023	-273	127	140	1
-32768	8816	32767	-3374	-4707	-3202	-32768	800	-22560	157	-6075	-1416	-13032	-2280	-1328	1410	237	411	-7864	1696	14696	881	3057	-3407	-18288	2512	24	-81	1429	292	-19440	3120	1616	7	1584	-110	126	160	1
-32768	16232	20088	-3898	-4208	-2515	-31504	6160	-24392	-103	-5385	-1323	-17736	-5048	9408	730	385	217	-7448	192	15064	605	5134	-4064	-21640	-1144	-696	-112	1640	307	-21328	1336	4944	536	1325	38	127	165	1
-32768	19716	472	-3266	-2986	-2188	-22416	7000	-29752	-367	-4119	-1174	-16648	-9952	31280	811	49	32	-7368	1176	15184	-69	9101	-5128	-22736	96	-880	21	1945	334	-20392	-1488	4072	1100	1272	-43	132	159	1
-32768	32767	-18536	-2334	-2061	-1487	-8672	7104	-32768	-1171	-1733	-750	-18856	-15496	32767	2842	-2222	-196	-8016	920	15024	-1407	14813	-6176	-23312	-168	-152	-252	2142	365	-21688	2192	3608	1394	1161	-385	142	153	1
-32768	32767	-32768	-897	273	-299	2672	64	-32680	-779	981	-109	-13048	-11960	32767	2832	-2510	-232	-9216	-160	14208	-3581	20597	-6288	-21272	-1792	-968	-431	2390	392	-20024	3680	4096	1140	856	-313	144	207	1
-32768	17116	-3096	2662	1360	631	-11488	-5112	-28616	2094	2811	410	-17968	29712	4832	1201	733	49	-10328	848	15080	-8108	25027	-5201	-23760	368	56	-252	2662	322	-19880	3752	4256	1077	775	-303	129	219	1
10068	3160	7760	1950	3056	875	-18304	-2856	152	1309	2959	1458	-4880	8400	-2272	-2750	488	-647	-10856	2552	15880	-13878	30721	-6727	-28200	560	3760	46	2758	421	-24192	3224	8496	1326	-158	-434	121	200	1
19656	-14208	32767	3169	3181	2362	-32768	-3704	32424	3300	1349	-496	-17120	-1352	8400	-2609	-1266	-1023	-12896	3192	16176	-19938	32767	-11022	-32768	-576	10168	1069	2859	475	-31536	6848	24736	2071	-1742	-651	117	71	1
-25328	12168	30660	2241	5510	1839	-26160	31208	-17144	2158	2586	305	-32768	-18000	6864	-1272	763	-2528	-15000	2160	21496	-26781	32767	-18975	-32768	-2584	17464	2779	3016	500	-21000	3192	20360	759	-2479	-621	132	0	1
-25304	22996	32767	535	3579	1831	-31368	11696	-8880	-1469	3706	1728	-20648	4280	15872	342	359	-1811	-32456	176	32767	-27372	32767	-21536	-30992	7672	2440	3429	3285	827	-25688	5000	13128	1840	-2391	-307	147	0	1
-18680	-32768	18168	1460	2943	1009	-15400	-5120	-9048	-1702	3290	499	-13120	22152	-22792	-1563	1247	-107	-28384	-352	32767	-12017	32767	-17483	-32768	10968	888	2833	3278	831	-23488	6392	-1832	2389	-1951	394	148	0	1
-18580	10992	32767	1762	1426	768	-5576	-16240	-17280	-56	2764	-255	-552	-6592	-18184	-3910	-363	1428	-30456	5568	32767	-11744	32767	-13703	-31784	2680	9336	1558	2526	30	-28600	1408	-11168	1240	-1566	935	163	253	1
-18228	-11136	16308	1695	237	535	-17776	408	-13152	2023	2037	-111	-14840	-32768	-16840	-697	732	19	-32768	-22688	2280	-19855	32767	-26749	-24032	10096	-2824	-761	2112	546	-29944	-1528	-10528	-83	-2132	1205	140	253	1
-11672	-4852	16164	1215	-58	364	-25712	7056	-11752	1766	1684	329	-26864	-7376	-15272	3217	2026	-871	-32768	24352	32767	1919	6215	-19974	-18584	7192	-15728	-603	1604	-16	-31560	-2280	-6464	-832	-2926	1385	133	253	1
-8616	-3032	15060	756	-79	204	-17424	4576	-8208	288	1425	95	-26024	14376	-7400	1995	2163	-196	-11720	23864	29512	-1772	-21923	-1517	-24744	-7472	4744	347	854	-155	-29536	-3168	-6232	-698	-3063	1505	150	253	1
-7032	-2516	14296	432	-13	107	-16504	9808	-6168	-284	994	-36	-17168	9000	-3296	24	1674	70	2296	9424	10376	-3495	-21233	7839	-12680	-5648	1792	625	137	-452	-28200	-2176	-6816	-220	-2895	1850	151	253	1
-6432	-2096	14012	248	186	30	-16968	5056	-3784	-602	788	55	-16224	1256	-888	-57	1879	632	48	3192	15648	-613	-19402	9815	-7896	864	-1136	1021	-820	-514	-27488	-1392	-7512	-381	-2974	1878	131	253	1
-7244	-2664	13836	166	319	-57	-18768	1176	-3120	-764	766	-271	-17712	3152	208	-48	2007	879	-2664	128	22032	464	-24477	7312	-8048	5696	-3648	855	-1672	-290	-22824	-4440	-3456	-459	-3143	1722	122	253	1
-7760	-3292	13516	183	335	-111	-16488	-1536	-3680	75	632	-149	-14760	4008	8	-696	2028	642	-3456	-2152	21384	5204	-30831	4308	-7856	5784	-1664	-244	-2430	-293	-20984	-3400	-8040	-446	-2674	1731	128	235	1
-7688	-3504	13272	228	289	-114	-15408	-2384	-3400	703	501	-127	-15184	-1288	-1016	-1601	1992	260	-6232	-288	20864	11100	-32768	2042	-7224	2040	-2672	-1051	-3252	-475	-17264	-2160	-8696	-434	-2421	1490	128	222	1
-6972	-4128	13524	237	235	-75	-16128	-1576	-1896	572	537	-138	-15448	-7264	-736	-1785	2190	31	-9576	2176	17944	14088	-32768	2276	-8912	584	-2256	-1326	-3856	-517	-16520	-1144	-9768	-506	-2176	1399	97	216	1
-8000	-3924	13640	184	213	12	-15152	-1240	-1832	-164	687	-83	-14384	-8752	576	-1196	2256	238	-13400	3320	17600	15952	-32768	5538	-10352	144	-4192	-1531	-4384	-624	-10568	-1752	-10272	-268	-1841	1248	91	211	1
-8024	-3508	13464	201	123	110	-14496	-3080	-1064	-738	866	-79	-14368	-4560	1744	-344	2256	373	-15592	2440	17280	16849	-32768	9602	-11448	376	-4368	-1646	-4789	-751	-6648	-2592	-10032	-517	-1670	972	129	202	1
-7700	-2772	13728	258	44	176	-15896	-2816	-504	-468	906	-135	-13056	-1312	2752	-94	2349	599	-17320	-1608	17584	19741	-32768	12907	-11976	320	-5104	-2295	-5229	-900	-5296	-3952	-10576	-1160	-1590	722	134	192	1
-7432	-2712	13612	338	-12	215	-15728	-1848	-904	362	916	-21	-13368	-592	3504	-253	2601	377	-21368	-4264	20664	22775	-32768	15122	-13680	272	-7504	-2869	-5611	-1266	-4280	-5376	-11632	-1818	-1560	393	141	187	1
-7552	-2504	13572	315	-7	212	-15824	-208	-2176	797	936	2	-14376	-1696	4816	-525	3120	220	-23408	-5496	19144	23339	-32768	16635	-19152	-1680	-8264	-2532	-5649	-1646	-4280	-5896	-11464	-2298	-1492	29	109	187	1
-7872	-2696	13780	323	-28	259	-15656	592	-3896	755	1031	26	-15912	552	-568	-377	2581	155	-25872	-5176	24224	21265	-32768	17168	-22752	664	-9520	-1652	-5740	-1699	-4728	-6128	-11136	-2330	-1462	-22	135	182	1
-7992	-2276	13356	288	-17	298	-14840	888	-5160	186	1028	-66	-14512	1352	-10984	154	2041	-238	-32248	-2440	32767	22045	-32768	17267	-28232	5016	-12232	-549	-5779	-1558	-4416	-7232	-3000	-2005	-817	-69	135	179	1
-7812	-1896	13740	242	33	312	-16728	608	-5616	-80	959	-170	-16384	-4680	-5096	-32	1734	19	-32768	-72	31936	21997	-32768	19624	-30872	8040	-12688	-507	-5846	-1567	-5480	-4960	736	-1625	-704	68	137	171	1
-7908	-1364	13748	248	86	328	-18512	-64	-5600	-157	934	-194	-16040	-6464	-2040	-165	1589	111	-32768	-7024	24816	23789	-32768	21382	-29744	7576	-15128	-747	-5594	-1570	-10064	-1184	1272	-547	-269	145	132	155	1
-7824	-2064	13932	262	203	356	-17656	-2016	-1512	-346	1054	-81	-17424	-4216	1240	-245	1496	173	-32768	-13840	19344	24492	-32768	18798	-31616	7016	-18168	-36	-5057	-1429	-20400	1456	8848	43	90	339	133	150	1
-7736	-2836	14068	359	345	526	-17384	-4440	1624	-334	1355	-19	-20888	-6360	9048	-336	1534	186	-32768	-20424	4472	18994	-29669	14329	-26408	7448	-21752	896	-4155	-1114	-20736	7504	28616	-847	-654	1071	133	135	1
-7840	-2436	14252	432	606	585	-20632	-1552	848	-92	1730	201	-23056	-5976	10200	-732	1044	18	-32768	-32768	-19912	16843	-18706	1226	-12304	11824	-32768	1961	-2172	-234	-14400	10736	32767	-1436	-685	1531	132	133	1
-7460	-2256	14552	459	1002	743	-19960	-672	-120	76	2046	290	-22920	-1672	6736	-894	832	92	-32768	-32768	-32768	18244	-439	-8577	-800	12256	-30688	2523	720	825	-19480	-176	28240	113	55	-344	130	121	1
-8148	-724	14428	683	1648	720	-22800	2848	-2168	-137	2357	335	-20200	-464	2864	-908	827	200	-32768	-12416	-7768	-12105	13322	-14263	-17600	14448	-24688	787	1998	1081	-16120	-9264	6896	2279	630	-691	125	75	1
-9044	-572	13872	888	2439	673	-23232	1104	-1848	-114	2678	521	-21512	-5336	3656	-950	423	358	-32768	-5808	15528	-12311	12615	-10304	-13528	6056	-22136	-877	2817	818	-6744	-56	-248	3884	855	-97	133	0	1
-9804	-2336	14640	1157	3258	903	-26208	1256	808	-208	2796	532	-22624	-1376	6376	-1177	269	263	9664	8344	19776	-14286	17346	-7938	-32576	-14544	32767	-2041	1824	-207	6560	15352	-3976	3001	2309	-134	130	0	1
-9212	-3436	14980	1359	4269	1394	-29896	1368	5576	-1130	2902	432	-25544	944	11416	-1165	83	373	-2680	-10880	6976	-15097	32767	-4375	-26536	-8584	-3560	-2942	1834	1599	-32768	20984	4784	-1040	1252	666	111	0	1
-10740	-4068	15700	1723	5723	2101	-32768	-480	10936	-1901	2906	443	-26672	-3608	17336	-1133	-964	558	-28368	-21968	32767	-15962	32767	-7944	-32768	3344	-13552	-2435	2923	480	-32768	6040	23896	-6092	132	-59	99	0	1
-21228	-3928	32612	2848	7504	3036	-32768	-5848	6248	-2672	3046	575	-27392	-6496	19424	-1571	-2631	648	-24576	12728	20016	-11462	23599	-3822	-22840	400	-10184	-3329	2866	1107	-16456	-27160	-7144	-3172	854	132	104	0	1
-30592	-5868	32767	2584	8411	3505	-32768	-11944	3664	-2859	3083	494	-19272	-4960	-440	-2278	-2775	-93	-4736	-12360	16488	-8130	21081	1556	-13096	200	-7136	-3079	2246	817	-4736	-17560	-19168	3136	710	1762	110	0	1
-23456	-4592	32767	1461	8789	3534	-31200	-5112	-520	-1597	3496	819	-29120	-5512	-5752	-1255	-1659	-172	-26320	15816	22136	-8930	8703	-4672	-11064	10400	-10456	594	1820	1449	-9880	12720	-12608	3659	1137	283	113	0	1
-16872	-11328	32152	-1410	6165	3878	-29152	-1240	-3120	-1179	3058	1234	-29664	-3248	-17480	-621	-2329	-935	-7200	-14544	25896	-6851	3729	-2242	-25672	6232	-10048	765	1406	1337	-27184	20160	-16944	908	2312	310	120	253	1
-32768	-32768	32767	87	2390	2423	-18992	376	-17296	441	2330	456	-29584	2744	-12320	960	-3049	-1157	-10616	4136	17368	-4243	608	-1567	-20584	6632	-5848	803	1234	674	-25688	2184	-9776	-1570	1738	-291	118	253	1
-18072	-32768	32767	2273	-1258	-448	-20600	-3120	-2192	-358	1377	309	-31704	3576	-8264	667	-3447	-1018	-7496	808	16136	-2791	260	-1419	-16752	1232	-4544	-425	968	169	-15648	-2984	-3720	-1288	1620	-190	119	253	1
4452	-8884	16084	2052	-1777	-1384	-16312	280	3264	862	16	-38	-26936	2080	-3904	165	-3620	-1222	-5224	-1216	15784	-2072	1943	-992	-17944	-3272	-4200	376	689	262	-16104	-7664	-584	-403	1895	-546	125	253	1
5192	-1592	17060	-863	-1020	-1573	-9680	6664	-344	-8	-898	135	-24248	-1496	-4704	499	-3280	-1239	-6208	-32	15584	-930	3236	-220	-18768	-1760	-2992	1308	605	603	-16816	-4736	480	562	2125	-630	105	253	1
-4348	-7284	26044	-1428	-1882	-1391	-5304	-704	-5496	-1212	-1395	-35	-24448	3120	-2824	1190	-3242	-750	-7032	1064	15536	-56	4168	477	-17000	2424	-1328	1137	598	663	-15248	-480	-120	831	2244	-541	116	252	1
-4532	-2596	25792	-1121	-3419	-1161	-8064	-2464	-4888	-1069	-2214	-934	-20208	4608	-5456	1042	-2869	-662	-7736	1152	15040	209	3585	636	-15320	4248	-144	421	537	445	-14936	1488	456	669	2062	-449	118	236	1
-4900	2100	20780	-2162	-4204	-1037	-9456	2488	-2344	-574	-3027	-1064	-20048	776	-8008	930	-2557	-708	-7712	1712	15168	-2	2953	204	-15568	2880	648	469	601	354	-14440	3744	-376	689	2053	-601	125	216	1
-5276	2136	20060	-2358	-4292	-1020	-8424	2040	-952	-862	-3436	-1026	-14864	3032	-9184	358	-2393	-822	-7712	2320	15144	-451	2110	-568	-15712	1528	1408	1284	783	426	-14056	4680	664	510	2067	-755	126	203	1
-9948	-3280	15348	-2385	-4978	-890	-9408	96	-2624	-818	-3892	-1463	-12096	96	-8696	-19	-2155	-731	-7728	1352	15096	-854	1230	-1705	-15216	2088	176	2006	886	522	-14176	4768	776	83	1994	-633	126	196	1
-12136	-3224	16140	-2474	-5158	-1210	-11088	2792	-2624	58	-4418	-1700	-9168	-1360	-10224	456	-1859	-644	-7200	720	15496	-835	938	-2008	-16536	2592	-344	2131	902	507	-14768	4040	2872	103	2158	-512	124	185	1
-14236	-5200	16584	-2802	-5105	-1793	-12616	4232	-3776	456	-4784	-1545	-6496	32	-11920	1039	-1796	-537	-7064	1008	14960	-457	1298	-2048	-17200	4296	-112	1392	830	449	-14728	3680	6848	289	2793	-454	126	180	1
-16488	-5680	19132	-2736	-5077	-2478	-14072	4392	-4952	826	-5239	-1570	-5160	1312	-11384	1766	-1516	-136	-7720	48	15128	223	1607	-2066	-16456	2504	-920	243	774	343	-14280	2424	2680	965	2957	-459	130	175	1
-18652	-1892	22636	-2858	-4941	-3000	-16760	5776	-6312	862	-5668	-1576	-4256	2960	-11632	1968	-1221	-3	-7544	640	14800	581	1741	-1769	-15600	-1128	-480	261	953	252	-17824	-256	-568	462	2118	-387	131	166	1
-23060	-2116	26032	-2915	-4910	-3231	-20112	4600	-7512	405	-5912	-1606	-5464	5336	-12440	1330	-752	98	-7448	1400	14816	819	2170	-2322	-15344	1576	-440	834	990	400	-17960	-160	1528	-230	1574	-98	130	159	1
-29500	-8088	27252	-2452	-4891	-3641	-25056	1064	-9680	1046	-6150	-1799	-5144	6496	-10928	302	-165	164	-8232	592	14872	424	2042	-2662	-16352	3712	-2104	685	1139	476	-15336	4080	1384	103	1541	-421	127	155	1
-32768	-12172	28724	-1826	-4713	-4524	-29816	784	-13872	2417	-6354	-1614	-3552	3512	-7520	319	225	166	-8040	272	14888	373	2215	-2770	-17112	2592	-2616	273	1131	406	-16128	5592	-600	644	1835	-344	127	147	1
-32768	-4380	29816	-1800	-4380	-5324	-32768	-256	-17976	2884	-6314	-1086	-3944	-3584	-4096	1138	168	13	-7256	112	15152	820	2937	-2872	-16552	616	-1560	240	1462	402	-16840	1976	784	22	1682	-276	129	144	1
-32768	7180	26256	-1963	-4029	-5346	-32768	1648	-23192	3162	-6006	-675	-13072	-7608	2160	2074	-91	-368	-7592	-600	14864	1380	4484	-3045	-17376	1312	-1616	387	1577	430	-15824	-504	2336	-19	1449	-86	123	143	1
-32768	17384	15100	-1614	-3313	-4710	-29216	5024	-28408	2661	-5382	-138	-27696	-10376	22880	2777	-2098	-1052	-7840	1072	14168	-148	6404	-3411	-21344	1304	-2792	227	1763	397	-18152	440	-464	610	1628	-80	147	144	1
-32768	32767	-5500	-1692	-2741	-2919	-13856	7368	-32768	645	-3242	-292	-26464	4776	32767	4334	508	-1293	-8096	744	14768	-415	9946	-4470	-21784	-152	-2672	130	1874	464	-19248	1352	-232	895	1573	-198	172	143	1
-32768	32767	-32768	-3401	-1153	169	-528	4792	-32768	-3260	-288	-308	-17424	10936	32767	1941	-212	1108	-8152	-784	14824	-1308	14690	-4312	-21400	-944	-2736	-59	2087	390	-20632	3600	712	883	1357	-374	189	150	1
-32768	32767	-25392	-233	405	3256	-7224	-8104	-31584	-3611	2040	-66	-20688	21096	15312	218	319	1958	-9824	232	14616	-2773	20622	-3561	-24608	2072	-488	-140	2406	265	-23072	6840	2336	934	1014	-537	152	150	1
-32768	14992	-13392	1239	960	4425	-21040	-4592	-16136	-1191	3097	712	-10224	5648	152	-3535	-34	948	-10320	1408	15200	-5703	26316	-4461	-26232	1920	1960	-42	2543	364	-24488	5512	6864	1018	557	-674	121	177	1
14300	-32768	8700	1772	2777	2697	-32768	-6944	32767	-215	2142	578	-17304	-9048	8904	-4214	-362	-205	-10976	2936	17576	-11620	32220	-7460	-30008	-72	5944	640	2739	399	-26768	4872	11008	958	-118	-747	101	155	1
-21796	-21476	4420	1890	6684	739	-32768	11952	-7072	3073	2680	181	-28368	-13728	8112	1131	311	-2007	-11640	3400	17496	-20126	32767	-12126	-32768	304	10624	1298	2903	508	-31080	6944	20936	1022	-1683	-633	102	125	1
-27456	32767	32767	1282	4001	1163	-20776	10432	-15704	1882	3419	918	-25000	-384	14256	3103	192	-1881	-17440	848	23240	-28952	32767	-18760	-32768	-2984	18432	2638	3149	411	-29480	4712	25816	2246	-3271	-355	128	0	1
-4784	-30300	13996	583	3149	1592	-17736	7112	-5912	963	3062	999	-21944	26504	-26472	-1373	1972	-1386	-32768	4968	32767	-21555	32767	-20780	-31496	9128	2360	3479	3270	924	-16864	-2264	4832	2332	-3100	-181	166	0	1
-30864	18216	32767	2011	1578	950	-5592	-11800	-23664	-285	2960	-316	1272	8736	-13792	-4025	-620	758	-25928	1240	32767	-9920	32767	-17506	-32768	11928	1872	3050	3333	868	-24472	3824	-1088	2205	-1741	525	111	0	1
-21380	-25096	12052	1455	299	350	-18824	3480	-13928	766	2243	-214	-17368	-32768	-18824	-3218	158	1131	-25888	-976	32767	-8037	32767	-20330	-30320	5584	9408	932	2231	65	-30688	456	-15088	1157	-1551	1183	110	253	1
-11084	-4000	14676	926	6	247	-20592	3080	-10816	-448	2135	250	-26184	-16352	-15584	2126	2276	-934	-32768	-1984	32767	-11796	32767	-32768	-19776	12408	-24200	-363	2171	892	-30272	-2656	-12112	-113	-2493	1585	132	254	1
-8384	-2756	14592	450	-61	100	-16464	240	-7336	-1187	1574	-128	-26080	12496	-8248	1544	2286	-495	-25088	29736	32767	3379	-9859	-12498	-19232	3568	-5056	-1	1438	-360	-32672	-6240	-5072	-710	-3420	1398	147	254	1
-7616	-2676	14408	281	-33	77	-17576	2408	-5056	95	942	59	-16008	4280	-2384	-715	1865	484	624	20664	18072	1719	-20690	3546	-19896	1600	-880	148	1352	-353	-29200	-4552	-5776	-287	-3063	1697	139	253	1
-7200	-2792	13712	181	27	27	-16776	4528	-4272	-90	743	161	-14800	-3464	-1464	-706	2069	813	4968	10712	11232	1879	-16231	10503	-11072	-3520	3400	998	-390	-178	-27272	-3808	-5240	29	-3093	1901	134	253	1
-7320	-3160	13620	165	80	-29	-17872	256	-3640	-143	626	-88	-17344	-1664	-1688	63	2252	752	-448	4400	22080	1551	-18229	10117	-5768	3808	-1448	978	-1420	82	-24520	-3960	-5144	37	-3044	1695	131	253	1
-7524	-3576	13640	188	116	-76	-16896	-848	-3424	713	389	-74	-16040	2504	-120	148	2247	728	-2056	-2224	24632	6296	-25416	7402	-7504	5712	-2024	365	-2165	323	-20496	-4792	-3496	255	-2744	1514	135	253	1
-7504	-3540	13612	250	92	-82	-15824	-112	-3264	1069	359	62	-15648	1424	176	-416	2326	464	-2600	-2016	20216	14703	-30388	5657	-9512	568	-640	-663	-2850	101	-17168	-3936	-6456	193	-2316	1579	127	253	1
-7640	-3488	13620	294	58	-53	-15624	2240	-1920	609	465	31	-14496	-480	1136	-796	2420	224	-5832	80	18496	15354	-32768	4988	-9400	-408	-1808	-1094	-3534	-49	-14728	-3088	-7136	131	-2279	1302	114	249	1
-7828	-3676	13560	278	57	-16	-14768	952	-1024	-564	663	-52	-14096	-1536	1248	-861	2453	315	-7744	-856	17304	14988	-32768	6245	-10136	-2136	-2240	-1310	-4085	-80	-14272	-2752	-8984	327	-2102	1314	97	231	1
-7544	-3896	13200	247	39	47	-14856	-3232	-128	-974	796	-99	-13216	-2360	1224	-798	2551	377	-11440	-1328	20208	17224	-32768	9196	-11864	-2200	-4200	-1529	-4549	-229	-9000	-1728	-9480	42	-1907	1187	112	214	1
-7396	-3088	13748	265	9	130	-15800	-3616	216	-219	828	-93	-12360	-1440	2248	-94	2758	260	-14264	-3880	23464	18631	-32768	11560	-11880	-1632	-5384	-1612	-4882	-417	-2176	-2520	-8648	-288	-1620	809	133	204	1
-6960	-2928	13684	294	8	179	-15968	-1648	-752	597	799	63	-14216	-1520	7944	6	3337	323	-15112	-6808	23096	21772	-32768	13111	-12328	-1824	-5136	-1670	-4954	-458	-5512	-3720	-10320	-1073	-1792	660	127	199	1
-7496	-2580	13528	277	40	231	-16352	192	-3120	831	834	23	-15528	-5784	4512	-1074	3188	534	-18352	-8912	25752	25047	-32768	13640	-15744	-2040	-6848	-2341	-5701	-1125	-3792	-6160	-12216	-1544	-1603	371	116	193	1
-7328	-3008	13600	321	54	332	-15768	1984	-1776	271	937	1	-17176	-1784	-5832	-1022	2832	186	-20048	-9680	22720	26823	-32768	13012	-20088	-2840	-7824	-2106	-5927	-1482	-5040	-6936	-12248	-1694	-1399	171	126	184	1
-7732	-2740	13764	308	92	414	-15744	1200	-2256	-210	1009	-170	-18584	2472	-7280	878	1624	-5	-26592	-5896	27272	26031	-32768	13127	-25304	-640	-10624	-1315	-6018	-1589	-4776	-7040	-9088	-1758	-1018	2	131	164	1
-7980	-2176	13924	285	145	433	-17408	-1112	-3592	72	1074	-123	-15672	-5816	1896	816	1591	147	-32768	-856	32767	22726	-32768	16433	-29264	3384	-14136	-596	-6028	-1547	-3304	-5416	-4160	-1860	-569	31	130	153	1
-7872	-1440	13880	292	207	400	-17472	-488	-3344	562	1138	18	-15928	-6024	3120	-117	1514	295	-32768	-3408	32767	21061	-32768	23216	-32768	6752	-16320	-844	-5842	-1747	-7056	504	-160	-1503	-782	224	134	150	1
-7556	-2320	13952	320	300	457	-17096	-856	-616	348	1322	35	-18392	-480	2072	-68	1405	224	-32768	-13568	23688	19101	-32768	25607	-32464	8344	-17848	-811	-5243	-1975	-18416	4928	5696	-290	-532	545	135	151	1
-7428	-2504	13896	406	438	619	-18432	-1120	344	-78	1677	44	-18680	-456	2336	-8	1430	211	-32768	-16152	10824	11343	-32768	19306	-30264	10264	-23776	-819	-4668	-1622	-27440	8488	25472	-1387	-746	941	139	121	1
-8124	-1704	14136	428	691	725	-22552	-720	-1048	-132	1990	231	-21752	-2096	6312	-710	931	-92	-32768	-32400	-11488	11456	-26062	8182	-18904	11152	-30856	-311	-3273	-1008	-16088	-736	32767	-2930	-94	790	139	154	1
-7804	-1852	15012	590	1154	886	-22640	1800	-968	-103	2239	299	-19920	1232	3768	-1021	866	-64	-32768	-32768	-32768	18625	-11119	-6153	-4608	9728	-32768	1690	-318	307	-15472	3664	32767	-2060	-474	-949	136	156	1
-8116	-908	14456	876	1890	899	-21248	3776	-1264	-44	2513	440	-19288	-2760	3008	-905	820	215	-32768	-24416	-23680	-8970	8063	-12555	-9392	15752	-28848	1122	1746	853	-18312	-7568	14536	471	395	-1668	125	58	1
-9700	-988	14396	1339	2714	764	-22520	48	-280	75	2765	595	-20656	-8856	3696	-1130	603	214	-32768	-29080	-3760	-22107	21601	-21750	-16616	10704	-7504	381	2660	702	-7136	-9880	7672	2371	640	-3	121	0	1
-10420	-2752	14932	1668	3383	1007	-26744	-2552	2760	65	2908	634	-23632	-7472	7864	-1011	280	336	17344	20568	32767	-20303	27548	-18104	-32768	-14576	21296	-3150	1887	380	10856	10104	-19160	3136	2324	839	123	0	1
-12032	-4092	14856	1755	4402	1741	-32600	-2128	7160	-589	3055	438	-28128	-3048	13624	-413	-468	506	-22880	7128	7304	-19921	32767	-4401	-31584	-1544	-8632	-1846	2683	1667	-32768	19712	20088	1487	681	747	123	0	1
-11868	-3460	16832	2514	5956	2715	-32768	-1128	11984	-1667	3044	508	-28232	-5328	19752	-416	-1604	374	-29520	-23208	32767	-14691	30245	95	-32768	4288	-17496	-1290	3318	1178	-18488	-11600	10240	-5276	-82	83	95	0	1
-26368	-4620	32767	4335	7653	3891	-32768	-6736	4848	-2715	3350	620	-29152	-3952	24696	-1579	-4311	370	-8032	-10744	21168	-4234	22480	-1736	-15312	-8872	-11392	-2077	2765	1148	-9936	-22136	-25648	2654	1198	1817	106	0	1
-28676	-3636	32767	2563	8896	3980	-32768	-4416	552	-2181	3194	495	-19376	480	-4176	-1888	-1771	96	-8608	11592	32767	-986	20688	-1740	-6816	8400	-6376	1201	2116	1020	-5920	-12288	-10384	4144	60	1200	117	0	1
-29460	-16080	32767	104	8901	4062	-30880	-832	-1152	-2741	3476	1275	-26456	-4080	-12856	-1533	-1845	-504	-16840	-3480	25736	-2876	11289	735	-19520	11584	-10608	1201	1775	1786	-26936	30480	-19360	3219	1600	-507	120	77	1
-3504	-32768	15760	1306	5980	2819	-23656	-6544	-6344	-647	2848	634	-32768	544	-13584	-713	-2504	-1226	-16616	6672	19216	-462	8340	-564	-27064	5864	-9088	646	1476	982	-22608	5240	-12080	-1764	1882	-735	121	232	1
-32768	-32768	32767	1242	2602	-594	-22472	4344	-12440	1232	1751	452	-30712	-1512	-12480	762	-2709	-1347	-6736	-1968	18024	-893	5050	-238	-15080	7352	-4960	-1025	1046	343	-22440	1408	-7392	-1131	1620	-195	122	203	1
-11812	-22144	31312	1440	329	-2876	-19184	-1128	-1800	575	630	580	-31512	-368	-8480	480	-3373	-1342	-7856	1304	16312	-288	3388	-109	-19328	-640	-3224	-928	788	199	-16208	2200	-2904	-825	1636	-620	125	193	1
816	-1732	20548	522	-103	-2972	-13904	-3336	-272	462	-496	103	-26512	2152	-4896	670	-3499	-1203	-8240	664	15672	307	2958	56	-17704	-1304	-3888	873	723	447	-15056	-1688	600	-477	1746	-846	113	201	1
-1888	1960	26024	-491	-718	-2220	-6800	-784	-3984	-120	-1254	-271	-24728	1024	-4880	1151	-3254	-965	-7392	976	15176	725	3128	507	-18504	344	-2128	1679	745	538	-17176	-4664	2480	155	1948	-571	103	175	1
-7456	1236	31692	-1040	-2492	-1446	-6560	80	-7856	-302	-1690	-590	-22936	1496	-4944	1895	-3575	-414	-7160	1960	15040	337	3381	261	-17032	2544	536	1782	760	455	-16216	-4384	1696	859	2073	-408	116	170	1
-7508	1116	26012	-1857	-3982	-1119	-8616	1704	-4264	-423	-2510	-867	-21632	768	-8528	740	-2752	-797	-7832	1704	15456	15	3268	-250	-15344	3496	-368	1077	708	398	-14584	-1048	1888	1601	2039	-469	121	167	1
-10956	-2072	21912	-2437	-4998	-1174	-8776	3376	-3864	-419	-3126	-1096	-16952	5080	-7568	529	-2433	-765	-7944	1672	14952	295	3207	-285	-16928	2424	-712	879	740	342	-14664	1816	448	2130	2095	-678	122	162	1
-13040	-3356	17660	-2318	-5806	-1354	-8136	2640	-1024	-551	-3641	-1286	-14040	1744	-8920	34	-2368	-726	-7904	1568	14896	225	3154	-297	-16248	3096	416	1097	791	329	-15560	4800	-1608	2014	2184	-924	124	157	1
-13012	-2656	13132	-2103	-6058	-1510	-10160	2504	-888	-264	-4130	-1611	-11656	1264	-9752	-27	-2091	-642	-8624	1776	14872	-296	2334	-1445	-15024	3688	-1240	1016	675	390	-13248	6344	-824	1096	2255	-1014	124	155	1
-12460	-1852	9924	-2155	-5754	-1674	-11688	3496	-1080	66	-4574	-1701	-10552	240	-9576	-19	-2082	-661	-8256	1296	14824	-373	1654	-1801	-15664	2632	-1952	1046	703	325	-15840	4512	-976	-178	2364	-925	124	151	1
-14812	-3236	14928	-2498	-5244	-1980	-12440	4080	-3824	193	-4940	-1766	-4592	800	-10768	944	-1645	-298	-8200	672	14176	-241	1193	-1749	-15864	1688	-2312	1146	759	309	-15144	3616	-216	-320	2389	-925	124	154	1
-18960	-4576	21816	-2740	-5253	-2522	-14248	4304	-5840	433	-5341	-1786	-3152	2184	-11304	1460	-1412	-23	-7704	1664	14384	-620	1013	-1971	-17080	3408	-576	1042	848	309	-12456	2040	5960	-173	3233	-706	128	151	1
-20708	-2248	23496	-2958	-5306	-2985	-17464	4736	-5704	686	-5761	-1788	-1920	3080	-12512	1808	-1082	155	-8056	1440	14520	-892	1036	-2985	-17064	3904	-664	985	851	328	-15568	3880	-976	109	3054	-583	129	155	1
-23720	-2520	24588	-2933	-5122	-3245	-21696	4888	-7264	604	-6054	-1785	-2472	4376	-12048	1286	-603	144	-8128	1264	14320	-589	1311	-3494	-15192	912	-1400	817	1100	315	-17368	728	-5176	-924	2099	-673	129	153	1
-31804	-7272	28260	-2546	-4965	-3695	-26176	3112	-11216	1057	-6266	-1782	-3576	5024	-9848	679	-118	57	-8552	608	14192	0	1912	-3035	-17496	1320	-3488	824	1166	418	-19512	4904	-648	-1414	1768	-638	130	166	1
-32768	-2332	29500	-2285	-4671	-4271	-32768	3728	-16888	1446	-6371	-1474	-4280	568	-5440	400	-2	-149	-8672	-440	14704	292	3266	-1960	-19616	512	-2464	407	1425	323	-17968	4016	2120	-496	1921	-691	128	175	1
-32768	8344	31804	-2782	-4386	-4339	-32768	2472	-24728	863	-6056	-1001	-8584	-6752	-1256	252	-412	-505	-8096	680	14672	-128	5264	-1446	-19504	712	528	92	1581	148	-18688	-480	4184	-277	1783	-511	126	186	1
-32768	12832	18016	-2501	-4308	-3593	-28992	-592	-24864	609	-5402	-837	-21944	-6496	5736	480	-527	-1049	-8304	1888	15016	-346	7995	-2333	-20080	2976	1264	-87	1787	207	-20224	-2856	9064	-71	1616	-108	134	220	1
-32768	23196	-2540	-2265	-3183	-2418	-25400	6408	-32768	1356	-4338	-1148	-29976	-2200	32767	1383	-543	-1460	-8464	1968	14584	-811	12043	-3937	-22712	560	544	-277	1965	237	-21368	-640	5384	850	1586	66	158	230	1
-32768	32767	-16224	-4051	-1996	-956	-10536	12792	-32768	-1699	-1821	-611	-18360	-3280	32767	1254	30	-427	-8560	792	14200	-1857	16441	-5291	-21600	-936	-368	-51	2198	293	-20400	6312	2976	1509	1327	-265	187	202	1
-32768	32767	-32768	-2401	-82	286	4232	2464	-32768	-3156	1018	-226	-20760	7696	29880	430	532	1591	-10816	128	14800	-4345	21563	-4691	-22520	160	-440	-135	2506	257	-20920	7416	3464	1203	1007	-434	172	243	1
-32768	22168	-12164	2106	1397	1925	-15280	-7272	-31120	-815	2824	221	-15720	2704	7888	-960	361	914	-10040	1328	14704	-8843	25313	-4753	-23992	944	2584	-191	2754	182	-22088	6112	6176	1061	303	-693	123	195	1
-18336	-19084	23540	2776	1505	2305	-28976	-13096	29632	-934	2561	936	-11240	-6752	3288	-2559	75	-211	-11848	3232	15576	-13530	32767	-7468	-29200	-728	6056	445	2914	282	-26456	3040	13752	1037	-661	-875	125	233	1
9324	5752	-11660	2794	5127	2159	-32768	13976	12272	5176	1891	-30	-21344	-11432	-10280	-284	1145	-1116	-13240	2544	18856	-19953	32767	-12947	-32768	-1368	15184	2031	3140	381	-29464	6920	20920	1010	-2393	-800	112	57	1
-32768	27772	32767	2395	5519	1913	-25032	26416	-24800	4057	2953	1028	-32768	-15792	32767	5105	-1576	-2244	-24440	2624	25792	-28714	32767	-22337	-32768	4120	10312	3181	3417	517	-28832	5552	24536	3057	-3387	-220	120	0	1
-32768	-27784	32767	2000	2785	1207	-24744	-936	-17712	-251	3733	1853	-28680	32767	-17864	1564	1951	-502	-32584	2960	32767	-18569	32767	-21335	-32768	10776	-272	2934	3520	667	-24576	7648	3984	2260	-2596	90	116	0	1
-16536	22008	32767	2947	963	1146	-11888	-6792	-19392	1839	3113	-779	-3656	17672	-32768	-4051	19	-503	-25536	6112	32767	-8650	32767	-15237	-32768	9432	2576	1372	3248	200	-26600	3688	-10272	1274	-1277	871	145	0	1
-18872	-15208	14132	2087	35	604	-8008	4928	-16632	340	2640	266	2376	-13200	-20744	-4878	-447	1262	-19664	3816	23048	-8177	32767	-22941	-29008	3584	8040	-676	2059	15	-32768	-3472	-15152	-21	-1776	1363	121	253	1
-11920	-4444	14944	1216	-156	349	-19808	6544	-12968	-628	1787	-297	-31200	-32768	-19880	-42	1276	-1077	-32768	17216	32767	-7340	31519	-26698	-16936	9496	-28720	-1803	2190	462	-30968	-4552	-8552	-862	-2788	1396	113	254	1
-11140	-4872	15040	1086	-173	315	-25896	3984	-7480	-1190	1546	-362	-28280	5904	-11464	2774	2377	-404	-21432	27096	32767	-3030	-10191	-7753	-20480	3104	-7736	-233	1348	-181	-32768	-4976	-5640	-849	-3265	1480	146	253	1
-7232	-3028	14256	334	-29	84	-16376	528	-4736	-760	1191	-112	-23928	12848	-4152	150	2270	466	-3560	14176	20552	-797	-22617	5985	-21632	-840	-4496	-196	1195	-113	-29032	-2984	-6960	-307	-3070	1704	147	253	1
-7264	-2264	14160	175	100	-20	-14960	1200	-3584	-109	648	-109	-11480	320	-1376	-1140	2000	1020	1504	6368	11864	-525	-22161	10039	-8696	192	704	1256	-555	-772	-26928	-2000	-6320	-328	-2982	2036	134	253	1
-7684	-2992	13944	93	157	-133	-18224	-776	-4152	544	473	45	-18120	-3472	-2472	-486	2044	1195	-1368	904	16808	-377	-23723	7631	-7040	3760	-2240	717	-1607	-181	-26424	-3944	-3136	-1123	-3321	1652	129	253	1
-7680	-3612	13712	43	171	-174	-16992	-1128	-4208	823	399	3	-14384	-2104	-1456	-61	2337	808	-3112	-1896	18272	3664	-28633	4094	-7136	6056	-2328	271	-2153	-225	-20424	-5528	-5992	-417	-2555	1723	131	239	1
-7628	-3712	13616	39	139	-159	-15912	-1240	-2760	735	378	155	-15800	-320	-1368	-392	2431	102	-5528	-72	18656	9252	-32768	1811	-7000	2040	-2696	-883	-2894	-276	-13488	-3744	-5520	-381	-2525	1457	132	220	1
-7232	-3904	13660	69	110	-96	-14904	904	-1328	20	409	130	-15736	-872	536	-797	2496	-3	-7712	1232	17688	11701	-32768	1577	-7288	240	-2624	-1145	-3560	-485	-15024	-2752	-7440	-305	-2319	1328	103	213	1
-7060	-3760	13652	163	57	7	-14944	448	-472	-997	577	-45	-13400	-1832	1456	-712	2529	100	-8248	1272	17784	12174	-32768	1846	-8864	-1664	-3032	-1239	-4024	-513	-8984	-1080	-7744	-102	-1857	1180	103	192	1
-7324	-3600	13496	213	7	89	-15400	-2800	-296	-1136	635	-42	-12592	-1896	1184	-332	2491	360	-11872	1016	16112	16607	-32768	6664	-10168	-1376	-2088	-872	-4346	-644	-10664	-1096	-8160	-204	-1844	1210	130	183	1
-6956	-3052	13724	264	3	150	-15864	-4680	640	-68	606	-67	-12248	256	4112	209	3062	542	-13864	-656	17272	17863	-32768	8984	-10992	344	-3512	-1157	-4830	-549	-5984	-2968	-10240	-895	-1800	750	121	178	1
-7072	-2136	14076	282	13	177	-16272	-1696	-1752	1073	549	44	-16040	-2896	10976	-404	3457	443	-17112	-1520	21336	19648	-32768	11295	-11672	576	-4848	-2063	-5291	-714	-3952	-4688	-11016	-1289	-1702	405	127	173	1
-7616	-2624	13400	275	-15	150	-15888	1080	-2296	832	727	30	-16192	-6376	16	-1691	3346	350	-17440	-4232	19640	22954	-32768	14042	-14048	-928	-5040	-2725	-5665	-1210	-3624	-5872	-12520	-1554	-1616	142	123	173	1
-7408	-3108	13464	283	-17	237	-14360	1064	344	17	903	-23	-20776	1760	-7728	100	2059	-196	-19184	-6712	19328	26389	-32768	15783	-20856	-2448	-7392	-2783	-5830	-1616	-5016	-6112	-12288	-1534	-1396	-79	130	169	1
-7192	-3192	13464	280	34	323	-14424	-1024	-152	-355	1086	-159	-17160	-2536	1848	1209	1145	-26	-26296	-4544	28416	24757	-32768	16273	-23760	1488	-10584	-1396	-5818	-1814	-4872	-7072	-9192	-1461	-1051	-188	134	167	1
-7848	-2180	14040	259	55	328	-17520	-2912	-2576	369	1231	5	-15952	-7992	7544	-91	1322	30	-27272	-3720	29536	24162	-32768	16558	-30672	4544	-14168	-1106	-5905	-1704	-3832	-4240	-3608	-1615	-697	-39	134	153	1
-7472	-2272	13984	268	104	333	-16728	-32	-2976	650	1323	90	-14688	-1984	392	-554	1150	132	-32768	-888	32767	17130	-32768	26384	-32768	7424	-17232	-1148	-5699	-2026	-6944	1200	-432	-1459	-650	211	134	150	1
-7540	-2224	13892	295	207	388	-16376	248	-2936	601	1340	75	-15896	216	-4216	141	1451	141	-32768	-10832	22848	16191	-32768	29509	-30648	9472	-17800	-1205	-5183	-2229	-14952	5296	4736	-593	-447	606	131	154	1
-7572	-2656	14280	312	342	474	-18776	-1768	-2968	-54	1675	57	-19104	-1848	1680	-156	1325	3	-32768	-15832	13016	12710	-32768	23253	-31024	9696	-21936	-612	-4560	-1898	-23528	7336	19624	-1728	-819	990	135	160	1
-7748	-1708	14324	432	551	555	-22688	328	-2872	-231	1829	161	-20416	-1656	1792	-870	901	-93	-32768	-27984	-4744	16605	-28361	10408	-20520	12152	-27536	761	-3408	-1194	-15584	-1624	32767	-3228	207	1115	138	145	1
-8192	-2680	14148	436	823	708	-20600	-928	-1120	-397	2070	289	-19736	-2368	4016	-1308	971	-52	-32768	-32768	-28992	24915	-15646	-6994	-8624	10192	-32768	2774	-1180	131	-13464	-2528	32767	-1363	-311	-91	141	148	1
-7848	-1716	14356	562	1353	849	-20680	544	-1312	-324	2328	305	-19608	-4560	3520	-1431	862	88	-32768	-23384	-32768	9026	2892	-12943	-6624	14712	-27784	3035	1317	908	-19288	-7664	24792	1925	614	-1493	137	92	1
-8324	-1092	14364	869	2071	822	-22416	-64	-2216	-126	2582	503	-20008	-9336	2816	-1287	794	269	-32768	-25504	-18008	-21300	27352	-22465	-18184	18960	-12552	1582	2262	898	-18952	-7408	18352	2258	778	-1380	124	0	1
-9300	-2484	14860	1272	2913	1026	-25304	-456	-568	-93	2749	565	-22256	-7072	4760	-1100	513	398	11840	27392	32767	-21354	26463	-17797	-32376	-8400	27096	-2750	1713	340	-20896	8072	8512	3156	263	288	113	0	1
-9296	-3544	17708	1575	3813	1463	-29528	176	3224	-545	2871	512	-24904	-2456	6992	-690	275	555	-23104	3424	20656	-25018	32767	-6129	-32768	-6568	-7616	-3955	2712	1793	-24416	26200	32767	1450	1825	671	127	0	1
-10224	-3372	16160	1906	4918	2107	-32232	-112	7992	-1067	2889	514	-26944	-5480	13064	-378	-468	497	-30320	-23600	32767	-14310	29359	-675	-32768	-2944	-14248	-2614	3525	783	-23920	3560	-1368	-5076	618	-142	100	0	1
-14184	-4616	24932	2671	6603	2840	-32768	-1376	11776	-2164	2759	728	-27056	-4816	16568	-501	-2202	640	-5072	1872	16696	-6168	21059	-2906	-16168	-5384	-10808	-2743	2933	1167	-11592	-32768	-20592	-2076	688	1445	95	0	1
-31580	-5288	32767	2896	8016	3446	-31736	-5216	224	-3322	2931	463	-26864	-3608	5744	-1265	-4477	380	-8320	-7320	13904	-531	24588	-269	-2432	3192	-8280	-805	2324	1099	1376	-20744	-15160	4586	389	515	105	0	1
-26936	844	32767	1455	9057	3389	-30160	-4672	-7704	-2244	3708	873	-19328	2720	-3240	-1035	-1559	177	-32768	13624	20464	-3764	9557	-3790	-19600	20328	-13120	2220	1793	1391	-21616	29040	-11592	4069	1528	146	111	0	1
-29788	-13040	32767	-1441	6450	3254	-31320	-1600	-5512	-2353	3372	1268	-29296	-4904	-12816	-1061	-2058	-1100	-6872	-14680	23312	-3636	3835	-1524	-32768	4752	-8984	52	1604	1338	-27432	16232	-16240	-1927	2389	-376	126	253	1
-32768	-22292	32767	1040	2034	2404	-23200	-1864	-12248	-243	2683	856	-32056	-2224	-14432	-449	-2271	-1603	-10904	4808	15768	-2194	781	-320	-12840	10408	-4568	-751	1287	459	-21216	-2024	-7952	-2291	1470	108	122	253	1
-11576	-32768	32576	397	-13	-241	-22784	1656	640	-543	1415	771	-32768	2936	-9672	549	-3004	-1328	-8968	3280	16272	-1326	276	-556	-16552	-392	-3760	-2182	883	-84	-14016	1280	-2192	-1322	1602	-92	120	253	1
1772	-17072	13936	399	39	-1176	-17336	-2160	3200	-22	346	145	-28864	4296	-5808	743	-3721	-957	-5160	-544	15032	-1413	880	-289	-20208	-3000	-3376	156	810	358	-15856	-1952	-1664	-1007	1876	-563	107	253	1
996	-13172	19308	-293	42	-1612	-9424	760	-1920	523	-450	-134	-24312	4776	-2952	631	-3695	-930	-5392	2496	13600	-1897	1874	-303	-18272	1080	-2120	998	756	535	-18616	-5072	-2032	-327	2228	-478	122	253	1
-2508	-10104	24968	-649	-990	-1790	-6784	-1168	-3464	246	-1199	-341	-23536	3184	-4112	748	-3281	-645	-4872	576	14368	-2732	3456	-708	-17312	1224	-928	489	553	438	-17848	-3672	80	452	2285	-200	125	253	1
-3736	-4984	23840	-803	-2333	-1786	-7168	992	-2688	463	-1885	-971	-20680	2904	-4880	326	-2987	-568	-6672	1112	15648	-2837	5228	-919	-16576	-136	-1576	160	442	241	-14896	-464	1944	441	2091	-227	116	249	1
-2148	-1048	18044	-1180	-3091	-1663	-8040	4216	-1384	287	-2559	-1165	-14352	4448	-4896	3	-2551	-813	-11080	256	17776	-689	5793	-379	-17480	-800	-2728	853	501	378	-14832	-2704	2080	413	2143	-462	115	231	1
-4592	-760	18128	-1692	-3461	-1637	-8256	5448	-1352	-200	-3077	-1142	-11768	1944	-8208	-115	-2401	-766	-8184	848	15640	463	4428	198	-14872	936	-736	1516	571	445	-14960	-3680	848	967	2151	-592	126	200	1
-8968	-2144	21540	-1793	-4138	-1686	-8496	3072	-3816	-759	-3480	-1334	-13416	400	-8312	-293	-2149	-493	-8112	1696	15248	387	3716	-191	-15264	2264	288	1733	615	532	-13880	384	208	1342	2028	-645	126	182	1
-10052	-388	19316	-1905	-4797	-1666	-8752	2592	-3408	-804	-3554	-1386	-9888	-1112	-8896	-44	-2019	-535	-8032	1016	15392	142	3007	-430	-16264	2392	-384	1903	754	544	-14920	3912	1240	1148	2046	-768	125	171	1
-12140	-148	18656	-2359	-5104	-1628	-11136	2096	-3072	-366	-4353	-1747	-6952	-384	-9368	442	-1829	-462	-7904	1176	14664	243	2409	-478	-15552	3152	-696	2102	943	508	-14376	6136	1176	950	2169	-797	122	172	1
-14980	-2052	18440	-2644	-5259	-1641	-12696	2552	-3904	-269	-4741	-1811	-5880	-240	-10304	1315	-1628	-261	-7696	1624	14872	244	2152	-1061	-15736	3896	-136	1975	1003	497	-14304	6928	4656	706	2666	-698	121	169	1
-17508	-3688	19260	-2825	-5225	-1844	-15248	2848	-4512	-40	-5117	-2017	-5512	696	-10432	1981	-1367	-39	-8256	776	14280	405	1591	-1491	-15848	2848	-104	1773	1067	468	-13992	5696	3384	941	2860	-664	126	171	1
-20272	-5936	21972	-3024	-5042	-2267	-18384	3768	-5816	138	-5436	-2052	-5512	2440	-11088	2053	-1111	39	-7800	1912	14792	-174	1133	-2375	-16008	3264	152	1326	1102	421	-18912	1592	-2936	635	1939	-432	126	159	1
-25148	-9588	26440	-2965	-4978	-2879	-22800	2896	-7680	422	-5740	-2160	-5280	4464	-10520	1560	-599	51	-8368	1344	15056	-321	1184	-3146	-15920	1424	-1280	832	1088	354	-17232	-808	1752	-106	1480	-148	125	153	1
-29940	-10968	28656	-2731	-4860	-3700	-27344	2472	-9680	1304	-6034	-2199	-5584	5616	-8720	679	-105	74	-8008	680	14736	-221	1561	-3114	-18208	2432	-3256	367	1149	283	-14880	1920	-136	-59	1983	-75	124	147	1
-32768	-5876	30588	-2616	-4547	-4512	-31640	2544	-14040	1981	-6204	-1926	-5680	1736	-5456	-220	-47	146	-8080	992	14560	-343	1963	-3317	-18992	2528	-3048	-51	1298	297	-15320	336	-1784	570	2106	-598	125	133	1
-32768	6272	28984	-2814	-3945	-4793	-32768	3880	-19056	1990	-6160	-1302	-9000	-7128	-472	-892	-470	-45	-8584	1672	14024	281	3701	-3748	-18224	1488	-2576	149	1315	364	-18360	2832	-824	213	1986	-338	124	138	1
-32768	11860	26764	-2400	-3530	-4283	-31200	4240	-24568	1417	-5647	-716	-17688	-10048	5416	-499	-582	-640	-7984	1240	14760	-511	6265	-3839	-21232	-912	-752	265	1635	327	-21488	3520	3608	-8	1750	-167	129	153	1
-32768	18084	10696	-1176	-3255	-3200	-24032	3568	-30112	1451	-4630	-758	-21888	-6392	26896	1701	-360	-1574	-8232	1344	14984	-396	10490	-4644	-21776	760	-352	102	1791	336	-20984	1368	5152	534	1478	-38	149	159	1
-32768	32767	-10888	-2792	-2521	-1132	-15240	12656	-32768	-802	-2393	-758	-19192	-10024	32767	3080	-87	-1295	-8216	872	14792	-540	15732	-5289	-22824	-752	-808	-268	2059	345	-21448	1848	4664	728	1344	-287	168	161	1
-32768	32767	-32768	-3415	-286	497	7072	4656	-32768	-3159	744	-269	-23952	8280	32767	1302	8	1564	-9808	-744	14384	-2889	21066	-4671	-22384	-1904	-584	-394	2322	301	-21216	5856	4368	664	1090	-546	177	207	1
-32768	22556	-15384	3036	947	2321	-13552	-9408	-31720	-1192	2656	112	-15296	15776	6984	764	773	1979	-9456	944	14864	-8219	24998	-3470	-23632	424	1944	-392	2672	201	-22520	6992	5840	760	597	-665	146	192	1
-29036	-11996	29104	4455	1063	3719	-29464	-13760	26032	-1108	2735	849	-12640	-744	1160	-2897	-294	93	-11232	3304	16568	-13480	31271	-5514	-28808	728	6240	-24	2849	284	-25760	3824	10160	807	-287	-648	112	209	1
-4656	-7672	-5452	3199	4213	2480	-32768	14712	12112	4494	2199	218	-20704	-13344	13600	-1019	-1188	-1371	-13352	2968	15760	-19598	32767	-10458	-32768	1576	11352	971	3022	368	-30112	7248	19704	858	-1867	-720	129	121	1
-32768	18068	32767	2617	4836	801	-29552	22544	-18800	3129	3388	852	-24576	-14792	17080	3150	-370	-2263	-12520	3832	17824	-20041	32767	-11794	-32768	552	17200	2585	3327	374	-29416	5864	21672	2102	-3341	-418	98	0	1
-5800	10424	26472	866	3163	1570	-18288	10464	-4856	1246	3649	1731	-21520	25048	-27888	-32	1960	-1137	-32768	2080	32767	-21520	32767	-21090	-32384	8960	1672	2867	3378	900	-21656	664	8672	2242	-3349	-160	149	0	1
-32768	-19508	15812	1318	2499	784	-5040	-7968	-28080	-913	3177	210	-5888	31552	-19824	-2979	160	-328	-26264	3920	32767	-9878	32767	-16516	-32728	8768	1712	2985	3442	846	-24632	624	-4360	2167	-1755	579	145	0	1
-9024	-4340	13584	1035	741	523	-13464	2832	-17200	238	2418	-388	-2896	-20928	-21368	-5626	-411	1559	-25248	2312	32767	-7932	32767	-15127	-31832	4080	7856	331	2182	91	-30880	-2608	-14464	1505	-1229	1203	116	253	1
-6744	84	17576	974	192	299	-32768	6976	-11600	-315	1872	-237	-31360	-32768	-22024	-85	1808	-1113	-32768	784	32767	-11588	32767	-31189	-20592	9248	-15896	-718	2117	668	-32768	-368	-10584	683	-2206	1462	116	253	1
-8896	-3920	14624	638	53	129	-14456	-488	-7440	-888	1511	-391	-24512	3520	-12352	2174	2286	-363	-30768	23176	32767	-3737	4901	-15123	-19624	6168	-13256	-108	1338	-23	-31288	-2360	-7288	-311	-2979	1489	151	253	1
-7800	-3656	14080	413	79	86	-17672	-1272	-4032	199	980	31	-22912	7904	-5048	418	2161	415	-10432	18440	32767	3187	-17111	2732	-22072	-8688	1240	533	615	-92	-28328	-2680	-5584	-660	-3101	1775	146	253	1
