#Activity	walking 
#ActivityID	1 
#Date 08-27-18-06
acc_rf_x	acc_rf_y	acc_rf_z	gyro_rf_x	gyro_rf_y	gyro_rf_z	acc_rs_x	acc_rs_y	acc_rs_z	gyro_rs_x	gyro_rs_y	gyro_rs_z	acc_rt_x	acc_rt_y	acc_rt_z	gyro_rt_x	gyro_rt_y	gyro_rt_z	acc_lf_x	acc_lf_y	acc_lf_z	gyro_lf_x	gyro_lf_y	gyro_lf_z	acc_ls_x	acc_ls_y	acc_ls_z	gyro_ls_x	gyro_ls_y	gyro_ls_z	acc_lt_x	acc_lt_y	acc_lt_z	gyro_lt_x	gyro_lt_y	gyro_lt_z	EMG_r	EMG_l	act
-21264	-6368	17092	6221	8087	5989	-21380	14916	-16820	14939	10896	3363	-20608	12872	-15632	-171	1955	351	-32768	32440	32767	-1277	523	-2759	-16544	5160	-16216	-1011	1986	290	-31376	8	-11616	1236	-4471	519	122	134	1
-10236	-5120	13560	497	2712	-212	-15424	6244	-8224	-6879	10803	-6338	-20704	368	-9184	-726	1998	1285	6192	24480	21888	-42	-2336	1505	-23240	4368	928	59	486	-379	-32648	1016	-9808	951	-4662	539	123	134	1
-9536	-7024	11496	-1073	2415	-518	-13932	808	-7436	-22068	9898	-9286	-19272	-712	-5304	137	1972	981	-4320	15128	15504	-223	-2543	1969	-11848	3176	-3808	-278	-940	115	-27392	8024	-6632	-673	-4368	1084	124	128	1
-9976	-8664	10812	-950	2435	-99	-19268	-6136	-3960	-23074	7827	-9869	-17472	-216	-2952	280	2588	411	-7016	12168	15376	-748	-3850	2624	-3664	2072	-5864	-999	-2118	268	-23008	4400	-6360	-413	-3780	1749	127	120	1
-8616	-7680	10336	458	2234	323	-17460	-8592	-2176	-8433	5285	-5692	-14784	-216	-1320	-197	2716	243	-9904	6256	13472	-778	-5257	3132	-5160	4008	-5064	-1212	-3056	741	-18616	896	-7408	-369	-3312	1314	127	128	1
-9772	-6592	11176	569	2221	312	-16924	-4456	-2636	3469	3880	-392	-14536	1208	-2184	-801	2475	680	-7704	5416	10064	-89	-6298	3504	-9544	2760	-4128	-1818	-3978	754	-14832	64	-10000	-523	-2766	962	128	134	1
-9504	-6756	11024	633	2439	102	-16244	-2940	-3136	8061	3415	2194	-14184	-1496	-2096	-880	2538	1166	-7664	9032	7520	-81	-6405	3451	-10360	1896	-4544	-2148	-4815	786	-9968	960	-12544	-710	-1991	782	128	129	1
-9792	-8208	10472	850	2000	259	-15372	-916	-3260	5727	3716	1772	-13808	-1976	-2648	-805	2585	1213	-11008	8592	8296	-311	-6044	3735	-9336	-1120	-7640	-2359	-5634	811	-5504	3160	-12600	-1084	-1597	675	114	126	1
-9620	-7164	10476	970	1319	428	-15520	828	-3532	78	4214	-645	-14000	-2232	-2816	-184	3087	919	-16224	9584	10136	-126	-5641	4363	-11312	-784	-9800	-2159	-6165	733	-1912	4272	-13840	-1975	-1098	452	109	133	1
-10160	-5468	11260	568	1355	243	-16012	1372	-3900	-5902	4317	-1828	-16888	3096	3896	-1121	4056	422	-23600	6368	14040	326	-5557	4624	-15704	1216	-12168	-2016	-6441	808	472	2904	-12544	-3143	-698	104	109	134	1
-9444	-5944	10292	266	1880	-41	-15656	-1588	-688	-10863	5987	-1522	-12120	4232	2504	-1867	3366	327	-28552	5168	14336	1435	-5558	4462	-19112	-448	-13144	-1289	-6553	934	240	2456	-9808	-3723	-884	-223	112	124	1
-8760	-6832	11140	745	2382	744	-15440	-3608	4476	-7552	8475	-2	-16400	1816	-1632	-666	1416	611	-32768	11640	15336	1374	-5604	3913	-20856	496	-16288	-128	-6535	1341	-2408	-248	-4416	-3317	-1320	-674	114	126	1
-8760	-7720	10860	593	2242	1398	-13980	-2972	2964	-3569	11030	931	-19032	-6320	776	-367	1137	953	-32768	9736	14968	1523	-5541	3673	-24504	2688	-16928	518	-6331	1908	-6368	-3400	2880	-2344	-1753	-803	115	130	1
-10472	-7080	11168	136	3892	2552	-17732	-3964	-2204	-574	12845	2925	-23480	-3136	2984	-672	1637	-34	-32768	8464	11304	2006	-5057	3344	-24504	5536	-17744	444	-5767	1933	-12432	-7448	6456	-1127	-1368	-289	120	126	1
-9128	-8428	12936	-1631	6274	3570	-21068	-824	352	-809	15768	4964	-19864	3384	2400	-1460	1384	-249	-32768	2792	6592	1686	-4189	2788	-22296	2368	-19792	-437	-4920	1841	-23808	-6680	15400	210	-507	145	119	128	1
-9716	-7144	13320	-3078	9695	5858	-18368	1464	-1296	-2295	18891	1533	-17960	3424	1560	-1416	1124	326	-32768	-7624	-3528	1091	-3096	2419	-18624	-2840	-24248	-299	-3496	1217	-24944	-8544	26624	2014	-379	514	120	124	1
-9580	-8320	15376	-3347	14992	7549	-19788	2328	-2816	-4764	21240	939	-19472	608	2472	-1576	1105	475	-32768	-15288	-16472	248	-1737	1171	-10184	-296	-25920	-71	-1445	585	-18088	-1112	24432	1379	-275	1641	120	132	1
-10100	-7932	16796	-3199	22680	9736	-24424	-1224	-1828	-768	23841	1642	-22200	4464	56	-1601	1019	101	-32768	-18296	-20976	120	-31	-58	-5368	-1616	-26688	-426	869	203	-15120	7824	18768	1727	-379	1344	122	151	1
-10824	-6908	16448	-4075	31711	12338	-24288	400	-1652	4228	25910	2656	-23144	440	504	-1193	900	378	-32768	-9288	-10920	-393	1544	-362	-8192	-2056	-26896	-891	2800	-328	-11192	2416	7736	1618	-10	-382	123	125	1
-10740	-9948	16596	-5837	32767	15479	-25012	84	2164	3986	27504	1438	-23456	-7440	5320	-739	571	363	-18752	-8728	-1184	-2139	4407	-1871	-18624	1480	-7088	233	3310	-441	-3672	-2632	11936	-783	-813	-921	123	131	1
-8544	-11092	16596	-8428	32767	22396	-28744	516	5160	-1811	29525	-1689	-23864	-5776	12776	55	-152	-28	13032	14400	27432	-806	3152	-2673	-32768	3504	20648	-10	1871	-122	-11144	10632	-20184	2744	1466	192	122	130	1
-11344	-11816	18472	-11908	32767	30151	-32768	448	8428	-15440	29630	-382	-25688	-3272	11336	7	-2538	-874	-32768	20144	20168	-636	4137	-2757	-25688	-9024	-14528	157	3018	-689	-32768	25752	30744	-3581	-2203	1318	123	115	1
-29604	-10608	14196	-17441	32767	32767	-30524	980	728	-20886	31665	-6557	-23128	6632	3448	-1644	-1911	-385	-23656	15848	9880	-1181	3644	-1743	-12408	9360	-10744	404	4049	-1375	-24200	-6800	-22256	-5823	2780	247	123	160	1
-30936	2624	22716	-28408	32767	24931	-27152	-2360	-168	-24217	32406	-891	-21064	-2576	-17032	-2325	-2143	-248	-27904	8840	12032	-1211	732	-1679	-4480	14632	-19664	-3290	2972	-737	-10312	-22784	-2520	-751	806	550	123	128	1
-32768	-28784	26092	-29387	32767	20754	-29940	-6196	-7900	-20700	30886	8360	-23880	-6184	-16800	-1338	-2453	-1217	-14112	784	14688	-813	126	-465	-20424	-8904	-17960	-3716	1879	-230	-13784	232	-13160	2509	1744	852	120	108	1
-32768	-25344	13136	8993	18702	23296	-21104	-12376	-8440	-6513	20873	4812	-31432	40	-13024	1154	-3033	-2049	-11000	5024	13840	-348	217	-78	-23712	-10864	-10992	931	1879	-184	-15448	8960	-9592	1680	2358	596	120	113	1
-232	-18356	25724	5835	-15035	-1522	-21148	-3084	168	3837	5748	14467	-31456	3304	-11160	2684	-3571	-1615	-10512	6424	12064	-23	286	39	-19864	-8360	-10864	1431	1768	-100	-19992	11200	-7480	118	1792	240	123	136	1
-4980	-15912	16036	8325	-19495	-3053	-14496	-4408	-3652	12454	-4899	11348	-27936	8024	-9712	2692	-4087	-1595	-10512	8032	11632	56	260	7	-17552	11152	-6920	1708	932	395	-22976	4368	-3752	-401	2189	93	122	125	1
-3716	-11168	15928	12718	-29546	-7377	-7328	116	-5732	13725	-16409	9791	-26032	11672	-6960	1300	-3604	-1733	-10320	7248	11464	10	215	-22	-17248	10952	-7032	1463	904	319	-20000	632	-880	669	2346	166	108	128	1
-4412	-8580	14052	9943	-32768	-13791	-8028	1064	-5804	9967	-26524	9171	-22944	10936	-6560	386	-2927	-1512	-10216	6840	11640	49	254	6	-16760	4632	-6120	-299	603	-111	-13152	3536	272	1036	2424	-40	111	128	1
-2576	-8296	9228	8068	-32768	-13823	-11388	3460	-8752	2370	-31767	6277	-18360	8448	-6864	323	-2549	-1396	-10112	8128	10984	103	283	-2	-18392	3544	-5040	174	565	-186	-12672	8448	488	646	2586	-52	114	133	1
-7100	-6896	9288	2526	-32768	-14735	-7864	6852	-6316	-4482	-32768	1779	-13016	7280	-8176	447	-1957	-1208	-9912	8160	10408	90	251	-49	-14976	4056	-4224	678	543	-90	-13880	7864	-872	280	2768	277	116	126	1
-9816	-10644	9664	-1228	-32768	-20818	-7416	4120	-7268	-13672	-32768	-2799	-8416	5080	-9224	445	-1384	-845	-10032	8192	10664	53	191	-109	-13672	6192	-4544	764	410	-7	-15864	2288	-1400	184	2895	491	116	124	1
-12192	-12160	10328	-348	-32768	-26408	-10200	1420	-6572	-14127	-32768	-7552	-4744	3592	-10392	552	-893	-481	-10352	7840	10640	20	146	-172	-15904	5512	-4504	485	327	57	-17920	-1032	-384	1022	3199	542	117	128	1
-17548	-11608	12608	30	-32768	-31155	-14444	-596	-9096	-9653	-32768	-10521	-1136	2648	-10296	993	-585	9	-10640	6360	10720	16	147	-185	-16592	2408	-4520	564	432	54	-15448	-144	2808	2079	3506	588	119	122	1
-18540	-11360	12828	-402	-32768	-31735	-18040	-1856	-9708	-3851	-32768	-9866	1688	3600	-9824	2004	-685	502	-10112	6648	11112	42	192	-158	-15856	3984	-2872	787	550	-32	-13136	4592	7584	2144	3727	543	119	127	1
-23896	-11004	13616	-4468	-32768	-31672	-21544	-592	-12508	717	-32768	-9955	3184	5320	-8088	2586	-1039	749	-10296	7064	11000	85	270	-209	-15696	4440	-1960	745	752	-70	-15544	4080	-1176	1207	2811	227	118	129	1
-32692	-17336	12708	-4993	-32768	-32076	-25248	924	-14216	847	-32768	-12942	-1120	5520	-3840	2889	-1315	651	-9880	7400	11080	81	343	-262	-14464	3936	-1112	760	969	-125	-16736	2376	-6808	311	1294	164	119	134	1
-32768	-16016	11152	-5424	-32768	-32768	-26764	-116	-17248	1811	-32768	-15427	-7616	5616	2728	1817	-1835	158	-10280	7072	12040	184	507	-339	-15536	4944	-2504	668	1249	-163	-21352	2360	4480	434	1567	223	119	130	1
-32768	-13432	8828	-6469	-32768	-32602	-26772	-324	-17948	1629	-32768	-15522	-14128	3928	8928	481	-1959	-226	-9952	9624	12120	227	769	-514	-20880	4808	-1192	848	1465	-243	-19968	6224	7912	1648	1388	152	122	129	1
-32768	-14528	-1312	-108	-27628	-29523	-22768	-4548	-20364	7418	-32768	-14093	-27848	2480	17136	-1349	-1286	-51	-10464	8848	13048	120	1128	-821	-18296	4200	-1776	800	1794	-215	-16336	4576	2104	1649	1206	306	121	123	1
-32768	6940	-7780	-336	-14383	-28768	-15908	4052	-24588	10719	-27816	-8953	-25016	-1736	24256	-2728	568	248	-10856	8024	14232	49	1796	-1110	-20440	4016	-3192	571	2073	-315	-20248	2776	2176	956	1217	212	120	124	1
-32768	12796	-9164	-2396	-11867	-28997	-9748	-1888	-25448	3057	-7775	-5126	-19928	-5384	19960	-1918	991	-1202	-11176	7272	15552	23	2638	-1380	-23792	2912	-2824	118	2397	-522	-21840	2664	1704	1376	1070	-4	122	128	1
-32768	13344	-17428	-5280	1617	3818	-5704	5416	-24508	-1436	9361	-1901	-18968	-9648	11376	-1069	420	-1624	-10936	7824	15736	121	3570	-1660	-25024	2696	-1872	14	2717	-623	-22744	7352	2400	1485	1047	-395	123	126	1
-32768	-236	-10352	-7635	10148	10280	-11936	1352	-21368	-8003	22128	-1562	-17328	-5872	3176	-221	-265	-939	-10176	11432	14208	279	4522	-2330	-25440	5448	1664	463	2918	-587	-23608	7784	6824	508	762	-327	123	129	1
-8856	-32768	-17688	16051	31049	18712	-15676	-3952	-11228	1231	25385	-4020	-13048	3488	-744	-537	679	-264	-9168	13704	13336	515	5411	-3423	-25096	7208	5688	1067	3199	-442	-22784	3968	14248	358	363	-48	121	132	1
6920	-32616	32767	16247	30770	13644	-32768	-8352	29308	5031	20094	2377	-13160	-6216	-8176	-531	792	-361	-11224	11592	16048	965	6803	-4672	-30160	6632	4808	1347	3441	-319	-28928	3720	20168	612	-810	159	123	130	1
-32768	2924	26868	5124	32767	18802	-32768	16488	-17760	30386	26045	3638	-32768	-32768	-2936	995	-443	1099	-32160	15832	16024	1442	7892	-5503	-32768	2744	6320	2725	3784	-129	-27120	-3608	17728	-791	-3699	279	122	129	1
-16776	-15232	7132	994	28624	9818	-31060	13452	-14788	24341	29182	7055	-13416	17064	-11352	8787	-825	-152	-28064	-4136	19504	2490	8120	-4708	-28856	8160	-5096	3500	3492	-74	-27344	-5472	-4032	1236	-2641	-369	123	128	1
-27468	-2060	15136	5985	11794	14384	-12168	-15260	-16604	32767	19445	8683	-7208	25472	-12944	4800	-127	-728	-32768	32767	25080	2593	6448	-4405	-28800	14944	-3368	3868	3207	-164	-23968	3224	-21680	3144	-3575	-553	122	132	1
-17700	-604	15240	8468	3787	6990	-16616	15140	-20496	32362	11014	1207	-11992	22480	-13800	400	2334	-290	-32768	32767	30712	-921	1252	-4544	-19656	11384	-17160	231	2672	550	-30680	3512	-14376	1857	-3876	414	122	131	1
-11524	-6220	11928	4186	1837	1592	-19404	13932	-12900	-12798	15771	-4652	-16944	9296	-12216	-2855	2489	641	800	27144	26736	966	-2580	722	-27048	3432	1048	143	1091	-302	-32768	4872	-7944	-77	-4755	500	123	133	1
-9720	-6608	11992	2716	1315	936	-14136	-240	-8424	-23438	13625	-8147	-20584	-4160	-9568	-2614	2961	826	-4136	20800	18584	446	-3069	1514	-16104	2624	-3440	185	-541	621	-29616	2600	-8088	-566	-4713	563	123	127	1
-9852	-6720	11788	1168	1814	1044	-19772	-4308	-6084	-16571	9120	-7943	-21256	-7600	-6832	-694	2677	100	-3560	19448	18288	364	-3167	1671	-7296	176	-2896	-347	-1913	796	-26208	944	-5808	-55	-4058	1372	122	123	1
-9628	-7036	11164	939	1847	1087	-17896	-6928	-4528	-4388	7142	-2911	-18480	-224	-2856	358	2444	274	-5912	9360	15496	621	-4723	3672	-8736	816	-4208	-367	-2882	1208	-21384	-280	-6416	496	-3695	1222	120	122	1
-9364	-6052	11804	858	2073	776	-16744	-3372	-4152	8295	4391	1436	-15264	1784	-2064	97	2427	983	-8928	7896	13976	625	-5610	4047	-12320	1496	-4720	-846	-3787	1531	-16400	-168	-8520	196	-3196	891	121	126	1
-9456	-6968	11320	379	2238	338	-16072	-1412	-4280	11136	3386	2927	-12952	-584	-1664	-125	2406	1352	-7016	5032	12760	512	-5795	4065	-12504	-272	-4464	-1483	-4754	1680	-13056	1136	-9952	-177	-2519	788	124	133	1
-9344	-8156	10512	613	2093	226	-15664	560	-4080	5589	4142	635	-12816	-3032	-3472	133	2955	986	-11632	4432	14944	703	-5508	4149	-13736	-3312	-6856	-1783	-5578	1626	-8856	1816	-11088	-536	-2002	624	134	132	1
-9388	-5964	11152	386	1947	457	-15188	2464	-4212	-2029	4555	-2150	-15448	928	-1952	383	3217	744	-17248	5336	18824	875	-5565	4278	-15344	-4496	-8656	-1689	-6088	1579	-4816	3000	-11072	-1267	-1578	425	128	132	1
-9868	-5664	11140	-157	2007	263	-15568	492	-3696	-7659	4716	-3305	-17048	5520	1000	85	3615	672	-21000	1232	20312	1437	-5708	4155	-18864	-4440	-9480	-1320	-6461	1511	-1904	1704	-11480	-2285	-1306	140	127	134	1
-9232	-6804	11216	-471	2323	594	-16688	-2492	-1704	-7683	5422	-2641	-15216	4920	2984	-1204	3767	780	-21312	1184	20352	1583	-5721	4105	-19624	-4536	-9664	-1205	-6528	1516	-320	2104	-10800	-2556	-1365	-141	129	128	1
-9548	-6568	11340	-357	3618	1252	-16440	-3072	-72	-2464	6959	-482	-14432	2320	1496	-2031	3116	217	-32432	11024	22280	1041	-5696	3784	-22880	-2024	-14704	173	-6861	1821	-2032	2896	-6144	-2668	-1509	-369	129	127	1
-9564	-6616	11108	-311	4677	1552	-15264	-1632	1316	579	9393	1415	-17248	-640	-4400	-372	1394	865	-32768	9080	17360	953	-5509	3934	-25688	-592	-17184	104	-6721	1923	-4736	824	-2248	-2137	-1682	-320	128	127	1
-9416	-6780	12168	-593	5631	1988	-16460	-968	756	1000	11683	1997	-20208	-4440	1216	476	1654	798	-32768	8424	12040	983	-4973	3763	-21864	4672	-21904	-576	-6213	1853	-7264	-5304	4400	-1430	-1670	-27	129	115	1
-10328	-7764	12980	-1706	7708	3539	-19140	-676	-564	-906	14458	2235	-25496	-1232	7016	-75	1686	28	-32768	3792	688	625	-4250	3685	-18992	4728	-23584	-2157	-5041	1340	-13432	-5768	15048	488	-1320	-442	131	137	1
-10136	-8004	13448	-1706	11410	6056	-20048	904	-252	-2560	17725	997	-20176	3320	6080	-1374	1148	-270	-32768	-5840	-14328	-441	-2319	3292	-18648	-1664	-29912	-2771	-3080	410	-24448	-2904	28768	2467	-647	54	134	123	1
-10588	-7384	15020	-1008	17825	8632	-21440	832	-1180	-2034	21204	793	-20160	5360	5544	-1523	1155	168	-32768	-14768	-23200	-1455	-436	2397	-7576	168	-32768	-1984	-915	-217	-21800	7552	24904	1560	-304	825	140	113	1
-10732	-7060	15656	-835	24923	11128	-22316	688	304	265	25066	1537	-22360	2456	1864	-1453	742	366	-32768	-18984	-24872	-582	955	903	-3736	880	-32392	-1403	1440	-254	-18552	14736	13720	49	166	873	137	133	1
-11012	-8228	16584	212	32736	14303	-24464	-1172	512	4615	27594	2166	-23976	-3048	1656	-1643	833	194	-32768	-5456	-32768	-2192	4139	-1805	-7632	2176	-28864	-1040	2912	-20	-12768	6200	5960	-1317	1021	-2	134	128	1
-9672	-12232	12264	-1177	32767	18732	-26096	-1656	3220	4504	28680	743	-23344	-8520	6744	-1173	329	89	6384	32767	32767	-1729	3754	-3317	-32768	14816	32767	2361	2500	-101	1104	1128	-2688	-2980	309	-665	133	121	1
-8492	-10888	19844	-2895	32767	28375	-32768	584	3884	-1934	30366	-282	-30264	-11632	16344	-286	-912	-167	-32768	-8856	25280	-573	4582	-3023	-32768	-21472	-26832	352	4080	-307	-32768	12200	-3848	-322	-909	596	131	153	1
-18460	-25692	18020	-2977	32767	32767	-32768	-1476	11428	-9499	32767	1514	-22936	-3840	3200	337	-2276	-932	-8616	8200	10800	-807	3428	-1602	-29616	-15416	-18624	1610	3865	-911	-21632	5928	-21480	-2670	2331	456	131	147	1
-29288	-9456	20248	-12270	32767	32767	-28244	-116	-2020	-15519	32767	-6510	-23616	7096	-5576	-93	-2920	-427	-19184	2808	10832	-1096	615	-1709	-3520	23736	-21088	-2779	3430	-758	-7616	-10904	-8856	-453	1098	558	127	114	1
-32768	-14252	23112	-11240	32767	32767	-30556	-5116	3452	-29944	31180	4102	-21144	6440	-23104	80	-2664	-1116	-18568	-3416	17168	-815	50	-537	-18544	-6712	-24040	-6374	1759	-370	-17768	960	-14296	1107	953	735	128	123	1
-32768	-30584	24132	-6363	32767	23857	-27780	-3060	-16488	-12677	24984	1645	-28304	10192	-8128	-208	-2594	-2111	-11048	6008	13648	-365	94	-33	-30360	-18736	-13592	-745	1920	-779	-17448	9728	-10120	953	2662	677	127	126	1
-32768	-27952	32767	2287	-9600	-12444	-23216	4072	-5068	-1933	11853	6641	-32768	6352	-10912	-136	-3382	-1833	-9608	5616	13272	-43	230	65	-13192	-2712	-10096	2740	1199	306	-22712	12160	-7400	-1569	2390	488	125	137	1
6640	-14852	18604	3892	-8652	-17903	-18600	-10372	4488	-2070	-2022	5151	-29416	6192	-10352	578	-3802	-1534	-9672	7904	12056	33	200	6	-18400	8048	-7232	2770	828	590	-23376	496	-2984	-1774	2694	245	126	119	1
-7844	-8532	18468	1563	-19449	-18888	-8756	1332	-7200	10938	-11953	1704	-24128	8800	-7240	723	-3645	-1990	-9104	7016	12008	-6	169	-95	-15728	8344	-4656	1514	602	349	-16400	-5248	1784	-324	2603	60	127	132	1
-9720	-4076	18492	-1897	-32768	-23963	-2576	3388	-6180	7691	-23379	859	-21136	11704	-4072	193	-3098	-1972	-9360	5944	12256	-58	188	-111	-16072	5800	-4256	212	512	138	-12072	-2976	1792	1201	2513	-39	124	128	1
-4216	-2564	13004	-4756	-32768	-24996	-10544	3860	-520	4955	-32768	-875	-16640	11984	-6104	54	-2525	-1420	-9408	7352	12144	9	259	-39	-17760	5240	-3560	-289	577	-207	-13600	4304	1888	1853	2511	-453	126	133	1
-5136	-2236	9636	-3593	-32768	-23109	-12240	9540	-4172	2514	-32768	-2799	-12624	10672	-6912	-468	-2116	-1250	-9504	8304	10920	22	258	-63	-16000	5152	-2320	-150	789	-285	-14144	7840	560	1482	2683	-346	125	134	1
-8156	-3316	11620	-3082	-32768	-23925	-7648	11044	-6248	-8658	-32768	-6949	-7296	8304	-8040	-1047	-1624	-1146	-9672	7256	11424	-16	164	-117	-12928	1856	-3560	178	675	-194	-14696	5480	328	621	2775	97	124	128	1
-11904	-5244	14036	-3346	-32768	-28214	-9656	7196	-5428	-10187	-32768	-9851	-4160	4480	-7672	-886	-1148	-746	-9920	6640	11600	-29	107	-165	-15368	2024	-3744	841	468	47	-18880	344	1328	494	2853	441	125	127	1
-16520	-3680	17500	-2710	-32768	-31258	-15008	6024	-7144	-6046	-32768	-10424	-2536	2672	-7760	206	-1146	-264	-9904	5368	12112	-8	65	-178	-16072	2424	-3376	1296	579	125	-14928	-1360	3792	1524	2893	393	125	113	1
-20944	-2988	18388	-5082	-32768	-30430	-15640	6192	-7396	-5681	-32768	-9915	-72	3048	-9624	1426	-1022	311	-9536	7400	11256	-18	83	-169	-15976	6824	-2424	1026	847	-113	-12784	2712	4744	2271	2953	142	123	126	1
-21028	-2888	18532	-5286	-32768	-29603	-19928	7292	-10088	-6179	-32768	-10542	1088	2336	-9416	2489	-983	636	-9712	7176	12024	-27	91	-240	-15232	5600	-3744	164	950	-294	-15160	7352	200	2234	3083	-18	125	129	1
-29404	-5352	22464	-5922	-32768	-18312	-25496	7836	-13684	-10492	-32768	-13157	-1880	2176	-6552	2702	-1085	582	-9632	6568	12408	-4	187	-257	-16360	2984	-3568	49	1084	-363	-15824	7120	-2584	958	2610	96	124	127	1
-32768	-11696	20008	-6944	-32768	-18840	-27000	6180	-18592	-8216	-32768	-12223	-7888	6048	992	2058	-1590	150	-9680	7056	12968	57	320	-365	-17504	2056	-2144	407	1290	-324	-17680	4760	-776	3	1886	147	123	130	1
-32768	-13692	8884	-1002	-32768	-24713	-26800	1148	-20640	415	-32768	-13326	-13600	6256	9080	1461	-1734	-194	-9000	8480	13264	129	586	-579	-19016	3536	-1048	822	1433	-263	-19792	1664	5928	-523	1758	105	125	130	1
-32768	-8308	-4860	7618	-28615	-29495	-19976	-4776	-22828	13892	-32768	-8484	-27624	-296	20544	-452	-1687	631	-10456	7184	14744	28	1042	-883	-19288	3168	-2528	484	1893	-363	-20568	768	6008	196	1341	50	124	129	1
-32768	1344	-13464	11557	-14731	-27522	-15588	-2296	-25360	24903	-25938	-2458	-23760	-1184	24456	-2617	203	502	-10648	7024	16008	-224	1768	-1191	-21944	3512	-3560	13	2303	-611	-20928	1264	2640	1076	1105	70	125	124	1
-32768	7980	-19988	13817	-1166	-19982	-9232	-3616	-24512	25847	-8242	3863	-19184	-2248	20384	-2131	799	-196	-10400	8096	17512	-307	2683	-1495	-25480	2336	-2936	-134	2562	-758	-23632	4672	2480	1181	1123	-345	124	131	1
-32768	11524	-18256	8339	8392	-5531	-7084	2436	-23852	17397	9761	4360	-16976	-7104	13152	-1008	332	-791	-10048	8728	17632	-431	3605	-2026	-25464	2864	-1568	47	2857	-775	-23424	7480	5768	1068	1003	-377	123	128	1
-32768	3996	-8220	2033	12657	6451	-7192	1172	-22328	1060	22166	210	-16104	-10056	2064	625	-300	-696	-11328	6944	17104	-727	4481	-2648	-25448	5712	1360	438	3163	-706	-22200	6200	8128	567	613	-279	125	127	1
-21260	-1288	852	-351	27310	21470	-17772	-8812	-15416	-12993	29887	-2673	-19224	-5320	17896	285	-1293	-1036	-10408	13816	17616	-376	5184	-4056	-27120	8896	4280	564	3409	-607	-23760	6344	13760	311	21	-243	124	127	1
3776	-7676	23752	-2535	32767	11749	-32768	14512	7004	4486	23468	-6228	-22088	-128	-10200	-107	629	482	-10984	13928	17584	-510	6311	-5685	-32768	10552	7264	1187	3396	-391	-31168	10072	17768	299	-1572	-176	123	128	1
-32768	-16252	19100	2511	27924	9968	-22552	-5576	-8920	892	32767	162	-27928	-1240	-2048	3104	-258	1307	-26832	13232	17808	-121	7535	-6644	-32768	3096	5040	2297	3447	-59	-18048	-4776	16	-49	-1715	-603	124	124	1
-20864	-8704	11348	632	25661	6006	-9152	-9704	-15664	15208	25810	7065	-12624	5880	-16320	2948	1061	-790	-30312	10120	21512	1646	8305	-5565	-28072	7784	2240	4055	3091	-211	-24104	-3112	-6968	802	-2685	-462	122	126	1
-13680	-2376	13156	4463	10159	6766	-16192	-4040	-15040	32767	15403	9403	-6944	7560	-9744	1488	1930	-1649	-32768	24664	18872	1645	7076	-5278	-26352	12072	-3608	4400	2733	-96	-24712	3704	-17976	2576	-3337	-170	124	135	1
-13920	-3020	13412	2056	4689	1200	-17044	12976	-17960	24697	10935	5369	-20392	9256	-16168	579	2280	-511	-30680	32767	23752	-1828	1535	-3414	-18400	11216	-18856	827	2402	100	-28320	320	-13344	1497	-3780	646	123	134	1
-10896	-5584	13040	-155	2909	-405	-18952	8180	-9892	1632	10489	-4983	-21144	3432	-9848	403	1724	1103	7736	28728	20696	-1404	-1212	2368	-25888	7408	-2152	452	947	-437	-32768	4496	-6384	76	-4450	609	125	135	1
-9632	-6292	12252	-2005	2466	-1069	-12624	4664	-8516	-15193	9794	-7790	-19568	272	-5440	733	1479	1182	-8504	14304	17864	-1405	-1198	3069	-11824	6656	-3848	-560	-359	124	-28648	6248	-8208	-304	-4242	973	123	125	1
-9112	-7624	10956	-1863	2260	-665	-17320	-2160	-6188	-21611	8594	-9689	-16832	1552	-3136	1057	2108	563	-7704	8016	20232	-517	-3256	3447	-4640	3712	-6096	-1901	-1404	199	-25128	4328	-6056	-441	-3664	1867	123	120	1
-9024	-8008	10724	-882	2077	-198	-17644	-5464	-4116	-12480	5640	-8357	-13744	4384	-232	359	2637	101	-2272	5536	14992	194	-4599	3470	-7392	3936	-1920	-2425	-2551	784	-20952	376	-5864	-683	-3382	1585	125	125	1
-9016	-7280	11060	129	2010	4	-17284	-3580	-3480	-2887	4090	-4912	-15944	5896	-576	-816	2763	411	-6368	5712	12208	550	-5209	3347	-12584	600	-4128	-2944	-3658	1028	-16728	-600	-8640	-934	-2864	1220	124	128	1
-9072	-7568	11180	128	2188	-364	-16628	-2412	-2508	2275	3499	-2200	-15888	1920	-248	-1429	2634	871	-8888	8128	11272	691	-5636	3544	-12488	-3392	-5328	-2637	-4378	906	-12664	488	-9744	-1230	-2231	1060	124	133	1
-8916	-8080	10648	486	2381	-237	-15920	-2644	-2400	3927	3827	-1039	-14168	-3304	-1272	-1418	2865	863	-10136	9480	10872	490	-5409	4153	-12040	-5432	-6496	-1641	-5290	1010	-7776	1632	-10224	-1627	-1772	761	126	131	1
-9136	-7480	10568	778	1790	-119	-15080	-608	-2228	1383	5043	-1385	-14888	-2424	-1000	-1247	3204	407	-15112	8208	14016	419	-4988	4928	-13896	-1912	-7504	-1184	-5898	1257	-4248	1656	-10344	-2126	-1339	472	123	131	1
-8744	-6880	10792	726	1359	-124	-15172	-348	-2140	713	5313	-1554	-16928	496	1456	-1156	3279	335	-20008	5472	17880	738	-4967	5097	-17040	112	-9760	-1269	-6211	1363	-1328	728	-10200	-2901	-1026	88	108	130	1
-9568	-5364	11624	263	1610	247	-15724	864	-2956	-6350	6404	-2864	-14200	2408	2840	-1320	3015	444	-26600	3264	20560	1467	-5177	4707	-19712	-720	-11680	-983	-6462	1430	-1544	-48	-8208	-3580	-1254	-162	107	125	1
-11332	-6688	13040	203	4125	399	-15812	-1632	-2412	-8854	8811	-2288	-12704	208	2248	-1528	2829	437	-30704	6968	19808	1647	-5556	3904	-21472	-824	-12680	-283	-6418	1645	-3864	360	-4600	-3162	-1599	-385	112	129	1
-9532	-6584	11548	-642	3132	983	-18132	-4384	-3264	-3643	7536	-1778	-16712	-720	-4176	-1320	2219	759	-32768	6736	18888	1734	-5497	3318	-24552	-368	-14784	143	-6396	1942	-6928	-3792	2328	-1856	-1707	-492	114	130	1
-9540	-5664	11892	-998	4676	1518	-17484	-2480	-3408	1469	8505	1140	-16992	-2456	-8400	-611	1489	1096	-32768	8624	15816	1924	-5263	3287	-23760	712	-16712	297	-5914	1889	-8312	-9312	7024	56	-1640	-31	115	130	1
-9152	-7332	13148	-2071	6669	2554	-18812	-760	-1656	1028	10601	1903	-20648	-2672	-3608	547	1724	703	-32768	4736	8952	1533	-4461	3124	-22032	3240	-18360	-153	-5267	1690	-12472	-9808	13384	1596	-1073	-97	119	136	1
-9392	-9360	13008	-2902	9810	4384	-18868	-1244	944	-2526	13979	1277	-23488	-800	5976	577	1605	279	-32768	-1008	-1048	900	-3311	2778	-18176	2048	-21736	-894	-4030	1258	-21768	-4040	19568	3792	-549	285	116	120	1
-9444	-10520	13036	-3824	12682	7215	-17204	-1580	-460	-4227	17340	-1508	-20240	2080	8192	-602	1261	105	-32768	-11976	-12456	473	-1875	2190	-13344	-2528	-28040	-682	-2145	752	-20576	3488	24480	3831	-568	724	136	121	1
-10304	-7032	14920	-3255	18353	9427	-22448	108	-1572	-3463	19905	-351	-19808	7168	5624	-1451	1286	54	-32768	-14896	-18808	460	-449	1198	-8344	1472	-30024	-108	134	283	-17696	17328	19200	1686	-737	984	134	143	1
-10640	-6380	16072	-4065	26252	11342	-24432	1136	340	1256	23126	793	-23624	6768	3456	-1522	1185	293	-32768	-13760	-18296	503	1003	351	-5400	-1152	-28888	-690	2081	-193	-17312	15880	9824	87	-155	318	132	165	1
-9680	-7272	17432	-5075	32767	13843	-25876	2232	1456	3713	25761	981	-27040	-3904	2232	-1810	819	494	-32768	-5568	-5040	515	2613	-220	-10064	-3936	-28288	-376	3430	-353	-13896	4632	32767	-2459	-1623	-103	130	126	1
-8516	-9440	16704	-7425	32767	17346	-26848	1220	5092	1386	28384	855	-24880	-9016	6136	-977	496	209	-2624	-2360	32767	-2520	2656	-1771	-32768	12256	25776	2185	2091	-131	2664	12808	-29192	374	2837	-36	128	134	1
-6724	-11196	18280	-10046	32767	24986	-31660	1352	7276	-3136	29502	-84	-28648	-8528	14064	79	-381	-175	-32768	-14320	26128	-1570	3628	-4751	-28744	-5504	-25952	-3464	3193	-181	-32768	32767	32767	-2521	-2691	999	127	106	1
-14072	-12692	18584	-13213	32767	32754	-32768	1784	16140	-17513	32767	2168	-28520	-9296	19560	-1659	-4158	-970	-8560	17944	10128	-1702	3555	-1163	-22776	-696	-11912	-1313	4098	-1753	-30696	-1528	-25808	-7466	4289	532	127	136	1
-32768	-10848	17284	-20231	32767	29689	-28096	-1964	-4588	-21143	32767	-5513	-22248	7064	-2440	-1036	-2945	-478	-20640	-2464	19680	-1035	2227	-1932	-4544	10096	-13048	-2447	3163	-1394	-19208	-31528	-5216	-2750	1244	877	126	129	1
-32768	-32276	21052	-23307	32767	22419	-29676	-8240	-9684	-17384	32767	8543	-20776	3456	-23296	-564	-2783	-1136	-17752	6536	14632	-1071	1232	-1281	-13744	-5512	-18400	-4134	1947	-43	-10448	-15264	-8504	1718	1556	974	121	121	1
13924	-22428	26756	1837	29657	31031	-27752	-9556	-6468	-2036	23032	4373	-29528	6384	-12256	-262	-3099	-2133	-14512	10816	12336	-704	561	-853	-28880	-11912	-13784	789	1874	196	-11640	8584	-6712	3338	2143	646	121	123	1
-11252	-17616	32408	-9258	-11106	2571	-24808	2588	-3984	7590	9010	13248	-32768	5848	-8016	684	-3635	-1961	-11320	4728	13528	-490	277	-513	-15808	784	-8296	2504	1502	199	-21624	16448	-8776	1614	1706	378	122	134	1
-2772	-18920	18328	-4374	-13764	841	-15484	-1772	-308	1949	-1723	8896	-28304	7056	-9168	1745	-4321	-1223	-10368	7992	12304	-350	244	-321	-15440	1584	-8432	2559	1423	284	-19296	9936	-3176	-171	2244	420	122	139	1
-6668	-13736	16556	5751	-25425	-5331	-7356	752	-6952	5049	-12953	3745	-24584	8872	-6328	973	-4102	-1478	-10224	7600	11536	-290	233	-228	-15136	10256	-6008	602	911	101	-21296	2592	-1104	245	2489	127	121	126	1
-4296	-6468	14848	3659	-32768	-15853	-5016	3544	-5132	-39	-22053	3963	-22160	9976	-4680	-94	-3322	-1609	-10144	6304	11720	-220	253	-157	-15752	7360	-5256	-724	723	-84	-15800	2864	432	1064	2410	-354	123	129	1
-4880	-6220	10364	-278	-32768	-20651	-8680	3028	-4328	-8021	-29530	1260	-17592	9232	-6800	-354	-2568	-1406	-10264	6912	11520	-174	276	-95	-17768	3776	-5352	-1032	661	-299	-11328	9496	968	414	2648	-162	124	131	1
-7436	-7516	9120	865	-32768	-19653	-8424	2292	-4880	-10691	-32768	-3846	-12760	8320	-8144	-397	-2042	-1192	-10048	7048	11128	-138	264	-75	-16392	1592	-4240	-213	758	-277	-12280	8760	-96	-446	3048	268	125	128	1
-7588	-5892	9060	267	-32768	-19993	-8312	3152	-5352	-11611	-32768	-6117	-7360	6880	-9416	-784	-1416	-931	-9800	7920	11344	-109	219	-85	-13624	3840	-3488	547	649	-107	-15680	1096	-208	-845	2982	580	126	131	1
-13020	-7916	10560	-3350	-32768	-22957	-9148	2884	-6412	-9913	-32768	-8150	-4240	4136	-9776	-621	-954	-772	-10176	7432	11296	-109	166	-125	-14424	4712	-3592	556	572	53	-17416	-3504	152	63	3064	477	126	125	1
-13984	-9672	12224	-3804	-32768	-27270	-11640	2616	-7008	-8966	-32768	-10328	-1600	1904	-10272	-6	-704	-485	-9808	6056	11560	-76	206	-101	-16512	3168	-3912	449	666	55	-16992	-3416	1944	1374	3075	477	125	121	1
-20360	-8460	14972	-7445	-32768	-31338	-16716	2908	-8928	-6237	-32768	-10248	1088	1376	-10992	1171	-594	49	-10024	6280	11968	-25	273	-85	-16080	3512	-3520	503	847	10	-13960	624	3800	2106	3205	576	125	124	1
-24324	-10280	16168	-9209	-32768	-32735	-19788	4864	-11368	-5405	-32768	-11356	2704	3456	-9056	2049	-920	520	-9936	6528	11912	27	353	-97	-15384	3696	-3360	715	916	1	-13952	4392	2296	2211	3159	503	125	130	1
-32768	-12836	17200	-7670	-32768	-32768	-23676	4600	-14312	-8300	-32768	-13952	88	2816	-7144	2525	-1330	828	-9960	7872	11120	53	417	-147	-15552	5296	-2104	971	1023	-7	-15224	5352	-496	1300	2247	418	123	127	1
-32768	-16240	14332	-1485	-32768	-32768	-28612	-1488	-17032	-5528	-32768	-15353	-5248	888	-1536	2689	-1523	433	-9872	6944	12080	101	537	-267	-15904	5336	-1744	848	1293	-97	-18000	2320	256	578	1502	391	125	131	1
-32768	-20280	4200	4120	-32768	-31942	-26660	-5860	-20008	7699	-32768	-14453	-14024	496	6120	1641	-2160	-299	-9096	8208	12992	243	736	-413	-18000	5472	-1256	833	1594	-221	-20112	3808	4552	1404	1274	191	126	131	1
-32768	-17196	-8780	11310	-23908	-32768	-21104	-5256	-24084	27494	-32768	-9651	-27456	-1168	19048	317	-1364	-415	-10904	8784	13864	170	1117	-722	-19504	4592	-2184	716	1950	-220	-19184	7120	4936	1685	1022	101	125	125	1
-32768	-12324	-17748	10910	-6536	-32768	-18436	-2976	-26908	32767	-25137	-6629	-27240	4296	25888	-441	552	388	-11144	7368	14144	29	1783	-1077	-21048	3744	-4880	623	2323	-247	-18152	4072	3440	1337	1054	324	125	118	1
-32768	17608	-18980	11643	8806	-32768	-9448	1044	-23208	30656	-10556	-842	-23288	-6712	21736	-223	601	-237	-11248	8264	15704	-49	2654	-1421	-23712	4680	-4024	507	2618	-439	-21568	2992	3048	1370	1135	231	126	126	1
-32768	14524	-17388	8627	12082	-10669	-6980	-1012	-26116	19725	8356	-68	-15064	-7784	14000	560	-50	-721	-11072	9072	16224	-30	3578	-2001	-25664	4376	-1888	489	2901	-509	-24344	5648	6112	1802	1095	-129	125	131	1
-32768	11592	-4684	3082	17272	7970	-8888	4652	-18752	-242	20773	-1220	-17176	-2304	3600	1784	-377	-911	-9640	11072	15848	136	4479	-2839	-27008	6136	2424	863	3286	-469	-24488	6688	9824	1217	525	-208	124	131	1
-25808	-3064	19048	422	31154	21927	-26384	2020	8700	-17300	28461	-4424	-26248	7400	15704	-251	-446	-693	-10024	15448	16896	425	5503	-4172	-31336	7920	4160	1288	3560	-280	-28008	7560	18112	786	-271	-51	126	129	1
-32768	15728	22092	-7901	32767	20714	-32768	25880	-21580	8514	30717	-8899	-31456	-2080	-2384	-620	517	762	-14192	19184	21536	448	7107	-5890	-32768	8352	9504	2133	3590	29	-32768	12664	21368	808	-2840	399	125	128	1
-17160	-27904	11852	-3896	28015	12806	-19896	-7552	-7812	-11992	32767	5606	-17656	5304	-12128	3108	373	845	-28608	5912	16152	1070	8079	-6447	-31704	2432	-4000	2654	3675	444	-25128	-6952	24	683	-2053	-129	124	121	1
-28352	-15520	10972	987	23725	9563	-7316	-22144	-16656	18776	24431	4541	-7056	4720	-17416	2754	1053	-895	-32768	25376	20800	2662	8734	-5007	-30448	7712	-3080	4011	3179	-307	-23240	-3120	-12704	1328	-3612	-582	126	129	1
-13376	-18068	9612	6805	9484	8980	-16204	1084	-15340	32767	11900	9168	-6808	1072	-10760	895	2188	-1314	-32768	32767	27432	2009	6853	-4976	-25496	11024	-7728	3167	2643	268	-27480	576	-20240	3132	-3600	102	123	129	1
-12620	-5908	13612	5206	3455	3379	-19796	16608	-16492	19531	11608	5351	-17888	4696	-16576	418	1824	-241	-32768	32767	32767	-1033	670	-968	-18232	3024	-12616	-96	1861	749	-31792	-4872	-10856	1657	-4517	741	124	135	1
-10440	-4428	14044	3012	1767	1229	-18152	8456	-8952	-3270	12541	-5099	-23424	-1384	-9056	1369	1466	1104	5824	20768	22200	-401	-1453	2893	-23472	5368	2312	1365	369	524	-32768	2272	-6432	749	-4878	382	124	149	1
-9396	-6276	12520	771	1756	433	-12144	4228	-8044	-20378	12187	-7531	-20368	5848	-5144	1794	1470	1070	-6592	10592	19384	443	-2006	3198	-8792	4488	-3632	-138	-941	1034	-28088	4600	-6608	499	-4445	1274	125	127	1
-9508	-7344	11312	606	1899	660	-19108	-2516	-4952	-20953	9810	-9150	-15088	8936	-1528	1216	2147	611	-8352	7520	21040	1090	-3955	3634	-4328	920	-4424	-969	-1985	1435	-23248	2088	-6104	689	-3830	1779	125	119	1
-8556	-6784	11444	1005	1854	860	-17328	-5400	-2808	-6060	6628	-5498	-12816	8048	520	-62	2610	434	-7040	6256	16920	1056	-5415	3961	-9624	1976	-1224	-1584	-3107	2070	-18800	-504	-6736	253	-3474	1257	125	125	1
-9252	-5824	11708	1067	1987	611	-16892	-1792	-3708	5741	5455	-432	-15824	6024	-1032	-922	2600	720	-8192	2984	14440	1056	-5901	4077	-14856	-1888	-3264	-2426	-4092	1990	-14192	-1144	-9048	-177	-2725	902	130	132	1
-9432	-7396	11016	384	2054	94	-16168	-652	-3612	8566	5235	1651	-14400	672	-1880	-1290	2854	1003	-8960	2488	14720	1178	-5862	4242	-15224	-7448	-4488	-2397	-4840	1723	-10152	-816	-9856	-329	-2225	792	131	132	1
-9316	-7868	10604	515	1819	-40	-15448	196	-3508	6107	5635	554	-13896	-2544	-3536	-1009	3243	851	-12552	1528	17832	1132	-5411	4443	-14952	-8656	-7096	-1593	-5721	1712	-5568	624	-9664	-575	-1938	515	117	130	1
-9608	-6748	10692	572	1454	37	-15736	2620	-4076	942	5669	-1647	-13920	-2256	-3672	-938	3318	777	-18832	-248	22832	1324	-5363	4476	-17384	-7416	-8576	-903	-6239	1716	-2944	2552	-9248	-1587	-1522	196	127	130	1
-9364	-5648	11676	-66	1611	-77	-12052	1708	-3552	-4733	5815	-3105	-16888	3240	2256	-1057	3715	697	-23696	-2296	24672	1916	-5843	4121	-19664	-6544	-9920	-129	-6546	1667	-1168	2904	-9232	-2567	-1356	-125	121	131	1
-8700	-6468	11272	-650	2504	193	-17256	-472	-2356	-8733	6690	-2849	-13544	1944	4176	-1304	3448	595	-27144	2856	23192	1863	-6209	3535	-20488	-5368	-11072	761	-6695	1698	-1336	4168	-8032	-2783	-1549	-207	119	125	1
-8756	-7660	11040	-904	3648	1134	-16788	-3000	-136	-5877	8034	-1347	-15536	1256	-3288	-1063	2034	628	-30184	6776	20880	1423	-6091	3165	-23960	-1536	-14016	901	-6594	1868	-3968	2104	-2296	-2137	-1517	-364	119	130	1
-9572	-7544	10940	-808	4765	2002	-16064	-2140	-492	-499	9615	358	-16016	944	-4512	-849	1810	697	-32768	9056	16680	1174	-5629	3162	-24824	560	-16520	345	-6545	2108	-6720	-2376	1768	-1205	-1483	39	119	123	1
-9344	-6740	12460	-766	5484	2819	-17072	-1688	-1788	2638	11131	2331	-20968	-5480	-1952	588	1675	586	-32768	8072	10832	906	-4832	3380	-21416	5040	-19224	-1074	-5746	1685	-7560	-9208	10752	94	-1060	127	123	127	1
-8952	-10440	11348	-1452	7704	5066	-19972	-944	-1576	2152	13439	2506	-22104	-536	5808	586	1532	199	-32768	1400	-1392	-188	-3581	3410	-19128	3480	-21792	-2805	-4462	970	-16040	-3256	19024	2234	-1033	-512	126	147	1
-9344	-8036	14104	-1293	12194	8097	-20340	3316	-960	-1977	16966	517	-20232	6832	7192	-102	1246	57	-32768	-9016	-13424	-1609	-1588	2991	-16752	-2648	-28512	-3305	-2453	-108	-23480	2744	26888	2762	-642	-301	133	121	1
-10468	-6780	15784	-1215	18221	10341	-21772	2484	-1020	-4694	20278	-556	-21472	10472	7320	-1188	1329	83	-32768	-18184	-21960	-2068	-106	1670	-8064	840	-32376	-2147	-108	-586	-20776	14360	21664	876	-603	452	134	133	1
-9912	-6968	16232	-1260	19407	10647	-24924	-216	296	-479	23614	1136	-24256	5792	3872	-2036	1005	271	-32768	-20928	-19720	-950	1158	-213	-3864	-672	-32768	-1618	1965	-414	-16368	15184	11624	-839	669	648	134	167	1
-10040	-10436	16788	-196	32767	17784	-26092	-1120	2104	5090	26686	2093	-26128	-4456	1904	-2307	1004	415	-32768	-13408	-29448	-1858	3826	-3284	-9872	2560	-32072	154	3231	10	-22712	6472	22816	-3165	246	88	130	127	1
-8644	-10824	16520	-1703	32767	24448	-25904	640	4652	4572	28847	1283	-25544	-13376	7152	-1440	497	305	18064	32767	32767	-85	2605	-2688	-32768	6280	32767	1903	1706	116	-1280	-2288	-7344	-2569	1504	-629	131	113	1
-9700	-11200	19724	-3455	32767	32767	-32768	588	5776	-3842	29330	443	-30920	-13848	9592	30	-595	-185	-32768	12432	24768	-602	4915	-2125	-26824	-3520	-16648	3130	3592	-280	-30120	3848	13952	-1595	-707	-117	130	119	1
-19084	-21444	16468	-1529	32767	32767	-32768	-3696	14652	-12795	32767	2807	-32768	-13856	13736	92	-1005	-223	-17552	3680	9432	-699	3060	-2021	-4168	12640	-13296	855	3604	-1250	-23928	6528	-20168	-1385	2136	612	128	116	1
-29932	1728	20668	-11348	32767	32767	-27064	1572	-5880	-15452	30473	-4663	-22144	6352	-4480	592	-2737	-515	-17920	5512	13448	-976	1087	-1524	-7472	19480	-15904	-3340	3194	-819	-6392	-6720	-6264	1078	1431	1287	126	124	1
-32768	-27676	25444	-7782	32767	32301	-30496	-6412	-6464	-20217	32767	7383	-22184	3560	-22232	142	-2507	-1225	-15328	-4720	17368	-913	203	-569	-18456	-8552	-20192	-5326	1807	-370	-13384	1200	-10912	2130	1264	1206	120	101	1
-10148	-26992	22504	7161	30764	21067	-27340	-8136	-11276	-5534	23847	4070	-29032	8784	-12456	207	-2991	-2012	-10784	3888	13864	-407	211	-69	-29520	-16264	-12520	-172	2037	-444	-17800	10728	-9112	909	2452	69	123	139	1
-15720	-21256	32767	2176	-7582	-14912	-24740	3136	-4800	6348	10450	12649	-32768	6584	-8928	1244	-3391	-1703	-10376	5016	12968	-25	362	46	-12120	-1344	-10184	3146	1309	599	-21928	11640	-8016	-1450	2313	-152	123	139	1
-2920	-13184	19124	4551	-8959	-12876	-14968	-6844	600	5727	-549	8253	-26984	6480	-9504	1617	-3878	-1538	-9760	8056	11760	78	371	4	-18008	11016	-7432	2970	855	729	-22872	1976	-3344	-1410	2470	-62	123	131	1
-3296	-7808	17448	5438	-20770	-12388	-5364	392	-5732	11426	-11844	5967	-24040	8032	-7192	1185	-3771	-1883	-10016	7640	11648	-2	333	-65	-15992	11224	-6872	1264	588	347	-16856	-496	-208	170	2522	120	123	131	1
-4612	-8044	17860	5083	-22953	-12102	-5068	1196	-5548	10804	-22587	5135	-21144	10496	-5872	381	-3159	-1717	-10392	6216	12064	20	335	-31	-15792	6784	-6120	-162	553	-102	-14368	1360	-8	1258	2508	-22	124	129	1
-6844	-5876	12656	-1358	-32768	-19013	-9516	2868	-3984	4824	-31118	3707	-16920	9488	-7008	-63	-2448	-1354	-10376	7008	11504	90	357	-14	-17096	4576	-4128	-276	569	-321	-14888	7840	1152	1033	2653	-165	125	126	1
-5992	-7104	9256	-1277	-32768	-19850	-9464	6616	-3504	-3699	-32768	-229	-13768	8560	-7112	-176	-2049	-1187	-10104	8624	10736	98	300	-71	-16280	5840	-3864	38	708	-310	-13160	8656	824	484	2837	21	125	127	1
-7060	-7792	8264	-261	-32768	-21384	-7604	5412	-5312	-10633	-32768	-4891	-10080	7336	-8720	-440	-1463	-1106	-10272	8112	10712	36	205	-138	-12800	2512	-4368	441	569	-175	-14240	3760	56	-23	2835	258	123	128	1
-10816	-8748	10360	-1387	-32768	-27081	-9796	3392	-6196	-10848	-32768	-7924	-6760	4800	-10016	-468	-890	-951	-10136	7584	11064	-4	136	-187	-15312	3688	-4080	1001	424	78	-17584	-792	280	569	3025	456	125	124	1
-15952	-10268	13516	-1253	-32768	-32627	-13320	1232	-7904	-7426	-32768	-10072	-3168	2664	-10184	241	-706	-668	-10296	6648	11088	-15	121	-252	-16488	4072	-4008	1108	543	106	-15840	-2272	2656	1860	3257	574	123	112	1
-21060	-8000	16168	-3057	-32768	-32768	-17672	444	-8996	-2982	-32768	-9326	-152	1968	-10760	1447	-648	-63	-10176	5896	11920	10	157	-261	-16656	5000	-4000	872	662	-23	-13704	2264	7120	2616	3658	461	123	125	1
-24992	-7688	16600	-6614	-32768	-31107	-20408	2488	-9456	-1443	-32768	-9001	2728	3256	-9440	2422	-845	458	-10280	5792	11928	19	171	-268	-15992	4024	-2240	593	830	-213	-15576	5184	2024	2630	3537	307	124	126	1
-29836	-12464	18336	-6931	-32768	-25483	-25548	5048	-13684	-2868	-32768	-12687	40	3840	-6664	2805	-1179	618	-9840	7408	11768	125	393	-341	-15536	3904	-696	584	1075	-257	-16688	2512	-6128	1149	1655	36	125	128	1
-32768	-17224	19180	-7068	-32768	-26952	-30516	3920	-17392	-2895	-32768	-15841	-5520	5792	-632	2526	-1580	451	-10080	8440	12368	107	555	-495	-15824	4032	-1664	608	1320	-204	-18992	4984	272	280	1393	14	123	150	1
-32768	-14844	10536	-3152	-32768	-30424	-25740	56	-19220	-2065	-32768	-16133	-13440	7224	6760	1812	-2307	52	-10816	7568	12960	158	836	-673	-19328	4552	-3224	636	1578	-240	-20072	8808	8248	958	1501	25	125	128	1
-32768	-10108	840	751	-30873	-28587	-22348	-4420	-21696	8143	-32768	-14744	-28736	3104	16128	865	-2223	279	-10440	8160	14576	100	1324	-946	-20928	3544	-2912	560	1872	-320	-18712	5384	4768	1208	1242	205	124	120	1
-32768	13964	-4432	2714	-19849	-27756	-17344	5896	-27952	15117	-32768	-8127	-24560	576	25576	-2173	292	639	-11256	6552	14800	24	2075	-1217	-21464	3544	-2960	529	2229	-381	-19952	-640	3104	502	1259	100	126	124	1
-32768	12024	-22604	6743	-6609	-15654	-8672	-2908	-27820	11157	-11072	-1268	-16768	-744	25368	-2296	955	-1040	-10600	8240	15944	44	2981	-1572	-24096	4000	-1640	175	2591	-585	-23952	816	6280	924	1315	0	125	127	1
-32768	15504	-24856	-5874	2095	2344	-3052	7640	-29220	3043	10779	3059	-20120	-5688	13992	-1839	411	-1548	-10680	8040	16120	199	3913	-2023	-25800	2080	296	248	2930	-600	-23944	3736	6160	1488	901	-282	127	131	1
-32768	-40	-13548	-6917	11129	8679	-8284	868	-25464	-9381	23762	-2456	-16280	-6960	2000	-754	169	-618	-11008	7960	16224	223	4075	-2108	-26504	4952	4096	810	3245	-619	-23464	6840	10520	1191	496	-398	126	129	1
-14844	-11964	5160	1923	21553	2563	-13616	-3236	-19428	-4986	27704	-261	-11456	5152	13040	-1019	245	80	-9944	14424	14312	616	5930	-4009	-26264	7216	5808	1201	3475	-456	-22560	6736	20328	822	-247	-244	125	130	1
4708	-14400	32428	2006	27989	3618	-32768	-11276	32767	-2429	16869	-806	-2280	2512	-28856	-327	1725	-248	-14640	17968	18328	1038	7433	-5356	-32768	6792	10160	2483	3538	-158	-22920	6888	21472	781	-530	-203	126	126	1
-32768	15608	32767	2878	32767	14830	-32768	16448	-23092	31056	23733	-2187	-32768	-32768	28496	448	-1365	1489	-32768	11760	15040	1438	8101	-5881	-32768	6040	-3832	3223	3771	111	-28760	-4072	6968	749	-1809	-67	125	129	1
-23540	-11984	10740	-1221	23794	12319	-15948	1960	-12924	10230	32767	12453	-17256	19976	-22384	7302	-1071	-543	-32768	30176	19824	2439	8288	-4813	-32296	13776	776	4234	3341	-682	-24208	10328	-19984	3122	-3421	-885	124	129	1
-14724	-8072	10360	6676	9568	10945	-13048	-15376	-14596	25034	21486	5255	-8160	19512	-13384	3854	633	-907	-32768	32424	27408	845	4865	-4930	-24616	16248	-13352	1962	3086	-437	-26160	9736	-19944	2375	-3509	175	126	133	1
-16444	-272	15852	9481	3752	6752	-10748	7400	-16496	28206	12144	616	-4832	14544	-11192	389	2842	-335	-32768	30312	32767	-200	-1283	-1006	-20376	1520	-6648	-1116	2061	-320	-32768	3424	-9376	-1387	-4321	579	124	132	1
-10172	-6272	13392	4756	2291	1115	-18368	12020	-11072	-8047	13984	-2657	-15368	8576	-12352	-2422	1880	777	-1296	23792	19968	-186	-1969	1299	-25528	4480	-736	193	442	-196	-32768	1536	-8992	-1746	-4865	332	116	136	1
-9804	-6968	12552	2234	2093	348	-17000	392	-8212	-17705	12573	-6208	-23224	-5952	-8008	-1873	2258	1103	-6096	15440	18656	-506	-2955	2266	-9384	3240	-7136	-869	-1041	76	-30952	-8	-7384	-998	-4480	1130	118	126	1
-8932	-6516	11988	836	2498	546	-17652	-2504	-5588	-15161	9293	-7097	-22504	-7424	-7272	-1592	2251	965	-4072	9752	16672	-365	-4453	3237	-6360	840	-6224	-1060	-2313	310	-25744	-1488	-5448	-147	-4003	1468	118	120	1
-9392	-8104	11360	294	2978	435	-19268	-5740	-4500	-6233	7146	-4195	-18896	5056	-2424	299	2611	-32	-4024	6680	12008	-59	-5381	3569	-8560	1744	-2960	-1214	-3531	670	-19776	-392	-8368	52	-3455	1233	121	124	1
-8756	-6880	11796	396	3089	354	-16132	-2708	-3644	3707	5114	-832	-16520	5480	-1240	-475	2655	536	-5864	6312	10416	87	-5734	3442	-9408	368	-4184	-1639	-4464	1087	-15072	728	-10528	-101	-2777	1045	121	133	1
-9424	-6996	11156	-386	3105	94	-15820	-624	-4332	4977	4410	623	-13000	864	-584	-1143	2424	1095	-11552	7176	11736	383	-5908	3603	-10856	-2272	-6808	-1683	-5159	1321	-10120	272	-11440	-318	-2054	817	124	130	1
-9104	-8616	10516	-140	2953	147	-15916	-152	-2796	929	6149	-739	-10968	-2552	-1352	-921	2853	964	-12912	9472	13056	486	-5958	4173	-10944	-2136	-7352	-1481	-5975	1310	-5120	2592	-10872	-564	-1599	610	127	130	1
-9720	-6544	10532	-21	2555	471	-14344	196	-3020	-3819	6916	-2516	-15120	768	-2928	-661	2893	810	-18312	7696	16416	602	-5698	4649	-15552	-1352	-8776	-1550	-6510	1365	-1136	3536	-12128	-1627	-1068	247	111	131	1
-9672	-6784	11168	-273	2195	765	-15180	-104	-3644	-6125	6196	-3138	-17440	5656	328	-709	3410	550	-24384	4000	20152	1293	-5734	4746	-19768	-2296	-10408	-1490	-6811	1452	1352	1424	-13080	-3067	-886	-219	115	139	1
-9388	-7464	11016	-655	2520	976	-16464	-2292	-2876	-6885	6091	-2404	-16976	3640	2800	-1727	3676	562	-29272	7032	21144	1809	-5783	4260	-22120	-3528	-12792	-572	-6936	1564	304	416	-11104	-3828	-1040	-431	115	128	1
-9444	-7048	10852	-648	3653	1754	-18272	-3172	-2456	-3870	6654	-1498	-12472	1768	2160	-2497	3276	57	-32768	9000	21400	1455	-5842	3694	-25464	-1136	-14872	90	-6846	1900	-4552	-856	-4240	-3306	-1362	-784	118	132	1
-8864	-6884	11796	-941	6143	2703	-17472	-1068	-1192	-689	8185	31	-17608	-1800	-10824	-1129	1502	785	-32768	8112	17536	1525	-5496	3442	-27760	368	-18792	292	-6577	2067	-8648	-3040	4088	-1989	-1961	-631	118	124	1
-9080	-7188	12716	-1981	7849	3250	-17068	212	-952	-2703	10516	54	-18904	-4616	-3080	430	1647	1223	-32768	7056	11200	1527	-4872	3436	-22008	4792	-22728	-175	-5875	1735	-10480	-9600	11312	-392	-1828	-344	124	135	1
-9604	-9432	11348	-2395	10057	4873	-18276	-3724	180	-3361	13442	514	-25680	-3792	9624	371	1816	306	-32768	1344	-2856	734	-3994	3268	-19512	5568	-23872	-1216	-4588	1246	-21712	-7648	21696	2294	-1175	-533	123	135	1
-10000	-9776	13060	-2138	13637	7360	-19812	-1944	352	-2450	16888	649	-21360	136	7504	-875	1263	-194	-32768	-7960	-18632	-265	-2035	2797	-14120	-736	-31864	-1985	-2536	437	-24008	-2424	30072	4687	-248	553	138	121	1
-10632	-6788	15492	-2294	19740	10322	-22976	1352	-1164	-2488	20099	-72	-21600	4464	3488	-1213	1106	161	-32768	-16080	-26224	-207	-149	1715	-6736	720	-32528	-977	30	42	-17816	13544	20824	2623	-575	1112	135	136	1
-7976	-6596	13636	-3996	26050	11677	-24672	2632	224	-1274	21552	950	-22608	3016	1408	-1353	734	665	-32768	-14104	-20368	217	1336	470	-5176	1400	-31160	-791	2068	-34	-16048	18624	9888	455	271	821	133	140	1
-10200	-8848	16428	-4356	32767	13753	-24876	-772	2024	2649	25360	2421	-24528	-656	2064	-1186	827	583	-32768	32767	-7776	-2741	3526	-128	-10792	1240	-20520	-59	3442	-249	-14424	8528	3520	-1574	366	-62	132	128	1
-8480	-11536	14480	-5603	32767	19517	-27200	-1028	5316	2256	26652	2033	-25168	-5760	7776	-719	472	313	-1288	14184	32767	-2081	2877	-1362	-32768	10456	27216	1545	2442	-31	1992	11008	-16352	-1607	2061	-330	131	129	1
-8136	-11476	15688	-8838	32767	27241	-29628	-204	7188	-4578	28189	777	-26688	-9136	13088	-223	-374	-145	-30104	-30376	32472	-1043	4492	-4150	-29704	-12880	-20560	-1816	3518	-415	-2104	11296	-15536	-624	2070	23	130	115	1
-22696	-14180	11512	-10473	32767	32656	-32768	-2456	14100	-20859	32767	3160	-26680	-12728	11968	-1275	-3517	-987	-11248	21400	7592	-1532	3218	-2042	-16656	7144	-14784	-68	4032	-1383	-23648	8864	-16968	-6299	3306	396	129	159	1
-26800	-7112	19436	-19682	32767	32767	-28872	-196	-2912	-16817	32767	-4643	-23072	5408	-1576	-1016	-2797	-600	-30896	-6120	20352	-1475	1738	-1923	-7384	16952	-18416	-2650	3211	-877	-17408	-19520	-9176	-3010	1681	123	127	134	1
-32768	5088	24092	-22369	32767	32127	-27664	-7780	-4312	-19746	32767	6492	-19544	4864	-20344	-106	-2668	-1202	-22896	1808	18968	-1181	781	-926	-17584	-7232	-20784	-5510	2135	-617	-17304	-10432	-10984	501	1281	809	128	106	1
3636	-32768	27692	-2513	30195	21480	-30180	-7372	-10360	-5944	23978	3658	-29176	8784	-11304	-634	-2935	-2184	-13952	10032	12304	-561	308	-336	-27072	-15032	-14168	32	1912	-345	-15464	6472	-8496	2303	2560	1224	125	117	1
-22020	-22456	32276	4351	-9929	-8037	-26340	516	-6592	7243	11710	8907	-32768	7728	-9888	95	-3483	-2069	-10560	4392	14216	-192	188	-107	-14016	-2200	-8768	2457	1330	257	-18632	14344	-6880	102	2333	934	125	140	1
-3544	-13312	20088	1789	-13611	-12336	-17716	-3768	-1416	6878	-632	7277	-29672	8024	-10320	1204	-4015	-1552	-9592	6960	12584	-45	157	-84	-17408	6064	-6360	2607	959	575	-18336	6032	-2248	-831	2416	596	127	140	1
-6828	-11224	18628	3821	-23993	-15374	-9092	256	-6624	11410	-12019	5928	-25168	8736	-7424	818	-4080	-2002	-9512	7128	12224	0	108	-99	-15760	10696	-4920	1307	840	249	-19520	-1480	32	-250	2475	-25	127	124	1
-5804	-5200	16460	4355	-32768	-21122	-5652	3180	-6276	9239	-23750	4233	-22896	10200	-3840	120	-3429	-2232	-9168	7232	12104	8	91	-107	-14968	7928	-4240	-513	666	24	-15104	-1824	368	1474	2489	-311	127	132	1
-3896	-2232	10892	248	-32768	-21882	-8632	5632	-3736	3963	-30896	2680	-17584	11512	-5544	-74	-2665	-1750	-9144	6888	11736	5	153	-64	-17568	3648	-4880	-1090	581	-230	-13888	5368	432	1515	2545	-455	124	130	1
-7644	-5056	9812	1057	-32768	-18959	-9460	6068	-3872	2717	-32130	2033	-13448	10408	-6840	82	-2200	-1319	-9432	7192	11600	-23	182	-64	-17280	1256	-3640	-391	793	-286	-13168	8088	904	653	3009	-113	125	126	1
-9664	-2180	11476	141	-32768	-19100	-7180	9504	-6364	-14657	-32768	-5455	-8152	8040	-7408	-391	-1754	-1051	-9592	6888	11840	-42	168	-75	-14528	408	-3224	714	649	-29	-15008	3056	272	-103	3093	445	125	129	1
-14104	-4536	13460	-2997	-32768	-23144	-9296	6736	-6932	-17278	-32768	-8339	-4272	4400	-7232	-487	-1200	-608	-9448	6896	11840	-54	124	-110	-14408	5016	-3240	1192	506	224	-17456	-1688	1136	444	3112	618	126	125	1
-16096	-5036	15224	-3287	-32768	-25848	-13560	5552	-6780	-15364	-32768	-10580	-1632	1720	-7960	308	-1075	-199	-9456	5656	12040	-25	161	-124	-16240	4960	-3008	858	656	103	-15696	-1608	3328	1871	3126	445	126	115	1
-21448	-2868	15888	-6168	-32768	-25255	-17648	4144	-7744	-11504	-32768	-9918	224	2472	-9560	1629	-1137	203	-9464	6840	11880	-14	232	-123	-16328	5456	-2776	520	915	-126	-13472	2856	3896	2398	3086	313	124	125	1
-24640	-6572	15380	-6101	-32768	-21218	-18336	4832	-8856	-6954	-32768	-10365	1920	3392	-9544	2589	-1194	509	-9784	6280	12472	-5	303	-167	-15560	3824	-2024	326	994	-211	-15352	7816	1008	1913	2848	282	126	127	1
-28596	-8380	17852	-5341	-32768	-21924	-22100	7620	-13076	-8012	-32768	-11419	-2168	2720	-6664	2869	-1343	474	-9040	7392	12592	52	391	-210	-16088	3800	-3048	354	1161	-193	-15960	7632	-80	760	2319	59	124	130	1
-30692	-12644	17276	-3970	-32768	-22374	-27940	3068	-14752	-8089	-32768	-14139	-7824	5552	520	1461	-1952	52	-9552	7896	13048	65	564	-350	-18416	4264	-3448	650	1345	-170	-18592	2328	-48	-139	1931	131	125	130	1
-31976	-13564	17176	-3750	-32768	-22537	-28400	652	-20776	4204	-32768	-13762	-12064	7296	9992	16	-2114	-437	-9568	8264	13984	214	863	-597	-20240	3528	-2032	871	1443	-237	-20088	1152	2064	414	1786	191	126	130	1
-32768	-12752	-2824	6467	-28821	-32768	-20092	-3952	-24424	16110	-32768	-7938	-23112	2496	15808	-1247	-1195	559	-10328	9416	15176	133	1348	-910	-20280	3136	-1776	761	1853	-290	-21128	5136	5120	1148	1463	20	125	130	1
-32768	-6024	-16420	11411	-14775	-32768	-16088	-4888	-26588	23555	-27669	-3645	-23096	168	19984	-2700	829	653	-10704	7256	16544	-47	2160	-1286	-22696	3960	-3336	498	2261	-405	-21176	3112	4200	836	1387	159	125	121	1
-32768	14304	-19384	8408	-84	-30825	-9264	-2072	-26580	21592	-12057	209	-19896	-10808	17560	-2319	1196	-83	-11328	7192	17104	-145	3121	-1735	-26000	3456	-1416	305	2600	-618	-25184	1368	4360	849	1429	87	124	129	1
-32768	10076	-22756	5402	8773	-12703	-4904	-3516	-27500	18103	5725	2187	-16280	-13720	13152	-672	1067	-678	-10032	10592	17400	-269	4050	-2336	-25416	4608	2624	405	3016	-755	-25144	6016	7776	1320	986	-189	125	130	1
-32768	4876	-15144	-5340	13385	1725	-6332	4368	-26904	1775	20428	8	-14624	-10024	280	2143	192	-558	-9968	10888	15312	-296	4865	-3297	-24552	6416	4056	600	3443	-632	-22848	7168	11832	1283	453	-276	126	136	1
-30228	-8460	6384	138	27001	19671	-23288	-4160	-1284	-16132	27507	-5828	-19616	-5720	14640	810	-1241	-921	-9728	15968	17784	-24	5697	-4559	-28976	9344	6056	920	3701	-543	-24128	7608	17888	904	-324	-126	125	129	1
-28376	16464	26036	-4624	32767	23258	-32768	20848	-17564	15432	24553	-10162	-32768	-6536	-3080	-1420	1065	1078	-18512	18984	22256	-242	7356	-6103	-32768	7968	7216	1646	3687	-258	-32752	13856	23368	382	-3059	254	124	127	1
-20308	-20024	16892	-370	28396	13147	-23664	236	-9376	-1932	32767	9808	-20944	11312	-13752	5233	-110	1537	-24432	7512	15280	571	8257	-6158	-32280	2384	-7832	2322	3891	-47	-25488	-816	-2696	756	-2106	-187	126	124	1
-23712	-10796	11476	2032	23850	8067	-9336	-18068	-16852	18999	23678	5605	-9200	9496	-18504	3911	1182	-1106	-32768	28104	22432	1262	8161	-5542	-31120	11720	-2144	3814	3260	-715	-24416	1024	-15832	926	-3650	-498	126	130	1
-13388	-8140	12008	5346	10353	7925	-14360	-1524	-14464	32767	10436	6186	-7024	8576	-9232	1648	2456	-1197	-32768	32168	27984	273	5918	-5214	-24856	12440	-11144	2556	2619	-8	-28824	928	-20992	1789	-3754	177	125	135	1
-15004	-7700	12412	3591	6056	3482	-19864	15252	-17388	9801	12543	-123	-16216	8008	-15152	34	1890	-233	-32768	32767	32767	-378	-233	548	-20880	2416	-11848	-605	1916	-17	-32768	-4688	-11200	560	-4427	898	126	132	1
-10416	-5020	13892	1764	3614	1200	-15400	6036	-8988	-8721	12291	-5951	-21416	-2088	-8632	-283	2037	1345	2024	20008	19720	-1187	-1039	2922	-21400	5208	2136	658	133	224	-32768	1752	-7080	-95	-4935	542	124	146	1
-9364	-6720	11736	555	2656	621	-14400	1252	-6916	-22177	10866	-8544	-19272	1272	-4464	733	1793	1021	-3552	8744	17840	-611	-1375	2962	-8568	5472	-4376	-753	-1065	501	-27784	5336	-7096	14	-4424	1366	126	128	1
-8424	-8248	10680	616	2382	779	-16364	128	-6036	-22846	10388	-9097	-16264	3872	-2088	786	2552	349	-14624	6080	21752	-85	-3421	2809	-2664	3056	-7408	-1413	-1990	975	-22448	1120	-6672	272	-3800	1904	124	117	1
-9116	-7724	11320	659	2340	965	-17584	-5116	-2380	-5373	5813	-4429	-15024	5120	400	3	2683	311	-11192	2432	17256	809	-6146	3091	-6088	1024	-3048	-2088	-2930	1400	-17624	-1528	-7800	22	-3388	1359	124	121	1
-9032	-6396	11664	163	2212	562	-16652	-1224	-2400	3369	4869	-1095	-14576	4440	192	-649	2471	832	-6776	3896	10600	1409	-6954	3325	-14136	-2792	-3432	-2434	-4077	1568	-13584	-1976	-9680	-318	-2728	1025	125	131	1
-8912	-7220	10916	22	2531	228	-16348	-1816	-1884	6902	4741	980	-13792	-200	-608	-890	2641	1044	-6704	4920	9040	1413	-6302	3810	-13864	-9360	-4728	-1939	-4851	1493	-9680	-608	-10904	-620	-2154	872	123	130	1
-8728	-7956	10488	752	2483	793	-15584	-360	-2420	5819	5561	-10	-13752	-2424	-1760	-587	2822	894	-10552	5776	12976	1274	-5449	4750	-11808	-7512	-6864	-723	-5646	1712	-5272	48	-10896	-892	-1821	586	112	127	1
-9512	-7148	10988	1249	1850	638	-14960	2024	-3100	239	6966	-1984	-15080	2536	176	-591	3166	512	-16688	1528	18624	1263	-5027	5179	-15216	-1752	-7392	-770	-6116	1840	-2208	1320	-10632	-1721	-1487	240	119	129	1
-9404	-6436	11052	766	1703	200	-15596	864	-2728	-5933	7838	-2776	-17288	4456	2384	-1248	3654	528	-22528	-3328	22224	1925	-5282	4554	-18280	-1920	-9920	-1286	-6437	1787	-1056	792	-10104	-2669	-1349	-198	123	133	1
-9244	-6952	11604	-75	2299	399	-16764	-1316	-2136	-8284	7999	-2585	-14552	3256	3024	-1796	3585	609	-27656	2888	22648	2238	-5690	3720	-20808	-5664	-12016	-720	-6577	1728	-1744	1896	-8440	-2952	-1548	-411	124	128	1
-8604	-7676	11148	-542	3506	1147	-16980	-3180	-124	-4705	9179	-1029	-15040	888	-5136	-1204	2310	416	-30008	5944	21896	1739	-5727	3533	-23576	-4088	-14008	229	-6611	1945	-4984	2072	-3152	-2411	-1449	-581	123	127	1
-9460	-7256	10844	-558	4574	2085	-15624	-1964	-696	-916	10597	140	-16024	-4096	-9960	-121	1228	1083	-32768	6536	19312	1673	-5267	3613	-26568	-1736	-17496	411	-6656	2026	-7688	-3024	1840	-606	-1255	-367	124	128	1
-8956	-7092	12220	-949	5828	2373	-16396	-1544	-420	1564	12357	1883	-20592	-4744	1200	713	1782	691	-32768	5056	16320	1470	-4808	3591	-22664	4536	-20832	-184	-6126	1740	-7416	-8480	8152	864	-884	88	128	126	1
-6256	-8156	12780	-2493	8680	4249	-20804	-1384	-344	1295	14644	2582	-23896	432	6504	324	1566	52	-32768	2136	1560	344	-4337	3058	-20920	6432	-21728	-1456	-4978	1226	-8512	-8104	9824	1215	-835	17	132	147	1
-9336	-8856	14336	-3284	12310	7151	-20192	1360	80	-2265	18084	798	-19784	5952	5752	-515	1151	-60	-32768	-10312	-16296	-757	-2601	2323	-15456	-1736	-29416	-2711	-2858	355	-23352	4848	28680	3907	-772	270	131	114	1
-10024	-7132	15692	-2733	18115	9393	-21312	2252	-1556	-3668	20766	-339	-20336	6952	5272	-1381	1107	44	-32768	-20712	-24512	-1069	-434	1285	-7648	-432	-32632	-1309	-411	-139	-21904	19440	23624	1271	-648	1037	132	134	1
-10168	-6920	17052	-3198	26111	11343	-21668	2288	-2032	-3496	21183	-246	-21984	5448	1000	-1653	1009	201	-32768	-20080	-22736	-877	1130	-331	-3792	1456	-31312	-1127	1965	-292	-15376	18216	12616	-827	438	512	129	127	1
-9812	-9276	17052	-4028	32767	14334	-31424	-164	1164	4168	26233	2441	-24576	-2648	1136	-1758	897	460	-32768	-5328	-6640	-468	2099	-789	-6792	-984	-29872	-807	3441	-344	-15040	7200	5912	-2864	907	-391	128	130	1
-9696	-11068	15092	-5883	32767	18995	-25312	308	3552	3589	27671	1566	-22856	-8920	6368	-978	393	246	11520	9112	32767	-1069	3610	-2057	-32768	13032	32767	1995	1759	41	744	4248	-16968	-2102	1780	-455	128	121	1
-7168	-10736	17116	-8074	32767	26696	-30600	128	5552	-3674	28619	1316	-29056	-9544	19744	-85	-824	-133	-32768	-13800	27120	-990	5416	-3248	-31456	-8952	-26904	-145	3513	309	-32768	14848	25600	-2148	-2115	372	129	132	1
-18888	-22116	16368	-10395	32767	32767	-32768	-160	11928	-14575	32767	2735	-25008	-5376	1032	-94	-2225	-767	-32768	6288	19440	-965	2330	-1722	-14048	7832	-18504	-153	4088	-1274	-30616	5528	-21976	-4476	3370	233	128	142	1
-32768	-8092	17996	-17365	32767	32767	-29124	-660	-1840	-16371	32767	-4694	-25608	2312	-1808	-1031	-2703	-298	-24816	8608	13424	-923	398	-738	-5792	12464	-20648	-3266	3288	-1166	-13200	-18976	-10264	-169	1161	996	128	129	1
-32768	-20432	21924	-25095	32767	25351	-28756	-6060	-2652	-23867	32767	8125	-20848	1880	-21800	-368	-2439	-1053	-12064	304	15752	-492	187	-141	-14632	-8512	-18000	-4717	1924	-376	-11592	-11824	-13064	1890	1663	1408	126	101	1
-27344	-32768	22360	-7941	32767	24782	-30144	-8236	-15040	-8131	24781	5261	-28472	4184	-13368	8	-2947	-1903	-9824	5360	13600	-30	344	125	-18216	-12576	-17632	-4115	1761	-301	-13032	6776	-9680	2972	2158	297	124	130	1
-32768	-21464	32767	7921	-5060	3994	-22592	412	-10876	8428	15336	11207	-32768	7128	-10896	1550	-3434	-1977	-9680	6520	12112	190	388	132	-12096	3336	-9152	3512	1008	768	-20800	21072	-8968	924	1892	-83	125	141	1
2440	-14648	18512	2469	-10214	-3605	-18108	-4108	932	4691	1572	13607	-28712	6440	-10128	2169	-4132	-1539	-9352	8544	11400	205	353	48	-18568	13160	-5904	2627	770	684	-19952	11032	-1896	-1113	2188	363	126	139	1
-5280	-12468	15316	7341	-17342	-3641	-9016	-876	-5992	12099	-8697	8622	-25296	7616	-7792	1604	-4198	-1769	-9640	8080	11616	109	310	-6	-15136	12480	-3624	1002	679	239	-20560	40	1768	-285	2509	249	125	123	1
-5896	-7900	14896	9127	-31212	-9130	-3140	2124	-6748	8575	-18407	6749	-22208	10280	-4584	808	-3626	-1701	-9544	8016	11776	120	323	-16	-15416	7544	-4144	-194	655	-56	-14688	-648	1816	1365	2335	-155	126	132	1
-6468	-6316	11876	4796	-32768	-14330	-6256	2144	-4760	3463	-26362	5511	-18440	9184	-6528	233	-2885	-1364	-9728	7888	11440	128	305	-31	-16752	4752	-3752	-254	604	-177	-12144	7248	1808	1400	2265	-314	125	134	1
-6720	-6452	11360	3796	-32768	-15098	-8568	4024	-4932	-3492	-32149	2574	-14288	7984	-7392	237	-2318	-1229	-9640	7960	10992	107	251	-107	-15824	3368	-4104	237	653	-117	-11600	10384	888	867	2643	55	124	127	1
-5868	-8488	6420	2579	-32768	-17004	-7356	4260	-7084	-11646	-32768	-2081	-10616	6528	-8280	-58	-1866	-1025	-9952	8336	11032	78	196	-140	-14184	4352	-4304	693	567	1	-11928	9336	896	715	2673	140	124	134	1
-8080	-7576	8048	920	-32768	-20950	-7800	2880	-5364	-11030	-32768	-5677	-7056	5088	-9776	-193	-1290	-708	-9744	8040	11016	35	124	-205	-15272	4584	-4248	895	466	155	-17792	-2472	192	964	2998	523	125	124	1
-12020	-10648	9664	-881	-32768	-27805	-9440	1852	-5984	-10432	-32768	-7664	-4488	3296	-10520	96	-1004	-456	-9704	7408	11488	15	115	-234	-16360	4608	-4296	902	466	155	-16800	-1816	3848	2368	3286	489	126	122	1
-16328	-10736	12100	-1016	-32768	-32736	-13860	-176	-8440	-5800	-32768	-9603	-1288	2384	-10888	853	-790	-76	-10008	6096	11960	53	174	-233	-16768	4336	-4288	793	535	4	-14528	4072	5472	2592	3622	446	125	127	1
-23108	-8704	14356	-4931	-32768	-32768	-16912	388	-9736	-2249	-32768	-8576	1944	3008	-10384	1907	-773	351	-9528	7336	11536	103	258	-223	-16168	4384	-2600	789	713	-134	-14568	7672	-2088	1918	3018	272	125	128	1
-27376	-12428	15124	-7542	-32768	-32768	-20544	2892	-12076	-1873	-32768	-9908	2080	4048	-9280	2490	-921	614	-9120	7832	11768	142	339	-303	-14944	4080	-1848	789	855	-118	-15104	8408	-8600	553	1520	185	125	131	1
-32768	-16512	15740	-5946	-32768	-32768	-27408	3556	-15336	-4076	-32768	-13307	-1856	4960	-5344	2568	-1031	581	-9864	8096	11712	144	452	-411	-15296	5016	-2160	925	1091	-100	-19128	7904	1928	-187	1383	-23	125	136	1
-32768	-19556	10708	-216	-32768	-32768	-28688	-1716	-18644	100	-32768	-15799	-7856	4552	1432	1603	-1255	69	-10080	8296	12064	189	624	-565	-17904	5760	-1808	809	1358	-228	-19544	7504	4312	-220	1423	-123	126	130	1
-32768	-18112	1356	3458	-32564	-32768	-23436	-6104	-21372	9324	-32768	-13762	-18272	3352	10688	658	-1630	-398	-9856	9224	12464	165	905	-806	-18608	4608	-1016	676	1691	-270	-18424	3816	6656	1059	1404	56	126	127	1
-32768	-14728	-9784	4218	-21535	-32768	-22408	-3736	-22744	20194	-32768	-11005	-29656	2672	26320	-465	-602	131	-10576	8104	13144	128	1431	-1018	-18600	4088	-2216	649	2104	-337	-17272	-1920	4224	630	1170	215	124	121	1
-32768	12532	-12560	-607	-5631	-32768	-14012	3644	-26424	16707	-22625	-6788	-21432	-2088	25120	-1355	1079	80	-11528	6704	15280	26	2151	-1217	-20952	3112	-4120	249	2497	-484	-20344	-4016	3784	775	1100	345	125	128	1
-32768	8640	-23692	-55	4206	-14492	-5568	-3764	-26632	9652	-1030	-4481	-19376	-7744	22560	-1269	299	-899	-11112	7944	16048	69	3065	-1500	-24936	1776	-2704	48	2765	-661	-22776	1456	3512	2142	1090	10	126	128	1
-32768	12980	-17120	-6131	6822	6194	-2092	6524	-25324	-2708	16542	-1666	-17928	-6040	8352	-58	159	-1050	-10888	9296	16272	285	4039	-1902	-25328	1704	-2536	47	2804	-657	-23448	8864	6224	2334	849	-386	124	131	1
-32768	-32568	-19420	10311	24920	16832	-14480	-3384	-12972	-5572	24257	-5908	-14848	-264	1232	352	747	-757	-10136	13264	14488	430	5064	-2873	-26904	7112	3408	855	3454	-497	-23152	9032	6832	2044	697	-410	124	133	1
16084	-32768	32767	8619	32767	17890	-32768	-8408	32767	-2455	17739	279	-20808	128	5864	-2261	458	-441	-9688	13920	16520	770	6219	-4300	-31952	9048	3216	1100	3625	-245	-28936	9448	19056	522	-720	-32	124	129	1
-32768	9728	26380	3717	32767	17245	-32768	17548	-13284	22077	29114	-2041	-32768	-28856	-1736	-36	-544	1012	-23496	15328	19264	1151	7859	-5703	-32768	4784	10352	2371	3658	-18	-28512	6112	18960	-518	-3480	453	125	128	1
-15856	-15512	6576	-5125	31262	12867	-12656	-1844	-10972	2416	32767	10964	-11312	4504	-8696	6339	-336	-97	-26408	-6720	15984	1963	8294	-5613	-32768	3120	8688	2347	3765	2	-25792	-5200	-1168	464	-2100	-280	126	127	1
-15832	-15892	4280	-4744	29921	11180	-11972	-22000	-20264	26157	23196	2627	-7704	15760	-23136	5045	154	-1306	-32768	28152	18360	2881	7911	-4869	-31080	11504	-4288	4066	3223	-448	-24624	1976	-17352	1748	-3463	-490	124	129	1
-20656	-6532	14452	10105	3295	9751	-14268	5908	-19580	32767	11042	3811	-6968	13944	-10672	1137	1801	-604	-32768	32767	27288	1703	4732	-4814	-21632	13808	-15288	1831	2762	371	-26272	3304	-18792	2103	-3397	-397	127	137	1
-10084	-5488	12900	5575	838	2361	-23684	17740	-11040	5423	13200	-275	-17784	10720	-11720	-703	1798	571	-32768	27816	32767	-572	-1600	-610	-18240	1376	-10080	-671	1371	92	-32768	-1272	-9592	609	-4652	604	125	132	1
-9856	-6700	11888	3106	1460	636	-13248	4668	-9776	-19905	15140	-7712	-22912	-2416	-8632	-1256	2178	1095	2056	18168	17608	-2	-2384	1763	-21832	752	328	593	165	166	-32200	4160	-6512	-29	-4606	343	127	136	1
-9456	-6200	12188	1795	1427	634	-16508	-2608	-6316	-22879	11323	-9666	-20872	-336	-4896	408	2282	244	-5248	11528	15912	145	-2907	2323	-8008	1104	-5768	9	-1187	588	-27200	4640	-6144	-158	-4249	1399	125	127	1
-9472	-7728	11340	1129	1877	681	-19496	-6696	-4444	-11480	8266	-5760	-16752	3888	-2880	193	2543	-41	-3736	8120	16128	187	-4331	2953	-4792	-480	-4520	-286	-2402	956	-22784	832	-5976	32	-3838	1517	124	118	1
-9628	-6560	11624	924	1930	426	-17028	-4600	-4284	3917	5875	-767	-15680	3584	-1824	-253	2634	628	-5560	3768	13672	167	-5080	3202	-8128	1136	-3176	-851	-3326	1467	-18768	-864	-7672	-10	-3402	1063	125	124	1
-9148	-6904	11568	280	2287	-54	-16540	-1824	-3656	11044	4217	2297	-14168	672	-2768	-597	2444	1120	-7416	2968	12584	459	-5583	3271	-10832	-1008	-3176	-1552	-4163	1546	-14184	-1328	-9912	-34	-2733	833	126	134	1
-9272	-7912	10612	127	2689	-249	-16148	-104	-4464	9257	4180	2025	-12336	-3488	-3848	-364	3031	957	-9528	4088	13616	779	-5892	3573	-11216	-3392	-5744	-1871	-4870	1501	-9528	64	-10560	85	-2109	678	125	130	1
-9268	-6920	10940	108	2402	58	-15132	2540	-4552	1529	4434	-1163	-14000	1096	-3608	-125	3204	732	-11568	5568	13960	773	-5737	3982	-12216	-4176	-5744	-1741	-5781	1406	-5440	2120	-10416	-302	-1791	510	119	129	1
-9304	-6208	11172	-163	2036	39	-15324	2228	-4132	-6045	4425	-3850	-17104	6600	-496	-288	3670	562	-18096	4000	17456	964	-5570	4342	-15088	-3944	-8520	-1634	-6236	1466	-2440	2728	-10960	-1387	-1186	233	120	129	1
-9692	-6304	11168	-692	2384	145	-16284	-524	-3012	-8676	4414	-4074	-15848	6400	2672	-1218	3749	690	-22408	1864	19472	1692	-5780	4320	-18136	-3912	-9800	-1154	-6532	1451	-264	1512	-11280	-2570	-902	-123	116	131	1
-9512	-6312	11044	-862	3436	578	-17016	-2992	-1204	-7839	6013	-2355	-13608	2552	1528	-1925	3178	354	-28352	5872	20600	1907	-5835	4067	-19992	-4000	-12600	-233	-6710	1656	-96	1352	-9920	-3030	-921	-410	118	123	1
-9544	-7812	10868	-710	4086	1316	-15584	-2960	1204	-4063	7825	-727	-14928	-472	-5320	-791	1520	725	-32208	7424	20856	1546	-5759	3981	-23760	-1064	-14312	214	-6712	1792	-3608	1056	-3312	-2571	-1141	-699	120	135	1
-9820	-6340	11104	-623	3779	1694	-14464	-1880	-1104	-640	9507	311	-17784	-5688	-4776	20	1646	766	-32768	7904	16912	1472	-5480	3834	-25992	-192	-17304	390	-6509	1960	-6640	-120	2328	-1627	-1533	-458	123	133	1
-9836	-7156	12000	-1270	4838	2070	-17944	-1632	-2228	730	10997	2081	-22496	-3216	1728	169	1798	112	-32768	6800	11656	1153	-4811	3440	-22960	6488	-20312	-397	-5894	1679	-8888	-7184	9408	-397	-1336	-34	132	127	1
-10452	-8036	14380	-1727	9536	4062	-20048	-1644	-860	-737	14491	1376	-22536	3008	3896	-367	1355	36	-32768	2272	-552	463	-3997	3271	-18904	3768	-23096	-1756	-4643	1107	-19336	-5512	20944	1692	-1275	-336	131	141	1
-10012	-8764	12948	-1674	11505	7014	-18932	724	312	-3668	17284	-64	-18480	5624	5304	-899	1064	168	-32768	-7648	-15840	-894	-2214	2678	-15376	-296	-27880	-2488	-2674	275	-23024	1576	27312	3226	-491	241	128	124	1
-10428	-6832	14736	-1924	16347	8746	-20080	1364	-1612	-4680	20222	-419	-19736	3664	4936	-1480	1096	175	-32768	-16480	-22008	-1146	-203	1770	-8608	-328	-31296	-1657	-385	-265	-20488	13184	22480	1440	-534	659	128	135	1
-10748	-6740	16136	-1721	23602	10576	-23740	-684	-1560	354	22875	1476	-23208	3200	312	-2054	938	22	-32768	-18152	-21376	-670	1039	33	-5312	1344	-29520	-991	1780	-262	-16760	16104	12936	-88	186	517	129	147	1
-11168	-9400	16508	-1211	32391	14116	-25728	-1176	-260	5736	24859	2334	-24616	-200	-632	-1664	923	351	-32768	-8184	-9000	-287	1989	-1084	-6736	-728	-28008	-516	3158	-238	-11232	5168	1120	-1586	863	-264	128	131	1
-8552	-10864	10088	-4171	32767	18641	-26100	684	2168	3235	25765	325	-23240	-9848	4864	-797	426	417	-4400	6304	32767	-1284	2910	-2258	-32768	7208	20600	2044	2365	106	1152	-864	-10160	-2349	1239	-599	127	136	1
-7712	-10500	15924	-5250	32767	26156	-26616	-324	5876	-3633	29337	-892	-24000	-9168	9048	46	-161	-168	-27032	-14992	16728	-642	4867	-3834	-32768	-6024	-16704	-206	3224	395	-26248	4104	10416	656	-748	228	126	110	1
-13612	-8468	19104	-7258	32767	32767	-32768	-2260	6840	-13504	28287	273	-27808	-9008	17888	-113	-3326	-838	-15304	19520	13288	-667	3727	-1914	-25040	7752	-6096	55	3807	-1320	-30800	18168	-896	-3484	1348	-95	127	118	1
-31972	-14912	16924	-11540	32767	32767	-28884	-652	-864	-14213	31849	-3982	-19640	4936	1288	-630	-2283	-520	-32768	2624	18688	-919	2105	-1666	-6904	14712	-18696	-1512	3619	-1156	-25800	-8096	-13656	-3394	1505	1251	127	140	1
-28344	-7436	20348	-19319	32767	31440	-28260	-1484	3192	-23915	30724	2285	-21976	3464	-17360	-1022	-2317	-640	-22232	12384	14640	-1329	263	-966	-8992	9008	-18328	-5144	2460	-526	-13176	-12392	-10288	230	1323	1245	125	102	1
-32768	-30348	22908	-7475	32767	30066	-28368	-4172	-13616	-15051	29357	3419	-25184	-136	-16664	-1259	-2388	-1447	-12448	4208	13840	-589	89	-164	-32768	-17360	-16120	-3118	1836	-442	-13624	5144	-10792	2637	1797	854	127	129	1
-29960	1320	16484	7431	21077	14778	-21608	-4176	-10276	-7712	22225	5323	-31288	2464	-12344	517	-3005	-2048	-10296	5080	13512	-162	163	18	-15344	-8264	-10312	2132	1550	140	-18712	16112	-9456	278	2272	577	127	133	1
3648	-20336	22340	-1678	-10550	-10900	-21780	-4096	228	-3274	6060	13786	-31336	3264	-12232	1819	-3616	-1716	-10040	7128	11728	46	212	53	-14408	5696	-8328	3464	846	886	-20664	8088	-6456	-1455	2091	402	126	138	1
-6616	-14684	16372	7030	-13898	-8866	-11368	-5428	-3820	7695	-4007	6784	-27752	8080	-9600	2231	-4254	-1642	-9952	7696	11632	76	202	10	-18024	11312	-6480	1890	673	520	-21592	-1800	-1352	-861	2300	153	125	119	1
-7548	-7432	17368	9284	-27405	-13337	-5224	648	-7856	12974	-14952	6477	-24856	12056	-6088	1231	-3768	-1773	-9944	6968	11776	33	219	-8	-14568	8664	-6160	27	543	237	-17104	-2648	-568	977	2372	-76	125	131	1
-3700	-5492	14836	3558	-32768	-20301	-8124	616	-5260	10258	-26336	7570	-22440	11784	-5760	210	-3020	-1684	-10048	6832	11600	73	255	41	-16728	4520	-6152	-680	385	-69	-16152	-2272	-416	1241	2375	-106	124	132	1
-5404	-8088	9260	1407	-32768	-20679	-10068	2636	-4668	7331	-32768	4839	-17280	9656	-6576	174	-2412	-1697	-9760	7624	11080	166	295	50	-18624	2376	-4088	-120	503	-116	-13696	7920	784	1063	2767	-182	126	123	1
-6256	-7016	7736	1705	-32768	-18446	-7748	6480	-5248	-1034	-32768	629	-12632	8440	-7960	84	-1774	-1476	-10000	7920	10880	162	263	-3	-14688	1696	-3288	871	500	-29	-12976	5000	512	484	2777	270	124	134	1
-7936	-7604	8480	-1372	-32768	-21009	-6912	6292	-6412	-10067	-32768	-4451	-8440	6360	-8760	-213	-1137	-1032	-9688	8440	10472	113	200	-62	-13912	5208	-3664	1583	249	185	-16624	1616	-16	519	2745	424	126	137	1
-12008	-10220	10144	-2191	-32768	-26082	-8652	3780	-6424	-12176	-32768	-8351	-4168	4280	-9200	-218	-808	-635	-9920	7920	10600	41	126	-168	-16472	7480	-2768	1311	209	293	-18552	360	1320	1589	2958	587	126	125	1
-16024	-9044	13556	-2433	-32768	-31660	-13176	2916	-8412	-11010	-32768	-10756	-608	1728	-9664	428	-540	-34	-10112	6864	11152	-19	70	-227	-15168	5872	-2640	908	471	38	-14048	1552	5120	2597	3080	540	126	123	1
-23588	-6868	15740	-6095	-32768	-32558	-17848	2128	-8772	-8802	-32768	-11112	2296	2856	-9272	1805	-645	599	-9784	8136	10720	-64	70	-244	-15432	6704	-1784	655	654	-209	-11896	6392	6464	2620	3263	416	127	130	1
-25348	-9268	15932	-7751	-32768	-27319	-20128	3156	-10200	-5973	-32768	-13105	3216	4928	-7848	2712	-1013	950	-9968	7440	11136	-63	79	-323	-14824	4472	-1872	509	776	-239	-15880	8040	600	1959	3009	337	125	133	1
-30364	-13124	18888	-7988	-32768	-25226	-25872	4276	-13768	-6935	-32768	-16574	-808	5344	-5576	2994	-1120	895	-10192	7776	10936	-23	102	-410	-15592	3168	-952	810	1043	-169	-18904	5104	-4600	1026	1379	104	127	130	1
-32768	-15940	18904	-6662	-32768	-27529	-29972	1716	-16192	-2778	-32768	-18019	-8408	6312	2296	2201	-1500	374	-9624	8296	12744	60	254	-582	-17488	4304	-2184	797	1244	-115	-18768	2088	1520	318	1394	102	126	132	1
-32768	-12576	12712	-2774	-32768	-32768	-27864	-1828	-17888	6737	-32768	-14914	-18576	5080	10064	856	-2063	-11	-10008	7528	13648	206	645	-655	-20320	3328	-1512	609	1575	-268	-19536	6616	7144	928	1516	6	123	129	1
-32768	-11176	-2264	6414	-24190	-32768	-21600	-4084	-20888	20326	-32768	-9471	-32384	-168	19328	-849	-1170	-89	-10448	8720	14544	230	1173	-776	-20032	3232	-2000	507	1893	-405	-18624	4392	4416	734	1340	98	126	117	1
-32768	1140	-12704	7939	-11441	-32545	-15164	1912	-25936	24297	-26325	-4638	-23728	-96	26616	-2143	598	-145	-10840	9264	14792	82	1892	-1056	-20352	4080	-2096	278	2301	-433	-20008	784	4240	439	1302	117	124	126	1
-32768	13952	-21092	3115	-1022	-18306	-6500	768	-26136	13383	-6060	-606	-18312	-7040	23736	-1697	575	-1112	-10376	7640	16152	62	2736	-1352	-23000	4080	-1056	41	2669	-667	-22816	1584	5992	912	1193	36	124	131	1
-32768	15572	-17788	-3821	4095	4256	-4568	6052	-26596	-291	12186	59	-17312	-9144	12912	-1123	-32	-920	-10976	8720	15736	151	3662	-1856	-24904	3728	288	174	3003	-668	-24272	4632	5232	1227	851	-275	127	132	1
-32768	-10824	-2804	4441	13848	11466	-10412	-220	-20584	-14226	22710	-2863	-15480	-1464	1016	316	-124	-262	-10464	11712	15640	259	4662	-2647	-26648	4744	1768	537	3413	-579	-23520	8272	8824	833	431	-365	126	131	1
-32768	-3572	17200	10061	23634	25246	-28176	-8260	9376	-19411	27729	-1995	-16440	1520	11672	-1510	-1124	-241	-8336	14128	16512	452	5717	-3823	-29696	7480	4368	919	3586	-468	-25248	7280	15784	512	-156	-163	124	129	1
-27436	-464	17872	4325	32767	17974	-32768	14240	-13820	16040	25730	-6882	-32768	-4344	-6960	-1851	915	856	-15176	16328	18344	645	7316	-5376	-32768	6632	8064	1490	3562	-274	-31576	11600	18384	87	-2262	60	125	126	1
-17824	-7840	20152	2570	27236	11778	-19116	-2384	-7616	4247	32767	10332	-32768	-11736	-6744	-2065	812	1171	-32768	13008	18784	1046	8154	-5906	-32768	3704	-720	2194	3820	-62	-21856	-5192	-504	316	-1729	-424	124	123	1
-19236	-13160	9668	2036	22095	7316	-9052	-12864	-15532	24854	22698	9001	-14648	-5552	-11448	4607	400	115	-32768	14416	18992	3158	8669	-4287	-29240	7816	1152	3390	3239	-533	-24272	-1992	-8608	342	-3345	-701	125	127	1
-15476	-7348	13324	4053	10364	7937	-13588	2920	-16552	32767	11272	9213	-5560	12904	-7912	2236	1599	-762	-32768	32767	27256	1949	6573	-4894	-27216	14176	-6816	2839	2950	-222	-28184	4912	-19224	2486	-3543	-271	127	131	1
-12752	-2452	15060	2495	4936	2776	-20512	16948	-15596	11269	11356	2109	-17424	15176	-14248	651	1619	422	-32768	32767	28896	-1544	1378	-3208	-18440	6352	-16840	-523	2127	398	-31504	112	-13200	1100	-4280	618	121	133	1
-10332	-5764	12884	994	2709	495	-15156	5932	-8992	-15068	13326	-7226	-21168	4000	-7704	-441	1983	1528	4296	23224	22392	-474	-1966	1431	-23992	3696	-344	158	743	-339	-32768	3664	-8288	-161	-4726	381	120	133	1
-9940	-7396	11700	519	2204	414	-14748	-1156	-7164	-24079	11217	-8579	-19648	-1024	-5376	-304	2085	829	-5112	13840	16712	-295	-2242	1901	-12880	2272	-5328	-144	-684	135	-28464	6120	-6408	-791	-4415	1083	120	130	1
-9080	-8084	10828	1004	1968	720	-19596	-6592	-4524	-17074	8026	-7807	-19776	-656	-4632	-148	2153	696	-7920	10240	17456	-304	-3852	2609	-4376	1016	-6816	-722	-1837	416	-24792	1944	-5368	-462	-4005	1568	121	120	1
-8600	-7564	11204	1923	1962	901	-16728	-5972	-2648	-2023	5570	-2254	-15880	2656	-976	-409	2792	149	-3880	5904	13632	-194	-5077	2875	-7024	2160	-2032	-775	-2986	880	-19984	-456	-6520	-334	-3597	1126	122	122	1
-8848	-6576	11844	1835	2150	892	-17228	-2392	-2436	6583	4144	885	-15528	1824	-1504	-878	2540	941	-6088	3960	10992	117	-5677	2850	-10152	432	-4248	-1437	-3880	1124	-15368	-504	-9104	-386	-2978	809	124	132	1
-9144	-7416	11144	1514	2491	785	-16136	-1032	-3012	8831	4203	2159	-13016	-2008	-1136	-749	2597	1217	-9760	4744	11392	669	-5879	2954	-10728	-1856	-5208	-1587	-4591	1228	-10456	344	-10168	-418	-2285	631	123	131	1
-9380	-6928	10744	1126	2214	556	-15184	1244	-2760	3752	5722	516	-13400	-1400	-1592	-342	2861	918	-11624	9528	12160	750	-6051	3506	-11120	-3152	-6472	-1314	-5388	1307	-6312	1208	-10304	-613	-1962	467	123	131	1
-9684	-5832	11104	762	1628	265	-15028	2008	-2492	-3296	6719	-1848	-16136	4576	424	-530	3238	449	-15240	6992	13784	754	-5643	4271	-13984	-2376	-6624	-1123	-6035	1426	-3656	2872	-10160	-1330	-1522	252	122	130	1
-9220	-6040	11868	235	1629	561	-15816	-140	-2152	-6948	6814	-2289	-16528	6152	2912	-1584	3392	596	-21120	5936	17736	1157	-5518	4644	-17800	-1344	-10152	-1147	-6316	1502	-2032	2432	-9832	-2308	-1168	-140	127	130	1
-9128	-7268	11188	-116	2327	1080	-16812	-2904	-1972	-7637	7332	-1550	-13688	1832	2728	-2038	3468	521	-26272	3248	19096	1790	-5645	4351	-19704	-1832	-10760	-803	-6519	1610	-1464	1184	-8584	-3314	-1146	-471	131	127	1
-8616	-8600	11156	-72	3670	1773	-16840	-4264	-288	-2655	8108	398	-16912	-1936	-6464	-1553	2315	570	-30656	7984	20064	1659	-5717	3875	-22360	-1320	-12984	-294	-6500	1786	-4168	248	-5072	-3066	-1380	-775	128	127	1
-9188	-7632	11672	-235	4422	2810	-16112	-2060	-2012	2234	9257	1513	-15624	-4048	-11088	-513	1491	959	-32768	6504	18456	1415	-5465	3762	-25496	-2680	-15720	-139	-6405	2100	-6856	-2712	2000	-1828	-1560	-731	127	126	1
-9340	-6492	12572	-775	6156	3518	-17720	192	-2120	1086	10988	2543	-21680	-2792	2256	715	1956	653	-32768	4496	14960	1262	-4899	3685	-23344	1024	-20360	-86	-5965	1669	-7736	-8056	7640	-451	-1427	-360	131	118	1
-9160	-8264	12660	-1431	8743	5061	-18340	-1424	-620	-518	13506	2545	-22080	816	4968	144	1415	261	-32768	1216	4672	705	-4394	3300	-19304	5072	-23064	-904	-5042	1211	-13952	-3368	17064	1587	-1279	-520	131	146	1
-10152	-7720	13112	-1470	12284	8100	-19108	320	-776	-2899	16391	711	-19352	4712	4104	-829	1296	175	-32768	-4872	-12616	-466	-3114	2580	-17864	3120	-27424	-2063	-3283	490	-18048	1696	21120	3387	-474	108	129	122	1
-10660	-6788	15068	-1106	17252	10630	-21552	1524	-1076	-4662	19313	-224	-21248	4336	4664	-1192	1280	366	-32768	-9808	-25320	-1642	-977	1719	-9648	1568	-32768	-2271	-975	-203	-24256	7784	24104	2114	-602	844	128	139	1
-10664	-6908	17232	-882	25186	13019	-25040	-8	-284	-1115	22586	1111	-24552	4248	2000	-1507	1158	208	-32768	-17192	-26472	-927	813	1034	-3976	832	-32768	-1823	1338	-361	-19216	12752	16088	166	-279	1061	127	157	1
-10456	-8360	17236	277	32767	16419	-27340	176	1920	4416	25183	1818	-26080	-832	1424	-1713	948	318	-32768	-11824	-13040	-328	1911	90	-5536	640	-32768	-1313	3051	-295	-17416	8432	10304	-1429	935	385	127	127	1
-10148	-10188	15764	-140	32767	20788	-24520	-1048	5216	4635	27852	1293	-24376	-11048	6152	-1043	475	472	-13120	11168	12296	-2211	3461	-1263	-18104	192	1008	798	2936	-242	6472	6280	-25800	-988	3382	184	128	123	1
-7548	-11532	16196	-2461	32767	28114	-27200	-1244	7556	-356	29622	704	-23464	-9576	14352	-291	-568	-121	24296	14360	18064	190	3579	-2852	-32768	2960	21320	337	1529	324	-5592	1392	-8784	1832	736	278	127	114	1
-15068	-9848	20188	-4363	32767	32767	-32664	-1672	7936	-12332	29375	476	-25536	-6304	18520	79	-2668	-985	-32768	24784	19912	-638	4209	-2227	-30696	-184	-12960	597	2827	-581	-32768	32767	26384	-5213	-1553	-389	125	123	1
-30452	-14828	17356	-9568	32767	32767	-30660	120	1764	-15920	32767	-4194	-20760	6264	-2592	-654	-2308	-657	-27808	6000	15784	-829	3531	-1601	-11904	5896	-12376	-240	3914	-1461	-29456	-7920	-23736	-6013	1930	725	126	174	1
-27224	-11176	23504	-10087	32767	32767	-27688	-4160	2024	-23729	32767	2283	-22048	824	-16832	-1277	-2331	-641	-22448	17520	9168	-967	817	-1170	-5296	16288	-17624	-3884	2947	-682	-11008	-22152	-7752	-370	1548	1224	124	93	1
-32768	-28412	25224	-5580	32767	26511	-29136	-2436	-11364	-16315	29297	4544	-25328	-1104	-18528	-479	-2613	-1291	-14992	4080	13272	-562	147	-300	-19744	-8560	-18424	-4459	1413	64	-4640	200	-12112	2974	1387	1267	122	122	1
-32768	-14984	23800	6042	20389	6214	-22124	-5600	-9176	-8691	21711	5527	-31680	2472	-12528	1204	-3283	-2134	-10912	4864	13776	-236	178	3	-26008	-15168	-10888	589	1827	-14	-15872	13144	-8576	1955	2329	508	123	128	1
-568	-17624	23276	5352	-9285	-14084	-21148	-7336	-176	-2675	6633	11964	-31536	6920	-11992	2211	-3891	-1769	-10248	6928	11848	60	263	84	-11736	1200	-9472	3409	1060	731	-21432	15720	-8504	-563	1733	330	123	135	1
-5288	-10068	18296	6808	-14639	-12752	-12996	-5144	-3796	11117	-5627	8520	-28288	8104	-9992	2144	-4424	-1721	-9752	8488	11456	74	246	32	-19088	12264	-6240	2543	779	734	-22848	2784	-1784	-1469	2293	455	125	115	1
-7724	-8476	17736	7546	-28696	-14361	-6428	-1392	-7308	15392	-16620	8216	-25488	11296	-6280	1156	-3854	-1920	-9808	8120	11440	25	238	-32	-14552	10808	-5248	643	568	257	-18984	-2496	488	900	2574	391	127	126	1
-6120	-5784	15060	5153	-32768	-17913	-7348	-4	-5812	15957	-27801	8339	-22024	10320	-6496	261	-3113	-1775	-9856	7216	11792	18	266	-3	-16280	5424	-5184	-557	550	32	-13232	3688	168	1240	2377	-154	127	132	1
-3892	-5568	9832	1065	-32768	-18617	-10220	3044	-4060	11932	-32768	7270	-17016	8704	-7184	297	-2447	-1732	-9952	7704	11472	92	293	23	-18112	2120	-3728	-262	587	-155	-11936	9552	856	554	2631	-173	125	131	1
-6540	-7788	7340	-863	-32768	-17620	-8204	8428	-6012	856	-32768	3305	-13544	8216	-8320	377	-1914	-1502	-10040	7720	10936	127	300	-7	-15848	2040	-3248	560	705	-36	-11640	6240	496	-130	2825	91	127	127	1
-9824	-9612	9096	-1251	-32768	-21880	-6596	6400	-7616	-12098	-32768	-2645	-8152	6320	-10256	93	-1232	-1140	-9720	8440	10448	100	241	-51	-12992	5376	-3064	1116	546	93	-13792	-2032	792	-76	2557	381	126	129	1
-12876	-11136	10976	466	-32768	-28675	-9960	2572	-6728	-13372	-32768	-6246	-4944	4536	-10640	26	-901	-809	-9888	8008	10688	53	188	-125	-15608	6192	-3032	951	482	296	-19840	-1728	1432	935	2964	543	124	120	1
-17608	-9116	14016	824	-32768	-32467	-14532	1064	-9060	-10154	-32768	-8784	-4264	4448	-10472	73	-884	-761	-10248	7104	11168	47	175	-184	-16936	4216	-3544	830	566	160	-16432	-272	5440	2225	3315	1015	125	121	1
-25244	-5996	16792	-4282	-32768	-30574	-18560	932	-10124	-7780	-32768	-8984	2600	4568	-10848	1967	-829	427	-10192	6720	11448	72	210	-202	-16024	4808	-2528	863	775	-13	-13360	5928	5424	2794	3526	706	125	128	1
-28268	-7812	17024	-9001	-32768	-23209	-20992	3104	-11232	-6913	-32768	-11483	3176	7008	-8872	2618	-1144	791	-9768	8112	10912	82	233	-249	-14960	5256	-1960	662	975	-132	-14904	8360	-4088	2255	2486	7	125	130	1
-32768	-12196	17104	-11478	-32768	-21421	-25836	6348	-15796	-8620	-32768	-16821	-1840	7528	-4816	2603	-1399	880	-9768	7896	11392	97	327	-357	-14912	3608	-1920	585	1141	-109	-16952	4512	-3792	330	1599	7	127	139	1
-32768	-15204	16272	-10609	-32768	-27424	-32768	1560	-17916	-4769	-32768	-18785	-8608	8096	4296	1682	-1867	528	-9896	7656	12232	173	514	-448	-17360	3560	-2624	711	1360	-57	-19416	2224	4320	242	1522	446	126	130	1
-32768	-13752	8552	-5989	-32768	-32768	-25416	-3324	-20584	4034	-32768	-16529	-18464	3536	13624	687	-2169	25	-9960	8496	12920	214	824	-544	-19776	4784	-2200	583	1597	-229	-18576	2448	5176	1175	1375	378	124	128	1
-32768	-7764	-2744	3405	-24659	-32768	-22640	-3864	-23668	17903	-32768	-11120	-28528	1864	22648	-965	-453	-57	-10760	8816	13616	188	1293	-763	-19264	3480	-3256	363	1951	-263	-18176	2328	1608	1272	1057	216	124	120	1
-32768	12248	-11112	4837	-11470	-32210	-13768	2920	-24632	19675	-24855	-4165	-20448	1648	23200	-2923	1140	-550	-10776	7664	14288	54	2027	-1090	-21664	3936	-3432	352	2217	-305	-20768	3824	1648	1098	1180	140	126	121	1
-32768	15448	-21488	5224	-803	-15087	-4800	-972	-25572	14682	-4403	721	-20272	-8400	19360	-2550	823	-1134	-10704	8696	14992	145	2861	-1420	-24032	3648	-2144	297	2478	-455	-22840	5464	4344	1429	1114	109	126	127	1
-32768	12820	-18236	-5286	4807	4593	-5484	7388	-26124	-2009	14861	759	-18832	-14488	9984	-1343	267	-1042	-11096	9288	15440	273	3828	-1915	-25632	3760	-528	434	2764	-445	-23952	5736	3456	1119	782	-116	125	130	1
-32768	1264	-8996	-7194	11864	11235	-10500	1612	-23776	-11885	25194	-1278	-15840	-7656	88	153	11	-251	-10232	11720	14792	394	4761	-2715	-26160	5320	3296	733	3099	-447	-23672	6720	9408	794	532	-155	126	132	1
-29092	-7376	-928	-6242	15222	11311	-14160	-224	-18484	-8437	28609	489	-2568	-5400	-2120	-450	478	-375	-9688	13504	13512	771	5739	-3864	-25312	5696	5928	1094	3372	-259	-22104	2392	16368	748	28	58	126	127	1
15732	-24404	32767	11366	26084	4463	-21324	-7412	24064	-15763	19955	-912	9792	-4456	-32768	93	2394	333	-15896	17936	14032	1193	6956	-5049	-28760	3200	9408	2061	3565	142	-23048	-1448	21416	353	-1574	378	124	126	1
13636	-24192	17628	7067	32767	31890	-32768	-18512	-1304	29471	11754	-9943	-32768	840	32767	2180	-516	3237	-32768	10712	16920	1571	7748	-5463	-32768	3048	2024	2731	3860	566	-20336	-15976	5792	653	-1642	-230	127	126	1
-29744	672	25528	12159	32767	14594	-32768	15412	-16068	32767	21494	6585	-32768	-7792	-5096	7242	-1337	-717	-32768	6504	24544	2796	8261	-4122	-31648	8840	3080	3473	3710	-194	-26768	2536	-10816	3678	-3217	-851	126	128	1
-20764	2524	20656	941	22871	9696	-16756	9468	-7008	24459	27419	13650	-14416	26384	-8184	7791	126	-1624	-32768	32767	24816	698	5872	-5182	-28352	17920	-11280	3105	3302	-27	-28064	19952	-27112	6335	-3109	-109	127	138	1
-20972	-12288	10136	1974	14668	7486	-6712	1616	-17724	9703	17648	-5356	7000	19776	-10176	532	2202	-1847	-32768	11592	32767	-907	977	-3498	-19168	4440	-14936	-677	2453	221	-27848	15912	-13408	124	-3805	936	126	131	1
-14572	-4716	13500	2842	6019	2120	-8520	2112	-13280	-8507	13938	-6192	-8728	13472	-12712	-3329	2904	774	1752	30016	23360	1168	-2406	1212	-27400	6368	-1464	424	1268	-818	-32768	11520	-9680	-3209	-4403	589	125	133	1
-10648	-7376	11880	1609	3656	58	-29472	-4876	-6632	-9347	11473	-2559	-15496	912	-12472	-4275	2381	2034	-4464	16032	18088	-528	-2885	1688	-12432	5320	-5984	-455	-584	-12	-32768	1232	-8808	-3039	-4412	1092	125	131	1
-10640	-6740	11696	1106	2993	366	-15172	-68	-7888	-5830	9067	-3103	-25192	-20016	-12688	-2240	2981	1250	-2504	9560	17344	-654	-4049	2557	-6720	3088	-5192	-1203	-1961	-60	-27648	-4112	-7112	-2073	-4000	1214	126	123	1
-10164	-6896	11236	1031	2935	722	-17068	-2464	-5324	-8568	7672	-2567	-21840	-2104	-3960	757	2547	-391	-2256	9368	16776	-646	-4224	2602	-9264	2024	-3840	-1401	-3107	143	-20696	-3200	-5984	-1237	-3434	997	126	122	1
-9424	-7820	10784	1243	2980	737	-17972	-4796	-2476	-2289	5828	-1277	-21168	5104	-4472	940	2819	-345	-6920	3824	11752	301	-5837	2334	-9504	-672	-5440	-1560	-4084	527	-15672	-584	-8040	-785	-2790	886	125	127	1
-8976	-6136	11404	1039	3010	927	-17524	-4604	-2556	-760	5396	-955	-11944	4624	776	146	2482	1097	-7176	6808	10144	777	-6047	2511	-10056	-4048	-5104	-1180	-4952	713	-12416	552	-9872	-769	-2090	657	124	130	1
-9788	-6456	11108	451	3147	825	-16420	1924	-2008	459	5376	-194	-8056	3816	1136	-747	2625	1464	-10584	7928	11080	935	-5743	3074	-11712	-5512	-6984	-381	-5595	1051	-8016	104	-10152	-711	-1651	511	125	127	1
-10176	-7060	10096	52	3153	910	-15360	-736	-2020	-5067	6687	-1308	-12592	-192	-584	-491	2695	1103	-15592	8832	14760	890	-5343	3801	-14656	-1328	-8040	45	-6083	1364	-3808	1456	-10552	-1226	-1343	235	124	129	1
-9836	-6988	10008	0	2316	1239	-14768	-3660	-2232	-4072	6666	-1218	-15896	2320	2208	-1134	3042	656	-20144	5744	17944	1181	-5259	4215	-17872	480	-9680	-541	-6345	1512	-1384	1456	-10568	-2045	-1140	-117	118	131	1
-9920	-6972	10128	-201	1484	1802	-15188	-2000	-2892	-3003	7120	347	-18136	5392	2224	-2068	3649	109	-20720	5168	18360	1259	-5233	4229	-19864	-576	-11384	-805	-6504	1619	-1664	-416	-7808	-2639	-1362	-385	120	127	1
-9492	-8028	10452	-87	1870	2181	-16808	-2312	-252	-3537	8528	166	-16704	4536	-7256	-1637	2360	141	-31384	6584	20464	1584	-5367	3529	-22536	-432	-11920	-483	-6481	1762	-5064	-288	-4104	-2388	-1724	-666	121	130	1
-9448	-7904	11508	-750	2535	3282	-16576	-292	-1248	-1794	9779	-259	-16168	-5240	-9384	-814	1784	463	-32768	8608	17856	1429	-5217	3427	-24592	152	-14240	-721	-6163	1827	-5952	-296	-2824	-2311	-1806	-680	122	127	1
-10040	-5940	12040	-1379	4262	3373	-16888	420	-2808	-4072	11554	337	-16816	-5176	1928	-22	1613	835	-32768	7832	16024	1123	-4562	3889	-23528	1112	-17408	-1211	-5771	1500	-9096	-5296	6328	-467	-1761	-436	124	131	1
-10028	-7048	11772	-1332	6664	4006	-17988	-4196	-1176	-2140	13193	1564	-19864	1848	3352	-850	1695	250	-32768	5360	9840	538	-4094	4034	-23104	4744	-21320	-1566	-5134	1018	-14032	-4352	11704	648	-1312	-518	127	143	1
-10440	-7220	11984	-2050	8584	6042	-17900	-416	-8	-1062	15859	1910	-20288	5352	4000	-922	1507	146	-32768	-3624	-5768	-413	-3434	3263	-17512	1592	-23208	-2041	-3883	391	-19264	-616	16456	2756	-587	-34	130	120	1
-10260	-7096	13840	-1505	12648	8562	-19892	992	-676	-2991	19284	695	-21288	-8	4152	-975	1133	245	-32768	-12096	-17368	-857	-1764	2265	-10112	-1856	-30384	-1722	-2029	126	-18104	4264	22920	2940	-190	726	130	120	1
-10528	-7228	14056	-1714	13692	8954	-22788	1380	-1852	-1410	22466	838	-22504	1304	680	-1379	974	33	-32768	-19568	-21320	-501	-353	778	-5640	1360	-31832	-801	153	-105	-17496	15800	17240	777	-664	944	130	140	1
-12120	-5892	16332	-1743	28779	13795	-24428	1816	-1036	1995	25083	1311	-23176	3464	1208	-1206	1046	195	-32768	-14096	-17192	-159	682	-705	-5520	-416	-32624	-253	1988	-295	-15880	11728	9632	-452	67	-77	128	132	1
-13052	-7532	17436	-1454	32767	16677	-24296	-772	3080	4645	27178	492	-24280	-4208	4520	-1220	675	463	-23968	-26536	-8264	-953	3296	-3918	-16552	7704	-17448	1282	3339	415	-15376	-1208	32767	-2648	-2816	-521	128	119	1
-8032	-11560	17460	-3043	32767	23615	-30408	808	6164	1009	29126	691	-25688	-8440	10696	-559	-68	108	-32768	12216	18720	-64	3613	-3775	-32768	-24864	-16984	-807	3381	282	-23896	3912	9672	-2	346	-566	128	142	1
-11768	-7480	20876	-5043	32767	31609	-32768	-1488	6220	-4514	28671	12	-31664	-9656	19200	-298	-2068	-568	-19984	20800	17304	-453	3461	-1518	-16016	11640	-3608	3076	3938	-1592	-29680	7616	-8080	-396	1183	-378	125	116	1
-23108	-23624	14244	-4368	32767	32767	-31512	-1288	5232	-13819	32767	-1318	-22024	-2136	1504	-360	-2443	-821	-27464	18248	8960	-693	3153	-1431	1680	22000	-17112	-1283	3547	-1253	-18968	6632	-17200	-772	1438	906	127	128	1
-26640	3748	24020	-16069	32767	32767	-31464	-788	4516	-14445	32767	-3165	-21672	6368	-14048	-246	-2994	-715	-20960	2248	20048	-985	805	-1166	-10984	8568	-18496	-6688	2399	-591	-11880	1064	-6744	-609	1336	1758	127	133	1
-32768	-25888	25216	-9975	32767	31166	-29456	-3592	-8992	-21432	31255	3152	-25992	2968	-17296	-517	-2393	-1413	-15616	3872	13224	-529	156	-391	-32440	-19512	-19464	-3875	1789	-712	-16048	3944	-11112	96	2042	797	126	137	1
32767	-7104	32767	7104	23147	17759	-23944	-6916	-15344	-12184	25022	2325	-29968	5320	-12960	379	-3096	-2093	-11416	3440	14952	-166	135	-110	-18200	-9928	-10464	2186	1699	101	-20440	6792	-7392	-1511	2384	146	128	140	1
8608	-23848	25604	-2938	-6630	-13562	-23676	-5692	264	-6574	7640	10678	-32768	6408	-11592	1217	-3689	-1781	-10256	6928	12048	30	168	-49	-11680	4784	-7048	3212	983	722	-24832	-968	-5176	-1818	2633	322	125	119	1
-10088	-12172	19308	3313	-10943	-11178	-13712	-4112	-5344	6737	-3192	4615	-27648	10976	-8584	1669	-4312	-1672	-10216	7024	11792	15	139	-78	-17616	9192	-6112	2016	697	587	-18192	-2104	-136	93	2409	306	129	125	1
-8148	-8312	19920	2136	-28103	-15599	-5336	1492	-7176	8139	-14747	4642	-24256	11768	-6208	792	-3772	-1973	-9440	7672	11184	-84	125	-109	-16048	8304	-5808	785	495	289	-12688	1864	384	1412	2436	251	126	129	1
-5684	-4960	15592	-1045	-32768	-20122	-7244	868	-4388	6734	-25918	4427	-21560	10592	-4808	-233	-3077	-1999	-10032	6856	11584	-160	183	-71	-16560	6856	-5224	-406	498	-98	-13784	5824	192	1887	2450	-12	127	126	1
-4688	-5136	10148	-2786	-32768	-19113	-11032	3280	-2648	5020	-32768	1535	-17008	8752	-6744	-58	-2496	-1793	-9616	7560	11504	-126	198	-74	-16536	4784	-3744	-736	610	-291	-13864	7280	536	1143	2592	-118	127	128	1
-5800	-5640	8248	-2598	-32768	-16315	-8504	8144	-5804	-3065	-32768	-2561	-12664	7608	-8040	-74	-1912	-1510	-9712	7528	11008	-113	184	-104	-15696	1848	-3736	-187	683	-236	-14536	5392	544	399	2747	-134	126	127	1
-8548	-7348	8860	-4526	-32768	-19081	-6640	6692	-5352	-11967	-32768	-7734	-7464	6056	-9264	-343	-1399	-1085	-9816	7888	11000	-98	158	-136	-15088	1952	-3056	848	475	-3	-18112	2016	1472	384	2684	334	126	133	1
-15100	-10528	12248	-2825	-32768	-27166	-8952	3796	-6772	-12125	-32768	-11608	-4112	5656	-10656	-127	-744	-783	-9936	6304	11664	-55	124	-182	-16120	2912	-3016	1424	384	259	-16360	-1520	2480	1079	2934	526	125	124	1
-13568	-6964	14472	-1825	-32768	-32768	-14264	2196	-6488	-8329	-32768	-12881	-784	2480	-11912	237	-676	-188	-9800	6016	11512	4	160	-154	-15832	5536	-2520	1121	673	54	-13736	-56	4496	1771	2968	363	126	124	1
-21964	-5872	17996	-5446	-32768	-32768	-15956	1888	-6540	-7336	-32768	-12704	2664	2232	-10512	1449	-716	433	-9984	6776	11752	23	193	-189	-15464	6408	-2352	367	912	-203	-14408	5688	3232	2060	3032	136	127	123	1
-29868	-5276	20736	-8907	-32768	-29828	-22096	5584	-11560	-1466	-32768	-11393	4480	5440	-8392	2517	-1004	839	-10024	6520	11848	25	266	-213	-15272	3920	-3656	-57	1018	-267	-15360	7312	-160	1583	2826	169	126	124	1
-32768	-7728	20444	-10270	-32768	-23833	-27420	7452	-15236	-5597	-32768	-14708	-984	6144	-4088	2812	-1550	668	-10176	6856	12144	84	328	-226	-16544	1864	-4392	254	1132	-251	-16400	4384	-872	1006	2522	318	124	127	1
-32768	-12540	15920	-6509	-32768	-25654	-28412	5204	-17740	-3862	-32768	-16168	-9936	4448	4536	2554	-2499	340	-9528	8976	12224	125	527	-385	-16912	1744	-3968	358	1148	-235	-17064	1416	1600	582	2303	376	127	128	1
-32768	-11948	6984	-5	-32768	-32768	-24844	-1016	-21200	4212	-32768	-14719	-21392	-1616	16200	1707	-2750	-116	-9952	10336	13032	229	811	-670	-18736	4784	-520	1084	1466	-114	-21120	496	4920	129	1823	74	125	128	1
-32768	-7404	-6440	8530	-22941	-32768	-18844	-6312	-23336	21953	-32768	-8462	-32768	-192	18176	-630	-412	-121	-10704	7672	14960	198	1279	-918	-19176	3760	-2296	755	2033	-293	-21632	2600	6224	855	1343	-44	126	124	1
-32768	7176	-15768	11094	-8865	-32025	-13140	1600	-27968	29970	-22258	-1567	-19248	5576	23816	-2320	854	235	-11592	8032	15624	-45	2133	-1296	-22736	4600	-3064	162	2444	-531	-21952	3048	3040	1673	1112	213	127	124	1
-32768	14268	-22240	12450	3057	-18241	-5568	-1608	-27792	23370	-2503	3894	-17600	-5664	18376	-1908	732	-339	-11056	9560	15856	-147	3049	-1741	-25888	3928	-1128	115	2733	-652	-24696	4008	4024	1259	984	-6	125	126	1
-32768	12384	-17808	792	9115	1246	-5284	6384	-28772	7908	15774	4269	-17016	-6416	17632	-1818	697	-469	-10848	11168	16696	-219	3905	-2539	-26016	4440	1168	600	3117	-564	-24952	7888	8608	1009	615	-96	126	131	1
-29312	-3384	-30412	-994	24541	19703	-11244	-2456	-25192	-10545	27008	-2652	-16216	-4024	3080	561	-50	-589	-9432	12184	16168	8	4804	-3565	-26904	6376	3984	933	3503	-487	-23592	8672	13664	961	188	2	126	128	1
11580	-32768	32767	12	25426	29567	-32768	2584	32767	-21938	19527	-4534	-14664	2896	1192	-848	-1041	-863	-9824	16208	18568	167	5884	-4967	-32768	9968	7184	1375	3632	-332	-29144	9224	18624	364	-862	-47	125	128	1
-32768	-12508	22444	-1605	32767	14601	-32768	3516	-17508	-12015	32767	-6817	-32768	-9232	-3968	-436	-234	1843	-26184	17440	22104	186	7611	-6233	-32768	4728	9944	1964	3787	-126	-20904	-4192	7104	-1472	-2680	-33	127	128	1
-11716	-12012	7620	-417	29887	8634	-8772	-11600	-8260	1877	31755	10724	-13280	1648	-14648	5037	979	179	-29544	-5520	23512	1447	8704	-5705	-29208	5496	-2544	3082	3631	-28	-25368	-4408	2360	-504	-2405	-329	126	128	1
-15920	-9504	10944	1941	20614	9571	-13636	-17380	-13364	32767	19403	8563	-12016	1760	-15856	5165	1153	-299	-32768	25416	23952	1700	8086	-5208	-29952	10976	-1256	3810	3289	-554	-23136	3304	-18376	1885	-3377	-395	125	129	1
-17376	-2052	15144	4941	10032	6724	-15260	9816	-18936	32767	9390	11528	-10248	8528	-11624	1734	2083	-989	-32768	32767	28688	-48	4195	-4234	-20528	10448	-20624	1218	2699	-132	-28464	-408	-17568	1800	-3795	168	125	133	1
-13392	-8136	11308	3234	3693	1702	-25796	12512	-13208	13382	11546	3023	-23096	10224	-12176	877	1223	652	-9432	32440	32208	-948	-1956	2106	-24080	3456	-4824	-42	1570	-415	-32768	952	-7888	440	-4849	384	126	132	1
-10908	-5252	13048	1041	2509	95	-12484	9128	-10368	-11295	13008	-6143	-22200	5216	-7640	372	1358	1420	-4560	13192	19000	-960	-1724	2928	-17416	6320	-448	339	-54	184	-31984	5648	-6992	-190	-4615	398	126	138	1
-9764	-6200	11892	-173	2392	-7	-12816	2760	-8164	-28291	11902	-10719	-18480	7160	-3984	697	1990	995	-3392	8720	18040	-159	-3150	3071	-5720	4696	-4992	-1116	-1243	223	-26304	6392	-8120	-336	-4024	1582	126	127	1
-9516	-7344	10988	381	1972	379	-20380	-6256	-5004	-24929	8837	-10231	-15232	3360	-2096	-376	2789	254	-2904	6096	15584	27	-4527	2884	-4376	2448	-3760	-1600	-2364	863	-22408	656	-5872	-405	-3680	1618	127	120	1
-9316	-7300	10652	1133	1774	837	-17496	-8324	-3464	-7000	6267	-4155	-14928	16	-1704	-1046	2957	408	-5224	4176	12440	435	-5349	2923	-11184	904	-3632	-2375	-3420	1213	-17944	-1824	-7920	-405	-3242	1154	125	127	1
-9212	-6900	11320	956	2037	540	-17792	-3832	-1552	6326	5501	1265	-16104	-2192	-2488	-1275	2731	873	-6624	5712	11296	718	-5687	3207	-11440	-3424	-5088	-2506	-4220	942	-13752	-744	-10072	-519	-2474	1052	127	133	1
-9752	-7160	10680	855	2562	659	-15876	-2360	-3684	13562	3925	3906	-13736	-4000	-2416	-571	2831	1110	-8720	6968	11576	647	-5387	3832	-11336	-4384	-4720	-2451	-4355	906	-8584	-224	-10928	-737	-1982	729	125	129	1
-9672	-7616	10596	898	2079	738	-15112	1792	-3480	8985	4347	1723	-13896	-128	-2936	88	3016	802	-13712	4968	15664	453	-5018	4501	-13560	-4808	-7200	-919	-5888	1228	-5096	552	-10320	-915	-1679	513	124	135	1
-9680	-5788	10768	482	1807	570	-15148	3624	-3652	168	5075	-1379	-16472	5696	-80	-19	3364	603	-18376	1480	19504	735	-5100	4487	-16712	-2320	-9144	-868	-6242	1289	-3088	2104	-9400	-1770	-1270	158	120	131	1
-9828	-5492	10908	-371	1896	573	-15452	1456	-3552	-8270	5963	-3197	-15104	5832	3320	-992	3689	649	-24592	1720	21208	1387	-5378	4012	-18720	-2184	-11376	-808	-6458	1344	-2392	2376	-8672	-2713	-1233	-162	118	134	1
-9580	-6956	10564	-488	2465	921	-16012	-3820	-1124	-11037	6773	-3283	-13232	584	1600	-2201	3588	577	-28040	5336	21512	1382	-5726	3423	-21128	-2376	-11704	-220	-6636	1400	-2944	2616	-6352	-2839	-1434	-374	121	128	1
-9264	-7940	10792	-286	2879	2402	-16720	-4892	-32	-5949	7981	-1400	-16176	-1712	-2280	-2049	2461	687	-32768	8000	19088	1402	-5664	3134	-26528	-696	-14968	-73	-6539	1684	-4912	688	-1104	-2516	-1427	-473	123	131	1
-9544	-6688	10960	-148	3513	3112	-15120	-2928	-232	-608	10036	1797	-15176	-1672	-6368	-475	1613	895	-32768	9352	15056	1268	-5255	3298	-22960	-456	-18608	-166	-6300	1713	-8096	-5056	2984	-1396	-1282	-317	121	124	1
-8432	-7872	11664	-581	4413	3726	-15268	-2756	-132	6	10386	2191	-22008	-2568	-1800	380	1925	392	-32768	5112	7792	995	-4476	3647	-20760	3552	-21744	-823	-5475	1393	-10744	-9656	11776	-16	-1130	-272	122	131	1
-12176	-7800	13256	-3241	8732	4825	-19420	2368	-1864	-1353	14610	3651	-23920	672	5688	-126	1602	-29	-32768	-3376	-5424	329	-3405	3381	-17544	4208	-24000	-1507	-4038	884	-19032	-5008	19856	1857	-1186	-554	124	137	1
-10172	-8644	14520	-1913	12380	7254	-20252	812	-60	-4392	18300	588	-20960	1176	5928	-1233	1189	292	-32768	-9792	-16744	-917	-1700	2368	-13344	1304	-30344	-2152	-2057	91	-21944	56	22504	3139	-644	-120	129	128	1
-10280	-7484	15748	-1516	19127	10703	-22704	-316	-536	-3764	21621	1051	-21864	4928	4384	-1423	1148	365	-32768	-17120	-23200	-954	-282	1143	-6832	1088	-32768	-1508	24	-280	-20048	11984	17464	2337	-657	623	128	124	1
-11024	-7064	16720	-1842	27178	14822	-24308	864	128	-483	25097	1263	-24552	2784	1024	-1712	973	260	-32768	-11328	-32768	-1770	2304	-1472	-5944	2376	-32768	-946	1897	229	-16864	14960	12688	703	128	702	126	156	1
-11028	-7900	18192	-1301	32767	18265	-26208	268	2192	4175	27534	2053	-26704	-5304	3720	-1665	888	358	-22416	-304	32767	-1758	5349	-3259	-32768	13608	21352	3242	3764	113	-10736	7800	27424	-2781	-3034	285	128	130	1
-9364	-10728	19004	-1059	32767	24025	-31052	112	7300	3626	29407	937	-28112	-12176	6232	-399	-37	277	-26000	-15440	20072	-793	3108	-2700	-32768	-31032	-23328	-109	4460	-122	-11944	10560	16360	-4336	-1495	-151	127	150	1
-7176	-8256	19492	-3549	32767	31888	-32768	-928	7848	-2003	29107	2395	-31312	-12952	18800	341	-2610	-354	-9344	15952	11816	-463	3116	-2105	-1040	9864	-12536	2873	3807	-1326	-19960	-8536	-27736	-2539	2236	17	127	126	1
-25520	-18276	15052	-2837	32767	32767	-29740	-804	2940	-9435	32767	221	-20152	-1040	3016	1214	-3012	-632	-25560	9432	10888	-1051	977	-1118	-3232	26696	-20384	-1841	3042	-344	-10808	792	-6712	-675	776	125	125	113	1
-23424	1540	22312	-12838	32767	32767	-31676	96	-568	-17211	30933	368	-24728	8496	-10208	293	-2946	-774	-16512	2912	15208	-666	239	-441	-22096	-3328	-20120	-6789	1815	-450	-18856	4376	-11104	308	1208	942	128	122	1
-32768	-24936	23496	-3415	32767	32767	-30860	-7316	-3636	-20006	29762	2161	-24792	5568	-21072	-516	-2486	-1337	-11568	6048	13080	-187	214	27	-28968	-21200	-13880	-1712	1974	-1036	-17072	4520	-8120	-252	2529	1073	127	140	1
14600	-25300	27416	10728	29528	14731	-24468	-5232	-14636	-4363	23015	4195	-25240	5624	-20512	-642	-2583	-1452	-9880	5224	13200	100	255	83	-13904	-3280	-9840	2766	1343	536	-24280	600	-4752	-1387	2414	499	128	132	1
-2408	-22628	29032	5971	-6434	-17332	-23364	712	-4784	1839	9087	13084	-31720	4760	-10920	819	-3545	-1631	-9768	7320	12272	236	289	76	-16536	6400	-6144	2760	942	753	-23448	-584	-1416	-101	2635	180	126	121	1
-6368	-7888	20400	7051	-10166	-14879	-14124	-6972	-884	6819	-2889	6650	-26624	6944	-8912	1588	-4129	-1711	-9736	7944	11288	170	208	-35	-16472	9560	-6000	2031	758	638	-15336	4568	1328	955	2244	-112	128	134	1
-8404	-6144	19360	1920	-26352	-14908	-6264	444	-6540	12011	-13138	7146	-23416	8880	-6720	1309	-3763	-2014	-9592	7568	11448	19	155	-57	-15440	11016	-5480	716	653	247	-11248	7472	1384	1345	2373	4	127	131	1
-6920	-5388	15732	-939	-32768	-17066	-4408	1260	-5296	8521	-23987	6194	-20800	10952	-5472	575	-3112	-1830	-9584	8784	11424	1	169	-49	-16680	8312	-4064	-279	576	-356	-12400	7936	1824	1624	2586	153	126	128	1
-4232	-4220	10204	-1842	-32768	-14867	-10684	2784	-2416	4142	-31954	3480	-16136	9856	-7144	21	-2428	-1468	-9264	9216	10760	-35	137	-98	-15104	6288	-4144	-457	741	-363	-14296	8560	960	1006	2643	14	127	122	1
-5620	-5816	8528	-3094	-32768	-13891	-10232	7504	-5408	-4320	-32768	120	-13856	8584	-7168	-214	-2047	-1245	-9952	7632	11064	-88	75	-171	-14448	3552	-4512	-367	732	-390	-16080	6280	504	179	2778	61	127	134	1
-8008	-9096	8240	-4213	-32768	-19349	-6500	7112	-6400	-13750	-32768	-3623	-9560	6408	-8656	-503	-1449	-1026	-9608	6960	12056	-70	57	-193	-16240	-256	-4416	248	487	-116	-18400	928	1432	158	2865	208	127	134	1
-10340	-10284	9568	-2312	-32768	-26335	-9824	4204	-5304	-14186	-32768	-9172	-6520	4280	-9400	-20	-968	-711	-9688	6912	12072	-13	106	-210	-17344	1992	-3960	1106	407	159	-15744	-1496	2008	943	2881	159	127	122	1
-14892	-8944	13216	-2346	-32768	-32617	-14264	2008	-8088	-9662	-32768	-12354	-2312	3824	-9936	944	-950	-296	-9728	6304	11792	27	137	-224	-15456	4568	-4008	1106	542	49	-12928	320	2200	1487	3017	32	125	129	1
-21536	-6992	16080	-5553	-32768	-32768	-17520	240	-8568	-4891	-32768	-11917	368	4528	-9992	2017	-925	275	-10128	6352	11816	57	175	-224	-14896	5960	-3744	604	798	-195	-13816	3928	2352	1532	3249	-16	126	126	1
-25408	-7676	17408	-7575	-32768	-28208	-20108	2920	-10184	-570	-32768	-12556	1888	6288	-8080	2268	-1115	592	-9880	7096	11672	70	223	-263	-15632	4672	-3752	130	858	-262	-15896	6032	-424	1260	3287	336	126	127	1
-29544	-9204	18960	-9355	-32768	-25124	-24968	6864	-14044	-2551	-32768	-15958	-1016	6936	-4536	2132	-1114	623	-9536	6536	12512	128	349	-332	-17152	1728	-3536	261	953	-191	-17360	3088	-2112	1053	2823	551	124	131	1
-32768	-8932	19460	-11313	-32768	-27612	-27308	6052	-16800	-2048	-32768	-15861	-5784	7744	3000	1312	-1189	371	-9352	7808	13120	230	606	-507	-19168	2144	-1808	925	1111	-115	-17352	-704	312	594	2126	314	125	128	1
-32768	-10636	13556	-3817	-32768	-31080	-26284	372	-20252	-1006	-32768	-13684	-12040	4776	10968	187	-1778	69	-10000	7632	13416	210	961	-714	-18048	4664	-40	1131	1465	-150	-21672	3272	6520	255	1884	-103	125	129	1
-32768	-7004	-1748	5817	-29413	-27279	-21160	-4548	-22180	9854	-32768	-9247	-23328	-344	15896	-1754	-1285	142	-10096	8016	14584	71	1412	-1018	-18352	4744	-1104	594	1931	-304	-21216	6096	7664	986	1325	11	126	129	1
-32768	7716	-12232	5324	-15516	-26143	-13404	1824	-24912	14890	-26368	-3228	-30160	-5184	20208	-4033	676	-414	-10896	7264	15248	-26	2180	-1300	-23096	4504	-3456	100	2353	-499	-21512	2704	4392	1447	1218	239	127	123	1
-32768	10848	-21964	3809	-3975	-13971	-6952	-4440	-26224	10334	-6755	-9	-23160	-11720	19904	-3063	1120	-777	-11368	7600	16584	-90	3028	-1711	-25216	2120	-1664	115	2623	-578	-22952	2216	1784	1185	1097	36	125	127	1
-32768	11132	-20324	-4094	3988	4084	-5564	3780	-27348	426	11226	598	-18896	-13656	10144	-1027	684	-711	-10616	9760	16536	-123	3906	-2261	-24856	3792	1072	477	2991	-620	-24416	5288	6544	873	760	-143	125	130	1
-32768	-12808	-16528	5934	18255	11251	-8720	-2568	-20708	-9083	21949	-2824	-13632	-6664	-440	1731	0	-8	-9800	11272	15728	48	4799	-3089	-25280	5992	3440	711	3389	-586	-23336	8456	12256	948	309	-141	127	133	1
-19224	-12032	28556	6086	28796	17834	-30512	-1880	14608	-16139	26454	1217	-5720	-8272	-4296	997	-1356	-702	-9536	13328	16608	222	5747	-4305	-31160	9456	4160	939	3644	-472	-27184	9368	18360	638	-566	-108	127	133	1
-32768	2868	19312	1828	32767	16960	-32768	-2636	30312	-19748	23873	2340	-4600	-4168	-11760	995	-1040	-840	-22568	16496	22192	125	7425	-5826	-32768	5864	9664	1646	3725	-323	-26264	5824	15776	-1172	-3327	282	125	134	1
-13880	-13456	14780	968	27297	10035	-12764	-2928	-7956	5110	32767	12076	-17216	11248	-17112	5853	-98	756	-29344	-1160	18832	831	8064	-5811	-29360	3672	-6432	2299	3879	-71	-26440	-2808	2296	-301	-2044	-235	127	127	1
-12368	-12240	9612	395	27444	9371	-11876	-17616	-18020	28137	22124	8667	-7280	14144	-18976	4259	773	-1434	-32768	25088	22512	1485	8187	-5230	-30296	10960	-304	3570	3341	-719	-21896	3720	-14416	1015	-3488	-556	127	132	1
-24300	-9292	15936	5509	7326	5594	-15980	6380	-21148	32767	9582	7795	-5408	13640	-13248	2905	868	-1464	-32768	32767	26456	106	5444	-4951	-23336	12456	-15608	1606	2919	-109	-28144	1168	-18128	1803	-3648	-18	127	132	1
-12312	-6820	12188	2894	2486	1117	-20124	17044	-15180	2018	12487	-356	-16496	11208	-14528	-1253	1938	353	-32768	28840	32767	-817	-1295	483	-22016	1968	-6128	-784	1807	-384	-32768	248	-10912	562	-4618	532	127	134	1
-9900	-5992	12804	770	1861	-242	-13620	3336	-8476	-18725	12327	-7760	-22672	-640	-8432	-1707	2362	1449	-672	16296	19208	-703	-1279	2037	-22144	4152	1480	504	351	-149	-32712	5288	-8880	-325	-4615	368	125	137	1
-9348	-6928	11640	-338	1628	-28	-16704	-1700	-6444	-22219	9652	-8668	-20184	-2944	-5496	-151	2152	736	-6752	11944	18264	-532	-2405	2316	-6776	4272	-7088	-730	-890	80	-27744	5656	-6704	-684	-4345	1303	126	128	1
-8964	-7740	10652	30	1864	388	-18532	-5852	-4552	-16629	7316	-7634	-16872	408	-2704	428	2383	164	-4944	6128	17344	-284	-4255	2593	-3968	1648	-4904	-1079	-2060	411	-23744	1784	-5232	-416	-3927	1512	124	119	1
-9456	-6892	11116	465	1842	326	-18296	-6456	-4264	-14503	6867	-6875	-15160	2384	-472	-20	2409	539	-4176	3576	13112	237	-5392	2676	-9152	1912	-2432	-1407	-3209	887	-19784	128	-7440	-339	-3449	1119	126	126	1
-9332	-7292	11432	710	1772	231	-17212	-3532	-2476	4043	4470	760	-14648	1896	-1320	-777	2298	1063	-6848	6144	10528	567	-5800	2731	-10944	-632	-5272	-1862	-4055	934	-15288	368	-10112	-426	-2721	945	127	133	1
-7784	-8912	9996	-431	2917	-123	-17116	-2516	-4560	6069	4160	2406	-13544	-1544	-2032	-853	2644	1130	-7384	7768	10024	557	-5819	3089	-10800	-4000	-5416	-1647	-4885	980	-10672	872	-10968	-684	-2111	784	125	130	1
-10552	-11656	10644	1160	2149	413	-15900	-1548	-4164	2264	4822	916	-14664	-1544	-2760	-608	3030	822	-11000	9008	11640	490	-5365	3910	-11384	-3560	-6392	-1248	-5643	1084	-5792	2088	-10672	-1118	-1756	552	126	133	1
-9272	-6456	10812	1144	1333	1678	-15576	868	-3848	-3294	4996	-1090	-17136	3120	-552	-796	3557	393	-16936	8016	15840	372	-5158	4494	-14688	-456	-8704	-1268	-6178	1287	-2904	2360	-10912	-1795	-1320	195	121	133	1
-9460	-6680	11196	1020	1322	1697	-16220	380	-3608	-8153	5165	-1555	-17328	3760	2208	-1843	3782	679	-21480	2720	20048	959	-5255	4475	-15104	-168	-9096	-1292	-6247	1300	-1320	1712	-10200	-2723	-1076	-253	117	134	1
-10120	-7712	10264	99	2090	2145	-16312	-164	-3588	-8625	5196	-1729	-12680	360	1648	-2539	3781	520	-28848	3920	21624	1587	-5602	3843	-20616	-1528	-12120	-1038	-6680	1312	-2136	1712	-8496	-3290	-1266	-571	119	130	1
-8636	-8452	10720	374	2848	2906	-16404	-4780	1708	-3463	7712	376	-15512	-2920	-3120	-1852	2280	592	-32768	7136	21416	1481	-5845	3312	-24624	-1672	-14960	-495	-6648	1569	-4656	184	-4568	-2917	-1423	-791	121	133	1
-9284	-7780	10816	613	3597	3507	-14816	-1976	272	340	9888	1850	-16936	-3872	-4544	-160	1452	1193	-32768	6064	17824	1639	-5734	3441	-25544	-3080	-18624	159	-6543	1739	-7952	-3616	1496	-1784	-1492	-547	121	126	1
-10356	-6056	12636	94	4802	3843	-17952	-2040	-2064	2718	11305	3548	-22192	-2528	1360	421	1754	563	-32768	4736	11088	1495	-5086	3390	-23224	3512	-21376	236	-5884	1559	-9120	-8912	8800	-384	-1488	-153	124	135	1
-10452	-8340	13576	-1114	8197	5695	-20640	-868	-1880	1566	14453	3719	-22464	1784	3408	-367	1633	16	-32768	-1000	-496	737	-4072	3055	-17432	4632	-23392	-937	-4741	1249	-17688	-5456	18264	1549	-1392	-333	124	143	1
-9788	-8452	13736	-1315	12303	8939	-19536	2092	-304	-3636	17789	697	-20368	3400	4560	-556	1226	325	-32768	-8824	-15120	-336	-2528	2560	-14728	1624	-29440	-2025	-2691	421	-22272	-3416	25112	2791	-576	108	125	127	1
-9536	-8304	14336	-1003	13197	9385	-21752	1592	-28	-6202	20680	-475	-22400	3880	4736	-1116	1076	377	-32768	-17152	-24144	-1253	-607	1658	-7824	-72	-32768	-1943	-490	-248	-20328	7080	21432	2483	-495	816	128	144	1
-10708	-6256	16544	-1329	26163	13673	-23800	468	-128	-1524	24156	938	-22984	5544	1128	-1630	874	134	-32768	-18624	-23808	-771	985	482	-4448	504	-32768	-1362	1696	-426	-13552	12608	12248	1355	171	680	128	131	1
-10824	-7176	17472	-68	32767	17063	-25432	-160	2284	5312	26637	2578	-23416	4848	1048	-1677	930	141	-32768	-11328	-10552	-117	1899	-476	-6232	-648	-30176	-743	3164	-292	-6112	5496	20640	-821	-945	140	128	129	1
-9660	-10472	16084	-186	32767	21894	-25640	-644	5528	6140	28535	1364	-23376	-10552	8032	-728	51	457	-160	4920	32767	-1006	3025	-2121	-32768	7640	27080	2736	2064	195	2920	6616	-24920	292	2678	-37	127	131	1
-7652	-10828	18480	-2360	32767	28742	-28972	-1160	7780	224	29459	764	-25944	-8936	19656	-33	-1398	-192	-32768	-14568	21640	-790	5132	-4473	-32768	-7704	-29848	-170	3410	1226	-1608	5864	-20504	826	1926	39	127	91	1
-17224	-16568	16780	-3167	32767	32767	-31708	-856	7632	-11244	30674	885	-26776	-6688	10904	616	-2286	-562	-18408	13680	16568	-1303	3106	-2070	-26400	9104	-10008	805	4045	-1184	-25944	18720	-12088	-3480	3079	-262	127	130	1
-30188	-15568	18356	-9398	32767	32767	-29184	156	2496	-15199	32767	-3571	-20360	2880	-7224	-764	-2396	-486	-21864	-2720	16904	-682	1268	-1426	-2888	17336	-17208	-1803	3768	-1487	-23632	-10736	-12720	-1922	1551	756	125	174	1
-32492	-7220	25028	-7703	32767	32767	-28024	-4756	3480	-23715	30969	4115	-21872	2424	-15952	-772	-2336	-771	-15336	-280	16360	-762	274	-591	-10968	2360	-18864	-5249	2230	-430	-11664	-12896	-11232	766	1511	1706	128	89	1
-32768	-27596	20740	2983	32767	25241	-27188	-4344	-16936	-13655	27752	2905	-26080	2072	-14992	246	-2884	-1281	-11704	5680	13000	-246	231	-6	-32768	-16376	-15072	-2199	1760	-489	-9840	3208	-9424	2381	2091	898	127	118	1
-32768	-24128	32767	-2756	-471	-4969	-25216	2384	-9184	-4951	17960	10379	-30992	3352	-13752	1172	-3347	-2022	-10512	4496	13808	17	273	99	-15384	-6888	-10576	2006	1464	367	-21968	15752	-8752	806	2020	179	128	126	1
-1272	-16472	20044	2052	-9521	-12244	-20712	-11172	3532	-4363	4981	10878	-30648	7544	-10704	1920	-3883	-1585	-9624	7616	12120	134	309	106	-15400	7720	-7264	3100	829	822	-22072	9520	-5216	-1131	2143	246	126	140	1
-6180	-11276	17368	4929	-18406	-12116	-11132	-1720	-6836	11607	-6697	7591	-27112	10088	-9080	1917	-4242	-1719	-9680	7792	11504	99	268	18	-16232	12064	-6376	1647	697	477	-21408	-616	0	-376	2588	384	128	121	1
-8208	-9180	17108	6817	-32768	-15281	-5832	-220	-7284	10947	-16676	7047	-24328	12096	-5536	754	-3671	-1890	-9872	6416	12272	51	283	16	-15656	7632	-5640	53	618	134	-15640	-2152	712	1160	2522	95	129	133	1
-4248	-5092	12900	3979	-32768	-16941	-9212	-152	-3820	10417	-27412	6181	-21528	9920	-5376	-106	-3020	-1888	-9840	6728	11824	102	312	51	-17128	3640	-4464	-92	583	-80	-12384	5632	912	1191	2364	-310	126	131	1
-3368	-5432	9140	319	-32768	-15151	-10320	3264	-3892	8861	-32768	3885	-16656	8432	-7288	131	-2513	-1734	-9624	7944	11400	143	315	12	-17248	4168	-3448	365	691	-53	-12560	9480	1024	737	2687	-171	126	129	1
-7600	-6640	8672	-1889	-32768	-14690	-7096	8376	-6076	-1963	-32768	500	-12280	7368	-8552	65	-1850	-1448	-9728	8304	10688	101	269	-78	-13864	4776	-3896	723	633	-31	-13336	5408	88	179	2706	148	127	135	1
-8576	-8036	9432	-3135	-32768	-19140	-7100	6392	-6256	-11920	-32768	-4648	-7984	5696	-8912	-97	-1211	-1139	-9408	8960	10936	34	208	-179	-14160	6800	-3096	835	482	111	-16464	-2640	688	856	2535	261	126	128	1
-12628	-10320	11644	-2733	-32768	-26420	-10508	3736	-7160	-12750	-32768	-8537	-4824	4224	-10072	41	-935	-736	-10024	7016	11320	11	149	-283	-14888	6168	-4024	818	473	132	-18208	-904	1288	1702	2964	602	127	120	1
-18660	-9032	14948	-2229	-32768	-32017	-15276	1280	-9040	-10089	-32768	-10964	-1440	2368	-10736	886	-744	-144	-10376	6520	11712	44	187	-293	-16704	3896	-4312	919	575	67	-14048	2016	5752	2649	3336	803	126	127	1
-24032	-7144	16672	-5845	-32768	-32648	-18180	852	-9832	-4658	-32768	-11019	-792	2376	-10736	1077	-736	-35	-10488	5920	11912	70	263	-318	-15920	4760	-3136	810	741	-82	-14032	7056	3568	2802	3512	604	127	123	1
-28488	-7780	17964	-7438	-32768	-26392	-22224	2232	-11980	-1499	-32768	-12113	2320	5208	-8728	3020	-1124	887	-9920	6544	11384	93	305	-399	-14184	4912	-2152	705	964	-184	-14120	4152	-5496	1501	2065	135	125	129	1
-32768	-8308	19920	-8477	-32768	-21308	-27708	5984	-15836	-1709	-32768	-14574	-2416	5088	-4640	2998	-1447	809	-9368	8688	11832	114	398	-520	-15744	4224	-2880	668	1113	-123	-17232	3664	-4216	495	1557	76	126	148	1
-32768	-12060	16048	-8735	-32768	-25843	-29304	4572	-19600	-1328	-32768	-13576	-9664	6032	6704	2033	-2155	265	-10184	6776	13240	173	652	-659	-19112	3776	-3928	620	1287	-108	-19952	7528	4112	896	1658	213	126	131	1
-32768	-10672	3628	179	-32768	-30193	-22464	-2456	-20700	3580	-32768	-13736	-20560	840	16456	771	-2494	-270	-10480	8264	13248	160	1047	-889	-20536	3888	-2384	805	1484	-213	-19272	6872	4656	1339	1508	54	125	128	1
-32768	-7020	-8144	6402	-22351	-31372	-20048	-6844	-24560	19488	-32768	-8732	-29256	1704	19920	-858	-271	-55	-10648	6944	14216	101	1576	-1127	-19208	3840	-1424	747	1893	-210	-19304	3072	5736	515	1343	73	125	121	1
-32768	2596	-15060	9900	-9167	-30665	-13848	-544	-25888	28552	-20941	-2402	-20096	4192	22480	-2237	1045	-91	-11024	8432	15128	34	2346	-1416	-22232	5144	-2088	463	2290	-411	-22368	904	6736	559	1299	310	126	126	1
-32768	11968	-21252	9049	3546	-22110	-6488	-1912	-26076	23711	-2506	2555	-18896	-6144	16600	-2033	783	-680	-11944	7872	15912	2	3232	-1857	-25496	4560	-464	149	2684	-590	-25336	2328	6080	1453	1230	16	125	130	1
-32768	14976	-16528	2011	10056	-3472	-5452	5300	-26444	11449	13536	2673	-14712	-10368	8328	-682	215	-650	-10928	7792	15552	43	4128	-2517	-25640	3288	2528	374	3044	-550	-24888	7520	7232	1376	709	-393	126	135	1
-31900	2712	-7984	-1431	14281	7254	-8204	1600	-21420	-6890	23398	-1251	-13920	-5968	-528	1128	213	-715	-9960	10776	15000	234	5058	-3363	-25352	4984	5496	902	3420	-498	-22168	8784	13728	873	208	-268	125	129	1
-18076	-13532	26532	-3514	29634	14911	-29240	2580	14840	-20183	23858	-3514	-4472	-1200	-7680	-758	378	-1177	-9624	12080	16576	478	6208	-4510	-29096	8248	4784	1333	3593	-262	-24536	6112	20560	246	-914	82	125	130	1
-32768	12124	22720	-4381	32767	14694	-32768	11264	-23488	3925	28554	-11317	-32768	-12704	10928	-785	-615	1996	-27928	15680	14808	760	7696	-5417	-32768	6312	8792	2100	3934	-101	-20832	-9088	6368	-1662	-2428	-49	126	131	1
-16296	-20080	12644	-1403	30135	12998	-13680	-6712	-7052	-28	32767	9018	-18976	3288	-17456	4883	208	1102	-19400	-8600	22472	1987	8490	-4994	-30360	4856	-4568	2789	3674	-28	-29456	-5664	248	251	-2276	-432	126	125	1
-29748	-14956	12832	4417	21875	11301	-10416	-20668	-15764	26769	21982	6068	-8480	6328	-16776	4038	894	-1312	-32768	27488	24160	1934	7830	-5060	-29128	12392	-4032	3867	3264	-398	-24264	5760	-19136	3041	-3432	-554	127	133	1
-19268	-7048	15368	6262	7479	5362	-17196	6676	-18752	32767	10884	8614	-8912	7600	-8304	1584	2305	-1269	-26560	32767	26704	66	3542	-4441	-21592	11656	-22784	935	2691	192	-30032	3360	-16424	1811	-3798	199	125	133	1
-21084	-4008	15680	5430	6185	4533	-22156	13396	-13716	10007	14476	2623	-17568	9888	-14056	-367	1620	-161	-5344	31000	30096	-190	-1953	1397	-25656	3936	-5424	237	1506	-479	-32768	2808	-11384	68	-4638	586	125	130	1
-10320	-6140	12228	987	2301	-378	-12516	5568	-8724	-9435	14001	-6017	-21056	2768	-8712	-892	1800	1444	-3776	15144	17696	-663	-1874	1956	-18952	3584	-2640	482	-153	352	-31832	3984	-9488	-744	-4687	545	126	135	1
-9752	-5876	11676	117	2004	-211	-14052	776	-8260	-21446	11793	-8925	-19792	232	-5976	216	1753	1031	-6536	10216	17848	-89	-2710	2561	-6576	3192	-5672	-574	-1379	394	-27880	3224	-6856	-594	-4362	1477	126	123	1
-9768	-7248	11796	-51	2626	149	-21380	-5608	-5264	-17103	8813	-7201	-16920	984	-3344	480	2392	164	-5880	7824	17328	225	-4429	3014	-5480	1056	-5384	-1001	-2442	885	-23680	-656	-5840	-241	-3942	1495	127	121	1
-9588	-6304	11524	112	2507	235	-17620	-5756	-4924	-1086	6239	-2295	-15864	4288	-1776	-44	2688	317	-5672	5584	12848	532	-5674	3263	-9384	1360	-3752	-1540	-3471	1253	-18480	-1936	-8288	-210	-3402	1073	125	129	1
-9932	-6404	11496	-239	2488	9	-16708	-1764	-4432	6469	4789	931	-15800	4288	-2040	-670	2540	852	-6296	4888	10944	659	-5898	3227	-11488	-1360	-3856	-1841	-4398	1479	-13704	-1520	-10240	-162	-2633	859	126	133	1
-9408	-6924	10604	-531	2484	-2	-15824	-372	-4396	6878	3937	1274	-14088	-696	-2096	-682	2697	1135	-9464	6152	11936	759	-5802	3628	-11336	-5856	-6024	-1768	-5162	1513	-8624	-272	-10664	-176	-2071	692	125	129	1
-9564	-6996	10040	-487	2073	203	-14952	1404	-3560	1339	4544	-704	-12608	-1240	-3216	-457	3260	764	-12832	5480	14384	594	-5371	4254	-12376	-4528	-6632	-1402	-5888	1571	-7472	160	-10640	-219	-1990	646	121	126	1
-9524	-6856	10852	-608	1415	353	-14960	2308	-4256	-4633	4565	-3259	-15632	3912	-800	-531	3465	582	-20176	2168	19536	769	-5355	4464	-15904	-2112	-9224	-1487	-6300	1563	-952	2416	-11560	-1466	-1136	152	111	134	1
-9792	-5432	11048	-1059	1474	384	-15220	2312	-4220	-5444	4606	-3473	-16920	5368	2184	-1094	3730	785	-24528	-1736	21592	1607	-5692	4001	-20064	-2760	-11032	-1414	-6617	1516	528	1512	-10144	-2757	-1011	-206	107	132	1
-9680	-7928	10268	-1109	1827	837	-16680	-4264	-2412	-10225	5840	-3442	-11728	3192	5120	-2164	3940	298	-30792	1328	21568	2228	-5812	3379	-21976	-6136	-13248	-416	-6667	1576	-1240	1560	-6808	-3242	-1452	-424	110	131	1
-9340	-8456	10384	-574	2494	2258	-16624	-4840	-184	-3936	6931	-944	-16088	-1576	-6152	-2553	2294	391	-32768	4408	18872	2150	-5641	2993	-24480	-4432	-14784	666	-6369	1856	-5416	-384	-480	-2380	-1691	-711	111	130	1
-8860	-8228	10860	-258	3239	3016	-15020	-1144	-48	-492	9044	547	-14848	-4904	-10432	-634	1603	1101	-32768	4208	16472	2052	-5202	3061	-23608	-952	-19312	1272	-6190	2167	-8856	-6584	5712	-790	-1886	-421	115	123	1
-9852	-5252	12680	-979	5080	3455	-17728	-208	-1408	-161	10979	1319	-24152	-5312	5128	966	2103	591	-32768	1136	11400	1772	-4613	3288	-20936	5288	-21160	278	-5473	1719	-12288	-10176	13752	1019	-1529	-541	127	132	1
-9592	-8432	12580	-1798	8014	4931	-18928	-712	1564	-1692	14909	2564	-24000	160	9328	-4	1434	-1	-32768	-2928	-4576	127	-3750	2896	-17776	4584	-23512	-1674	-4143	860	-20256	-4944	18568	3800	-1022	-217	126	129	1
-9148	-7192	14292	-1691	12262	7281	-21332	3056	2484	-3316	18016	-115	-19792	3704	6064	-1197	1257	-44	-32768	-7632	-19456	-1341	-1706	2605	-12728	1240	-30248	-3060	-1935	-149	-21048	8176	17632	4203	-160	389	129	130	1
-11452	-5096	15916	-1971	19050	10366	-22992	1688	-2644	-2017	22112	1166	-23392	4896	2944	-1464	1077	237	-32768	-14808	-25648	-1676	472	2403	-11712	1136	-30936	-3104	-1554	-292	-19080	23232	16720	1690	-288	1067	134	137	1
