#Activity	walking 
#ActivityID	1 
#Date 08-27-18-08
acc_rf_x	acc_rf_y	acc_rf_z	gyro_rf_x	gyro_rf_y	gyro_rf_z	acc_rs_x	acc_rs_y	acc_rs_z	gyro_rs_x	gyro_rs_y	gyro_rs_z	acc_rt_x	acc_rt_y	acc_rt_z	gyro_rt_x	gyro_rt_y	gyro_rt_z	acc_lf_x	acc_lf_y	acc_lf_z	gyro_lf_x	gyro_lf_y	gyro_lf_z	acc_ls_x	acc_ls_y	acc_ls_z	gyro_ls_x	gyro_ls_y	gyro_ls_z	acc_lt_x	acc_lt_y	acc_lt_z	gyro_lt_x	gyro_lt_y	gyro_lt_z	EMG_r	EMG_l	act
-3052	-11596	12896	8221	-5424	-11106	-10080	-6660	-328	2996	-136	4051	-23440	4384	-6400	1648	-3172	-2009	-9848	6192	12488	57	207	-21	-14968	5176	-4776	-426	581	246	-18512	-192	-1336	1789	1857	226	127	128	1
-6188	-4168	13492	4996	-14451	-12879	-4928	-2804	-5700	12017	-8823	2995	-20888	6720	-4208	1346	-2891	-2118	-9960	6912	12000	115	234	31	-18024	2192	-5136	-537	540	207	-10216	8488	424	1438	1742	-443	127	139	1
-5040	-6444	12268	920	-29619	-16341	-5776	-1352	-6096	15184	-17819	3884	-18128	6664	-4104	1081	-2460	-1654	-9696	7688	11232	119	224	34	-17312	1952	-4432	356	586	121	-8528	10888	488	622	2101	-137	127	129	1
-3664	-6180	9212	981	-32768	-15566	-8820	1784	-3716	13791	-24656	2749	-17072	5656	-5016	989	-2044	-1232	-10168	7688	10904	60	176	-2	-17088	2560	-4608	512	564	136	-16096	2552	-1928	-35	2058	333	127	126	1
-3588	-5312	8096	291	-32768	-16122	-8240	6156	-4844	6781	-28998	-305	-15536	5408	-5912	857	-1850	-1014	-10040	6896	11440	15	111	-42	-14568	4816	-3640	997	248	288	-21392	-3376	-1744	642	2376	590	127	118	1
-5980	-6836	7956	-199	-32768	-18179	-7164	5948	-5388	-2697	-32768	-3956	-12272	4160	-6800	972	-1611	-863	-10032	6232	11808	71	120	-29	-16920	2880	-3568	942	321	249	-17856	-4184	336	1902	2366	712	126	126	1
-8316	-6836	9472	-217	-32768	-22343	-9996	3784	-5152	-4662	-32768	-6842	-9376	4144	-7576	1399	-1496	-607	-9800	6912	11512	102	138	-10	-16840	4544	-2720	993	397	156	-14392	3088	2200	2589	2181	323	127	133	1
-12828	-7540	12168	-482	-32768	-27120	-12920	2732	-8268	-3269	-32768	-8041	-7536	4136	-8120	1939	-1472	-243	-9584	8080	11144	105	158	-38	-15616	5232	-1992	959	415	129	-14112	10056	1712	2026	2168	247	127	134	1
-16708	-5700	13984	-1157	-32768	-28524	-14856	2048	-8848	-3506	-32768	-8382	-6016	3840	-8024	2219	-1390	22	-9704	8064	11064	63	112	-90	-14472	6080	-2216	863	543	7	-14504	11456	1128	849	2175	233	125	127	1
-20024	-5792	14444	-2886	-32768	-25881	-17200	1908	-9788	-2704	-32768	-8919	-5784	3952	-6584	1983	-1069	55	-9832	7440	11256	22	98	-160	-15192	5416	-1960	629	698	-36	-17360	4944	-208	122	1851	352	127	131	1
-22220	-7712	15284	-3484	-32768	-22742	-19972	2784	-9988	-2118	-32768	-10359	-6256	5112	-4528	1505	-738	-121	-9672	7360	11808	30	124	-179	-16224	4152	-1304	453	905	-140	-18384	2168	-704	374	1259	414	127	131	1
-29284	-11160	18700	-4881	-32768	-24354	-25344	2380	-13040	-1289	-32768	-11281	-7424	6888	-3264	541	-141	-346	-9448	7288	12352	88	225	-234	-17112	3360	-2952	270	1081	-156	-17816	3344	-1176	177	951	239	128	130	1
-31808	-13772	18028	-4659	-32768	-28467	-27028	792	-13472	1674	-32768	-11095	-8560	8304	-336	-729	433	-390	-9984	7056	12392	167	379	-284	-17360	2456	-4136	345	1187	-127	-17656	3752	-1064	97	911	172	127	127	1
-32768	-13016	14692	-4660	-32768	-29456	-28180	-276	-15360	3570	-32768	-12262	-11568	7896	3168	-1488	666	-152	-9688	6920	12512	295	572	-321	-17352	2520	-4096	491	1291	-136	-16312	2480	32	542	1129	33	127	128	1
-32768	-14372	7588	-1528	-30709	-28698	-25408	-2848	-16152	7858	-32768	-11052	-16904	5200	7568	-1730	474	157	-10288	7304	12264	332	822	-412	-17320	3848	-3480	507	1428	-181	-16824	296	856	730	1110	179	126	127	1
-32768	-5220	-1916	-758	-22136	-29793	-18600	4024	-15856	12841	-32768	-10260	-22360	-2872	18568	-1451	-262	196	-10448	7728	12776	292	1096	-542	-17248	3992	-3496	331	1717	-253	-17624	88	3296	652	967	310	123	126	1
-32768	23456	-14440	-15942	-7909	-27701	-10020	6512	-17928	-4357	-17365	-5925	-32032	-18096	27320	-1961	-380	-212	-11008	7776	13528	209	1557	-669	-18432	3856	-3752	26	2043	-361	-17984	4600	1304	959	907	274	127	126	1
-32768	12904	-23108	-2542	-75	-3844	112	-2932	-22072	-4240	2822	-3413	-20640	-17904	19312	1149	-356	-765	-10952	6776	13864	242	2130	-865	-20448	1816	-4664	50	2195	-409	-18888	8376	-648	1295	922	-61	128	126	1
-32768	12796	-14412	-8910	6484	11384	-8384	3340	-21420	-6080	17689	2556	-18704	-2912	4608	1740	-520	-880	-10832	8080	13144	325	2702	-1081	-19400	3840	-4056	346	2491	-467	-17960	7360	696	735	708	-331	127	123	1
-28752	-8064	-6760	-6863	12144	10636	-14280	1192	-16488	-3272	24681	2155	-12528	4864	536	382	106	-86	-11216	10136	12536	397	3297	-1540	-20376	5640	-3432	522	2660	-457	-19208	2968	3824	266	570	-74	128	128	1
-2896	-13140	15684	10321	24478	2517	-13448	-1832	-12936	3657	26624	3173	-5592	8368	-2752	-973	1285	512	-10928	11544	11760	641	3956	-2265	-22168	4192	-2200	836	2935	-364	-19896	-1536	8968	546	350	271	127	130	1
17472	-32768	24688	11223	18713	9712	-32768	-17148	31372	13277	8272	-2375	-1544	1824	-25416	-123	1541	373	-10904	11928	13552	1013	4860	-3217	-26936	4312	-2272	1300	3126	-209	-24592	-2392	13080	1182	-414	318	127	134	1
-32768	-7088	15952	11831	32767	19911	-19096	656	-6288	29854	11991	-3677	-32768	-8880	14544	143	159	1196	-11936	15456	14456	1476	6215	-4665	-32768	1320	4352	2230	3226	65	-28928	-1736	21472	426	-2744	202	127	130	1
-23176	1440	12060	11046	31737	24044	-32768	6984	-9516	22707	20173	3742	-27904	-8496	10208	6952	-1331	-440	-24864	9344	15184	1620	7009	-5245	-27984	1632	-1808	2877	3191	387	-23832	-6488	2400	2716	-1861	-504	126	127	1
-30956	8444	20412	9718	3639	9942	-19368	1580	-14584	22145	19876	2803	-21488	23488	-13600	5908	417	-1124	-32432	6896	12224	3605	7517	-3247	-26296	4256	-3256	3352	3094	-160	-22768	8456	-9448	3494	-3173	-779	127	128	1
-14028	-3152	12756	2285	3474	337	-15220	9708	-13740	4356	18712	539	-3336	18336	-9240	-328	1690	-1157	-32768	27456	17760	2404	6079	-4256	-28240	14464	-7680	2881	2979	-683	-26416	16800	-18928	3370	-3166	-1	128	133	1
-10700	-7776	11372	1018	2222	-876	-14484	-5084	-6952	-829	14771	-1350	-12208	9008	-9368	-915	2098	1050	-19408	32767	22472	-1688	3149	-5868	-17032	13352	-13224	632	2135	250	-26744	6152	-13640	-12	-3736	688	128	130	1
-9964	-8036	10740	136	1932	-778	-15076	-92	-6700	-570	10416	-2098	-7088	2016	-10384	-1928	1919	1172	-28984	3216	30320	352	-1299	-2009	-14880	-3600	-9776	-1423	1068	-536	-27832	4816	-11216	-615	-3884	694	127	133	1
-8944	-7088	11016	107	1591	-219	-18208	-1068	-5336	-4978	8096	-3195	-20936	-8520	-8280	-1427	2086	596	4320	19808	13760	1990	-1931	421	-17464	-416	656	84	133	-1012	-28248	6000	-5824	-1473	-3663	999	127	133	1
-9256	-6864	11480	-51	1587	-163	-18052	-2520	-6240	-5769	6262	-2653	-23648	-1224	-7472	328	1890	-187	3448	18480	10560	-457	-1608	346	-9056	176	-2848	309	-1405	17	-27272	5200	-5664	-1502	-3594	1132	127	116	1
-10104	-7152	10680	-291	1605	-126	-17596	-5052	-4316	-2971	4632	-1365	-21320	2032	-6128	494	2108	225	-8032	9200	13632	-1626	-2022	1101	-4608	2208	-4496	-94	-2258	221	-18840	520	-5064	-963	-3037	877	126	122	1
-9708	-7252	10572	-242	1530	48	-16176	-2796	-3660	349	2983	-401	-14512	-784	-3120	248	2331	666	-18128	9176	15504	-1220	-4010	2483	-4472	2536	-9976	-887	-2901	222	-15544	3272	-6688	-899	-2665	749	125	128	1
-9868	-7168	10372	-172	1594	191	-16064	-72	-3280	-3851	3002	-1142	-10352	-256	-1880	-167	2522	767	-13440	6864	11496	-526	-6083	3270	-7680	3856	-4816	-1152	-3638	256	-13248	4856	-7984	-1565	-2196	489	127	130	1
-9720	-7492	9904	154	1498	240	-15556	-2720	-2752	-7321	3092	-1513	-11832	2400	-1824	-507	2759	515	-8912	8088	5720	-313	-6702	3338	-10320	4080	-4312	-1809	-4492	583	-10936	4928	-9880	-2218	-1892	238	126	129	1
-10208	-6824	10412	385	1247	479	-15832	-3192	-1856	-5827	3004	-820	-17632	4392	288	-1122	2574	486	-10176	7072	4400	-222	-6062	3333	-11096	1328	-6152	-2479	-5087	694	-8880	4432	-9488	-2818	-1813	111	127	126	1
-9796	-6724	10684	348	1210	512	-15988	-1828	-624	-5108	3942	153	-16896	4776	1704	-1752	2440	337	-15952	9584	7616	33	-5387	3674	-13784	672	-9792	-2494	-5397	587	-7920	2032	-8552	-3105	-1561	-65	126	130	1
-9884	-7144	10132	200	1363	578	-15952	-1076	308	-6500	5582	180	-17456	3312	1296	-1811	2316	168	-22728	9808	9952	167	-5135	4033	-15904	1944	-11720	-2231	-5586	468	-6800	-96	-7624	-2911	-1146	-222	127	129	1
-9724	-7412	10504	67	1882	734	-15888	-2564	1228	-6060	7447	206	-19528	-2568	-1200	-1086	1965	-87	-26224	8288	11528	473	-5033	4297	-17944	1072	-12896	-1729	-5875	674	-6392	-1600	-5304	-2346	-973	-283	126	123	1
-9496	-7416	10804	5	2091	1305	-15300	-2120	-728	-4569	8968	642	-18336	-7768	-4016	-875	698	409	-27896	10488	12584	641	-4845	4301	-20568	872	-13176	-784	-6052	862	-7648	-2648	-2528	-1442	-891	-262	126	133	1
-10028	-7224	10684	-217	2599	1683	-16564	-2380	-2624	-3149	9855	1369	-16152	-2040	-4144	-1017	980	82	-29352	12408	14592	477	-4594	4056	-22968	4384	-14472	-460	-5953	1267	-8208	-3112	-2264	-1241	-845	-237	127	127	1
-9916	-6948	11408	-823	3530	2220	-17904	-2096	-3920	-107	10190	2601	-15944	4992	-2600	-1163	1129	52	-32768	9056	15360	705	-4459	3770	-23168	6632	-15792	-706	-5887	1359	-10952	-4920	2736	752	-275	85	126	131	1
-9740	-7528	11692	-1791	5094	2835	-17524	-356	-2880	84	11000	2899	-16008	6120	-1400	-673	1123	381	-32768	10016	10032	1097	-4477	3552	-23656	7048	-17456	-1023	-5421	1182	-14184	-1696	4984	1246	-86	341	127	129	1
-10372	-6816	11112	-2257	7372	3982	-16448	404	-1684	-2925	12506	1574	-16344	5680	-1544	-646	1138	401	-32768	4472	-1400	287	-3826	3095	-20344	1528	-18696	-1688	-4391	984	-16424	1088	12576	1753	-61	522	125	127	1
-9864	-8680	10984	-2553	9422	4817	-16668	-1112	-1100	-3890	14783	1391	-18160	-3416	1032	-1174	973	242	-32768	-5880	-12624	-360	-2212	2911	-14272	-1728	-23464	-1663	-2748	621	-20000	5128	26616	75	-777	1036	127	136	1
-11916	-6428	12328	-2592	13532	5468	-18560	-2128	-3268	-1426	17274	1893	-17488	-464	1496	-1035	928	27	-32768	-17608	-20944	-66	-709	1954	-7616	-152	-23352	-627	-689	228	-19368	14408	24304	-1000	-1203	1308	126	160	1
-11788	-6348	12332	-1573	16903	7604	-19220	-824	-3696	2196	18453	2876	-18256	2224	240	-857	770	194	-32768	-16696	-16968	183	540	414	-3528	680	-23048	-702	1226	106	-15560	6528	16664	-811	259	272	126	126	1
-11280	-7536	12688	-1851	21634	9447	-19656	-384	-3184	3316	20411	3108	-17776	952	-808	-744	623	385	-32768	-11640	-26448	-732	2618	-1832	-10912	3376	-25944	-599	2828	87	-14320	-928	9768	-933	499	-753	127	152	1
-11416	-8792	12760	-2797	27034	11518	-20280	-152	-2708	1713	22127	1553	-19472	-1248	288	-571	521	343	-26976	-21792	-16496	-815	3005	-2305	-32768	4304	27688	790	2098	-230	-4432	1448	-2096	-1286	446	-667	126	127	1
-10848	-10720	13216	-4039	32767	15270	-23844	-2748	-316	-996	23734	490	-23736	-2544	1808	-414	351	146	-29424	9184	15464	-226	4064	-2362	-24160	-3024	-15256	1309	3360	-24	-24960	10128	-3112	-195	-454	93	127	115	1
-10300	-10180	14520	-5507	32767	21376	-28700	-2192	136	-1959	24426	17	-27992	-3944	5544	-348	-440	-81	-20488	14368	9792	-771	3246	-1983	-8488	11832	-12520	242	3093	-619	-20008	816	-8136	-2801	1115	606	126	132	1
-14076	-12832	13808	-8844	32767	28622	-32768	2544	8676	-12685	26779	2764	-21600	-4448	13768	-1281	-3211	-614	-21912	6056	14552	-853	700	-1352	-11912	11800	-15712	-3001	2731	-487	-14592	-1552	-9776	-305	810	1250	126	115	1
-31000	-4188	15816	-13609	32767	32767	-24140	-1452	-2980	-14641	26624	-7214	-19864	10720	2824	-575	-2485	-414	-13696	24	14248	-805	-45	-420	-20424	-3264	-16480	-4089	1913	-372	-16984	864	-10328	598	1400	1491	127	131	1
-28956	-12760	12568	-26083	32767	22389	-22236	2832	-7024	-20031	29121	3287	-22792	8328	-13016	-1693	-1904	-1045	-10296	4928	14136	-301	112	-3	-25168	-11552	-10752	-349	1722	-287	-14928	5992	-8160	12	2029	542	128	130	1
-32768	-24516	12800	-23526	32767	26334	-26892	-6620	-10516	-21532	27375	69	-22808	4104	-16384	-2235	-2199	-1348	-10144	6544	12560	33	182	93	-13928	-336	-7648	1931	1064	474	-19312	9400	-5800	-1129	1711	228	127	113	1
5124	-21228	21812	-2931	24168	23841	-19232	-4736	-10948	-11234	18675	387	-26808	5600	-9408	-1112	-2338	-1753	-9728	7880	11656	75	166	76	-17208	7784	-4424	1646	808	490	-19848	4600	-2856	-1318	1913	322	126	135	1
-15688	-14736	23976	-3788	-8330	-223	-17572	4496	-8512	-1443	9204	6331	-26016	4208	-7224	376	-2760	-1639	-9744	7960	11496	42	137	32	-15976	8552	-4648	537	550	329	-17752	248	-192	-733	1943	370	127	138	1
568	-11124	13524	-3928	-9143	-5265	-11788	-1500	1432	-8074	150	4087	-23584	5920	-8096	993	-3125	-1829	-9784	6968	11864	12	131	26	-15752	5016	-4416	-245	539	71	-15776	88	824	280	1830	294	127	131	1
-6808	-8624	12540	-1937	-15984	-8104	-6928	-176	-6164	-1417	-6909	-385	-20904	7696	-5704	675	-2945	-1942	-9696	7048	11896	48	137	38	-17576	2648	-4232	-271	497	4	-15448	3000	608	659	1925	87	127	127	1
-8896	-6460	14064	-1830	-30826	-13886	-5252	404	-7360	-773	-14423	-1058	-18736	8120	-3352	463	-2761	-1613	-9536	6936	11760	45	137	42	-16584	2192	-3952	82	450	66	-14080	4416	848	565	2020	178	127	127	1
-4940	-6660	10752	-748	-32768	-17509	-8748	824	-2452	365	-22246	-1211	-16520	5192	-4040	195	-2279	-1293	-9616	7184	11488	66	134	26	-15152	1560	-3944	656	309	224	-14720	2208	1088	438	2124	334	128	127	1
-5356	-5836	7392	1388	-32768	-18994	-9824	4684	-4228	1894	-26479	-2167	-15456	3440	-5752	169	-1777	-1227	-9488	7352	11560	71	119	12	-16184	3800	-2960	1123	190	352	-16984	-1232	1008	904	2163	419	127	138	1
-3144	-3096	6528	-175	-32768	-20427	-7748	5692	-3072	1750	-32768	-4325	-13072	3552	-6504	611	-1439	-1025	-9784	6840	11656	91	125	0	-16088	4352	-2808	1153	258	299	-17392	-1808	1368	1723	2076	370	128	127	1
-7252	-6336	8276	-1982	-32768	-24586	-9812	4784	-5200	700	-32768	-7036	-9344	3616	-7760	1314	-1325	-652	-9776	7032	11512	94	130	-8	-15472	5192	-2104	1037	375	178	-15416	1912	1536	2167	2036	308	127	126	1
-12556	-7856	11956	-535	-32768	-29708	-12184	3420	-7476	2350	-32768	-8032	-6768	3192	-7624	2052	-1403	-200	-9480	7456	11104	85	114	-11	-15432	5264	-1992	806	466	98	-13784	6176	2368	2045	2087	319	128	132	1
-17048	-6172	13312	-661	-32768	-32768	-14352	3284	-7984	3534	-32768	-7092	-5208	2928	-6584	2441	-1476	202	-9784	7520	11544	50	98	-52	-15240	4976	-2064	711	553	52	-14760	8992	2704	1590	2091	295	127	123	1
-19436	-5784	14676	-1736	-32768	-31269	-17544	4568	-9592	2041	-32768	-7148	-4800	4000	-4720	2459	-1429	472	-9640	7248	11504	35	75	-78	-15336	4448	-1816	692	691	-34	-15480	9168	2704	1491	2069	265	126	126	1
-22796	-7080	15532	-2205	-32768	-28077	-19576	5180	-10560	-2132	-32768	-8450	-6424	4488	-2696	2025	-1187	431	-9528	7912	11208	28	62	-122	-15776	4816	-1864	684	808	-123	-16928	3512	1472	769	1748	186	128	131	1
-26000	-7892	16612	-1130	-32768	-23560	-22788	3192	-10892	-4951	-32768	-10617	-9440	5496	-608	1199	-847	34	-9696	7680	11184	40	78	-147	-15632	4248	-2248	534	950	-200	-15768	2264	-208	591	1342	197	126	131	1
-29524	-10916	17128	-2426	-32768	-22360	-24832	1768	-12076	-3687	-32768	-9958	-11312	7448	1440	-95	-260	-221	-9976	7088	11664	43	114	-182	-15824	3656	-3048	328	1095	-250	-15568	3728	-568	533	1267	89	126	129	1
-29180	-13016	14128	-384	-32768	-20292	-26004	244	-11632	-844	-32768	-10282	-13536	8312	5888	-1471	98	-342	-9600	7736	11680	79	187	-221	-16584	3736	-3608	131	1214	-278	-16248	4968	-232	517	1274	-22	127	130	1
-30336	-13524	8192	3374	-28347	-18839	-24092	-2040	-12832	6471	-32768	-9772	-15576	5776	7856	-1964	-18	-298	-9512	7736	11920	148	321	-296	-17496	2776	-3928	75	1328	-275	-16792	4520	-1024	498	1252	-58	127	132	1
-31648	-11556	376	6425	-19615	-20592	-23656	3560	-15004	12834	-32768	-5682	-17808	704	9208	-2046	-33	-269	-9264	7616	12792	213	548	-376	-17312	2456	-3672	166	1482	-265	-16472	2104	-768	168	1103	83	126	133	1
-32768	-4592	-1972	7155	-11212	-22598	-15848	4152	-19040	17625	-26724	-7256	-20696	-9072	13320	-1496	-12	83	-9952	7272	13504	286	853	-480	-17480	3776	-5104	-11	1789	-347	-17232	1608	656	49	974	191	126	129	1
-32768	8380	-8944	2750	-5938	-22725	-11552	1664	-16476	6131	-13537	-947	-20784	-15848	19160	-541	-397	389	-10104	8768	13592	233	1252	-640	-19480	3984	-5328	-112	1919	-445	-18712	3112	312	410	968	89	127	128	1
-32768	16888	-16228	3838	854	-3394	-7452	1220	-18084	9695	-404	1295	-16968	-9904	15744	960	-381	-373	-10544	8616	13680	80	1785	-948	-19568	2488	-5320	78	2066	-420	-18984	5512	24	988	859	-125	125	127	1
-32768	6668	-12584	-4472	6838	7026	-8144	4736	-18804	-3149	13308	1165	-19320	-744	7560	1202	-286	-750	-11240	8352	13472	44	2343	-1245	-19824	3272	-5280	277	2248	-456	-18392	5432	648	945	749	-171	128	127	1
-27116	-1888	-6580	-3213	12672	9739	-12348	-1544	-14300	-5947	21170	264	-15992	3568	3600	956	-177	56	-11000	9872	13576	97	2925	-1606	-20832	3704	-4488	418	2421	-466	-19256	3552	1728	579	667	-67	127	125	1
-1960	-10120	14976	6401	25075	10565	-16652	-8324	324	-4662	22454	1672	-8744	6288	-1680	-109	1090	370	-11312	9696	13144	207	3502	-2120	-21728	3256	-3208	688	2619	-440	-19568	1624	5704	612	548	61	127	129	1
1944	-20728	19304	1814	17096	15043	-30492	-5112	16764	6853	11900	-3556	-6472	3128	-8552	-993	377	212	-11488	10848	13448	278	4179	-2848	-24376	5104	-1824	895	2833	-404	-22128	1064	10216	893	113	63	127	132	1
-21940	-11752	17444	1620	32767	15915	-27708	-1552	9828	10152	12502	-5571	-20480	-5944	1536	-317	733	1407	-10672	16352	13776	374	5048	-4020	-29840	6400	2624	1290	2951	-283	-26768	4232	12680	1053	-1118	34	129	128	1
-24696	-3544	14404	2362	23685	16763	-29428	-144	-8024	11893	19895	2655	-32768	-19328	8512	4038	-607	-441	-14912	10720	15592	567	6272	-5475	-30752	3536	6600	1818	3110	41	-18624	-4768	1480	816	-1496	-450	126	127	1
-17472	1604	14624	4135	9682	9206	-19688	-1772	-10832	17390	21786	3332	-18144	11952	-11856	5275	508	-1217	-31808	7368	14848	1223	7099	-5681	-24272	4448	-5008	2388	3001	366	-24296	-2400	2464	1051	-2107	-595	127	123	1
-16108	-8504	11248	4108	3868	4537	-12828	2676	-12520	17290	16927	3073	-10392	16536	-9264	1960	1300	-938	-32768	17144	13552	2529	7398	-4420	-25912	5352	-5456	2978	3090	-135	-21680	7384	-8928	2125	-3087	-618	127	131	1
-12132	-5552	12560	3353	1302	1471	-15632	836	-9760	8924	12231	-503	-9376	12384	-7808	-252	1766	403	-25944	15312	16880	1714	6020	-4982	-26472	9208	-4288	3034	2280	-264	-27072	9208	-14768	2261	-3254	6	127	135	1
-10140	-5744	12300	1242	1327	-251	-17776	3992	-7152	1944	9606	-1461	-12352	3832	-10008	-1386	1583	1134	-25872	28776	21712	207	3836	-4904	-14184	8696	-16024	1507	1641	327	-27312	1208	-13192	517	-3589	721	128	132	1
-10204	-5768	12428	908	1445	-309	-16752	1468	-6232	-7622	8222	-3905	-19528	-5664	-7136	-502	1987	738	-32768	16872	29656	-865	-629	-862	-9576	-640	-14936	-614	885	-92	-26992	1208	-8056	-415	-3596	747	129	131	1
-9536	-6428	11496	-406	1504	-450	-17240	-848	-4708	-10943	6749	-4352	-20656	-144	-4656	479	1793	3	-1968	16208	16528	127	-2462	2219	-14064	1840	-848	315	32	-609	-25424	4864	-3832	-962	-3569	1076	127	130	1
-9360	-7108	10956	-550	1718	-526	-17840	-3328	-3176	-8889	5662	-3509	-19408	4984	-2048	433	1978	162	-6760	14168	11480	-471	-3340	2703	-8368	2544	-6456	-24	-1168	269	-22120	4192	-3856	-1084	-3459	1379	127	124	1
-9284	-7400	10904	-296	1600	-524	-16532	-4012	-2080	-3311	4655	-1653	-16072	1352	-1544	-376	1985	455	-3864	5384	10848	-697	-4421	2957	-3936	3016	-3048	-638	-2197	634	-18408	1248	-5864	-951	-2869	1122	127	125	1
-9404	-7312	10884	-176	1450	-445	-16600	-3920	-1916	-2316	4466	-1400	-12816	-1512	-744	-574	1995	692	-4392	3792	9256	-121	-4948	3167	-6496	1992	-3016	-1583	-2908	952	-15360	944	-6536	-934	-2435	726	126	124	1
-9160	-6876	10648	-127	1451	-305	-16112	-1064	-2596	-561	3898	-151	-12672	-264	-1240	-504	2105	633	-6552	4768	8864	347	-5348	3198	-8448	240	-4024	-2166	-3634	1085	-12632	952	-7576	-1052	-2149	321	126	130	1
-9664	-6984	10528	-81	1346	-212	-15488	-544	-2772	-3192	4070	-413	-16512	3192	-832	-593	2285	497	-6288	5680	9184	450	-5279	3292	-10752	-1880	-3384	-2325	-4329	1075	-9760	1832	-8344	-1345	-1707	100	127	132	1
-9436	-6368	10836	-51	1333	-200	-15372	340	-2388	-6050	4463	-917	-16896	5928	-56	-1081	2290	332	-11616	7416	12368	372	-4951	3763	-13248	-3440	-6616	-2184	-5070	1078	-7448	2176	-8440	-1766	-1535	11	127	132	1
-9552	-6084	11044	-445	1127	-365	-15616	180	-1952	-9466	5220	-1187	-15512	5488	1120	-1954	2350	318	-17032	5896	15816	397	-4903	4329	-16840	-2616	-8656	-1690	-5572	962	-6496	1960	-8320	-2371	-1210	-126	127	131	1
-9140	-7256	10496	-573	1149	-353	-15708	-2428	-916	-10006	6148	-1138	-14704	-96	968	-2354	2774	27	-22256	2208	17840	938	-4985	4389	-19640	-2432	-9800	-1112	-5933	913	-7056	1280	-6456	-2952	-1094	-237	126	129	1
-8152	-7548	11232	-140	1533	257	-16000	-3720	-796	-6413	6804	-454	-17144	-3184	464	-2133	2382	316	-26024	6312	16752	1192	-5010	3909	-20784	-2112	-11864	-116	-6087	1109	-8024	2176	-3976	-2735	-1087	-205	126	127	1
-9336	-6936	10724	-144	1762	870	-15904	-2296	-1392	-3346	7576	1095	-17176	-2792	-3088	-1334	1379	545	-29408	8408	17264	656	-4944	3342	-22432	1808	-12832	197	-6039	1486	-10000	-1600	896	-1658	-992	-94	127	127	1
-9308	-6240	10948	-341	2353	1206	-16316	-1796	-2076	-435	8427	1744	-15816	-2664	-7288	-470	997	488	-31784	9928	16736	836	-4806	3085	-25480	4360	-13952	-138	-5831	1506	-9984	-7408	3504	-22	-878	74	127	123	1
-9376	-6924	11080	-745	2996	1208	-16716	-1560	-2872	1657	9399	2629	-17304	-2016	-6120	392	1192	459	-32768	9536	13800	1085	-4665	2971	-21840	5160	-14792	-818	-5547	1432	-10496	-8176	7224	1231	-587	116	126	135	1
-9744	-7160	11216	-802	3067	1429	-18220	-280	-2540	1429	10362	3007	-19776	-664	-248	813	1043	585	-32768	7112	6528	922	-4084	3131	-22688	3376	-16288	-1638	-4872	1132	-15456	-3432	9240	2314	-228	-88	126	124	1
-9132	-6744	12732	-2327	6502	3395	-18348	-136	-1308	-671	12436	2766	-19760	1216	1544	140	859	580	-32768	1048	-2440	-122	-2824	3165	-20032	-1392	-18280	-1634	-3777	682	-16824	1600	15256	2874	-342	-5	127	120	1
-10492	-7500	12852	-2962	9792	4405	-17912	104	-1520	-1211	15334	2027	-17232	4160	3320	-408	928	310	-32768	-8800	-11560	-1053	-1497	2638	-13232	744	-22760	-1358	-2190	270	-16624	7856	23024	1252	-879	389	126	132	1
-8944	-7920	13144	-3571	12290	5569	-19044	1112	-728	-931	16066	3051	-17496	6592	4464	-742	990	9	-32768	-15592	-18656	-455	-341	1413	-7768	2968	-22184	-1047	-353	-54	-18184	18000	19800	-516	-913	988	127	139	1
-11160	-7588	13228	-2180	17653	7306	-19976	-1132	-3524	3016	18912	3330	-19808	4656	1176	-1254	887	163	-32768	-11336	-16664	-37	735	106	-6368	360	-22304	-1194	1427	-91	-18680	9896	14344	-864	137	594	127	117	1
-10636	-9064	13948	-1417	23293	10016	-22072	208	-3332	4527	20441	3161	-21392	-1400	-464	-1584	788	431	-32768	-4288	-23408	-1235	3035	-1725	-10440	2592	-24696	-696	2822	-27	-16856	-1040	7496	-1664	397	-549	128	132	1
-10648	-9576	13336	-3282	29025	13153	-22020	924	-1616	2214	23089	1928	-20968	-5304	-80	-1103	500	440	-8264	26160	32767	-998	3345	-1977	-32768	5936	22880	1259	2364	-211	-5920	-1968	1792	-2734	-42	-639	125	136	1
-10556	-10964	14020	-3786	32767	16761	-24236	-1296	1132	-2025	24550	284	-23168	-7088	1856	-510	171	251	-24784	-10168	18576	-396	3583	-2666	-25112	-7208	-15512	453	3142	242	-21056	10704	-4056	937	-184	237	126	127	1
-9548	-12048	14000	-4782	32767	24798	-27508	-4032	1600	-1437	25665	720	-26368	-6352	7960	-68	-625	3	-24544	24568	11864	-766	2543	-2052	-11936	9912	-10304	645	3028	-841	-24992	-192	1072	-3021	869	596	126	126	1
-11364	-19824	13624	-6674	32767	32767	-30324	-2780	11528	-7575	27798	2800	-22984	-8264	14856	-719	-4018	-702	-20592	-2888	17256	-992	597	-1127	-11696	10656	-13232	-2530	2688	-467	-19240	-2672	-14792	-1257	1256	639	127	123	1
-25240	-10916	10708	-12800	32767	32767	-23068	-1716	-3584	-9357	28205	-5054	-15896	9376	2752	-520	-2486	-626	-15376	4136	15384	-812	90	-384	-19216	-392	-15312	-4015	1969	-498	-15904	-5104	-6912	341	1394	1328	126	123	1
-32504	-16848	11032	-22999	32767	27588	-22380	3928	-10300	-17521	31069	7102	-23808	4000	-17912	-883	-1918	-1078	-10808	3968	14320	-217	169	83	-24728	-12608	-10808	-1210	1640	-299	-17232	3672	-7208	586	2098	790	125	133	1
-32768	-32376	19020	-16382	32767	29629	-27088	-9844	-14952	-17514	27862	1590	-25744	1080	-16608	-1309	-2146	-1780	-9624	6296	12712	62	212	125	-14352	-1296	-7456	1508	1102	411	-15640	9296	-4336	-368	1969	436	127	125	1
12148	-22556	22028	13835	21903	28037	-17488	-6080	-8868	-3696	17385	3203	-28104	5384	-8784	186	-2588	-1859	-9640	7752	11776	132	222	97	-16352	6096	-5160	1917	774	599	-18264	6456	-2168	-808	1852	210	127	123	1
-13352	-7660	23336	4160	-5966	-3181	-16924	6812	-7612	8154	7994	10649	-25776	4336	-7160	1700	-3126	-1438	-9552	8496	11400	47	152	5	-16784	10768	-5376	1233	581	485	-18576	3200	16	-257	1923	160	127	133	1
-1100	-11992	13216	-515	-6682	-8717	-10864	-1428	540	-3414	-1211	8384	-23768	6456	-8008	1759	-3330	-1775	-9680	7032	12032	-33	106	-36	-15520	6888	-4208	214	514	89	-16360	1688	880	662	1893	229	126	129	1
-5020	-9616	12256	3880	-14900	-8124	-5892	-1264	-5876	598	-9156	1399	-21296	9968	-5152	1330	-3138	-1800	-9424	7008	12240	-9	140	-26	-17656	3744	-4216	-60	439	-12	-15480	3600	304	987	2019	-2	126	127	1
-9080	-5700	13424	1310	-29145	-14471	-3256	1936	-7432	3217	-16957	1239	-17952	10152	-3504	920	-2735	-1251	-9768	6720	11984	11	134	-33	-16424	3928	-3512	-6	491	-49	-14496	5320	224	787	2126	26	125	126	1
-5660	-7488	9948	71	-32768	-18328	-7328	1512	-3104	2507	-23534	995	-15304	7704	-4136	345	-2268	-1061	-9696	6848	11640	13	111	-46	-15056	2776	-4008	242	383	27	-14552	3240	272	517	2249	290	125	134	1
-3100	-5840	7024	664	-32768	-17333	-7556	1800	-2756	2135	-24250	637	-13680	6608	-4816	183	-1833	-1058	-9672	6536	12000	35	108	-66	-15920	2336	-3896	776	205	229	-16112	-920	728	708	2279	350	127	137	1
-5640	-3080	8260	-2102	-32768	-19528	-7532	5828	-3764	-2003	-32768	-5204	-11680	5800	-6640	145	-1404	-893	-9624	6536	11520	76	113	-72	-16112	2392	-3776	873	203	246	-16472	-1784	1408	1487	2227	148	127	127	1
-10976	-7832	9884	-2497	-32768	-24706	-8248	4260	-6164	-3992	-32768	-7405	-8360	4496	-7120	299	-1063	-694	-9504	7616	11432	67	87	-75	-15632	6704	-2232	1280	405	88	-15752	2208	2480	2295	2222	108	127	125	1
-12104	-5744	12104	-1561	-32768	-29544	-12616	3656	-5464	-3042	-32768	-8779	-6888	3080	-7824	893	-995	-384	-9728	7136	11504	61	77	-114	-15096	5656	-1664	835	449	23	-14816	6368	3096	2168	2247	375	127	127	1
-17116	-4916	13556	-3699	-32768	-31781	-16024	3912	-8000	-336	-32768	-8476	-5336	2680	-7080	1771	-1001	-4	-9768	7296	11696	43	73	-134	-15224	5144	-1336	765	582	-76	-15520	8496	3168	1668	2158	404	126	124	1
-20876	-5944	14712	-4738	-32768	-30027	-17284	5536	-9644	-1299	-32768	-9215	-4192	4120	-6832	2271	-964	341	-9440	7888	11424	6	50	-162	-15296	5280	-752	671	781	-192	-16280	7608	3112	1040	2002	270	125	128	1
-24980	-7428	16140	-4313	-32768	-28615	-20364	5604	-10308	-3638	-32768	-10521	-5232	5128	-5976	2089	-827	422	-9360	8176	11592	-12	53	-208	-15736	4928	-1744	460	934	-245	-16552	4416	1360	391	1769	145	125	130	1
-27232	-10228	17676	-2303	-32768	-25188	-25800	2836	-10856	-4043	-32768	-13110	-8512	5592	-3464	1533	-338	180	-9776	6744	12320	-10	113	-254	-16232	3904	-3568	141	1083	-254	-16232	3504	-1768	353	1339	74	127	129	1
-32624	-11428	19084	-4152	-32768	-25031	-29252	2008	-14176	41	-32768	-12704	-12064	7696	2944	50	-201	-113	-10008	6176	12488	46	219	-290	-16920	2184	-4376	86	1198	-274	-15768	3504	-3944	401	1295	-28	125	129	1
-32768	-16160	12208	1310	-32768	-26792	-25952	-392	-14940	6373	-32768	-11028	-15592	6192	8800	-958	-592	-101	-9840	6224	12728	158	401	-299	-17792	2328	-4016	237	1270	-257	-16528	3536	-1160	164	1365	-136	127	129	1
-32768	-8552	2096	7404	-25319	-28447	-22840	-1400	-15864	15277	-32768	-7491	-20936	2536	11752	-1919	-590	190	-9560	8344	13016	286	655	-436	-17936	2504	-3440	277	1285	-256	-17632	2272	1408	94	1278	-8	127	130	1
-32768	-5428	-5012	9631	-15426	-26869	-17980	1312	-18560	19374	-29869	-4970	-21424	-4880	16360	-2153	-164	183	-9952	8976	13456	266	987	-571	-17672	3888	-3272	246	1736	-321	-18648	1088	3576	254	1034	164	126	130	1
-32768	10820	-12624	7495	-7385	-23131	-9648	876	-19300	10168	-15164	-659	-21720	-13736	21008	-1288	300	-91	-10696	8136	13672	119	1411	-762	-18424	3736	-4048	123	1997	-397	-18392	2064	2528	644	875	120	128	128	1
-32768	15744	-18076	3840	-1662	-3675	-7080	64	-20508	6046	3	909	-19136	-11360	16992	-203	-137	-655	-11080	8680	14040	36	1974	-1069	-20336	3016	-4776	107	2240	-446	-19472	5584	1064	1036	814	-159	124	129	1
-32768	6096	-14476	-5298	4735	8516	-8004	3372	-20124	-5237	13915	672	-19056	-1744	7872	1181	-400	-715	-10528	7776	14440	-3	2587	-1372	-21120	2824	-4528	350	2444	-473	-18984	6928	1912	1007	731	-261	128	131	1
-27512	-9072	3564	4217	16507	9845	-12904	-2280	-13532	-10254	21322	-490	-15648	4104	2592	1023	-72	-274	-10840	8664	13672	38	3214	-1779	-21664	4744	-2920	582	2662	-486	-19408	4664	4368	657	639	-140	125	127	1
-11492	-18432	29156	184	20307	14093	-25200	-6240	13608	-12850	20963	1212	-15976	10112	6264	-1018	318	322	-11264	11088	14824	214	3917	-2474	-24056	5624	-2008	757	2912	-458	-22176	2760	7784	461	296	-23	126	127	1
-6128	4292	14732	-4138	31584	15837	-32580	9312	-1264	5917	19069	-7642	-18208	2880	-5192	-788	-132	660	-10184	12624	15168	287	4785	-3537	-29176	6512	-2432	858	3076	-414	-27520	3472	11160	609	-493	-48	126	133	1
-24348	-6272	16816	-2771	22883	12040	-22416	-1940	-6456	-1140	25744	2403	-25328	-20664	4336	1143	-37	816	-11984	19616	18936	508	5785	-5090	-32768	4808	5704	1758	3094	-162	-27592	2624	19528	-442	-2996	66	125	131	1
-32768	-32540	12992	1016	16777	7771	-15016	-10920	-11640	15086	21565	4271	-15512	5640	-9288	4244	769	-909	-23096	9704	14984	898	6832	-5784	-26096	2936	-2520	2191	3081	318	-21104	-6120	1760	1149	-1659	-319	123	127	1
-15020	-11568	12816	4717	5930	5984	-14556	-2564	-10636	30335	14700	6576	-11088	10216	-11496	1948	977	-1001	-32768	10760	14128	2905	7621	-4184	-24208	2512	-4328	3051	2993	-72	-21024	920	-7168	1525	-3042	-624	126	131	1
-13796	-5896	12800	4324	2318	2515	-18416	6680	-11912	19256	11421	4443	-12184	8496	-9320	857	1918	-187	-30592	14304	16488	1768	6375	-4944	-26944	9656	-6392	3451	2683	-322	-26424	6224	-15608	2872	-3250	-198	127	134	1
-9868	-6400	12260	1670	1468	329	-19372	7068	-7584	3467	10104	-2044	-17136	3984	-10560	-438	1532	1098	-32768	31304	22936	734	4154	-4608	-16800	9200	-16360	1412	2118	438	-25584	792	-14584	1702	-3643	534	127	132	1
-9532	-6832	11552	423	1191	-262	-12908	3856	-7444	-14253	9828	-6019	-17728	-2712	-6528	87	1578	916	-32768	18096	29872	-750	-624	-457	-13928	-2184	-9576	-239	1139	-6	-28232	1848	-7264	293	-3952	484	128	132	1
-9284	-7124	11468	-95	1204	-354	-12952	2796	-7152	-16166	9652	-6530	-18512	2192	-3584	1069	1763	138	7392	17328	13232	-4	-1320	2057	-16568	3136	2856	855	82	-378	-26736	6336	-4216	-583	-3765	779	127	131	1
-8924	-7580	11108	-152	1375	-307	-18528	-5948	-2936	-5531	5539	-4096	-18752	6056	-2256	397	1904	82	-2656	13344	12128	-665	-1192	2006	-6472	3528	-2688	-55	-1149	375	-22920	4792	-4728	-634	-3420	1284	126	122	1
-9168	-7100	11156	-251	1436	-463	-16400	-2992	-3280	3237	4223	-413	-16608	4096	-1168	-245	1906	483	-13816	7992	16264	-706	-3039	2652	-1504	3848	-8632	-1174	-1697	759	-18728	384	-5808	-598	-2969	1027	127	122	1
-9328	-7728	10996	-481	1495	-644	-16036	-1276	-3260	5053	3479	692	-14256	168	-1184	-584	1887	805	-7632	4680	13096	156	-4983	3506	-5576	3480	-3184	-1872	-2617	937	-14976	456	-5824	-683	-2577	683	128	123	1
-8512	-7624	10448	-380	1219	-745	-15824	596	-3276	297	3897	-253	-12800	-1056	-1400	-624	2114	763	-7672	7032	9568	544	-5713	3666	-11408	1856	-3952	-2284	-3499	1097	-12920	1360	-7384	-883	-2206	401	128	131	1
-8664	-7492	10564	-351	960	-797	-15348	992	-2980	-7003	4124	-2194	-15696	1808	-2272	-854	2433	481	-7216	8168	8480	306	-5767	3704	-12696	-1328	-4568	-2300	-4386	1213	-10992	2640	-7784	-1237	-1834	220	127	132	1
-8932	-7668	10872	-324	733	-591	-16008	-1404	-2564	-10347	3896	-3075	-17704	4176	-1056	-1287	2751	352	-11440	6560	9928	187	-5136	4211	-13424	-2704	-6480	-2211	-4967	988	-9896	3544	-7400	-1644	-1601	101	126	131	1
-8588	-7300	10856	-407	865	-368	-16804	-2376	-2636	-8984	3542	-2353	-15752	3704	-56	-1940	2937	311	-15824	6128	14512	246	-4734	4463	-17064	-1216	-9192	-1762	-5427	897	-7968	3560	-7192	-2667	-1278	83	126	129	1
-9024	-7368	10920	-436	1216	29	-16720	-3336	-1604	-5573	3942	-446	-14232	-352	1056	-2116	2823	427	-24712	-3056	23856	954	-5053	4303	-18440	-2120	-12120	-1343	-5616	851	-7776	3256	-6648	-2837	-1249	75	127	129	1
-8660	-6948	10656	-413	1576	518	-15888	-1924	-776	-2716	4997	1068	-14560	-1632	-504	-1657	2561	479	-25152	3480	16000	1278	-5069	3414	-20448	-4600	-11704	276	-5907	970	-7504	2624	-1008	-2689	-1506	0	125	127	1
-8920	-7392	10668	-405	1902	831	-15756	-1588	-600	-2574	5040	1129	-18552	-4016	-4456	-723	1443	786	-27128	5416	15536	1221	-5089	2465	-21248	-1184	-12384	1600	-5734	1489	-8888	-1720	3072	-1628	-1671	-126	127	128	1
-9292	-7640	10832	-480	1993	1069	-13320	-2236	-408	-2893	7561	579	-18576	-4352	-4944	272	948	766	-29224	9512	13040	1346	-4773	1808	-23176	5784	-12880	1606	-5446	1845	-9760	-6488	5296	-259	-1324	64	127	123	1
-8600	-7848	11592	-517	2929	1624	-17148	-2360	-1292	-950	8902	1662	-19208	-1736	-2520	690	1079	334	-31776	15736	10088	1304	-4375	1954	-19264	8656	-13280	-85	-5040	1870	-11488	-8184	6888	1117	-686	229	128	140	1
-9444	-7576	11404	-1280	4043	2260	-17312	-1400	-2068	381	10471	2881	-18384	664	224	634	980	428	-31272	10928	6088	781	-3489	2996	-19512	5368	-13728	-2131	-4395	1619	-13368	-6280	7064	2177	-202	52	126	123	1
-9488	-7784	11860	-1739	5846	3027	-17644	-1196	-724	856	12154	3177	-18512	2920	1088	354	801	488	-32768	3272	2208	489	-2293	3799	-20320	360	-16576	-2503	-3567	992	-16424	352	10160	2742	-432	-96	127	123	1
-9248	-8740	11868	-2885	8085	4775	-17756	520	-2104	602	14020	2601	-17744	4688	1936	-119	796	360	-32768	-3048	-2200	-662	-1406	3672	-17312	-400	-20200	-2239	-2511	358	-15344	4736	15400	2367	-768	98	126	130	1
-9704	-8280	12960	-2413	11423	6002	-18396	856	-2548	-430	15856	2747	-17712	6960	2792	-848	887	155	-32768	-10688	-10264	-1354	-591	2592	-12296	600	-22416	-1782	-1236	-10	-15712	14128	18504	485	-1107	740	127	138	1
-10104	-8048	13552	-1038	16439	8060	-20380	-40	-2456	1495	18078	2421	-19880	6440	1632	-1315	996	192	-32768	-12592	-16048	-375	243	1046	-7696	168	-23144	-1307	345	-34	-15800	18336	12976	-508	-20	1622	127	153	1
-10344	-8644	14232	-1202	22283	10094	-21044	296	-3016	3209	20209	2798	-21832	112	-600	-1564	813	362	-32768	-9080	-11296	137	1265	164	-5904	-992	-21928	-960	1816	52	-16872	6800	7328	-1724	656	674	126	129	1
-12056	-6684	14620	-2210	26513	11203	-21464	208	-1656	3299	21807	2166	-21344	-2800	-224	-1374	629	378	-32768	376	-17608	-1783	3213	-1583	-12640	1272	-20168	-263	2735	117	-12080	-896	22288	-3192	-242	-503	127	135	1
-10568	-10536	12668	-3622	32767	15779	-22212	-344	-496	1858	23315	1159	-19864	-3424	1440	-925	257	285	7648	20232	32767	-923	2601	-1156	-32768	3360	23088	1202	1688	-308	912	7184	-10440	-348	1803	-100	127	135	1
-10372	-10912	13068	-4099	32767	20929	-24716	-1764	1832	-932	24074	489	-22776	-3248	4528	-448	58	133	-32768	-2680	20856	-324	3916	-2651	-23704	-4968	-15888	-908	2678	35	-32768	12384	13064	-1722	-893	436	128	134	1
-9900	-8232	12900	-6690	32767	28366	-27864	-1648	200	-4291	24037	701	-26952	-4792	8016	-110	-918	-131	-11944	12088	12288	-841	3705	-1681	-16808	7808	-6496	-883	2935	-855	-24192	-2352	-1056	-4638	2169	466	126	130	1
-20808	-25344	11008	-7095	32767	32767	-28028	-2024	8612	-13216	29275	1285	-17840	-1848	5792	-1073	-3229	-987	-26312	1912	13920	-1051	737	-1802	-10968	12056	-17080	-3049	2747	-688	-20216	-11624	-5256	-1478	1307	950	128	120	1
-31444	3512	13016	-17716	32767	32767	-20928	236	-11332	-12853	28443	-5029	-17568	6352	-344	-1106	-2206	-492	-17328	320	15528	-1028	22	-731	-17624	-1072	-16192	-4303	1915	-199	-17064	-4664	-9416	966	1411	1330	127	132	1
-32768	-18056	13060	-23445	32767	26915	-27236	-2444	-4424	-24410	28871	7559	-24336	1360	-19064	-1434	-1911	-1250	-11184	4280	13672	-386	117	-49	-27104	-13712	-12144	-515	1785	-225	-11912	8208	-7200	1688	1903	982	127	136	1
-32768	-24840	18784	-10981	31215	27283	-25652	-8196	-12972	-13067	24331	1774	-25440	1280	-16160	-948	-2334	-1963	-10168	6312	12416	-70	163	69	-13664	-760	-7824	2387	1003	310	-15480	11144	-5768	-28	1793	688	126	118	1
-32768	-17784	19256	9013	9369	16946	-15180	-3980	-8760	626	15021	5060	-27712	3472	-9920	767	-2781	-1802	-9640	7288	11896	19	178	60	-16864	7040	-4872	2276	702	705	-19776	6096	-2784	-1034	1776	181	128	131	1
-6820	-14576	17796	6081	-10226	-3246	-15324	612	-3452	3451	5016	11071	-26552	3744	-6944	2032	-3351	-1530	-9880	7616	11480	13	155	34	-16128	9704	-4208	1043	599	285	-20096	1216	-696	-438	1927	171	127	135	1
-6268	-10616	14216	6779	-16949	-6739	-9684	-1740	-3836	4611	-4382	6989	-23656	6960	-7176	2005	-3578	-1797	-9840	6832	11720	-1	160	27	-15400	7456	-4336	-300	636	74	-17184	544	888	513	1958	76	127	130	1
-4912	-6776	12592	5465	-27462	-11051	-5408	156	-5472	6211	-13063	4883	-21504	10088	-4792	1269	-3257	-1782	-9904	6800	11952	36	183	53	-17336	4584	-4112	-806	597	-76	-16728	1016	624	597	1981	15	126	130	1
-3212	-6312	10252	2829	-32768	-14888	-6304	376	-3712	5477	-20950	3635	-17808	10088	-4416	891	-2727	-1384	-9744	7384	11544	43	189	58	-16896	2064	-3728	-403	611	-57	-13152	6464	1064	446	2128	150	127	125	1
-4760	-6360	7936	1398	-32768	-15783	-7496	2476	-3448	2782	-26895	1231	-14648	8184	-5576	408	-2100	-1261	-9720	7384	11328	36	162	15	-15240	952	-4104	639	406	154	-13928	3496	776	137	2182	332	127	124	1
-6276	-7196	6684	330	-32768	-18263	-6624	4128	-4088	-713	-30941	-1250	-12200	7112	-6248	134	-1615	-1144	-10080	6952	11208	30	143	-27	-15416	3920	-3496	1389	255	323	-16952	-728	-24	326	2220	347	126	131	1
-4344	-6560	6376	-200	-32768	-21180	-6432	3568	-3632	-6438	-32768	-4660	-9912	5048	-7136	-46	-1179	-924	-10120	6864	11336	47	139	-30	-15752	5288	-2800	1349	282	314	-17024	-3288	1488	1433	2112	360	126	130	1
-9844	-7840	9088	-1835	-32768	-26729	-9432	3084	-6380	-4637	-32768	-7010	-7664	3568	-8864	57	-863	-675	-9864	6352	11424	60	139	-34	-15240	5096	-2616	989	414	249	-14888	48	2016	2215	2218	245	126	119	1
-14672	-8296	12476	-1369	-32768	-31969	-12660	1800	-7784	-3790	-32768	-8276	-5184	1456	-9088	671	-733	-318	-9920	6704	11656	89	134	-45	-15568	4712	-2584	839	516	156	-13512	3856	3616	2327	2364	563	127	127	1
-18164	-5668	13176	-3827	-32768	-31535	-16132	2520	-8328	-2231	-32768	-7821	-3416	1808	-8144	1880	-758	149	-9808	8304	10928	65	120	-64	-15104	5816	-2016	880	655	-31	-14152	9488	3328	2131	2428	582	126	122	1
-22804	-6800	13808	-6550	-32768	-27410	-17924	4256	-10756	-3615	-32768	-9606	-3192	3440	-7112	2760	-931	372	-9608	7992	11152	26	95	-163	-15472	5792	-2000	815	723	-21	-17080	8952	1208	1436	2296	380	127	131	1
-25896	-10164	14100	-5137	-32768	-21662	-23024	3196	-10336	-6716	-32768	-13335	-6176	4888	-5544	2497	-1028	269	-9704	7664	11216	20	107	-225	-15728	4568	-1840	814	869	-90	-17072	4928	-1080	930	1562	142	127	129	1
-32768	-14648	16204	-6390	-32768	-22469	-26824	2080	-15664	-2906	-32768	-14681	-10168	7048	1496	1473	-1099	-71	-9984	7352	11840	41	186	-259	-16624	4448	-1608	568	1079	-156	-16816	5208	-608	539	1134	171	125	130	1
-32744	-14168	12248	-5809	-31608	-27064	-28156	1336	-14248	2866	-32768	-14731	-15096	9128	9336	662	-1166	-222	-10192	7720	11992	116	337	-278	-17024	4888	-2640	292	1338	-218	-17088	6000	736	247	945	-39	127	130	1
-32768	-11744	8736	-3178	-25072	-31137	-23756	-428	-17404	7500	-32768	-13349	-19856	4656	13824	-102	-1064	206	-10304	7400	12384	203	530	-384	-17592	3776	-3848	175	1564	-238	-17512	4656	2640	248	1035	-37	126	131	1
-32768	-6072	2320	5155	-21206	-29943	-20204	-560	-16192	13464	-32768	-9293	-19776	1168	11624	-1724	632	429	-9960	7168	12728	328	811	-498	-17488	3168	-3104	385	1721	-285	-17056	2120	2712	596	1048	145	127	129	1
-32768	7136	-5140	7299	-11870	-26774	-15420	2188	-17296	14552	-24171	-4025	-18240	-4064	15888	-2631	782	45	-9744	8568	13224	304	1172	-665	-18208	4136	-3832	434	1920	-322	-17232	1136	2296	725	879	181	127	128	1
-32768	9720	-13944	6952	-3269	-15336	-9760	472	-18700	12434	-9664	-760	-19088	-8608	17568	-1900	437	-432	-11256	7952	13648	224	1675	-930	-18600	3368	-5648	262	2148	-320	-18344	1384	928	914	785	111	127	127	1
-32768	11004	-15056	-1532	3341	-2592	-7364	3988	-19244	4913	6004	393	-21264	-10888	13480	-140	-17	-933	-11536	7720	13664	216	1762	-956	-20448	2496	-4808	304	2378	-378	-18760	4304	1096	1260	734	-103	120	129	1
-30688	2824	-8656	-4813	8630	4662	-9176	2012	-17608	-3086	17055	-660	-17520	-4208	7840	1295	-225	-450	-11456	7600	13816	325	2994	-1438	-22112	2864	-3672	591	2534	-410	-19824	6064	3864	1169	730	-165	128	127	1
-22776	-4008	-12220	3029	23597	16947	-9988	1652	-16968	-3409	18354	-512	-12632	4632	3424	999	566	-200	-11632	8792	13808	442	3769	-2002	-23328	4304	-2848	851	2785	-405	-20856	4040	6744	882	434	-23	129	128	1
3292	-24724	30864	4171	18659	13557	-32768	-1136	23628	-6350	17679	855	-8152	1792	-7320	-308	442	-322	-10896	13008	14512	679	4658	-2922	-27728	6744	-1584	1090	3008	-316	-26072	3496	12264	674	-126	3	123	131	1
-32768	-2328	17768	1061	32258	14536	-26736	4560	-10616	11615	20142	-4600	-28920	-9288	-1104	-649	399	1504	-9200	19088	16392	1113	5869	-4410	-32768	4992	4280	1595	3180	-141	-32000	6336	21896	229	-2333	193	128	128	1
-20752	-8520	14100	1528	22718	11626	-19004	-2508	-8248	8924	24252	5190	-20224	-7368	-3960	3820	16	100	-20656	12600	17352	1531	7052	-5420	-30304	1224	752	2235	3211	323	-22296	-6056	2224	1102	-1502	-301	128	127	1
-24572	-6968	12484	4525	10401	10016	-16156	-9612	-12468	21953	18990	4388	-12616	9640	-15872	4189	867	-1061	-22864	-6352	10096	3260	7695	-4323	-23272	2912	-6840	3350	2984	359	-23840	-2000	-3264	1266	-2984	-697	127	127	1
-15724	-8876	12436	6719	4737	7081	-14496	2808	-13360	28886	12012	4645	-10048	15440	-7872	1255	1516	-600	-32768	15576	16880	2861	6181	-4442	-28032	10312	-6416	4165	2675	-193	-24616	5960	-15112	2885	-3292	-427	129	133	1
-15936	-7924	12400	6886	3982	6290	-18748	9024	-10484	9452	9995	556	-15000	10488	-10896	76	1891	438	-32768	32767	20264	1553	3772	-4858	-17464	12392	-19176	1735	2557	526	-26008	864	-15000	2112	-3563	303	127	132	1
-10256	-5616	12672	1520	1522	209	-16508	6984	-8560	-9368	9704	-4639	-17312	1904	-8432	-562	1777	1074	-26712	32767	23808	742	2891	-4675	-15776	-712	-3552	453	1180	147	-26416	-56	-13328	1661	-3690	397	127	131	1
-9244	-6892	11532	32	1442	-398	-15920	-792	-5796	-19084	7926	-7634	-19208	-3120	-6224	373	2039	694	7392	18192	13392	888	-1700	540	-18256	2192	4480	1244	69	144	-27848	4352	-4792	-225	-3985	530	128	133	1
-9140	-7060	11184	-235	1563	-261	-18820	-5732	-2920	-11338	5178	-6126	-17176	2936	-3048	685	2179	242	-3408	16056	14904	268	-2169	1359	-5880	1024	-3696	211	-922	733	-23536	3328	-4320	-187	-3650	1071	125	125	1
-8900	-7104	10976	-45	1641	-255	-17104	-4320	-1688	-1007	3773	-2054	-16312	4776	-1312	-50	2251	441	-2560	9736	16048	-157	-3455	2576	-3888	1160	-2200	-253	-1980	1055	-18976	1208	-4552	102	-3213	1002	127	120	1
-9080	-7332	10828	164	1610	-285	-16020	-3604	-1708	4071	2998	268	-15552	856	-1008	-527	2156	766	-3528	5352	13328	188	-4060	3314	-8408	2472	-72	-1116	-2821	1273	-15208	1344	-6200	106	-2767	792	125	123	1
-9060	-7696	10568	694	1387	-93	-16068	-2348	-1772	4729	3163	1330	-13960	-3216	-744	-389	2237	765	-7808	5456	12944	486	-4915	3649	-9328	776	-4192	-1932	-3619	1380	-11848	2208	-7960	-97	-2133	546	126	127	1
-8904	-7960	10476	1283	1127	203	-16028	-1872	-1856	4200	3350	1291	-14592	-1976	-416	-417	2247	471	-6384	5912	11984	416	-5228	3794	-11728	-1216	-3776	-2068	-4519	1425	-9408	3992	-8624	-514	-1813	371	128	130	1
-8904	-5936	10812	1199	1219	469	-15572	1748	-2256	-7244	5245	-1514	-16664	4288	1016	-778	2199	391	-11120	6040	13192	220	-4960	3996	-14096	-2200	-6144	-2311	-5160	1266	-8608	5440	-8816	-1243	-1497	162	125	134	1
-9132	-6332	11484	688	1017	-45	-16168	-44	-1276	-12409	6034	-2168	-15504	6712	1920	-1452	2361	545	-18040	5704	16944	274	-4877	4278	-17032	-2248	-9600	-2316	-5598	962	-7520	5136	-8712	-2459	-1086	-21	127	132	1
-9136	-6692	11108	514	1436	207	-16832	-3640	404	-9887	6726	-1348	-16000	3464	2200	-1936	2668	292	-23336	2744	17488	685	-5043	4199	-20648	-3496	-10528	-1653	-5917	783	-6472	3480	-7512	-3433	-1007	-150	127	131	1
-9356	-7108	11276	475	1852	630	-16060	-4016	640	-3465	7698	1329	-17560	-808	112	-1575	2240	231	-26280	7128	16784	711	-5006	3687	-20736	-2936	-12800	-389	-6055	898	-6640	4272	-4960	-3561	-1255	-156	126	128	1
-9340	-7712	10920	397	2401	1058	-14856	-2988	8	858	8848	2281	-16872	-5008	-4680	-898	1080	473	-29432	9040	15416	237	-4782	3299	-22480	1216	-13480	243	-6063	1209	-8600	256	720	-2582	-1490	-145	126	127	1
-9288	-7468	11128	289	2700	1422	-15996	-532	-1852	1929	9712	2722	-16560	-4968	-6320	-355	1134	254	-31480	12016	14624	362	-4514	3230	-23288	5960	-14048	-191	-5776	1211	-9080	-5464	4304	-1023	-1295	33	127	119	1
-9844	-6208	11664	-569	3584	1593	-17308	100	-3104	199	10953	3305	-17328	-216	-2384	171	1172	257	-32768	14944	11520	556	-4228	3392	-22304	8960	-14664	-1537	-5381	1144	-9656	-6896	7104	283	-605	81	128	145	1
-9592	-7528	11808	-1213	4659	2047	-17156	-860	-3020	-1355	11955	3329	-17520	1720	-560	86	891	512	-32768	13848	6200	199	-3661	3707	-22344	5672	-16072	-2654	-4816	939	-16376	-5624	8688	1723	138	25	126	129	1
-9112	-7324	12724	-1346	6415	3234	-18068	-560	-2308	-1827	12837	2815	-16720	3320	-1840	-219	884	546	-32768	7272	-1504	-491	-2760	4000	-20696	2312	-16848	-2704	-3803	503	-18296	-1880	14120	2154	336	170	126	121	1
-9404	-8740	12180	-2271	8971	4774	-18700	400	-1736	-2070	14381	2364	-17536	3392	480	-397	904	455	-32768	-2600	-10256	-1215	-1475	3554	-13784	160	-20600	-2358	-2475	302	-17848	-800	15912	2040	225	237	127	124	1
-10400	-6792	13428	-1956	12355	5806	-18620	-560	-2896	-428	16872	3403	-17912	4232	2504	-690	979	181	-32768	-14408	-16440	-533	-383	2272	-8288	1064	-22016	-1220	-716	200	-16424	12752	19704	-1569	-824	1322	125	137	1
-10504	-5672	14168	-791	17405	7255	-19140	-964	-2608	-53	17088	3519	-19520	4416	664	-1152	877	176	-32768	-14056	-15312	31	565	439	-5232	576	-22360	-837	1049	186	-19368	7472	16392	-1732	-543	852	126	129	1
-11412	-7696	13256	-996	22217	10419	-20392	1348	-4464	2827	20427	3502	-20176	1128	-528	-1392	652	373	-32768	-8024	-7720	176	1149	-686	-8168	16	-21536	-9	2312	6	-15704	-1792	7704	-1075	245	-489	125	132	1
-13948	-6548	14092	-1567	25851	12185	-19912	972	-2084	926	21648	1601	-19520	-1496	720	-1244	535	440	-9040	8616	3656	-1868	2683	-2675	-19384	5640	-9072	922	2979	249	-8536	-5696	21552	-968	-725	-569	126	135	1
-10812	-10272	13244	-2740	32181	16956	-22108	-1196	-444	-1980	24046	865	-20736	-2872	3840	-883	326	273	11360	14760	20672	-599	2437	-2680	-32768	-2512	16968	33	1709	334	-5712	5544	-11416	2612	1002	88	126	126	1
-10812	-11052	14356	-3485	32767	23120	-28340	-3384	536	-3228	25031	-121	-26544	-4136	8456	-573	-135	28	-32768	12704	20048	-274	3807	-2000	-20080	-352	-10496	497	2651	-537	-32768	17600	16968	-1767	-1456	671	126	110	1
-12208	-16992	14608	-6340	32767	31169	-32596	-3224	10184	-10133	26441	2575	-28856	-6000	14296	-680	-2329	-256	-30336	21840	10736	-1392	3632	-1623	-14608	8024	-10856	-1509	3162	-820	-21360	872	-8000	-3537	1889	1057	127	132	1
-22540	-13568	16932	-11340	32767	32767	-26284	-1020	-8	-12494	28394	-4954	-17608	6528	2704	-1127	-2601	-591	-24176	2328	16856	-631	1512	-1385	-11920	5424	-14176	-4049	2488	-504	-18056	-12144	-7088	-523	1100	1074	127	181	1
-32768	-10912	15488	-23284	32767	28200	-22620	2292	-2676	-23023	30466	3541	-19680	4616	-9200	-947	-1931	-947	-19208	3056	14424	-725	328	-652	-19928	-3976	-16280	-2962	1774	82	-15200	-1424	-7824	961	1660	895	126	115	1
-32768	-28784	17136	-20883	32767	29379	-30760	-9400	-14640	-24009	31440	2414	-24448	424	-17304	-1607	-2285	-1545	-12088	6040	13640	-336	160	-183	-23112	-8232	-10088	656	1468	162	-12744	13176	-7544	885	1686	353	126	124	1
44	-15896	20112	3389	15483	26144	-20668	-9256	-9436	-7363	23093	5301	-28880	2592	-12984	-430	-2418	-2322	-10960	6368	12768	-84	143	-37	-14296	2048	-7256	2515	933	562	-17768	12848	-5456	-950	1611	474	127	109	1
-5424	-20404	21312	-880	-9823	-6430	-20792	1888	-6060	2956	11140	12470	-30456	2496	-9408	1578	-3084	-1844	-9888	7136	11752	-25	124	-12	-17048	8112	-4344	1954	690	565	-20560	1672	-1376	-1564	1909	432	127	128	1
-4424	-17436	13420	6211	-10608	-9696	-12268	-3760	-3280	4694	2312	7175	-26144	4368	-7880	2469	-3671	-1726	-9800	6720	11928	-18	122	1	-15696	8608	-3304	465	613	197	-18992	-3232	1696	-114	1841	472	127	135	1
-3468	-7216	12316	7686	-22333	-16519	-5312	-568	-5872	9608	-7567	6017	-24056	6104	-5720	2060	-3599	-1898	-9328	6504	12008	-3	161	21	-15920	5616	-3152	-668	621	59	-15408	1488	1488	877	1749	52	127	129	1
1892	-6080	7848	5791	-28748	-17841	-6864	-456	-3332	8133	-14904	5212	-21584	8056	-3984	1720	-3268	-1714	-9448	7424	11560	-72	204	7	-17592	4672	-4136	-1022	596	-29	-13856	7232	1064	744	1835	-76	128	127	1
-132	-4220	6080	4190	-32768	-16499	-7500	2116	-4340	9488	-22135	2278	-18112	8328	-5272	1428	-2698	-1466	-9856	7216	11088	-130	188	-17	-16200	1600	-4040	-630	557	-26	-13256	6360	600	398	1982	241	125	121	1
-1260	-5696	6200	3257	-32768	-18468	-4384	6064	-5808	4145	-28020	204	-15184	7896	-5952	953	-2171	-1296	-9840	6784	11488	-142	143	-47	-15520	480	-3984	601	388	163	-14944	1568	312	79	2048	365	128	119	1
-3164	-5572	6720	3608	-32768	-23081	-6076	4820	-5128	32	-32768	-2846	-11192	7048	-6640	627	-1800	-1140	-9864	6296	11784	-94	112	-57	-15872	3616	-3328	1332	283	283	-19576	-1488	-192	560	2108	310	128	137	1
-6684	-5800	8020	3669	-32768	-27338	-7336	3588	-6576	353	-32768	-4963	-8064	5712	-7752	607	-1541	-941	-9856	6200	11776	-47	105	-39	-15568	4872	-3432	1127	295	235	-16984	-4496	1592	2086	1944	-47	127	128	1
-9868	-4716	10064	3567	-32768	-29325	-10052	2604	-8440	1859	-32768	-5531	-6176	4160	-7592	728	-1348	-688	-9816	5448	12032	32	135	6	-16072	4800	-2424	888	379	316	-14944	2664	2360	1627	2231	-22	126	127	1
-14116	-2712	11372	-169	-32768	-26295	-10088	3508	-10156	412	-32768	-5176	-5056	2832	-6120	961	-1085	-421	-9776	7248	11912	63	157	5	-15864	5576	-1624	709	555	50	-14104	6168	3608	1526	2240	663	126	124	1
-19928	-5048	12180	-3252	-32768	-21322	-13468	4704	-12324	-4159	-32768	-7004	-5168	2848	-4304	1460	-1010	-198	-9448	7056	11680	61	148	-49	-15432	4864	-1776	813	637	41	-15120	8344	3000	1318	2421	715	127	122	1
-22060	-6384	11576	-5391	-32768	-18500	-14604	5208	-11772	-9201	-32768	-9563	-4984	2896	-3384	1661	-831	-18	-9808	7376	11616	47	139	-114	-15256	4912	-1464	1046	748	23	-16296	6840	4128	1047	2468	549	127	126	1
-24288	-10944	11476	-5293	-32768	-19376	-18116	3104	-13392	-10326	-32768	-13032	-6912	4216	-1720	1033	-632	81	-9488	7016	11520	30	142	-187	-15728	5392	-1232	934	877	-72	-17152	2128	2192	760	2089	321	127	130	1
-26864	-11956	11592	-4482	-31765	-20480	-20900	532	-13720	-5918	-32768	-14314	-8584	5392	992	125	-188	86	-9320	7808	11952	37	211	-233	-15832	4664	-480	719	1092	-121	-17008	2320	264	837	1138	84	125	128	1
-28780	-12760	11904	-5528	-30366	-21902	-22352	-320	-13944	-89	-32768	-14151	-11888	6704	2880	-669	124	78	-10072	6768	12024	66	293	-292	-15680	3728	-2448	371	1310	-127	-16536	4000	-1632	863	778	168	127	131	1
-27772	-10996	10308	-6552	-26681	-22100	-24040	-164	-15032	4942	-32768	-14290	-15280	6912	3904	-968	496	255	-10280	6648	12192	204	412	-327	-17568	4088	-4000	234	1573	-214	-17248	4248	2408	733	870	186	128	132	1
-31496	-9792	8228	-4908	-20966	-21815	-22088	1220	-16328	8592	-32768	-12363	-18624	3264	6904	-1227	743	315	-9760	7352	12984	281	727	-460	-18968	3440	-3904	340	1691	-215	-17328	3840	1816	1052	945	194	125	127	1
-32768	-6508	4528	-1066	-15357	-21005	-19416	2192	-15632	8444	-27455	-10350	-19496	-2656	12608	-1449	681	270	-10384	6152	13544	382	1102	-559	-18424	2424	-4696	487	1829	-201	-16872	2688	80	1015	872	179	127	128	1
-29180	13196	-452	-1818	-7145	-21413	-13612	4668	-14260	2566	-18264	-5847	-18888	-10696	15600	-1329	622	117	-11032	4896	13736	432	1611	-683	-19112	3272	-5712	422	2026	-252	-18032	2224	-472	960	792	100	126	127	1
-32768	8740	-6636	3257	-3058	-6653	-9704	-1632	-16008	4505	-6304	-3370	-18536	-11968	13000	-89	760	-658	-11360	6432	14400	530	2192	-891	-20016	2936	-5904	293	2231	-288	-18424	4104	-784	974	794	-87	125	129	1
-32556	10152	-9772	-5366	2319	3949	-8728	5616	-16568	393	7072	1515	-21880	-7360	9760	498	198	-684	-12128	5776	13160	519	2825	-1219	-21248	1448	-5992	422	2347	-260	-19008	5392	-120	1024	838	-213	127	130	1
-28780	1100	-5544	-5822	8270	9018	-11488	2724	-15548	-6145	16733	265	-18416	-1704	6520	1087	-2	-88	-11488	7848	13968	606	3498	-1586	-22104	3392	-3048	762	2451	-278	-19720	5008	4320	763	890	-131	128	132	1
-15288	-11340	6864	8921	19449	17082	-21548	-6896	-3196	-8847	19313	-1356	-13336	4584	1736	171	666	363	-10640	10848	14056	808	4279	-2179	-23344	5424	-8	965	2694	-306	-21704	2624	9120	378	428	23	127	132	1
7620	-14340	16888	7298	17275	17892	-32768	-3420	13036	907	12436	-4324	-23408	6032	3600	-549	349	687	-10984	11936	15736	1171	5310	-3043	-27704	5808	440	1160	3001	-233	-25736	3208	13344	534	-369	7	127	134	1
-32768	-9512	19096	5216	24898	13944	-27836	4640	-6228	9505	18197	-941	-29992	-6664	6608	1279	-453	580	-12912	13032	15016	1371	6626	-4343	-32768	2160	4224	1823	3099	-90	-25440	-632	16880	-443	-2533	-94	127	129	1
-18648	-5852	15684	1951	21579	10967	-21044	-460	-3508	11698	22963	7729	-16864	-12768	4008	3733	1	-228	-27632	6672	15056	1598	7132	-4789	-27880	2320	-1872	2642	3098	97	-24104	-4072	5328	1147	-1801	-583	125	124	1
-12832	-12116	10924	660	15364	9197	-12548	-7068	-4972	19021	18315	4663	-13280	14336	-16392	3670	829	-1020	-26200	8160	16032	2870	7752	-3684	-26856	5800	1648	3181	2932	-386	-20216	5952	-7128	1518	-2981	-908	128	131	1
-16160	-7396	11088	3103	9159	8217	-13788	-1568	-12348	21756	12968	3387	-6152	14240	-6464	-115	1191	-1025	-28192	15912	16824	1758	6699	-4065	-27928	5984	504	3125	2907	-542	-25096	11824	-14040	2185	-3102	-364	127	135	1
-14584	-5992	12880	4588	4608	4507	-20112	2144	-9524	11533	10364	1759	-14320	4208	-9480	-1467	2003	401	-32768	32328	22448	-201	4785	-4630	-16712	14808	-17480	683	2184	-158	-27032	7056	-11496	346	-3505	242	128	132	1
-11872	-6440	12268	2591	2382	2068	-17172	8016	-9264	-4071	10256	-2630	-16288	-4416	-10088	-1432	1668	1088	-32768	14672	32767	-1439	-2254	-929	-12128	-1016	-10280	-1582	1056	-826	-28752	7936	-6904	-784	-3966	240	127	131	1
-10368	-6600	12004	1047	1772	523	-15488	260	-5960	-18029	9036	-6564	-20752	-3416	-5496	407	1745	470	40	13832	16312	431	-3660	1191	-19416	2840	1400	-199	97	-1211	-26944	9336	-5232	-1490	-3612	818	128	131	1
-9524	-6980	11436	293	1617	18	-18420	-4404	-3488	-13590	6609	-5536	-19384	5736	-3736	754	1774	119	-4040	14200	11968	-505	-4249	1009	-7376	3704	-4064	-307	-1317	-481	-23824	4096	-5032	-1761	-3440	1185	125	124	1
-9192	-7612	10940	84	1638	-66	-16928	-6380	-2332	-3245	5056	-1950	-16272	3368	-1752	-56	1913	382	-4160	7416	10904	-1158	-5371	1408	-3144	2416	-4576	-895	-2426	-318	-19248	944	-6128	-1402	-2949	891	128	125	1
-8992	-7656	10720	182	1554	65	-16340	-4584	-2248	4960	3776	1034	-14360	-1960	-760	-381	1917	601	-5352	6688	8040	-525	-5846	2088	-8080	1152	-3856	-1136	-3138	-193	-15304	1216	-6944	-1079	-2496	675	126	132	1
-8992	-8412	10472	490	1577	230	-16220	-1808	-1936	4547	3807	1624	-12776	-3320	-600	-241	2073	606	-3848	10584	5496	-509	-6160	2209	-9544	2176	-4280	-922	-4044	-102	-11712	1648	-8464	-1052	-2094	339	128	130	1
-9060	-8320	10140	1101	1394	546	-15084	-1024	-2268	-1734	4778	-366	-15448	-208	-712	-551	2222	367	-6224	9824	5216	-466	-5657	2439	-9432	1648	-5776	-1136	-4751	184	-8624	3160	-9088	-1148	-1634	212	128	130	1
-9364	-7492	11048	1131	881	672	-15116	-344	-2000	-6423	5365	-1732	-18048	4312	192	-1034	2253	144	-12368	12624	7912	-99	-5186	3226	-11200	1088	-8024	-1106	-5319	341	-7320	4264	-8768	-1803	-1436	88	127	129	1
-9444	-6224	11208	827	1072	339	-15692	392	-1820	-10027	6350	-1935	-16232	6448	1464	-1807	2291	165	-16424	12008	10344	139	-5018	3785	-13984	3096	-9616	-935	-5692	635	-6744	3752	-8656	-2770	-1020	-121	127	130	1
-9076	-7136	10740	217	1353	95	-15656	-1904	-504	-11403	7923	-733	-14424	3040	1256	-2417	2483	76	-21096	10376	12376	656	-4823	3958	-17400	4384	-11520	-1153	-5927	887	-6480	1792	-7024	-3186	-886	-321	126	130	1
-8796	-7752	10792	88	1841	714	-16660	-5316	44	-5047	7834	537	-15512	-1920	808	-2539	2466	265	-27928	11384	13816	1000	-4833	3800	-19616	2376	-12464	-845	-6006	1087	-6816	376	-3968	-3132	-1094	-461	127	125	1
-9244	-8432	10576	182	2342	1609	-16520	-4436	-3068	-618	7948	1615	-17024	-4496	-2640	-2027	2125	516	-27992	12064	12656	1075	-4816	3301	-22272	2664	-12152	-324	-5830	1526	-8424	-2352	-976	-2508	-1144	-449	126	127	1
-9528	-6584	11132	341	2587	2046	-15940	-1228	-3520	869	8775	2104	-14600	-2536	-8688	-1548	1330	471	-29848	12496	13760	1193	-4340	3177	-22128	3432	-13104	-556	-5534	1835	-9472	-7128	2488	-1518	-853	-288	125	123	1
-9416	-6944	11088	-327	3410	2152	-16824	-608	-2968	-886	9398	1568	-16440	1744	-3544	-190	1571	428	-32768	14656	12704	1142	-4118	3598	-22800	4760	-14168	-1062	-5165	1743	-10088	-9312	5912	-462	-487	-207	126	140	1
-9764	-7352	11816	-947	4730	2393	-16844	-1564	-1920	-1167	10995	1821	-17744	176	976	71	1214	428	-30920	-1592	11272	749	-3291	3999	-22048	4784	-14384	-1817	-4764	1538	-14240	-3488	11680	749	-154	-136	126	125	1
-8820	-8236	12980	-1731	6783	3669	-18328	-1744	-1792	-2113	12470	1549	-19664	-1888	104	-462	992	499	-32768	6824	768	-369	-2541	3897	-21160	4360	-18664	-2135	-3683	449	-18488	-1568	16672	2088	-299	78	126	125	1
-10268	-9404	11380	-3079	8890	5116	-18592	-544	-1184	-1789	14810	1561	-18584	-1192	1200	-578	974	452	-32768	-10552	-13472	-1590	-1497	2663	-11168	1024	-22496	-2754	-2238	45	-20328	1160	24816	1618	-1098	1135	126	131	1
-9840	-7936	13180	-3010	13488	6410	-18684	-1348	-2744	732	17445	1945	-18512	384	1592	-389	808	351	-32768	-11992	-19648	94	-139	1436	-8696	-168	-24888	-1192	-67	130	-18376	12824	20312	762	-511	1925	127	135	1
-11104	-7748	13856	-2131	19054	8065	-20812	4	-4868	2721	19208	2623	-20152	3664	440	-255	770	286	-32768	-9016	-16136	253	878	91	-6904	2128	-23040	-281	1534	297	-18024	8328	14680	276	-86	762	126	145	1
-11476	-7152	14304	-2027	25337	10270	-22444	-216	-3160	3095	21103	2132	-21616	1928	976	-590	748	421	-32768	-3176	-7712	424	1690	-427	-9256	1792	-22280	10	2744	123	-13584	1480	3200	-149	235	-458	126	125	1
-9252	-9828	14156	-2897	31481	13647	-21012	-508	-876	2527	22722	156	-20336	504	1984	-801	505	429	-5200	20864	10456	-1672	3269	-1460	-21560	-976	-4872	757	2860	377	-3928	-1736	3568	-599	309	-473	126	132	1
-10560	-9284	13616	-4401	32767	17475	-22464	-904	648	-1774	24674	-1112	-21112	-2144	5040	-877	346	282	8832	1576	19200	-211	3146	-1564	-32768	-1376	14680	750	1831	335	-3456	9440	-14952	2656	922	288	127	127	1
-10564	-11344	14012	-5966	32767	23223	-27328	-3116	2596	-5130	26178	-1637	-25680	-3904	9792	-924	-104	-86	-32768	10832	21672	353	3536	-2340	-20720	-1360	-11544	-318	2480	-469	-29800	26552	23688	-4277	-1909	790	127	144	1
-13512	-11156	17908	-9548	32767	31002	-32768	-2200	9528	-15471	26422	402	-28456	-4576	14280	-926	-2365	-537	-32024	20648	6296	-1186	2475	-1900	-15952	12248	-15400	-1408	3323	-672	-27624	-7840	-10464	-6183	2426	779	125	132	1
-28696	-9252	14272	-16892	32767	32767	-29208	-1064	-156	-17902	25896	-8820	-19296	8488	1472	-1502	-2745	-683	-16280	10472	10720	-911	257	-1129	-10416	8248	-15088	-4188	2661	-521	-19672	-13992	-8072	-373	1746	580	128	119	1
-32768	-8112	17204	-30298	32767	24082	-23192	2576	-7136	-23891	32151	3093	-22120	6400	-13096	-1350	-2202	-978	-13184	-1672	16128	-736	-18	-436	-21248	-6504	-15936	-3764	1830	-52	-12152	-2872	-7808	1357	1763	1342	127	113	1
-32768	-23296	19296	-29034	32767	22128	-29200	-5072	-10668	-26393	29754	3329	-24344	2208	-18248	-1539	-2559	-1589	-9904	5896	13528	-226	198	20	-21888	-11344	-10000	961	1563	104	-9888	9832	-7144	866	2098	907	128	128	1
-32768	-19812	13364	-8673	17571	19042	-20144	-7568	-8600	-14524	20923	591	-29008	8648	-10792	-587	-2786	-2122	-9768	6384	12584	-54	212	50	-13792	1816	-7864	2978	916	637	-17880	11416	-6400	-543	1955	749	126	128	1
1384	-19844	20036	991	-10926	-2297	-17620	-476	-2024	-5101	7927	6151	-29008	6040	-6056	846	-3608	-1587	-9560	7688	12440	7	215	25	-17920	10000	-4528	1988	691	618	-22232	1848	-2920	-1153	2146	273	125	129	1
-1032	-9496	14520	1887	-10211	-4134	-11572	-2260	-392	-747	-1881	2227	-24704	6512	-6664	967	-3823	-1652	-9688	6728	12288	-12	213	9	-15040	9832	-4232	15	636	245	-20728	-2608	264	306	2258	349	127	122	1
-4856	-7324	13908	-426	-20771	-10170	-4592	1652	-6512	2935	-10637	283	-21960	7184	-4112	297	-3330	-2055	-9616	5976	12648	48	244	47	-16088	4208	-4384	-1150	655	-30	-14544	1424	-104	801	2255	-110	126	130	1
-1504	-4540	13568	-3114	-30832	-14657	-4396	1628	-2600	-203	-19885	-1232	-18760	8312	-4288	92	-2781	-1823	-9696	6896	11976	95	258	70	-18344	1488	-3984	-746	703	-54	-12392	6824	416	410	2404	-265	128	133	1
-4060	-5312	10148	-3283	-32768	-17284	-7432	2876	-3084	1577	-26699	-3047	-15296	7192	-6000	85	-2167	-1461	-9720	7504	11328	97	223	31	-18512	1512	-4064	-604	718	-47	-12584	6488	136	39	2592	268	125	125	1
-4480	-5848	8680	-884	-32768	-18361	-6956	5424	-3592	13	-31964	-5601	-12624	6824	-7264	-100	-1784	-1269	-9640	7096	11056	75	164	-5	-14344	3256	-4000	1547	348	340	-15696	384	-1480	33	2709	601	127	137	1
-5864	-6180	8776	-311	-32768	-21433	-6472	5540	-4320	-3465	-32768	-7978	-9832	6016	-7432	-309	-1332	-1033	-9592	6616	11704	81	135	-38	-15528	5768	-3440	1459	307	420	-18056	-3672	-440	1000	2788	549	126	129	1
-9336	-7684	11252	-301	-32768	-27443	-10084	3648	-5028	-2168	-32768	-10208	-7872	2920	-8616	-203	-944	-716	-9632	6688	11600	100	147	-47	-16680	5328	-2896	1032	474	195	-16024	-2432	3568	2189	2613	514	127	120	1
-14624	-8996	13496	47	-32768	-32768	-14052	3196	-6992	1144	-32768	-11290	-5832	2232	-8992	680	-823	-295	-9768	7168	11752	89	148	-75	-15808	5848	-2216	735	605	45	-14360	4944	3104	2551	2645	445	127	128	1
-20344	-6804	16096	-1641	-32768	-32768	-16624	3728	-9868	2955	-32768	-10260	-3520	1344	-8760	1948	-830	272	-9776	7504	11112	49	142	-117	-14864	4840	-1776	696	673	-58	-14960	8800	-472	1947	2291	347	126	130	1
-24312	-6980	15332	-4926	-32768	-32768	-18820	4784	-9152	1544	-32768	-9857	-2072	3336	-7568	3053	-1053	626	-9584	8096	11400	9	106	-176	-14456	4760	-1784	663	828	-89	-16960	10440	-4544	611	1219	340	127	131	1
-27356	-9732	16736	-2179	-32768	-28915	-26132	4348	-11420	-188	-32768	-12356	-4144	4768	-5712	2988	-965	545	-9864	6928	12376	19	113	-260	-16008	3904	-2392	439	1029	-118	-17600	5272	-2072	-45	1018	314	127	131	1
-32768	-9676	20260	-2070	-32768	-26620	-29484	4984	-14540	-1003	-32768	-12860	-7616	6488	-920	2077	-551	171	-9936	7144	11352	41	170	-321	-17032	4136	-3904	348	1168	-207	-16632	4024	1888	445	1230	141	127	130	1
-32768	-13632	17052	763	-32768	-25604	-28732	2456	-14972	-501	-32768	-12747	-11872	8880	7200	426	-492	-319	-9224	8216	12688	116	340	-430	-18000	3624	-3864	227	1243	-193	-16232	3136	-704	699	1305	114	128	129	1
-32768	-12232	7992	5205	-32768	-26315	-25376	-1468	-16724	8157	-32768	-10605	-18592	5616	13192	-369	-721	-287	-9392	6376	13856	203	702	-614	-19800	2440	-3512	321	1437	-184	-19184	1376	-1960	445	1219	-27	126	130	1
-32768	-11536	-4052	11326	-24693	-27062	-20944	-3132	-18200	18627	-32768	-7194	-25512	2952	14464	-1681	-424	257	-10352	6792	13480	225	1077	-814	-18544	1688	-3096	444	1619	-220	-18208	128	2664	475	1134	129	126	127	1
-32768	16424	-9808	11687	-11697	-26709	-13752	340	-18808	17348	-22797	-1129	-25048	1632	15352	-1905	-301	270	-10632	6904	14128	103	1647	-914	-18936	3304	-4144	337	1862	-275	-18664	1024	2928	821	1084	295	127	124	1
-32768	18212	-19512	11073	-4432	-7877	-8388	-2372	-23248	17797	-4715	2571	-18544	-12368	24216	-1534	71	-296	-10792	8352	15424	50	2397	-1167	-23056	3136	-4520	-160	2237	-421	-22208	4224	104	1218	1079	-2	126	125	1
-32768	10044	-18548	-3682	3930	6846	-4888	7012	-23336	91	14405	2950	-22824	-10168	12096	301	-358	-916	-11312	8496	14808	68	3121	-1507	-23456	2408	-2512	182	2369	-463	-22056	8128	2560	1182	1034	-339	127	129	1
-26748	-7764	-23012	1847	20532	16834	-12224	-1520	-22780	-11433	24340	-3409	-17952	776	3736	1845	-151	-434	-10488	9080	14528	203	3859	-2024	-23248	6176	-136	614	2651	-533	-22440	7576	6192	408	706	-216	126	130	1
-5220	-32096	32767	-3252	19432	9686	-32768	-1800	22940	-17347	21188	2587	-16488	7312	8112	-653	-425	-131	-10696	12000	14520	263	4580	-2946	-25760	9536	2432	752	2972	-564	-25480	6400	11240	146	243	94	125	129	1
-21116	6344	15740	-5498	27640	10506	-27508	7116	-10244	194	24375	-5274	-18912	2736	-8560	-837	375	1047	-10936	14616	15216	399	5458	-4311	-29832	7400	1888	807	3116	-450	-28096	4336	14304	277	-820	143	128	128	1
-15108	-9816	14220	-5460	22952	10065	-16080	-2832	-4824	-304	26704	6019	-19896	-10408	-4960	1760	-53	1221	-24384	15984	15232	661	6493	-5324	-32472	2520	5024	2120	3271	-113	-28288	5248	24488	-346	-3794	301	128	124	1
-13796	-15528	7772	-1970	24192	5891	-13148	-12084	-7880	17343	17563	4247	-10928	5544	-10664	3633	918	-672	-22160	-5048	19008	1296	6913	-5162	-24584	3440	-5816	2618	3336	147	-19920	-8536	896	918	-2296	-271	128	135	1
-31944	-9260	14360	3614	8987	8969	-17128	-952	-15800	29015	12496	3373	-9744	8880	-4328	1044	1439	-1064	-28680	19616	13392	1674	7133	-4596	-27400	7008	-3480	3285	2905	-509	-21536	-800	-12536	1776	-3426	-553	127	129	1
-16636	-8628	13708	4273	5831	5592	-17304	2344	-15004	27269	12334	3582	-17888	9072	-8296	902	1758	288	-32768	25464	24584	760	5487	-4772	-21272	11888	-10272	2448	2738	229	-25480	4328	-17696	3456	-3450	156	126	135	1
-10300	-7880	12260	2817	2788	1895	-16368	7632	-6884	-1607	11574	-3385	-17928	2400	-5656	108	1532	983	-32768	25400	32767	-1161	605	-1513	-16528	2392	-11216	-469	1776	155	-27320	4008	-9600	1269	-4080	803	128	134	1
-9792	-7892	11060	1703	2422	1000	-14076	876	-6212	-17237	11099	-7561	-18056	216	-4760	273	1705	600	3848	18744	19448	162	-1573	2175	-21160	3104	2672	784	785	-424	-28632	9976	-6064	-100	-4248	463	127	131	1
-9540	-7920	10992	1334	1990	645	-17996	-4952	-3640	-15193	8839	-6875	-16192	2592	-2704	251	1925	226	-5048	13496	16384	96	-2077	2382	-9320	5368	-4024	56	-467	222	-24736	8960	-5400	-918	-3796	1045	128	128	1
-9044	-7792	10796	1038	2028	421	-17424	-5708	-2516	-4330	7166	-2704	-15320	3656	-984	-434	1966	298	-5768	8280	16680	-21	-3585	2656	-4968	3728	-4976	-817	-1605	474	-21816	2808	-4728	-1026	-3493	1251	125	115	1
-9396	-7032	11084	890	2129	272	-16804	-3920	-3160	4983	5855	1007	-16440	1736	-832	-880	1840	716	-4512	6120	12712	217	-4604	3031	-8904	3560	-1904	-1456	-2543	805	-18616	344	-6248	-1102	-3134	840	126	121	1
-9372	-7188	11120	589	2135	173	-16268	-336	-3844	5707	5190	2033	-15000	-1496	-1192	-736	1819	850	-5192	7272	10032	250	-5227	3085	-10888	1704	-4432	-2165	-3295	853	-15336	-40	-7688	-1103	-2668	673	127	130	1
-9412	-7524	10652	462	1789	46	-15636	1204	-3316	-989	6453	128	-14496	-1392	-1280	-506	2062	662	-6248	7288	10104	139	-5255	3162	-11456	-1280	-5616	-2225	-4205	832	-12848	1200	-8984	-1169	-2141	521	127	133	1
-9380	-6872	10800	157	1355	-103	-14716	888	-2740	-6523	7161	-1632	-15856	3000	-816	-602	2310	511	-9600	8136	11256	248	-5105	3654	-12992	-3512	-6952	-1911	-4950	800	-10632	1768	-8824	-1206	-1913	372	127	132	1
-9228	-7908	10436	67	1317	-65	-16112	-2328	-2328	-9418	6890	-2010	-16752	3624	-888	-1141	2612	632	-13264	7608	13696	338	-4816	4101	-14744	-3280	-8248	-1296	-5570	962	-7560	3152	-8928	-1822	-1539	133	127	130	1
-9092	-8016	10524	162	1482	640	-17152	-3396	-3260	-6009	6264	-371	-16208	912	-384	-1401	2791	607	-20664	4872	17688	795	-4897	4252	-16944	-1648	-10576	-791	-5978	1095	-5432	2600	-8040	-2474	-1239	-111	125	130	1
-9528	-6324	11212	434	1693	1135	-16216	-2544	-3300	-670	6140	1423	-14776	-2464	592	-1401	3123	611	-24048	6432	18104	1158	-5161	3810	-19368	-1496	-11312	46	-6156	1320	-5336	2440	-5704	-2307	-1221	-277	126	125	1
-9916	-6480	10996	132	2309	1064	-15932	-1076	-2944	1312	6681	2350	-14920	-2016	-240	-1630	2983	486	-26232	6720	18664	1062	-5220	3077	-19928	-1360	-11736	145	-6181	1389	-6376	288	-2128	-1811	-1248	-352	127	125	1
-9412	-6892	11024	2	2433	1528	-15640	780	-2608	-123	7425	1928	-14784	1160	-6376	-845	1473	742	-32136	9152	17720	1546	-5046	2776	-24248	1616	-13848	272	-6156	1924	-7504	-4088	1136	-1057	-1151	-188	126	126	1
-10528	-7912	12216	-546	3011	1192	-16396	-300	-4492	-4707	8465	784	-15464	2416	-7360	685	984	992	-32768	10936	13504	1409	-4854	2980	-21000	1936	-15352	-543	-5609	1836	-8456	-8192	4184	-30	-792	65	127	117	1
-9608	-8612	11016	-945	4006	2455	-17608	-2908	-3608	-1705	9546	1270	-19520	656	-496	780	1491	583	-32768	4464	8200	1078	-4008	3447	-20576	1832	-17688	-1212	-4944	1533	-12472	-6744	10000	679	-647	-188	127	131	1
-9528	-8528	11452	-1919	5752	3762	-18536	-808	-1456	-560	11395	2422	-20872	432	4376	-76	1410	306	-32768	-1376	1440	200	-3080	3227	-20912	712	-20408	-1637	-3833	938	-16600	-568	16704	2141	-683	-264	127	123	1
-10192	-7852	12212	-2116	8358	4993	-17784	356	24	-1436	14410	1633	-18176	808	4344	-773	1254	201	-32768	-10704	-9344	-1379	-1925	2106	-14856	1696	-24896	-1953	-2358	127	-18336	3744	21824	2332	-774	216	127	127	1
-10092	-7396	13776	-1391	12563	6357	-19396	-208	-2176	310	16959	2508	-18736	3160	3472	-761	1138	200	-32768	-11496	-20944	-1231	-546	1111	-6992	1864	-25640	-2060	-440	-346	-18528	12480	19904	1010	-626	1107	126	134	1
-10292	-7408	14840	-1347	18409	8767	-20984	240	-2592	2727	19444	3357	-22448	2856	2640	-1168	957	355	-32768	-10096	-18736	-362	1058	690	-5920	-760	-26728	-1531	1565	-106	-17960	13520	13056	283	210	948	126	148	1
-10632	-8776	15048	-1554	25044	11459	-22636	800	-1392	3950	22201	3054	-22368	-712	536	-1378	818	504	-32768	-2144	-25000	-1695	3505	-1201	-10512	5064	-27160	-818	2934	19	-16696	5408	6400	-1593	312	-277	126	115	1
-12236	-7768	15660	-2724	30551	13758	-22708	644	-292	3328	24609	1764	-22792	-6048	1384	-824	564	550	-440	30432	32767	-1016	3224	-2027	-32768	3760	23408	933	2265	-88	-3248	3736	-7344	-3169	876	-520	127	116	1
-9756	-11928	15196	-3014	32767	19335	-27100	-2396	2768	580	26509	871	-23048	-6592	2072	-715	529	536	-24880	-4800	19472	-450	3953	-2761	-27384	-11376	-16232	1176	3273	248	-21872	8144	3072	177	-328	414	128	149	1
-8564	-12140	15540	-4553	32767	27964	-29788	-2300	1780	-940	27364	1106	-28520	-6704	8784	237	-989	-115	-11760	19144	13160	-469	3407	-1883	-12088	9424	-9848	1572	3163	-847	-23760	-2456	-6112	-3210	1402	124	127	154	1
-16580	-22044	15092	-6682	32767	32767	-30252	-2336	11524	-9386	30626	1495	-17240	1424	3648	136	-2778	-992	-24688	3336	14832	-709	1625	-1504	-10824	17664	-17304	-1911	2907	-442	-18368	-2048	-10768	-455	892	386	126	123	1
-26636	-2012	14228	-16272	32767	32767	-22852	844	-6644	-10936	29740	-5619	-18192	12328	-344	-404	-2480	-655	-17112	4904	15376	-1073	195	-803	-15424	3464	-16960	-4803	2079	-385	-18456	632	-8032	835	1290	1304	127	114	1
-32768	-21100	12980	-22168	32767	27115	-25876	1908	-5120	-25612	29911	7000	-24128	4216	-22368	-1663	-2233	-1057	-11864	5080	13616	-415	154	-76	-28336	-14056	-13072	-2474	1826	-635	-16632	5640	-8080	700	2230	1304	126	130	1
-32768	-29168	22164	-9271	32767	30413	-27020	-10600	-15272	-16998	25851	-358	-26216	2848	-14576	-1321	-2365	-1763	-10272	4800	13232	-51	239	78	-15520	-5400	-8240	1288	1316	261	-17400	7272	-4960	-760	1982	634	127	125	1
-32768	-12220	21480	9145	10172	20225	-17976	-888	-7464	-1623	15117	4836	-28464	3368	-8696	337	-3043	-1561	-10184	7240	11928	117	280	97	-15192	4840	-6784	2353	867	759	-20312	3984	-3544	-1108	1976	86	127	123	1
1692	-13344	16636	-2764	-8830	-2878	-16392	2652	-2624	-1173	4188	10318	-25936	4240	-8544	1608	-3488	-1485	-10152	7632	11480	106	255	33	-17144	9568	-5736	1718	615	651	-18504	1880	-192	-257	1855	-62	127	134	1
-2068	-12532	12480	1545	-7659	-2318	-9292	-1656	-892	-4565	-4290	3452	-24032	8448	-7632	1566	-3590	-1940	-10168	7008	11832	45	223	4	-15280	9200	-5000	630	445	336	-15432	2304	456	759	1938	73	127	129	1
-9264	-8348	14272	4906	-18829	-6230	-4776	-1004	-7348	408	-12688	-1090	-21568	11600	-4752	793	-3179	-1841	-10248	6648	11520	54	234	34	-17056	5968	-5072	-153	407	16	-15216	5624	160	1056	2048	48	127	128	1
-7352	-6512	13396	962	-32768	-15351	-6280	-124	-6380	2585	-21113	1826	-17952	9456	-4664	135	-2700	-1456	-10008	7440	11120	66	224	37	-16400	4784	-4448	-186	507	-67	-15152	7480	632	739	2157	102	127	129	1
-5636	-7760	9364	-500	-32768	-18238	-6916	-28	-5412	2288	-22465	2045	-15032	6128	-5512	-209	-2205	-1453	-10088	7496	11016	51	174	9	-14808	4048	-3776	29	465	-66	-14936	7360	800	654	2205	144	127	129	1
-5236	-5816	7756	37	-32768	-19452	-7204	3544	-4056	1411	-32768	-3568	-13184	4752	-7288	-221	-1591	-1318	-10048	7032	10992	35	131	-23	-14864	2712	-3592	501	259	126	-16216	2104	1008	144	2323	512	127	134	1
-5788	-5192	8432	-297	-32768	-22423	-7556	4304	-4088	-986	-32768	-5470	-10736	3040	-8952	-40	-1067	-1090	-10080	6992	11152	31	113	-36	-15856	3904	-2976	1020	319	219	-14392	-3008	3048	1055	2031	510	127	129	1
-11432	-8052	10080	490	-32768	-27271	-9112	2164	-6224	-208	-32768	-6902	-7728	1448	-10672	297	-647	-876	-10112	6824	11200	27	100	-47	-15696	5480	-2880	1218	343	290	-15192	744	2160	1660	2507	-175	126	116	1
-16492	-8948	11696	2457	-32768	-32462	-12808	596	-8344	3271	-32768	-7428	-4208	200	-10976	1184	-439	-508	-9536	6872	11280	37	91	-83	-14536	6000	-2480	834	502	75	-14448	1416	3184	1482	2136	684	125	131	1
-21260	-6124	12660	197	-32768	-32768	-16116	1648	-9552	6393	-32768	-5052	-1296	1840	-9888	2378	-521	63	-9880	7296	11440	45	97	-97	-15360	4824	-2584	645	662	20	-14456	4376	3648	1550	2540	702	126	112	1
-25784	-6880	13548	-3542	-32768	-32645	-18924	3468	-12188	4742	-32768	-5686	-1024	3736	-8080	3359	-812	540	-9880	7232	11472	52	123	-145	-16400	4352	-2472	693	756	-11	-17416	7296	3408	1693	2483	546	125	131	1
-31092	-11088	13724	-2710	-32768	-30764	-23636	4036	-13392	598	-32768	-7809	-4336	5216	-6000	3610	-965	720	-10152	6648	11352	87	183	-174	-16240	4008	-3144	760	908	-91	-17368	4816	360	1546	2037	304	127	130	1
-32768	-13204	13256	-1599	-32768	-27695	-28708	1500	-14748	0	-32768	-12050	-8320	8488	504	2933	-1068	438	-10136	7056	11488	120	247	-207	-15976	4576	-1912	852	1038	-141	-15816	3320	-728	1194	1284	200	127	129	1
-32768	-13152	10828	-5654	-32768	-28792	-26368	288	-16672	-325	-32768	-12333	-14040	9816	8224	1534	-1311	240	-9744	8416	11264	151	317	-297	-15736	4912	-2408	654	1226	-118	-16272	5504	720	792	1005	136	126	131	1
-32768	-13612	5960	-4389	-30481	-28829	-24912	-3260	-16748	2965	-32768	-13465	-24208	6056	15904	206	-1689	554	-9904	6200	12752	224	516	-391	-16992	3944	-3552	329	1450	-205	-17256	7440	2736	806	977	-39	125	130	1
-32768	-8232	-1404	-722	-22870	-29031	-20664	-1604	-16208	10167	-32756	-9820	-22080	5128	16536	-1544	105	405	-10272	5304	12800	303	862	-444	-18912	2248	-3840	268	1650	-266	-17320	5208	2096	766	1058	-22	128	128	1
-32768	9368	-7732	-1291	-11930	-25722	-13992	3796	-18456	8691	-22036	-6627	-17064	2128	21168	-2241	742	-208	-10456	6272	13760	322	1301	-479	-18672	3392	-4352	204	1866	-313	-17472	1920	424	466	1050	33	127	127	1
-32768	9872	-15004	-4420	-3778	-12577	-6676	136	-17988	-900	-5308	-4894	-16696	-5424	17504	-2208	388	-1052	-10704	9752	14192	197	1871	-763	-19776	4288	-4472	101	2109	-359	-19136	1664	616	413	997	-63	126	129	1
-32768	12336	-11928	-4663	2207	3210	-7268	4008	-18348	-1548	7942	-1334	-17064	-9856	11744	-871	-40	-1255	-11448	9256	13488	206	2509	-1103	-20584	3992	-5176	161	2355	-331	-19632	4440	1592	696	861	-102	126	130	1
-28800	192	-6464	-7145	8165	8421	-12732	1584	-15928	-6675	17997	-347	-18168	-3104	4848	-182	-248	-788	-11360	8224	13400	308	3152	-1515	-21696	3288	-4648	341	2499	-329	-19368	4904	2376	927	824	-50	128	128	1
-23488	-5320	-1896	-2616	13134	8618	-13672	-700	-13200	-1734	22355	778	-14976	3920	728	-934	501	-336	-11440	8880	12792	442	3852	-2051	-22624	3632	-2560	701	2638	-259	-20088	2576	5072	852	656	-34	127	128	1
-8404	-16760	6244	12840	25375	13401	-19004	-4052	-872	-126	21436	-224	-14600	5472	2864	-2124	1025	69	-11320	8912	12648	482	3966	-2153	-23920	4440	568	1106	2830	-185	-21592	888	10576	817	345	11	126	129	1
4264	-5752	18324	5592	19900	13563	-28680	-2348	12496	5843	16460	-2446	-10944	-5328	-15840	-880	1279	-69	-12192	13016	14120	1111	5749	-3753	-29040	6608	3080	1581	3018	-65	-26792	1216	15432	713	-909	113	126	128	1
-32768	-10880	21868	5249	25592	19166	-29480	3540	-13852	17637	19270	847	-32768	-32768	14768	1423	-206	1016	-22872	12520	14616	1596	7108	-4726	-32768	2016	5424	2391	3182	189	-20488	-8272	3176	868	-1611	-465	125	129	1
-32768	-21748	13080	5304	18411	10642	-21856	-504	-9964	16239	23941	6905	-22448	12272	-7224	7022	-1108	295	-32768	9552	14064	2288	7564	-4655	-26208	3472	-6056	3037	3125	427	-26720	-3648	2008	2224	-2390	-764	127	127	1
-12816	-896	18168	4070	9554	7903	-13996	864	-9776	26408	17792	8677	-12440	21464	-21488	6397	139	-818	-32768	24560	14920	3539	7825	-3502	-29408	7528	-2488	3812	2918	-271	-21984	9648	-11960	3281	-3352	-708	126	134	1
-12888	-6068	12428	4615	3604	2223	-15964	2596	-13184	14941	12997	1550	-8512	19024	-7864	856	2126	-303	-32768	31616	21880	2017	5006	-4447	-23120	14200	-9736	2943	2540	87	-25904	10496	-16544	2625	-3387	168	127	132	1
-11056	-6552	12080	2110	2055	88	-17532	4680	-8976	-688	10687	-2676	-13368	8384	-12568	-1550	2079	627	-32768	23280	28792	-657	520	-3752	-14688	6088	-13648	85	1683	246	-29992	4640	-10744	225	-3915	779	126	132	1
-9672	-7256	11720	672	1632	-391	-15700	916	-7412	-8964	8731	-3838	-15360	-1056	-7184	-1553	2285	713	-464	20528	21168	575	-2922	198	-18432	3632	-4048	-140	766	-654	-31232	6560	-7464	-1138	-4145	710	128	134	1
-8984	-6964	11440	238	1455	-150	-17468	-508	-5160	-12428	7149	-4870	-21464	-4816	-5640	-782	2162	266	-5328	15888	14824	-174	-3530	897	-19064	3960	-2272	97	575	-587	-27328	4680	-4424	-1306	-3937	1141	126	128	1
-9064	-7096	11024	118	1698	-16	-17504	-3220	-4060	-8688	5576	-4723	-19600	2280	-2616	145	2020	150	-3056	9416	12952	-420	-4285	1896	-5968	72	-4144	-617	-1931	238	-22912	1056	-3848	-1020	-3555	1174	126	121	1
-9044	-7100	11088	339	1737	-297	-16636	-3348	-2892	-2942	4470	-2635	-17144	2744	-1400	-268	2126	487	-4168	7416	11176	-182	-5024	2758	-6912	888	-3656	-761	-2792	501	-18024	376	-5624	-783	-2949	833	126	121	1
-8972	-6928	11228	164	1671	-381	-16272	-2816	-2396	1439	3726	-1038	-14160	728	-296	-666	2006	767	-2880	4992	8792	217	-5216	3039	-10096	368	-2592	-925	-3648	783	-15048	1104	-7344	-849	-2542	599	127	128	1
-8860	-7708	10944	116	1601	-375	-16384	-1744	-2388	1441	3905	-33	-12984	-1112	-1472	-730	2159	761	-7432	6560	9968	553	-5132	3245	-9952	-128	-5008	-1214	-4403	1075	-11256	2504	-8872	-1040	-1984	337	126	131	1
-9228	-8168	10332	232	1433	-190	-15496	-1116	-2644	-2771	4534	-766	-14248	-584	-1480	-762	2467	516	-10808	8360	11896	470	-5155	3527	-11432	-320	-5632	-1317	-5138	1071	-8360	2872	-9168	-1400	-1765	150	127	127	1
-9648	-7272	10764	342	1130	200	-15372	-1116	-2536	-3528	4574	-992	-17224	3168	-760	-1061	2540	311	-14744	8072	13920	419	-5142	3953	-13712	-696	-7504	-1591	-5606	1155	-5888	3184	-8616	-1841	-1497	-68	127	132	1
-9468	-6756	11256	39	1037	230	-15728	-160	-2668	-7224	4619	-1415	-16448	4952	512	-1713	2619	396	-20384	4912	17072	887	-5148	4247	-14448	-320	-7968	-1648	-5670	1148	-4784	2216	-7960	-2663	-1242	-235	127	131	1
-9316	-7412	10960	-124	1387	225	-16664	-2348	-1672	-7862	5378	-927	-13960	2168	832	-2085	2819	438	-25208	6224	16360	1498	-5223	4150	-20696	-2288	-11272	-983	-6164	1044	-4792	2000	-7056	-2884	-1249	-375	126	129	1
-9016	-7904	10860	-468	2123	882	-17236	-3416	-764	-3819	6025	274	-16752	-2752	-496	-1922	2668	372	-27976	10288	15424	1004	-5117	3557	-21032	-624	-12808	-134	-6283	1416	-6944	1256	-4616	-2829	-1279	-325	126	126	1
-9388	-7064	10788	-305	2784	1520	-15540	-2096	-1284	-1360	7299	1118	-17952	-4488	-4472	-703	1328	887	-30808	10720	15304	706	-4748	3337	-23528	2960	-14008	-198	-6105	1729	-8848	-3104	96	-1760	-1273	-272	126	125	1
-9584	-7864	11040	-303	3019	1773	-12912	-2564	-1084	-28	8800	1662	-16432	-3752	-5224	298	1061	751	-32768	11664	13816	837	-4504	3677	-21032	4960	-16968	-914	-5747	1566	-9352	-7936	3696	-486	-1134	-183	126	124	1
-9356	-8156	11652	-763	4079	2445	-17860	-1732	-1176	1574	10038	2262	-19600	-808	-872	592	1232	267	-32768	7992	8312	676	-4198	3862	-21352	7648	-17232	-1796	-5255	1233	-11512	-4856	8800	650	-571	-287	127	146	1
-9232	-7164	13124	-1709	6470	3262	-18704	512	-724	375	12231	2559	-20264	-544	-256	613	1232	261	-32768	1848	-1872	207	-3247	3634	-21720	544	-20392	-2436	-4264	763	-16224	-3184	15848	2689	148	101	126	122	1
-9504	-7428	12320	-2953	9176	4385	-17668	796	-184	-1208	15428	2265	-18104	2528	4552	-178	797	312	-32768	-3728	-12480	-843	-1802	3050	-15832	-528	-25568	-1857	-2706	265	-18328	-736	25280	2535	63	621	126	121	1
-11032	-6640	13760	-2305	13582	5464	-19240	-1704	-2924	11	17910	1219	-17168	5440	3856	-779	909	172	-32768	-12752	-21616	-650	-507	1940	-8648	3120	-26408	-989	-669	93	-20568	11744	21896	363	-1085	1378	127	136	1
-10692	-7696	14960	-1034	17960	7698	-21060	-276	-4036	2213	19429	3145	-19392	6384	440	-1342	934	217	-32768	-13760	-21368	9	794	383	-4992	2432	-25680	-1045	1245	141	-19040	12376	14576	-285	-104	1077	127	163	1
-10776	-7992	14780	-1312	24252	10247	-22428	-216	-3560	3226	21035	2918	-21536	2016	-1656	-1724	922	454	-32768	-5296	-9704	134	1729	-230	-6904	664	-24656	-655	2814	17	-15216	2128	5416	-782	520	-263	127	126	1
-8192	-11280	9936	-3583	27947	12850	-22420	76	-1268	890	21464	1571	-21088	-4184	-832	-1261	679	513	-6776	16968	21424	-2517	3198	-1562	-26192	3640	9976	1028	2808	59	-5056	-3336	8968	-1944	58	-541	126	141	1
-10428	-9940	13200	-3738	32767	17335	-22076	-1532	-608	-1653	24764	-299	-21312	-5264	1896	-741	397	250	1680	440	14792	-554	3484	-2213	-32768	-9640	7872	-723	2084	271	-6680	8392	-5968	1925	1056	377	127	135	1
-10188	-12280	15100	-5023	32767	23162	-28100	-3232	2956	-4206	25574	-207	-26416	-5344	7080	-520	-9	78	-32768	16008	24616	-195	3122	-2229	-21856	672	-11272	341	2823	-759	-32768	24984	20992	-3721	-1998	835	127	127	1
-13764	-11676	16740	-8803	32767	32198	-32316	-1784	4648	-11831	25375	1089	-28144	-7744	8176	-418	-1521	-220	-15000	17776	8456	-813	3084	-1052	-14272	8264	-7152	-969	3370	-1031	-24392	-5960	-15968	-5807	2961	638	126	145	1
-21900	-17172	13200	-10764	32767	32767	-27644	-3192	-140	-14731	29559	-3570	-17088	6040	3144	-1041	-2935	-754	-10368	3104	12192	-557	797	-1324	-8080	11688	-13944	-3996	2569	-779	-12280	-19192	-6872	-255	1103	666	126	131	1
-25512	-5876	15924	-22108	32767	31868	-22324	460	-2564	-20296	28535	1358	-18488	9584	-7376	-649	-1926	-992	-15064	-1112	15264	-639	138	-522	-19160	-4296	-16424	-3991	1782	-82	-13960	-3072	-7792	1369	1692	1139	127	121	1
-32768	-30008	15296	-19708	32767	29847	-26264	-6260	-13760	-19252	29016	1575	-24928	5592	-17456	-1751	-2228	-1434	-11064	6776	12800	-202	188	-50	-24344	-13208	-10704	632	1726	51	-12344	10552	-7408	1343	2018	899	127	124	1
16640	-19340	21220	-39	25080	28125	-21096	-6276	-8044	-10129	20799	2122	-28496	6640	-13336	-1182	-2353	-2025	-9936	6920	12576	20	211	42	-12904	-152	-7368	3094	1089	593	-18152	11840	-5480	-775	1641	697	126	133	1
-16128	-19644	22500	-1073	-2655	976	-20056	2888	-8332	1595	10153	7675	-27608	4064	-8520	217	-2902	-1748	-9512	7704	11304	71	213	34	-17752	9672	-5096	2400	883	762	-22368	112	-1976	-1011	1993	328	127	123	1
-2748	-12252	14856	2885	-5719	-3821	-12384	-1708	-624	-2406	1019	3964	-24488	4376	-6752	1316	-3376	-1743	-9888	7696	11624	52	201	-23	-15360	10552	-5072	555	716	287	-19600	-3520	544	962	1982	153	127	128	1
-6868	-8296	14072	1446	-12976	-9166	-6992	-376	-5996	1788	-7231	1639	-22080	7464	-5160	1136	-3243	-2056	-9696	6536	12080	55	230	3	-16040	4552	-5416	-761	687	64	-14792	2056	-424	1643	1906	-234	126	127	1
-11960	-7108	14756	-2346	-32001	-17955	-4184	1124	-8968	2695	-15165	756	-19080	9184	-3344	695	-2814	-1866	-9728	7192	11808	102	262	46	-18480	2064	-4912	-653	731	-108	-13744	9200	-664	1026	2211	-250	126	131	1
-1812	-4992	10220	-4800	-32768	-21360	-7840	1476	-1928	127	-23443	-266	-16352	8040	-4112	690	-2432	-1294	-9824	7512	11232	108	243	24	-16672	1240	-4672	295	709	-26	-12808	7992	88	296	2465	248	126	126	1
-2044	-5788	6780	-2863	-32768	-19083	-9060	3596	-1428	1163	-29706	-5157	-14784	7040	-5664	317	-2028	-1088	-9680	7784	11272	94	199	-12	-14448	2504	-3800	1357	353	225	-15424	1336	-176	39	2479	508	125	125	1
-4740	-4304	7552	-3213	-32768	-20299	-7120	6944	-4540	-2037	-32768	-7149	-11584	6200	-6400	180	-1581	-932	-9576	7576	11152	67	149	-54	-15440	5896	-3016	1419	274	310	-17320	-1592	-96	848	2501	425	126	134	1
-8536	-6400	10068	-4195	-32768	-25739	-8136	5104	-4944	-4851	-32768	-9052	-8552	4792	-7696	181	-1219	-714	-9744	7192	11672	72	136	-99	-15592	6216	-3488	1347	275	300	-16536	-320	1376	1783	2542	300	127	120	1
-10904	-7380	12276	-1915	-32768	-30451	-12672	3044	-4688	-1824	-32768	-10939	-6144	3312	-8272	742	-1055	-421	-9800	6960	11448	93	157	-97	-15696	4752	-3008	523	600	19	-13832	2968	3320	2007	2639	194	126	126	1
-15820	-5936	14960	-2109	-32768	-32768	-15684	3440	-7988	2304	-32768	-10210	-4992	2904	-8432	1555	-1054	-92	-9864	6792	11264	85	183	-90	-15464	4320	-1984	554	691	-83	-13744	8440	4336	1748	2908	333	127	129	1
-21608	-6588	16900	-4223	-32768	-32738	-17560	5148	-9932	2363	-32768	-9553	-3120	3856	-7992	2105	-1054	271	-9456	8368	10896	50	161	-152	-15032	5104	-1688	564	812	-115	-16312	9360	1448	1107	2554	234	126	132	1
-25320	-8376	17552	-3156	-32768	-31274	-21000	5232	-10064	-394	-32768	-10407	-4784	4328	-7616	2155	-828	248	-10056	8016	11248	35	152	-216	-15168	4888	-2864	400	999	-165	-17208	5176	-2464	177	1547	195	126	132	1
-27724	-10232	19020	-1421	-32768	-28598	-26536	3492	-12516	-1077	-32768	-12172	-8208	5128	-4920	1768	-368	-31	-9888	7168	11920	60	266	-284	-17096	3400	-3152	296	1185	-238	-17480	2272	-2384	-68	1252	235	127	131	1
-32768	-14536	19688	-1289	-32768	-27819	-29592	1596	-16420	589	-32768	-12038	-10160	8080	1952	109	-253	-404	-9696	7440	12712	139	475	-346	-18200	2264	-3384	323	1307	-275	-17992	4912	16	67	1284	-66	126	132	1
-32768	-15128	9896	2053	-32768	-27608	-25788	-1068	-16100	4809	-32768	-10833	-12952	7152	7352	-1144	-350	-363	-9648	7856	12968	256	735	-448	-17784	2736	-3888	344	1480	-292	-17296	4864	1880	262	1238	-167	127	131	1
-32768	-14596	-1616	5311	-28654	-29050	-23240	-4536	-17788	12053	-32768	-9206	-20104	4920	11008	-1783	-91	224	-10480	7248	13040	223	1058	-582	-17784	2704	-4096	284	1739	-289	-16368	-192	1776	283	1184	96	127	125	1
-32768	-8748	-10304	6557	-16296	-29944	-22864	-4380	-17684	13222	-32768	-8992	-25144	-6608	24064	-1964	-283	206	-10792	7688	13368	159	1525	-757	-18848	3120	-4096	168	1961	-417	-18552	-3104	2800	351	1139	200	127	126	1
-32768	14780	-17724	-3890	-4025	-24374	-8732	4920	-22948	3651	-11231	-3843	-22168	-19360	24472	-1510	222	-236	-10488	8392	13808	94	2165	-970	-20504	3496	-4288	-79	2277	-522	-20360	1288	2528	882	984	94	128	127	1
-32768	20224	-18420	534	330	2248	-3288	1700	-22924	2135	5501	-1041	-18216	-10912	14328	682	-225	-743	-11168	8304	14104	123	2815	-1255	-22192	2488	-4136	1	2508	-551	-20616	7400	960	1652	921	-86	127	130	1
-32768	6596	-11904	-10821	5647	12034	-8128	4348	-21432	-9146	19237	1102	-18488	-2168	616	1821	-471	-881	-10936	10248	13648	260	3531	-1715	-22136	3592	-2320	468	2721	-554	-19424	7352	2992	1024	648	-248	127	133	1
-11700	-32344	-13752	7326	22997	21793	-15076	-3928	-9852	-9309	23855	-4175	-10592	2832	-1200	441	605	-312	-10832	11624	12664	352	4282	-2536	-23088	5680	-448	801	2983	-485	-20744	4688	9784	323	292	-131	128	128	1
6296	-31676	23592	7186	21358	15305	-32768	-9744	23488	-4094	17007	-317	-3224	584	-13128	-699	816	247	-10920	14640	13976	601	5158	-3572	-28608	6304	32	1138	3202	-391	-25928	3168	14760	463	-450	102	127	128	1
-32768	-2300	16352	7924	32767	17268	-27908	1948	-12296	22024	19576	-4074	-32768	-10984	9096	-247	-310	1888	-11896	16648	16464	1108	6478	-5228	-32768	3304	5056	1887	3369	-186	-27232	-4144	18352	-1057	-2911	241	127	130	1
-29104	-8100	16368	3047	29533	14586	-21408	4044	-10664	19547	24642	7426	-20800	-4144	-3680	5157	-375	-186	-32464	7776	16488	1221	7000	-5671	-26672	3792	-2680	2774	3408	142	-24680	-8616	4424	1618	-1883	-363	125	128	1
-19364	4316	16744	4269	12008	11433	-17000	-3388	-13396	23706	20799	6357	-13320	17168	-20440	5224	321	-1496	-32768	23784	13216	2904	7313	-4073	-28552	6608	-4656	3051	3217	-532	-21664	6360	-10808	3317	-3226	-673	126	128	1
-13868	-7080	10772	5280	2239	3196	-16872	3136	-15648	19166	15270	1763	-9312	16624	-10552	873	1943	-737	-32768	32272	22680	1221	5591	-5086	-23992	12272	-10264	2031	2933	-265	-27280	11032	-18360	3234	-3366	122	128	133	1
-10772	-6140	12640	2173	2069	167	-16556	6952	-9180	3560	11526	-2346	-13392	8392	-13696	-920	2112	918	-21344	26096	22112	-2468	2300	-5225	-19248	8432	-12696	211	1969	90	-29128	3528	-13120	471	-3911	645	128	130	1
-9844	-7492	11316	424	1651	-546	-14700	2684	-8808	-13808	9860	-6288	-14888	-1032	-10000	-1420	1847	1271	-9984	11528	23080	636	-1410	271	-17888	-2152	-8480	-755	1006	-726	-30256	4944	-7496	-853	-4124	514	126	134	1
-9712	-6848	11528	-75	1510	-214	-18192	-3476	-5616	-16762	6887	-6832	-20000	-5168	-5704	-55	2137	576	-1520	19848	13656	686	-1912	1456	-13384	1528	-2112	437	-162	-512	-28056	4776	-5376	-1267	-3847	1164	126	130	1
-9568	-7012	11052	-347	1690	-338	-18584	-5180	-3804	-7740	4480	-4337	-19040	3280	-3552	632	2088	48	-5320	14184	12600	-1112	-2626	1494	-5392	2888	-6304	53	-1487	335	-24144	1920	-4504	-1185	-3598	1371	127	122	1
-9692	-7048	11144	-382	1729	-281	-16856	-4288	-2792	406	3483	-1128	-19264	4352	-2264	20	2277	391	-6080	5448	12112	-1064	-3982	2401	-3352	3504	-4920	-1028	-2362	447	-18624	1072	-5688	-907	-3065	1060	126	125	1
-9404	-7116	10740	-332	1879	-509	-15824	-2508	-2452	3127	2606	198	-15016	504	-1160	-564	2184	730	-5408	5536	9336	-364	-4952	2907	-6544	1400	-4656	-1615	-3134	494	-14744	1496	-7232	-950	-2668	824	126	128	1
-9412	-7592	10384	-121	1543	-428	-15596	-920	-2372	-865	3339	-91	-10440	-1872	-736	-765	2521	639	-4880	4560	7352	54	-5278	2844	-7544	112	-2864	-1669	-3935	764	-11856	1648	-8880	-1252	-2156	428	127	131	1
-9236	-7524	10092	364	947	-237	-15108	-1388	-2080	-7103	4255	-1150	-13864	-904	-1024	-1113	2497	478	-7864	6944	8192	234	-5313	3030	-8064	-1088	-5704	-1905	-4598	846	-8456	2208	-9776	-1556	-1740	99	127	127	1
-9652	-7216	10428	825	300	-56	-10836	-1628	-1084	-10169	4577	-1328	-16616	3112	680	-1321	2730	333	-11320	8072	10736	226	-5160	3494	-10344	-912	-7056	-1693	-5290	901	-6160	3056	-9416	-1925	-1490	-104	127	132	1
-8936	-6676	11088	915	532	319	-16436	-1396	-988	-9490	4651	-1237	-16760	4584	1992	-1902	2992	174	-16784	8616	13256	327	-5191	4067	-15440	-8	-8968	-1566	-5733	831	-4816	3120	-8720	-2295	-1083	-218	125	130	1
-9928	-6632	11052	380	1010	381	-16740	-2288	-1520	-7889	5132	-230	-15072	4152	1296	-2413	3020	-14	-22000	5064	15096	813	-5173	4183	-18688	-40	-10968	-1183	-6143	933	-4744	2944	-8704	-2465	-1034	-225	125	133	1
-9856	-6624	11060	242	1528	353	-16480	-2804	40	-4737	6509	928	-16864	256	-3176	-1877	1852	291	-26568	8424	14496	1316	-5130	3894	-18856	-400	-10840	-1040	-6173	940	-6520	2696	-7272	-3307	-1185	-433	126	122	1
-9100	-6936	10732	54	2047	628	-15112	-1392	736	-2675	7907	962	-16416	-6624	-6272	-747	989	814	-30104	12240	15360	982	-5094	3493	-20808	3488	-13336	209	-6224	1598	-9752	-56	-2288	-2225	-1141	-343	126	127	1
-9708	-7336	11020	-452	2408	868	-15744	-2264	-1156	-1641	9357	1476	-18928	-8008	-2456	-45	1241	417	-32104	12368	15520	1011	-5017	3548	-22840	4688	-14888	-354	-6029	1793	-10496	-6232	2408	-445	-1046	-72	127	124	1
-9384	-7584	11240	-702	3583	1291	-17596	-3576	-1796	475	10474	2993	-19392	-224	1392	-181	1149	162	-32768	9072	13528	1348	-4662	3726	-23192	5344	-16136	-842	-5749	1564	-10312	-8280	7328	717	-840	117	127	146	1
-9352	-7556	12168	-1253	5062	2343	-17760	-1144	-584	1000	12422	3129	-18408	3368	752	-182	943	381	-32768	6744	7184	1066	-4203	3558	-24096	3872	-18200	-1445	-5014	1258	-15168	-3512	12088	2119	-232	205	125	122	1
-9352	-7028	12660	-3323	6966	3908	-17684	1636	-1184	-1225	14601	2174	-18112	1552	616	-218	921	514	-32768	-920	-5248	-142	-3127	3053	-21728	360	-21440	-1544	-3697	738	-15608	-2160	17784	3058	202	619	127	123	1
-9236	-8044	13356	-3388	11028	4538	-18648	1304	-2352	-2058	16608	1354	-18016	2128	2344	-346	883	365	-32768	-10408	-17024	-714	-1415	2368	-10560	832	-27152	-1363	-1856	319	-23008	6144	27056	995	-1073	1278	126	139	1
-10788	-6772	13408	-3108	16238	6105	-19976	-1136	-3040	1982	18503	2003	-18512	6320	1984	-752	971	193	-32768	-15824	-22424	-30	-16	1342	-6488	912	-26400	-910	405	114	-19120	15680	21712	-24	-912	1448	127	128	1
-10832	-7872	13792	-2512	21851	7600	-20448	-832	-2580	5027	20466	3081	-20520	3408	536	-1141	873	395	-32768	-13176	-14512	-477	1248	12	-6072	-168	-25800	-1015	2214	-41	-17032	7040	10160	-456	186	-87	125	129	1
-14144	-9040	14660	-3148	25788	9669	-21204	232	-1964	4648	21573	1727	-20960	-2072	-1144	-1040	691	405	-17144	-3856	-3816	-2087	3430	-2196	-16416	1072	-17032	-85	3261	-109	-9640	-1264	24552	-1920	-954	-621	126	136	1
-10728	-9824	13292	-4756	32767	13760	-22680	-272	-1156	165	24106	336	-21040	-3760	1360	-750	493	171	8256	10088	30304	-472	2102	-1662	-32768	-4544	17232	535	1820	-135	232	5560	-16056	1287	1820	173	128	129	1
-9948	-11316	14396	-5963	32767	18770	-26764	-2488	2432	-3450	25688	-898	-25032	-3288	4960	-531	172	-31	-32768	4208	26528	-45	4191	-2821	-19672	-2312	-15864	606	2855	-93	-31952	16064	13176	-1745	-1272	401	126	125	1
-11752	-10184	15188	-10152	32767	26327	-30124	-552	1412	-8381	25062	-453	-28632	-5016	13008	-145	-1124	-138	-23840	23200	10456	-1141	2859	-1823	-18208	12968	-12552	-291	3263	-838	-23376	7024	-560	-4239	1759	133	126	149	1
-21064	-21492	13420	-11853	32767	32767	-28296	-1788	4308	-14179	30573	-1404	-15520	6528	1016	-408	-2484	-811	-11144	48	17000	-914	823	-1297	-11056	9648	-10680	-3383	2902	-1038	-21232	-5696	-17544	-1779	1452	827	126	127	1
-30428	-84	16136	-22429	32767	32767	-22368	324	-7672	-15854	27678	-6518	-18104	11016	-1400	-1093	-2167	-482	-14208	2560	14384	-886	24	-590	-14616	-672	-16624	-4047	2124	-558	-16200	-8520	-6912	-31	1770	1496	127	118	1
-32768	-18884	14124	-29717	32767	22420	-26804	-248	-6512	-24959	29462	6416	-21976	2024	-21384	-2265	-2163	-1041	-11064	5088	13264	-320	103	-27	-27400	-14016	-12800	-1000	1758	-229	-13976	4760	-8264	880	2169	1052	127	117	1
-29572	-29604	19928	-18304	29760	24178	-25812	-10008	-13284	-17448	23731	407	-27064	2456	-10936	-1845	-2290	-1912	-10032	4880	13392	-36	170	69	-15152	-4632	-8488	2170	1100	365	-15680	8712	-5376	-549	1856	481	127	122	1
-32768	-25752	32767	5215	-6243	8787	-18236	1108	-10076	1368	14126	4123	-29608	2056	-8056	-91	-3052	-1820	-9224	7016	12400	97	205	83	-16392	6944	-5776	2428	827	696	-20504	3040	-3104	-1113	1907	76	126	142	1
5736	-16428	16204	3128	-14824	-5313	-16808	-3296	780	-1212	2370	8661	-27352	3992	-7824	1525	-3390	-1677	-9568	8136	11504	55	170	9	-15680	11880	-4760	895	670	362	-20560	-1048	40	54	2064	148	126	121	1
-2800	-9160	13740	1947	-15973	-6156	-10248	-1120	-2524	4581	-7443	2849	-23872	7472	-6768	1604	-3388	-1926	-9288	6768	12432	-10	173	-18	-15208	6624	-4840	-589	674	57	-16344	112	152	1526	2062	-14	127	132	1
-7340	-7320	14652	-478	-28120	-12390	-4172	1592	-6128	3917	-15813	1312	-20760	9056	-4224	885	-2933	-1856	-9600	6808	12320	25	187	-16	-18032	2792	-4784	-665	673	-110	-14272	6432	320	1332	2097	-271	126	129	1
-7844	-7392	12112	-924	-32768	-17766	-3908	1772	-6212	3388	-16860	1251	-17240	8824	-4536	531	-2472	-1233	-9736	7664	11632	29	174	-38	-17192	1824	-4584	45	584	-58	-13200	10128	40	604	2297	146	127	126	1
-1696	-5676	8264	443	-32768	-17280	-10596	3532	-1328	-924	-29824	-3005	-15104	6904	-5168	183	-2122	-1026	-9768	7264	11624	12	151	-76	-14904	1840	-4136	932	322	166	-14088	4432	-96	-132	2461	518	128	129	1
-5384	-4224	7860	-936	-32768	-18980	-7888	7028	-4496	-3310	-32768	-4898	-12256	5320	-6544	65	-1721	-967	-9768	6512	11752	31	117	-113	-15264	4432	-3632	1212	241	285	-17024	-2208	-104	154	2382	290	127	136	1
-8180	-6772	10212	-1302	-32768	-24472	-8068	4956	-4960	-6728	-32768	-7391	-8304	3824	-7312	309	-1211	-813	-9680	6832	11784	38	95	-128	-15632	5688	-3376	914	374	162	-17144	-4264	1440	1347	2210	14	127	123	1
-11448	-7488	12324	535	-32768	-29446	-12732	3064	-5472	-3069	-32768	-9648	-5904	3232	-8960	942	-1062	-553	-9664	6536	11832	47	108	-130	-15328	4600	-3032	545	559	36	-14960	1296	2576	1966	2263	53	125	125	1
-16000	-5616	15420	183	-32768	-32486	-15332	2788	-8304	2209	-32768	-8272	-4424	2792	-8616	1810	-1091	-191	-9784	6768	11320	35	113	-115	-15008	4936	-2408	595	681	-58	-13992	6744	3448	1993	2368	451	126	127	1
-20808	-4716	16232	-2704	-32768	-31269	-17064	5172	-9224	2435	-32768	-6397	-2664	3992	-7672	2501	-1166	213	-9824	7632	11504	19	121	-138	-15096	5168	-2288	591	793	-127	-15520	9536	2024	1564	2360	567	128	125	1
-24404	-7268	15152	-2198	-32768	-26611	-19852	6432	-9820	-664	-32768	-8422	-3904	4872	-5192	2438	-1246	240	-9456	7440	11680	-3	99	-210	-15448	4464	-2392	693	942	-148	-16464	6136	1776	938	2094	359	126	128	1
-28056	-9320	16788	-924	-32768	-24244	-22436	5276	-12076	-2956	-32768	-10717	-6936	4584	-3432	1845	-1226	215	-9864	7088	12056	-15	119	-292	-16056	4448	-3712	486	1077	-207	-15896	1464	256	768	1905	334	126	130	1
-29376	-13608	18376	170	-32768	-24799	-27032	1848	-13128	-2414	-32768	-10865	-10144	6408	2024	454	-943	-26	-9592	6464	12208	34	226	-328	-16488	3056	-3944	308	1257	-259	-15160	696	-1160	795	1542	227	126	127	1
-32768	-16460	15572	1765	-32768	-26831	-30236	-1892	-13756	3990	-32768	-10609	-12792	8168	7896	-973	-192	-137	-8520	7136	12832	101	409	-401	-17504	3488	-3760	271	1397	-297	-16968	4656	-2048	663	1388	-106	127	131	1
-32768	-16056	3972	7376	-30957	-28001	-23632	-4016	-15508	14419	-32768	-8354	-17264	5976	14344	-1461	-64	180	-8752	7608	13672	223	718	-610	-18848	2640	-3704	259	1567	-250	-19288	6208	-232	546	1206	-103	126	131	1
-32768	-10564	-7336	9913	-18761	-29432	-21452	1116	-17784	20487	-32768	-4370	-21224	904	20448	-2118	226	543	-9856	9056	13776	80	1178	-820	-19104	2192	-4104	406	1768	-255	-17624	3520	2632	624	1140	105	125	127	1
-32768	14764	-13456	3865	-7300	-29023	-11224	3420	-20156	14091	-18975	-3021	-25464	-14016	24168	-1834	168	221	-10384	7608	14680	-29	1745	-1030	-19320	3816	-5096	257	2042	-398	-18464	1464	1768	605	1101	177	126	125	1
-32768	12936	-22520	2101	1678	-8848	-3912	-2928	-20468	2822	1196	-2046	-19744	-21440	18664	246	-951	-708	-11112	7392	14880	-95	2402	-1297	-22064	2312	-4704	44	2340	-469	-20984	2944	672	818	1077	-90	127	128	1
-32768	10472	-13688	-4335	6447	8259	-6164	3684	-20484	-921	15051	1518	-16968	-2400	9784	2451	-695	-989	-11040	7224	14960	-177	3063	-1655	-22144	2224	-4664	61	2357	-487	-20560	6192	3328	1088	993	-336	127	131	1
-28920	-6584	-6812	-7526	9690	9431	-11968	548	-17792	-6955	23562	-198	-12888	4608	-1544	1952	528	-892	-11576	11136	14368	-174	3706	-2185	-22024	3160	-3344	361	2543	-524	-20528	5848	7360	820	811	-216	122	130	1
3024	-22480	-6436	1227	29065	9653	-21568	-5036	-812	-6160	24193	-557	-520	3024	2608	-1423	832	-228	-10816	12320	14344	50	4339	-3113	-24360	6664	296	912	3082	-403	-21640	3816	10800	506	281	-4	128	129	1
4500	-15696	20760	-932	32378	15348	-32768	-3956	13940	7992	16528	-4859	-18816	1056	-5264	-1544	564	1510	-11856	14824	16192	177	5166	-4397	-31048	8136	432	1405	3217	-225	-28320	4904	14904	616	-675	92	123	130	1
-32768	-16340	20948	1500	32767	16605	-30844	2332	-13040	18842	24327	1485	-32768	-22328	9880	3470	-629	498	-12272	13368	15680	150	5359	-4606	-32768	5360	6432	2332	3327	-6	-23888	-2016	12600	-477	-2933	93	126	130	1
-30784	-13896	11416	-911	23636	10063	-16852	-3032	-13248	15470	27347	6803	-14528	11664	-9936	4950	164	-1629	-24328	224	14440	1289	7374	-5614	-24992	3536	-10024	2661	3316	254	-25336	-3312	-1320	1416	-2057	-341	122	129	1
-11488	-13000	11576	3674	10963	8631	-12716	-3780	-10448	26627	18192	6118	-13064	13376	-12632	2688	1373	-1575	-32768	21064	18112	1642	7322	-5134	-28664	8176	-7888	3490	2921	-371	-23904	5264	-13448	2207	-3214	-414	127	130	1
-14904	-4380	13836	6285	2342	4769	-14792	5584	-14168	14336	12713	-1789	-7624	8328	-11704	222	2297	-47	-32768	28952	22824	877	5804	-5172	-21480	8600	-12976	2398	2729	104	-27312	3112	-17072	1657	-3578	221	128	134	1
-11196	-6164	12416	3460	1262	1236	-17796	6988	-9224	-4233	11454	-3879	-14080	2696	-13256	-1297	1705	1381	-32768	25488	28208	-926	935	-1636	-17496	1312	-12608	433	1757	187	-29568	-3016	-11328	310	-4121	658	128	129	1
-9600	-7860	11248	1469	1214	132	-16664	320	-7084	-13944	9806	-5408	-20112	-4152	-6704	-251	1881	1202	4920	20648	16272	-19	-736	1919	-21408	4048	-376	1338	617	-258	-30064	1200	-7312	-185	-4187	729	128	132	1
-9368	-7204	11380	713	1335	128	-18380	-2444	-4328	-12437	7317	-6115	-19960	32	-4424	1084	1764	197	-1856	14120	13896	-528	-693	2032	-8776	4880	-2792	173	-630	311	-26848	3152	-5168	-315	-4054	1464	129	127	1
-9016	-7676	11104	393	1679	35	-18476	-4632	-2784	-4370	5660	-3377	-19664	6880	-1752	869	2200	-93	-8392	8896	17584	-564	-2105	2395	-3096	2944	-6712	-1136	-1407	677	-23264	1368	-4352	-130	-3782	1761	129	123	1
-9200	-7284	11064	406	1943	-92	-16064	-2528	-3020	3233	4137	-864	-17656	5424	-1816	17	2254	211	-8136	5464	15784	-112	-3928	2918	-6040	2352	-4328	-2027	-2367	1062	-18776	360	-5800	-46	-3324	1352	128	123	1
-9352	-6960	10948	187	1812	-266	-15876	-248	-3200	4147	3432	-485	-13024	312	-304	-578	2106	719	-6152	2640	12848	398	-4993	3083	-9560	-928	-3096	-2548	-3291	1233	-15152	1128	-7600	-227	-2738	1020	128	128	1
-9300	-7648	10576	12	1759	-448	-15932	-56	-2908	613	4374	-580	-10128	-1392	-1472	-700	2215	953	-6696	2912	11672	794	-5297	3233	-10984	-4256	-3984	-2488	-4075	1218	-11896	1864	-9280	-515	-2201	777	127	132	1
-9452	-6804	10508	229	1300	-442	-14692	476	-3164	-5197	5014	-1906	-14344	2688	-1536	-804	2351	720	-7528	3528	11864	829	-5320	3275	-11392	-5624	-6392	-1846	-4928	1272	-8472	2616	-9816	-947	-1983	442	127	133	1
-9416	-7404	10024	336	825	-320	-14112	-304	-2864	-10726	5545	-2248	-17080	6368	-352	-1031	2694	558	-13024	5920	14920	495	-5347	4359	-12752	-3176	-6528	-1400	-5662	1226	-6128	4416	-9928	-1773	-1418	216	124	130	1
-9092	-7740	10428	548	829	-279	-16964	-3456	-1296	-10848	5404	-2113	-17464	3184	952	-1951	3082	348	-18912	4496	17384	549	-5222	4771	-16968	-1112	-8992	-1589	-6160	1114	-4024	3360	-10624	-2925	-987	-16	125	129	1
-9124	-7444	10968	498	1139	418	-17256	-3416	-988	-6451	5737	-583	-14992	-760	2408	-2380	3241	-55	-24184	968	20016	1054	-5337	4644	-19464	-2704	-11480	-1293	-6551	1131	-2960	2176	-10208	-3916	-938	-248	125	132	1
-9116	-8176	10404	620	1357	922	-15696	-2460	-100	-3309	7140	1075	-16528	-2288	-2416	-1849	2242	148	-29984	4440	20200	1614	-5495	4111	-21576	-2032	-12872	-327	-6542	1103	-4648	2312	-5640	-3768	-1150	-366	124	126	1
-9288	-9380	10376	638	1565	1642	-15320	-2144	-436	-961	8153	890	-15352	-3776	-8696	-908	1077	660	-32768	8080	18840	1239	-5651	3399	-25000	384	-14576	130	-6503	1567	-8088	-1928	752	-2332	-1344	-378	127	125	1
-9960	-7620	11176	6	2402	1878	-16496	536	-2788	-113	8866	1426	-18072	-1392	-2768	140	1573	514	-32768	7768	18256	1215	-5624	3319	-25192	1808	-15920	17	-6223	1643	-8272	-9240	4144	-423	-909	53	125	116	1
-9588	-6740	11652	-725	3465	2098	-18036	-1252	-2948	297	10093	2292	-18560	496	568	-40	1397	247	-32768	9568	10992	1188	-4693	3206	-22928	6000	-17848	-678	-5676	1475	-10552	-11584	10272	954	-238	75	126	133	1
-9748	-8420	11816	-1203	5187	2695	-17524	-1204	-980	259	11603	2520	-18984	1424	312	-296	1007	341	-32768	3304	1184	632	-3634	3438	-20768	3088	-18400	-1750	-4641	1109	-20168	-6360	15792	2664	-53	-86	125	123	1
-8472	-8040	12872	-2515	7337	4454	-17176	696	264	-1628	14314	1898	-18216	1080	2616	-307	939	396	-32768	-6768	-9632	-426	-2153	3151	-17944	-1728	-23320	-2008	-2962	505	-21432	328	27624	3151	-647	-71	127	127	1
-9584	-7364	12860	-2942	10309	5546	-18084	608	-1656	-2399	16760	1280	-17416	2296	3848	-587	961	143	-32768	-15072	-18696	-673	-636	1988	-10552	1416	-24448	-950	-992	-70	-20704	11768	24512	870	-1213	580	125	132	1
-10288	-8276	14420	-2370	15408	7186	-20728	-2004	-3892	1727	18518	2212	-20256	5960	1448	-1324	1046	71	-32768	-16528	-20136	-187	559	234	-5240	1232	-24600	-993	1045	-53	-17552	18056	17128	-81	-261	803	125	147	1
-10844	-7348	14312	-2486	21996	9733	-22192	408	-3564	4244	20443	3351	-21336	2264	-1232	-1660	943	532	-32768	-5976	-8680	68	1633	-190	-7488	56	-23064	-612	2699	-165	-16360	6376	5408	-1163	187	-74	125	148	1
-10460	-8576	14028	-3179	28576	12761	-23792	1520	-2104	2119	22295	1702	-21328	-4016	-1416	-1103	746	633	-20856	2424	1624	-1524	3604	-1605	-17360	4696	-5584	529	3261	-321	-12992	-1496	23176	-2623	-771	-443	125	128	1
-10404	-10368	13596	-4705	32767	16155	-21448	-336	268	-1780	24445	239	-20896	-4992	2616	-263	511	331	12560	7560	32032	-437	2701	-1765	-32768	2016	20752	907	1591	103	1856	5504	-18864	401	1877	79	125	134	1
-9760	-11592	13864	-5773	32767	21510	-26344	-3076	3552	-3157	25569	66	-24872	-4104	7208	-112	132	35	-32768	11992	24848	-400	4470	-3212	-23904	-1392	-18768	153	2791	86	-32296	18104	25232	-816	-1953	356	125	140	1
-10784	-9228	16072	-8837	32767	30013	-32768	2164	1820	-7994	24969	1995	-30568	-3608	18816	110	-1824	-86	-26560	18776	11344	-1310	3219	-1548	-23856	7648	-13360	-579	3228	-782	-31368	8352	-7664	-4348	2831	216	127	151	1
-22984	-20188	11672	-10267	32767	32767	-27756	-1620	2604	-10987	30892	-502	-16160	6040	1072	-709	-2335	-625	-16568	2672	17928	-748	869	-1322	-10440	6976	-13936	-2578	2988	-1177	-22440	-9504	-11928	-855	1342	869	125	125	1
-26636	8748	16656	-19578	32767	32767	-22132	-156	-3924	-16490	27514	-3776	-19592	6368	-7256	-984	-2338	-456	-16920	1016	16704	-1055	120	-703	-11592	2504	-15768	-3616	2112	-363	-15872	-9688	-8088	723	1659	1613	127	98	1
-32768	-27948	14860	-22356	32767	27273	-28012	-4008	-10224	-21791	31296	5673	-22528	80	-19952	-1398	-2021	-1281	-10928	4440	13808	-368	111	-60	-28592	-13248	-11152	-940	1548	-3	-10608	8112	-6856	1562	1827	849	126	124	1
-11788	-24720	16644	-6599	28744	26610	-23188	-7224	-12444	-10721	23434	4307	-26992	2912	-12024	-511	-2342	-2017	-10024	5304	12864	-47	178	55	-14776	-2520	-7776	1828	1217	240	-14632	15008	-6352	-282	1765	355	125	127	1
-32768	-20848	30652	1383	-6830	2124	-20136	3324	-8856	4401	13409	9678	-30000	3592	-9344	1313	-3056	-1778	-9552	7832	11672	55	209	55	-16552	7512	-5864	2132	886	606	-21280	6176	-3536	-1749	1713	8	127	141	1
3608	-14632	14400	5026	-7295	-2838	-15112	-2908	1832	8	2780	9228	-27064	6216	-8736	2031	-3505	-1529	-9592	8280	11376	3	175	3	-15432	11296	-4784	867	764	315	-22288	-2144	432	-705	2045	115	127	123	1
-3248	-9924	13252	7269	-10644	-5075	-8764	-408	-5572	6787	-5892	5209	-24256	8496	-7576	1595	-3502	-1801	-9472	7176	12176	-40	171	-30	-15288	10432	-4800	635	742	241	-17512	-2736	832	1097	2029	168	127	134	1
-9432	-7180	15724	4882	-23843	-12023	-4972	536	-7872	5395	-15000	3574	-21200	10424	-4448	809	-3032	-1752	-9784	6936	11632	10	206	-6	-17872	2536	-5416	-186	536	-19	-14384	5568	648	1226	1976	-101	126	127	1
-4860	-7192	11908	2319	-32768	-17977	-7244	632	-4976	3837	-22900	3822	-17320	8344	-4640	548	-2527	-1392	-9728	7248	11576	47	230	6	-17024	3512	-4208	319	580	-38	-12864	8792	1096	957	2225	93	125	128	1
-2028	-7204	7288	1808	-32768	-17565	-9268	2500	-2060	2336	-29659	502	-15136	6600	-5320	423	-2024	-1311	-9864	7720	11128	30	202	-24	-14584	4192	-3800	733	454	57	-12984	4352	680	478	2285	417	125	122	1
-5420	-6208	7128	862	-32768	-17792	-7508	5292	-4828	-972	-32768	-3122	-12680	6584	-6488	390	-1614	-1104	-9672	7712	11320	16	158	-68	-14856	5080	-3328	899	263	154	-16648	-440	112	637	2230	289	125	125	1
-9172	-7708	9516	-1339	-32768	-23014	-6896	4376	-6308	-5404	-32768	-5631	-9432	5296	-7760	263	-1164	-842	-10048	6952	11816	10	118	-106	-15672	4176	-3176	809	391	117	-17336	1192	1296	1286	2235	290	125	128	1
-10392	-9044	10896	-593	-32768	-27873	-11624	2308	-5576	-4834	-32768	-7891	-6888	3672	-8424	506	-948	-565	-9920	6808	11256	28	105	-112	-15528	3536	-2896	876	489	88	-16400	-1552	2120	1507	2179	366	127	120	1
-16964	-7776	13748	-53	-32768	-30336	-15568	2428	-8764	-968	-32768	-9237	-4792	2056	-7976	1300	-927	-118	-10416	7184	11336	25	103	-127	-15384	5032	-2544	744	583	20	-14352	4600	3256	1929	2340	512	128	128	1
-22180	-6008	14836	-3648	-32768	-30183	-17068	4364	-9832	-1261	-32768	-7816	-2936	3640	-7400	2303	-1094	359	-8992	7856	11816	35	118	-153	-15944	4216	-2280	724	689	-32	-13704	7208	4008	1565	2589	491	125	121	1
-22812	-7820	14104	-3815	-32768	-26443	-19204	4296	-9672	-2958	-32768	-10399	-4056	4576	-6248	2682	-1305	404	-9088	7424	11248	6	120	-221	-15624	5728	-2728	739	815	-111	-16760	7512	2520	1333	2582	234	126	129	1
-28092	-10580	17496	-2446	-32768	-24941	-23876	4060	-12372	-2620	-32768	-12632	-6512	5208	-4080	2435	-1045	230	-9800	7136	11824	-18	122	-312	-15576	4816	-2904	421	991	-194	-17184	4096	-1656	1110	1921	80	127	128	1
-32768	-12708	17748	-3594	-32768	-27481	-26404	3228	-13960	-2025	-32768	-12193	-9768	7592	1392	951	-788	-167	-9664	7536	11856	31	219	-392	-16456	3160	-2408	370	1202	-202	-16264	3088	-3048	700	1262	156	126	129	1
-32688	-11700	13124	-1611	-32768	-25869	-26416	-180	-15044	2043	-32768	-13354	-12304	7664	7608	-433	-651	-262	-9672	7760	12688	126	447	-471	-18112	2872	-3128	436	1382	-181	-18640	5416	928	119	1139	44	128	133	1
-32768	-11284	5808	3002	-29462	-25179	-22976	-1396	-16480	10275	-32768	-10098	-17944	5024	8152	-1632	-295	221	-9680	6856	13240	269	730	-614	-18024	2920	-3848	448	1555	-198	-17872	4768	4608	318	1105	-78	127	131	1
-32768	-9328	-2748	8516	-20477	-25884	-21244	80	-19516	17086	-32768	-7621	-19800	1656	15400	-2356	145	377	-10416	6608	13448	330	1104	-742	-18280	2816	-4224	498	1789	-199	-16824	696	3504	907	1065	56	127	128	1
-32768	14576	-9844	5843	-9645	-28863	-12200	3196	-21080	11884	-21354	-3204	-22080	-9736	21680	-2416	389	300	-10840	8496	14088	168	1635	-938	-18496	5176	-3808	472	2096	-319	-17744	-1112	3112	836	1017	100	121	126	1
-32768	13104	-21184	4946	-1636	-10780	-6608	-4244	-21952	7572	-3658	-1571	-21544	-16600	21392	-1096	86	-503	-11000	8688	14680	130	2297	-1209	-21128	3792	-4232	174	2423	-435	-20664	3352	3808	1070	920	5	125	130	1
-32768	11236	-17748	-4769	5533	6236	-5900	5048	-22008	829	13815	1684	-20552	-8080	10728	928	-398	-902	-11192	7656	14888	170	3032	-1578	-23032	2504	-3544	353	2669	-501	-21232	6888	4040	1502	821	-94	127	125	1
-18972	-9212	-18856	-81	23548	13947	-12044	1156	-15224	-7148	23001	-1790	-18456	512	5096	1654	-75	-637	-10624	10544	14736	385	3866	-2133	-24784	4224	-760	791	2957	-472	-21408	6832	7008	1178	502	-219	126	130	1
-5024	-32768	30744	-234	27161	9966	-30504	-4636	25004	-17376	23707	1041	-17976	7968	11360	-766	-355	15	-10656	11256	15320	553	4820	-3092	-28040	6584	-40	1138	3179	-374	-25448	6920	14168	526	-166	-214	127	127	1
-32228	6504	20488	-2528	32767	16122	-30936	6460	-10836	9056	24856	-6362	-21720	-888	-7000	-173	168	1202	-10424	20400	17136	821	6065	-4596	-32768	8208	5368	1684	3323	-291	-32496	10800	25672	-469	-2681	106	126	125	1
-15800	-14236	11988	-3136	28056	11244	-17252	-3880	-6448	4469	30014	7494	-20368	-12640	-5512	2622	-41	546	-20104	13424	15464	1208	7241	-5727	-32768	7392	6576	1860	3352	-242	-23128	-5008	3184	608	-1418	-217	114	124	1
-32768	-10052	11964	3982	11955	10249	-14204	-16184	-17376	23142	22240	4722	-12304	8000	-18472	4152	521	-1068	-24384	5680	11168	2922	7933	-4824	-25528	5160	-1928	3571	3082	16	-21848	-952	-5368	885	-3040	-660	127	127	1
-16344	-14012	10704	7850	3630	6608	-15236	3360	-16940	32767	12285	6907	-10664	11520	-9920	1382	1222	-1003	-32688	17688	16120	2223	6829	-4935	-28568	12560	-3960	3879	2628	-489	-26400	5792	-17200	2995	-3213	-136	128	130	1
-11724	-4744	13408	4714	1988	1767	-20776	13668	-12628	9350	11580	1256	-17080	11280	-11920	491	1969	230	-32768	32767	25824	472	3780	-5150	-17000	12176	-18296	1246	2390	372	-28296	232	-13920	1705	-3682	547	127	130	1
-9932	-6480	12488	1383	2268	-350	-14872	5916	-8768	-12836	12033	-4930	-18256	752	-7640	-599	1728	1174	-32768	18392	32767	-698	-1789	-453	-15552	-2584	-7184	-372	931	74	-31520	2120	-7208	339	-4125	514	129	135	1
-9480	-7412	11332	385	2088	-576	-16304	-1400	-5856	-21679	10449	-6472	-19288	-3432	-4712	299	1698	811	3280	16336	16160	655	-1957	1942	-17720	2016	2896	1078	-114	-72	-28200	5912	-5336	-256	-4051	744	126	127	1
-9224	-7956	10644	388	1826	-116	-20100	-6288	-3176	-13579	7473	-5065	-17160	1992	-2176	670	1984	191	-5952	15512	15080	263	-2870	2339	-5528	3136	-4520	282	-1365	616	-23880	4600	-5448	-479	-3629	1392	127	121	1
-8880	-7660	10916	1136	1784	371	-17320	-5416	-2568	-308	6031	-667	-16448	2520	-1880	636	2004	141	-4344	7408	15056	50	-4386	3048	-3904	2368	-3464	-517	-2368	1148	-19192	304	-5472	-483	-3098	1253	126	120	1
-9016	-7272	11092	1053	1782	440	-16132	-2496	-2884	7272	4620	1887	-15888	2256	-976	-583	2063	616	-2512	4544	11560	507	-4798	3467	-9640	1872	-728	-1475	-3249	1441	-15480	-704	-6480	-570	-2711	900	127	122	1
-9492	-7528	10560	944	1641	491	-16016	-564	-2928	8089	4140	2495	-14104	-2024	-1496	-665	2120	901	-9104	6136	12040	874	-5126	3668	-10648	-752	-4616	-2136	-3932	1513	-12208	712	-8608	-688	-2133	606	126	129	1
-9272	-6796	10552	1209	1388	757	-15272	1360	-3544	3219	4591	588	-13648	-1312	-1416	-239	2168	780	-9344	6352	12384	831	-5372	4058	-12328	-3520	-4528	-2118	-4677	1445	-9344	1528	-8904	-878	-1818	365	127	132	1
-9520	-6472	10824	879	943	547	-14872	2928	-3460	-4204	5079	-1905	-16088	4368	-200	-123	2335	553	-11640	5888	13992	698	-4965	4470	-15640	-4944	-5552	-1967	-5306	1490	-6768	2560	-8792	-1461	-1554	113	127	130	1
-9508	-6264	10796	705	858	542	-15408	716	-1620	-8229	5618	-3130	-16232	7752	632	-782	2612	513	-18536	4712	19048	678	-4767	4756	-16120	-4848	-6136	-1957	-5378	1487	-5424	2272	-8248	-2393	-1246	-101	127	131	1
-9504	-7232	10496	-94	109	783	-16684	-2940	-2616	-6787	5679	-2313	-15016	4096	640	-1687	2763	541	-22832	1472	20784	958	-4919	4714	-20728	-4328	-10112	-1246	-5999	1267	-4816	1568	-6336	-2738	-1183	-331	127	129	1
-9188	-7356	10508	-136	506	1086	-15672	-3464	-1876	-1839	6338	267	-14472	-2016	888	-1921	2801	512	-27872	2760	22024	1102	-4991	4119	-21952	-4024	-11368	-237	-6223	1319	-6208	2024	-2848	-2621	-1403	-483	127	124	1
-8940	-7592	11056	-198	943	1657	-15908	-1744	-2172	848	6850	1343	-15984	-4416	-1872	-1698	2649	565	-31544	8024	20144	834	-5230	3347	-24864	-24	-12952	235	-6119	1440	-8248	-800	1232	-2070	-1458	-324	125	123	1
-9472	-7776	10400	-359	1005	1592	-15720	-772	-2184	-314	7782	1399	-16296	-2120	-4136	-570	1681	638	-32104	8952	15664	534	-5041	2924	-23784	2400	-14024	-345	-5917	1505	-9312	-5688	4384	-777	-1173	57	126	121	1
-9272	-7000	11364	-272	2528	2134	-16192	-436	-1716	-1322	9202	1136	-16352	320	-6776	546	1112	586	-32768	9824	10136	372	-4380	3042	-21656	3200	-17312	-1543	-5328	1193	-11048	-7672	8848	449	-739	-38	125	133	1
-8996	-7452	12200	-854	4103	2807	-17544	-1560	-1416	-1180	11310	1943	-20728	824	760	547	1393	506	-32768	6720	1096	-297	-3463	3230	-19376	3848	-19096	-2226	-4392	709	-15880	-2800	12248	1867	-621	-280	125	128	1
-8796	-7496	12552	-963	5857	3729	-17332	-8	-976	-952	13359	1990	-19792	608	5344	-104	1090	299	-32768	-1432	-8096	-901	-2155	3318	-16472	464	-21856	-2773	-2985	124	-17568	200	19352	2641	-324	-241	125	123	1
-9172	-7236	13748	-2302	8946	4913	-19428	-20	-1404	233	15705	2722	-18432	2928	3320	-1014	1019	103	-32768	-9512	-13712	-1397	-616	2657	-12568	336	-25136	-2000	-1330	-218	-17440	-96	20912	2427	-303	-201	126	127	1
-9756	-7472	14272	-1478	14311	6825	-20212	-156	-3592	1591	18328	2564	-19480	5432	2336	-1105	1055	149	-32768	-12168	-17248	-706	217	1027	-7456	2880	-24872	-1194	414	-293	-16400	13104	15272	-279	-385	879	127	139	1
-11148	-8988	13800	-583	20630	9697	-21508	908	-4264	1713	20332	2774	-21024	2280	-808	-1574	1009	330	-32768	-8176	-11176	296	918	-186	-5760	512	-24064	-411	1804	-28	-16688	6128	6680	-901	428	425	128	121	1
-10884	-8848	15288	-504	26466	13310	-23148	368	-2780	1524	22218	1545	-22640	-2056	-1720	-1446	833	435	-32768	19216	-20128	-1355	2314	-1086	-12944	3384	-12648	1058	2580	-7	-14752	-936	21176	-1762	-317	-309	127	135	1
-11152	-9308	13936	-1115	32539	17593	-23216	168	-580	-479	24321	-64	-21376	-6016	1184	-696	529	489	96	13680	32767	-375	2562	-1837	-32768	4208	22040	2526	1714	306	2344	4176	-9816	206	1624	-288	127	129	1
-9664	-11136	14720	-2148	32767	22406	-26200	-2740	2828	-1976	25784	-330	-23704	-6800	5432	-353	133	274	-32768	-5312	23464	-223	4377	-2808	-30872	-4208	-17504	151	2942	278	-32768	17008	19496	-917	-1781	332	127	126	1
-9564	-11396	16548	-2806	32767	31033	-32768	-1552	2048	-4419	25469	3101	-30536	-6424	18800	-356	-2219	-70	-12616	11208	14896	-484	3362	-1558	-16544	8152	-6848	-293	3249	-1086	-23656	7528	-6320	-3703	2507	450	128	128	1
-16820	-19468	14004	-4825	32767	32767	-27392	-1852	6040	-7613	27949	554	-17928	-736	4784	-62	-2425	-656	-31120	4544	15672	-584	1911	-1584	-7752	12968	-16000	-2392	2924	-882	-20144	-10688	-8856	-1552	1428	1120	126	130	1
-25724	1488	15444	-11890	32767	32767	-23180	2424	-8704	-12176	29742	-2814	-18880	7968	-4760	-108	-2516	-656	-20392	10424	12264	-1110	448	-1106	-13192	3640	-15800	-4796	1906	-169	-13352	-6440	-6816	569	1453	1428	125	97	1
-32768	-21804	17432	-9276	32767	32767	-27068	-2736	-5540	-23540	29370	5261	-21952	1240	-16248	-1058	-2068	-1283	-12832	4280	14720	-670	108	-410	-30864	-16168	-13456	-2241	1722	-253	-11856	8392	-5520	1592	1844	767	125	125	1
-31016	-19768	19908	679	32767	29017	-24576	-6224	-11376	-12936	23890	1136	-27144	3856	-13752	-471	-2469	-2022	-10960	5456	13264	-228	145	-79	-14288	-5256	-8704	2312	1383	242	-18000	14800	-5824	-322	1845	487	126	120	1
-32768	-16744	29536	1997	6615	587	-18604	1276	-9608	1383	15602	7507	-28856	5736	-10200	844	-2963	-1944	-9832	7760	12080	-85	170	8	-15328	7328	-4936	2915	906	680	-20896	4176	-2512	-1693	1954	151	128	126	1
-1784	-17044	17084	4685	-4672	-12883	-16460	-4280	-840	-3267	3836	7619	-27848	7264	-7672	1784	-3473	-1699	-9768	7904	11688	-89	162	-22	-16552	8480	-4952	2731	895	673	-19320	-2224	1240	-380	1997	162	126	133	1
-4052	-7880	14904	5409	-11232	-13730	-9228	-1684	-4352	6238	-5808	4400	-24040	9240	-6656	1597	-3585	-1943	-9480	7048	12096	-86	183	-36	-15144	7232	-4288	-328	736	75	-16016	-776	560	980	1930	-26	127	129	1
-8972	-6440	14696	1358	-25566	-18103	-1396	-252	-7004	7966	-13240	3271	-20856	11472	-4040	744	-3178	-1916	-9472	7184	11680	-89	212	-14	-17264	3672	-5416	-901	659	-127	-14000	6336	-416	1015	1898	-265	127	129	1
-9248	-8948	14296	1645	-28353	-18161	-7284	160	-2552	9022	-23121	1162	-16920	10512	-3928	249	-2669	-1536	-9784	6928	11672	-63	201	-9	-17704	2040	-4520	-497	758	-177	-14032	6984	16	918	1954	-228	127	124	1
-1152	-3772	7852	2620	-32768	-17484	-9428	4572	-2928	9607	-29973	-1089	-14584	9240	-4920	-178	-2189	-1334	-9704	7176	11584	-58	174	-31	-14736	960	-4240	422	672	-57	-14192	2568	248	-70	2345	383	127	127	1
-4972	-5544	8628	-410	-32768	-19493	-7500	7392	-4808	2985	-32768	-3398	-12560	8072	-5712	-292	-1801	-1157	-9488	6864	11600	-44	147	-51	-15088	2552	-3384	1245	421	211	-17232	-1168	368	185	2319	376	127	134	1
-9468	-8364	10776	-39	-32768	-25547	-7204	5480	-6676	-2317	-32768	-6993	-9320	6904	-7232	-422	-1266	-841	-9552	6560	11704	-8	144	-77	-16728	4600	-2888	1259	445	235	-17800	-2232	1408	1059	2293	395	126	126	1
-11788	-7280	13508	1258	-32768	-31957	-12268	2932	-6068	-1986	-32768	-8884	-7200	3856	-8352	-282	-956	-535	-9776	6776	11616	24	139	-113	-15728	6024	-2944	725	613	69	-15304	-608	1520	1903	2257	310	127	124	1
-16560	-6032	15852	791	-32768	-32768	-15788	2200	-8180	1777	-32768	-8748	-5096	1616	-8464	589	-745	-129	-9784	7328	11536	25	156	-120	-15240	5184	-2784	349	716	-35	-13432	3904	2520	2155	2308	294	126	127	1
-22356	-2440	18028	-4683	-32768	-30578	-17244	4400	-10112	1287	-32768	-6743	-2416	1832	-7368	1928	-708	346	-9760	6992	11520	43	146	-152	-15288	3608	-2944	378	806	-79	-14240	8040	1912	1912	2408	393	125	120	1
-27452	-3872	18488	-11182	-32768	-25044	-22012	8640	-10980	-6188	-32768	-7608	-2360	3624	-7432	2722	-867	538	-9768	7360	11320	49	161	-187	-16056	3736	-3240	667	885	-88	-16680	7720	1408	1380	2312	283	125	126	1
-31540	-6968	20344	-9800	-32768	-21212	-23064	7664	-12908	-15106	-32768	-11194	-5088	3272	-5496	2698	-572	424	-9648	7560	11728	73	182	-256	-16496	4072	-2976	798	967	-87	-16600	4200	544	885	2063	273	126	129	1
-32768	-6312	20240	-10101	-32768	-20429	-28888	4892	-13152	-20230	-32768	-13172	-9568	4496	728	1234	-303	29	-9528	8248	12056	94	303	-311	-16984	4880	-3000	621	1117	-174	-16152	2568	-552	488	1695	174	128	128	1
-32768	-11724	14640	-6921	-32768	-16033	-27136	-2680	-14840	-15029	-32768	-14596	-10432	4336	2088	915	-293	-44	-9464	7264	12864	205	498	-463	-17552	3752	-3208	330	1347	-261	-18120	5296	-1288	417	1390	-107	125	132	1
