#Activity	walking 
#ActivityID	1 
#Date 09-09-17-36
acc_rf_x	acc_rf_y	acc_rf_z	gyro_rf_x	gyro_rf_y	gyro_rf_z	acc_rs_x	acc_rs_y	acc_rs_z	gyro_rs_x	gyro_rs_y	gyro_rs_z	acc_rt_x	acc_rt_y	acc_rt_z	gyro_rt_x	gyro_rt_y	gyro_rt_z	acc_lf_x	acc_lf_y	acc_lf_z	gyro_lf_x	gyro_lf_y	gyro_lf_z	acc_ls_x	acc_ls_y	acc_ls_z	gyro_ls_x	gyro_ls_y	gyro_ls_z	acc_lt_x	acc_lt_y	acc_lt_z	gyro_lt_x	gyro_lt_y	gyro_lt_z	EMG_r	EMG_l	act
-12388	-384	13836	867	17251	2460	-20188	-492	-2704	-5837	16155	5822	-19264	1376	2416	-2434	7140	-1242	-32768	-29948	-32768	7681	11229	-266	-4072	-624	-23564	-1545	20966	-3568	-13412	10288	14524	3613	2804	-1711	124	224	1
-11400	-264	14828	283	23224	1334	-20968	-172	-1568	-8712	17002	6749	-20532	-1104	1052	-8849	3713	695	-19692	27552	32767	-22188	7586	-10360	-18264	2324	-2452	18055	30699	-7643	-9420	11336	2132	-8798	8789	76	53	238	1
-9732	-256	15480	-1596	31704	-591	-22980	732	356	-11397	17562	7266	-21852	-652	3120	-10467	-2245	3259	32767	32767	14168	7563	10376	-14339	-32768	3088	32767	14148	4709	3199	-14284	3916	-4256	-12000	16046	95	100	138	1
-7372	-1848	16148	-1913	32767	-5450	-26292	-2036	4928	-14550	17666	9338	-23904	-872	9628	-4887	-10112	3990	11648	17504	-2244	1982	21062	-23159	-2104	-2068	-4440	-12727	17976	-695	-24388	-3792	9488	-799	-215	810	140	112	1
-9164	-4260	14900	-3701	32767	-6669	-26012	-2912	10036	-15648	17863	10418	-21780	192	23100	-7764	-20438	4131	-32768	-5432	15884	-10937	31064	-23723	-27016	1224	-11512	-17741	16461	-8077	-18176	9236	22340	-15514	-1501	-2155	187	104	1
-27384	-8068	8284	-4243	32767	-666	-21836	-11792	1296	-15017	20650	12954	-9952	-236	9792	-15982	-9485	3274	-28836	19540	15740	-11275	20460	-13407	-26276	-3356	-12596	-26478	15879	-8387	-23464	-2276	-4052	-10763	16359	2944	152	70	1
-32768	-7860	10296	2985	32767	11506	-24440	-11476	-13012	2048	25909	13188	-21728	-8796	-7040	-18497	-6331	-5527	-18584	-4292	12188	-5892	5025	-7188	-14484	-3432	-10896	-28947	15905	-5062	-21888	-3088	-18404	-2201	15561	912	171	117	1
-32544	-16396	18908	3354	32767	16805	-32768	-2216	-4424	-3491	21828	11700	-32768	-11620	-13260	-10926	-11736	-6540	-15084	2568	10668	-2181	-697	-3606	-16464	-11840	-14220	-14798	14841	-2531	-7448	-2572	-10156	4702	11941	961	171	133	1
-18824	-11220	32500	532	32767	20281	-26148	-6672	4248	-9595	15467	8209	-29540	-1656	-5868	10228	-25269	-3294	-13528	3868	10200	-302	-1898	-2078	-13740	-6916	-10492	16567	14659	2827	-10896	1092	-8284	3607	10108	619	135	75	1
-32768	-10488	24860	-13487	28447	9047	-12860	-3544	-30092	15232	9526	5414	-28272	1004	-3684	17818	-27527	-4429	-13112	4180	10188	1225	-866	-383	-18192	-1400	-7512	23557	11809	2737	-15484	4492	-6384	4147	14255	2721	150	119	1
-27464	-13964	26880	-7134	-26044	831	-12168	-4036	-32352	18571	8428	6001	-28116	3972	-6096	9556	-25527	-7199	-12608	4940	9800	1206	-158	-423	-18820	3780	-5436	19841	8423	2043	-18952	3276	-4056	6952	13180	-1832	81	103	1
-4376	-7732	17900	-3146	-32768	378	-15768	1752	-3436	-6930	-5941	398	-28320	2204	-9240	843	-22078	-6530	-12308	3904	10260	1515	159	-520	-15648	7912	-992	645	6653	447	-17904	3132	-680	4273	12370	-3434	0	123	1
-2944	-5728	11284	-2866	-32768	-1574	-8024	-320	-9156	-2967	-14226	-3227	-23600	2176	-9844	-4721	-20716	-5864	-12372	4444	10080	984	-8	-635	-16364	3584	-3388	-14319	4605	-979	-14392	3268	296	2304	12165	-2637	96	148	1
-8780	-5960	9640	-2100	-32768	-4898	-4284	1316	-8880	2535	-21146	-7099	-17280	956	-10336	-4967	-18629	-5099	-12760	5136	9732	283	124	-281	-17576	56	-3852	-12789	3969	-1751	-14484	4308	660	3943	13142	-1809	129	126	1
-10568	-6304	9848	896	-32768	-7845	-3772	636	-7956	8619	-27758	-10126	-12768	12	-8520	-2429	-16236	-5280	-12724	5416	9356	-403	-69	-745	-15992	-1144	-3580	559	4781	-571	-15808	5280	252	4577	15423	-1876	147	115	1
-12468	-5100	9500	3522	-32768	-7841	-7344	988	-8524	8848	-32768	-10623	-10352	-328	-9868	324	-13893	-3907	-12456	5048	9680	-215	-492	-1289	-15808	524	-3028	10022	6102	510	-15352	3468	208	5218	16002	-1095	147	128	1
-15952	-1412	8932	600	-32768	-7662	-11404	1212	-8080	7800	-32768	-12064	-10852	-608	-9760	790	-13423	-3766	-12612	4508	10024	432	-497	-1795	-16824	2084	-2488	11561	6884	216	-14652	1584	500	6150	15932	-1090	139	119	1
-18552	-1088	9304	-4870	-32768	-9006	-11272	2024	-9800	8940	-32768	-12971	-8700	-360	-10260	12387	-12361	-2702	-12496	4228	10288	84	341	-1962	-16364	3024	-2480	4792	6878	-558	-14356	1720	1336	7767	17653	-2149	162	107	1
-23772	-2984	10744	-8394	-32768	-9956	-13556	1676	-10812	5173	-32768	-14606	-7020	1476	-10260	18375	-11068	-1857	-12676	4224	10028	-529	1319	-1906	-15980	1632	-3524	-2049	6503	-1583	-15648	2632	2060	9824	19439	-2707	128	127	1
-27448	-6228	11668	-7978	-32768	-11392	-16588	712	-11640	4282	-32768	-16162	-7060	2472	-9732	17909	-11010	-625	-12976	4408	9816	-747	2182	-1504	-16632	-652	-4700	-1545	6247	-1495	-15596	3504	-948	11101	18984	-2108	172	127	1
-29556	-8260	13828	-3065	-32768	-14009	-16880	492	-11768	4641	-32768	-16288	-6144	3228	-6772	12790	-8953	246	-13224	3916	10224	-256	2496	-1421	-16488	-1384	-4164	3311	7122	-1010	-16424	3712	-5928	4606	16592	-1474	142	139	1
-32768	-11212	13344	1314	-32768	-17144	-18956	244	-12496	8035	-32768	-17108	-5604	3244	-3864	6621	-5981	596	-13184	3660	10040	405	2786	-1520	-16464	0	-2616	5577	8118	-1027	-16272	3880	-5024	-2327	13118	-1950	168	143	1
-32768	2528	10044	1134	-32768	-22219	-23768	-1900	-15604	9166	-32768	-17676	-5740	3076	-3180	6032	-5765	483	-13016	4088	10092	700	3708	-1591	-16384	1944	-1168	2559	9431	-1810	-17580	5120	704	-2983	10857	-2367	57	141	1
-32768	-276	-2384	-5975	-32768	-22804	-21536	-2572	-16076	7624	-32768	-14219	-12388	-28	9676	6354	-8980	-2668	-13100	4276	10140	428	4521	-1791	-16232	2924	-1220	-1981	10825	-2997	-17228	4752	4468	29	9443	-1585	126	133	1
-32768	148	-19620	-204	-32677	-14035	-12964	-3604	-19192	16846	-27576	-11003	-21408	-3448	22064	9211	-11414	-6275	-12612	4864	12892	220	5778	-2987	-17380	2480	-1196	-3071	12257	-3874	-17516	3372	5824	2196	9480	-505	100	131	1
-32768	13284	-32768	2298	-19985	-4889	-9156	4276	-22128	17241	-11517	-8511	-16052	-3752	28188	4497	2608	-4829	-13560	4552	12420	-382	8850	-3764	-18968	-792	-1036	-128	15339	-4880	-19132	1640	4480	3708	8716	179	59	128	1
-32768	21972	-32768	-10018	-1868	-5002	-4444	7668	-18640	-6019	6065	-2070	-18856	-2072	20276	725	1036	-69	-13956	4256	13260	-87	12728	-5225	-20404	192	-2348	1312	17928	-5447	-19416	1900	3236	8027	6493	-377	135	106	1
-32768	7928	-29564	-2831	14386	4832	-6432	-816	-21404	-9224	20994	4023	-13220	-1056	9136	-3602	3645	3821	-14092	5248	13044	250	17579	-6929	-21672	-1288	-3064	126	18692	-6057	-19764	2256	952	13354	4932	-670	149	116	1
-4192	6756	32767	5830	15878	14495	-27232	-4980	9740	-24717	20200	5846	-10004	-2984	-1864	-4899	9174	4027	-12632	4772	14972	714	22893	-7652	-22488	-2484	-2196	2006	20292	-6476	-19984	3704	1120	13820	2388	-385	189	122	1
20304	-14920	400	12829	32767	20884	-32768	-3328	7564	4869	11529	-1980	-23512	1380	4128	-6053	10961	2468	-12788	6432	14580	875	29277	-9742	-24932	-2684	1284	3102	21728	-7356	-23248	3476	4176	11513	-531	-686	142	121	1
-25824	-10768	10220	12629	32596	-4783	-8364	3640	-1088	6247	18075	2055	-18724	1076	9600	14552	5837	-1640	-9724	4960	17124	4222	32767	-11819	-25972	-7228	2652	6191	23084	-6771	-22892	2216	15088	15775	-14816	-3447	195	106	1
-28492	32767	21832	3330	32767	5271	-25204	-5540	-1632	422	19486	1557	-18568	-20444	8316	22236	6408	-5531	-15736	9964	15572	4763	32767	-12758	-30252	-7408	6316	16676	23750	-6866	-20564	-2376	18308	20371	-22878	-3971	178	124	1
-30260	-32768	-384	5071	13594	1160	-25800	-2476	-20388	16372	22827	9017	-26832	11392	-8764	15489	15976	-2374	-32768	9536	10416	5652	32767	-19486	-29640	10660	-1180	12785	27341	-7303	-19508	-1316	3280	13301	-12724	-746	189	122	1
-14172	-1460	10380	2028	8018	5147	-14716	2256	-8908	14158	18383	4085	-18680	7388	-17888	-2361	13397	-1883	-32768	17536	8972	1779	32767	-26620	-30528	7560	-6208	-2997	25394	-10988	-25884	16160	-13760	13357	-12283	5852	123	114	1
-15356	-2024	10652	1688	4880	2805	-14756	4436	-12560	13485	14961	-116	-17124	7096	-16872	-5489	12580	-2161	-26464	16476	23560	-3230	32767	-32768	-26712	2900	1416	-1521	22436	-8211	-25728	15256	-14308	12341	-13304	7020	164	78	1
-13856	52	11312	334	2995	80	-16236	7940	-10728	-8863	9971	-1072	-14500	1524	-10608	-9602	10585	-3092	-13880	12812	20916	6112	32767	-32768	-20324	3888	-8184	-8572	19493	-3569	-31544	-1872	-4656	-11640	-27695	4671	85	67	1
-12588	-1932	10848	-558	2194	-865	-17084	-1040	-7660	-20850	5997	-2174	-16236	-184	-5608	-8859	10066	-2335	-32768	13496	16628	9411	7294	-15824	-15480	-1620	-25468	-19414	6013	-3973	-29220	160	-6724	-6780	-27208	7429	228	86	1
-12044	-1764	10916	-1280	1882	-1239	-17400	-5736	-5260	-17388	4900	-3300	-19324	-5164	-3588	-7053	15347	168	-12776	13176	18484	7080	-28015	2718	-14732	-3908	-6404	-3195	-3225	-1200	-28708	-1332	-6316	-4075	-26727	9053	201	136	1
-12012	-2256	10852	-1528	1544	-1423	-15348	-9336	-3624	-2323	5615	-1245	-18224	-5748	-1668	-2340	11220	1496	-3496	12520	12492	3810	-31342	7028	-12944	-4864	-4112	-160	-3796	-869	-25112	152	-7016	4151	-23337	9251	99	142	1
-11716	-3112	10380	-989	1270	-1165	-14092	-7544	-3852	9093	6340	307	-13924	-4940	-528	2178	12859	442	-6504	10124	9112	-209	-32768	11513	-8792	-2052	-9460	19902	-16993	6449	-20664	1544	-6736	5086	-21364	8834	153	105	1
-11644	-3552	10180	-169	1177	-719	-15172	-3716	-4168	9190	5032	695	-17032	-2368	-452	1181	13294	1141	-12396	7164	8460	-2366	-32768	17158	-13948	11620	-16088	15398	-24076	12530	-15456	1384	-7412	-988	-18383	8829	208	122	1
-11760	-3300	10188	406	1128	-115	-15296	300	-3800	-4533	3980	-945	-12720	-852	-1716	-7610	12098	3446	-13788	5244	7780	-1895	-32768	21985	-7392	3004	-7424	-2705	-32768	3417	-15688	5320	-6704	-10991	-19630	11901	51	128	1
-11856	-2816	10400	292	1079	9	-16368	-3800	-3740	-11286	2807	-900	-17100	296	972	-10276	20690	6	-13700	4616	7908	-1559	-32768	22488	-9432	-1496	-5988	-1413	-32144	11920	-12268	1328	-9520	-18224	-14674	6245	119	144	1
-11904	-2756	10100	-258	1433	343	-15668	-3744	-3052	-11920	3253	-1352	-13704	-1844	-1256	-10700	20644	-1936	-14940	3804	7476	3640	-32768	23194	-11212	-1360	-7772	-3491	-32768	10212	-10572	56	-10152	-25280	-15530	4824	88	164	1
-11792	-2648	10264	-179	1461	366	-14344	-6740	-2792	-5246	3876	456	-12904	-2804	2260	-5423	17507	-2677	-22504	2632	7788	6007	-32768	22535	-11200	-2048	-9044	-82	-32768	11109	-8308	-880	-9648	-24655	-13175	2912	91	156	1
-12328	-2808	10292	330	1244	1001	-14020	-6020	-3140	-1966	5592	-98	-15644	-2028	472	-5264	14621	-712	-23360	5848	9888	7674	-32768	22279	-13816	-2728	-9756	2607	-32768	13708	-6120	-1924	-8952	-19519	-9596	2148	125	158	1
-11952	-2716	10344	490	1551	1079	-14384	-5428	-2916	-833	5478	-23	-17936	-4432	-2452	-8555	13602	-498	-24684	7124	11116	8492	-32768	24712	-16056	-3452	-12056	1209	-32768	15021	-4876	-2840	-8028	-13413	-4067	1675	115	194	1
-12056	-2248	10516	1322	1636	1104	-16248	-3012	-2972	-2487	5817	1085	-18192	-4148	-3272	-7020	11480	-1469	-29504	9296	12820	8026	-32768	26260	-21396	-5152	-12256	1989	-32768	16451	-4836	-3676	-5844	-7516	-601	1494	114	199	1
-12308	-2496	10640	1043	1573	644	-16184	-3828	-2644	-4200	6359	1155	-17640	-3664	-1748	726	9012	-448	-32768	3848	10120	10299	-32768	29859	-23340	-5308	-20500	551	-32768	18377	-5836	-6536	-2632	-4247	-676	2370	113	127	1
-12480	-2152	10800	551	1573	45	-16464	-4424	-1892	-3418	7488	2273	-17512	-4416	1152	2473	9434	892	-32768	76	4080	14139	-32768	32767	-23920	-4416	-21364	4486	-32768	16391	-8780	-5000	3740	-4855	-4287	3889	116	106	1
-12228	-2396	10892	800	2118	-425	-16080	-5084	904	-1215	9129	3263	-17968	-3928	3876	118	8399	804	-32768	-1796	-8924	10445	-31643	31333	-21560	-3652	-20004	7907	-32768	14709	-14792	1208	13124	3243	-7750	4230	81	108	1
-11976	-2612	11772	937	3587	-294	-14648	-6740	328	2720	11795	4121	-17876	-3820	4328	66	8208	786	-32768	-8624	-22408	115	-23521	21184	-14708	-668	-20868	6455	-25582	13362	-23032	1700	24320	16547	-8088	6707	95	1	1
-11884	-2324	12796	-2172	7446	-386	-16992	-4244	-1004	3816	14301	4572	-17896	-12	5732	-224	7692	-830	-32768	-22220	-32768	-1159	-7868	7511	-7604	-2596	-23744	-873	-10480	9322	-21236	6160	22992	18233	3943	9886	148	59	1
-10468	-932	15196	531	12461	999	-19316	-2976	-1540	-1082	15318	4772	-17692	2480	3272	-1655	7905	-1193	-32768	-31204	-32768	8801	5267	5406	-4684	-5056	-23328	-6337	7432	1599	-12684	13412	19836	12307	2856	4727	150	106	1
-11820	472	14368	-823	13359	770	-20156	-1688	-2928	-5381	16486	5126	-20568	4	1224	-5849	6043	-883	-32768	-16776	-25916	3430	16822	-169	-7512	-5664	-22516	-9469	20890	-5327	-10820	10380	11120	2398	3662	541	94	238	1
-11176	-1180	14332	-1025	23548	-1381	-20552	-4	-1304	-10097	17238	5881	-20528	-2672	940	-9878	1738	406	6300	7808	32767	-16316	7867	-18953	-32768	-1212	32767	32767	18099	-4796	-8528	9416	-4196	-8670	13650	389	65	207	1
-9504	76	15836	-2176	31991	-3798	-22396	-44	1016	-14574	17556	6389	-20612	-2148	4260	-9800	-3630	2395	-3528	-4496	-684	-12998	29052	-29939	-32768	-336	32767	32767	15873	-4313	-19132	3652	-5140	-7786	17288	2196	97	137	1
-8256	-1200	15660	-3240	32767	-7318	-25612	-1520	5380	-15099	18071	8258	-22992	-416	11464	-5773	-12379	3928	-16240	11168	11100	-10157	28569	-9901	-10388	-9468	-2104	-32131	15080	-8196	-23548	7820	12376	-12066	-3355	4534	150	106	1
-9536	-2176	14344	-5683	32767	-9669	-25172	-2012	9564	-17443	18595	9303	-20212	2420	24760	-12835	-21182	4100	-32768	-11396	12576	-8713	29040	-18211	-32484	-3496	-12344	-29351	15721	-7329	-23076	12684	27108	-20766	-3334	-1994	150	121	1
-28368	-8176	8424	-7591	32767	-5569	-22236	-10852	-812	-14942	21445	12067	-9960	4348	8360	-10589	-7801	2739	-20400	-5152	8452	-12132	4045	-15958	-21088	5548	-10224	-19637	17995	-6241	-25828	-13400	-11216	-21047	21729	-3788	112	96	1
-32768	-11284	14304	-6422	32767	2593	-22428	-11680	-3260	-12860	22119	12451	-26016	-8332	-15240	-25717	-5283	-4552	-15652	7488	9056	-3962	3618	-5070	-16612	-2040	-8892	-26010	14687	-3789	-16568	-7420	-17180	-6641	16675	684	228	152	1
-27600	-13544	21512	-7638	32767	10716	-32768	-3220	-3488	-7416	19691	10210	-32768	-5332	-10244	-9344	-18380	-4747	-14732	4996	9248	-1335	731	-2560	-16880	-2080	-10016	-25658	14215	-3781	-5008	1284	-12436	10738	10445	1153	189	78	1
-21036	-11576	32384	-12619	32767	15194	-23812	-7076	1068	-15827	13378	4257	-29748	-2204	-4204	8186	-26532	-1796	-13372	2828	10748	-617	-1011	-1800	-15912	-6944	-9464	15163	11466	2191	-14180	912	-4744	-429	11232	5029	155	108	1
-32768	-13940	27120	-18947	13556	7666	-10444	-3976	-31640	14986	9545	3848	-28164	-1628	-4480	8571	-25887	-5493	-12924	2876	10816	387	1	-38	-20388	-3376	-7076	22890	9220	3730	-19524	2620	-6228	7983	17294	2648	172	87	1
-21032	-12924	26056	-10435	-32768	4108	-14600	2840	-10316	2860	5107	931	-27928	392	-7664	7022	-24548	-8064	-12592	3688	10548	1137	311	522	-18012	3368	-3944	19463	7217	3007	-19984	2280	-1632	8164	12495	-2862	0	161	1
-1048	-6736	15748	-8574	-32768	4934	-14772	436	-1920	-11903	-7798	-693	-27796	1792	-9660	1083	-21938	-6539	-12552	4212	10272	1366	723	873	-14948	8176	-724	4624	6829	1810	-15496	6140	844	6568	14357	-2359	23	127	1
-5176	-6716	10024	-7008	-32768	3781	-8128	-2908	-9888	933	-16577	-5407	-22436	1032	-10256	-4108	-20465	-5279	-12248	5100	9836	1017	728	375	-16380	6320	-1256	-10036	4881	-518	-13396	5888	636	6054	13560	-1795	90	131	1
-10352	-8256	9272	-1747	-32768	333	-4064	860	-8780	10331	-22626	-8723	-16004	-460	-8328	-4293	-19173	-5457	-12052	5424	9416	531	996	-259	-17092	1456	-3380	-12579	4248	-1474	-15368	5640	860	5559	12858	-1220	143	126	1
-11084	-6652	10032	4454	-32768	-2006	-5796	1992	-7972	11267	-28643	-10345	-11804	-1624	-7764	-784	-16425	-5376	-11836	5844	9288	125	891	-1361	-15836	-2228	-3580	-1349	4658	-711	-15456	4428	1152	3721	16680	-1092	190	116	1
-12556	-1420	9104	2991	-32768	-3334	-10576	3584	-8052	6035	-32768	-10048	-10644	-2128	-9168	4947	-14817	-4816	-12552	4780	9716	695	480	-2044	-16164	-480	-3520	14117	5657	1287	-14372	2996	52	4906	15394	-504	146	122	1
-14232	444	8444	-3875	-32768	-5191	-12348	2424	-8212	5738	-32768	-11174	-10048	-1360	-10912	13175	-13685	-3655	-12448	4780	9796	787	359	-2132	-16744	2396	-1324	15614	6868	1299	-14964	2108	1168	8328	14497	-1456	131	111	1
-17580	-1772	10352	-8945	-32768	-6008	-10404	3584	-10304	2668	-32768	-13627	-7944	680	-10020	17941	-13002	-1817	-12376	3704	10320	1969	705	-2269	-16064	4664	-1524	4732	6156	-842	-16180	2496	2104	10310	15025	-3189	149	121	1
-23200	-3296	12072	-10943	-32768	-6166	-13100	1652	-11052	-278	-32768	-16721	-6968	2372	-8900	18030	-12066	128	-12488	4980	9932	1132	836	-2304	-16420	2472	-2812	-4390	6299	-2128	-16188	3128	1216	8276	16507	-2251	155	137	1
-26924	-4564	12828	-11119	-32768	-7582	-16268	832	-10564	185	-32768	-18385	-6204	3552	-7588	13560	-10387	1331	-12500	5000	10064	58	755	-2085	-16800	-204	-3376	-4288	5958	-2207	-15924	3828	-1324	4062	15772	-610	146	135	1
-30764	-8432	14436	-8800	-32768	-12031	-18380	436	-10948	2994	-32768	-19730	-5292	4708	-5844	7345	-6222	1789	-12968	4184	10048	-316	1108	-1933	-16044	-540	-3060	1718	7446	-1639	-15896	3484	-2620	1324	13579	-266	126	132	1
-32768	-7560	12908	-934	-32768	-17768	-22524	3164	-14732	15957	-32768	-21759	-5656	4356	-2204	3955	-3218	1070	-13084	4120	10396	-68	1847	-2047	-16620	1684	-1428	5312	9208	-1829	-16856	3456	-1180	993	11964	-807	92	129	1
-32768	1764	8672	-1465	-32768	-27010	-24484	-2396	-14288	14289	-32768	-17593	-8244	2500	4488	6629	-5057	-866	-13112	4500	10400	45	2797	-2214	-16676	2820	16	2716	10815	-2880	-18020	4792	1980	2212	9657	-1174	105	141	1
-32768	-1640	-5208	1879	-32768	-25226	-21512	-5116	-14540	15870	-32768	-11758	-15672	-1964	12404	7802	-9396	-4042	-13200	4340	10388	-657	3835	-2328	-16628	2796	156	2004	11044	-3022	-17232	5364	5244	3364	8439	-493	157	128	1
-32768	-116	-21844	15448	-26190	-15460	-10916	-2460	-24276	32767	-21154	-6790	-22280	-5052	24496	8362	-8756	-7124	-13244	6368	11644	-1183	5345	-3071	-17212	2684	-1648	-4079	14385	-4932	-16368	4180	4660	4458	8373	382	10	131	1
-32768	21456	-32768	12141	-15371	-7522	-9004	7628	-23192	26026	-6516	-4210	-17548	-5128	25008	7290	4493	-3489	-11732	4340	16532	-2302	8406	-5560	-19824	-1176	-2408	-1929	15689	-5145	-17288	1392	1888	6634	7972	462	86	119	1
-32768	22640	-32768	-13198	3281	-7030	-3860	7380	-16268	-1777	11455	1190	-17264	-2340	18752	4849	1396	1714	-13976	5048	14048	-985	12960	-6202	-21676	-3116	-4552	574	17877	-5876	-20704	924	-1180	8316	6793	-135	171	112	1
-10144	-14228	7288	-4861	16916	8268	-7120	-2664	-19528	-19005	23743	4221	-11664	-668	6496	684	5411	5279	-14052	4884	14480	17	18104	-7224	-22000	-2992	-3844	2584	19531	-5848	-20064	2596	188	11161	4558	-1054	198	123	1
7932	-9508	32767	-4971	12144	3450	-32768	-9060	32668	-32768	11348	3544	-11548	1208	-2296	-2658	10338	5022	-12320	4496	15852	75	24381	-8386	-23420	-1688	-1712	2659	20538	-6357	-21300	4852	1496	10835	3307	-811	190	134	1
-30376	-12600	-3232	9296	32767	16990	-13272	-7992	-12012	-1224	15602	2697	-32684	3468	17912	-5279	169	903	-12000	6180	14596	285	31309	-10082	-23888	-3504	728	667	21556	-7360	-22400	3824	5868	9299	-2591	-1570	115	121	1
-13676	-18468	9352	13703	32767	1748	-12328	-3900	-4920	3613	21522	103	-10716	-2684	5560	13865	8822	-443	-9044	5556	16972	2351	32767	-11740	-25904	-4872	2820	3955	22898	-7329	-23048	3444	17832	13294	-16983	-3886	164	110	1
-32768	26740	12672	-2695	26016	3478	-28220	220	-12488	21462	22990	4563	-18192	-20924	4924	11421	9213	-8180	-20040	10960	16268	4871	32767	-13304	-31732	-3728	6588	11854	23228	-7741	-21192	-2028	15488	14285	-18510	-3240	149	122	1
-21672	-7272	11304	6644	12881	9280	-19852	-6392	-18804	10005	23323	7990	-24132	11476	-14804	11589	17692	-2735	-31976	13108	11368	4360	32767	-21656	-30104	8172	2432	8605	26801	-7758	-23656	940	1012	8029	-14624	-880	124	111	1
-16700	-4912	10796	3208	6361	5156	-12012	1672	-11572	14765	16835	3820	-14476	4272	-14896	-7968	12798	-3239	-32748	15848	10956	723	32767	-28640	-29232	4444	-5648	-902	24788	-9975	-23444	10884	-12720	8407	-13378	4861	159	114	1
-14296	-2056	10856	2213	3826	3293	-15300	6568	-12120	12354	13330	-874	-11380	336	-11116	-5981	11509	-2395	-20104	19724	25396	-2936	32767	-32768	-25520	1620	4024	1772	22220	-6417	-27584	-1524	-7224	-2480	-22814	4683	246	87	1
-13284	-400	11228	501	2666	250	-18376	8624	-10228	-11272	8737	-1494	-16892	5392	-7780	-7893	8734	-1334	-25532	6516	16876	7468	32767	-32768	-18808	3504	-15480	-7107	18512	-1170	-30664	-4796	-3088	-5489	-27625	4102	112	81	1
-12308	-1608	11076	-389	2220	-460	-16896	-1424	-6608	-24877	5491	-3086	-16240	-648	-3724	-11433	12075	-1797	-32768	12836	15484	7862	-3929	-12059	-16628	-1832	-18568	-12483	4074	-1629	-28720	-2828	-5144	-4425	-28267	6459	244	40	1
-12092	-2012	11048	-1055	1832	-852	-17372	-7760	-4520	-18224	4649	-3054	-19416	-6412	-3640	-9491	13182	177	-9756	12524	18176	8340	-29979	5800	-13852	-5952	-3728	953	-3562	1798	-28560	-624	-6896	1105	-26078	8642	123	107	1
-11776	-2748	10640	-760	1462	-821	-14348	-10840	-3120	612	5756	-642	-16408	-7864	-1060	-2653	11227	1290	-2372	10672	12504	6967	-29436	9888	-8984	-5612	-6480	17727	-9222	6161	-25564	-128	-6992	9176	-24152	8836	149	131	1
-11712	-2992	10316	584	641	-449	-13996	-7848	-4324	14673	6608	1173	-14164	-5500	-1216	2832	13376	1489	-7668	8220	9664	3390	-31746	14559	-7788	-2452	-9168	22332	-18064	8895	-20248	1744	-7148	7679	-21921	8347	220	103	1
-11932	-2936	10324	1785	-60	-30	-15912	-2636	-4520	14720	5837	1725	-16896	-1488	-3128	2173	12859	2484	-12072	5900	8992	166	-32768	20214	-10856	6052	-10096	12264	-29229	9687	-16220	2100	-7392	2371	-19001	7758	205	124	1
-11960	-2500	10452	1585	-407	299	-16212	1724	-4060	190	4394	-32	-15188	-48	-288	-2412	18116	296	-14616	3024	9064	-726	-32768	24023	-6144	-1284	-7120	529	-29829	10528	-13252	1736	-8556	-6302	-18209	8264	67	115	1
-11848	-1760	10784	671	-353	1	-16220	-1232	-4088	-10188	2450	-1246	-15572	1160	-1012	-5604	15815	60	-13860	1768	8812	1583	-32768	25705	-10960	-2060	-6732	-1827	-32768	11633	-12080	1736	-9756	-15251	-17036	6862	0	149	1
-11784	-2144	10656	-168	528	124	-15240	-4468	-2600	-11467	2615	-1212	-14408	368	924	-9903	17096	1003	-15548	1608	9216	4226	-32768	25240	-10876	-1768	-7452	-4663	-32768	12013	-10056	324	-10308	-19697	-15132	4821	53	158	1
-11584	-2152	10588	-413	641	360	-14376	-6184	-2624	-6710	3506	-119	-13344	-2252	1768	-6536	17307	538	-19744	2452	10292	7218	-32768	23516	-11508	-2504	-8144	-3116	-32768	12539	-7068	-464	-10056	-20079	-13029	2702	93	149	1
-11824	-2440	10432	-121	654	774	-14540	-5376	-2900	-1505	4783	636	-16284	-3656	-208	-3257	16219	-563	-22660	4540	11080	8468	-32768	23022	-13812	-4376	-10176	-800	-32768	14321	-4992	-1664	-9552	-16999	-8113	1913	139	164	1
-11520	-2160	10660	89	754	1174	-15924	-3508	-2644	-688	5421	903	-18036	-5488	-3696	-3507	14290	-640	-24204	5012	12964	9253	-32768	24506	-17264	-5028	-12032	1270	-32768	15392	-3780	-2496	-8824	-12982	-2680	1426	110	179	1
-11756	-2028	10952	49	1321	1229	-16532	-2452	-3032	-2462	5775	945	-18324	-3532	-3900	-2350	11556	-772	-32768	5924	12844	12241	-32768	25869	-21980	-7312	-14276	2236	-32768	16595	-4304	-3956	-6560	-9781	49	1193	83	234	1
-11632	-1984	10984	-32	2242	1070	-16612	-2840	-3048	-4525	6209	1188	-17656	-3060	-2056	1224	9894	446	-32768	308	7652	15193	-32768	30162	-23744	-5960	-21464	4432	-32768	17374	-5628	-5692	-1744	-8228	-1877	1297	145	143	1
-12360	-1316	11060	244	3344	668	-16892	-3888	-1992	-4025	7149	1779	-17552	-4016	448	618	10142	1854	-32768	-2408	-1428	17076	-31388	31483	-25100	-6244	-22404	11257	-32768	15763	-10372	-1912	8004	-4471	-7789	2827	79	108	1
-12204	-1428	11372	731	4402	-47	-16156	-5272	-104	-2110	8938	3077	-17472	-3432	3352	400	9422	1514	-32768	-4148	-16380	8966	-28649	28980	-17440	-2808	-22860	10735	-32768	14342	-18516	624	23508	7159	-9674	4493	106	86	1
-11804	-1680	12176	-111	5909	-131	-15540	-6236	124	1826	11557	4225	-17736	-748	5136	1276	9123	-53	-32768	-10268	-30040	-5751	-20093	17048	-11084	2676	-21008	2509	-18381	10561	-25308	24	24188	20889	3522	6920	116	12	1
-11364	-3316	13932	-2653	8985	97	-17632	-3000	-364	1264	12885	4446	-18284	2444	4524	-166	9072	-843	-32768	-27972	-32768	-6554	-3505	4707	-6512	-4260	-22644	-9871	-2608	5033	-17700	8524	20768	14423	2907	7546	120	90	1
-12780	-3592	12864	-24	13245	784	-19832	-2592	-1804	-3265	13876	4859	-19884	968	2344	-4272	8545	-636	-32768	-27284	-31768	1301	12617	5485	-5688	-5776	-26136	-14287	15128	-2860	-12768	11928	15380	7491	4411	1924	104	162	1
-12472	-1548	13932	177	18111	486	-19660	-2484	-1320	-7496	15264	5887	-20268	-3372	964	-8450	6335	159	-32264	-9456	32767	-21579	12095	-18913	-28916	1364	16224	16920	22763	-6234	-10812	11824	3152	-4977	7626	1679	56	239	1
-10712	-708	15388	-363	24636	-193	-21256	-3088	-1916	-9366	15741	7206	-20604	-5892	236	-8175	3745	435	-10580	-2700	-3492	-13363	23862	-28126	-16208	2396	-5112	-25238	10491	64	-19528	5808	-328	-14682	16192	3814	89	145	1
-9144	-1224	15080	-1628	32767	-2702	-23800	-1480	2864	-10105	16314	8837	-24212	-4204	4496	-4878	-2372	1215	-16144	2184	15644	-4065	27250	-9719	-10928	-16460	4892	-27786	15505	-6769	-26040	4508	11552	-11692	-1405	5162	131	115	1
-7368	-4388	15868	-2190	32767	-5450	-24432	-2092	9612	-13449	17916	10212	-23000	36	14200	-5875	-14146	5035	-32708	-3336	14272	-7651	29989	-14866	-26664	-7296	-8000	-11772	17562	-3825	-12196	2348	22212	-17820	-2712	-5462	138	64	1
-11936	-6720	14484	-3865	32767	-3693	-24168	-6184	9004	-16436	19499	11245	-21228	932	24592	-7224	-23984	4482	-32768	26172	9844	-8754	13096	-5194	-23476	2096	-14944	-9423	17649	-4730	-21796	-11564	-6968	-13946	18746	-4462	167	101	1
-32768	-9640	5864	-3693	32767	5653	-23500	-12872	-3284	-9872	24082	13667	-11412	-2236	2888	-20535	-8445	1748	-11576	460	12008	-3091	4703	-4400	-14692	3812	-7688	-19545	14564	-2849	-21712	-4772	-19476	-2159	19436	1460	143	125	1
-32768	-14236	13092	1925	32767	15175	-28264	-5492	-9624	-4085	26172	11278	-27260	-5080	-16824	-13825	-6824	-6153	-14668	3928	9832	-678	-180	-2446	-16380	-4808	-10508	-20117	12141	-2628	-6592	3616	-9256	9296	12889	3237	224	78	1
-22736	-13736	22984	2704	32767	20586	-30420	-2732	1336	-12931	21185	9060	-32224	1732	-12792	-4128	-17026	-5441	-13528	3860	10032	32	-1615	-1730	-14692	-10532	-10188	5952	10757	916	-11532	812	-7256	5336	11611	2441	174	76	1
-5496	-6748	32767	-11784	32767	20426	-21444	-4580	-216	-10449	12484	2417	-31656	4396	-9076	-1299	-20234	-4809	-13180	3640	10480	817	-769	-280	-14796	-9784	-10072	9892	10710	1532	-16896	1788	-6388	1901	16223	3293	136	97	1
-32768	-9776	26924	-15604	5406	4812	-10980	-2572	-26996	13607	9687	3299	-25944	620	-3276	5348	-25578	-5610	-12612	4604	10008	1500	14	561	-18812	1928	-5140	20797	6938	3978	-20308	1320	-4972	5699	14649	-2059	131	125	1
-12856	-11684	26976	-10012	-32721	-2716	-16512	2396	-3000	-2960	2894	-2070	-25312	1964	-6888	-230	-22483	-7924	-12508	3576	10464	2317	138	470	-15648	6392	-1424	8381	6898	2710	-16664	3992	-872	3738	13987	-3456	127	136	1
-552	-7256	17672	-7402	-32768	-1599	-14500	-624	-1124	-15854	-8500	-4115	-25648	312	-8728	-4205	-20661	-6739	-12504	5032	9888	2726	315	527	-16140	6800	-2224	-7173	4254	873	-13548	5588	-620	3207	15922	-2498	42	144	1
-6976	-4884	12108	-4973	-32768	-2982	-8608	-2012	-8672	-909	-14609	-8399	-21084	-608	-8808	-5330	-19863	-5998	-12124	6260	9140	1819	879	-88	-17516	2876	-3320	-10811	3356	-863	-13988	6612	-664	839	17224	-1711	80	146	1
-10652	-3916	11572	-2638	-32768	-5861	-5452	224	-6056	8843	-20082	-11120	-16180	-1232	-8344	-3357	-18679	-5981	-12488	5768	9064	1783	838	-1050	-15780	-4220	-3588	1523	3362	664	-15320	5324	792	1200	18567	-853	153	100	1
-10320	-3924	12008	99	-32768	-7378	-8852	416	-8800	15452	-26774	-11685	-12980	-1428	-8436	-396	-16943	-5321	-12468	5036	9556	1824	517	-1577	-16260	-548	-2832	14195	4801	1725	-15716	2896	1612	2099	17691	312	160	112	1
-11864	-1348	11564	202	-32768	-7899	-11968	1800	-8124	12305	-32687	-11491	-11900	-2544	-9928	3122	-15275	-5024	-12560	4608	9848	2154	333	-1680	-16856	3728	-1408	12675	5814	1312	-14388	372	1824	5273	18033	-1114	138	117	1
-14372	84	11100	-2924	-32768	-8490	-12728	2768	-8188	10529	-32768	-11624	-10268	-2308	-11192	9733	-13716	-4189	-12640	4680	9660	1525	426	-1994	-15876	4844	-988	2761	5682	-397	-16072	1556	1804	8475	17573	-3209	128	119	1
-18056	752	13288	-8323	-32768	-7934	-11632	3472	-10400	7959	-32768	-12958	-7724	136	-10436	17105	-12760	-2637	-12600	5144	9504	463	596	-2011	-16276	2844	-1384	-3518	5930	-1996	-17720	5196	-504	9392	16102	-1870	113	133	1
-22144	-656	14484	-13682	-32768	-7770	-14648	2908	-11032	2628	-32768	-15483	-6432	1988	-10248	17409	-12412	-895	-12860	5140	9616	-909	1028	-2066	-16516	796	-2120	-3372	6410	-2200	-17732	5848	-2320	4201	12074	-358	141	138	1
-28408	-2708	15336	-16392	-32768	-8814	-16948	1988	-11332	-1474	-32768	-17584	-5804	3076	-8456	14240	-10596	577	-13024	4840	9824	-926	1222	-1780	-16588	548	-2412	963	7623	-2107	-16448	4804	-1576	1000	9483	-58	155	131	1
-32768	-7960	16252	-15028	-32768	-11969	-19804	1460	-12276	-5169	-32768	-20266	-4896	4640	-6700	8998	-6513	925	-13036	4440	10000	-574	1498	-1762	-16468	1436	-1880	3197	9438	-2294	-16264	3280	348	1146	10779	-91	132	131	1
-32768	-9744	13428	-6445	-32768	-16672	-24072	2552	-14896	6196	-32768	-24301	-5720	4348	-3216	3076	-3877	60	-13412	4512	10068	-146	2115	-1712	-17080	2748	-936	911	10572	-3054	-16844	2604	1672	2052	10336	-645	84	138	1
-32768	3300	8032	-5357	-32768	-26354	-24188	-4524	-14208	6223	-32768	-21372	-10336	2464	5608	5455	-7953	-1871	-13092	4512	10252	-346	3241	-1559	-16940	784	-1216	-2416	11572	-3917	-17240	2692	1852	2272	10268	-666	71	136	1
-32768	1264	-8416	-5769	-32768	-27581	-20544	-3952	-12788	17117	-32768	-14201	-18696	-3472	21104	9878	-16103	-5285	-13356	4312	10432	-265	3574	-1547	-16616	972	-2160	-2326	13561	-4406	-17796	3292	1784	3305	9505	-579	109	134	1
-32768	2552	-28648	5800	-25584	-18767	-10732	-560	-20080	26885	-18806	-8650	-18064	-3512	29296	6119	-1294	-8317	-12456	6344	12744	-595	8103	-2398	-18996	808	-804	-941	15052	-5081	-17496	2528	3320	3319	8795	50	27	122	1
-32768	28912	-32768	3339	-12867	-12667	-6532	6072	-20784	16352	-1811	-4283	-18420	-5896	28472	4158	1985	-3170	-13516	5156	13240	-351	11323	-4037	-19988	204	-3612	-1563	16975	-5676	-18568	332	2712	5426	7958	717	133	110	1
-32768	18944	-32768	-6329	9616	-7006	-4324	7184	-15396	-1386	16936	2923	-19756	-756	15948	4028	1856	2115	-13684	5748	13092	-53	16394	-4758	-21120	-1104	-3728	-1456	18077	-6389	-18908	1116	104	9614	6045	84	183	116	1
-29724	6648	-4172	2706	22818	5889	-7612	-1804	-25740	-8774	28947	6869	-12032	-2408	3392	-64	4385	4577	-12756	5224	13912	266	21603	-6069	-21216	-4236	-2036	539	19143	-6267	-19668	3220	-940	13391	4488	-850	151	130	1
21552	3988	32767	-251	2626	4662	-32768	-10616	32767	-32768	10078	4402	-8584	340	-6040	-4030	13420	4365	-11468	4224	15660	740	28302	-6402	-23560	-3732	-364	5047	20613	-6734	-21212	4828	1128	12004	1805	-710	173	127	1
-32768	1732	-3912	15419	32767	16359	-7920	-4572	-17584	10015	15815	3987	-29932	2640	12992	-6221	5769	-168	-10184	8068	15188	1979	32767	-7600	-24664	-4996	4136	5148	22007	-7627	-23148	1608	6784	9087	-5573	-2108	145	123	1
-6720	-14484	9588	16909	32767	953	-10900	-264	-4280	6753	22536	2070	-10300	-2696	4752	24577	8305	-637	-11172	7300	14728	4749	32767	-9463	-24920	-5684	4256	5179	22242	-7534	-23536	-1212	23132	12192	-23584	-5411	182	103	1
-32768	32767	11464	-3273	32492	4946	-29932	-716	-10820	22907	22571	5218	-16852	-19112	8156	12639	10054	-4447	-32768	11500	6812	6864	32767	-13332	-29740	5684	1904	8679	25160	-8484	-17924	-3360	17828	14917	-17896	-3162	176	115	1
-31624	2516	15372	7250	10013	11063	-22412	-8316	-20664	14866	24978	8767	-26300	12364	-17632	13198	16011	-2230	-32768	10952	12124	-1869	32767	-29135	-29896	10916	-2488	-5983	26939	-9322	-25816	10428	-10760	18027	-8341	2393	60	108	1
-15936	324	12660	3422	5602	5903	-14164	2164	-11316	19348	17694	5689	-16124	7768	-14028	-10241	10157	-1849	-28664	21508	14084	-1474	32767	-28623	-30268	-1348	1220	129	25019	-10927	-27548	11412	-15424	8534	-13781	6965	74	99	1
-13120	-1940	11268	2403	3545	2973	-14624	9880	-12936	4718	13910	241	-9472	20	-12216	-8988	12375	-1995	-23484	21680	29524	6729	32767	-26727	-23396	-1408	-3420	-2616	24239	-6094	-28612	-5392	-3368	-11032	-28287	3357	253	111	1
-12524	-1636	10904	724	2819	531	-15760	6304	-10032	-22937	8182	-1151	-14836	2716	-8856	-11275	9208	-1320	-32768	20768	16340	18006	29926	-12431	-16032	-2520	-31000	-15210	11706	-3496	-30196	-3884	-4484	-14203	-30016	3912	79	137	1
-12148	-1700	10740	-133	1905	213	-17860	-5572	-7032	-28114	4923	-2654	-16524	-3036	-5508	-12598	12629	-2237	-14504	20288	21852	8284	-22699	1916	-17392	-1148	-9264	-2612	40	-598	-29240	-6028	-5492	-6158	-29541	6153	253	87	1
-12092	-2180	10720	-892	1435	-163	-16140	-11480	-3544	-6240	5671	-1310	-16892	-3804	-4936	-12097	13713	-1804	-4212	13140	17052	2516	-30581	1817	-10608	-2920	-3916	11403	-5403	4358	-27376	-2156	-6320	7667	-25083	7436	213	124	1
-12056	-2748	10372	-19	1065	-83	-14452	-8256	-4476	14613	7533	711	-16888	-6736	-2720	954	12370	2382	-6928	7224	11348	2517	-32768	3741	-8700	-3724	-7800	16758	-13328	8197	-23172	220	-6788	13049	-22887	8017	140	31	1
-12076	-2888	10296	1366	60	-212	-15632	-4384	-5588	19659	6760	2436	-13804	-4796	-1636	6577	14584	1942	-8520	6800	10836	2603	-32768	4611	-5796	-872	-9284	14802	-22408	9656	-18180	1948	-6880	7407	-21538	8000	178	122	1
-12048	-2880	10264	1525	-57	-142	-16168	376	-3680	8913	5181	1262	-17708	772	2488	4573	9574	4395	-11604	4984	10044	3966	-32768	14622	-10156	-848	-6472	7985	-32768	7940	-15704	2768	-7256	-874	-19787	8087	58	138	1
-11996	-2192	10580	1487	-968	100	-16140	-40	-4728	-7160	3326	-729	-16504	-208	320	-1135	16443	1352	-12292	3188	8428	6016	-32768	16879	-10476	-3528	-5988	6700	-31171	11956	-14436	-4	-9416	-8409	-18288	6901	0	121	1
-11740	-2188	10608	565	-482	78	-16108	-3328	-2592	-11971	2018	-1079	-16304	760	-292	-4532	15388	985	-13664	3400	8648	7512	-32768	18496	-11152	-4080	-5828	6501	-31655	12963	-13004	-220	-10636	-14518	-16947	5777	0	143	1
-11752	-2284	10800	493	-431	137	-14804	-6172	-2220	-8365	3163	-439	-14268	-288	1104	-6317	16091	705	-16272	3832	10824	8287	-32768	19292	-11344	-3424	-8304	5770	-32768	15967	-10244	-612	-10224	-14722	-15345	4080	213	141	1
-11868	-2104	10744	-68	734	801	-14232	-5664	-2780	-1826	4558	660	-12772	-2188	2232	-2243	16861	248	-21264	3804	11680	10610	-32768	20577	-13416	-3544	-9332	6048	-32768	17851	-7384	-892	-9772	-13337	-12587	2562	139	146	1
-11896	-2080	10544	129	1080	1151	-15328	-3752	-3512	950	5453	986	-16612	-3384	96	-886	17115	117	-22192	4956	13224	12522	-32768	22904	-15924	-4428	-10560	3720	-32768	19731	-5052	-1700	-9764	-11589	-8769	1749	110	171	1
-12136	-2116	10816	265	1571	1304	-16604	-2124	-3796	-1786	5382	988	-18712	-3068	-4564	-5458	14921	137	-28688	6028	14696	14098	-32768	26070	-19740	-5732	-11284	869	-32768	20666	-3912	-2108	-8736	-10128	-5006	1143	0	223	1
-11948	-1784	11060	205	2451	1316	-17104	-2148	-2956	-5804	5318	789	-19528	-2180	-3364	-2116	11788	-26	-32768	5400	10796	11811	-31704	32767	-21652	-7948	-18328	-5791	-32768	20032	-4372	-3696	-6056	-8630	-3431	1582	168	169	1
-12220	-1472	10768	177	3359	688	-16396	-3224	-604	-7957	6253	1510	-18000	-4400	-64	1851	9212	511	-32768	-3304	5992	10635	-28781	32767	-24828	-7240	-22536	-2075	-32768	17035	-6272	-2248	260	-8275	-6087	3026	89	131	1
-12020	-2336	10604	705	4089	405	-14264	-6920	1784	-4352	8434	2940	-17296	-5708	4340	831	7661	1468	-32768	-5220	-5592	8181	-28046	32767	-23652	-7688	-23824	2041	-32768	12955	-11244	2236	11812	-2097	-8147	3714	59	111	1
-11736	-3652	11388	604	5136	1290	-13336	-9640	68	2345	11825	4061	-16704	-4016	6844	-1364	7664	156	-32768	-7460	-22144	-4853	-24352	25273	-14836	-1240	-22268	3923	-28501	9923	-19388	1716	25064	8135	-5662	4137	122	0	1
-11588	-4256	13700	-112	7685	2339	-16924	-4508	-1648	3125	13769	4853	-17192	1324	5628	-1950	8234	-1775	-32768	-17632	-32768	-12753	-11437	8686	-7328	-1004	-22476	-7136	-12421	6732	-21952	4880	23764	8999	5220	7765	145	39	1
-12340	-1056	13272	1142	11423	3539	-20052	-932	-3088	-3059	14688	5209	-20328	2860	1428	-2218	7419	-1838	-32768	-32768	-32768	-2922	2654	5366	-5016	-5300	-24116	-14945	4940	-198	-15356	9852	20452	5080	3558	2856	104	127	1
-12168	-232	13772	764	16185	2759	-19632	-828	-2960	-9166	15739	5774	-19324	-596	456	-8501	5263	-171	-20952	5796	-32768	-5033	32261	-14525	-12940	-3128	-16464	-8769	18846	-4467	-12120	8792	13020	-2020	1733	-1639	93	218	1
-11420	-180	14672	777	21734	2046	-20336	-2268	-2604	-9380	16373	6796	-18740	-2452	-736	-12327	3023	242	10884	32767	32767	-5348	17733	-2453	-32768	4560	32767	22522	14463	-6705	-13600	8056	1604	-12623	8018	1996	118	226	1
-10848	-380	15016	-906	29524	17	-22728	-1944	-1072	-10026	16437	7973	-21760	-3444	-128	-8512	-399	865	-25060	-17144	12200	-8186	21858	-27614	-10812	7176	-5252	-11665	19824	-3106	-31452	-164	15248	-7364	-2511	3039	119	117	1
-9420	-2772	14908	-1346	32767	-1662	-23872	-1924	2720	-10349	16698	9164	-22664	-2964	7188	-7192	-8065	3613	-16304	13628	5736	-10322	24192	-17052	-18580	-9688	-4612	-22086	18409	-7939	-9212	1092	12796	-11058	7983	3153	188	59	1
-8968	-4040	14264	-1732	32767	-2328	-24120	-3176	6692	-13348	17007	9512	-21940	-2716	19272	-8732	-19493	4686	-26316	-11448	13744	-4033	22402	-11592	-28320	-5896	-12504	-14996	18936	-4626	-17348	980	-1032	-14998	13668	-602	147	130	1
-23892	-8748	9228	-3379	32767	3174	-24180	-10136	5172	-16915	18205	10843	-15948	1108	10804	-22702	-13520	2735	-32768	4124	3352	-4786	7792	-11782	-14004	3428	-17708	-12043	18499	-5204	-20808	-8920	-8592	-11379	14621	58	99	101	1
-32768	-5448	6500	153	32767	14631	-21872	-9300	-11236	-5050	24173	9728	-21696	-672	1188	-7203	-10856	-1958	-17008	5540	10028	-2174	2394	-4753	-17380	460	-9716	-18106	13586	-1432	-14736	76	-11772	8150	13115	1773	115	115	1
-32092	-14440	13280	298	32767	18688	-29968	-1412	-4920	-10304	22137	8425	-24556	-6252	-15460	-14211	-9625	-7775	-14820	4324	9632	-224	91	-1772	-18380	-7620	-10284	-10417	11972	-850	-13300	1852	-7560	6406	13045	3306	247	56	1
-19992	-9984	23556	-4743	32767	21656	-26148	-4056	1636	-14670	17237	5127	-31088	4120	-5856	-374	-21000	-5623	-13680	2812	10584	145	-245	-373	-15456	-7928	-8236	9052	10904	456	-15884	4912	-6220	3524	14346	3015	158	125	1
-24196	1508	17004	-17525	32767	17682	-17792	-2560	-10500	-6602	8282	-100	-27736	4496	-900	4180	-23980	-4678	-13068	4112	9788	339	-273	-137	-17328	-656	-5636	15562	9944	1517	-18196	4572	-3860	1800	14347	-251	158	143	1
-32768	-15632	24680	-12363	-4061	588	-8908	-1516	-24496	8505	9230	-1387	-25740	3300	-5064	-1183	-23373	-6784	-12884	4344	9772	646	-34	1	-17636	2172	-4476	11662	7312	1819	-17340	3780	-1296	-1039	12391	-2517	152	119	1
-10788	-10828	21988	-3908	-31340	-5334	-16244	2792	-1864	-12228	939	-6933	-25080	2484	-7148	-3365	-21344	-8254	-12880	4296	9780	783	259	-27	-16376	3068	-3008	3766	6548	1279	-16848	3328	-920	-1395	12541	-2673	0	127	1
-4036	-3320	14032	-4682	-32768	-7669	-12384	608	-4512	-12645	-8312	-7928	-23600	1384	-8400	-7117	-19307	-8029	-12704	4448	9708	521	396	-356	-16076	3236	-2704	-5111	5474	8	-14052	2040	588	-1050	11069	-1934	0	147	1
-6212	-416	11224	-7017	-32768	-10773	-7996	-1204	-7368	1124	-13915	-11325	-19320	164	-8036	-7274	-18603	-7747	-12692	4776	9228	-354	532	-652	-16364	1272	-3680	-9789	4312	-634	-15148	3052	336	-80	11714	-1490	126	93	1
-10128	-724	10884	-6038	-32768	-11971	-6236	1084	-4936	13758	-19643	-13624	-14896	-1632	-7436	-4729	-17116	-7458	-12748	4728	9348	-808	269	-1159	-16376	-1588	-3984	-4736	4149	-121	-15516	3264	768	858	12410	-1350	125	112	1
-12860	-128	12248	-2199	-32768	-10994	-9352	1852	-7748	17596	-25004	-14382	-12928	-2328	-6772	202	-15954	-6968	-12616	4624	9360	-632	-107	-1490	-15824	-488	-3104	3354	4809	384	-15640	2180	1092	2178	12957	-456	169	116	1
-14864	2628	11136	-1952	-32768	-9636	-10000	2320	-7584	17475	-26024	-14219	-12272	-2204	-7560	6797	-15363	-6217	-12728	4108	9648	362	-138	-1701	-16272	40	-2636	7533	5571	644	-15396	824	1788	4465	13326	-207	150	124	1
-16012	4080	10852	-5446	-32768	-9921	-15580	4888	-8728	12258	-32768	-12262	-11544	-804	-8908	13221	-15189	-5298	-12592	3748	10032	745	55	-1776	-16272	1740	-1876	4799	6093	84	-15820	1472	1744	7084	14000	-1074	141	119	1
-18976	2908	12196	-8848	-32768	-10017	-13104	4460	-9768	5914	-32768	-12706	-9888	808	-7864	15727	-14874	-3827	-12644	3780	10116	507	471	-1827	-16232	1724	-2424	-1395	6186	-878	-15416	2316	1492	8868	14472	-1925	143	124	1
-23836	1188	12696	-10770	-32768	-9116	-14180	2800	-10092	1840	-32768	-14789	-8428	1300	-6888	15592	-13358	-1916	-12716	4448	9808	-272	840	-1903	-16508	560	-3324	-2257	6598	-1363	-14960	4036	1556	9399	16615	-2152	108	130	1
-26048	-1244	13120	-10511	-32768	-9175	-16536	1760	-9580	810	-32768	-16374	-7216	1660	-5300	12838	-11114	-638	-13440	4208	9628	-529	1124	-2088	-16356	-172	-3996	804	7557	-1105	-15700	4436	40	8298	18425	-1750	146	131	1
-28540	-1720	14100	-9387	-32768	-11956	-18448	1856	-10952	3237	-32768	-17688	-5432	3076	-3688	9346	-7139	11	-13556	3308	10096	-319	1475	-1973	-16768	-488	-5044	3610	7782	-984	-16180	2112	-2192	5505	17459	-1245	134	125	1
-32768	320	13012	-9248	-32768	-16365	-20616	2588	-12520	7042	-32768	-18504	-4908	4432	-1488	6084	-2847	360	-13352	3664	10016	-259	2064	-1622	-17140	-144	-3260	4438	8349	-1514	-16348	1076	-1928	1158	15972	-1478	109	131	1
-32768	3876	8420	-8792	-32768	-19465	-22708	-756	-13968	6398	-32768	-16801	-6860	4112	4636	4182	-2339	-107	-13396	3892	10092	-25	3321	-1379	-16644	1328	-1660	1964	9822	-2277	-17272	3260	496	-184	15040	-1370	144	139	1
-32768	3836	-4336	-5235	-32768	-18020	-20468	-3988	-13516	8414	-32768	-12258	-15044	-960	12388	2059	-7149	-1929	-13584	4044	10216	246	4511	-1551	-16656	2136	-1004	-1048	11485	-3428	-17936	5356	3484	703	12271	-1161	123	136	1
-32768	632	-20740	7659	-28491	-12766	-11508	92	-21048	27613	-20810	-6989	-19996	-5404	21596	-1913	-8175	-3476	-13048	6228	12780	418	6046	-2587	-17436	2340	-2060	-1728	13391	-4108	-17576	4852	4256	2940	10186	-188	63	124	1
-32768	16116	-32768	11985	-14657	-9601	-8016	7152	-20840	22805	-6281	-3625	-15912	-7600	22396	5326	4997	-1481	-14548	4376	12220	-296	9896	-4386	-20408	-2632	-3076	82	15128	-4980	-20088	1340	3000	6619	9250	317	0	121	1
-32768	23552	-32768	-5704	2154	-11578	-6228	6032	-17744	4726	10026	2021	-16008	-6816	17612	11362	2160	1933	-14244	3596	13304	116	14088	-5751	-20620	-2572	-2952	2863	17722	-5548	-19472	-68	2092	8747	6208	-413	164	120	1
-28436	4648	-14464	1652	15227	-2687	-6916	-1520	-21720	1458	23856	6172	-13300	-3156	7764	9115	7130	4200	-13736	4860	13608	488	19319	-6984	-21172	-1856	-1700	2126	18731	-6060	-19172	1492	2340	11890	4258	-1422	186	116	1
9720	5700	32767	-443	9964	2335	-30748	-5228	15804	-25386	17589	6721	-12272	-2216	-1968	8944	11618	3324	-12456	5280	15576	25	25156	-8204	-23496	-1784	-2048	2144	19899	-7209	-20840	4584	3648	13496	2489	-1210	240	123	1
-13220	-56	-4688	12954	32767	14968	-22540	2476	-12428	5294	13531	577	-24404	8560	5908	8239	12564	3588	-11900	7148	14116	765	32767	-11215	-25092	-4124	1312	1535	20547	-8272	-24424	6288	7644	13233	-6495	-1788	167	119	1
-3800	-7976	12836	10066	32767	-5140	-9612	2120	2520	-5289	16969	1765	-13736	3412	1176	13721	7616	2768	-11996	6380	16636	4670	32767	-13128	-27648	-5380	6432	8643	21378	-7415	-23136	4704	18196	15946	-23030	-3696	240	106	1
-32768	10460	18556	-8594	25086	5831	-32768	3224	-12648	13048	22009	5764	-24732	-11176	11000	14583	5865	-5587	-26920	10352	12400	4147	32767	-18519	-30396	3728	3292	11784	22902	-8789	-18820	912	12808	6570	-14151	-2205	56	136	1
-32768	10372	16156	4829	13293	8919	-19380	-8004	-18600	474	22099	6933	-22492	12404	-16712	5467	16548	195	-31560	13044	11716	-802	32767	-27342	-29852	11176	-2012	-4325	26580	-11223	-25632	10564	-3272	7098	-11635	2572	147	117	1
-14172	-5328	12148	3353	7536	3847	-13032	-2240	-9876	10046	16187	3217	-13248	1336	-16536	-20274	12258	-6314	-28472	19876	12204	-6702	32767	-32768	-28656	2428	-4324	-6992	23207	-12470	-25392	9980	-11764	1671	-13649	5958	175	108	1
-13264	-3504	10856	2476	4314	2556	-12632	3996	-11908	9481	12254	70	-6900	-6928	-11508	-13481	14294	-3911	-21360	23948	26360	-5533	32767	-32768	-22492	496	-1944	-8464	22730	-7525	-27756	-2928	-6024	-13116	-23791	4402	90	77	1
-12804	-2320	11076	985	3117	681	-16732	5128	-9764	-10949	7883	-105	-16764	1892	-8860	-9334	9348	-540	-32768	9992	15408	5309	32767	-22643	-17160	-2100	-24324	-17402	12408	-4589	-30236	-2896	-4236	-12056	-27027	4076	0	89	1
-12584	-2152	10876	39	2045	350	-18300	-660	-7016	-25059	5136	-2122	-17888	-3728	-3764	-9391	12035	-997	-21056	15188	20184	4448	-17302	2055	-18596	-2192	-11540	-9878	1278	-2918	-28376	-4912	-5212	-9838	-27252	6242	253	81	1
-11876	-1984	11012	-877	1786	-62	-18064	-9376	-2816	-15970	4703	-1515	-21200	-5456	-2844	-7111	13293	2411	-5188	14376	16396	1900	-27023	7977	-11200	-5688	-4256	7276	-3821	870	-27844	-3788	-6588	1001	-24493	7716	161	124	1
-11696	-3208	10416	-643	1467	13	-13432	-10436	-3008	5151	6571	783	-15836	-6248	-620	-1318	10989	2779	-4484	9968	10632	-103	-28804	7747	-9692	-3368	-6620	19039	-10525	5795	-24432	-1448	-6408	7683	-23302	8704	134	100	1
-11620	-3580	10188	1223	977	509	-13832	-8484	-4708	17619	6891	2830	-15224	-6448	-428	-321	11176	2831	-11276	6228	9416	-596	-32768	10967	-5936	-728	-8936	16358	-19362	8695	-19216	408	-6220	5437	-22186	8594	44	76	1
-12280	-4072	9908	3152	246	1449	-15620	-1400	-3908	13912	5742	2540	-14636	-3952	-1048	4019	14064	1791	-11440	4200	9692	1052	-32768	15015	-12372	1904	-12744	10323	-27705	10758	-16104	1100	-6256	-473	-20230	8037	173	152	1
-11908	-2860	10488	3363	-595	1871	-16304	120	-3928	-192	4414	1228	-16528	-776	-272	1147	15215	695	-12160	1656	9280	5749	-32768	17871	-9952	-3056	-6948	5520	-29549	10913	-15136	920	-8376	-9109	-19759	7424	93	142	1
-11900	-2536	10688	3272	-714	1939	-16036	-1608	-2608	-7004	3403	130	-16180	2388	264	-3311	14721	576	-13716	1408	9044	9587	-32768	19201	-10912	-3256	-6824	4202	-32768	13631	-13904	-344	-9280	-13739	-18415	6212	54	121	1
-11700	-1956	10900	1444	-47	1983	-14984	-4724	-1976	-7059	4121	421	-13932	928	2016	-6430	15437	603	-15128	2680	10836	10766	-32768	18632	-10948	-3108	-8316	4126	-32768	15060	-11548	-396	-8992	-14463	-16503	5028	154	147	1
-11532	-2408	10764	1176	679	2447	-14232	-6144	-2196	-2636	5078	1600	-13428	-2276	2868	-2396	16448	286	-19628	2164	11676	11678	-32768	18885	-12748	-4608	-8052	4423	-32768	16572	-8636	-660	-9180	-13518	-13472	3736	101	138	1
-11736	-2124	10576	1560	1032	2994	-14536	-4932	-2752	2080	6679	2140	-16116	-4392	-1400	-161	15488	612	-21400	3704	13108	11465	-32768	22003	-14676	-5300	-10048	2341	-32768	17798	-6220	-1456	-9016	-11465	-9232	3021	115	156	1
-11888	-2224	10660	2143	1524	3714	-15980	-2612	-4084	2452	7147	1851	-18272	-4684	-5276	-2938	13029	985	-23316	6124	14740	8250	-32768	24430	-19080	-6400	-10684	-1002	-32768	18277	-4432	-2536	-8160	-10008	-5803	1935	63	175	1
-12036	-1600	11200	2044	2480	3673	-16908	-1408	-4244	-1054	7189	1577	-18344	-3144	-3892	-282	11179	1032	-32768	1788	12564	6250	-29954	32368	-20368	-8088	-17176	-9204	-32768	17287	-5004	-4180	-6432	-9040	-3945	1868	170	225	1
-12032	-1276	11104	1647	3615	3287	-16868	-1744	-1920	-4758	7663	1604	-17444	-1856	-1064	2317	9338	1213	-32768	-2308	7412	2244	-30639	32767	-22984	-6104	-20768	-9995	-32768	13822	-6480	-2404	-564	-8596	-5019	3396	87	167	1
-12292	-1172	11044	2044	4546	3273	-14700	-5128	-1044	-3683	9044	2275	-16600	-2196	3076	2254	8185	1473	-32768	-5832	-3468	-2286	-32016	29982	-21888	-4040	-22796	-9903	-32768	9705	-10936	1900	8264	-5709	-7862	4431	72	116	1
-12196	-188	11616	1950	5461	2622	-14284	-4692	-1652	480	11711	3568	-16588	-1076	5616	574	7669	-112	-32768	-12832	-17416	-7915	-30112	21142	-16360	-6744	-22472	-11402	-31877	5710	-15436	-1064	18680	-373	-3127	3046	109	0	1
-12024	-756	12976	1423	7532	2734	-17352	-2520	-1928	-844	13306	4228	-16996	3384	4360	-864	7752	-1833	-32768	-16248	-30448	-9948	-16676	13110	-9324	-5544	-24676	-6151	-16842	3667	-18560	1292	23492	2151	4803	2566	133	66	1
-12540	388	12924	848	11555	2277	-19924	120	-4012	-6084	14165	4703	-18684	3440	1464	-2240	7618	-1526	-32768	-26900	-32768	-2439	-1342	7002	-6104	-4832	-25328	-3409	-742	2465	-16564	6236	19540	-516	3632	2096	94	121	1
-12276	888	13592	321	15739	1584	-19976	-980	-3440	-8921	14772	5549	-18880	84	-68	-7965	6667	63	-32768	-24244	-29000	5914	10056	1540	-5212	-3312	-23872	-4284	13025	-1755	-12532	3708	13908	1005	2719	-2661	83	203	1
-11196	560	14372	28	20989	854	-20036	-2000	-2728	-8616	15703	6588	-19448	-2872	-136	-10371	4150	853	-19020	-9980	17408	748	17280	-13328	-23324	-2372	5340	22244	20244	-3499	-12152	3344	6316	-880	5669	-2450	90	237	1
-11276	-352	14884	-795	27892	24	-21412	-2624	-1884	-9656	16220	7649	-20068	-4144	1492	-9499	-181	1997	-7712	14552	-764	9622	31459	-22610	-30328	-2076	988	1960	8928	2052	-22132	-1972	8052	5397	1685	-1413	150	123	1
-10040	-3264	14556	-190	32767	-1456	-23880	-3448	1884	-10506	16557	8972	-23356	-4604	6920	-6901	-6753	3137	-21264	20508	9896	-25	28891	-7986	-10852	2752	4384	2543	17726	256	-16528	-5032	11752	1553	4295	-2456	169	67	1
-8548	-2968	14704	-488	32767	-862	-24664	-3964	4320	-13742	16745	9149	-22064	-4012	18452	-11642	-18405	4395	-32768	-9312	12256	-3582	29693	-15456	-28396	6340	-10616	-12997	16725	-1734	-23096	12716	13096	-2212	9058	3075	152	111	1
-21376	-7372	11844	-2689	32767	2561	-25448	-8312	5976	-18525	17466	10637	-14840	1224	10764	-23478	-11834	4307	-32768	32680	-8076	-6033	12960	-5142	-23636	6324	-16252	-21146	18156	-8335	-21904	2348	-6036	471	15408	6005	130	53	1
-32768	-5888	9992	1297	32767	16415	-23428	-12544	-2172	-14592	22273	10583	-24468	-132	2280	-7065	-10704	-1384	-17228	7048	8612	-2344	6095	-3354	-13644	-3308	-9900	-22553	14028	-3760	-14848	1664	-14300	5526	16097	3222	108	155	1
-32768	-12808	11184	2250	32767	19155	-28444	-4760	-6020	-9709	22058	9292	-24776	-9040	-13264	-17781	-10839	-6523	-17136	9056	7792	-1785	4612	-3371	-15088	-10388	-12288	-7544	11678	-12	-10564	692	-9592	5132	12712	82	235	107	1
-29924	-10976	20456	-2597	32767	22500	-26648	-2240	-3516	-14978	19483	6706	-30516	900	-8376	1608	-19154	-6374	-13460	3028	10632	1160	-1172	-232	-16572	-7072	-9300	15171	11923	1358	-15424	2060	-6676	-1674	12126	-97	182	119	1
-3320	-7164	21884	-12298	32767	21795	-20428	-3764	-8176	-10558	9735	2607	-28308	2884	-1940	8106	-23565	-5828	-12784	4964	10016	1976	-521	539	-18576	-564	-6160	20258	10575	2547	-17768	3844	-4064	-281	14031	-967	192	81	1
-32768	-10224	22052	-10646	3471	3890	-10892	-1072	-23788	9728	9670	1655	-26904	3716	-3952	5736	-23346	-7381	-12536	4620	10248	2157	84	392	-17448	4748	-3768	12124	7500	2406	-17932	2912	-2104	-416	12795	-3376	194	112	1
-11916	-11344	21980	-3228	-24409	-4382	-14072	1348	-4744	-5757	2954	-3439	-26432	3372	-6452	1598	-22263	-8724	-12516	4480	10272	2302	53	434	-16020	5208	-2376	-5060	5115	497	-15884	3644	-368	-1882	11286	-3279	0	143	1
-4792	-5656	14136	-1204	-30106	-7864	-12364	1676	-4104	-5493	-6196	-5374	-24492	2120	-8232	-5043	-19784	-8923	-12484	5488	9844	2021	474	294	-16948	1228	-3536	-10157	4107	-896	-14716	3992	172	-2548	11222	-2266	2	136	1
-5084	-2440	10964	-1232	-32768	-11548	-7348	-244	-8784	3796	-11895	-8821	-20840	1136	-9116	-5396	-18781	-8536	-12516	5908	9324	1603	532	150	-16664	-1500	-4060	-3269	4183	-567	-15840	4024	276	-1486	12642	-1237	115	110	1
-8076	-1448	10268	-951	-32768	-14000	-5188	1240	-6072	15488	-18436	-11684	-16544	-448	-8828	-5263	-17210	-8583	-12260	5812	9572	1232	466	-369	-16248	-1224	-3640	6976	4709	942	-15852	1860	532	782	14081	-498	112	109	1
-10272	-732	11676	565	-32768	-14279	-6924	2128	-8384	21245	-24650	-12653	-13668	-1920	-8576	-588	-15488	-8136	-12352	5336	9648	1684	318	-960	-16472	1680	-2484	10211	5271	884	-15344	160	592	4074	14759	-584	171	139	1
-14544	1720	11108	-162	-32768	-13344	-9560	4824	-8224	18104	-29842	-12481	-11732	-1776	-8792	4093	-14489	-6659	-12268	5592	9372	1341	436	-1471	-16028	3324	-2008	5795	5295	156	-15268	192	792	4808	14859	-628	157	137	1
-15940	2928	10240	-4208	-32768	-12282	-12572	4936	-8804	14589	-32768	-11999	-10596	-524	-9036	11997	-14288	-4741	-12220	5004	9748	64	671	-1944	-15912	3164	-2348	-1609	4808	-882	-14208	2712	2004	10760	17408	-1559	145	122	1
-17376	3128	10844	-9118	-32768	-11340	-12392	4536	-9572	8899	-32768	-13139	-8968	1476	-9276	16159	-13610	-2578	-12508	5276	9568	-555	991	-2044	-16284	-84	-3176	-2614	5011	-1503	-15648	3008	2316	10899	18438	-1762	160	121	1
-21844	2196	12084	-13625	-32768	-10051	-12912	3504	-10524	2122	-32768	-15277	-7096	2676	-8404	16996	-11402	-798	-12704	5028	9660	-422	978	-2025	-16444	-980	-4012	2194	5474	-916	-16736	2888	-20	9865	17111	-1166	132	113	1
-26152	100	12664	-16012	-32768	-9952	-15388	2848	-10344	-2154	-32768	-17700	-6236	2736	-7316	14849	-9331	159	-12608	5156	9900	-365	949	-2243	-16680	432	-3424	5387	6164	-737	-16136	2724	-3104	7442	15423	-810	154	128	1
-29876	-2972	13812	-15624	-32768	-12738	-17712	2052	-11212	-1283	-32768	-19691	-5504	3612	-5312	8984	-5580	450	-13032	4756	9788	-74	887	-2296	-16520	780	-3456	3735	6638	-1113	-16296	2716	-5100	3070	13237	-938	142	130	1
-32768	-2876	13912	-12893	-32768	-17555	-20996	2616	-12380	3194	-32768	-22153	-5156	4688	-3016	4288	-2215	190	-12844	4280	10120	-224	1463	-1679	-16596	232	-2880	790	6643	-1832	-16856	3372	-2796	-487	11174	-1363	126	131	1
-32768	3900	11344	-11815	-32768	-24095	-24392	-112	-14284	3295	-32768	-20845	-7268	3952	3452	2512	-2978	-698	-13000	4508	9968	-151	2312	-1173	-16780	920	-1400	-971	7479	-2638	-17680	4712	728	-440	10005	-1376	113	137	1
-32768	6216	1256	-10296	-32768	-24846	-23112	-4500	-13700	3421	-32768	-15886	-14956	108	11136	1025	-7950	-2862	-12884	5408	9964	-177	3136	-1237	-16564	2328	224	-1630	9670	-3589	-18092	5052	4096	-425	8443	-873	118	141	1
-32768	-964	-16744	3374	-31326	-17189	-15908	-2284	-14780	22025	-25799	-9081	-21324	-4332	24120	-2828	-12601	-5841	-13136	5564	10188	348	4035	-2344	-16508	3340	-252	-2471	12621	-4426	-17848	4448	6660	321	7536	237	53	124	1
-32768	10648	-32616	16271	-19759	-7385	-13108	-1040	-19724	27382	-23170	-8403	-17588	-12368	23688	-498	5408	-3335	-13028	8432	12980	-199	6671	-3455	-18564	-16	-776	-1283	14662	-4984	-18140	1868	6080	4622	6674	901	3	117	1
-32768	32767	-32768	-3529	-1662	-8416	-8060	9324	-16960	7827	5947	191	-18908	-9580	21472	9199	648	2085	-11172	8220	14388	-1249	7333	-4364	-19952	-208	-4088	-487	17001	-5680	-18868	-72	3952	8583	5352	751	205	108	1
-32768	11016	-26172	-5734	14942	-603	-8136	1728	-18880	556	20068	5500	-13816	-2796	12316	8589	3885	4728	-13976	5576	13476	-1002	15338	-8573	-21368	-2184	-3596	162	17678	-6073	-19132	1116	1356	12074	3465	-425	210	122	1
20400	-8088	32767	4157	21875	13206	-12436	-3628	-14440	-12723	29091	9056	-12092	-2108	-204	7725	7100	4374	-12848	4876	14492	-848	21021	-10330	-21592	-4848	-2800	2552	19193	-6067	-19356	3132	1208	14631	1879	-1014	232	122	1
32767	-32768	23356	-283	11046	14422	-32768	-6404	32767	-20627	5833	-1378	-12544	4600	-5976	3676	13959	4188	-10452	4564	16212	137	28825	-10381	-25272	-3696	396	4734	20390	-7170	-22856	3904	4252	11713	-1974	-1780	171	118	1
-32768	-1880	1720	10049	28295	6573	-7208	-4724	-13936	3431	11187	-743	-21928	13268	4656	3359	10789	4747	-11464	6884	14604	2090	32767	-12752	-25408	-4584	2412	2929	21273	-7632	-23576	2736	15128	8595	-15675	-3308	163	106	1
-12680	-900	13140	15682	31553	927	-17320	-6856	-5532	-9468	16100	-141	-14488	-9692	2560	16348	7261	-1751	-13876	10336	14948	4090	32767	-14912	-27868	-656	8904	5642	22171	-7624	-17216	1512	17380	10474	-18631	-3299	191	105	1
-29700	22296	13936	-2642	24490	4841	-27732	-144	-7960	16445	16099	5299	-23032	-9888	11580	9990	7994	-6890	-32768	9748	8204	4844	32767	-21882	-27508	5304	-1852	2785	24941	-7427	-17724	-844	6556	10015	-10122	-2365	1	125	1
-25660	-11548	6924	5401	13743	7838	-19816	-5156	-18868	10315	19347	6940	-23568	18232	-9592	2153	14563	49	-28528	10268	12716	3981	32767	-27493	-31432	8240	-6208	-4304	26354	-9276	-23656	12244	-8284	10435	-12449	1898	113	108	1
-13680	-4004	11220	2136	5404	3263	-13888	2476	-9612	12693	14583	1715	-15468	92	-13640	-18387	13641	-3020	-32768	17836	14648	1587	32767	-30106	-28044	1884	-2384	928	23787	-8752	-27312	10856	-9996	5410	-15532	6213	163	89	1
-13796	-3708	10532	1275	2849	1389	-17668	5264	-10424	3808	11603	54	-9664	-6172	-11308	-11401	15250	-4260	-22284	22096	27520	6385	32767	-30464	-22568	2908	-7436	-4998	23657	-6959	-30220	2292	-6480	-12997	-24223	5612	121	102	1
-12540	-2508	11060	-11	2550	-524	-14600	1656	-7924	-15597	6719	-508	-16100	-1316	-8044	-10831	11075	-719	-32768	26192	14300	2253	16651	-12044	-17032	412	-27000	-14929	11562	-6631	-30748	1012	-5532	-16936	-28777	5886	150	125	1
-12068	-2736	10772	-435	2064	-421	-16168	-5280	-6384	-18200	4530	-1675	-15984	-4756	-4344	-5882	11694	-439	-32768	21932	13104	-589	3743	-9675	-15964	-192	-8016	-7297	310	-4380	-29892	-1616	-5776	-14162	-28452	7906	253	134	1
-11916	-2924	10728	-731	1412	-193	-16492	-9372	-4044	-9364	4340	-892	-18420	-6996	-4204	-1565	13942	1799	-2860	8380	14960	-7375	-27674	5902	-9744	-2196	-6124	2782	-5769	-2084	-27200	-528	-5660	-1172	-25098	9354	138	89	1
-11848	-2764	10512	-492	1060	-213	-14336	-8260	-2912	6440	5514	752	-16748	-4612	-1580	2417	11923	2635	-8744	6372	10072	-3950	-31873	5602	-8868	-1464	-9480	8275	-14777	1057	-22924	800	-5948	4357	-22873	9681	77	92	1
-11796	-3224	10380	18	858	20	-15340	-4856	-3032	11281	6068	1138	-22160	1200	-224	2696	4446	5512	-12968	6460	9772	-2744	-32768	8415	-5176	1424	-7544	4317	-27656	-819	-17560	-888	-6620	2527	-19816	7124	13	144	1
-11768	-3300	10336	444	927	285	-16128	-1504	-3260	811	4000	308	-10064	-1864	-1552	-7994	16088	6418	-9828	6104	7704	-838	-32768	9232	-12136	1884	-7116	-3635	-32768	-7027	-16628	1368	-6940	-7583	-21763	10834	202	179	1
-11768	-3200	10208	392	992	594	-15228	-3660	-3156	-5818	3075	105	-23936	96	5228	-4422	9705	-245	-9704	3104	5816	3029	-32768	9845	-11328	-6072	-6624	3737	-28174	10830	-14096	-1852	-9240	-12809	-15873	5090	89	139	1
-11808	-2644	10368	-49	1115	822	-16016	-4592	-1988	-8301	3031	-72	-22124	4712	9396	-7793	8019	1726	-10056	3492	7288	7436	-32768	12250	-7956	-2880	-8276	5453	-32768	8222	-14088	-1304	-8848	-14220	-15367	4684	1	136	1
-11676	-2688	10332	-240	1251	953	-15700	-5992	-2496	-6993	3353	642	-17548	-188	6228	-420	16853	-4044	-14276	5056	8936	10036	-32768	15754	-8996	-3120	-9028	10501	-32768	11685	-9932	-736	-8616	-17771	-15179	3902	142	148	1
-17680	-16168	18132	-2607	7236	3963	-14912	-9232	252	-3957	3362	60	-16556	-1448	824	2357	15008	-4308	-18284	4844	9648	10673	-32768	18712	-11520	-2388	-8232	12727	-32768	14474	-7112	-1892	-8480	-16511	-13198	2050	145	148	1
-11872	-1636	9868	-480	1291	2004	-14816	-3156	-1424	-74	3707	4457	-18360	-3916	-3656	-7206	10136	-1457	-17564	5100	11108	12211	-32768	21389	-12912	-2008	-9752	8004	-32768	17637	-4580	-2960	-8112	-12329	-8351	1017	79	172	1
-11512	-3596	10444	2914	1505	1980	-16436	-2604	-3300	445	6321	1781	-17348	-5144	-2512	-7240	8736	201	-23316	3980	13700	15039	-31908	22911	-17000	-4132	-11012	4307	-32768	19744	-4228	-2664	-7276	-8397	-3400	628	40	196	1
-12212	-2044	10240	2243	1683	747	-16064	-3308	-2700	-2219	6066	2281	-16984	-4800	-1668	-1222	8215	120	-32768	6060	8916	17219	-29834	29212	-18280	-4920	-18256	-3979	-32768	20111	-5712	-5644	-5308	-3461	-1043	310	143	176	1
-11792	-2860	10460	1677	1786	773	-15316	-5316	-1248	-2131	7045	2438	-16604	-4732	404	1242	8025	608	-32768	-2648	5036	14546	-24280	31228	-21724	-4548	-21556	-4958	-32768	18739	-6744	-3688	1088	-2212	-1706	1751	126	116	1
-12348	-2576	10564	-74	1492	871	-16112	-5916	-64	-829	9558	3634	-17560	-4140	2976	1265	6581	914	-32768	-8472	-2248	17479	-18579	32767	-22676	-8424	-25368	-2074	-32768	14048	-11052	2064	8044	1822	-4686	2953	99	102	1
-12584	-2280	11220	448	2010	468	-15160	-6184	-276	2331	11910	4719	-17480	-2264	5012	1445	6404	-271	-32768	-8456	-13572	10852	-18480	30864	-17536	-6956	-25864	9911	-28972	10898	-17736	2512	18708	10391	-5170	3830	108	0	1
-12424	-2844	11796	2180	3571	185	-16868	-4448	-1064	5009	12980	5363	-17488	1204	4576	-244	6440	-1516	-32768	-10908	-26968	-3571	-12378	19055	-10800	2268	-21540	9946	-14950	7973	-22772	4548	20320	18074	1985	7174	136	84	1
-11868	-1812	13252	410	5890	306	-17968	-1912	-2604	422	13186	5126	-16376	2036	2068	-2570	7636	-866	-32768	-21640	-32768	-6671	-1124	6351	-7124	88	-21444	-5955	752	3950	-16000	9248	18768	13427	5019	6643	99	93	1
-9160	-8200	17544	1976	11707	1678	-18556	-4072	-2828	-5792	13861	4924	-17476	-1344	-308	-6648	7158	-170	-32768	-23276	-28044	-488	11477	743	-7896	-4488	-22612	-14059	13685	-2772	-11700	12556	14944	6756	6191	1598	116	148	1
-11804	-956	14376	913	17171	2683	-20044	-3456	-3260	-6844	15539	5756	-22080	-4164	-1220	-6218	3092	-448	-32768	-13764	-18672	-2569	20857	-4570	-9492	-8316	-24216	-15361	24665	-6931	-8680	11600	7048	-8515	7599	2116	99	238	1
-11508	-1352	14532	155	23051	2085	-20280	-1872	-716	-7579	17280	6677	-19072	-3568	2616	-5652	-1233	974	3392	32767	32767	-16116	1213	-9085	-32768	-2028	32767	32767	14688	-4378	-5368	14052	-7880	-6798	14837	1835	102	161	1
-10756	-3764	16184	-1096	30275	1676	-21964	-4400	-500	-7823	18311	7599	-20524	-2916	7572	-5559	-5081	2809	9424	-14532	-8460	-9084	32767	-26843	-3500	25520	-17320	-20414	10856	2300	-19252	1252	-14504	-6362	28879	1159	84	135	1
-10672	-3976	15000	-1972	32767	2172	-24156	-4448	2848	-7382	19714	8313	-23676	-2332	15768	-1412	-13851	2423	-15012	20296	6188	-13116	17298	-11240	-9464	-1264	7100	-28161	13689	-6373	-27272	208	17952	-30925	-5291	2166	149	104	1
-9300	-3920	14640	-2783	32767	3574	-24836	-880	7372	-14332	20507	8593	-17912	2196	19324	-15583	-18896	3561	-32768	-8764	13164	-11721	27460	-12553	-30772	-9388	-12468	-32768	11351	-7963	-25092	7584	31384	-21528	3826	2427	165	109	1
-24844	-956	11224	-3973	32767	7027	-23220	-1492	2252	-15867	21014	9589	-14348	9120	9900	-6456	-8731	2752	-32768	15096	3160	-8148	14852	-8638	-16780	-7032	-13968	-24344	14080	-7346	-22828	-16888	-2576	-15633	22035	-798	208	45	1
-32768	-12968	8344	-5491	32767	7460	-21952	-5892	-11288	-16503	23690	9812	-22812	-2812	-13100	-22038	-6191	-2998	-14392	4740	10588	-3093	6442	-5036	-17048	-4976	-8176	-13630	13038	-627	-12368	-8648	-13436	8410	17789	-339	85	146	1
-32768	-13644	9832	-4025	32767	10337	-30532	-5072	-3660	-22070	22805	4672	-32768	-960	-9268	-9670	-16817	-6299	-15112	5368	9516	-847	313	-3086	-14868	-1840	-9472	1710	15764	1311	-7812	4960	-11812	21988	10833	-170	131	84	1
-8704	-3204	32767	-6542	32767	19737	-24344	-3956	-7500	-6068	15114	3376	-27692	-1440	-412	2443	-24718	-3591	-13724	4108	9792	-570	-1915	-2848	-16504	-2980	-8788	11200	11864	1538	-14804	8848	-2004	5648	10853	7667	150	120	1
-32768	-1652	32767	-6625	-1104	1283	-18060	248	-16772	9826	9690	3931	-29256	-3772	-4956	3361	-22521	-5169	-12796	4248	10072	49	-860	-1903	-18312	-656	-6740	16006	10380	1196	-17508	7256	-6944	9414	14620	5430	191	32	1
712	-8804	28572	-7722	-20857	-1364	-15472	-1040	624	-5710	1574	1657	-28420	768	-7252	407	-21736	-6184	-12652	4740	10072	162	-286	-1762	-17332	4104	-3392	8369	7884	40	-20384	4108	-2764	5787	11097	-2036	162	140	1
-4068	-5940	19212	-7154	-19629	-3001	-13896	-2220	-3280	11	-9525	-3429	-25628	-1212	-8080	-133	-20789	-4944	-12484	3404	10524	240	517	-1604	-15452	2364	-2208	-5794	6352	-142	-16352	3888	1908	1833	10876	-4724	0	157	1
-11324	-7600	15332	-2494	-28747	-7664	-8532	-152	-11164	9961	-15683	-6186	-21184	-1316	-8292	-3946	-19901	-4870	-12640	3668	10520	224	628	-1558	-16500	60	-4532	-10808	5379	-638	-13480	3148	656	-817	9748	-3310	68	154	1
-9440	-5160	14240	3685	-32768	-9579	-7108	1912	-7440	10194	-22723	-8147	-15228	-3376	-7200	-1394	-18307	-4971	-12668	4696	9656	71	338	-958	-16568	-2396	-4900	-5869	4901	-469	-15780	3764	-476	367	10103	-1958	99	131	1
-10668	-2036	12496	5590	-32768	-8988	-10660	-772	-7788	10295	-30087	-7446	-13144	-3128	-7804	506	-15214	-4840	-12640	4708	9596	-237	-14	-796	-15184	-1088	-4584	4489	5315	-8	-15484	3016	-652	2560	13320	-2464	151	97	1
-14520	-348	10728	3524	-32768	-7750	-11104	2008	-9056	12916	-32768	-7115	-11792	-2316	-10060	4894	-13907	-3905	-12796	4452	9844	-240	-144	-951	-16432	1664	-3348	6685	5546	408	-15920	1592	-1688	1888	13970	-1604	172	119	1
-17392	-544	10948	-1868	-32768	-6638	-10624	2324	-9524	9649	-32768	-7652	-9512	-1564	-10336	10435	-14002	-2919	-12936	3744	10180	-322	83	-1083	-16292	928	-3452	4120	5770	67	-15580	920	-152	3651	13502	-1585	167	123	1
-20972	-1940	11256	-7340	-32768	-6784	-10860	1820	-10944	3986	-32768	-9749	-7332	-120	-9188	15538	-13594	-1776	-12800	3820	10096	-627	1226	-833	-15884	816	-3552	375	5709	-342	-15224	1884	64	6329	15828	-1867	167	118	1
-25180	-3612	11352	-11832	-32768	-8286	-13412	1732	-11556	-1530	-32768	-12492	-6640	792	-8948	17320	-12377	-599	-12976	4088	10004	-629	2043	-701	-16040	732	-4308	-1576	5864	-774	-14936	2644	-240	7539	17810	-1835	130	131	1
-26092	-4180	11400	-12517	-32768	-8705	-15972	36	-12356	-3953	-32768	-15095	-6656	2880	-7848	14691	-10836	543	-13040	4492	9848	-401	2405	-1024	-16596	-476	-4936	739	6060	-379	-15236	3108	-176	7046	18773	-1751	127	129	1
-32228	-14888	10576	-7953	-32768	-12343	-18516	-1528	-11724	-1946	-32768	-18690	-6388	5160	-5876	8376	-7162	1312	-12864	3828	9916	99	2616	-1328	-16540	-816	-4540	4649	6700	-139	-16480	2728	-840	3695	17785	-1503	132	136	1
-32768	-16500	7952	2502	-32768	-14625	-21036	-1924	-10548	9338	-32768	-22086	-6740	5748	-1744	4374	-3760	941	-13284	3412	10304	673	3051	-1324	-16524	544	-2400	6003	7932	-584	-16204	2912	-1136	87	15137	-1411	77	142	1
-32768	3620	4904	-599	-32768	-25448	-22884	-5020	-15944	16823	-32768	-18327	-9852	2328	6508	8112	-7001	-1559	-13052	4080	10168	771	3942	-1458	-16200	2312	-1036	2214	9713	-1616	-17876	4520	1148	-922	12358	-1257	114	130	1
-32768	-568	-7928	-7542	-32768	-30288	-21116	-1016	-16336	19021	-32518	-11279	-15788	-1944	13100	7675	-9809	-4627	-13312	4428	10296	866	4783	-1737	-16572	2944	-1448	-1953	11517	-2878	-18080	5224	5972	1409	9320	166	137	123	1
-32768	-864	-21644	4363	-21967	-22368	-11124	-1392	-23776	23228	-20503	-8062	-19648	-3712	23648	4788	-6934	-7122	-12712	5620	13832	-48	6526	-3086	-18940	1740	-652	-2008	12938	-3706	-17396	3920	5432	5306	8489	677	75	130	1
-32768	14532	-32768	10250	-10582	-10771	-7728	5848	-21736	14192	-6532	-6513	-16164	-8808	21308	3258	2769	-4039	-13628	4344	12876	209	9895	-4338	-19920	-1536	-2856	245	15651	-4180	-19804	2492	2240	6433	7482	-80	89	120	1
-32768	21756	-32768	-3779	3295	-3969	-4916	4228	-17784	-2644	10360	-837	-15864	-5108	15796	1468	2232	-507	-14240	4152	13216	513	13890	-5484	-20696	-1120	-2212	2511	18100	-4825	-20040	3020	2472	9299	4653	-136	148	111	1
-32768	9720	-22316	-3326	14755	6203	-8332	-524	-21932	-3447	22678	4204	-12376	-3932	7228	5	5909	2891	-13864	5628	13540	680	18891	-7194	-21380	-1328	-1988	2309	19809	-5263	-19908	2104	2956	12204	2457	-64	120	117	1
-14732	-7920	32767	12032	19732	15233	-30304	-1468	18380	-30940	17630	4384	-8760	-4560	-3788	1004	11904	2696	-12296	4612	15584	1242	25187	-8287	-23376	-3556	-2828	2889	21173	-5844	-20328	2092	5588	14149	-2516	-1164	176	118	1
25492	-14468	-4204	13658	32767	19951	-29540	-980	2940	2163	11236	-2093	-23196	5296	1088	512	12786	5189	-11892	6024	14608	1587	32767	-10062	-25652	-5340	132	3743	21797	-6603	-23696	2404	9692	15330	-9206	-1817	241	110	1
-18028	-14848	12072	12154	31176	-6373	-5252	1104	440	5816	17111	1476	-20120	-188	7608	19813	4948	537	-10168	7112	17396	5230	32767	-11240	-28560	-7424	7948	10953	22928	-6032	-21552	-1492	17244	15493	-20285	-3575	253	103	1
-32768	32767	16796	2288	32161	4767	-27908	-2536	-8784	17982	20114	2173	-23784	-17620	14756	27888	3007	-7066	-26024	8252	13716	5787	32767	-16385	-29392	-312	2516	14189	24716	-5370	-18556	-6008	12204	13226	-13607	-2535	131	137	1
-13196	-32768	3124	5533	11679	3332	-22996	-2072	-18516	18197	22408	9977	-25352	19892	-8796	16401	15420	453	-29880	12084	12824	7287	32767	-20911	-32600	11272	-4040	2571	27383	-7648	-24296	9388	-4824	16840	-13729	2445	54	119	1
-14436	-6696	10184	1642	8053	3747	-14772	3564	-9680	14157	17449	2068	-17504	7864	-18024	-12273	13688	-1866	-32768	16796	11492	1963	32767	-30979	-28760	2964	-6956	-2842	22160	-8283	-26176	12348	-11692	11587	-15397	7286	150	94	1
-14884	-3820	10164	1240	4309	1816	-15332	4756	-12592	8421	13380	-1522	-6288	-2920	-11836	-13635	13732	-4880	-21420	21528	26512	803	32767	-32768	-24500	3476	764	-2056	22292	-6378	-31620	2620	-4324	-6990	-25725	6010	253	66	1
-13520	-1328	11060	425	2776	-57	-15092	5292	-9924	-14238	8292	-1213	-14244	-2424	-9132	-12344	10380	-4255	-32768	13744	14432	6154	32767	-29610	-16004	480	-25852	-14467	11748	-2621	-32520	1692	-6028	-9667	-27002	5619	149	104	1
-13196	-1832	11108	235	2644	-308	-17464	-2968	-6668	-22647	5210	-2198	-16772	-4316	-4696	-6469	12738	-2304	-25116	14400	15664	547	-16520	-5472	-16572	-1016	-14648	-13057	78	-3199	-29172	-1528	-5504	-9583	-28076	8013	253	101	1
-12064	-1936	10948	-1123	1709	-766	-17884	-6256	-4408	-18922	4364	-2342	-20436	-5164	-3940	-4739	13578	2034	-6724	10676	16920	-792	-31356	6145	-16032	-1492	-12548	-11592	-1436	-2567	-27668	-1140	-6936	-413	-25078	9243	118	146	1
-11884	-2552	10768	-1398	1551	-1079	-14388	-10424	-2768	1966	5833	-158	-16468	-3912	-1696	-243	11620	2452	-2432	6068	11160	943	-31483	9846	-9452	-5000	-8192	17283	-13529	3857	-22820	988	-6584	5755	-22561	8932	98	115	1
-11756	-3240	10364	-771	1347	-891	-13576	-7680	-4160	16392	6994	839	-13156	-3240	-972	3970	14235	1190	-9604	4776	10104	668	-32768	13722	12600	-27652	188	27912	-2930	16979	-16760	1784	-6616	2845	-20297	8410	0	141	1
-11604	-3856	10208	109	1306	-316	-15780	-204	-3836	13162	4263	1365	-10324	-2992	-1272	1353	14606	1370	-12120	4652	9936	-40	-32768	16004	-5540	2276	-7172	6619	-31792	3885	-16468	4400	-6616	-5172	-19402	10174	202	127	1
-11624	-3424	10228	316	1224	250	-16908	1060	-4356	-4501	3539	-941	-19268	-684	1424	-2367	15877	-664	-14648	2384	9204	1076	-32768	16384	-7772	-2004	-7040	4994	-32228	8664	-12756	1780	-8420	-10654	-15475	6805	4	114	1
-11772	-2568	10472	65	1455	256	-15616	-1956	-2784	-13970	2634	-1446	-15800	256	136	-8140	17229	-1435	-16456	1264	7928	5934	-32768	16961	-10372	-1884	-6492	2466	-32768	8572	-10992	872	-10116	-19502	-14839	6319	243	153	1
-11780	-2564	10384	-364	1581	219	-14652	-5616	-2040	-13084	3297	-1027	-13492	-204	2304	-7105	15559	-583	-17576	4580	7432	9809	-32768	17957	-10148	-2136	-8824	1946	-32768	9982	-8976	-884	-10172	-23090	-12918	4584	121	155	1
-11704	-3324	10052	-12	1591	735	-13160	-7872	-1624	-5739	4666	379	-14740	-2048	720	-3832	12511	-636	-20940	6852	7584	11112	-32768	18244	-11524	-1872	-8308	6529	-32768	12349	-6360	-2560	-9412	-22416	-11005	2626	25	157	1
-11816	-3124	10004	657	1667	1395	-14404	-6540	-2672	2629	6123	1384	-16932	-5876	-1624	-3946	11744	-1312	-23972	9096	6432	12009	-32768	21313	-11924	-2196	-8332	7021	-32768	12980	-4652	-4296	-8888	-17683	-6603	1192	65	191	1
-11860	-2920	10444	891	2201	1916	-16828	-2748	-3508	2654	6465	1449	-18836	-5384	-2456	-5153	11692	-2020	-24460	11076	7436	10265	-32768	24869	-18496	-3796	-12384	4002	-32768	20032	-3964	-6212	-6448	-11571	-2816	-837	140	191	1
-12316	-2192	10492	617	3307	1477	-16744	-1384	-3016	-2661	6170	1222	-18452	-2152	-2760	-987	9369	-1149	-32768	7704	5476	10969	-27554	29929	-21856	-4284	-17080	-2906	-32768	23201	-5176	-9992	-3452	-6755	250	-1787	83	139	1
-12564	-2492	10288	491	3339	1315	-15448	-3552	-1412	-5143	7066	1487	-16556	-2072	216	1055	7601	8	-32768	-4924	4420	14358	-23926	32767	-23892	-2752	-22116	-3913	-32768	21326	-8588	-5796	5364	-5073	-4186	484	87	109	1
-12504	-2348	10440	913	3434	824	-15560	-5668	-424	-2068	8940	2553	-16796	-3268	4072	86	7562	19	-32768	-9260	-4124	22528	-18885	32767	-23876	-8284	-24532	1103	-32768	15925	-13616	2168	10912	2470	-7367	3592	103	104	1
-12780	-2344	10608	1375	3411	424	-15360	-6920	-228	3182	11461	3854	-16520	-2540	6424	-677	8718	-597	-32768	-10488	-15620	14239	-20543	29319	-14740	-4104	-24248	14529	-27508	14122	-20304	1148	19648	18775	-6010	5183	126	31	1
-12192	-2392	11992	385	4219	191	-16240	-4948	-2160	5405	13650	4687	-16956	-316	4004	-1235	8575	-1302	-32768	-14264	-29616	-1891	-14111	8593	-10484	1440	-19892	13181	-11461	10490	-22776	6544	19396	27491	1039	10802	117	58	1
-11672	-3684	13536	-2348	7769	211	-18556	-1376	-2252	411	14307	4602	-18228	-868	580	-2438	8036	-1069	-32768	-29512	-32768	978	-3191	-2839	-5544	-3628	-21528	-90	4082	5268	-14708	13092	19012	22140	5081	10016	105	93	1
-13292	-4320	12432	174	12773	909	-20120	-2312	-2956	-5690	14843	4430	-20100	-2600	-220	-6053	6103	-631	-32768	-23788	-27284	9632	11039	-2277	-7960	-7532	-23016	-8322	17453	-3351	-13156	14256	17764	20535	5743	8550	98	174	1
-12332	-1168	13496	125	17771	42	-19656	-1040	-2252	-8990	16110	5351	-19432	-2400	164	-6975	2788	382	-13348	664	32767	-23752	2767	-23240	-32488	-2020	22796	23963	16894	-3050	-8928	12280	76	-4296	10282	-287	87	238	1
-10804	104	15212	-363	24271	-1892	-20912	-960	-1268	-9384	16914	6625	-19564	-1740	2476	-6320	-342	1561	-5692	-5332	2920	-15413	26994	-23855	-18716	9460	1484	-15929	9369	1083	-17780	9540	-2072	-9691	17400	1597	126	174	1
-8440	-452	15736	-1337	32767	-5813	-24484	624	2848	-7981	17711	8235	-23492	196	6696	-4301	-5573	3351	-18404	1428	14948	-10147	22372	-12623	-11972	-7160	4148	-30932	13456	-7952	-23568	8160	7848	-18626	3725	4362	92	125	1
-7268	-816	15708	-2052	32767	-9932	-25832	2576	7328	-10898	18359	8872	-22620	2560	16264	-2314	-17156	5737	-32768	-2168	11636	-9761	24612	-14999	-29832	-7976	-10040	-32568	15047	-9193	-25228	10716	26972	-28280	-5369	-462	153	135	1
-13456	-5180	13768	-4922	32767	-11793	-25488	-1072	6872	-17797	17977	9517	-18376	7980	20688	-8501	-18967	5218	-32768	3868	5328	-9094	10319	-9669	-18996	-3268	-13228	-20392	15865	-6356	-20612	-14436	-7952	-24862	23004	-5719	185	95	1
-32768	-9856	4948	-2051	32767	-2341	-22532	-12044	-7812	-12864	21006	11766	-16180	2860	6816	-13094	-7897	1618	-15288	5612	9944	-4098	5403	-5575	-14628	-1048	-5636	-17428	14211	-1788	-16624	-13592	-14160	-14585	19638	-1482	171	137	1
-27800	-10836	18440	646	32767	4915	-30040	-3012	-7152	-7609	23334	10375	-30064	-7992	-16160	-27325	-5528	-3677	-15652	3412	9984	-1572	636	-3333	-15860	-2528	-10216	-8990	13298	103	-6292	-728	-11008	13345	8745	2115	47	75	1
-20872	-9040	23512	-1152	32767	8173	-30332	-4328	3412	-11155	15198	9869	-30340	-2432	-9720	-11907	-20059	-3079	-13896	3280	10180	-907	-1238	-2511	-16084	-5600	-9104	5910	12182	605	-13128	2040	-3256	8076	9256	6018	132	74	1
-13400	-7140	32767	-14861	32767	9193	-18884	-6004	-7348	-7551	9387	4757	-26880	-3440	-3692	5634	-24862	-1884	-13252	3196	10676	200	-716	-900	-18156	-4096	-6796	17718	10300	2561	-17080	5612	-6036	12105	15908	6246	211	98	1
-32768	-10900	26988	-13952	-8117	6411	-9452	-3432	-23120	14272	9237	5890	-25320	-4264	-3644	7840	-25897	-5596	-12412	3708	10272	846	237	169	-18200	312	-5344	18476	8053	2390	-20704	3900	-3860	10991	12522	-565	191	156	1
-6460	-7520	24340	-11101	-32768	8885	-10400	-1668	-18508	12065	9884	5615	-26076	-1040	-7788	4523	-22025	-6412	-12520	3928	10436	1298	560	350	-15280	5396	-1824	9452	7447	1719	-17384	4248	500	5912	12074	-3418	54	143	1
-996	-4640	13060	-14908	-32768	9889	-12628	-3992	-2948	-4070	-11047	291	-25128	2896	-8008	-4303	-20045	-4414	-12168	4444	10076	1953	989	228	-15848	7164	-1852	-6860	6001	144	-13284	6076	244	3767	12193	-2586	13	118	1
-8656	-11684	9712	-10616	-32768	6789	-11596	-4124	-4460	-1367	-12487	-403	-19788	-1384	-10064	-2668	-19180	-4199	-12348	4868	9536	1399	1143	-341	-17012	2620	-3664	-14372	4156	-1370	-14000	6584	316	574	10445	-1835	93	144	1
-9376	-12996	9972	2085	-32768	3145	-5212	648	-7996	6135	-24639	-7274	-14472	-3644	-6872	-1967	-18137	-4540	-12496	5676	9272	669	1028	-674	-15976	-2876	-3872	-4377	4411	-301	-15016	5108	1240	2311	14142	-497	127	113	1
-12584	-7264	9200	7602	-32768	-309	-8496	212	-8936	4221	-30089	-7860	-12280	-3868	-7984	4331	-15157	-4097	-12500	4828	9652	745	820	-881	-15596	-732	-3376	8276	5818	609	-15736	2060	1108	3270	12687	-773	135	102	1
-14612	-3024	7844	2400	-32768	-4261	-11504	988	-9420	2675	-32768	-6976	-11340	-2768	-10024	10522	-14201	-3883	-12612	4520	10012	1079	595	-1225	-16940	2408	-2040	12650	7057	926	-15512	2184	796	5724	13330	-994	145	109	1
-16228	-4152	7396	-3869	-32768	-7301	-10684	392	-9116	2136	-32768	-9646	-10572	-1060	-10308	17062	-13649	-2641	-12564	4520	10056	1002	829	-1330	-16184	4940	-1480	6051	7327	-198	-15180	3764	1964	8437	14688	-1561	150	115	1
-19748	-6560	9044	-5692	-32768	-7741	-10344	-72	-11228	1924	-32768	-12604	-8632	1132	-8396	19497	-12654	-1381	-12448	4944	9832	-212	1178	-1547	-15940	4052	-2704	-3264	7366	-1754	-15492	4716	1492	7318	16345	-1070	135	126	1
-25476	-7484	10008	-6661	-32768	-7852	-14388	-1296	-11888	1773	-32768	-15571	-8200	1356	-7040	17517	-12825	-548	-12924	4860	9704	-1073	1677	-1603	-16564	804	-4404	-5542	6703	-2036	-15492	5300	-824	6185	15060	-266	134	125	1
-28004	-8948	10328	-7557	-32768	-10160	-17248	-1344	-11324	3273	-32768	-16485	-7812	2936	-5180	11847	-10708	-255	-13024	4288	10008	-1014	1990	-1492	-16536	-1648	-5512	-704	6986	-1319	-15568	3552	-2564	5383	14438	-414	136	127	1
-31136	-13692	9440	-5139	-32768	-14219	-18536	-308	-11856	6882	-32768	-18314	-7304	4404	-3400	6988	-6261	-83	-12920	3720	10096	-265	2401	-1223	-16396	-596	-4240	4727	8064	-830	-15660	636	-3732	2939	13830	-745	85	138	1
-32768	-16036	6704	2211	-32768	-19267	-20616	-2212	-12708	11841	-32768	-20205	-7016	6672	-272	4582	-2789	-779	-13132	4060	10116	609	3081	-1281	-16316	1112	-2564	4816	8982	-912	-16360	1828	-1500	887	11401	-1621	87	141	1
-32768	2440	4068	3307	-32768	-27333	-19412	-4336	-16912	18573	-32768	-17914	-10616	2432	6904	6725	-5325	-2486	-13440	4380	9832	775	3961	-1441	-16264	1916	-2604	928	10028	-1618	-17668	4688	1492	1980	9745	-1041	141	133	1
-32768	-672	-5804	-6724	-29499	-32651	-20328	148	-14460	17552	-29675	-12011	-15212	-1624	10536	4742	-6687	-4052	-13116	4144	10120	1355	4980	-1543	-16684	2160	-2792	-1154	11201	-2344	-16600	4476	3340	3928	8406	352	134	128	1
-32768	-1684	-17260	3230	-19619	-23084	-12240	-2056	-21904	18496	-19392	-9269	-20088	-4660	20100	1868	-7303	-5506	-13212	4180	11780	476	7669	-3202	-19028	568	-1612	-18	12168	-2745	-17916	2344	2744	4916	8629	885	27	133	1
-32768	9792	-28848	7151	-11216	-10793	-8340	4880	-21272	12049	-6668	-7528	-15420	-7664	21096	2441	2294	-4967	-13488	5080	12408	1133	10086	-4005	-19276	-1052	-2916	2688	14857	-2988	-19304	2164	2972	6671	7194	644	102	125	1
-32768	18852	-30508	-5752	1232	-2450	-6896	4516	-16636	-2751	8040	-2939	-15056	-4764	15692	2518	3290	-2362	-14108	4996	12596	1292	13765	-4610	-20312	224	-3012	3453	16901	-3610	-19316	3484	2584	11290	4854	369	156	115	1
-32768	18068	-29856	-7891	3529	-1098	-7620	-1064	-19144	-11351	20107	1872	-13016	-3520	7080	-209	6503	2056	-13780	5188	12732	1064	18156	-5897	-20796	-1008	-3104	2531	18205	-4085	-18852	2868	1440	13533	3161	565	164	113	1
1160	6868	32767	4843	12950	3042	-32768	-2016	25880	-32768	12925	4532	-11360	-3952	-2124	-191	11916	3506	-12160	4484	14560	1358	24346	-6519	-22408	-2568	-2260	3608	19407	-4806	-20132	3652	2784	13265	1364	160	179	122	1
-10396	-9132	-36	9244	32767	10775	-20732	-5292	-2380	4304	13471	4171	-27264	1512	10160	4119	7358	2724	-11860	5640	14096	2495	31545	-6754	-24068	-4980	888	4620	20667	-5621	-22740	2952	7732	15440	-6276	-1539	219	111	1
-32768	-10276	72	10476	32767	9934	-9208	-160	232	15433	20397	3321	-16644	-4156	7460	25112	6616	234	-10448	5024	16692	4524	32767	-6988	-26928	-5748	4140	10184	21866	-5509	-23480	136	18104	17671	-19736	-2950	253	107	1
-31200	30008	18280	1899	31401	3298	-25812	-2196	-5676	23031	20880	2965	-17444	-11332	6408	27823	6884	-3990	-20488	10640	13232	5930	32767	-11121	-28432	-2296	2864	12542	23415	-5223	-19928	-6136	15396	12763	-16740	-2006	150	126	1
-28372	-32768	-124	4163	13133	458	-21716	56	-19860	23435	21844	10398	-23472	14696	-6892	18511	14703	-397	-32768	8804	11084	8980	32767	-17619	-28528	8580	-3424	3975	28210	-5280	-23316	1636	220	15095	-14061	38	10	116	1
-12604	400	11696	1902	6924	4690	-14856	2172	-9500	14289	17460	3370	-17904	8316	-16524	-5836	12989	-1917	-32768	16944	8580	8264	32767	-25229	-29892	3380	-6844	1107	24556	-5795	-24856	12420	-10092	15668	-14368	5644	47	114	1
-15148	-1040	10732	1711	3858	3117	-16860	5452	-11396	9648	13680	-1069	-10292	1580	-10724	-13762	12153	-5080	-23368	16404	20920	7723	32767	-29261	-26100	2804	2228	7752	24084	-2526	-28628	1640	-6024	1411	-23568	4944	253	81	1
-13456	-216	11208	881	2812	1163	-15844	7816	-9496	-14547	8683	-1214	-13608	-24	-8088	-13494	10115	-4561	-13720	13256	21120	20631	32767	-30971	-18796	3216	-11992	-1537	18616	1102	-31060	-2324	-4616	-3046	-26832	4693	104	49	1
-12212	-2644	10708	-79	2431	338	-16208	-376	-7072	-28852	5576	-2526	-16168	-4464	-4376	-10533	11550	-2728	-32768	16848	14588	17624	-847	-12263	-13816	-2188	-20300	-8114	5411	874	-28396	-3192	-5132	-3918	-26923	6823	253	83	1
-12036	-2168	11060	-721	1901	163	-17300	-9208	-4096	-20327	4602	-2161	-19580	-6480	-3680	-5637	12131	1572	-9740	13156	18016	9587	-31481	4235	-13320	-5308	-5572	2468	-3521	5689	-27652	-2712	-5944	942	-26513	8122	173	134	1
-11980	-2500	10796	-746	1879	189	-14200	-11180	-2712	6168	6784	747	-17308	-4372	-1208	992	10113	3009	-2668	9032	13764	6590	-31640	9064	-8460	-5880	-6536	17824	-9171	9643	-23996	-124	-5640	9777	-23582	8619	253	108	1
-11716	-3116	10460	222	1967	360	-14388	-6904	-4348	21089	8070	2160	-13744	-3420	-720	5301	11358	1489	-6700	6024	10416	4118	-32678	14441	-7644	-3976	-8492	24170	-17122	11305	-19484	2824	-5920	8278	-21202	8059	50	107	1
-11848	-3032	10324	1316	2159	372	-15824	-1796	-5496	21014	6821	2673	-13740	-3380	-768	5639	11759	1192	-12552	1668	9908	2102	-32768	19862	-8560	1428	-5660	11985	-29438	10529	-16048	3316	-6116	2848	-18083	8040	143	135	1
-11884	-2720	10112	1585	1651	707	-16112	3976	-4440	3725	5191	659	-16536	640	292	963	14294	503	-13792	216	10384	2689	-32768	23273	-7556	-2348	-6372	3104	-27500	11837	-13904	1064	-7260	-6157	-17450	7228	68	144	1
-12004	-1848	10204	1202	1479	730	-16248	412	-4028	-11433	3108	-812	-16228	2272	-344	-3772	12813	390	-14408	-136	10252	2850	-32768	23088	-12612	-3904	-6776	-1240	-32768	12744	-13356	376	-8444	-14929	-16795	6352	0	140	1
-11796	-2424	10368	147	1305	961	-15576	-4784	-2304	-12782	3161	-717	-15184	-88	100	-8791	13713	956	-15196	-776	11044	2721	-32768	20788	-12116	-3680	-7196	-4181	-32768	12196	-12368	612	-8128	-17879	-15613	5508	148	151	1
-11920	-2348	10116	-210	1264	1407	-13636	-6756	-2780	-5911	4364	388	-13884	-2944	648	-8718	14346	1192	-19936	-624	11364	4942	-32768	18373	-12848	-5064	-7436	-3762	-32768	12393	-9980	404	-7984	-16921	-13436	4232	98	146	1
-11856	-2524	10208	64	1129	1980	-14784	-5528	-2972	750	5838	1668	-14908	-3736	-56	-3958	14850	647	-22360	2392	11896	4805	-32768	18581	-13820	-6172	-9860	-2886	-32768	12844	-7288	-748	-7484	-15185	-9141	3491	125	150	1
-12096	-2728	10368	578	1090	2541	-16156	-3424	-3544	1972	6267	1995	-16084	-3768	-256	-343	14631	130	-23224	3164	12972	3426	-32768	20242	-16244	-6064	-11068	-1684	-32768	12660	-5204	-2304	-7792	-13514	-3998	2525	125	197	1
-12116	-2236	10396	877	1064	2969	-16208	-3108	-3500	1744	6314	1896	-16848	-2928	-2224	-3320	13592	-448	-23296	3640	13100	3148	-32768	20479	-20776	-7380	-11292	-1626	-32768	13512	-4724	-3536	-5908	-11801	-1091	1698	98	238	1
-12040	-2464	10576	1028	1146	3485	-15744	-2232	-3632	-4493	6472	1223	-17596	-1764	-2912	-2289	11051	385	-32768	-1176	9784	5834	-32768	24088	-21696	-7480	-19336	-4509	-32768	13655	-4808	-6456	-1776	-10453	1267	886	58	169	1
-12344	-1756	10732	1397	1194	3396	-15980	-3176	-1412	-5110	7562	1738	-18384	-2348	-184	2455	8432	1011	-32768	-3120	1704	5429	-32768	23273	-23168	-5664	-20144	779	-32768	11530	-8472	-4480	5452	-8847	-3084	505	80	99	1
-12288	-2180	10920	2169	1243	3440	-15904	-5136	-1376	-2776	9280	2738	-17592	-3600	3336	2697	7757	920	-32768	-8072	-8952	237	-32674	19077	-20336	-5244	-18348	1512	-32768	9286	-14932	-112	19668	-2093	-9781	-69	89	49	1
-11996	-1412	11788	2721	2078	3204	-15572	-5788	-1400	1862	11528	3665	-16532	-2736	4900	674	8118	-71	-32768	-13904	-23788	-4396	-22550	11511	-13340	-3748	-20584	1484	-23479	6436	-21864	-2308	24928	9785	-2972	1882	106	0	1
-12200	-3824	12388	875	4206	3573	-16960	-3596	-2564	1458	13143	4134	-16984	996	4024	-1983	8618	-856	-32768	-27008	-32768	147	-8199	1395	-6428	-5216	-23032	244	-8023	4481	-19304	1772	20808	10175	4294	3853	144	47	1
-13776	688	12372	1184	10234	3832	-20152	1808	-2740	-4634	13406	4374	-18836	2288	2552	-2441	8070	-940	-32768	-27552	-32384	12265	3066	-866	-5928	-4080	-23512	-663	7066	-647	-15472	7532	18428	8932	-927	-1901	131	163	1
-12588	-204	13948	872	14360	3208	-20168	-304	-2436	-9348	14377	5632	-20632	-364	412	-5415	5864	-147	-32768	-14108	-17896	-6896	14421	-16714	-12820	-3320	-13452	12657	20331	-4587	-11520	4696	9424	5702	2047	-2845	84	236	1
-12144	52	14652	821	19847	2584	-20004	-2544	-2528	-7456	16118	6720	-19940	-3524	1692	-6834	2583	1781	14696	32767	32767	9868	4865	-10769	-32768	524	32767	32767	14456	-4995	-13952	2784	3664	1947	6880	-1834	85	238	1
-10092	144	16260	487	27120	1867	-23448	-3448	-1144	-5787	17022	8489	-21444	-5240	3656	-5601	76	2131	-18856	-3372	1808	-859	20182	-26783	-10560	6560	-6092	8643	18537	1319	-21836	-5996	7568	7201	692	-2179	101	123	1
-10272	-2952	15516	199	32767	646	-24932	-2348	2364	-7110	17726	9562	-23452	-3876	9296	-3834	-7017	3322	-17888	25248	4384	-5294	26180	-10892	-22220	6592	-972	-3340	17069	-3517	-17348	1416	12284	1323	6017	-2389	175	78	1
-8412	-3388	16208	58	32767	1158	-25040	-2420	3472	-7873	17885	9632	-21072	-2364	19216	-6764	-15956	3677	-30428	-4876	11036	-2219	21603	-9885	-26168	2784	-9388	-17409	16658	-4971	-21280	19048	11940	-2667	7903	6576	141	101	1
-12692	-6788	14356	-263	32767	3363	-24652	-3360	6684	-11682	18722	10240	-15792	356	10828	-16385	-10531	4032	-20908	-536	14560	-7265	1245	-9210	-16672	3756	-9140	-23647	17261	-7473	-18200	2520	-13852	-47	19041	4375	124	74	1
-32768	-3572	7500	658	32767	11138	-22528	-10000	-11604	-4707	22216	12280	-22444	-2048	3968	-8536	-11344	276	-16748	4752	8140	-2498	539	-5262	-14292	-4500	-9592	-24404	13666	-4206	-14052	-3056	-11104	-1333	14200	2345	118	164	1
-32768	-11072	11308	8895	32767	21972	-25928	-3264	-7780	-7120	23520	8957	-22844	-6256	-12280	-9038	-10391	-4546	-14864	3560	9668	271	-166	-1353	-14424	-10248	-10460	-142	12086	-44	-10428	1936	-4604	3680	9585	-1861	246	92	1
-23448	-10764	23508	6713	32767	22302	-26536	-4900	-56	-8162	18073	6633	-30688	3144	-6508	3932	-20598	-3804	-13152	3624	10312	1408	-371	-185	-17280	-3996	-7516	17289	12295	1002	-16056	1896	-3448	-1121	12032	270	179	86	1
-21640	1708	18768	533	32767	17582	-18280	-3676	-13028	-1320	12282	3739	-28396	4052	-1824	5839	-22929	-4523	-12692	5024	9764	1884	216	12	-18112	112	-5960	20670	10697	2360	-17276	2840	-3536	2898	13924	-493	202	63	1
-32768	-7260	28148	-379	-4883	-366	-11356	-1140	-24496	13344	10035	3816	-25328	-144	-5288	1203	-21385	-7730	-12812	3824	10360	1558	696	-215	-16512	6436	-3268	9453	8756	1341	-17992	1284	-1248	4750	10650	-2789	105	99	1
-5852	-6636	22916	-2089	-27121	-5720	-15164	1932	-840	-6326	1142	795	-25020	-1732	-7048	1610	-19612	-9044	-12580	4624	10040	1541	1260	95	-16520	4504	-3248	-4973	6309	-339	-16096	4468	432	3915	10254	-2344	1	137	1
-2520	-3872	14692	-3562	-28463	-6738	-12284	-1440	-4348	-5392	-8442	-906	-25156	-2204	-7628	1338	-19283	-9018	-12540	5224	9396	878	1342	77	-17332	1756	-4660	-9848	5272	-1467	-15208	6220	356	3467	11066	-1685	0	156	1
-7892	-5112	11784	-1965	-31973	-8335	-7716	-1956	-10312	4568	-14533	-4130	-20392	-1068	-8524	-479	-17633	-7133	-12820	5792	9144	5	882	-327	-16172	-40	-4612	-4077	4710	-1112	-15308	5476	88	3636	11732	-1006	106	127	1
-9872	-4444	11320	2033	-32768	-9718	-5544	180	-7400	13398	-21087	-6402	-16652	-1780	-7600	1121	-16347	-6888	-12728	5264	9300	100	460	-774	-16308	484	-3976	4604	5120	-434	-15208	3636	300	4871	12181	-898	160	121	1
-10324	-3092	11600	4639	-32768	-9653	-8008	616	-8732	15805	-27056	-6833	-14292	-1652	-8120	4605	-15024	-6168	-12772	4984	9644	271	83	-1156	-16592	1488	-3816	9215	5684	-98	-15444	2332	488	6965	12327	-1645	167	150	1
-14064	-692	9844	2487	-32768	-9190	-11520	2336	-8840	14879	-31552	-6195	-13504	-1612	-9188	10085	-14544	-4933	-12844	4696	9456	403	-176	-1393	-15916	2620	-3136	5524	5403	-800	-15036	2492	560	8467	12891	-2258	165	141	1
-15760	48	9492	-3031	-32768	-9419	-12556	3124	-9196	10464	-32768	-6844	-11668	-724	-9964	17535	-14918	-3602	-12840	4944	9616	34	-116	-1663	-16112	2056	-3456	515	5373	-1364	-15288	3260	864	8719	13235	-2536	133	108	1
-18692	-1364	10664	-7482	-32768	-9582	-12072	2352	-11116	5702	-32768	-9157	-9948	1168	-9260	20325	-14622	-1770	-12848	4900	9288	-450	234	-1929	-16024	1048	-3356	-723	5593	-1864	-15620	3956	1448	9467	14035	-2543	148	115	1
-23552	-2840	12024	-9754	-32768	-9889	-13596	1616	-11764	1042	-32768	-11384	-8576	2104	-7984	19133	-12478	-678	-12864	4888	9504	-651	463	-2219	-15900	128	-3596	2010	6480	-1631	-15408	3984	1732	10256	15606	-2167	150	127	1
-26572	-4952	12504	-10490	-32768	-11154	-16312	748	-11220	-582	-32768	-13803	-7992	3412	-6452	15660	-10228	-81	-12984	4900	9804	-465	1017	-2417	-16400	532	-3348	4605	7645	-1626	-15960	3776	712	8834	15782	-1576	133	128	1
-28408	-8316	13160	-7620	-32768	-13227	-16752	532	-11132	-408	-32768	-14085	-7508	5500	-4740	10138	-6550	104	-13072	4200	10120	-17	1638	-2244	-16332	296	-4308	2966	8116	-2071	-16356	2708	-1336	5055	13837	-1649	112	128	1
-32768	-11532	11700	-2309	-32768	-15107	-20536	1604	-9620	6286	-32768	-19674	-6652	6456	-2560	6570	-2790	197	-13148	4004	9932	172	2271	-1986	-16624	-152	-4920	71	8052	-2372	-16396	2296	-1164	1649	13185	-1987	84	132	1
-32768	4396	9320	-4817	-32768	-22466	-20184	-2356	-13576	10667	-32768	-18509	-8552	5060	3664	6861	-4735	-769	-13244	3976	9832	384	3132	-1859	-16512	-388	-3208	-1031	8467	-2558	-16348	3024	-544	1223	12900	-1993	76	139	1
-32768	1200	516	-8814	-32768	-24254	-22180	-2076	-13872	13225	-32768	-13510	-12888	2248	8184	5486	-7011	-1577	-13264	4492	9820	1690	3859	-1952	-16128	672	-3636	-601	10160	-2730	-16052	3580	592	1209	11740	-1507	129	134	1
-32768	452	-12944	2541	-27300	-17673	-16672	-940	-15036	23101	-25226	-8787	-18660	-2336	20112	5267	-10386	-4014	-13916	4672	10460	342	6150	-3513	-18436	36	-3332	642	11354	-3231	-17540	2872	2336	1874	10527	-1139	0	122	1
-32768	10992	-25768	11427	-15747	-8963	-11012	4768	-19704	16125	-13718	-6080	-18016	-4624	25036	3610	-202	-4041	-13588	4832	11748	392	8475	-5034	-19240	-1072	-4300	932	12972	-3909	-19088	1324	3460	3646	9395	-485	38	119	1
-32768	25412	-32328	-4800	-4178	-1452	-6164	5576	-18208	-2635	1255	-2867	-17448	-4672	19384	3081	1191	-477	-13992	3964	12412	360	11737	-5253	-19812	-980	-3948	1067	14532	-4633	-18632	1820	3288	8345	7791	-1183	149	119	1
-32768	12392	-26184	-10170	9034	7183	-6120	348	-18784	-5611	15757	1995	-14096	-44	11512	-2804	3033	3552	-14012	5212	12596	327	15885	-6470	-20356	-1140	-3016	761	15958	-5298	-19416	3280	1416	11774	5581	-1883	150	120	1
-9108	12704	13380	5574	22359	21324	-19972	456	-2640	-21189	20933	5623	-13616	-280	9900	-3352	3586	4039	-12396	4128	14388	442	21463	-7325	-21528	-2864	-2228	2500	17281	-6169	-19612	4656	1928	12142	2875	-1753	160	118	1
9272	-21340	5268	4726	27809	16375	-32768	864	14156	-11512	8009	536	-16752	2272	460	-7113	11841	3778	-12168	5584	14424	309	27515	-8016	-23876	-2596	360	3102	18633	-7511	-22548	4956	5448	10477	-2380	-2184	208	117	1
-32768	-5996	10448	9424	29373	2645	-9540	-8576	-8912	-3423	14851	2116	-18380	6040	8072	1398	8010	421	-11456	5684	15200	2000	32767	-9909	-25148	-4236	3516	3304	20035	-7662	-22420	2408	13804	9478	-12792	-3582	239	111	1
-32768	31268	18824	7406	32767	6745	-23100	-5468	-7792	11556	19146	-207	-20384	-16256	9064	20233	4916	-6215	-13536	9060	16040	3758	32767	-12275	-29968	-2952	4924	6796	20880	-7462	-20824	-660	19476	9082	-18114	-3880	205	111	1
-32768	-27896	4764	96	10964	873	-25228	-340	-16136	26013	23672	10664	-20324	-4120	-1504	23547	12523	-4129	-32768	9292	8512	4588	32767	-19517	-28028	5100	1076	2158	23281	-8296	-23208	5476	8928	13447	-12749	-1337	93	120	1
-11440	4780	11336	1491	9359	5306	-14740	-2116	-9400	14754	18933	5806	-19412	9432	-19600	6513	15964	-1315	-32768	20024	6776	-732	32767	-27652	-30808	8288	-7140	-3338	23387	-10257	-23028	16400	-9648	12161	-12251	3945	90	107	1
-17328	452	11104	1859	5345	3424	-13336	2000	-12156	17295	14840	1503	-9896	2508	-10592	-6280	10603	-3651	-32084	15732	12600	-6182	32767	-32768	-25452	4752	-1928	-3450	23263	-8411	-24000	5620	-7924	-2972	-18675	4758	196	93	1
-13408	-168	11232	1355	3031	1859	-15572	7776	-11012	-1404	10373	-765	-12716	144	-8952	-7236	10878	-2170	-10808	24520	29536	-4382	32767	-32768	-21692	4448	-7412	-7564	20987	-5100	-30420	-2952	-4088	-12973	-25625	3815	0	46	1
-12552	-1456	11240	-119	2645	-149	-18600	1968	-7620	-17554	6321	-1685	-17684	1160	-5616	-6666	8788	-2031	-32768	9848	17624	2989	13265	-19551	-14876	-2080	-27788	-22071	9748	-4210	-29820	-1564	-6052	-10024	-25747	6780	171	134	1
-12144	-1536	11168	-699	2253	-321	-17796	-2728	-5628	-22124	4764	-3179	-19048	-1360	-1752	-7157	15232	-543	-14124	9628	20932	5078	-26972	738	-16884	-3132	-7948	-9354	-1118	-2278	-28860	-2640	-5080	-4479	-25741	9315	240	128	1
-12084	-1412	11144	-1176	2014	-767	-17984	-3624	-5152	-21225	4619	-3146	-18544	-2300	-1344	-5715	11399	1069	-3204	13040	13012	4222	-27664	3009	-10240	-4880	-4728	11443	-6508	344	-26052	-156	-5720	4253	-23069	10165	195	103	1
-11568	-2476	10592	-613	1585	-848	-13496	-8616	-3592	6537	6202	-116	-13900	-4772	216	-2315	11630	1076	-8488	10692	8436	-640	-32251	2779	-8148	-1988	-9144	17823	-13823	5251	-21680	580	-5168	3762	-22047	9640	149	93	1
-11640	-3160	10416	914	951	-474	-14760	-6044	-4424	13816	5881	1248	-14032	-4988	-760	-750	14426	201	-10288	6044	9748	-2888	-32768	7433	-6396	600	-8028	12594	-22324	7046	-17424	1332	-4760	-474	-19843	8669	148	157	1
-11644	-3296	10380	1155	834	-388	-16284	-1188	-4556	6997	4498	659	-15692	-2620	-1336	-3011	14347	-244	-10264	2712	8884	377	-32768	14540	-8340	-1996	-6600	7470	-27332	7776	-15304	1848	-6172	-6189	-18084	8561	74	135	1
-11832	-2072	10700	1689	-20	532	-16624	60	-4416	-6388	2930	-676	-15872	-744	-1408	-7354	15153	-394	-11224	1228	8200	5322	-32768	20847	-8804	-2196	-6988	6554	-28065	7855	-14512	1108	-8028	-13655	-16822	7378	64	139	1
-11804	-1728	11000	509	355	477	-15908	-2296	-3216	-12325	2088	-1083	-15476	-296	-556	-12115	16209	989	-11624	1396	8212	6013	-32768	21545	-9308	-1500	-7484	623	-32768	9701	-12320	-388	-8532	-18155	-15748	5144	55	152	1
-11804	-1748	10880	339	456	502	-14720	-5588	-2812	-10315	2467	-304	-13120	-1796	784	-10605	16428	1630	-16096	4448	9436	7863	-32768	22812	-10376	-1304	-8692	-298	-32768	11662	-9816	-156	-8140	-19106	-14477	2938	57	156	1
-11812	-2348	10452	148	639	1072	-14244	-6608	-2488	-3622	3674	756	-13680	-2668	972	-6142	15562	244	-19732	3316	9784	8343	-32768	20712	-11932	-2060	-8404	584	-32768	13401	-6836	-1212	-8024	-17572	-10958	1643	108	161	1
-11712	-2480	10572	456	459	1670	-14980	-4736	-2288	622	4825	1453	-17956	-4572	-1988	-3501	13239	-807	-21556	3060	11236	10110	-32768	22206	-13736	-3556	-9784	-1084	-32768	14746	-5520	-2644	-8160	-15076	-5935	1430	116	187	1
-11620	-2376	10644	776	661	2247	-16084	-2896	-2548	-156	5330	1517	-18856	-4716	-2832	-4352	11708	-835	-24380	4788	13396	10184	-32768	24333	-18032	-5688	-12520	-1189	-32768	14842	-5068	-3372	-7304	-11479	-2148	931	123	194	1
-11720	-1560	10828	914	1031	2608	-15876	-2636	-1952	-3185	5840	1354	-17944	-3140	-700	-384	10086	156	-32768	2172	11544	10379	-32768	25516	-19668	-7072	-17872	-698	-32768	16040	-5764	-4732	-4596	-6496	-1065	2054	125	157	1
-11596	-2132	10936	1101	1422	2477	-15844	-4232	-860	-3951	6885	1786	-17140	-3744	568	3306	8907	1351	-32768	-2700	6524	11173	-32768	28132	-21912	-5916	-20156	3615	-32768	14875	-6892	-2848	388	-5337	-2859	3872	104	122	1
-12172	-1140	11004	1495	2094	2616	-15568	-5232	-260	-2160	8838	2867	-17604	-4340	3632	2414	8584	1687	-32768	-3528	-2992	8495	-32474	27583	-23020	-3824	-19992	6183	-32768	12185	-10912	1320	7548	-698	-5302	5055	55	87	1
-11936	-1700	11700	1920	3251	2147	-15104	-5888	852	1066	11635	4200	-17448	-3360	5532	1551	7942	834	-32768	-4816	-16204	-687	-26540	22951	-17344	-3044	-19676	1661	-30314	9558	-17568	388	18212	6202	-5444	5570	103	13	1
-11848	-2504	12596	1634	5213	2783	-16176	-5516	-1736	3686	13979	4715	-16728	804	5032	315	8082	-633	-32768	-10852	-29600	-8530	-13974	12929	-9708	-924	-21332	-5335	-16298	7576	-22908	1636	24848	8884	3298	6063	139	52	1
-9916	1088	16316	1446	8978	4281	-18336	-1808	-1988	-577	14618	4674	-17208	3020	3028	-1161	7599	-1167	-32768	-29856	-32768	-792	-133	8124	-6776	-4976	-23252	-11065	-2352	3423	-17452	9808	20464	4154	3103	4738	130	125	1
-12172	76	13644	340	12797	2783	-19664	-148	-3620	-7306	15544	5880	-18548	1036	968	-5200	6549	-632	-32768	-21476	-28992	7523	11702	5852	-6484	-5772	-23004	-10349	13062	-2202	-12656	6020	15392	2053	3232	-1065	109	199	1
-12604	-444	13636	180	16866	2324	-18312	-2720	-3708	-8139	16856	6540	-18188	-1848	96	-10480	4424	424	14432	17332	25080	-15310	16929	-7742	-13204	-1772	-20512	5827	25289	-4566	-9896	5156	4896	-4182	7420	-1192	80	238	1
-12308	-1344	14288	761	22072	3003	-19732	-2536	-3152	-6666	17990	7023	-18760	-3860	-652	-9728	1349	1229	32767	32767	32767	3510	6077	-10763	-32768	2548	32767	32767	7766	515	-13672	2896	-2456	-2502	14245	20	119	148	1
-9992	132	16384	445	30049	2316	-23888	-2032	-872	-10012	17877	8109	-22492	-4812	3500	-5421	-2689	2028	-32644	-16244	8064	-1987	24448	-29940	-2916	10484	-2840	559	17905	3988	-22536	-4236	4844	5208	6136	1240	129	94	1
-9516	-2668	16100	-95	32767	1202	-26392	-168	4132	-12419	18362	9114	-23424	-1424	12544	-4054	-12877	3755	-11960	16800	4668	-6950	29395	-16477	-23312	940	2476	-18397	16765	-7120	-19764	6232	24248	-11319	-1248	2619	150	90	1
-7460	-2504	16404	-41	32767	638	-24640	-1256	7380	-15682	19195	9861	-19108	1928	20196	-12777	-18731	4221	-29712	-1284	9288	-4827	24704	-14110	-29692	-3292	-10988	-22205	15872	-3972	-22776	8220	13600	-6388	9250	4351	146	81	1
-19036	-3732	12692	-1816	32767	2589	-25252	-5020	5684	-13719	19896	11768	-14952	3848	11908	-9104	-9998	3682	-17104	-14868	17112	-9844	-1303	-13178	-15464	2048	-10644	-23585	16989	-3804	-23932	-3964	-10568	293	18753	1923	76	60	1
-32768	-12336	7988	1354	32767	9725	-23328	-10952	-8016	-11437	22118	12607	-22768	-7896	-8332	-16945	-6538	-2356	-16372	1228	9660	-3100	-455	-5563	-17156	-4648	-10660	-24759	14328	-3212	-10284	-780	-10696	4096	17165	2425	241	136	1
-32768	-9432	17856	5934	32767	21049	-28180	-4544	-6716	-8210	20740	8496	-31300	-5272	-13664	-7671	-12966	-5142	-14992	4788	9020	208	-355	-1266	-13524	-7892	-10308	1090	13379	1691	-8188	4860	-10144	9032	11144	-1438	207	117	1
-11128	-10000	30216	5233	32767	22414	-25972	-4388	2364	-3473	13613	6054	-29600	2372	-4604	8217	-24019	-3456	-13336	4172	9628	1222	-512	-142	-16592	-3104	-7644	16815	12271	2427	-15240	2836	-3864	-3538	8757	3132	155	84	1
-32768	-9660	19908	80	32767	14437	-14976	-3112	-19812	4544	8811	3121	-28040	1676	-3176	7571	-23585	-4057	-12904	4576	9604	1630	-21	357	-18796	100	-6568	20072	10448	3318	-17536	3960	-4992	2589	14881	2376	130	50	1
-32768	-4824	27088	-59	-10869	2182	-8692	1468	-22304	14811	7850	2712	-25340	1604	-5800	2838	-23141	-6815	-12812	3588	10116	1748	613	78	-17320	5412	-3416	10783	8424	1890	-18580	2452	-2596	5062	11485	-2573	131	123	1
-8004	-4592	20668	-3580	-31558	-3092	-15700	2768	-1772	-5252	-2728	-424	-25484	-824	-7692	928	-20385	-7321	-12980	4500	9756	2022	673	110	-15780	6228	-3136	-6097	6174	724	-16016	5116	-588	2661	11546	-2401	0	182	1
-3784	-4424	12132	-6505	-32768	-4008	-10688	1516	-6036	-9037	-11647	-1877	-22332	-1360	-8532	-2305	-18716	-6605	-12892	5060	9432	1454	655	222	-17456	2268	-4684	-13205	4396	-896	-14968	5212	-852	965	12482	-1089	96	153	1
-6624	-4532	9464	-5988	-32768	-6116	-5568	-2884	-9984	-3338	-17508	-5128	-17504	-1800	-9032	-2215	-16910	-5419	-12832	5392	9244	1113	608	-24	-16952	-2184	-4936	-4649	4434	-317	-15436	5044	-768	1420	13513	-819	102	127	1
-8752	-5572	9336	-3000	-32768	-8532	-3932	-3468	-6396	9491	-24358	-7987	-13628	-3344	-8756	-894	-14642	-5905	-12920	4988	9420	1096	626	-307	-15964	-1240	-4364	9251	5907	1261	-15832	2704	-952	3163	15628	-303	163	133	1
-11696	-5952	9800	944	-32768	-9975	-7112	-1728	-8888	15596	-29725	-8801	-11568	-3596	-9584	2055	-13064	-5335	-12856	4516	9556	1638	695	-369	-16320	1672	-2892	11791	6224	1823	-15880	1976	-960	3429	15936	-197	165	132	1
-15108	-4408	8684	1379	-32768	-10839	-9816	-72	-9548	13498	-32495	-7190	-10124	-4276	-10192	8403	-12336	-5318	-13008	4460	9600	1387	1021	-441	-16264	3532	-2764	5903	6409	838	-14324	512	1096	8346	17456	-680	146	97	1
-17332	-3464	8428	-2140	-32768	-12118	-11096	-128	-9556	13346	-32768	-6857	-10008	-4000	-10236	9643	-12233	-5045	-13060	5076	9280	757	1540	-510	-16172	2940	-3100	-31	5846	-62	-14596	2800	1892	10541	19658	-977	127	117	1
-20836	-5264	9536	-5410	-32768	-13190	-11180	-912	-11460	9987	-32768	-9040	-7964	-600	-10576	22132	-11782	-3040	-12920	5236	9240	330	1730	-798	-15940	1292	-3908	-1627	5721	-560	-15592	4860	288	10770	18679	-341	140	128	1
-21764	-5476	9640	-5800	-32768	-13275	-14092	-1248	-12476	5308	-32768	-11608	-7852	1000	-10348	23658	-10518	-2190	-13064	4804	9200	375	1905	-1165	-16112	-160	-4292	2382	6266	-4	-15864	5732	-4060	7248	15333	0	162	131	1
-29152	-10964	9752	-6794	-32768	-14990	-14856	-1412	-12712	4903	-32768	-12158	-7788	3620	-8112	18086	-8344	-1143	-13248	4808	9332	565	2224	-1486	-16044	1368	-3724	5030	7689	-64	-16072	5040	-5192	1630	11974	-298	146	131	1
-32500	-13160	9012	-5109	-32768	-16483	-20112	-104	-13672	5665	-32768	-18604	-7236	6344	-5116	10772	-4879	-235	-13320	4688	9548	992	2728	-1517	-16344	1268	-3608	3583	7885	-459	-16304	4704	-1980	-1220	10761	-751	128	135	1
-32768	-12576	6808	-4412	-32768	-18751	-22112	-2860	-14028	6685	-32768	-22631	-7912	8180	-4	7242	-3226	-609	-13128	4048	9596	1665	3526	-1281	-16608	580	-2880	1142	8904	-904	-16744	3668	48	699	10184	-903	80	139	1
-32768	8048	2852	-13596	-32768	-27014	-21020	-3832	-18744	10945	-32768	-20905	-13648	4080	9036	9933	-8337	-1896	-13220	4480	10608	2433	5112	-1140	-17344	712	-1948	523	9844	-1287	-17528	1656	2276	2800	9650	-606	113	126	1
-32768	4108	-9220	-24114	-29456	-31076	-19604	2600	-18052	8888	-29326	-16498	-19764	-600	19268	6994	-11222	-3355	-13344	5376	10704	1427	7369	-2510	-18288	2080	-1260	1163	11911	-1665	-18472	1000	4776	2576	9606	716	166	129	1
-32768	5756	-22600	-10228	-20862	-19916	-11748	816	-18216	-603	-18468	-12847	-16920	764	23204	-3914	29	-5818	-13824	5576	11024	1351	10163	-3304	-18892	1136	-1628	1469	14077	-2510	-18948	1396	5548	5065	9080	1413	103	129	1
-32768	20176	-32768	-1105	-10205	-4849	-7480	4044	-18308	-10248	-3518	-9297	-16536	-4664	20496	-9520	3269	-7175	-13956	4944	11416	1337	13674	-4153	-19224	-112	-1744	2124	16539	-3176	-19288	3656	4344	12447	6955	1192	75	118	1
-32768	20164	-25736	-8552	4388	875	-4488	2692	-19328	-8647	14279	-140	-16004	-6080	12388	-10132	4842	-3607	-13448	4940	12068	1431	18201	-4497	-19856	-604	-1568	3006	18684	-3772	-19120	3472	2796	16404	4284	1077	101	115	1
-23476	32767	18468	19367	25363	13039	-20532	408	-1688	-14011	23763	7535	-12752	-8260	2424	-6058	7974	982	-12312	4552	13808	2382	23919	-4501	-21896	-2312	-1576	4189	20369	-4373	-20056	3644	3748	15060	2018	1337	144	119	1
12648	-12752	1760	25557	32767	14401	-32768	-8396	-248	17525	13743	2266	-19648	-5776	-1268	-135	16131	2643	-10648	5104	15700	4396	32767	-2731	-26096	-6716	4932	7211	21995	-5573	-24804	2148	9256	14651	-5822	-281	156	113	1
-24960	364	20456	14973	29371	4562	-8856	2412	4960	28514	20251	5864	-22136	-5360	9228	23148	6637	-2166	-10024	2960	16824	6327	32767	-2488	-28304	-12256	6544	14090	23721	-5872	-26084	56	25808	26606	-31428	-2027	253	99	1
-32768	20048	14548	-397	26025	5051	-28984	7224	-12900	27400	25580	7148	-17832	-17148	3920	32767	6215	-1824	-23676	7848	13544	9851	32767	-2073	-30600	-1996	5384	15828	25392	-7519	-24924	-976	28084	29301	-32768	-2231	186	131	1
-19172	-13020	6720	6936	12453	9905	-18144	-7196	-19548	10065	23084	8901	-19216	17004	-14112	24258	15167	4217	-32768	14660	10984	8900	32767	-13286	-32768	16164	-5956	-2069	28601	-8403	-28732	8140	-8468	17526	-15083	1330	28	118	1
-27132	-1116	11320	6743	12835	11324	-12460	684	-13300	15711	18193	3203	-17636	10116	-17528	-2671	11484	-952	-28100	22320	15796	5028	32767	-26224	-31208	-288	-1544	-1103	22778	-8229	-26824	10576	-11604	7301	-17691	5927	0	108	1
-14604	-3276	10576	2668	3538	3888	-16660	6032	-12936	8419	13861	1131	-11672	2768	-12960	-10248	8618	-2681	-20992	15128	28524	13943	32767	-23206	-24168	152	-196	577	24065	-4035	-30588	4064	-3580	-5018	-28701	3287	253	106	1
-13276	-220	11220	1641	2198	1774	-16204	7136	-10084	-12459	8776	-32	-13784	4688	-8172	-11057	7869	-3975	-32768	26584	11440	22230	32767	-10906	-15360	608	-30980	-12679	10522	-2826	-29884	948	-6528	-8852	-27450	4404	67	101	1
-12408	-1572	10864	519	2406	366	-17580	1248	-7852	-25362	5675	-2336	-15312	-2444	-4420	-11193	12229	-3672	-25796	21492	21424	6889	-30002	1062	-17456	-776	-13408	-8443	-892	-1501	-29796	-3024	-5240	-8599	-29472	6255	253	79	1
-11952	-1328	10828	-315	2091	-46	-17636	-8216	-4428	-18315	4953	-2556	-21208	-4544	-4248	-9293	13897	744	-1692	9908	18828	980	-32768	-1462	-11640	-2556	-704	9512	-6648	3473	-28180	-1464	-7220	2798	-25798	6737	253	73	1
-12156	-2076	10496	-626	1921	-429	-13716	-11616	-3356	7118	6635	366	-17064	-5652	-1576	-3611	11674	2173	-3976	4472	11132	4488	-32768	-2689	-11028	-3164	-7116	12921	-14969	7264	-23232	716	-7276	8135	-23809	7020	205	92	1
-12228	-2804	10016	826	1020	-26	-14292	-6572	-5700	19456	7080	1572	-17064	-4616	-1868	2058	13775	2950	-12588	5436	9292	4741	-32768	3868	-14836	12148	-21788	11109	-24011	12676	-18160	5296	-6380	3535	-22252	8713	200	152	1
-12112	-3132	9832	1976	352	360	-15800	1088	-4192	10196	4580	1224	-8780	-3432	-4044	-2671	12950	5630	-13160	6588	9372	1612	-32768	11586	-10528	912	-10340	2369	-32768	-1668	-15156	4292	-6588	-3179	-21564	9113	65	146	1
-11920	-2668	10176	2098	21	869	-16320	-1144	-4788	-4978	3577	-110	-21896	-708	3408	-2915	15941	871	-12676	4576	8296	-60	-32768	15290	-11404	-5916	-6780	7551	-31168	10162	-11516	-816	-10900	-9147	-15791	4187	0	145	1
-11832	-1936	10624	1463	11	1319	-15756	-3252	-2672	-11500	2620	-914	-15384	-936	-2116	-5863	21813	-605	-13240	3484	7716	1159	-32768	17394	-9588	-2616	-6488	8192	-32768	9288	-12272	736	-9908	-17263	-16839	4246	107	146	1
-11892	-2184	10684	533	270	1611	-15560	-5940	-1972	-9132	3161	42	-14116	-1940	1312	-3508	18247	-601	-17184	5144	9284	2429	-32768	18264	-10748	-2216	-9012	7811	-32768	11863	-8584	600	-9424	-19143	-14641	2949	97	157	1
-11856	-2332	10452	305	309	2210	-13948	-7272	-2580	-3285	4750	1359	-14136	-3168	836	-481	14273	801	-21768	6064	9936	4124	-32768	18915	-13244	-2316	-9308	7766	-32768	12826	-6360	-1180	-8548	-16801	-11220	1382	130	160	1
-12184	-2072	10364	712	278	2696	-14680	-4600	-2972	2413	6690	1437	-17048	-4144	856	-1695	14440	604	-23884	7732	10972	5531	-32768	20788	-15692	-2128	-11084	3801	-32768	15365	-4180	-2520	-8388	-13023	-6068	383	131	228	1
-12156	-1928	10608	1134	460	2795	-16528	-1756	-3432	376	6768	1523	-18924	-3892	-3916	-5014	14399	322	-30176	8572	12384	6806	-32768	22890	-19496	-4276	-12008	-1260	-32768	16330	-4312	-2736	-6236	-9433	-1910	-166	0	195	1
-12208	-1516	10964	1117	1291	2685	-17116	-1552	-3980	-4583	6096	999	-17612	-320	-3592	-4148	11685	-168	-32768	5096	8788	7187	-32768	28963	-21880	-6416	-18780	-6737	-32768	14909	-5344	-4556	-3772	-8112	-1756	-84	133	156	1
-12072	-764	11064	974	2422	2057	-16952	-2240	-1616	-7402	6904	1380	-17784	-984	272	1437	9595	898	-32768	3244	2752	5979	-32666	32767	-24192	-7000	-21428	-1762	-32768	11345	-7504	-2272	2280	-7539	-4968	1479	91	117	1
-12364	-1176	10900	981	3600	1488	-14380	-6200	-204	-5058	8934	2718	-16132	-3660	4168	2774	8691	998	-32768	2548	-8868	-1871	-30780	31096	-22312	-4104	-21104	3461	-32768	9279	-13128	2000	12088	-2167	-8220	2717	73	109	1
-12264	-2972	11596	1194	4865	1899	-13704	-8768	-932	1285	12053	3743	-16628	-3604	6372	-289	8457	-157	-32768	-2176	-24980	-13668	-25513	20748	-13432	2648	-20648	-1048	-26999	7797	-21328	804	21904	5812	-5475	5489	115	0	1
-10508	-684	15084	1487	7954	3797	-17480	-4772	-920	1717	13509	4291	-17440	-160	5236	-2246	9207	-1581	-32768	-14996	-32768	-13232	-12786	6901	-7628	-748	-23640	-13699	-11762	5535	-22052	5216	23092	5415	4091	6670	114	54	1
-12228	-140	13296	1129	11492	3352	-19912	44	-2632	-5675	14562	5300	-20268	-72	696	-3083	7778	-1480	-32768	-28624	-32768	3148	3185	6571	-6532	-7396	-24260	-14506	4345	-72	-19812	7476	21808	3307	4360	6456	102	144	1
-12648	772	13928	812	16023	2501	-19204	-2592	-2972	-8715	15926	6072	-19316	-2900	564	-7213	5069	444	-32768	-13504	-27272	6648	15001	3148	-6808	-5208	-23396	-6611	18202	-3846	-11756	6080	11100	-3117	2821	-1770	81	238	1
-11952	-300	14316	853	21365	2353	-20172	-2932	-2660	-6328	17238	7168	-19072	-2140	-80	-9565	2468	458	-9196	-1740	32767	-4822	10644	-13275	-32608	-836	19184	31157	20857	-3714	-10116	4828	988	-7586	11510	-540	60	221	1
-10652	160	15432	35	28683	1284	-22148	-1840	-2492	-7359	17509	7976	-20352	-1692	1524	-7250	-681	1510	-6328	8712	-3136	337	26373	-28592	-18272	5800	-3196	-2221	11488	2359	-22512	-1044	2088	-2386	12615	1780	149	129	1
-10024	-2052	15128	-241	32767	-172	-25040	-1960	1736	-9221	17629	8865	-23840	-2228	7552	-5743	-6681	2933	-19176	13868	8104	-5056	24463	-10020	-10328	-2216	1776	-11335	16183	-1452	-19568	4192	12596	1734	-3076	3534	185	91	1
-8008	-3172	15632	-951	32767	-291	-26032	-776	5480	-13615	17655	8820	-23532	-2128	20800	-13341	-17606	3301	-32768	-11988	16932	-6545	28776	-16702	-27588	324	-8684	-19463	15435	-4003	-16572	12056	13916	-7979	6936	1555	120	95	1
-17860	-6304	11544	-2164	32767	2225	-25672	-5040	6296	-19559	17887	9919	-10880	4624	8992	-26058	-5574	4660	-26092	23460	14080	-6325	17106	-7944	-21956	-6404	-10148	-23046	16451	-9225	-22584	-6012	-4632	-9424	16662	2804	133	87	1
-32768	-3236	6408	-3691	32767	8974	-22388	-9576	-8476	-14648	22297	10702	-23832	2384	496	-14713	-4976	-2939	-15516	-4884	13144	-5070	5367	-7585	-13436	-2928	-9696	-20102	15305	-2278	-18032	-3448	-14296	-195	15559	822	148	107	1
-32768	-17340	13592	1274	32767	18479	-29196	-7156	-5824	-12439	21261	9001	-28092	-8336	-15188	-14758	-11276	-8493	-16064	1592	10248	-3166	-1046	-5340	-16608	-6432	-11192	-15117	13761	-278	-8372	2656	-7764	5248	13235	770	205	136	1
-24768	-11588	24452	-2565	32767	22477	-28136	-4856	-816	-13329	16992	4917	-29464	136	-4288	2534	-22616	-7144	-14036	3552	10064	-1678	-2171	-3280	-15288	-6696	-8572	6921	13143	1514	-13196	2776	-3692	1293	9593	1692	134	123	1
-28804	2004	9260	-10788	32767	18296	-20284	-3080	-5668	-6178	8527	1660	-28316	1972	-5032	7276	-23302	-6432	-12832	5496	9792	-539	-1335	-1872	-17020	540	-5492	15334	11936	1435	-16116	5684	-4100	1372	12744	2403	138	81	1
-32768	-15288	23740	-7586	1031	1141	-7356	-1704	-29388	13734	11323	578	-26784	4256	-5140	5113	-26358	-7620	-12596	5448	9512	-788	-1180	-2675	-17628	3964	-4720	11411	9957	1100	-16544	5704	-4136	2317	13263	1854	160	103	1
-12380	-8316	20092	-589	-27194	-7240	-17016	4856	-3484	-11950	3757	-5125	-26624	3180	-7716	2046	-24066	-8589	-12808	3640	10508	-630	-747	-3094	-16348	4276	-2064	45	8377	-219	-16248	5332	816	1539	10228	-2349	0	129	1
-3052	-2592	13352	-1618	-31312	-11348	-12496	1292	-4008	-8537	-6103	-4971	-24336	2880	-9596	-2188	-21808	-8929	-12492	4140	10336	-900	-397	-2816	-16640	2320	-3588	-9657	7290	-1991	-15196	3928	668	-1621	9938	-1331	0	151	1
-5872	244	10936	-4709	-31951	-17417	-6616	1956	-6744	6390	-11569	-8522	-20172	2420	-9100	-1609	-21394	-8239	-12948	3864	10296	-1450	56	-2202	-16688	-900	-4696	-11331	6166	-2111	-15056	2300	400	-1681	9900	-1328	81	140	1
-8940	-1816	11592	-1940	-32768	-19369	-5072	4116	-5752	15965	-17486	-11119	-15684	1948	-8400	-1673	-20168	-7445	-12696	4092	10180	-2158	4	-1682	-15948	-3200	-4588	-4313	6451	-921	-15364	1976	-4	1385	12214	-1694	141	104	1
-10644	-416	12936	3679	-32768	-16901	-7040	3832	-8820	15993	-24980	-13108	-13568	416	-8188	-562	-18498	-6150	-12944	3716	9904	-2185	-30	-1492	-15872	-452	-3812	1770	7407	-629	-15548	1380	24	3050	12933	-1399	177	129	1
-13984	3888	11928	4058	-32768	-13785	-10312	5240	-7580	13803	-31482	-13315	-11556	-1348	-9356	1202	-16358	-4945	-12636	4476	10288	-1922	293	-1594	-16196	132	-3472	3803	7564	-375	-15220	884	668	4667	12812	-1376	166	118	1
-16920	5808	11720	-817	-32768	-10861	-11096	5644	-8840	12400	-32768	-12536	-10240	-1324	-9864	6565	-14185	-2976	-12636	3676	10604	-1405	1160	-1985	-16236	468	-3444	2000	7855	-678	-15608	1832	636	6121	13364	-1646	165	120	1
-20524	4888	12092	-7391	-32768	-7719	-11656	5856	-9984	7896	-32768	-13729	-8252	1360	-9508	12997	-12685	-533	-12820	2892	10432	-1301	2403	-1664	-16000	168	-4352	-971	7749	-1030	-16076	2752	412	7307	14085	-2143	149	123	1
-23952	2556	12500	-12454	-32768	-5727	-14292	3476	-9812	727	-32768	-14917	-6436	3276	-8900	14896	-9745	555	-13148	2644	10412	-933	2777	-1383	-16212	-852	-4852	-1528	7965	-1299	-15776	2952	-480	7369	15174	-2120	115	139	1
-24728	1988	12756	-13010	-32768	-5623	-16132	3528	-11216	-625	-32768	-16616	-5932	3076	-8048	16119	-8264	954	-13260	2388	10360	-253	3018	-1546	-16256	-1700	-5720	1218	8158	-810	-15580	2344	-1620	5051	15857	-2085	137	137	1
-30956	-4044	14180	-11518	-32768	-9775	-18996	3304	-11496	2255	-32768	-18219	-5432	2872	-5488	11509	-5176	885	-13248	3472	10448	56	3403	-1529	-16412	-868	-6064	3168	8548	-635	-15684	1460	-2264	877	16660	-1946	149	127	1
-32768	-4	14020	-7815	-32768	-14817	-23200	3508	-12896	4165	-32768	-19396	-5568	3960	-2360	5330	-3094	438	-13300	3560	10568	219	3972	-2096	-16584	-100	-5520	2920	8594	-776	-16184	1532	-1624	-1036	16677	-2026	155	129	1
-32768	4452	9744	-8135	-32768	-18403	-25012	-344	-15096	649	-32768	-17422	-8124	3460	4056	1523	-5039	-414	-12948	2960	11580	731	4871	-2638	-17068	-404	-3360	2761	9213	-1128	-16868	2432	440	-51	15385	-1900	91	139	1
-32768	476	-3968	-4269	-32768	-16013	-21164	-5560	-14012	4749	-32768	-13091	-16968	740	15128	-1103	-9957	-2304	-13768	2836	11540	507	7445	-2964	-18736	-836	-1780	2819	11050	-2239	-19492	3168	3740	1387	13028	-1237	82	123	1
-32768	2736	-23440	9196	-28546	-9204	-9740	-2812	-21056	25513	-22047	-8369	-21816	-4580	26204	-3723	-7293	-4376	-13532	2844	12348	892	10233	-4075	-18868	-172	-1792	1927	13428	-3135	-19604	2640	6868	3245	11161	-612	41	120	1
-32768	23540	-32768	5871	-13188	-5773	-9296	6108	-20784	20393	-6085	-4383	-15652	-10640	25888	4289	5226	170	-14184	3208	12672	725	13892	-4579	-19792	-256	-1868	237	15381	-4268	-18500	2772	8152	7632	9694	-547	34	116	1
-32768	19248	-32768	-7807	5486	-3092	-5664	4136	-17036	2223	11907	2891	-16548	-6068	17708	5908	3518	3210	-13916	4772	13528	837	18773	-5656	-21040	240	-2100	-636	17862	-5712	-19720	4360	5892	12928	6450	-1115	164	115	1
-32768	23688	-9464	-1103	23880	18350	-8844	-2760	-11468	-12439	23908	6327	-13008	-3624	5808	5329	8117	4120	-12948	6252	14784	530	24215	-7317	-23048	-1592	-1224	-113	19399	-6369	-21500	6552	5108	17991	-846	-1628	216	128	1
21212	-32768	32767	-2530	16148	13564	-32768	-8496	32767	-32768	6393	1467	-14152	1552	-2388	2751	13106	4355	-12496	7232	16208	869	31059	-11486	-27692	-2620	-200	3378	21205	-6464	-24860	6656	9172	18859	-7657	-1622	219	120	1
-32768	-4424	-1248	8690	31553	9547	-10596	-6808	-14660	-1934	14590	958	-22376	11664	9664	5660	8516	4777	-12120	5252	16368	4455	32767	-15089	-28072	-7660	5200	9010	21717	-6187	-22288	-756	17752	9110	-11618	-2290	147	104	1
-19960	-6488	10548	14662	32740	1014	-15204	-8640	-8536	-11765	19228	100	-11828	-11352	1828	13494	8085	757	-21272	6196	14972	3887	32767	-17324	-27180	-3820	5816	14579	23948	-6479	-19024	-6020	12180	10221	-10534	-3610	248	102	1
-32768	17612	14168	-4021	24455	4990	-25540	16	-11956	16239	19872	6504	-22040	-8324	3440	6621	7515	-7498	-29016	11504	13432	5438	32767	-18418	-29268	7932	1200	5274	25076	-8583	-22888	2392	900	17402	-12476	-190	108	131	1
-27656	-4208	13168	4206	11848	8084	-20152	-5944	-21300	10162	21431	7367	-22120	11608	-13876	1224	12343	-2816	-32768	16476	10436	-682	32767	-27639	-30240	6036	-8520	-4659	21619	-9416	-24660	13212	-14420	10650	-15270	5942	131	108	1
-15920	-1300	11992	2186	6141	3831	-14144	2152	-11860	11077	14971	3018	-13020	-1180	-13864	-12956	11382	-3747	-28368	16700	17340	-7521	32767	-32768	-26740	4432	2404	-943	19241	-7450	-29800	10172	-9180	-5893	-22213	8074	161	89	1
-13580	-1196	11484	1385	3260	2051	-16496	5212	-10208	2055	11294	243	-12904	-3708	-8596	-4552	11424	-3176	-32768	5584	10628	-3362	32767	-32768	-18740	8320	-14224	-6269	13991	-3033	-30180	5184	-5072	-15109	-25900	6121	118	96	1
-12584	-2328	11244	-247	2919	-447	-16376	1872	-8196	-13625	7667	-278	-17168	2804	-6720	-6445	9200	-235	-32768	8316	19360	864	-16243	-12654	-14944	1732	-22056	-19672	2167	-5816	-27784	1056	-5908	-14736	-26017	7787	99	79	1
-11940	-2196	10832	-700	2546	-547	-16304	-3724	-6064	-16996	5898	-1648	-16692	-1492	-4024	-9176	13006	466	-8532	12404	17760	5122	-32768	6322	-14800	-6072	-1968	-5831	-4302	-5526	-28060	-1704	-7432	-8879	-24185	9645	223	132	1
-11768	-2832	10540	-1132	2111	-437	-16696	-7640	-3936	-10701	5329	-1338	-17704	-5496	-2876	-7341	11828	903	-2064	13220	10348	1883	-32768	8502	-11152	-3396	-7192	13153	-12012	-115	-25772	-888	-7012	-2255	-23669	9695	176	139	1
-11664	-3292	10324	-723	1705	-143	-14496	-8148	-3648	1526	5569	135	-14840	-6052	-1160	-1561	12358	902	-10452	9552	7948	-2871	-32768	10987	-7376	-1340	-9320	14187	-20818	3373	-20080	684	-6276	-2717	-21665	8856	140	101	1
-11592	-3696	10108	538	1201	464	-14092	-6904	-4276	9419	5489	1220	-15224	-3560	-452	922	13260	1975	-13068	6044	8544	-3826	-32768	16954	-13948	3776	-14964	11264	-29003	7623	-14836	-248	-6816	-7384	-18721	7193	216	139	1
-11952	-3392	10264	1634	913	1110	-15312	-2320	-3264	4851	4931	707	-9816	-2588	-2040	-3712	17839	1720	-13852	2816	7496	-25	-32768	22340	-10848	344	-8824	1967	-32768	1855	-14440	1532	-7092	-16430	-19247	8554	46	138	1
-12000	-2744	10452	1583	552	1218	-16332	-2544	-4400	-2493	3969	219	-18076	-324	436	-4344	14300	-659	-14648	3300	6800	3751	-32768	24404	-10792	-1356	-7572	1415	-32768	8662	-13700	-788	-8436	-19488	-15745	4987	9	128	1
-11928	-2276	10448	999	288	1144	-15508	-3056	-2656	-7489	3343	-144	-15240	-204	1024	-8894	17736	-1322	-16228	4944	8460	4907	-32768	22506	-11260	-640	-9052	-41	-32768	9701	-11568	-1412	-8780	-21493	-14579	4296	92	161	1
-11984	-2544	10288	647	117	1095	-14604	-5836	-2512	-6240	3708	516	-13440	-1656	1784	-6499	15875	-437	-20420	3424	8932	7184	-32768	19566	-12896	-2440	-9072	1519	-32768	11832	-9040	-2072	-8780	-20873	-12113	2930	121	166	1
-11944	-2460	10192	782	43	1256	-13848	-5484	-2640	-2458	4900	1257	-15436	-3072	144	-5271	14378	130	-21288	4600	9424	9533	-32768	18794	-14824	-3184	-10084	2001	-32768	13849	-6360	-2804	-8388	-17553	-8656	2389	151	182	1
-12156	-2492	10464	859	106	1444	-15664	-4060	-3124	-1021	5654	1538	-16940	-5788	-2412	-5675	13626	-205	-23884	6364	11944	10143	-32768	20338	-17528	-4148	-11228	889	-32768	14797	-4944	-3628	-7008	-11885	-4261	1689	73	210	1
-12148	-2164	10828	791	671	1393	-16376	-3420	-3228	-1692	6334	1702	-18712	-4008	-3588	-5560	11750	-969	-32768	6564	12220	11985	-31130	26005	-21284	-6280	-16812	-633	-32768	16555	-5200	-4448	-4092	-5361	-2063	1429	73	139	1
-12044	-1908	10968	609	1530	1329	-16296	-3000	-3064	-2137	6894	1826	-18348	-2280	-2996	512	8857	-75	-32768	3292	7640	13123	-29827	32767	-23248	-6192	-17824	1894	-32768	16822	-6092	-7148	-172	-2766	-2753	2809	101	129	1
-12300	-1816	10848	631	2556	857	-16460	-2768	-2220	-2877	7697	2190	-16868	-3180	520	2430	8884	1587	-32768	1892	-704	12337	-26457	32767	-21400	-3208	-21324	4453	-32768	15445	-9208	-3860	6248	-3888	-4806	4321	83	90	1
-12152	-2128	10796	806	3607	271	-15636	-4156	-532	-2615	9013	2765	-16592	-3092	3552	536	8888	1345	-32768	-1212	-11924	3105	-29081	32767	-18996	-2252	-20100	1205	-32768	13380	-14904	1640	13032	3410	-7119	4200	74	59	1
-11816	-3596	11596	193	4770	374	-14604	-7264	116	809	11507	3508	-16468	-1568	5000	362	8887	43	-32768	-8972	-22524	-6795	-22557	25569	-14320	456	-20780	-2642	-23110	10163	-22292	1964	20892	15898	-4221	5388	150	40	1
-11816	-4320	13116	-1195	7810	980	-16288	-4716	-3304	1808	13331	4058	-16592	1624	3924	-289	8968	-1549	-32768	-17664	-32768	-8636	-13051	15188	-7112	-3636	-23704	-10081	-8803	5510	-18748	9464	21292	11559	1407	8164	145	115	1
