#Activity	walking 
#ActivityID	1 
#Date 09-23-16-50
acc_rf_x	acc_rf_y	acc_rf_z	gyro_rf_x	gyro_rf_y	gyro_rf_z	acc_rs_x	acc_rs_y	acc_rs_z	gyro_rs_x	gyro_rs_y	gyro_rs_z	acc_rt_x	acc_rt_y	acc_rt_z	gyro_rt_x	gyro_rt_y	gyro_rt_z	acc_lf_x	acc_lf_y	acc_lf_z	gyro_lf_x	gyro_lf_y	gyro_lf_z	acc_ls_x	acc_ls_y	acc_ls_z	gyro_ls_x	gyro_ls_y	gyro_ls_z	acc_lt_x	acc_lt_y	acc_lt_z	gyro_lt_x	gyro_lt_y	gyro_lt_z	EMG_r	EMG_l	act
-10460	-8232	9040	-342	169	194	-15496	-3136	-752	-1570	464	-281	-15776	-4424	-4560	-1256	2125	-203	-13616	5256	13432	-740	-5960	2013	-10816	-3136	-7280	-1627	-5640	-273	-5352	-3424	-13856	-563	-826	1313	125	124	1
-10940	-6540	8780	-90	-9	268	-15696	-4048	-480	-1068	473	-260	-14616	-4192	-2824	-641	1870	-187	-20544	2688	18112	-799	-5931	2228	-17400	-4848	-10608	-1380	-6233	-665	-5768	-5040	-12240	-1341	-640	925	122	124	1
-10624	-7052	8044	159	-332	482	-13856	-4448	520	-619	571	-240	-13192	-2920	1152	-140	1593	-208	-29072	-888	21440	-355	-6185	2434	-19704	-8176	-10680	-410	-6345	-932	-5160	-3472	-10992	-1217	-508	453	120	124	1
-9836	-7176	9508	383	-383	580	-12800	-4096	792	394	697	-117	-13480	-1408	2576	384	1411	-135	-32768	1216	19368	17	-6139	2323	-20872	-6648	-9808	1658	-6111	-888	-3464	-720	-7648	-744	-354	420	123	124	1
-9860	-7424	10056	420	-349	605	-15504	2344	-776	376	781	-18	-16632	3328	-3024	190	2021	-438	-32768	5544	19712	-319	-5858	1514	-25376	4240	-10824	2417	-5968	-355	-3336	-608	-5440	-500	-150	736	129	131	1
-10244	-6760	10572	437	-327	664	-18344	1600	-424	-396	990	-238	-19840	3688	-9048	-581	2139	-72	-32768	2728	19696	-170	-5557	818	-27616	4120	-12496	1014	-6080	3	-8624	352	-48	-683	-531	646	132	133	1
-11972	-6040	9708	391	-280	731	-18440	1136	-792	-435	1012	-252	-17800	736	-2632	-515	1592	-192	-32768	2808	17064	797	-5676	834	-28024	3048	-12888	794	-6040	-15	-15504	3280	2904	-1064	-1222	483	130	133	1
-11244	-5768	9532	398	-218	661	-14336	-1696	976	-363	1470	-377	-15336	-704	4776	-271	1303	-401	-32768	4040	4184	744	-5288	1385	-27528	-5128	-19432	-318	-4746	-272	-29592	5008	9384	-1889	-2355	568	127	130	1
-10256	-3320	11700	265	142	380	-14752	-400	2640	145	1853	-244	-18008	3016	3168	-268	1283	-583	-32768	5880	-11728	-718	-3356	1855	-18944	-1952	-25712	-1084	-3784	-517	-26840	1024	10632	-1692	-2148	820	129	133	1
-10992	-4348	12108	20	585	168	-20128	2568	-184	-99	2173	-83	-24720	7200	-6840	-886	1329	-350	-32768	-7992	-25904	-668	-1528	1202	-10264	-792	-22328	-943	-2007	-273	-9312	-10504	31160	-454	-774	1043	132	132	1
-11436	-3536	13292	-319	1173	-65	-22192	5064	-2416	-415	2399	-226	-21880	792	-6032	-1074	829	-46	-32768	-952	-31200	836	-269	1077	-6176	5952	-23104	-373	3	311	-13960	520	28608	1193	501	79	129	127	1
-10932	-4944	15044	-662	1968	-337	-22240	2792	-4000	-535	2586	-288	-18136	-2560	-3272	-532	725	62	-32768	10536	-28208	124	1204	1116	-7544	5256	-20120	-796	1781	377	-20976	3488	16440	462	1095	-859	124	127	1
-11592	-6320	13356	-998	2971	121	-21792	-280	-2736	96	2659	-175	-20512	-2608	-2032	-124	268	413	-12944	12480	-8936	-2198	3278	577	-17056	1328	-6992	-168	2951	596	-18448	4352	1624	643	2222	-418	124	125	1
-10828	-6176	12272	-1259	3974	116	-22440	88	-2296	420	2699	-96	-22648	-3080	1384	303	-190	726	32767	-1696	32767	268	4295	992	-32768	-2184	32767	429	1652	-234	-13600	9816	-4360	139	3052	958	127	124	1
-11448	-7960	13880	-2132	5416	-315	-26976	-1392	1344	182	2859	-28	-27056	-3432	4080	910	-1124	770	-31936	-32768	8976	962	4166	-1913	-13888	-9952	-20552	-4573	1915	1240	-31168	12920	7392	-662	562	803	125	125	1
-11696	-12492	12512	-3050	6587	776	-31232	4360	3312	-9	3065	-278	-32768	2496	16456	1878	-3038	806	-28040	6592	25472	802	3279	-1259	-13280	-24360	-3856	-1559	2580	-468	-18848	10104	4408	-3397	-885	72	123	119	1
-13356	-15324	11276	-3716	7759	1603	-31968	5880	4040	-208	3061	-365	-21632	18720	18352	1590	-2922	1619	-9600	25568	6680	11	2726	-452	-31400	17168	-9416	1612	3087	503	-7472	-26584	-5792	-2215	1132	-1703	114	112	1
-23420	-24868	13460	-3585	8568	2319	-27208	6808	4104	-2912	2739	-990	-12808	32767	-4424	-999	-1275	1210	-22672	5520	22224	-737	2996	-1007	-29936	19416	-8992	930	2829	726	-17760	-5264	-9376	174	561	338	115	114	1
-31548	-9268	7152	-1998	7578	4078	-19984	-8832	1472	-2749	3094	-777	-21568	1464	-9056	-2795	-317	273	-25360	4624	24904	-945	2591	-1269	-19632	1408	-8392	-1285	1746	737	-11440	13448	-13360	2126	711	683	122	125	1
-32768	-18096	7144	-2162	5357	3434	-26448	-9504	-17176	-1934	3396	-396	-32768	-21760	-15560	-6401	-1360	120	-14568	-1832	17992	-100	37	-1151	-17888	-1208	-9824	-1098	1660	479	-14488	5608	-9776	434	943	358	126	119	1
-32768	-26452	14776	-4347	3775	1888	-25936	-5512	-14744	-1596	2960	-16	-27672	-6272	-12808	-2307	-2802	-970	-9104	2720	14024	215	-8	-636	-17944	-9056	-5768	-295	1398	337	-19104	384	-10568	237	1531	229	126	115	1
-32768	-32768	19608	-4374	3326	1691	-18184	-9288	-10624	-1029	1845	-46	-25472	824	-14952	292	-2751	-106	-11792	3616	13440	86	-18	-94	-17288	-2384	-5944	1687	1444	324	-16472	4824	-8464	549	1453	-140	121	113	1
-16356	-32768	27620	143	-3764	471	-11976	-12640	-3632	-543	543	-234	-23208	-4000	-11984	504	-2395	-372	-9240	4112	13832	170	17	-73	-19032	5360	-4520	1496	1120	187	-15624	4488	-5264	541	1479	-360	124	118	1
-11384	-32768	25424	596	-4197	401	-11600	-9200	472	379	-739	69	-24680	-1424	-13040	576	-1956	-295	-10008	4152	13632	220	2	-143	-18504	3192	-4768	1054	798	392	-15768	3232	-5712	787	1677	-328	127	122	1
1432	-11180	9980	1306	-5326	328	-9464	-4896	600	1370	-1554	118	-18640	80	-14760	502	-1876	-397	-9720	3336	13536	240	86	-108	-18448	2368	-3704	-206	468	426	-17160	2680	-4360	740	1769	-323	121	120	1
-1976	-12076	7932	988	-5556	-82	-6152	-1248	-2336	1492	-2070	28	-13664	-488	-13184	578	-1989	-379	-10192	4896	13144	219	274	33	-15760	800	-2680	-1081	200	32	-15944	1848	-2088	676	1805	-388	122	120	1
-1908	-11588	6292	888	-5766	-672	-5376	-432	-2288	1331	-2891	185	-11064	680	-13240	606	-1911	-359	-9664	5384	13152	87	342	47	-16344	-2672	-1352	-403	394	-121	-14496	2752	-3160	1125	1881	-360	124	122	1
-2556	-10688	5456	819	-5630	-1372	-7144	-752	-3488	1171	-3481	458	-9224	784	-13504	638	-1932	-462	-9392	4352	13080	11	264	-3	-14160	160	-1848	809	753	51	-14376	3544	-3376	1470	1857	-224	121	115	1
-4580	-10308	5796	771	-5378	-2160	-7192	-48	-3928	1119	-4103	699	-7160	-664	-14032	783	-1999	-628	-9728	4032	13040	69	201	-89	-15848	2568	-2440	869	724	127	-13128	3400	-2680	1693	1943	-327	123	119	1
-6600	-9956	6664	707	-5173	-2766	-8616	264	-4448	667	-4582	899	-5416	-1728	-14416	994	-2008	-581	-9336	4416	12976	125	165	-151	-16600	2472	-1040	663	645	7	-14368	5232	-3536	1637	1977	-615	123	120	1
-10496	-8492	8720	510	-4740	-3127	-12632	-1336	-6096	595	-5021	1031	-4136	-2392	-14008	1243	-1813	-531	-9720	4144	12568	67	160	-141	-15832	1304	-2368	80	593	64	-16048	5152	-3216	1191	2177	-750	122	123	1
-18292	-8884	13828	355	-4546	-3229	-15904	-1280	-10024	746	-5325	1080	-3328	-160	-14008	1945	-1557	-386	-10008	4040	12512	11	132	-74	-14640	320	-1240	-185	617	-16	-14808	3192	-1696	731	2267	-688	122	125	1
-20780	-6220	15136	136	-4453	-3194	-19896	-2744	-12104	1244	-5766	1236	-4464	1368	-11152	2412	-1269	-106	-9640	4240	12648	-10	71	-85	-14456	800	-464	-288	823	-5	-16216	2672	-1816	383	1963	-468	124	121	1
-27740	-9728	19352	-120	-4178	-3035	-22368	1448	-13000	1415	-5923	1585	-5288	2440	-7464	1927	-1038	36	-9192	4552	12808	-3	34	-171	-14224	792	-768	-369	872	48	-14792	1896	-1880	367	1597	-363	123	120	1
-28856	-17664	18660	125	-4078	-3219	-26376	3272	-12960	759	-6053	1554	-5816	3088	-6504	1262	-870	304	-8888	4032	13192	12	49	-206	-16064	-472	-2424	-237	962	118	-15144	512	-2736	533	1632	-313	122	124	1
-32768	-20020	13700	466	-3277	-3841	-26648	896	-14104	655	-6026	1356	-8544	5400	-4040	1062	-993	524	-9584	4264	13312	54	201	-198	-18368	-752	-3416	-12	1079	133	-16824	336	-4632	987	1887	-334	121	120	1
-32768	-20980	13204	921	-3123	-4818	-22096	-5584	-16240	537	-5258	1077	-14584	5680	-2048	1216	-1096	702	-9544	4096	12904	75	363	-233	-17832	-1016	-680	218	1189	203	-17472	1920	-2160	963	1529	-222	122	122	1
-32768	-6936	512	1769	-3533	-4608	-26280	-8400	-15344	731	-4454	971	-20512	6984	3952	1609	-1799	728	-9400	3472	13344	132	589	-270	-15096	200	696	222	1364	220	-17840	3136	1440	1009	1251	6	121	124	1
-32768	5328	-9976	1162	-2709	-3495	-22536	-4464	-23472	2383	-3675	841	-28688	12224	12512	1839	-2033	838	-8880	4256	14152	182	774	-253	-15512	-1208	232	32	1600	187	-19408	2992	-296	1352	1126	32	112	118	1
-32768	5608	-10532	1040	-2541	-3266	-14408	1344	-17800	898	-1676	894	-15464	16064	13128	1999	-745	-85	-9816	3632	13768	267	1272	-206	-18168	-728	-1576	22	1915	147	-17904	5872	16	1294	751	-82	98	114	1
-32768	11352	-26492	-146	-1807	-1120	-8016	1976	-23584	684	-911	213	-14464	9848	21080	259	-539	-47	-9664	4920	14160	364	1886	-129	-20856	960	-1624	-88	2184	130	-18672	7560	-400	877	687	5	102	112	1
-32768	16004	-32768	-526	-254	-294	-4584	-3168	-18200	-110	628	-549	-17496	7984	16600	-121	537	324	-13696	5056	16520	595	2656	-195	-21416	872	-2144	-426	2362	199	-23592	6736	-2392	-69	455	-124	112	114	1
-29460	-11752	-15360	-34	1568	597	-7448	-5944	-15464	-252	2226	-920	-17680	5584	9600	-353	994	247	-13112	4184	15720	996	3390	-322	-21040	-1440	-1120	-586	2599	277	-23680	9768	-2864	364	-271	-530	120	117	1
-3444	-5480	18852	934	2797	1922	-28160	-1520	14920	324	2513	-1142	-16728	4496	-1136	-739	2602	-465	-15296	7464	15568	807	4213	-244	-23072	-2472	-984	-428	2810	331	-22384	8120	-304	228	-502	-511	118	117	1
10392	-13172	32767	-1708	3035	2980	-32768	14288	7136	2723	1283	-11	-26256	11064	-1880	274	1985	-1498	-8680	10736	16552	890	5306	-300	-28520	-56	600	-145	2982	386	-25744	3296	12704	-503	-1550	-162	126	125	1
-32768	2368	4628	-759	2886	2028	-7976	2624	-17984	49	2993	-1236	-30872	-2592	8728	-824	156	-1112	-11088	13648	15448	930	6530	-712	-31648	-1384	3608	35	2888	769	-26456	1568	20048	-1245	-2527	-354	126	125	1
-19708	-20072	21288	-803	3085	1103	-9048	-22536	-32768	-1942	2666	-966	-10936	-2864	-14120	310	38	-233	-11160	16128	17776	1481	8332	-1580	-32768	-6000	11616	922	2784	1213	-25456	-8368	11160	-281	-2746	-658	117	122	1
-16908	-7852	7192	-739	2894	1056	-21384	-19496	-22120	-1331	2291	-1704	-9752	13952	-8880	390	1067	-823	-23632	4264	11872	2983	10067	-2517	-29488	-6424	9248	1982	2802	1456	-26216	-7368	4616	1293	-2334	-534	114	117	1
-30232	-17676	11432	357	973	1210	-15760	-13824	-14040	1578	1863	-574	-14920	-3416	-14320	-1060	747	-808	-32768	8960	10240	4007	9213	-2586	-23792	3656	-6688	3324	3278	1306	-23776	15648	-13264	3811	-1965	41	120	118	1
-15232	-4336	14516	1010	445	960	-21016	-2056	-10248	2022	1522	-443	-14880	-12328	-13992	-998	1075	-242	-32768	16112	17632	3504	4686	-4080	-31168	4344	-8248	3894	3736	888	-29960	12232	-12032	1956	-2438	640	117	119	1
-13532	-7012	11440	906	46	526	-15792	-1816	-6248	2147	1194	-402	-12856	-7008	-10432	1393	1009	-75	-32768	22672	23368	3426	4095	-2726	-22368	8624	-9264	2937	2622	561	-31264	3816	-8688	-367	-2587	1058	119	125	1
-10668	-5528	11612	628	-40	440	-17592	560	-3512	921	988	-381	-17304	1120	-9216	1621	1270	-601	-32768	31664	32767	2202	1110	-1349	-11040	10272	-17048	435	1428	180	-28976	-2592	-12160	-1295	-2418	911	125	130	1
-10056	-6316	12172	386	-98	485	-18344	984	-3704	-265	826	-343	-16920	1240	-6808	1046	1211	-438	-12848	32767	32767	-1166	-4381	537	-10432	3256	152	-109	-58	14	-25344	-4384	-11152	-979	-2714	851	134	128	1
-10676	-5796	10936	227	-50	378	-17360	-2008	-4920	-685	660	-336	-13616	2616	-6032	551	1493	-249	3048	10024	16904	-2893	-5015	1313	-9576	1312	6592	-241	-1042	83	-23944	-1984	-12384	-424	-2646	1257	132	131	1
-10300	-6472	10756	300	17	341	-18056	-920	-3936	-710	561	-347	-14888	872	-5664	26	1685	-260	6032	376	11920	-1792	-4784	2135	-7600	-96	936	-1159	-2388	233	-19432	-1776	-11536	-304	-2525	1496	134	129	1
-10708	-5448	10976	307	78	254	-17520	-3320	-4744	-339	538	-379	-15728	-96	-7016	-199	1884	-323	-6560	3096	15024	-848	-5066	2531	-3456	-1336	-4160	-759	-3051	49	-13784	-2160	-11696	-87	-2365	1244	129	130	1
-10052	-5220	11104	312	89	206	-16936	-3024	-4248	190	423	-282	-13936	512	-6440	-285	1839	-249	-8488	3792	14232	-1072	-5896	2339	-4040	1120	-3328	-338	-3868	113	-11376	-3320	-11568	-142	-2274	1015	134	129	1
-9512	-5004	11164	196	118	171	-16232	-1320	-2752	487	263	-90	-13080	2064	-4560	-444	1969	-89	-7528	-936	10576	-1119	-6235	2017	-6312	1080	-2344	-993	-4720	68	-7440	-936	-12272	-247	-1813	1022	125	129	1
-10908	-5612	10928	60	172	200	-14400	11336	-32768	27	353	77	-18048	3320	-5984	-815	2416	-126	-13112	-48	10752	-858	-6138	1784	-8080	-2616	-5400	-1328	-5281	-147	-6472	-2040	-13816	-644	-1276	1089	120	121	1
-9644	-4384	11440	9	158	221	-16760	2184	-1048	-708	-470	-149	-14152	1128	-2064	-1224	2764	-304	-19600	-272	14136	-714	-6376	1492	-11216	-3488	-8048	-725	-5778	-474	-5168	-3456	-12200	-889	-948	1011	125	125	1
-9388	-5432	10924	-141	33	149	-16552	-16	-880	-1541	400	-299	-16520	-1360	-2176	-1026	2465	-171	-24088	-1040	14984	-100	-6696	1476	-17848	-7592	-10216	-465	-6030	-703	-5112	-4824	-10344	-1421	-829	751	126	126	1
-10148	-4212	11188	-86	-13	140	-15648	-2568	-1360	-1111	387	-399	-17920	-2800	-416	-636	2408	-257	-28064	3448	15424	324	-6564	1612	-17880	-6104	-10488	871	-5932	-553	-4736	-5008	-10552	-1004	-635	288	121	124	1
-10496	-4740	11512	-80	-33	115	-16024	-472	312	-689	586	-252	-17720	936	-1416	-418	1971	-157	-28712	8440	17280	-143	-6126	1672	-20520	-2688	-11560	1411	-6031	-446	-3608	-2864	-8192	-106	-314	123	125	123	1
-10356	-6208	10472	-65	-15	145	-17104	-968	384	-657	726	-170	-16608	1656	-192	-318	1644	-117	-30136	7032	18344	-660	-5520	1803	-28136	-904	-10752	1288	-6157	-437	-4200	1096	-3384	60	-214	348	126	126	1
-10160	-4900	11120	-42	0	231	-15680	-640	-376	-602	962	-169	-16464	0	-1320	-308	1798	-327	-32768	7080	22560	-447	-5214	1848	-26952	2160	-14168	846	-5988	-293	-8832	3808	-488	-117	-438	537	129	129	1
-10208	-5616	10928	-74	86	257	-16208	-384	944	-552	1131	-192	-16616	1384	-1224	-371	1659	-370	-32768	5560	15872	-296	-5671	1561	-26296	2896	-16984	-16	-5581	-272	-9704	4472	112	-178	-536	591	128	127	1
-10576	-5492	10892	-52	94	253	-16640	-512	2928	-643	1378	-295	-18816	1352	-296	-566	1597	-471	-32768	2328	-504	6	-5180	1737	-25208	-2400	-18856	-1185	-4812	-513	-24224	5784	496	-1336	-1524	1069	126	128	1
-9148	-4896	11716	-108	316	350	-15592	-1680	1360	-219	1676	-269	-23096	424	-1728	-955	1570	-448	-32768	9096	-9496	-881	-3604	1631	-19744	-752	-23336	-1250	-3734	-738	-26336	4432	16384	-1953	-2486	849	126	129	1
-10416	-4364	12092	-225	644	359	-18408	2488	-576	-137	1925	-234	-18512	5144	-1280	-779	1153	-412	-32768	-6888	-23304	-712	-1975	827	-12008	-3496	-24056	-971	-2106	-459	-11400	-6232	28064	-1184	-992	739	124	127	1
-11024	-3028	12844	-443	1055	211	-19800	3112	-1800	-388	2138	-332	-18080	3208	-1256	-1033	878	-360	-32768	2920	-32768	1232	-721	782	-5760	4184	-22808	117	-152	342	-8088	-1448	23608	386	614	-357	120	124	1
-11468	-4244	13344	-447	1780	230	-19936	-576	-3632	-184	2395	-291	-17840	-2280	-2464	-737	490	-150	-32768	7336	-27160	-94	647	405	-6504	7392	-20256	-118	1539	529	-16792	3592	19472	682	948	-820	120	125	1
-11516	-5596	12920	-435	2558	235	-20824	-1248	-4440	485	2509	-254	-18776	-1152	-2944	311	57	-85	-32768	6120	-23880	-243	966	364	-13184	784	-11984	-102	2773	477	-18592	3896	3176	-2	1812	-421	128	123	1
-11144	-6764	12500	-460	3417	278	-21200	752	-3080	601	2649	-337	-22872	-3184	-4536	508	178	363	32767	-5768	32767	-539	3693	529	-32768	-12208	32767	1638	1781	-541	-9120	2584	-6144	-165	3560	391	126	122	1
-13076	-6564	13216	-739	4258	439	-24184	-32	-2752	195	2822	-387	-25256	-3872	1312	22	-327	667	-10968	-32768	14280	1160	4306	-2359	-26184	-1472	688	-3181	1415	934	-30456	9048	-1888	251	1867	440	127	124	1
-11236	-9516	13068	-1628	5310	1022	-29880	1816	768	9	2986	-531	-29504	1920	11960	690	-1484	455	-32768	-1736	18384	759	3459	-1679	-3136	-28256	-18016	-3442	1852	-229	-27808	14688	10512	-3039	-1319	713	122	114	1
-12996	-16304	12436	-2014	6047	1727	-31080	6616	5512	-1006	3220	-1166	-31176	11576	23176	2042	-4274	558	-13048	24328	14312	418	3260	-225	-27040	-3264	-2360	661	3164	112	-8528	-12400	9424	-3169	362	-902	123	121	1
-16224	-21404	13232	-1549	7162	2952	-32768	6040	4032	-2049	3027	-1656	-12656	24184	2648	107	-2622	1465	-18056	7392	16056	-124	3981	-299	-16776	7440	-4064	-390	2496	622	-14904	-15464	-3200	-332	963	-505	116	115	1
-22492	-8532	11932	-1577	7982	3955	-24080	2552	-1912	-2457	3067	-1409	-19136	10488	-4528	-2661	-1006	618	-27120	15816	17752	-484	1881	-1068	-17056	5960	-9608	-214	2126	710	-15656	7584	-12888	1326	321	489	119	116	1
-32768	-15352	14520	-3004	6631	3398	-23744	-8920	-3568	-2452	3236	-826	-29728	-9992	-18792	-5532	-240	152	-13064	3352	18440	-262	-75	-1139	-17568	5856	-9512	-537	1814	609	-9152	6456	-12528	1472	672	204	121	124	1
-32768	-22720	11180	-3727	4050	3609	-25824	-10680	-18656	-3081	3129	-808	-32504	-12112	-16168	-4170	-2013	-767	-14128	2472	13912	-42	-152	-739	-16416	-6192	-10896	-1450	1271	583	-16120	5488	-10392	831	1037	239	124	116	1
-4936	-29660	29472	-2509	1834	1987	-19600	-6696	-17000	-1800	2204	-507	-24848	8544	-14512	-575	-2550	-778	-13496	4640	13744	-103	-81	-254	-20008	-5936	-6744	460	1405	184	-18560	6264	-10536	485	1608	73	124	115	1
-31516	-32768	32767	-372	-2517	391	-13296	-7848	-5168	-228	546	-445	-25032	-1584	-16520	93	-2459	-387	-9440	4328	13608	-151	83	9	-17872	1960	-5408	1209	1256	-11	-16712	5192	-8280	180	1479	-203	123	114	1
7000	-23228	19960	1102	-3859	-81	-11256	-8552	3048	245	-632	-282	-25000	304	-13336	415	-2324	-397	-9480	4776	13392	-20	137	24	-17488	2944	-5008	1185	961	157	-15608	3512	-5848	259	1608	-314	129	127	1
5416	-11200	13444	1138	-3696	-179	-8256	-1928	-400	1542	-1572	-149	-19688	2976	-13760	152	-2021	-508	-9616	4552	13288	140	153	1	-18152	2520	-5472	995	631	259	-15528	2640	-5032	334	1665	-354	127	122	1
1168	-9748	12408	415	-4080	-1332	-5112	2920	-1576	1396	-2285	-56	-13952	3176	-13328	-101	-1910	-668	-9648	3632	13640	194	198	25	-17528	680	-4016	170	395	285	-16792	-152	-3456	456	1708	-413	124	123	1
-180	-9556	11520	124	-4408	-2186	-6744	2248	-1632	766	-3068	60	-10256	2152	-12752	-23	-1892	-523	-9216	4016	13544	245	291	108	-16464	384	-3064	-533	215	62	-15808	976	-1872	668	1825	-534	124	120	1
-3272	-8968	11064	416	-4487	-2697	-8928	368	-3384	497	-3638	100	-9024	136	-12840	157	-1852	-535	-8256	5592	13984	176	329	65	-16328	-2080	-1040	-471	249	-137	-14928	768	-1936	751	1805	-534	123	119	1
-7052	-5544	11592	732	-4585	-2855	-10096	-1472	-5512	649	-4230	214	-7032	-1744	-12528	332	-1738	-644	-8512	5456	12768	107	223	-75	-15336	-736	-464	590	452	-2	-15864	3832	-2928	1244	1894	-377	120	122	1
-12428	-3052	13912	486	-4823	-3005	-10496	-1392	-7336	736	-4846	569	-5920	-3104	-12608	870	-1649	-659	-8760	5432	12864	49	92	-185	-15752	1832	-1008	1354	545	86	-14808	4608	-4416	1435	1926	-239	122	118	1
-18860	-3188	14452	4	-5279	-2969	-12080	-1520	-7240	896	-5241	795	-5512	-2272	-12904	1510	-1501	-503	-9504	4976	12512	-1	-27	-302	-15560	800	-1848	1248	503	158	-14048	4872	-2944	1475	2047	-501	123	119	1
-21320	-5096	15412	-181	-5445	-2868	-15400	-56	-9616	1358	-5531	919	-4680	1072	-12200	1955	-1367	-372	-9816	4392	12512	-148	-111	-326	-15488	904	-1608	754	485	58	-14032	4664	-1528	1041	2048	-478	121	123	1
-22864	-6724	15704	-94	-5269	-2888	-19152	5528	-9320	1205	-5668	1201	-4064	3056	-10584	1845	-1025	-234	-9208	4640	12864	-336	-145	-348	-14464	1400	-352	7	529	14	-14488	1888	-488	941	2255	-535	123	125	1
-21020	-7080	15824	63	-4681	-3029	-20808	4240	-9320	359	-5744	1260	-3296	3016	-7984	1245	-718	-29	-9808	4160	12512	-431	-175	-290	-14520	1280	-568	-659	596	-42	-14576	2120	344	743	2223	-525	126	121	1
-23420	-8544	18128	53	-3894	-3161	-25248	1376	-10296	-31	-5876	1361	-3960	1128	-5984	908	-635	32	-8984	4280	13240	-340	-170	-270	-15208	8	-8	-756	827	-64	-15352	2344	-672	782	2017	-397	122	124	1
-26232	-9624	19828	-452	-3185	-3330	-28424	-88	-11000	234	-5918	1288	-7032	1032	-1688	848	-735	59	-9040	4752	13048	-278	-97	-270	-16240	-1136	-528	-764	1013	-19	-16744	1560	-1008	797	2016	-285	122	123	1
-32768	-16332	18968	-854	-3043	-4051	-28672	-2384	-13688	69	-5428	1126	-11600	2160	-328	993	-1022	222	-9664	3440	12776	-163	25	-253	-16592	-3120	-1000	-478	1256	35	-16736	2336	-2680	849	1900	-282	120	126	1
-32768	-18136	8036	185	-3296	-4183	-25624	-7776	-13576	452	-4762	840	-23496	6160	6592	1398	-1483	403	-8664	2048	13056	-44	229	-216	-17272	232	-496	-225	1443	48	-18104	224	-232	847	1626	-281	126	121	1
-32768	-7244	-7276	876	-2816	-3478	-18440	-4416	-9704	2107	-3982	1173	-30176	12752	11288	971	-2412	1434	-9320	3096	14104	27	476	-216	-16320	-216	936	-356	1558	61	-18472	128	-200	877	1370	-301	113	123	1
-32768	8708	-16688	327	-2275	-2629	-12216	-88	-14096	2373	-3298	1022	-24016	17848	9224	1203	-1238	678	-9648	4544	14040	155	717	-202	-15344	-192	-1832	-570	1677	29	-16880	4424	-1640	1068	956	-142	104	119	1
-32768	9592	-25300	-232	-1449	-2323	-3880	-7480	-7136	2141	-1120	212	-10592	7384	22184	756	-1735	523	-9504	3816	14264	186	1079	-155	-18376	616	-2936	-416	1936	-34	-16152	7360	-3136	830	751	-72	111	121	1
-32768	10928	-32324	553	7	-804	-5144	-4488	-18624	820	502	-239	-17544	2336	18096	707	138	428	-7760	3760	14544	245	1614	-219	-22024	1360	-4208	-278	2081	-41	-18264	6192	-2928	370	765	1	123	126	1
-32768	11804	-24440	838	1273	257	-8232	-4856	-20608	956	2032	-790	-17416	3784	10592	713	1038	406	-9560	3856	13984	452	2297	-329	-21392	-288	-2952	-361	2185	81	-19416	3976	96	-303	597	-73	123	125	1
-30988	4076	-8816	938	2824	1286	-17144	-4152	-10272	660	2876	-1048	-14640	5208	-352	679	2141	85	-12672	3000	16072	755	2891	-481	-19616	-2680	-936	-454	2437	161	-24736	4768	2472	-477	3	-329	120	121	1
22952	3588	32767	634	2394	1352	-32768	13736	31672	2588	1710	23	-14280	4968	-7784	894	3032	-1223	-9632	3416	17040	1121	3816	-407	-22408	-1880	1696	-247	2812	190	-30960	7312	1712	618	-935	-735	124	119	1
-8064	5344	15644	-1083	2643	3317	-27528	17048	944	2076	1386	-770	-24944	7736	2040	-118	1260	-811	-8720	7424	18520	821	4896	-584	-31912	-2496	1912	-187	3071	346	-31536	5608	14568	-489	-1960	-187	131	125	1
-29952	-5860	3928	-1306	3353	1683	-3704	10624	-10712	-697	2324	-728	-23888	1248	-1064	-386	54	-574	-11248	14840	18088	946	6378	-1095	-32768	-3624	4832	268	3287	822	-26752	904	20616	-1884	-4356	-103	120	124	1
-22772	-19900	16684	-1427	2966	1030	-24096	9128	10536	-2631	2328	-839	-8488	-3288	-5800	489	-930	-375	-10976	12192	16176	1227	8257	-2104	-32768	-5040	7792	873	3182	1193	-16360	-9424	12928	-65	-2748	-717	115	121	1
-17972	-13624	7348	-793	2714	983	-16584	-11768	-9296	-716	2215	-1175	-8952	9464	-2688	-27	508	-597	-26184	6056	16304	2833	9783	-2807	-28856	-4952	4672	1366	3172	1276	-26976	-3256	3792	1361	-1750	-674	105	118	1
-24496	-8788	13116	758	1098	961	-18808	-6232	-11432	1370	2055	-507	-15872	-3928	-14896	-1766	920	-647	-32768	19688	20864	3465	8312	-3525	-26464	5960	-6144	2831	3644	820	-27144	17200	-23168	4246	-1302	190	114	113	1
-14612	-5640	13460	872	555	768	-18560	-3008	-9152	1595	1741	-310	-14312	-12624	-11536	-1342	719	-129	-32768	15216	16320	2213	5301	-5030	-27296	2160	-8608	2968	3345	976	-30424	13200	-12592	889	-2541	758	112	118	1
-10328	-6884	11200	980	279	386	-14824	-1872	-5160	2046	1296	-349	-9520	-7040	-9224	1185	718	-252	-32768	21392	26152	3119	4527	-2844	-19992	8408	-11328	1970	2709	366	-29544	624	-8192	-1232	-2583	1360	118	122	1
-11556	-7184	11900	586	142	380	-17088	-1376	-5440	830	1135	-211	-16280	-1104	-10816	1439	1334	-428	-32768	32767	32767	808	920	-1511	-7928	8032	-18952	53	1278	19	-24832	-2768	-11592	-1789	-2620	883	123	123	1
-11600	-5628	11264	241	79	238	-17992	1312	-5616	9	885	-264	-17024	64	-8848	1235	1274	-199	-5384	27248	28672	-1312	-4152	830	-10296	4384	3880	-216	-226	-165	-25160	-2416	-10176	-1006	-2624	614	126	126	1
-10480	-6392	10924	81	129	167	-17984	-312	-4792	-634	694	-308	-14504	4184	-7488	768	1509	-30	10896	7704	12408	-2175	-4091	1773	-10200	16	6384	-341	-1138	77	-23632	-1504	-12392	-454	-2437	1206	136	131	1
-10300	-6544	10924	160	133	222	-17480	-1368	-4664	-760	579	-249	-15200	2184	-7312	-50	1612	-207	5128	3968	11304	-1329	-3689	2368	-5464	-704	-664	-999	-2227	143	-17464	-1248	-11304	-269	-2319	1451	135	129	1
-10136	-6096	10952	242	65	249	-17384	-3416	-4416	-539	384	-178	-15016	-808	-7560	-294	1689	-323	-5160	4768	15496	-939	-4046	2376	-4200	1312	-3488	-359	-2907	111	-13808	-3088	-11184	-83	-2263	1145	131	129	1
-9760	-6456	10812	300	-52	331	-17640	-3632	-3984	-83	181	-205	-13880	-440	-6264	-264	1711	-208	-10736	3488	16112	-1037	-5085	2170	-4448	3184	-5072	-641	-3784	245	-11568	-2416	-11376	-22	-2059	981	137	129	1
-10268	-6408	10448	286	-129	401	-15808	-1144	-2200	304	70	-197	-14064	560	-4536	-346	1837	-169	-9632	816	12224	-818	-5932	2073	-5976	1640	-2264	-1457	-4625	169	-8984	-1680	-11760	-237	-1676	1052	126	127	1
-10092	-5360	11020	203	-111	351	-16296	520	-2144	180	63	-29	-15088	2048	-3680	-507	2117	-157	-9760	752	10456	-480	-6004	2014	-7808	-2696	-4416	-1542	-5166	-68	-6680	-1944	-14496	-474	-1350	1099	121	119	1
-10168	-5128	10576	85	-154	174	-18816	728	-7656	-276	-309	-100	-14136	2048	-1992	-840	2667	-240	-15104	1240	13008	-387	-5858	1879	-12168	-4768	-7016	-845	-5579	-484	-5728	-1960	-12064	-652	-954	1019	117	121	1
-9116	-5856	10920	47	-146	127	-16136	2016	-1208	-1179	308	-187	-15024	872	-1976	-1100	2450	-117	-22776	1792	15640	-194	-5904	1832	-16680	-5208	-8960	-536	-5886	-588	-5872	-4120	-9976	-1007	-780	756	120	123	1
-10752	-4520	10820	117	-97	155	-16824	-1536	-320	-1355	320	-323	-13880	-1088	592	-916	2459	-286	-27152	2984	18056	-57	-5870	1925	-19504	-5552	-9992	271	-5940	-638	-5304	-3024	-9216	-1109	-764	431	127	127	1
-9988	-5324	10664	50	-101	154	-15576	-2600	-32	-916	513	-211	-16072	-1496	-336	-769	2468	-342	-29840	6288	18888	-187	-5772	2104	-21384	-4296	-10688	899	-5918	-608	-4216	-1312	-7136	-430	-477	280	125	126	1
-10088	-5748	11044	15	-68	239	-16736	-504	648	-608	669	-139	-17256	520	-416	-266	2075	-423	-32328	9208	18792	-466	-5522	2147	-25816	-3792	-10184	1344	-5931	-419	-3280	240	-4448	-246	-45	420	129	131	1
-10716	-5472	10728	7	-75	196	-15696	1336	2768	-605	876	-158	-18760	896	-1256	-220	1651	-279	-32768	6592	21096	-806	-5309	1955	-25112	2256	-11176	854	-5896	-230	-6824	1368	152	-514	-142	563	128	128	1
-9856	-5844	10636	19	-57	270	-13944	-568	2568	-739	1174	-205	-20144	-24	-2016	-417	1390	-186	-32768	2208	17600	-369	-5543	1703	-26728	952	-12512	8	-5711	-338	-11784	3880	1256	-1082	-683	553	131	129	1
-9484	-6404	10996	58	-19	346	-16016	-3280	1424	-306	1402	-186	-18352	-608	152	-530	1220	-217	-32768	2128	8008	-50	-5350	1632	-25528	-2192	-15704	-995	-5046	-512	-21936	5448	560	-1736	-1372	575	127	129	1
-9724	-5868	10956	77	96	421	-17872	-1856	1624	67	1700	-227	-18024	-504	2776	-509	1381	-387	-32768	6536	-1256	-977	-4184	1764	-23856	-2976	-19744	-1632	-4135	-880	-32240	4256	16400	-1953	-2598	547	125	132	1
-10068	-4648	11752	28	357	431	-17216	40	864	368	1925	-181	-20392	2088	336	-424	1521	-653	-32768	3824	-17920	-1948	-2472	1202	-16176	-4264	-19560	-1962	-2991	-979	-15800	-3984	20576	-2019	-1485	754	128	132	1
-10528	-4796	11984	-125	709	421	-17456	1424	-144	375	2228	-243	-21560	3848	-6960	-666	1292	-226	-32768	-7920	-30056	257	-1100	997	-5168	1576	-21984	-771	-1106	-131	-13000	-11384	31680	-346	65	-152	126	125	1
-11020	-4428	13272	-273	1176	394	-19560	1888	-4080	617	2386	-281	-18704	1744	-2456	-389	596	47	-32768	5120	-29928	667	-30	889	-6712	6448	-19408	-90	795	373	-15688	936	24336	500	484	-838	126	125	1
-7700	-6196	15864	-221	2039	310	-23600	1768	-5040	597	2611	-279	-18608	-976	-3320	-173	620	35	-32768	1944	-21040	-735	1376	141	-9472	5432	-17624	-129	2374	490	-20352	4016	12648	136	1001	-557	122	122	1
-11116	-4292	12124	-335	2999	367	-22568	1200	-5952	642	2754	-404	-21296	-1648	-3368	70	226	240	-7272	13960	21976	-1261	1627	-248	-23216	-3400	13512	1042	2632	214	-17712	32	-4632	871	2771	37	121	122	1
-10000	-6480	14680	-301	4090	374	-22424	944	-3376	540	2817	-391	-21696	-1192	320	350	-405	449	30480	-2928	30744	1412	3264	-1456	-32768	-3600	32767	273	1400	548	-18016	824	-144	590	2887	749	127	125	1
-16252	-10436	14788	-1053	5317	638	-28288	-376	-1448	75	3001	-368	-25648	-1400	2464	624	-826	559	-32768	-13896	9136	1486	3568	-2349	-6040	-8672	-27520	-3061	2013	1236	-27464	17048	10832	126	-134	572	127	124	1
-12456	-13232	13788	-1800	6099	1389	-29488	3144	2408	-150	3050	-765	-31368	3704	12560	692	-2220	567	-18688	8984	27200	661	3366	-597	-19600	-17552	608	-654	2485	-336	-16640	9184	4024	-2353	-531	438	124	121	1
-13968	-17012	14408	-1758	6950	2339	-32768	7672	6360	-1355	2925	-1289	-32768	12584	21288	3052	-4510	1135	-13592	20792	8168	511	3457	-226	-27984	12072	-7872	1499	3043	724	-11848	-22312	-6560	-1257	1035	-1034	120	115	1
-12172	-15840	14840	-1729	8588	3725	-32768	7456	10616	-1904	2113	-1573	-9248	28064	-6384	-1581	-1412	1796	-17440	19384	10120	265	3616	-408	-11000	6920	-8304	-441	2086	573	-16072	-1024	-8416	968	566	267	122	122	1
-27228	376	7144	-2084	8820	4343	-20064	-1600	-400	-4074	2736	-1304	-20936	2544	-2088	-2816	-1039	559	-15984	6144	13848	-752	925	-885	-19408	6880	-7848	-253	1984	693	-9448	15584	-14248	2065	627	571	128	120	1
-32768	-18568	5972	-3402	5787	3451	-23864	-10128	-5824	-4114	3179	-474	-31928	-12872	-18448	-5914	-132	37	-16760	4328	18192	-367	401	-926	-17512	2544	-10712	-1761	1478	457	-13184	7032	-9720	232	956	206	127	125	1
-32768	-27544	15616	-3208	4818	3704	-26576	-11360	-14024	-3214	2400	-705	-32768	-8760	-15080	-3789	-1977	-1179	-10184	2728	14792	-90	-94	-591	-18472	-9984	-6792	-1757	1144	35	-19504	1096	-10176	-236	1624	-17	127	118	1
-11172	-24828	22896	-3935	2798	1654	-17160	-4376	-12456	-1311	1527	-112	-22752	6944	-15192	-417	-2439	-956	-9848	2432	14560	-93	39	-235	-17248	-4976	-4368	431	1280	222	-16808	2400	-7512	-6	1604	-228	124	114	1
-24444	-32768	25148	-1744	-599	-254	-12056	-7152	-10336	35	48	-107	-22600	-1848	-13856	111	-2525	-590	-10000	4320	14040	-25	37	-67	-17384	1392	-6120	1514	1114	146	-16400	3096	-6104	389	1652	-229	123	122	1
-7268	-32768	22944	1296	-3076	-1491	-7056	-5768	1136	-204	-927	-233	-20872	-8	-12832	563	-2457	-406	-9960	4144	13544	23	76	-118	-18032	3000	-4160	1599	859	310	-15376	2720	-5376	789	1647	-278	122	119	1
-6676	-18436	14768	2796	-3986	-1592	-6200	-3680	-1648	822	-1559	-431	-17520	1488	-13432	469	-2144	-543	-9392	4224	13808	151	101	-192	-19384	1704	-3512	1020	559	458	-15528	3728	-4240	924	1790	-259	127	121	1
-5192	-6848	10412	2569	-4922	-2181	-6624	-2000	-2376	1874	-2346	-311	-12312	2888	-12136	221	-1968	-638	-9448	3736	13632	146	187	-65	-16904	3600	-1944	-292	349	354	-16992	2680	-2224	722	1982	-354	124	119	1
-5260	-1852	8524	1527	-5386	-2611	-7640	-360	-2200	1563	-3052	-205	-10448	1440	-12840	179	-1758	-599	-9368	4048	12840	67	225	-68	-14160	392	-2984	-939	253	-91	-14400	1928	-2744	755	1879	-439	119	121	1
-10564	-3344	8784	561	-5776	-2800	-7832	-2136	-4672	1121	-3774	-171	-8960	1192	-13096	393	-1725	-540	-9008	5088	13032	36	181	2	-15464	-2896	-144	-186	540	-182	-12976	2016	-3072	1270	2046	-457	123	119	1
-12352	-5192	9192	270	-6141	-2800	-8248	-1312	-6160	1141	-4444	-69	-5976	-648	-12856	515	-1833	-537	-8992	4376	13048	-30	126	-114	-16064	432	-984	793	734	4	-14352	3800	-4080	1805	2223	-383	124	121	1
-11712	-2924	8984	210	-6066	-2639	-10472	-616	-5904	1461	-5096	255	-4616	-2192	-13008	846	-1772	-551	-9688	3560	13304	56	92	-229	-16008	208	-1720	867	688	50	-14944	4784	-2592	1952	2298	-546	123	124	1
-15788	-1220	9392	-83	-5728	-2662	-11928	3664	-5648	1783	-5366	615	-4384	-1528	-13104	1249	-1489	-513	-9552	4104	13096	91	98	-244	-16464	1040	-696	486	624	40	-16272	4896	-2904	1484	2524	-715	124	123	1
-19736	-5924	13276	-353	-5381	-2833	-16744	4504	-8320	1073	-5597	961	-3848	112	-12608	1748	-1210	-434	-10040	3496	12808	-21	114	-154	-15184	1184	-1824	-82	578	10	-15296	4088	-3384	914	2494	-857	123	124	1
-23236	-9304	16156	-166	-5117	-3043	-19040	4592	-10192	472	-5784	954	-3112	2760	-11536	1618	-775	-277	-9768	3736	12776	-30	103	-99	-14688	32	-1240	-664	649	-14	-14032	2032	-1920	75	2131	-624	123	124	1
-23324	-8984	18108	9	-4536	-3463	-22808	3528	-9056	148	-5960	1087	-2968	2840	-11200	1535	-689	-253	-9776	3696	12432	-59	93	-125	-13440	32	-968	-690	769	-6	-14408	1152	-1912	40	1858	-448	119	123	1
-27616	-11616	20276	110	-3849	-3737	-28512	2552	-9104	-129	-6091	1199	-5728	376	-3720	641	-853	-77	-8928	3616	13056	-12	75	-166	-15128	-584	-840	-611	927	81	-15800	2216	-3056	193	1688	-430	120	122	1
-32768	-14772	19276	-32	-3341	-3849	-32344	1752	-11240	-262	-6012	866	-11048	1328	-264	505	-1299	95	-9528	3728	13000	23	185	-170	-17336	-1176	-2224	-389	1056	63	-17208	1184	-3624	323	1744	-417	117	121	1
-32768	-15636	15132	-297	-3288	-4288	-26584	-8608	-12536	132	-5366	230	-15368	1896	-880	999	-1307	175	-9624	4032	13176	59	334	-188	-17760	-592	-1376	-106	1214	117	-18640	632	-3912	670	1783	-330	120	122	1
-32768	-13600	4668	432	-4127	-4283	-23032	-9304	-15992	1147	-4557	530	-32768	7456	9776	1710	-1987	530	-9864	3712	13552	82	464	-193	-15088	-792	-48	-7	1394	147	-17720	928	-408	838	1469	-101	118	126	1
-32768	2476	-13680	290	-3514	-3594	-23256	-9600	-32768	2634	-5022	351	-27184	6448	7992	2702	-1887	166	-9368	3032	13560	148	645	-198	-15432	-1704	-184	10	1651	142	-18208	304	1352	1106	1158	47	110	119	1
-32768	10300	-22196	352	-2309	-2417	-10864	4656	-22976	3016	-1934	755	-14560	16416	16616	1306	-1590	332	-8824	3936	14256	227	1045	-146	-18336	-1808	24	71	1991	108	-19208	3960	504	1311	901	95	103	122	1
-32768	11900	-32768	520	-1205	-2105	-2312	1496	-19640	1744	-757	135	-11528	7824	25576	878	-555	473	-9200	4120	14392	305	1600	-158	-18792	1344	-720	-61	2261	113	-19248	8752	-944	914	664	222	110	122	1
-32768	16552	-32768	850	1058	-814	-5312	-5784	-19152	1014	1278	-582	-16472	6560	17832	808	624	856	-9496	4864	14192	472	2346	-170	-20408	1224	-1816	-466	2489	97	-20888	8768	-2152	50	354	39	118	123	1
-32768	11928	-14532	481	2617	688	-9256	-6616	-15576	754	2700	-1014	-17520	5488	7048	916	1617	423	-10928	4464	15112	693	3110	-282	-21224	-1152	-1672	-748	2730	175	-23728	8160	-2328	-35	-96	-402	123	122	1
9668	-3404	32767	1070	3117	1136	-32768	512	32767	1691	2122	-740	-15024	4880	-8656	191	3187	-459	-13504	5584	16784	1170	3980	-338	-24120	-3288	-976	-660	2973	254	-23264	6176	4384	-495	-746	-487	122	123	1
-6520	1472	28308	-1707	2243	4572	-32768	18400	2272	4103	1177	-736	-29288	8264	1648	-175	2113	-1303	-7376	7064	19376	627	5068	-468	-29832	-1792	2240	-320	3291	350	-27984	4168	9896	-807	-1463	-361	126	125	1
-32768	1276	-2112	-739	2980	2624	-3456	8840	-16384	-565	2952	-1153	-26472	-2080	11640	-107	-1044	-818	-9392	10504	18360	1070	6603	-979	-30840	-3592	4824	-90	3322	688	-32768	3176	27344	-1502	-3523	-390	127	124	1
-21880	-26568	16604	-782	3120	1424	-23800	1456	-5760	-2986	3869	-1274	-11760	-5232	-9832	-351	387	-649	-9448	13640	19480	1427	8454	-1678	-32768	-7592	8264	868	3206	1147	-16224	-11408	7888	-480	-3219	-963	120	124	1
-31884	-14884	16028	-196	2729	1491	-20768	-16968	-13408	-3297	2741	-1964	-9248	14040	-7464	776	520	-627	-16904	5296	12456	2931	10522	-2641	-31632	-7152	8504	1867	2811	1275	-22056	-15008	3440	1183	-2292	-971	111	118	1
-18756	-2028	13200	1239	1175	1308	-11112	-10824	-15136	1123	2328	-806	-11632	-5600	-18080	-1685	689	-1119	-32768	16080	17160	4470	9337	-2068	-22952	6456	-4840	3572	3466	932	-27560	16800	-23368	4807	-1205	-52	124	118	1
-19732	-8056	11984	968	-12	935	-20560	-4648	-13152	2008	1829	-60	-14608	-12256	-14696	-1290	1087	-131	-32768	17160	8472	2758	5118	-5126	-26704	3744	-11120	3593	3301	987	-29704	14248	-17392	2782	-2193	822	121	122	1
-10480	-916	14100	964	-117	413	-15816	-1192	-8312	2649	1309	-134	-11880	-7184	-12432	1414	921	-132	-32768	25512	23208	3604	4325	-3251	-22384	8392	-10864	2896	2477	727	-31680	1832	-6560	-518	-2703	1448	127	128	1
-10860	-7952	10572	510	-47	187	-19616	-696	-5920	1834	1066	33	-17056	264	-13296	1850	1344	-431	-29912	32767	32767	2323	747	-902	-10112	8536	-20176	711	1366	114	-26888	-3688	-13832	-1572	-2651	987	126	130	1
-11016	-5176	11412	232	32	171	-18616	2016	-6080	283	847	-172	-18864	1176	-9624	1331	1410	-167	-13024	31656	32767	-1074	-4249	938	-9464	6080	32	205	-161	40	-26160	-2192	-11640	-905	-2805	738	133	132	1
-9692	-5840	11800	-32	140	131	-17688	952	-4160	-193	516	-257	-14416	4328	-5584	809	1549	-39	1288	10584	15224	-2838	-4622	1492	-8744	880	5536	200	-992	270	-24928	128	-12680	-261	-2466	1009	138	135	1
-10140	-5876	11280	-25	186	134	-17664	984	-3792	-1174	515	-472	-15088	560	-6464	-32	1764	-286	4264	-504	9232	-1759	-4578	1962	-7456	968	-720	-182	-2072	382	-19168	-672	-13104	-221	-2162	1470	138	130	1
-10424	-6308	10924	82	158	124	-17200	-3720	-4856	-1483	514	-445	-15560	-832	-7384	-385	1854	-394	-4184	2064	11352	-638	-4639	2203	-5696	3264	-3888	-139	-2869	424	-15424	-1840	-12248	-96	-2185	1373	135	135	1
-10128	-5772	10996	84	111	127	-17472	-4448	-4256	-1108	396	-363	-14080	712	-6664	-621	1823	-255	-12576	6744	12728	-617	-5331	2005	-5104	4728	-5720	-875	-3692	610	-11408	-2192	-11872	58	-2068	1176	126	128	1
-9752	-5212	11072	39	84	149	-16424	-3104	-2888	-555	246	-335	-13864	400	-4640	-1024	1907	-202	-11864	3592	10744	-946	-6099	1815	-4792	2200	-4096	-1944	-4375	612	-8120	-1960	-12096	-34	-1739	1165	126	131	1
-9720	-4960	10956	-26	94	218	-16936	-416	-2224	-376	228	-148	-13272	776	-3216	-1449	2243	-211	-9768	2152	8232	-719	-6104	1940	-6968	-2184	-4312	-2197	-5135	252	-6600	-912	-12856	-204	-1399	1293	120	127	1
-9944	-5780	10596	-67	71	216	-17088	-14136	32767	-3447	1306	5	-11136	3320	-3400	-1994	3206	-159	-12696	4776	10808	-578	-5784	2091	-11192	-3320	-5912	-1824	-5574	-233	-6120	-888	-12424	-781	-1120	1244	120	121	1
-9952	-6452	11224	3	52	151	-17024	-2208	2664	-1009	-617	-110	-12080	-168	568	-1347	3160	-624	-20368	4456	14864	-589	-5688	2282	-16048	-6616	-9240	-1597	-5758	-655	-5952	-2968	-11752	-1353	-1047	1109	126	124	1
-10164	-5228	10844	-4	-15	170	-14272	-216	240	-945	577	-141	-22016	-2800	-1704	-615	2665	-436	-27776	3024	17840	-622	-5822	2435	-16568	-7256	-9968	-551	-5940	-656	-4384	-4208	-10648	-1617	-1054	729	126	126	1
-10536	-5636	10184	99	-88	147	-14336	-3264	1688	-395	605	-53	-19424	-6504	-1544	-512	1717	-35	-29280	4256	18096	-547	-6062	2574	-18168	-4544	-9112	792	-5890	-802	-3136	-3656	-9312	-988	-829	477	123	123	1
-9308	-6484	10744	139	-133	308	-16328	-2336	3216	125	809	-158	-17712	64	-872	-88	836	101	-29856	5480	19528	-720	-5757	2352	-25016	-880	-9048	1454	-6039	-682	-3328	-536	-5696	-580	-487	497	126	126	1
-10792	-4512	10964	164	-81	311	-16360	-480	-1080	361	1085	-113	-16272	2024	-336	319	1307	-30	-32768	5536	20504	-748	-5378	1963	-29080	904	-11512	1021	-6103	-345	-7096	2648	-720	-586	-576	532	124	126	1
-9932	-5368	10980	64	3	266	-17944	648	-1856	218	1097	-114	-14288	1840	-1776	-3	1931	-231	-32768	5200	19160	-452	-5265	1608	-26952	2120	-15120	285	-5986	-317	-13344	4592	2272	-1198	-1020	491	128	130	1
-10296	-5328	10888	34	108	286	-17664	-16	1056	-126	1300	-282	-16784	2192	128	-234	1859	-392	-32768	4640	10360	-125	-5485	1495	-27264	1208	-17544	-510	-5222	-446	-21608	5088	-1440	-1635	-1372	733	127	130	1
-10084	-5308	11164	-23	195	307	-14664	-32	2840	-90	1592	-300	-24968	176	-1032	-485	1574	-544	-32768	7000	-7656	-494	-4814	1948	-23448	-2408	-21280	-1365	-4194	-644	-28760	2488	7664	-1963	-1799	804	126	130	1
-9240	-4944	12292	-130	469	340	-17672	152	-424	163	1847	-258	-21320	4240	-3336	-685	1082	-328	-32768	6344	-22768	-1391	-2768	1404	-14184	-784	-22152	-1779	-3261	-717	-11320	-6720	22184	-1472	-1461	901	127	132	1
-10800	-3860	12840	-340	956	292	-21840	3184	-3016	21	2051	-319	-16456	6928	-1664	-767	1067	-380	-32768	-3384	-28592	278	-1074	1438	-7272	456	-25200	-786	-1030	44	-8520	-3320	25808	-122	133	131	122	124	1
-8880	-3596	14404	-352	1668	261	-20480	3304	-2112	-391	2289	-422	-20056	-576	-408	-1055	775	-255	-32768	3368	-32768	554	-239	1386	-5120	6584	-22544	-220	738	357	-15024	-640	20320	711	1045	-648	122	124	1
-10128	-5504	13988	-478	2431	185	-19608	-96	-1832	-107	2533	-407	-21288	-3536	280	-310	263	-19	-32768	2592	-32768	347	15	1315	-10184	5336	-19216	-620	2144	515	-19576	3416	8264	248	1344	-629	119	122	1
-10792	-6776	12532	-480	3401	249	-21216	-1392	-3224	438	2729	-384	-22432	-1128	-2336	255	-343	236	-10664	-6328	23792	-2296	1530	-539	-24576	-6376	27240	1040	2344	233	-17680	2304	-5080	443	2817	113	125	121	1
-13024	-7804	12284	-782	4457	527	-23840	88	-1344	483	2935	-498	-25144	-2896	1216	86	-394	768	22192	-27768	28232	2226	2501	-2476	-32768	-3688	18608	-1142	1342	890	-25632	6392	-1440	271	2573	640	123	124	1
-12792	-10200	13476	-1661	5586	1207	-31720	704	248	-118	3199	-547	-29736	184	9320	436	-1077	664	-32768	-9944	8912	1405	3608	-2554	-1080	-22200	-26400	-3057	1901	583	-26728	13224	13720	-1096	-620	361	123	116	1
-14188	-17000	12684	-2147	6408	1881	-32768	5872	4280	-952	3053	-1219	-32768	4096	22680	2272	-3948	631	-12432	23032	19744	849	3336	-161	-22440	-7616	-2248	596	2478	109	-9984	-1960	6544	-2242	-18	-501	125	119	1
-12952	-19740	16652	-1871	7863	3058	-32768	8632	6048	-2061	2770	-1753	-13760	28096	5704	-68	-3262	2020	-20192	13056	12944	134	3881	-249	-26288	11880	-7680	1081	2885	883	-12768	-17376	-2296	-721	885	-809	123	127	1
-23512	-13644	10180	-2110	9165	3951	-24840	1944	3056	-2513	2898	-1429	-17720	14616	856	-2200	-1557	864	-22824	15184	15680	-758	2107	-1070	-14800	7488	-8216	-645	2188	548	-17760	4152	-8952	822	403	648	123	121	1
-32768	-7504	12840	-3090	7682	3508	-19584	-11280	-2008	-4303	3016	-1123	-29344	-9440	-16368	-5165	-34	291	-12152	2688	17552	-605	678	-957	-17896	4368	-5928	-828	2010	562	-7128	8240	-14224	1645	542	254	125	127	1
-32768	-15636	8180	-3941	4174	3703	-28840	-9208	-15992	-3390	2706	-637	-32768	-16512	-18520	-5394	-1163	-668	-17912	3544	16336	-485	310	-956	-15072	1976	-11512	-1779	1526	402	-14160	4544	-10696	715	969	52	126	119	1
-27828	-24864	25844	-4407	2502	1671	-17600	-7088	-17472	-2716	2572	-504	-24648	3312	-12888	-1752	-2310	-1199	-12720	4472	14904	5	-13	-628	-19352	-9216	-7448	-828	1240	-18	-18384	4992	-9960	413	1480	69	122	116	1
-32768	-32768	32760	-795	-773	785	-11808	-7968	-13128	-846	951	-98	-23576	-360	-15888	52	-2315	-753	-10480	2840	14784	-144	67	0	-18312	-2576	-5800	1069	1312	74	-16888	5776	-8808	-28	1482	-170	122	116	1
-5984	-30952	24192	1437	-4315	-742	-9120	-12104	-176	106	-126	-19	-23136	-2152	-11552	388	-2429	-572	-10624	5024	13224	-4	113	-29	-17808	1232	-5504	1453	1070	68	-15864	792	-6912	60	1665	-471	127	120	1
6140	-14032	6628	2645	-4162	-188	-8456	-4984	200	1269	-1132	-52	-20648	-1696	-13288	520	-1981	-587	-9720	4768	13336	142	163	-40	-17920	3056	-5192	1723	838	189	-15336	2488	-6096	562	1763	-514	124	121	1
4920	-2700	6104	1859	-3687	-674	-6608	-104	-1104	2230	-1731	-79	-16392	1336	-14056	423	-1991	-640	-9728	4520	13232	199	202	-55	-17576	3400	-3120	874	563	301	-15104	1936	-5032	622	1827	-384	126	123	1
-1432	-5776	7664	523	-3951	-1715	-4872	2496	-3936	1588	-2390	44	-11360	2216	-13104	339	-1932	-555	-9032	4176	13736	270	340	-62	-16408	832	-2184	-138	317	140	-16376	2384	-3072	726	1843	-438	127	119	1
-4112	-10560	8348	105	-4475	-2292	-4664	312	-3224	859	-3160	133	-9016	3424	-12432	518	-1868	-458	-9280	5416	12536	244	419	-13	-16560	-584	-1888	-644	231	-28	-15176	4592	-3176	599	1898	-588	120	117	1
-4632	-7960	8008	374	-4625	-2535	-5936	-1272	-3760	789	-3705	133	-7832	2544	-12472	537	-1905	-500	-9048	5440	12560	93	321	-87	-16416	-496	-1608	-370	337	-151	-15232	2760	-2184	670	2022	-468	117	117	1
-6492	-4784	7980	595	-4623	-2696	-6512	-272	-3944	1328	-4281	222	-5888	504	-13072	510	-1837	-618	-9392	5144	12144	-47	174	-188	-14960	-1320	-744	486	514	2	-14224	3232	-1600	1111	2185	-334	122	119	1
-9232	-4128	10088	609	-4552	-2923	-9160	1136	-4760	1448	-4705	559	-4168	-464	-12768	624	-1822	-620	-9504	4680	12440	-90	71	-294	-15632	1816	-520	743	623	141	-14080	5648	-904	1334	2185	-292	121	117	1
-14012	-5148	13984	645	-4590	-3064	-9632	1144	-5152	1454	-4773	599	-3128	-672	-12528	799	-1614	-504	-9536	4104	12248	-160	10	-355	-15056	2200	-1056	274	577	80	-14712	4040	592	685	1980	-462	122	119	1
-17784	-6380	16744	619	-4732	-3278	-16856	2752	-8208	1427	-5342	1036	-2496	-1936	-13008	1330	-1140	-339	-9784	4288	11920	-161	-12	-361	-14848	1184	-928	-284	631	3	-15104	1624	768	546	2122	-641	121	123	1
-21152	-9976	18356	787	-4725	-3501	-22048	1408	-9712	1316	-5658	990	-3208	-840	-12120	1847	-566	-399	-10424	4120	12264	-317	-124	-270	-14080	-376	-808	-512	783	43	-15712	2080	1304	740	2176	-466	120	118	1
-25332	-11960	19880	1032	-4369	-3845	-22136	1008	-9936	1287	-5701	1006	-5008	1672	-7848	1676	-276	-314	-9408	3752	12592	-281	-159	-215	-13824	-936	1296	-284	1117	34	-17040	1352	-48	739	1876	-150	119	121	1
-31228	-14060	20440	1222	-3995	-4050	-26488	-1536	-10688	1648	-5985	1927	-6616	1216	-2464	1427	-585	-26	-9368	3928	13008	-259	-152	-227	-15008	-392	72	-200	1338	56	-16608	2184	-2864	723	1506	-170	119	117	1
-32768	-13132	16880	1167	-3613	-4105	-28008	312	-11480	1738	-5814	2069	-9512	1512	-440	1944	-691	349	-9512	4112	13112	-61	47	-265	-16888	-256	-3472	-357	1475	48	-14880	1784	-2624	723	1388	-155	120	122	1
-32768	-11852	12144	836	-3460	-3965	-27248	-1856	-13056	1201	-5296	1913	-15608	5464	480	2380	-739	616	-9840	3792	13096	-58	218	-166	-17072	-736	-928	-380	1642	89	-17008	2200	-1944	818	1455	-115	128	126	1
-32768	-7352	6268	862	-3873	-3628	-27584	-3984	-20744	822	-4364	1565	-32768	15000	25392	2598	-2470	1127	-9784	3880	13312	-39	445	-162	-15600	152	-1048	-455	1805	124	-17384	960	-8	716	1148	-106	124	126	1
-32768	8348	-6880	306	-3584	-2424	-27960	-968	-28264	-1705	-3562	879	-26024	11704	4248	1009	-1084	593	-9504	4248	14088	77	675	-176	-15712	512	-1720	-556	1924	58	-18832	2656	-2376	939	779	-39	114	126	1
-32768	2924	-25988	16	-3318	-372	-7288	-2920	-16840	488	-2240	1301	-16480	19920	19408	-682	-1410	4	-9440	2424	14192	205	1019	-195	-19184	-1776	-4896	-580	1980	31	-16456	4496	-4184	883	572	-110	105	123	1
-32768	20912	-32768	-1740	-2443	624	2968	-17408	-15560	-277	-577	-606	-10352	2928	27320	-844	-667	433	-10224	3800	14552	350	1763	-174	-21864	-752	-5752	-363	2171	15	-17736	5432	-2200	638	635	-164	118	125	1
-32768	1808	-31876	-1588	-599	961	-1768	-4824	-12760	-1348	-168	-584	-13656	4912	22968	-984	-581	604	-10376	3608	14312	528	2565	-207	-21536	-160	-3120	-448	2248	103	-20856	4672	-408	-56	608	-373	123	123	1
-32768	-2188	-22080	609	1742	2441	-13328	-8488	-13224	-436	2543	-1060	-18048	5144	7096	-287	1386	-89	-11976	4224	15688	834	3238	-337	-20168	-1304	-3024	-644	2387	168	-23024	6064	-7512	401	-323	-983	121	123	1
10412	-10788	22124	1096	2957	1646	-32280	1936	28344	922	2233	-822	-19592	3432	-736	-259	2560	-816	-14752	4864	13792	679	4207	-223	-22032	-2872	-6640	-492	2488	94	-17720	656	1408	-346	-636	-743	124	120	1
-6008	-2708	24992	-1038	2812	3711	-32768	7920	-2208	2998	1613	-694	-32376	7576	4280	540	887	-1070	-10984	3288	14064	708	5134	-51	-25856	-504	-3376	-151	2601	13	-22432	2560	6632	-313	-519	-453	128	125	1
-32768	5248	6736	-253	3102	1937	-5504	8792	-20552	650	3325	-1088	-28232	-6816	7024	836	-455	-1178	-11824	11968	14488	814	5848	-326	-27328	184	3592	54	2534	308	-28552	6312	16040	-1013	-1878	-631	127	127	1
-18156	-15180	21452	-621	3067	1225	-22744	10216	-4880	-1319	2858	-710	136	-1496	-10200	396	-231	694	-12848	15240	15896	1149	7184	-1108	-32768	-2024	7968	537	2605	608	-28872	992	15248	-1445	-2811	-799	123	122	1
-10616	-9452	5020	-559	3196	1001	-20456	-18704	-20008	-2367	2541	-1734	-5904	18968	-12448	1600	1665	-578	-13544	12040	12832	2026	8791	-2267	-32480	-5264	10408	1399	2514	955	-21560	-7992	5576	21	-2472	-635	106	117	1
-28776	-13404	12224	973	783	1490	-11112	-21056	-18736	1624	2269	-784	-17624	-7544	-17712	-1102	775	-773	-32392	1504	7848	2500	9073	-2863	-22832	1224	-1488	1983	2877	1092	-23960	9232	448	2474	-1667	-257	119	120	1
-22308	-1336	16280	880	-149	976	-21008	-4208	-14952	3078	1728	-325	-13264	-10272	-15304	-1352	1135	-247	-32768	16040	12544	2322	7203	-3928	-27552	2408	-5568	3207	3421	414	-25712	10312	-12736	2995	-1660	471	120	120	1
-12156	-6460	11848	856	-237	496	-18192	2472	-6392	3251	1110	-35	-14216	-4040	-11960	852	1155	-179	-32768	10736	29336	3207	5374	-4358	-28880	10104	-9128	3088	2724	448	-31232	6168	-7640	272	-2220	856	119	123	1
-11060	-6072	10780	500	-159	345	-18192	7488	-3392	-292	1091	-532	-18264	-496	-12208	940	1350	-729	-32768	19168	31112	3675	3170	-890	-17144	6184	-19112	272	2313	369	-28624	-2808	-6168	-528	-1765	958	121	128	1
-9716	-5380	11788	177	-52	320	-17496	-4408	-6112	-1440	877	-521	-17088	2120	-8088	655	1310	-575	-32768	32767	32767	-281	-2443	338	-10520	4520	-16144	8	825	162	-26504	-832	-10664	-958	-2215	871	126	128	1
-10948	-5924	11240	10	9	376	-17088	-208	-3768	-1337	648	-592	-14176	1456	-5424	160	1514	-310	-1688	18920	21696	-2744	-5193	1205	-13848	5960	10088	588	-442	-146	-28496	2608	-10224	-801	-2612	1178	135	130	1
-11344	-6488	11000	54	57	265	-18272	-8352	-5056	-1143	665	-423	-15208	-1264	-5448	-498	1689	-277	6192	1136	8416	-2274	-4596	1503	-10816	1896	2512	-342	-1501	340	-23568	2848	-11336	-446	-2351	1374	138	130	1
-10580	-5032	10832	148	157	125	-16896	-8904	-5280	523	655	-295	-15488	-1144	-5592	-509	1806	-264	-6776	3712	13432	-1035	-4587	2048	-5824	1720	-6576	-614	-2258	187	-16896	-1568	-10992	-463	-2329	1348	129	127	1
-10028	-5788	11476	221	228	105	-15560	-2064	-3080	1484	470	43	-15592	-824	-4768	-572	1883	-233	-9168	6224	13992	-889	-5543	2142	-6080	3128	-4392	-827	-3268	208	-14632	-2488	-10544	-380	-2319	1149	126	122	1
-9808	-5056	10824	144	310	90	-15928	4800	-888	429	374	159	-13960	-3064	-2872	-352	1783	-213	-6200	2024	10496	-1111	-6000	1867	-7624	2992	-728	-1587	-4102	225	-13152	-2528	-12328	-361	-2124	1140	125	126	1
-9716	-5856	10932	39	206	134	-16728	1176	-2200	-860	410	-227	-14432	440	-3536	-386	1920	-177	-6336	488	9592	-791	-5897	1658	-8008	-760	-2936	-2131	-4819	86	-10248	-1816	-12848	-485	-1865	1358	123	121	1
-10088	-4436	10772	-81	191	147	-15672	-3256	-3672	-981	404	-327	-18512	1448	-2848	-858	2440	-113	-12368	2336	13240	-319	-6018	1732	-8072	-3824	-6392	-1575	-5181	-212	-7048	-2008	-14512	-471	-1404	1328	118	117	1
-9972	-3912	9888	-168	84	64	-18992	-4648	-8464	-375	-371	-202	-13936	-464	-1888	-799	3158	-182	-13384	2912	13752	-288	-6073	1792	-11192	-3784	-7136	-1295	-5719	-657	-4200	-2848	-13720	-997	-1209	1147	120	123	1
-10696	-4692	10564	15	149	143	-16000	-4936	1480	-67	-445	-92	-21112	-2520	-3168	-409	2432	21	-18080	2832	14632	-635	-6118	2319	-16192	-6096	-7688	-759	-6099	-742	-3440	-5440	-13600	-1607	-1017	881	125	123	1
-10336	-4876	10484	122	11	116	-13488	304	-256	11	645	-124	-16936	-3624	-1056	-233	1665	67	-24160	-728	19008	-186	-5880	2378	-20088	-4128	-10944	-45	-6315	-986	-3088	-4552	-10432	-1585	-762	433	120	124	1
-10428	-4628	10668	41	-36	174	-15544	-504	-984	-323	787	-252	-15272	3032	-96	310	1074	191	-31240	-3968	22296	634	-5755	1887	-23112	-6616	-9976	1230	-6165	-1127	-3288	-2336	-7016	-1122	-652	93	127	129	1
-9672	-5376	11040	-38	-43	239	-17656	-640	-1960	-560	940	-337	-14720	4528	-2128	-249	1678	-120	-32768	6008	23552	511	-5678	804	-28320	-504	-16472	2272	-5892	-552	-4568	-1216	-4224	-581	-597	175	127	129	1
-10140	-4524	11044	-83	39	245	-17472	-1264	-2896	-642	985	-314	-13168	3008	-2352	-912	2032	-412	-32768	11096	19496	-80	-6002	657	-24640	3800	-17352	1280	-5925	-73	-8904	1368	-1976	-484	-782	390	129	131	1
-10148	-5252	11100	-99	128	277	-17704	-1368	-800	-748	1146	-314	-16112	1984	-1144	-989	1992	-386	-32768	12696	11016	-157	-5652	1653	-27248	-1144	-15680	-2	-5658	-424	-15960	2544	2248	-767	-1087	575	129	131	1
-10040	-5504	11596	-30	233	340	-15704	-1480	-24	-488	1385	-352	-21920	-1544	-2792	-1224	1775	-413	-32768	9792	2888	-615	-4542	2519	-25760	-3248	-18648	-706	-4760	-502	-27536	6656	13088	-1358	-2176	893	124	129	1
-10760	-4660	11868	-55	526	371	-17392	912	-1648	-179	1573	-332	-18528	1672	-528	-877	1115	-459	-32768	2440	-14088	-981	-2967	2761	-17168	2712	-22256	-1031	-3612	-464	-17496	1024	12432	-1899	-1821	804	124	129	1
-10060	-4088	13228	-104	990	326	-19280	1280	-2368	-254	1903	-391	-17488	3376	144	-851	1185	-356	-32768	-4672	-27912	-340	-1360	2039	-6816	5520	-23328	-1766	-1894	-199	-10248	-11096	31464	-312	-221	437	121	124	1
-10584	-4604	12604	-142	1546	338	-18280	80	-2256	-121	2131	-425	-20360	8	-3392	-894	1117	-223	-32768	-2824	-32768	154	-10	1216	-5640	888	-21320	-1237	104	216	-16112	5312	27960	809	656	-247	123	124	1
-10940	-4916	13888	-110	2311	305	-20176	-1464	-4616	45	2378	-394	-20888	-5000	-4064	-642	552	16	-32768	-2232	-26560	-341	1392	486	-7432	3536	-19808	-482	2064	415	-19168	5656	13848	613	1337	-448	124	125	1
-12324	-6404	13292	-16	3327	379	-23704	16	-4752	191	2492	-418	-20736	-1304	-3168	153	-133	125	-12984	-1096	12096	-1746	2561	-619	-20448	-1624	11840	1054	2814	418	-19848	3568	4224	359	2451	-352	121	118	1
-11672	-6508	14348	-324	4302	594	-24408	-104	-2392	60	2640	-569	-22104	-200	2792	617	-401	315	23088	-11456	32767	1226	3348	-2306	-32768	-5512	26640	-207	1514	621	-27272	3216	1120	414	2482	426	121	116	1
-13856	-9256	13944	-759	5219	651	-27992	-1560	656	-124	2813	-642	-30296	-96	9952	1133	-1345	409	-32768	-5784	-2512	1363	3910	-2631	-4600	-13128	-27880	-2805	2322	1106	-29880	12584	12240	-504	-399	550	123	118	1
-14008	-15000	12932	-1464	5969	1268	-32088	4872	5152	-701	2852	-1005	-32768	5560	22352	2096	-3853	704	-21464	16176	27704	434	3441	-432	-18136	-6024	896	571	2884	-182	-5448	3016	-296	-2122	-421	-190	124	123	1
-12616	-17280	14740	-1358	7332	2734	-32768	5304	9144	-1352	2386	-1791	-19456	22448	7096	-70	-2456	1558	-16128	16328	10304	-111	3529	-590	-24960	15512	-11528	1275	3223	667	-9256	-14760	-8976	-1220	909	-707	119	118	1
-19196	-15496	16932	-1355	9020	3884	-30616	7296	7848	-2588	2670	-1677	-19136	21656	-2560	-1806	-1544	659	-25144	10704	23144	-945	2450	-1181	-13424	7896	-12880	-1206	1999	403	-18752	3800	-13376	715	454	418	120	116	1
-32768	2092	12460	-3380	8373	3415	-19344	-4144	-5392	-4162	3049	-1142	-26016	-7720	-11928	-4574	-632	303	-13232	8376	17040	-557	455	-790	-20336	3952	-12200	-1338	1700	451	-10936	5712	-14616	1142	942	283	122	122	1
-32768	-20632	8744	-3899	4236	3313	-31968	-9832	-10488	-3995	2741	-783	-32080	-16296	-16080	-5526	-1372	-484	-15920	328	16416	23	152	-435	-18080	-5712	-9520	-2513	1196	210	-17904	3448	-9320	236	1217	203	125	117	1
-32768	-32768	25664	-3629	3219	2725	-18936	-8672	-18960	-3763	2597	-750	-29288	-1056	-14024	-2025	-2148	-1239	-11520	4376	14232	-20	50	-232	-18776	-7704	-5320	-511	1238	195	-18496	3384	-9552	150	1252	192	123	113	1
-32768	-22548	22224	-1028	855	1595	-11728	-10048	-13760	-873	1251	80	-25576	-1776	-15592	271	-2460	-754	-8176	3040	14416	-37	174	9	-15968	-888	-3512	920	1171	190	-16552	2752	-5336	82	1485	-221	124	119	1
-14860	-32768	28584	759	-3376	-812	-10552	-11176	-1896	576	21	156	-23576	784	-12216	820	-2382	-586	-8176	4264	13488	71	180	17	-16824	336	-3264	1465	980	278	-15288	2272	-3456	325	1559	-316	133	124	1
-260	-19784	12120	2506	-3984	-631	-8552	-4704	-1544	1513	-1031	179	-22192	224	-13176	858	-2223	-493	-7992	4288	13864	229	163	-123	-18448	1280	-1928	1972	845	349	-15888	2408	-3160	790	1680	-294	129	121	1
5036	-4196	8040	2303	-3892	-1117	-8032	136	-792	2561	-1754	132	-17624	1584	-13600	644	-2202	-525	-9160	4320	13520	140	114	-305	-16952	3072	-2976	1251	652	364	-15624	3048	-2944	1056	1704	-288	122	123	1
692	-2804	8208	975	-3923	-2036	-6216	4000	-2232	1972	-2370	289	-12248	2400	-12928	561	-2143	-495	-8784	4520	13248	-112	162	-276	-16832	3136	-3184	-64	382	261	-15184	3768	-3112	1141	1857	-147	123	119	1
-4884	-7016	9804	328	-4294	-2602	-5648	1080	-3016	876	-3028	378	-9944	2920	-12728	575	-2065	-406	-9576	4984	13312	-282	184	-219	-16808	3360	-3144	-249	344	235	-14784	4480	-2600	1013	1812	-277	123	123	1
-7356	-6868	9944	590	-4750	-2683	-6024	-736	-4272	666	-3678	404	-8416	2152	-13072	672	-2038	-408	-10144	5120	12592	-235	89	-166	-16360	-1488	-2672	-813	436	-97	-13928	4616	-2064	1123	1932	-444	119	116	1
-9016	-2440	10324	651	-5033	-2648	-6720	-400	-5032	1143	-4252	461	-5728	-104	-13144	781	-2081	-419	-9088	4496	12808	-149	-36	-184	-14424	-1192	-552	301	763	-100	-13464	4320	-2928	1235	2071	-403	123	121	1
-10544	-1192	11036	421	-5215	-2841	-9328	1024	-5056	1105	-4794	863	-3664	-480	-13352	999	-1949	-382	-9256	4200	13288	-81	-96	-306	-14856	1000	-448	658	907	67	-15016	4048	-1920	1148	1959	-406	123	117	1
-14216	-4156	13020	290	-5309	-2770	-11768	696	-7176	1040	-5250	1099	-2904	-168	-13168	1283	-1651	-287	-9448	3336	13128	-35	-80	-311	-15256	808	-1024	708	919	81	-15784	5104	-304	895	1983	-569	121	121	1
-18884	-4800	16060	179	-5361	-2689	-16600	3248	-9296	845	-5596	1303	-3712	560	-13312	1879	-1177	-96	-9168	3736	13120	-46	-13	-186	-15704	168	-680	45	803	7	-15720	3112	-128	486	2051	-672	124	121	1
-22004	-5644	17548	-166	-5390	-2818	-18560	3280	-9832	395	-5927	1321	-3336	1728	-12504	2035	-630	-30	-9000	3872	13304	-72	57	-125	-15816	1408	-16	-609	875	-16	-15808	1568	-72	544	2174	-628	120	123	1
-25040	-8916	19372	-364	-5049	-3057	-21840	3560	-10040	-40	-6103	1289	-3944	2840	-9736	1513	-266	-48	-9608	4072	13096	-60	76	-132	-14760	-984	-1352	-928	906	17	-16464	1352	-2072	446	2046	-492	123	120	1
-29788	-16468	20788	-188	-4617	-3253	-27888	552	-11384	-293	-6256	1284	-4880	4096	-5184	846	-400	-93	-9696	3360	13376	-5	117	-175	-15080	-1168	-2592	-695	1107	21	-14848	736	-2944	411	1788	-329	122	122	1
-32768	-18036	18168	118	-4178	-3797	-29704	-2608	-13520	196	-6150	900	-7456	3064	-1824	241	-803	183	-8592	3896	13240	41	193	-194	-17016	-512	-2112	-378	1251	97	-15752	11264	-6464	594	1710	-359	118	122	1
-32768	-14720	12736	105	-3715	-4471	-26424	-5056	-12984	600	-5510	880	-12552	1896	1184	487	-862	359	-8968	3400	13544	81	347	-231	-17408	-824	-2216	-266	1301	144	-15808	1992	-1296	845	1705	-211	124	123	1
-32768	-11468	3948	349	-3659	-4438	-25584	-9680	-14960	997	-4599	1039	-27960	6648	13040	1438	-1734	543	-9328	3952	13224	135	595	-200	-16792	-560	-1000	-219	1455	132	-17128	160	728	873	1560	-30	123	126	1
-32768	-1208	-6796	928	-3339	-3081	-24120	2048	-10848	241	-2525	897	-25184	4312	3096	1706	-1532	749	-10048	4424	13936	154	935	-221	-16224	-640	-976	-271	1679	162	-21488	2776	-1528	977	1291	-168	119	125	1
-32768	13224	-16352	-45	-2761	-2305	-9952	552	-17496	2025	-2442	1040	-23096	13200	15312	574	-1654	563	-8360	3000	14560	224	1237	-249	-16680	-2256	-1576	-137	2000	168	-20480	5760	-1376	997	483	-177	109	125	1
-32768	12912	-31524	-510	-1807	-1260	-600	-272	-15408	-886	-1048	-112	-10776	8632	27504	-76	-773	227	-9448	3096	14816	329	1861	-199	-19368	208	-4056	-150	2276	122	-15912	6440	-1592	893	321	-80	114	127	1
-32768	15936	-32768	-477	-56	334	-4400	-7432	-17816	-642	1090	-747	-15248	3376	19560	-186	484	464	-10264	4368	13664	553	2690	-146	-21824	1152	-5112	-535	2389	93	-17808	5664	-1856	266	367	-175	121	124	1
-32768	4672	-16760	-206	977	1102	-8272	-5080	-17384	-221	2669	-978	-16376	4648	10224	266	1220	100	-13256	5480	14368	676	3263	-259	-21912	-984	-2528	-845	2466	230	-20280	4336	3728	-794	-38	-397	122	122	1
-9056	-17120	15472	1172	2369	1921	-28496	-1832	4792	383	2872	-1026	-13296	5216	-6016	-40	2803	-379	-11672	7224	16336	808	4108	-412	-22152	-1720	-16	-664	2699	342	-25048	6256	2824	-689	-629	-735	121	123	1
29400	-20744	32767	-324	2648	1855	-32768	12576	25928	2875	1317	116	-23376	7744	-6528	530	2040	-1301	-15032	12624	15536	453	5217	-434	-27864	-840	752	-191	2931	370	-31808	3880	15576	-1336	-2497	-671	124	122	1
-26548	13348	6996	-404	3165	2966	-11880	5072	-21968	135	2836	-1204	-24616	9424	-4480	457	1634	-1202	-12264	14952	17088	694	6673	-1030	-32768	-3112	4304	248	2965	689	-24776	-4608	19296	-1207	-2825	-332	128	126	1
-22676	-13716	25228	-685	3085	1598	-15864	-6600	-32768	2221	640	-667	-12888	-4168	-15728	-242	-139	-81	-10416	13864	19584	1183	8693	-1821	-32768	-6168	11496	1265	2827	1169	-25944	-8472	14984	635	-2790	-605	117	119	1
-17948	-16192	3948	-1077	2616	1176	-25976	-19816	-24552	-4330	3010	-1900	-3184	-8736	-7264	-349	-398	-18	-17016	6096	17480	2635	10764	-2560	-30744	-4872	12288	1952	2791	1273	-29808	2280	6624	2195	-2178	-670	104	115	1
-30388	-14400	17924	-300	2167	1137	-8760	-9488	-12216	1455	1879	-551	-14904	704	-11792	-1170	540	-969	-32768	-2112	8704	3180	10006	-2476	-23112	1456	-8104	3603	3006	1016	-28328	7184	6520	2657	-2117	-526	113	116	1
-13724	-8276	11108	954	885	977	-23128	-1808	-10376	1299	1766	-305	-12848	-11360	-14728	-1839	1072	-279	-32768	26288	11584	3313	4979	-4778	-26920	5112	-11968	3792	3446	555	-29432	11608	-13552	1940	-1894	580	119	117	1
-15208	-4740	13772	1133	466	699	-16200	-4512	-9472	1700	1352	-413	-14936	-10480	-9008	560	822	-64	-32768	25368	19696	3027	4286	-2519	-20592	12824	-10136	2697	2179	462	-30792	2056	-8696	-853	-2073	1288	120	124	1
-9628	-8128	11020	828	299	451	-17328	-1168	-4032	1816	1054	-207	-14520	-544	-7504	1583	1131	-349	-12424	32767	5608	2356	2142	-742	-9840	9072	-10368	-192	810	-236	-28592	1240	-13136	-1974	-2199	995	126	128	1
-9448	-6540	12968	547	206	507	-19208	616	-3744	633	894	-48	-19104	840	-9744	1245	1277	-414	-18608	32767	32767	-1648	-652	1137	-8304	4216	-9344	-753	-251	-27	-23216	-3816	-11176	-1334	-2381	836	130	132	1
-12428	-5664	11488	152	168	360	-16584	2384	-5896	-767	728	-237	-13976	4648	-5912	682	1433	-91	-12264	13840	19648	-3844	-2595	2081	-6272	3872	-3344	-1078	-814	-110	-22984	-1960	-12136	-684	-2290	1168	141	138	1
-10520	-6224	11648	-29	233	287	-18064	1968	-4368	-1471	608	-371	-14640	3872	-6048	-8	1653	-174	-13960	1536	16080	-3318	-4228	2398	-6616	1424	-4664	-1420	-1670	-47	-18680	1760	-12616	-672	-2160	1423	138	133	1
-9928	-5896	11192	-68	279	223	-19280	-2424	-4400	-1613	612	-543	-16128	1440	-6328	-700	1970	-359	-13368	-624	14208	-2289	-5916	2289	-3432	2544	-4136	-852	-2532	-62	-18040	384	-12232	-620	-2202	1411	131	135	1
-10056	-6236	10764	-27	253	245	-16984	-4704	-2912	-1016	514	-507	-16048	160	-4960	-1078	1884	-288	-12792	-456	9104	-1467	-7207	1818	-5000	2488	-3072	-305	-3099	99	-12680	-2432	-10272	-246	-2070	1226	133	127	1
-9616	-6592	10328	-35	275	278	-16296	-3960	-2152	-345	425	-326	-15216	-3192	-4320	-1298	1813	-132	-11056	-1152	6320	-729	-7498	1445	-5376	3288	-2856	-970	-3956	158	-10392	-1792	-11720	-407	-1654	1119	123	126	1
-10592	-6128	10296	-150	252	301	-15816	-2112	-2936	-165	363	-82	-15184	-3576	-4088	-1236	1950	-58	-10072	1728	4912	-478	-7418	1228	-5824	-1008	-4056	-1931	-4867	25	-7600	-2616	-12440	-629	-1516	1131	130	129	1
-10748	-6120	9784	-237	289	249	-13704	2736	6568	-289	545	113	-11704	-672	-1928	-1093	1726	121	-9416	4960	6048	-624	-6833	1187	-7680	-3608	-3440	-1870	-5422	-433	-6456	-3536	-12224	-860	-1223	1021	122	125	1
-11064	-4844	10364	-255	244	85	-16480	432	-8	-1324	389	-153	-14712	1184	-800	-531	2116	-296	-13368	6464	10568	-873	-6313	1397	-14552	-7320	-6520	-1093	-5661	-708	-6096	-4344	-11488	-1069	-1120	922	123	124	1
-10360	-5852	10104	-315	253	103	-14816	-504	648	-1670	781	-314	-16376	968	0	-735	2267	-161	-23368	5440	18608	-762	-6039	1938	-18920	-6864	-11032	-115	-5897	-940	-5680	-5408	-10120	-1176	-942	666	120	124	1
-9860	-6628	9960	-253	177	108	-15432	-4752	224	-1005	810	-143	-16048	-464	-440	-918	2195	-29	-30672	7064	21608	-542	-6399	2488	-20576	-5496	-10752	984	-6107	-936	-4704	-3936	-8160	-581	-645	355	125	129	1
-9648	-6808	9988	-105	95	266	-16304	-3952	-352	-182	944	-116	-17704	800	-1136	-928	2041	64	-29960	5216	18504	-700	-6254	2568	-26040	-600	-9824	1800	-6062	-757	-3832	144	-3184	-251	-613	281	127	133	1
-10100	-6932	9984	25	14	411	-16424	-1976	-56	183	1052	-75	-15664	-744	-1360	-469	1971	86	-31880	5112	19880	-723	-5517	2105	-28984	-2120	-9728	1490	-5953	-318	-7064	3416	-2832	-116	-580	449	127	129	1
-10168	-8792	9696	174	-136	649	-16120	-1832	520	-123	1190	-122	-15472	-2864	-1336	-349	1979	-164	-32768	6472	19072	-987	-5400	1044	-25384	6968	-15344	1017	-5716	-67	-14008	4792	1440	-424	-956	786	128	127	1
-11124	-4224	10532	189	17	674	-14792	-3640	-528	258	1451	-162	-18544	-2448	-1592	-112	1748	-53	-32768	512	8664	-38	-5664	613	-26008	2504	-17136	-626	-5337	-253	-17840	4696	-2096	-840	-894	1171	123	129	1
-11508	-5408	11184	13	344	553	-19632	2688	-2592	577	1619	2	-21400	3528	-2688	-67	1647	-173	-32768	5864	-1880	380	-4923	1202	-22688	-6712	-21928	-1196	-4202	-584	-23408	3024	12928	-1407	-1691	958	125	129	1
-11432	-3752	12260	-113	840	279	-20176	6080	-1664	72	1947	-166	-18312	6632	-1872	-308	1270	-296	-32768	7808	-16704	-1098	-3316	1239	-16096	-4872	-22592	-645	-3058	-668	-11704	-3064	23384	-1251	-1121	821	125	133	1
-11184	-2924	12936	-152	1593	170	-18072	2280	-1984	196	2154	-176	-17992	5176	-96	-240	998	-52	-32768	-8480	-28808	85	-1542	738	-7680	2864	-23168	203	-1128	149	-14368	-2408	29784	222	716	72	127	128	1
-10788	-5580	12704	-226	2376	110	-19904	-368	-3424	692	2299	-35	-20928	3008	-2360	-457	754	118	-32768	944	-32768	863	-277	637	-3216	7056	-21448	-206	618	499	-17944	3952	21440	1023	1244	-382	124	123	1
-10580	-5668	12372	-380	3194	292	-22344	-616	-2712	654	2452	-110	-21400	-2656	-1824	-410	406	305	-32768	392	-19048	-643	1184	7	-8240	1424	-20944	-871	2155	420	-18464	4848	13024	360	1171	-715	121	124	1
-12384	-8812	11492	-688	3980	374	-22872	-384	-1856	413	2563	-301	-22336	-3976	128	234	-343	345	-12832	-5032	21976	-1962	1208	-542	-22952	-9656	17824	808	2575	-28	-14768	2672	3664	-558	2983	-186	115	120	1
-12448	-9088	14400	-1452	4781	1017	-24048	568	816	-21	2710	-506	-25480	-1120	8704	933	-1123	410	28216	-16320	22808	2199	2262	-2439	-32768	-2440	23976	-379	1581	625	-26576	840	-6744	991	2583	419	121	122	1
-12028	-11548	11616	-2050	5684	1336	-32768	-688	3048	-411	2934	-711	-26216	-608	11032	1025	-1313	451	-32768	2496	11848	1787	4017	-1916	-4592	-18400	-23712	-2122	2075	662	-27136	14304	6320	-937	-628	275	127	118	1
-14340	-18160	12848	-2251	6806	2214	-32768	8176	10680	-955	2902	-1216	-23512	15720	15344	1146	-2848	1317	-16480	18680	23224	749	3505	-216	-20560	2432	216	1506	2910	-268	-5912	-4352	1448	-2362	-5	-454	120	115	1
-16564	-21356	12920	-2050	8292	3401	-31352	7072	10464	-1857	2566	-1333	-17576	27784	-2624	-1581	-802	1177	-21888	17936	13056	57	3570	-238	-21424	12512	-9376	-105	2608	752	-15600	-14928	-7488	-941	1044	-500	122	111	1
-28808	-3508	6492	-2076	8766	4245	-19248	1544	-2600	-2708	2810	-1137	-25456	2056	-8136	-3927	-85	285	-11984	-6872	16928	574	2329	-93	-14832	-3448	-7288	-1482	1911	208	-15208	688	-15200	1268	490	267	122	124	1
-32768	-20376	8484	-2891	6095	3375	-25352	-7408	-10504	-3189	3261	-520	-29456	-16968	-15056	-5307	-1165	-465	-17240	5184	21888	598	2118	-164	-18616	4672	-12848	-15	1980	391	-12240	5024	-13040	1276	906	-16	123	122	1
-32768	-32768	13616	-3280	3306	3407	-25360	-9136	-17216	-3346	2903	-642	-29352	-10520	-19272	-3046	-2107	-1324	-18184	-1800	18744	79	596	-607	-18032	-1464	-9520	-1361	1320	134	-17128	6048	-9160	929	954	105	127	113	1
1160	-28060	24364	-3076	951	939	-15216	-11136	-15216	-1116	1998	-50	-25928	-3184	-15808	402	-3271	-203	-13248	6728	14424	-65	331	-152	-19824	-6280	-4800	-155	1278	221	-15936	4184	-6608	278	1262	-138	128	120	1
-29260	-32768	30084	-394	-3159	-375	-9208	-10000	-8480	165	508	27	-21080	2680	-13064	817	-2408	-462	-9336	3568	14832	174	265	-238	-16560	-2048	-3912	1162	1262	214	-18040	608	-8744	395	1466	-334	127	120	1
-4140	-25068	14832	2141	-5155	-448	-8576	-11880	-848	681	-654	36	-21936	1136	-12648	738	-2002	-270	-10144	5856	13224	251	239	-27	-16704	2664	-5944	1758	1048	197	-15096	2224	-7752	1107	1541	-442	123	122	1
7108	-5996	6472	2590	-5008	-224	-7368	-4384	432	2159	-1475	29	-19736	-1304	-14400	472	-1892	-431	-9648	6616	12152	358	185	-53	-18432	3768	-5240	1532	735	260	-14616	4576	-6936	1378	1696	-319	126	119	1
3564	-2472	5388	1318	-4697	-851	-6112	1648	-1528	2278	-2001	155	-14768	-664	-13832	389	-1998	-551	-9848	5720	12888	389	207	-104	-17808	1008	-2832	774	496	184	-16896	3928	-3224	1209	1754	-550	124	122	1
-1944	-8736	6656	323	-4901	-1642	-3744	1056	-1752	1535	-2694	305	-9872	704	-13104	485	-1979	-468	-7248	4696	12608	338	270	-3	-16392	1080	224	385	432	29	-15448	3632	-1232	1116	1687	-537	120	121	1
-4876	-10472	7740	217	-5227	-2246	-5728	-1120	-3960	719	-3274	437	-8416	1112	-12080	745	-1937	-474	-8504	7008	11896	176	299	-122	-16400	1848	680	258	483	-79	-15072	5424	-376	1012	1773	-503	120	115	1
-3316	-8892	6448	587	-5093	-2606	-7968	-936	-3040	819	-3970	580	-7272	512	-12984	823	-1946	-632	-8480	7328	11856	-98	264	-366	-15544	2904	416	386	650	22	-14944	6112	-232	1008	1778	-491	119	117	1
-5760	-6428	7484	670	-4682	-2832	-11288	136	-4056	965	-4474	722	-6472	-904	-13256	989	-1916	-689	-9128	7000	11336	-255	227	-519	-14176	2208	-240	234	736	26	-14640	7360	544	1089	1779	-402	120	115	1
-14228	-9744	13016	633	-4714	-3078	-11744	-2848	-8200	824	-4824	750	-5944	-1688	-12248	1127	-1783	-607	-9624	5448	12576	-327	238	-641	-16176	-968	-1568	181	869	-59	-14968	3592	64	739	1613	-610	120	118	1
-17776	-8784	15484	583	-5039	-3303	-15512	-1552	-9296	1041	-5297	945	-5336	-1056	-12240	1634	-1550	-527	-10528	5168	12456	-327	226	-578	-15952	-1304	-2120	314	986	26	-14688	1488	-952	768	1869	-599	122	119	1
-20180	-8300	15844	399	-5014	-3463	-19240	-808	-9728	1373	-5734	1278	-4736	1192	-11440	1967	-1101	-364	-11184	5312	11584	-429	150	-442	-14912	2816	-2864	110	1027	-43	-13976	2408	-3024	1053	2064	-476	123	117	1
-21904	-7320	16576	245	-4606	-3380	-20608	2240	-9408	1067	-5979	1494	-3944	3152	-8640	1709	-703	-83	-9608	4872	11736	-603	34	-481	-13600	3736	-440	-775	1083	17	-12864	3560	-3872	1001	1939	-324	121	122	1
-28016	-8324	20084	-17	-4164	-3361	-22392	1888	-10504	284	-6010	1601	-4808	3160	-4840	1312	-681	-34	-10192	5896	11920	-583	-60	-510	-12664	4888	-2968	-1405	1092	-83	-11456	4104	-2752	647	1762	-301	122	120	1
-28892	-10500	18792	-354	-3848	-3379	-26488	1288	-9536	184	-6064	1479	-4936	2928	-4432	1258	-700	-32	-11056	4256	12256	-424	-92	-479	-15584	-928	-3752	-1527	1188	-156	-14848	3576	-4256	322	1992	-405	127	121	1
-32768	-18008	20384	-363	-3525	-3662	-27224	-64	-12328	204	-5535	1274	-10992	4352	-2072	1245	-935	142	-10008	4176	12888	-187	68	-473	-17672	-3080	-3352	-988	1427	-82	-17032	1624	-5576	420	1873	-572	120	122	1
-32768	-18892	12724	729	-4060	-3678	-28736	-6272	-13336	183	-4908	799	-18992	7248	1784	1341	-1379	387	-10168	3088	13200	4	305	-418	-17928	-2584	-3576	-647	1479	39	-19016	-1304	-1464	204	1367	-448	123	121	1
-32768	-5592	-3712	878	-3745	-3144	-29952	-14472	-4296	14	-5163	984	-32088	17968	21800	1189	-2043	1315	-8968	3664	14064	117	651	-343	-17456	-2112	-1848	-580	1568	80	-17808	-2064	1416	438	1237	-144	117	127	1
-32768	9692	-13612	-513	-2779	-2631	-13408	-232	-11712	2158	-3881	879	-23408	13736	15064	1773	-1162	456	-9544	2880	14600	232	1270	-214	-18544	-2016	-3496	-674	1746	53	-20000	2632	-1328	858	1069	-221	113	127	1
-32768	6928	-24040	-1134	-1989	-2667	-3968	-5384	-21144	1028	-1519	153	-9816	9968	28712	763	-987	383	-10000	3464	14360	371	1953	-117	-20792	-1184	-3064	-559	2010	16	-19464	6008	-648	678	800	-309	117	125	1
-32768	12428	-32768	432	13	-799	-3104	-5192	-14688	578	577	-255	-10560	9224	29296	761	-745	300	-8224	4976	14304	488	2475	-135	-21456	1152	-2328	-566	2264	63	-20896	9936	-824	422	643	-374	117	125	1
-32768	13352	-23800	387	1153	497	-7600	-5552	-19704	461	2190	-852	-20552	7504	12032	151	993	147	-14512	6192	15336	733	3231	-239	-21952	576	-1696	-714	2441	100	-21784	7448	1584	-508	80	-410	124	123	1
-32768	12264	-21032	329	1144	497	-18880	-6376	-8464	594	3075	-1236	-14312	6840	1160	-310	1580	-21	-10376	6176	16568	464	4305	-294	-23560	-480	-664	-721	2632	193	-24144	5584	5400	-613	-389	-558	119	122	1
32767	-5828	32767	217	2886	1378	-32768	14688	32767	3068	1861	142	-16368	3472	-4968	341	2260	-1431	-12264	8848	18336	534	5519	-512	-28960	-920	1160	-456	2805	264	-28224	4920	14704	-771	-1411	-690	120	122	1
-16756	18952	15496	-264	2932	3800	-19584	13216	-17232	1492	2535	-1327	-29936	-528	9904	-1166	886	-1216	-10736	13568	16416	681	7016	-1009	-32768	-3408	8328	40	2840	534	-31224	2256	21656	-1405	-2585	-610	124	120	1
-30392	-9508	14556	-862	3745	1738	-2264	20952	32767	2776	2407	-1126	-16040	-4936	-12944	-663	140	-255	-9064	15656	19736	1436	9177	-1749	-32768	-7696	15664	947	2690	1085	-29432	-7032	15784	-211	-2988	-837	116	120	1
-16244	-15080	5500	-1141	3290	1269	-27088	-17688	-16816	-5622	2946	-1745	-6576	10224	-7440	908	86	-369	-15904	3824	15816	2845	11471	-2758	-32768	-9216	17112	1097	2622	1138	-30384	-5120	8944	1298	-2796	-755	106	119	1
-14712	-9180	11600	-533	2913	1032	-8248	-13544	-11880	757	2315	-966	-12592	1696	-13192	-629	835	-992	-32768	-280	1672	3793	10814	-2089	-21392	-2288	-8200	3737	2842	916	-18576	13760	-12512	4206	-1911	7	112	119	1
-25660	-14192	10488	820	1331	1253	-8496	-11464	-8560	1318	2160	-761	-11576	-6520	-13312	-1562	956	-226	-32768	31904	14032	3341	5151	-4572	-25032	6320	-13808	3974	3501	514	-18848	12976	-16920	3999	-1820	248	117	119	1
-18456	-4192	17604	1330	688	1113	-17056	-5184	-11744	2547	1356	-195	-17088	-10680	-9712	-134	941	-58	-32768	25120	21096	2885	3796	-2008	-21312	11496	-12872	3335	2259	641	-30400	4928	-9384	-513	-2429	1191	120	126	1
-12836	-8892	12368	901	205	599	-18000	5008	-4368	2298	1112	-218	-12944	-2352	-8496	1474	1100	-284	-32768	32767	7584	2198	1055	-386	-8528	10024	-15944	800	1123	-199	-25952	2064	-12256	-1711	-2456	834	128	129	1
-10332	-4352	12324	297	175	367	-20936	1840	-3592	-209	1182	-309	-20304	2312	-8392	1231	1337	-518	-25304	32767	32767	-2306	-3965	1079	-8304	5752	-6184	-285	128	-104	-22760	-1872	-12248	-1044	-2261	834	130	131	1
-10980	-6340	11108	-133	329	419	-15752	888	-4152	-1242	971	-498	-15216	4032	-3576	447	1357	-143	-16136	9720	16144	-4624	-6025	1392	-6848	6536	1592	-445	-519	-208	-24200	3664	-12568	-644	-2055	1220	136	138	1
-10564	-7120	10344	-369	417	414	-17880	784	-2280	-2071	944	-675	-13712	848	-3496	-352	1543	-193	-4048	-3864	6656	-2903	-6760	1738	-8984	2712	-992	-1272	-1866	-85	-20632	2448	-13408	-570	-2029	1614	134	136	1
-10956	-7684	10336	-409	544	415	-18584	-5816	-3328	-1908	994	-578	-17752	-1520	-6016	-905	1787	-277	-4168	-80	4984	-1045	-6913	1950	-6328	2600	-4552	-1425	-2719	-68	-16272	-1240	-12888	-514	-2256	1455	134	132	1
-11244	-6948	9564	-340	562	381	-15544	-7720	-5800	-722	965	-466	-16600	-2728	-6408	-972	1747	-150	-6400	6944	4296	-1024	-6982	1767	-4576	2232	-3544	-1967	-3644	38	-12696	-2872	-12544	-370	-2084	1318	133	129	1
-10896	-6876	9284	-125	432	455	-16792	-3360	-3728	439	706	-250	-13776	-2304	-4424	-860	1542	-107	-4088	6312	4224	-1269	-6703	1674	-3744	1264	-3512	-2594	-4421	-24	-9856	-1448	-13208	-473	-1666	1229	124	127	1
-11140	-6988	8892	17	249	489	-14272	-2040	-1512	250	681	-119	-12928	-3016	-3504	-749	1630	-186	-8232	9312	6432	-1213	-6198	2140	-5904	-4216	-6040	-2501	-4914	-412	-8968	-2216	-13672	-1149	-1431	1271	124	123	1
-11016	-7248	8784	55	218	489	-18384	-10896	14800	-2197	1087	-366	-16072	-1824	-3744	-770	1851	-196	-13272	10704	10552	-1632	-5820	3014	-11896	-2360	-7144	-1780	-5297	-982	-8544	-3696	-13376	-1701	-1364	1203	121	123	1
-10892	-6768	8648	143	-17	593	-13224	-5016	-1728	124	512	-44	-13888	-3128	-1576	-376	1777	-373	-20512	6184	12544	-1964	-5713	3494	-15656	-5136	-10416	-1522	-5741	-1243	-6360	-5088	-12560	-1919	-1156	978	124	128	1
-11688	-5356	9460	294	-135	570	-15368	-32	-4856	-33	945	-242	-15888	-88	-3192	-219	1794	-96	-25592	1304	14920	-1741	-5732	3203	-14760	-1376	-10048	-481	-5831	-1155	-3088	-7680	-10168	-1442	-923	625	126	127	1
-11764	-4512	10276	324	-64	493	-17920	1208	-4384	165	905	-229	-15072	3672	-2272	-223	1811	-6	-28840	-480	19072	-1249	-5850	2234	-19136	192	-11776	437	-5999	-1123	-1840	-4928	-8144	-699	-610	332	122	125	1
-10868	-4212	10956	238	120	343	-16248	824	-2640	-385	1018	-283	-14560	3776	-3072	-261	1914	-181	-32768	-3456	22480	-584	-6147	1042	-28000	-1872	-8824	1460	-5879	-1001	-3168	240	-5432	-632	-171	293	123	128	1
-11320	-4452	10684	133	378	246	-17544	-200	-4648	-171	1188	-288	-14944	2328	-4040	-392	2056	26	-32768	5032	20192	21	-6322	-35	-24720	1792	-11400	1978	-5751	-567	-8968	2416	-1488	-1089	-178	491	127	127	1
-11196	-4928	11008	35	619	206	-18592	-2032	-4408	291	1265	-33	-16880	1320	-4312	-628	2294	30	-32768	5744	14976	256	-5848	-402	-27000	-1472	-14984	998	-5683	-419	-16800	160	-2664	-1450	-672	542	125	128	1
-11240	-5188	10832	-8	876	251	-18896	-168	-3480	252	1311	-82	-19280	-288	-4296	-657	2130	-59	-32768	8112	12600	225	-5182	223	-25480	-6360	-18392	822	-5036	-558	-24736	-1464	1936	-378	-1238	446	125	126	1
-11628	-5432	10540	-51	1209	263	-18968	840	-1168	-75	1445	-230	-19984	-1000	-184	-519	1603	-133	-32768	6168	-2304	-52	-4377	880	-23464	-1632	-19360	1367	-3941	-447	-26736	112	17000	289	-2184	521	123	125	1
-11624	-4672	11424	-174	1523	271	-16752	-384	-808	-67	1699	-302	-19352	1600	3440	-96	1083	-193	-32768	-1472	-19200	470	-2591	346	-15568	3832	-22152	653	-2610	236	-14328	-4584	27256	439	-1100	966	127	127	1
-11628	-5752	12028	-257	2032	330	-18888	656	-2008	174	1940	-176	-18648	2352	3408	-79	1062	-174	-32768	2104	-31504	1232	-1429	564	-2096	2792	-23904	-184	-581	400	-10880	1376	32767	1393	359	639	122	119	1
-12940	-5540	12164	-377	2618	416	-21688	1968	-1512	179	2095	-220	-21704	1264	2696	-455	736	116	-32768	3032	-31120	-108	891	281	-4064	1104	-23360	-284	1362	237	-15824	5576	17328	1454	988	-454	115	115	1
-13324	-5988	11300	-721	3456	444	-23256	496	-2408	89	2395	-433	-23152	-2296	6928	-49	303	12	-32768	22088	-3376	-397	1671	328	-11416	-88	-19184	-12	2797	332	-13720	6992	3400	462	2183	-473	121	123	1
-15540	-9364	11340	-1245	4283	652	-22832	1088	1960	169	2682	-558	-25744	224	13136	696	-464	225	18984	-18480	32767	-196	2508	-283	-31456	-14832	32767	1371	2035	-468	16	8224	-10416	869	3220	675	125	121	1
-14572	-10276	12104	-1609	5270	983	-29496	2776	1032	-188	2875	-841	-23360	9144	14448	610	-999	1025	7672	-26072	15928	1758	3178	-3485	-32768	4880	15704	-515	1740	705	-32768	13072	-4016	-144	1730	-278	121	113	1
-13056	-11936	12700	-1610	6651	1540	-32768	6056	4560	-994	3034	-1165	-25384	17968	11752	47	-950	826	-32768	21008	8240	740	3347	-2129	-6352	-17928	-18136	-2270	2049	134	-25928	24112	6416	-3403	-1766	237	116	113	1
-14320	-15536	12968	-2182	8322	2180	-32768	13424	6344	-2088	2890	-1389	-25440	19816	3160	-1245	-1363	675	-18328	26032	16680	-578	3967	-432	-28824	14440	-9128	135	3187	-152	-7464	-16920	4504	-3487	1047	-1013	114	107	1
-26608	-12460	9364	-2041	8998	3402	-25024	3072	-1488	-2698	2684	-1326	-25968	288	-3552	-4009	-1261	528	-20224	-9600	21720	-504	3406	-376	-14840	-8312	-7936	-3828	2114	524	-18304	-14080	-9768	-617	618	94	117	116	1
-32768	-14376	1916	-2269	6802	3248	-26744	-9856	-6000	-4146	3175	-915	-29672	-18024	-16344	-5066	-2131	-294	-22200	21520	20040	-194	1972	-950	-18352	800	-11472	18	2360	239	-13112	-4536	-14528	1421	440	30	118	120	1
-32768	-26540	11860	-2664	3879	3876	-24904	-13936	-13856	-3469	2565	-395	-28136	-8800	-14040	-1696	-2864	-751	-15152	-4840	19968	-778	599	-993	-14096	3448	-11144	95	1834	685	-14472	5000	-12608	2146	861	247	123	119	1
-15436	-24608	18844	-3368	2157	1239	-15632	-11776	-15512	-934	1850	95	-28296	-5144	-13880	515	-2657	-79	-16576	-6248	22808	-633	309	-1052	-22192	-3016	-7832	153	1440	608	-14216	6640	-13360	1302	960	370	123	111	1
-32768	-32768	32767	-981	-1996	142	-10480	-10072	-14496	424	361	340	-23104	3712	-12880	1069	-2000	-210	-10760	1824	16536	-378	275	-668	-17584	720	-6008	654	1270	418	-18248	8440	-12128	593	1466	-251	130	116	1
-12320	-29216	21784	1515	-5383	-520	-9936	-12304	-1456	666	-723	192	-23912	1352	-13456	994	-1814	-84	-14120	6544	13904	-323	173	-254	-17400	1808	-8488	822	988	246	-16056	4912	-10464	455	1752	-375	125	125	1
-1292	-11536	9980	2380	-6028	-185	-9800	-6304	-1664	2261	-1529	0	-22376	-1408	-15152	653	-1804	-349	-9616	4232	13504	-195	198	-100	-18600	2968	-5432	747	670	134	-15048	3712	-6808	645	1901	-412	128	125	1
1356	-5088	4448	1537	-5907	-740	-9368	-5152	-944	2479	-1608	8	-17000	-1256	-14824	564	-2008	-418	-9672	3920	13864	-16	227	-129	-18272	1776	-2976	480	392	124	-16768	3016	-4064	868	1911	-426	124	123	1
-3636	-8028	5968	689	-5864	-1487	-4032	1400	-3544	1922	-2842	565	-11592	2416	-13912	587	-1988	-327	-9600	3960	14056	8	238	-130	-16024	2960	-2064	143	307	-8	-15736	3480	-1984	846	1828	-434	122	118	1
-6832	-10360	6960	449	-6039	-2089	-6360	1856	-3960	913	-3586	804	-9040	2176	-13720	696	-2006	-393	-9648	5032	12632	69	245	-83	-15568	1496	-1728	106	264	-119	-13936	3456	-1312	811	1858	-482	124	121	1
-5472	-9212	6116	504	-5893	-2637	-10240	568	-4200	467	-4205	855	-6648	1096	-13304	769	-2065	-606	-9400	4768	12728	67	180	-106	-15864	744	-624	409	415	-106	-13144	3488	-616	1001	1840	-389	121	117	1
-8652	-7264	7572	351	-5477	-3191	-9344	-96	-4744	256	-4584	935	-6472	-944	-13392	979	-1994	-695	-8864	4928	12752	45	150	-146	-16312	432	-736	871	606	-118	-14256	5224	-1192	1224	2220	-568	123	120	1
-14432	-8748	10036	455	-5277	-3476	-11432	-2096	-6528	215	-5010	980	-4312	-888	-13376	1120	-1754	-625	-9320	4840	12736	50	135	-224	-16104	1448	552	1008	680	-20	-17000	5160	-592	1375	2200	-718	118	121	1
-15828	-3972	10952	236	-5124	-3224	-15584	-3488	-8704	592	-5388	985	-2808	816	-12856	1394	-1435	-478	-9560	4352	12384	13	112	-225	-15720	1512	472	1007	693	-21	-15896	4288	-8	1342	2137	-622	123	121	1
-19976	-3080	13628	-509	-4768	-3123	-18304	-1936	-11096	1261	-5709	1305	-2480	872	-11312	1725	-1093	-310	-9848	3880	12768	-113	46	-288	-14416	2160	-128	68	877	-46	-15648	3584	-640	1312	2226	-447	119	122	1
-24976	-8988	17412	-660	-4220	-2786	-22744	872	-10936	993	-5818	1430	-3288	1672	-6576	1531	-1050	-101	-9424	4464	12552	-149	-26	-277	-14272	696	144	-526	958	-60	-15120	1440	-520	921	1892	-352	120	121	1
-27852	-13412	18708	-452	-3939	-2813	-23928	1680	-12432	440	-5876	1500	-6192	1392	-2904	1042	-1216	111	-9568	4344	12608	-151	-30	-328	-13936	280	-416	-786	1072	7	-15296	688	568	717	1636	-230	122	123	1
-30308	-16120	17508	-639	-3295	-3603	-25896	968	-11632	337	-5718	1552	-8976	584	-2624	924	-1143	175	-9312	4000	12880	-66	47	-321	-15856	-1056	-2208	-694	1241	29	-16504	2488	-2072	904	1701	-263	121	119	1
-32768	-25584	17600	67	-3376	-4660	-23784	-1928	-14400	142	-5251	1280	-14528	3848	48	1211	-1422	391	-9376	3928	13208	58	240	-343	-17664	-776	-2256	-607	1450	71	-17160	2944	-4528	760	1562	-306	124	122	1
-32768	-13136	5544	1508	-3751	-4678	-23960	-8048	-12808	315	-4682	836	-18496	4768	632	1298	-1579	679	-9744	3552	13848	119	548	-326	-17856	-456	-2760	-670	1506	147	-18632	2080	-4104	522	1323	-253	121	121	1
-32768	-340	-4404	1241	-2984	-3782	-26696	-10208	-1584	-2575	-6178	1157	-22736	15384	15544	1103	-1666	1222	-9992	3264	13048	168	847	-290	-16416	-2000	-2840	-528	1628	188	-14656	1320	-104	697	1085	-2	118	125	1
-32768	4168	-7480	285	-2812	-2930	-18208	-4096	-12440	1601	-4058	825	-19072	17736	15432	1797	-886	277	-9296	3392	14144	200	1194	-239	-16488	-288	-1984	-302	1875	186	-16784	3664	-1264	807	986	-121	111	123	1
-32768	8856	-20476	-270	-2216	-2131	-13008	2208	-23976	1271	-1576	290	-16568	9192	23112	871	-539	359	-10208	3944	14104	318	1710	-171	-19496	1224	-3552	-469	2013	136	-18880	5472	-1064	737	784	-225	114	123	1
-32768	11264	-29124	141	-566	-825	-4448	-1016	-16888	518	142	-164	-20664	5760	18216	364	422	340	-10456	3656	13832	339	1811	-177	-22528	584	-2336	-490	2256	166	-22192	7712	-144	165	499	-289	121	125	1
-32768	12044	-23500	-62	818	161	-6936	-4232	-16944	-83	1786	-789	-19128	6304	12168	344	521	265	-13904	5368	15288	660	2952	-367	-22104	-480	-880	-493	2529	280	-25744	10016	-616	65	-28	-458	124	127	1
-32076	-296	-14080	750	2073	2040	-19832	-8672	-14544	-19	2969	-1138	-18776	8088	3264	76	1246	68	-10552	7424	15744	1016	4057	-475	-23848	-1672	-656	-387	2761	345	-24928	4704	2840	-506	-962	-492	122	126	1
14192	-10184	32767	635	2811	1385	-32768	13672	29248	2800	2052	-218	-17584	5288	-3728	45	2145	-1289	-7768	4648	19104	534	5234	-533	-28280	-1920	-512	-84	2924	461	-26760	880	15672	-954	-1994	-348	115	119	1
-15236	9860	18656	-580	3072	3447	-28648	15312	-6720	2459	2165	-1042	-24176	7912	6704	-306	934	-1117	-12480	13552	16904	743	6751	-814	-32768	-2424	3496	327	2945	676	-26856	1392	20616	-1280	-2773	-366	122	123	1
-29236	-4392	9376	-752	3378	1703	-4960	14880	-8920	-1111	2829	-965	-15688	-4168	-12000	-617	544	-444	-9672	14728	20312	1355	8552	-1461	-32768	-4472	14376	1000	2808	1145	-24248	-4536	16216	-2	-2953	-858	115	117	1
-14036	-15104	12180	-1078	2722	1175	-25208	3688	-5152	-5118	3491	-1211	-3680	2912	-8544	556	342	-443	-16680	2968	14528	2800	10894	-2381	-32768	-10056	17464	1903	2674	1322	-30432	-9368	9312	1138	-2513	-865	114	116	1
-15872	-11804	11116	-401	2670	1157	-10832	-15832	-12320	481	2231	-956	-13776	3080	-13408	-379	1162	-949	-32768	4928	6592	3519	10544	-2069	-30368	-7840	14072	1851	2738	1348	-20872	14504	-11024	4195	-1858	-70	110	116	1
-26376	-22784	12552	576	1271	1422	-19792	-7176	-12200	1549	1871	-235	-12528	-4528	-9296	-1437	742	-305	-32768	26528	10944	3663	5995	-4187	-25600	3896	-8552	3873	3559	531	-30056	12688	-13904	2638	-1989	675	114	115	1
-13424	-5664	16428	1443	755	1083	-18400	-3488	-9616	1981	1398	-336	-17360	-15160	-12888	-250	1093	-105	-32768	24040	20616	3398	4069	-2675	-23504	11816	-10456	3798	2312	492	-32408	5584	-8936	-140	-2372	1247	119	125	1
-13388	-9200	10584	1083	152	843	-17360	-1664	-6592	2330	1144	-262	-12824	-3112	-7776	1707	1092	-78	-25144	32408	24400	3267	1494	-535	-11048	11320	-18800	788	1348	78	-28632	-2504	-12272	-1357	-2430	999	124	127	1
-11948	-4364	14284	858	-42	770	-19200	2968	-5672	566	1023	-236	-19584	2760	-7856	1608	1354	-522	-21160	32767	32767	-1637	-3909	784	-9968	5576	-2512	-165	-80	41	-24984	-1440	-10912	-992	-2640	900	132	130	1
-9532	-7560	12140	433	-56	663	-17920	2360	-2712	-739	731	-282	-15320	4184	-4272	870	1398	-300	-12120	9888	21144	-3845	-5618	1454	-8240	2320	3744	-334	-851	121	-25848	-224	-12632	-486	-2558	1090	138	135	1
-10836	-6184	11192	322	27	660	-16568	1832	-2864	-1808	769	-522	-13872	1488	-4472	-33	1523	-283	-3064	-896	11544	-2318	-6623	2031	-8704	1776	400	-966	-2153	190	-20584	-528	-12760	-368	-2290	1551	140	131	1
-11312	-6124	10864	192	102	520	-17640	-3464	-5048	-1924	915	-586	-15360	48	-5280	-383	1687	-290	-6240	184	10784	-839	-6641	2304	-6496	752	-2984	-650	-3081	187	-16240	-2216	-12120	-252	-2327	1257	132	137	1
-9164	-4324	11944	107	220	328	-17000	-6016	-5000	-883	872	-393	-16608	1736	-7944	-531	1769	-175	-11048	4904	9576	-634	-7136	2172	-5392	1664	-3160	-892	-3948	338	-12280	-4032	-12664	-67	-2222	1054	130	132	1
-11100	-4696	10968	32	229	218	-17240	-3008	-6120	155	664	-264	-14000	1816	-7632	-962	1810	-97	-8280	1704	6528	-884	-7293	1978	-5016	576	-3320	-1841	-4816	401	-8320	-3624	-12984	-171	-1797	1078	127	127	1
-10500	-4604	10876	-37	200	97	-16200	344	-3872	245	482	-56	-12888	528	-6224	-1138	1888	-114	-10296	576	7448	-670	-6757	2103	-6808	-4552	-5504	-2114	-5526	20	-6288	-3224	-14112	-291	-1353	1203	124	125	1
-9668	-5428	10924	-153	174	60	-15744	3256	-1736	-271	339	-10	-15760	-400	-3768	-1141	2058	-193	-15688	728	13352	-569	-6548	2282	-10672	-6952	-7336	-1363	-5849	-522	-4784	-2936	-13072	-710	-1015	1100	127	124	1
-10012	-5736	10304	-183	56	70	-16704	-1320	-4744	-952	-107	-197	-12912	-2384	-2008	-1353	2679	-266	-25304	-424	16296	-494	-6643	2424	-18024	-8928	-11576	-609	-6049	-1003	-4968	-4200	-11144	-1364	-883	863	124	128	1
-10624	-4852	10672	-145	8	156	-15808	-2576	-3776	-1191	722	-300	-16064	-2648	-3520	-898	2620	-111	-28840	-1984	16248	-366	-6484	2214	-17088	-6440	-9248	869	-5986	-814	-4128	-4568	-10464	-1281	-768	452	124	128	1
-9868	-5780	10868	-45	-18	258	-16632	-2744	-1904	-223	626	-254	-16232	-1560	-1464	-341	2655	-58	-30224	2952	18856	-528	-6185	1566	-20928	-4296	-15112	1804	-6008	-675	-2976	-4224	-7536	-663	-643	249	123	127	1
-10332	-5268	10564	83	-46	274	-15536	-3264	-1160	227	854	-83	-16160	440	2000	-65	2453	70	-32768	1664	21904	-360	-6103	1127	-26600	-888	-11688	2023	-5918	-344	-4984	-2504	-1496	-587	-761	305	125	125	1
-9096	-6216	11012	98	1	398	-16200	-888	808	459	990	-54	-17024	576	608	174	2266	93	-32768	2600	17776	289	-6053	987	-25768	2184	-14304	1343	-5871	-19	-9904	1224	1568	-494	-1249	225	121	124	1
-9904	-4880	11092	106	106	467	-16696	296	824	231	1228	-113	-18472	1200	576	309	1767	-163	-32768	4592	10728	553	-5476	1123	-27200	1656	-18336	-38	-5435	-193	-14640	5304	976	-453	-1396	394	125	128	1
-10224	-5120	11120	71	265	440	-15640	216	-1136	206	1477	-98	-18968	-584	-2064	-46	1420	-219	-32768	7120	328	-13	-4245	1778	-23392	-7072	-22960	-1371	-4474	-563	-25544	6912	3544	-1066	-1694	870	127	128	1
-10756	-3464	11844	13	516	384	-17360	1472	-2256	346	1721	-138	-19856	3080	-960	-442	1393	-199	-32768	9000	-8960	-1415	-2869	2371	-16472	-2176	-25944	-1131	-3141	-852	-21008	3352	15104	-1617	-1755	1131	121	128	1
-10068	-5172	12660	47	970	454	-20744	1400	-2272	261	1961	-224	-22296	6096	-872	-644	1438	-214	-32768	-5712	-23312	-743	-1404	1571	-12928	2376	-23040	-683	-1740	-481	-6792	-5376	25232	-921	233	558	120	123	1
-11432	-4560	13040	-30	1555	469	-19144	3128	-2296	250	2150	-305	-17536	5352	-88	-762	1030	-202	-32768	3736	-30472	673	-320	1039	-8200	5936	-24248	-1026	-3	353	-13872	-15808	20728	130	994	-534	117	123	1
-11308	-3968	13200	-86	2397	374	-20704	1568	-3920	123	2434	-294	-17496	4320	-296	-764	945	-209	-32768	5800	-24256	-416	1394	535	-8336	3656	-20104	-1214	1644	314	-20000	1304	15712	253	1238	-947	115	121	1
-12208	-5472	13948	-95	3412	316	-23472	1152	-2792	225	2629	-295	-23048	-960	2000	253	-101	15	-22064	11536	728	-919	2716	279	-17864	-760	-4256	97	2709	281	-17568	1688	7272	-273	2732	-432	117	117	1
-17672	-7404	13756	-613	4430	574	-25576	1560	-688	244	2805	-527	-26424	-1360	5056	667	-711	457	31408	1432	32767	1007	2940	-344	-21088	-4360	8768	448	2603	190	-17288	368	-6064	558	2822	895	122	117	1
-14420	-9992	15104	-1130	5322	699	-29344	408	3776	-191	3068	-667	-32424	-3672	9688	231	-1760	927	-31600	-16120	12848	1090	3987	-2497	-12976	-2488	-19928	-2166	2064	1351	-32768	15384	11920	423	187	526	118	115	1
-13012	-16672	13352	-1372	6275	1714	-32768	2800	5976	-684	3092	-990	-32768	4248	22248	1385	-3825	926	-22136	16728	21656	706	2958	-908	-14768	-16536	-912	-424	2470	-326	-13536	9320	7152	-2136	-897	275	125	122	1
-11112	-16772	15904	-1302	7817	3319	-32768	7456	10512	-1642	2925	-1566	-17248	21264	11608	1523	-2509	1931	-14736	16336	10256	231	3328	-405	-25088	11160	-8656	1045	3037	597	-9568	-21280	-4240	-1185	1055	-961	120	112	1
-25232	-13284	16384	-1916	9471	4310	-25432	7064	1712	-2514	2939	-1246	-17016	18288	4360	-1214	-1211	879	-19904	5728	22352	44	2511	-531	-12112	-688	-8680	-1072	2080	495	-17136	-4528	-8768	942	467	341	120	121	1
-32768	-4484	12456	-3169	7708	3617	-19864	-9256	576	-3403	3155	-703	-25600	-7112	-17120	-4689	-137	131	-16528	9640	10040	-224	1231	-415	-19616	2712	-9016	104	2078	467	-9640	10328	-12744	1984	544	266	125	124	1
-32768	-26620	12964	-2875	4057	4205	-32568	-14280	-15504	-4016	2746	-627	-32768	-13736	-17560	-5085	-1586	-846	-15344	-176	18000	-90	528	-744	-17832	1336	-8504	-679	1699	447	-15344	6496	-10664	817	940	177	128	116	1
-16196	-31852	28036	-2549	1997	2345	-18024	-8248	-19088	-2360	2521	-394	-27832	5736	-14568	-1747	-2397	-1358	-15240	-152	16960	-209	411	-766	-16832	-4136	-5344	-438	1294	182	-18224	7456	-7472	519	1333	12	122	117	1
-32768	-32768	32767	-78	-1877	347	-11104	-8920	-9992	179	665	-185	-23328	584	-16944	-376	-2424	-556	-9256	4232	13920	21	260	-346	-18832	296	-4632	467	1263	113	-16464	6512	-8488	-15	1469	-286	123	117	1
872	-27416	21468	1640	-4088	-517	-10256	-9840	4552	559	-416	-24	-23680	-3224	-12880	299	-2772	-416	-8880	5080	14104	67	248	-133	-17568	1064	-4704	539	969	63	-16120	3936	-6000	5	1581	-489	128	123	1
3352	-13024	12208	2015	-3938	-603	-6904	-3632	-3152	1826	-1300	-16	-18528	-632	-13176	613	-2083	-552	-9920	4912	13544	22	229	-211	-17984	1352	-4744	704	776	122	-15288	2408	-4528	273	1730	-478	126	122	1
1244	-7904	10112	1168	-4224	-1884	-5048	2216	-1384	2026	-2134	241	-14760	2368	-13632	558	-2037	-689	-9088	4992	13432	-12	199	-314	-17232	1744	-2104	406	633	259	-15528	2608	-2120	461	1781	-378	125	117	1
-2984	-9596	10176	551	-4673	-2757	-5984	2976	-2464	974	-2849	229	-11352	2872	-13376	440	-1872	-568	-9312	5544	13760	-83	210	-382	-16616	3200	-848	-27	521	126	-16304	2936	504	512	1790	-331	121	121	1
-4420	-8480	9540	577	-5186	-3202	-7640	-1936	-3832	242	-3539	193	-9912	2640	-13296	504	-1846	-441	-8672	5560	13432	-69	253	-257	-16232	240	-1464	-161	608	22	-14712	4632	-560	675	1751	-386	120	123	1
-5880	-3788	7588	482	-5222	-3286	-8464	-2360	-4312	883	-4134	266	-8840	280	-13944	524	-1785	-540	-9104	5424	13136	-49	259	-257	-15480	32	-2296	28	696	16	-15056	2816	-584	732	1834	-456	122	118	1
-8848	-652	9572	189	-5225	-3291	-8464	-2224	-4912	1330	-4680	464	-5464	-1368	-14352	474	-1690	-583	-9544	4056	13080	8	246	-286	-15824	-776	-1792	387	807	58	-15688	1360	-1176	899	1869	-404	123	120	1
-14356	-2808	12192	-233	-5449	-3044	-11472	-2112	-6128	1423	-5153	664	-3480	-2800	-14008	775	-1692	-680	-9736	3616	12712	7	220	-349	-15424	-1392	-2600	568	856	96	-15200	1400	-1368	1193	1788	-567	125	121	1
-16948	-3432	13288	-484	-5512	-2734	-13912	-1280	-9216	2000	-5491	902	-3288	-1440	-13512	1573	-1598	-648	-10008	4344	12480	-31	187	-332	-15264	-120	-2584	569	935	85	-13944	3144	-2248	1454	1894	-458	123	124	1
-21632	-5068	15552	-789	-5055	-2753	-21400	2440	-12720	2187	-5805	1394	-4416	-112	-10264	2314	-1438	-549	-9192	4384	12552	-145	126	-289	-15112	2848	-1816	143	1000	109	-13712	3400	-2392	1461	1981	-397	122	124	1
-24824	-9040	18196	-852	-4418	-2835	-22560	8672	-9888	462	-5809	1597	-5216	2944	-5744	2241	-1451	-185	-9840	4848	12936	-265	122	-334	-15096	3360	-2976	-576	1001	35	-14976	4016	-3240	958	2104	-439	121	124	1
-31972	-13940	20384	-610	-4225	-3085	-24632	2456	-14544	-1026	-5778	1121	-6320	3760	-3792	1460	-1231	274	-9560	4680	12768	-211	136	-323	-15144	656	-2944	-1007	1120	-38	-14800	2496	-4480	691	1945	-344	122	124	1
-32768	-15824	17196	-481	-4035	-3856	-23432	-3816	-16104	-1083	-5655	722	-7888	6000	-2536	1089	-1035	413	-9640	4512	13264	-102	243	-353	-16504	-960	-3256	-838	1263	-32	-15856	1184	-4296	568	1922	-306	122	124	1
-32768	-16652	16524	-425	-4031	-3985	-20464	-7616	-13880	322	-5368	746	-11840	6488	-1896	764	-608	459	-9808	3520	13408	6	419	-342	-17424	-2208	-3864	-608	1326	18	-16976	1728	-2728	432	1763	-378	121	125	1
-32768	-2552	5476	379	-3498	-4128	-25168	-4904	-13960	1279	-4649	921	-22672	6960	6024	1034	-1262	456	-9296	2896	13368	72	651	-328	-16624	-2160	-1080	-331	1457	127	-17728	-256	1072	386	1440	-248	120	126	1
-32768	-1536	-1400	658	-2765	-3387	-22704	-4120	-19264	1738	-3681	981	-29688	6200	15728	1263	-2153	279	-8888	3360	14336	161	1008	-299	-17504	256	-536	-389	1620	135	-20992	1056	2216	983	1208	-158	119	124	1
-32768	2548	-12184	850	-2268	-2491	-20696	1072	-32768	404	-2757	565	-14616	7856	15704	684	-717	-369	-9456	3784	14184	308	1570	-237	-18944	-1288	-1888	-623	1786	91	-21064	4120	744	941	714	-205	118	124	1
-32768	12720	-25860	-43	-1304	-1678	-6752	1072	-16312	981	-989	366	-13176	13168	21080	240	12	113	-10408	3808	14048	437	2277	-207	-20376	-824	-2624	-466	2091	135	-18880	7776	1688	598	478	-121	120	126	1
-32768	9964	-25960	-337	327	-889	-5800	-4568	-17528	65	584	-392	-19808	7112	16544	607	682	637	-10376	5376	14296	600	3055	-215	-21504	680	-2072	-384	2394	183	-20232	8480	5032	44	285	-132	123	131	1
-32768	8104	-17656	275	1367	130	-9320	-7056	-18368	444	2014	-857	-20224	2736	8528	435	1210	348	-14920	6016	14664	746	3503	-372	-22544	-728	744	-548	2606	294	-26768	9184	-1208	215	-260	-529	126	129	1
-32768	12284	-5976	1065	2783	1384	-16288	-2472	-8144	459	2694	-1005	-19016	4272	6024	384	2642	-648	-11208	5680	16000	984	4568	-531	-23240	-2088	-2688	-522	2741	366	-18928	-704	10432	-783	-1469	-611	122	123	1
29124	2028	32767	768	1899	1040	-32768	14872	30736	2165	1562	-257	-1152	8304	-10936	1254	1580	-1395	-12520	8296	15648	909	5737	-530	-28176	-3440	-1392	-41	2816	491	-19640	-3568	16232	-445	-1246	-533	121	122	1
-13688	9536	25136	-1277	2753	3005	-27360	17912	-1864	1821	1728	-833	-32768	-88	3032	-1177	1941	-550	-12800	14696	16784	1174	7107	-818	-32768	-2696	10080	845	2900	906	-29856	736	19520	312	-2317	-885	128	126	1
-31512	-2472	5296	-1052	3658	1605	-9800	9648	-10312	-1432	2475	-532	-19496	-1560	-5088	76	-275	339	-13568	12328	17792	1928	9085	-1736	-32768	-2176	11328	965	2894	982	-27384	-3248	6560	794	-2496	-632	122	124	1
-19096	-19392	8108	-1487	3297	859	-27344	-4080	-6952	-5802	3440	-1693	-8728	14312	4320	1562	459	-849	-32128	12400	18816	2897	10425	-2325	-27384	-2968	-480	2039	3028	1215	-23936	6472	2600	2423	-2185	-91	110	125	1
-19868	-6100	16824	-740	2671	889	-13480	-6592	-10048	887	2263	-944	-16472	6264	-7696	-704	586	-827	-32768	8336	8944	3428	8939	-3241	-22816	992	-10952	3271	3408	922	-25056	13088	-15208	2883	-1987	431	117	122	1
-20268	-15808	8736	591	1246	868	-20848	-3360	-8888	1050	1922	-331	-13784	-7392	-13632	-2308	792	-299	-32768	11144	15768	3124	4189	-4357	-29144	11288	-10328	3209	3333	372	-32336	12080	-11136	176	-2213	613	121	123	1
-14496	-5028	14024	1207	895	789	-16560	-6432	-8912	1487	1621	-550	-13360	-11792	-6896	-902	414	-275	-25128	22456	31408	3232	3806	-1421	-19112	7504	-5040	1216	2033	-63	-31088	4520	-13536	-964	-2084	641	126	125	1
-11492	-10540	11512	1079	667	610	-14232	-312	-2488	1445	1307	-457	-10880	-6600	-8472	1012	709	-130	-20248	25096	30688	3339	3596	-1060	-6896	11144	-19696	-232	834	-101	-24032	-3992	-11992	-1022	-2000	534	129	132	1
-9944	-6628	11412	771	381	695	-17984	-584	-6016	-121	1149	-280	-17952	-1400	-11136	1224	1217	-362	-10128	25480	27968	-3457	-4018	1121	-5384	5568	2352	-929	-541	-243	-22632	-2696	-13296	-1077	-2285	853	133	132	1
-12288	-7072	12260	397	254	601	-18640	88	-5744	-1027	810	-240	-16312	1944	-7384	746	1315	-147	-2984	4640	15440	-3704	-5033	1632	-9048	3312	4744	-1251	-1385	-189	-22000	552	-13480	-730	-2297	1301	135	129	1
-11544	-6076	10784	-16	266	406	-17624	960	-5624	-1544	776	-304	-15088	2128	-6984	88	1516	-66	-5328	1232	10960	-2352	-5616	1929	-9536	3448	3968	-1361	-1611	-148	-18120	-416	-11224	-724	-2182	1326	133	131	1
-11268	-5944	10468	-101	253	279	-17976	-1312	-5472	-1644	759	-385	-15360	3136	-5496	-431	1629	-214	-10008	3752	11272	-1356	-6338	1878	-4832	3592	-4896	-1245	-3235	-250	-13296	-1768	-11752	-611	-2205	1216	132	132	1
-10212	-5720	11236	-132	305	180	-17400	-4784	-2736	-645	659	-399	-16512	1440	-5584	-745	1642	-212	-11136	5056	9944	-1328	-6895	1622	-5816	2128	-4032	-1570	-4138	-273	-10880	-2008	-11096	-603	-2027	1231	129	129	1
-10156	-7396	9628	-132	308	229	-16744	-4304	-3104	239	572	-164	-15672	-1152	-4312	-1116	1658	-87	-8960	5528	7264	-1332	-7151	1714	-7360	40	-4696	-1802	-4847	-460	-9528	-776	-13080	-794	-1504	1289	121	125	1
-10468	-6552	9812	-95	170	296	-14296	-2320	-3056	296	502	-33	-13624	-3808	-4336	-1206	1803	-108	-9552	2896	4888	-1222	-6601	1781	-11152	-3464	-4512	-1396	-5300	-802	-8840	-1184	-11712	-1200	-991	1144	122	120	1
-10236	-7612	9252	-25	11	403	-15328	-720	-2664	-213	478	-79	-13928	-3592	-5080	-846	1941	-169	-17504	4568	11040	-884	-5961	1796	-15512	-2808	-7904	-669	-5523	-1023	-7704	-4728	-11024	-1246	-882	988	119	121	1
-10860	-6884	10004	9	0	461	-17440	264	-8920	-1438	783	-410	-12944	-2752	-3920	-247	1995	-179	-28304	4984	17504	-821	-6062	1847	-17504	-3048	-11904	-185	-5816	-990	-5672	-5584	-8672	-1333	-960	653	124	124	1
-10324	-5960	10108	159	-228	351	-15176	-984	-1344	-967	642	-208	-14816	-616	-2376	-122	2097	-197	-29144	2256	17048	-470	-6206	1906	-18600	-2936	-9184	762	-5760	-1016	-5016	-2824	-6728	-776	-937	374	124	123	1
-9456	-6532	9968	336	-394	415	-15640	-4544	-1376	-673	752	-326	-13672	-832	-1104	-314	2368	-7	-28232	2536	16888	-383	-5886	1371	-23328	-1424	-9200	1568	-5672	-792	-5064	-296	-4624	-304	-836	454	122	124	1
-10160	-6532	10128	422	-482	560	-15624	-5832	-1104	771	693	-29	-15488	1104	288	-108	2335	55	-29864	1152	19496	-199	-5464	687	-26032	-232	-11224	1667	-5723	-650	-6768	1040	-1064	-152	-707	705	122	124	1
-10860	-6432	10160	486	-479	677	-15944	304	-1648	1251	817	48	-17496	1840	-360	-121	2379	51	-32768	3400	19104	241	-5340	304	-25640	104	-12464	1520	-5541	-540	-12912	3656	1248	-320	-907	712	119	122	1
-10556	-5712	10900	413	-294	629	-17096	3424	-536	405	988	-63	-17616	1088	-2960	-246	2194	-17	-32768	5136	13968	447	-5378	314	-23552	-592	-15000	801	-5077	-481	-17848	3928	-1400	-512	-1148	875	121	124	1
-10224	-4164	10848	206	10	555	-18536	1680	-2192	-498	1235	-278	-16752	2256	-2392	-439	2135	-291	-32768	7168	3160	128	-4813	830	-23080	-5832	-18016	149	-4435	-615	-19272	2712	3792	-854	-1556	835	117	126	1
-10132	-4336	11388	-55	384	417	-19200	80	-2520	-604	1518	-241	-18064	2720	-1720	-620	2087	-413	-32768	6328	-8328	-491	-3544	1078	-19032	-1768	-20256	-34	-3566	-556	-17952	-280	15800	-1486	-1845	682	123	125	1
-10864	-4232	11996	-190	781	313	-19152	408	704	-293	1822	-256	-22448	2712	-296	-712	1786	-207	-32768	-2016	-19984	40	-1914	824	-12320	1072	-21032	-342	-2172	-112	-12424	-6216	23336	-650	-332	522	119	124	1
-9724	-5676	14252	-205	1298	195	-16832	2368	240	227	2010	-225	-24344	2256	560	-728	1006	-97	-32768	3544	-26632	737	-836	1053	-7232	2888	-21672	-627	-526	205	-15608	-1128	26008	772	754	170	119	124	1
-11408	-4840	13380	-210	2065	170	-20120	2152	-2576	239	2290	-133	-18992	2480	136	-458	567	-19	-32768	5888	-25504	-474	633	883	-7736	4112	-19744	-809	1117	258	-16336	3384	18536	336	664	-488	118	122	1
-11076	-6700	12836	-427	2954	133	-23360	256	-3680	204	2483	-192	-20664	-1680	-416	-279	433	-79	-32768	-896	-26320	-1103	2718	-232	-15224	5720	-16232	-503	2587	402	-23576	5584	8432	-63	1454	-258	118	117	1
-10500	-6476	13228	-638	3869	444	-24008	-136	-1720	188	2667	-482	-22632	-872	2744	505	47	96	32767	6120	32767	-57	3475	-387	-32768	-12584	32767	325	1874	-433	-21192	4224	2072	-7	2761	100	115	112	1
-13420	-8340	15060	-1295	4847	349	-26888	-728	2352	-82	2893	-531	-30008	-2192	7520	726	-846	447	-21432	-22984	15224	1130	3770	-2420	-21096	-8168	-12136	-2840	2225	1236	-28312	8856	5760	-268	1491	813	116	118	1
-11704	-10652	13312	-2137	5859	1205	-30176	3304	4128	-186	3140	-750	-32768	600	19336	819	-2642	692	-28688	9792	20632	853	3121	-994	-8512	-23616	-5624	-858	2683	-266	-16216	8000	3600	-2154	-848	303	124	117	1
-15332	-16168	12896	-2311	7086	1985	-32768	9424	8272	-1138	3178	-1241	-23536	16776	11568	3098	-3771	1526	-9552	18112	10856	356	2908	-335	-24848	12840	-6016	2070	3238	521	-4424	-16520	-6088	-1521	845	-1246	116	114	1
-15728	-18724	14240	-1998	8577	3293	-32704	4496	4168	-2252	2831	-1475	-11704	31232	-2528	-1445	-1333	1447	-14872	2960	15096	-263	2896	-625	-9560	7592	-6936	-973	2298	751	-13752	-3576	-13792	173	838	158	118	114	1
-31928	-1408	11768	-2318	8716	3909	-21216	-7624	-1040	-3864	3025	-1254	-23032	-760	-11736	-3021	-523	189	-30184	21864	17904	-875	1373	-1376	-17712	7704	-10944	-541	1923	468	-15632	9216	-11992	1611	357	626	118	120	1
-32768	-20692	12672	-2608	5335	3966	-28336	-11336	-9176	-2870	3065	-476	-32768	-18952	-15312	-5690	-1178	-223	-14952	-3296	22080	-727	1040	-977	-18752	2584	-9568	-1804	1630	511	-13440	10152	-7256	910	964	339	123	114	1
-32768	-32768	24240	-3175	3650	3253	-21656	-8456	-19016	-2364	3099	-432	-29576	-6328	-12208	-2624	-2396	-1212	-11808	3808	14184	-62	-32	-691	-19600	-7960	-6472	-1671	1436	222	-18112	5800	-9192	-102	1422	144	120	115	1
-5152	-16924	30944	-1279	1346	1803	-14496	-9360	-9720	-243	1408	90	-22408	240	-15824	289	-2678	-501	-11176	1704	14896	-76	28	-458	-16352	-2016	-4384	102	1508	246	-17784	3304	-6376	118	1541	-186	125	112	1
-12636	-32768	28832	-529	-3489	-398	-11792	-9752	-64	602	226	2	-24648	-1872	-12032	749	-2403	-333	-9488	3488	14400	-129	-25	-269	-16488	632	-5960	934	1302	254	-15624	2312	-6728	317	1523	-263	119	122	1
2456	-25304	16192	1804	-4306	-271	-10168	-6192	2128	854	-877	28	-24544	-1528	-12576	773	-2333	-294	-10864	4304	13024	-101	-34	-246	-17688	2640	-6712	1133	1108	328	-15296	3496	-6616	687	1709	-255	124	118	1
1468	-10964	12464	2064	-4615	-720	-8448	-2872	-2976	2093	-1727	187	-19192	2072	-13704	610	-2063	-538	-10176	4200	13408	-93	-20	-280	-17232	3576	-5712	549	772	349	-16016	4056	-6112	766	1828	-293	121	120	1
-308	-8528	10992	1200	-5015	-1795	-6496	2752	-1392	1690	-2487	323	-14288	880	-13776	449	-2009	-458	-10144	3144	13560	-92	74	-177	-16528	3496	-5472	-872	488	227	-16040	2488	-4944	599	2026	-327	121	120	1
-616	-8348	10964	1101	-5089	-1954	-8328	104	-2376	696	-3296	480	-12408	1984	-12880	524	-2107	-271	-9720	3608	13000	-78	167	-50	-16920	-976	-3584	-1157	391	-8	-15520	3480	-3520	649	2028	-378	119	121	1
-6056	-8696	9848	653	-5430	-2766	-10016	-2392	-4472	448	-3954	603	-10040	0	-12576	686	-2042	-407	-8928	4080	13344	-30	162	-50	-16088	-1272	-1280	-524	607	-28	-15784	2704	-2208	726	2045	-397	119	120	1
-10200	-4764	9840	540	-5474	-2900	-8496	-1288	-5904	910	-4646	796	-7120	-2040	-13520	780	-1882	-505	-9224	4176	13328	15	111	-112	-14312	-96	-1928	272	831	77	-15344	3576	-2368	892	1928	-346	120	117	1
-14280	-3592	10888	253	-5595	-2975	-10192	912	-6816	678	-5066	1038	-4608	-1816	-14048	1207	-1743	-485	-9344	4064	13160	65	61	-154	-15280	2176	-2880	577	865	64	-13544	5624	-2048	843	1819	-328	122	121	1
-16968	-3496	11420	152	-5546	-2665	-13328	656	-8416	571	-5404	1164	-3808	-120	-14296	1662	-1705	-495	-8920	4096	13184	15	21	-177	-16312	2920	-1904	409	767	105	-13624	4296	-1720	711	1815	-452	118	118	1
-20452	-4692	15316	-69	-5423	-2590	-15776	1136	-10800	748	-5676	1330	-3136	1216	-12576	1979	-1389	-297	-9152	3696	13000	-31	29	-177	-15296	1328	-2408	-174	688	30	-14136	2520	-976	440	1803	-448	123	121	1
-20784	-8652	16420	-12	-5078	-2751	-21400	5208	-10272	151	-5875	1359	-3168	2352	-8960	1604	-1090	-143	-9232	3560	12800	13	56	-148	-15336	-440	-2816	-291	829	21	-15368	1688	-1376	542	1910	-427	125	123	1
-23896	-12120	16252	169	-4243	-2881	-23960	1888	-11376	-410	-5979	1241	-4536	2664	-6800	1277	-946	54	-8824	3880	13240	58	138	-174	-16584	240	-1624	-331	971	37	-17752	1608	-472	886	2013	-314	122	123	1
-30120	-15380	16156	12	-3525	-3251	-25376	-3816	-12992	-88	-5943	1027	-6656	3288	-4032	786	-824	204	-9016	3776	13272	51	303	-238	-16712	-272	-2296	-219	1027	131	-16720	808	-1024	1095	1874	-349	123	123	1
-32768	-19712	15660	-277	-3309	-4140	-23176	-7336	-14776	1100	-5622	1028	-7472	3704	-3088	732	-866	228	-8936	4792	13272	107	514	-295	-17768	-272	-2880	60	1155	180	-17776	1984	-2048	1290	1969	-229	124	123	1
-32768	-18136	7524	400	-3871	-4705	-24360	-7648	-15040	1676	-4877	1022	-13912	2880	-1488	981	-1347	633	-9704	2912	13472	123	701	-349	-17808	-208	-3296	93	1177	196	-16704	1144	-944	1366	1772	-22	125	126	1
-32768	-6904	-5792	960	-3208	-4132	-24416	-7424	-14240	1740	-4737	1007	-21648	8664	7744	1744	-1664	580	-8576	2872	14488	125	909	-302	-16848	-1416	-688	352	1484	276	-18408	2432	456	1340	1450	31	121	126	1
-32768	-1320	-12596	1162	-1950	-3373	-25320	-4720	-30160	1198	-4367	1148	-24160	17336	22272	1842	-1484	991	-9976	3040	13784	244	1393	-277	-15712	-1808	-960	150	1743	244	-19352	4776	1696	1155	1019	-136	112	122	1
-32768	8908	-18972	562	-1306	-2557	-8344	-1744	-15104	1629	-2164	464	-12792	13432	18904	1046	-350	51	-10248	3104	13888	379	2027	-137	-18480	-544	-1720	-61	2088	216	-20576	7824	2128	876	708	-230	115	119	1
-32768	14864	-29016	-480	-389	-1494	-4080	-4512	-20296	-155	-87	-318	-14992	5400	17304	233	398	176	-11392	4000	14792	506	2735	-115	-21280	712	-2256	-274	2403	241	-20880	9672	784	602	372	-314	116	124	1
-32768	8032	-29220	-375	1394	536	-7328	-9544	-18120	-106	1674	-856	-18264	4968	13416	5	981	120	-15000	5680	14040	651	3491	-165	-22864	-528	-1624	-522	2568	314	-20952	6688	4480	-214	-36	-304	124	123	1
-5000	11496	-8780	791	2439	1926	-18792	-4840	-2856	730	2692	-1087	-17864	3584	3040	-390	2107	-242	-11400	5648	17256	849	4488	-361	-25376	-1568	-760	-478	2767	414	-24720	6360	8336	-286	-421	-450	122	119	1
8720	-17592	32767	-167	3952	3124	-32768	25480	7672	3095	1761	743	-19440	2720	2664	-369	2432	-421	-9752	8888	17528	515	5773	-436	-30616	-8	2296	-90	2979	468	-29120	5744	15288	-297	-1601	-809	124	122	1
-32768	2328	5520	-563	3412	1936	-13752	5896	-18920	798	3182	-1266	-28896	6752	6688	126	607	-957	-11256	11856	17640	782	7339	-991	-32768	-3568	8192	187	2854	837	-27408	-3528	18264	-637	-2566	-893	121	123	1
-22012	-12360	28404	-677	3276	1205	-13568	16976	6312	-2155	2740	-1078	-1928	-3752	-20592	-206	38	-341	-10712	12416	18648	1650	9473	-1773	-32768	-8216	15040	1196	2703	1293	-30144	-7352	8480	674	-2520	-700	113	121	1
-11504	-9576	3876	-1025	3265	856	-21856	-17360	-14864	-2663	2519	-1716	-4192	10584	-11344	841	445	-270	-27792	7056	17128	2803	10997	-2342	-27936	-5640	4120	1685	2821	1474	-27264	2320	7584	1721	-2230	-147	117	120	1
-32768	-24852	8584	485	1310	1294	-13032	-25776	-17464	1739	2131	-636	-15760	-4432	-11752	-441	543	-793	-32768	3296	6320	3384	9746	-3150	-24672	-776	-8208	3997	3276	931	-24008	13648	-17736	3463	-2079	206	130	125	1
-20388	-6072	18244	1204	220	1266	-20112	-2888	-12176	4074	1554	-322	-15752	-10712	-14184	-476	1122	-53	-32768	17624	25152	3853	4652	-4177	-32656	11720	-11728	4219	3590	849	-30872	14864	-13616	1331	-2538	726	125	127	1
-12264	-7928	12644	1119	-263	933	-16912	8544	-5376	3096	1091	-221	-13824	-4336	-10800	1386	1061	124	-22328	25392	32767	3269	3864	-882	-20664	7720	-6464	2137	2081	323	-32416	640	-9544	-1069	-2683	1062	129	133	1
-11512	-7008	11084	622	-229	643	-20872	2000	-4712	-829	1213	-666	-17696	4088	-11208	1297	1249	-791	-32768	32767	32767	90	1929	-699	-9192	8560	-19144	-25	677	145	-28080	-1976	-9104	-1431	-2656	919	133	139	1
-9208	-6928	11884	311	-178	694	-14408	-1568	-3344	-1338	986	-578	-15432	3304	-6456	219	1340	-519	-13112	26064	31840	-2142	-2553	1233	-8784	3696	-1512	-662	-636	1	-27216	-2352	-12360	-968	-2706	943	140	134	1
-11688	-6004	10584	134	-119	643	-20160	-6328	-5984	-1956	944	-798	-13000	-3104	-7568	-673	1724	-360	-10840	5304	22936	-2745	-3972	2122	-9392	40	1536	-1169	-1230	56	-24888	-664	-12792	-603	-2546	1268	139	139	1
-11136	-4288	11384	131	26	342	-17504	-10272	-6968	229	850	-480	-14840	-1072	-7016	-386	1824	-299	-14448	3784	20584	-2314	-5554	2379	-6536	32	-3352	-1119	-2341	52	-18408	-3016	-12536	-399	-2566	1414	139	135	1
-10384	-5160	11484	162	166	195	-15136	-3136	-3632	1940	696	-19	-16200	-1488	-4712	-69	1889	-57	-14120	152	16240	-1875	-7049	2185	-4864	-992	-2064	-334	-3201	47	-13944	-4376	-11360	-177	-2679	1241	136	134	1
-9916	-5756	11004	205	208	153	-17000	5720	-2496	1018	526	190	-14976	-1536	-5472	32	1808	20	-11592	-3648	10280	-1050	-7766	2329	-6528	-1016	-1056	-473	-4061	130	-12320	-3248	-11696	-34	-2450	1185	129	131	1
-9492	-4988	11156	112	166	163	-15400	1848	-2512	-568	517	-267	-15360	1848	-4096	-5	1845	-214	-8640	-1256	8272	-843	-7693	2318	-6376	-616	-1304	-655	-4205	118	-8680	-2376	-13136	-240	-1981	1008	123	125	1
-10004	-5188	10972	-90	159	200	-16808	-1752	-3552	-981	513	-397	-15200	2568	-4888	-584	2144	-180	-14336	-608	9824	-1179	-7376	1990	-6504	-6008	-6408	-1381	-5606	-570	-5344	-2016	-13520	-537	-1450	1029	124	124	1
-10504	-5348	11796	-83	103	216	-18280	-2336	-15552	-998	312	-487	-12888	-944	-2440	-719	2465	-56	-18704	-4336	12032	-1097	-7225	1821	-11600	-6472	-6728	-941	-5998	-960	-4648	-2952	-13304	-949	-1106	847	120	121	1
-10432	-3924	10960	-25	81	116	-14336	-832	-3080	-266	714	-143	-16544	-1312	-2576	-303	2119	52	-26304	-2256	16192	-575	-7100	1722	-17664	-8240	-11960	-102	-6257	-1419	-4336	-3760	-12248	-1597	-789	540	117	123	1
-9364	-4820	11128	79	45	110	-15728	-1848	-1424	107	738	-143	-16456	-648	-1416	12	1933	58	-32328	2248	16864	-516	-7089	1378	-17504	-7640	-11872	1382	-6173	-1198	-3504	-6096	-11408	-1191	-620	217	120	125	1
-9712	-5500	11280	69	58	186	-17936	-368	-1536	156	765	-137	-17736	3040	-1744	-73	1703	103	-32768	8400	18656	-1029	-6883	1207	-20680	-2928	-14616	1712	-6257	-1000	-2488	-7008	-8544	-583	-390	-136	120	126	1
-9844	-5508	11188	82	64	196	-17664	1312	-1448	-328	869	-272	-16624	4592	-1160	-352	1808	-92	-32768	6120	17760	-1156	-6644	1428	-29448	-976	-15528	1254	-6186	-954	-3600	712	-1912	-347	-390	-225	122	126	1
-10248	-5816	11372	-28	280	273	-16928	-192	-520	-716	1080	-378	-16224	1392	232	-694	2090	-326	-32768	11944	11832	-1050	-6095	1762	-28456	6904	-18304	760	-5737	-741	-9600	8904	488	-727	-909	238	123	125	1
-10164	-5896	11436	-10	300	271	-17216	-2320	-1240	-488	1283	-373	-21392	304	-1520	-783	1908	-335	-32768	12592	9984	-1108	-5955	1737	-24824	6920	-25488	-2171	-5134	-728	-21568	7576	-3864	-2139	-1156	1072	119	124	1
-9876	-4604	12784	-27	771	494	-18712	896	-1968	-351	1487	-392	-17968	1112	-856	-1014	1488	-467	-32768	12712	-12936	-1621	-3428	2394	-18920	-2080	-27248	-3164	-3770	-1218	-32768	1584	9312	-3165	-1621	1041	119	125	1
-10316	-4164	12192	-136	1202	474	-19120	1520	-1448	-416	1681	-383	-17456	1632	-256	-994	1465	-480	-32768	7824	-24752	-2067	-1277	2089	-13304	1016	-25392	-2183	-2224	-1020	-7592	-8760	29248	-1695	-825	514	119	119	1
-10760	-4400	12704	-193	1715	522	-17536	464	-2184	-306	1946	-420	-21136	1592	272	-681	1347	-266	-32768	1928	-32768	778	-43	1993	-7440	5624	-26240	-768	-280	49	-11328	-11904	27744	518	1634	-562	118	120	1
-10760	-4528	13464	-121	2386	526	-20664	1648	-2384	-65	2175	-371	-21432	-704	-1064	-413	756	-164	-32768	11264	-27424	1057	1050	1275	-6560	9928	-21208	550	1661	769	-15880	-5120	18776	634	1013	-1196	116	117	1
-14500	-6172	12752	16	3334	570	-22808	824	-2240	120	2418	-398	-21560	-1736	280	176	327	-33	-13416	11344	3456	-753	2323	563	-16800	792	-1960	1006	2574	723	-10032	6912	7640	633	3179	-615	114	121	1
-12912	-7120	13948	-55	4130	657	-23336	904	176	139	2592	-580	-25616	-632	5408	746	-581	160	21344	-8160	32767	1877	3067	181	-32768	-7688	32767	1580	1352	-80	-25088	7928	-13120	1628	3115	978	120	118	1
-13344	-9936	13860	-356	4977	842	-28016	-824	4544	-183	2878	-769	-30032	-1928	13056	697	-1454	500	-32768	-4624	18384	2082	4124	-1899	-15824	-5808	-17080	-2145	2110	1286	-32768	10768	11320	-1151	-411	731	118	115	1
-12728	-10724	14696	-438	5103	917	-32768	3232	5808	-578	2975	-1290	-32768	6136	27400	1523	-3715	487	-18712	17120	17992	1339	3318	-533	-13712	-11680	-5008	-848	2303	-235	-2904	-5872	7576	-2521	-268	-756	127	122	1
-14528	-15588	15516	-983	7524	3011	-32768	6280	6912	-1841	2842	-1986	-13616	23992	5968	-629	-2166	1419	-17072	18864	11472	588	3289	53	-23768	10720	-9280	-35	2566	537	-13576	-16984	-6520	-942	1406	-308	120	114	1
-26856	-12204	16460	-1450	8813	3895	-28432	6544	960	-2260	3070	-1816	-18424	20696	-768	-2043	-801	125	-17152	5112	19352	366	2697	-200	-15848	-1536	-7104	-1924	1725	655	-19184	4816	-10424	1522	532	596	119	114	1
-32768	-6720	8692	-3528	6595	3413	-24936	-10184	-3240	-3323	3178	-1496	-30840	-9984	-19568	-5362	-650	-122	-13240	14688	10176	-641	1250	-541	-19456	8032	-9296	-234	1943	623	-9624	14032	-13840	1119	431	389	122	121	1
-32768	-32768	11616	-3347	3155	3689	-27368	-12584	-19112	-3121	3114	-823	-32336	-12680	-21256	-5619	-889	-185	-17144	-968	18248	-143	549	-826	-14584	-2120	-8624	-1821	1285	520	-13544	6656	-7904	-354	905	163	127	119	1
-7488	-32768	30804	-616	1821	2474	-19096	-10136	-16968	-1295	2237	-915	-26920	5552	-15472	-1321	-2877	-1136	-8448	6144	14040	-168	389	-470	-19928	-8192	-3472	-261	1213	325	-18672	2472	-7520	-598	1539	-120	125	114	1
-14104	-31308	32172	-838	-2238	-417	-11360	-5040	-5136	317	956	-797	-25144	-3784	-16704	-237	-2809	-547	-9744	3448	14408	-92	232	-470	-16632	-2008	-5272	854	1248	266	-16312	2096	-4928	-223	1407	-251	127	122	1
4128	-23252	15224	492	-2757	-1253	-10952	-3424	1688	708	-400	-569	-23832	3840	-14392	702	-2496	-519	-10160	4728	13896	-38	187	-257	-18128	-128	-4928	1105	1037	227	-15936	944	-5088	277	1558	-153	136	132	1
3156	-12416	14712	902	-2970	-1812	-6144	-1128	-928	1524	-1294	-454	-17440	6752	-13040	675	-2273	-691	-9488	5640	13520	-79	164	-278	-17800	3400	-2528	862	901	377	-15400	3544	-4136	633	1601	-151	142	132	1
2380	-4508	16936	811	-3503	-2489	-4040	2008	-672	1254	-2108	-395	-13616	4936	-12600	244	-2158	-574	-9440	3688	14224	-96	93	-423	-15672	1856	-3296	-213	619	324	-16192	2096	-5760	536	1695	-145	142	132	1
1952	24	15620	313	-4059	-2738	-7192	3656	-624	929	-2901	-150	-11616	3840	-13048	73	-2145	-432	-9352	4384	13520	-151	83	-362	-15600	-280	-4336	-999	318	97	-15128	2416	-4344	484	1867	-360	135	128	1
-3676	3400	15672	-122	-4565	-2694	-8136	2944	-3664	858	-3564	83	-10488	3304	-13864	97	-2077	-448	-9752	5016	13048	-222	123	-201	-17296	-2504	-4760	-883	331	-32	-14008	3048	-3968	444	1993	-431	132	133	1
-6672	3200	14624	-499	-5141	-2574	-7040	3312	-4408	604	-4243	345	-7552	1512	-13328	198	-2175	-592	-9368	4016	12560	-155	83	-180	-16392	-2768	-2904	-167	446	12	-16128	-440	-2760	418	2114	-458	131	130	1
-9592	1488	13608	-561	-5427	-2360	-8856	3512	-5912	253	-4771	542	-4816	576	-12720	342	-2152	-770	-9216	3848	13232	-40	43	-162	-15120	-2288	-1072	608	587	100	-14976	1024	-1256	699	1912	-461	131	128	1
-12792	-408	14276	-493	-5492	-2294	-10736	2832	-8048	516	-5146	668	-3248	664	-11720	719	-1953	-759	-9128	3656	13400	-10	30	-220	-15648	288	72	677	687	156	-14168	3680	-800	930	2048	-492	128	127	1
-16512	-1948	16660	-408	-5404	-2586	-14440	4328	-10368	566	-5449	915	-3472	1320	-10704	951	-1675	-623	-9440	4000	12784	-83	3	-311	-15792	2160	-552	-118	603	154	-14576	3968	-336	363	1967	-517	124	126	1
-19456	-2204	17780	-188	-5193	-2924	-18248	5136	-11280	160	-5667	1185	-4152	888	-9600	835	-1223	-396	-9488	4016	12816	-172	-21	-251	-14760	104	-600	-722	632	91	-14752	2392	560	302	2182	-599	126	124	1
-21044	-1176	18496	76	-4561	-2864	-22200	2416	-11888	-245	-5848	1362	-4904	416	-7624	845	-732	-276	-9272	4200	13088	-160	-31	-194	-15912	-1136	-88	-884	822	107	-17392	520	1360	463	2412	-486	119	126	1
-26624	-1292	19816	237	-3856	-2707	-22120	-368	-13616	-21	-5870	1557	-5448	8	-5024	661	-420	-149	-9000	3936	13232	-99	9	-220	-15560	-1488	-424	-685	1051	175	-18320	1352	-616	783	2211	-418	119	122	1
-32768	-3532	19204	168	-3372	-2671	-23976	-1040	-13800	812	-5787	1818	-7344	-384	-784	482	-603	-132	-8304	4224	13824	-28	74	-271	-15360	8	-624	-588	1200	198	-16400	1136	-1552	540	1685	-202	122	124	1
-32768	-8848	16940	-153	-3369	-3150	-25344	-584	-16368	1077	-5099	1902	-12632	1104	6016	823	-1294	79	-9192	3696	13368	51	251	-309	-16712	-1440	-3216	-585	1219	247	-16032	-280	-1024	522	1530	-65	124	129	1
-32768	-8272	5200	518	-4023	-2937	-23016	-2224	-16608	756	-4206	1438	-20120	6048	2936	1478	-1420	518	-9680	3504	13384	94	483	-267	-18368	-1576	-2680	-316	1467	242	-17176	1048	-1648	917	1701	50	125	127	1
-32768	6240	-8236	398	-3268	-2468	-17800	-2968	-16776	959	-3234	1122	-23776	9160	-104	1465	-1117	1060	-9528	3560	14384	111	775	-272	-16880	-672	-264	-236	1629	269	-20632	4184	-2880	958	1205	85	117	123	1
-32768	384	-8132	171	-2386	-1984	-17736	-13872	25096	3159	-531	1284	-23136	9112	2240	1486	-1180	1044	-7896	3768	15248	227	1157	-272	-16904	-960	-1968	-324	1800	223	-20816	4624	-2808	974	657	-61	115	122	1
-32768	5776	-11092	289	-1980	-1307	-14368	-1664	-11192	765	-2469	713	-9304	9656	19264	541	452	355	-9704	3024	14160	363	1785	-242	-19808	-1608	-5056	-298	2027	176	-16024	3720	-2248	743	527	4	118	123	1
-32768	7532	-21544	-614	-1093	-747	-12056	-2616	-13896	-903	40	36	-16032	6824	14336	78	964	794	-10456	3936	14072	558	2528	-183	-21224	-304	-6264	-374	2190	146	-17048	6008	-2992	435	590	-130	122	122	1
-32768	3152	-21240	-435	179	527	-7080	-8872	-14600	-697	1181	-558	-19352	6376	12864	351	1433	400	-12256	2536	15320	647	2972	-248	-21312	-1120	-3488	-543	2227	186	-19136	4664	1952	-190	369	-288	120	119	1
-32284	72	-12148	-162	989	1002	-9408	-7528	-15056	294	2157	-672	-20648	6776	11904	358	1536	388	-11848	6456	14624	936	3809	-265	-21808	-2872	416	-512	2410	286	-23392	3448	7600	-605	-78	-439	122	120	1
-5768	-16512	16612	646	1830	1228	-24360	152	5328	779	2194	-716	-6176	3736	-2384	1114	1958	-1454	-13528	6944	15328	894	3957	-222	-23456	-2776	2856	-242	2698	423	-29232	5144	11024	-742	-1048	-627	116	116	1
32024	-11048	28796	-814	2446	1502	-32768	11072	28320	1695	697	150	-20104	2880	-6336	-1213	2285	-1166	-10560	11880	18096	977	5796	-823	-31616	-2328	4672	241	2985	625	-32768	3832	16288	-1309	-3203	-677	122	118	1
-30676	2376	11128	-1408	2623	2306	-32768	10416	17256	2289	1031	-153	-31336	-216	5904	-1259	661	-378	-11904	15024	17696	1198	7588	-1510	-32768	-6728	7576	701	2961	1122	-16752	-9736	19936	-808	-3548	-646	124	122	1
-19816	-13960	19580	-1202	2699	1499	-19160	4256	-8432	-1459	1547	-827	-15888	5344	-3928	926	452	-200	-13424	7088	14368	2186	9608	-2351	-32768	-8168	14752	1907	2877	1288	-23272	-11920	8992	1019	-2061	-737	115	122	1
-16228	-18628	4420	-1001	2716	846	-25776	-9728	-12784	-1780	2356	-1149	-16768	12600	-8072	-293	1196	-830	-32768	17536	10840	3504	9691	-2718	-24880	2952	-6072	2637	3200	1294	-27416	11008	-3040	3783	-1471	-654	109	116	1
