#Activity	walking 
#ActivityID	1 
#Date 10-10-18-13
acc_rf_x	acc_rf_y	acc_rf_z	gyro_rf_x	gyro_rf_y	gyro_rf_z	acc_rs_x	acc_rs_y	acc_rs_z	gyro_rs_x	gyro_rs_y	gyro_rs_z	acc_rt_x	acc_rt_y	acc_rt_z	gyro_rt_x	gyro_rt_y	gyro_rt_z	acc_lf_x	acc_lf_y	acc_lf_z	gyro_lf_x	gyro_lf_y	gyro_lf_z	acc_ls_x	acc_ls_y	acc_ls_z	gyro_ls_x	gyro_ls_y	gyro_ls_z	acc_lt_x	acc_lt_y	acc_lt_z	gyro_lt_x	gyro_lt_y	gyro_lt_z	EMG_r	EMG_l	act
-10932	-5472	10912	37	789	-458	-18416	-9208	-3516	-11543	4924	-1374	-16752	632	-5948	1050	8610	2005	-10504	1972	17032	211	32767	-13205	-24716	-1904	-2160	11847	16447	-6155	-17432	-2976	6972	4172	-16140	-451	121	119	1
-10732	-4744	10884	605	380	47	-16468	-5776	-2672	615	4132	284	-14676	656	-4260	458	10267	-1476	-14220	3580	15480	-2826	32767	-15121	-21152	2244	360	10567	16495	-7124	-17004	-3532	7148	3412	-15494	-1448	122	131	1
-10120	-3472	11272	908	-431	478	-14812	552	-1132	1976	3663	-452	-14616	-1264	-3652	-1522	10228	-275	-17428	4892	12116	-144	32767	-14265	-17892	1808	-5676	7412	15275	-7409	-18680	5272	-3960	2522	-14762	2081	122	131	1
-10184	-4024	11480	798	-944	864	-14348	248	256	-2717	3578	-264	-15156	-4136	-3704	-2667	10291	857	-26132	9276	16468	4238	32767	-17363	-14172	-2884	-10472	10541	13790	-5836	-20348	2692	-4748	221	-15055	1970	122	125	1
-10644	-3744	10960	762	-1365	893	-16136	-5196	324	-587	3937	-751	-16228	-3160	-3520	1269	9216	1576	-19552	4428	13324	8197	31648	-14693	-14092	-2556	-12640	9742	13732	-3786	-17824	1228	-4500	-873	-15604	822	123	127	1
-9244	-5264	11768	498	-1113	1221	-16000	-5436	2100	5733	3782	-63	-16116	-2920	-3940	2853	7441	2563	-15956	2788	11416	22216	25112	-10116	-14196	-5548	-11036	11200	11892	-3055	-19628	1704	-3724	-3031	-14816	737	119	128	1
-10844	-3892	11416	563	-893	1819	-16264	-4352	-464	10230	4402	556	-17244	-3872	-3180	3295	5672	2152	-21860	23364	16440	21845	11673	-8359	-13660	-5444	-12828	14019	8039	-3	-21140	-452	-5140	-4245	-15272	583	118	123	1
-10360	-4316	11312	1050	-1377	2002	-14780	-240	1328	5447	5131	87	-16428	-3880	-2460	2208	4829	2608	-6816	23948	18664	260	-6510	-3231	-12504	-1504	-8600	18267	3183	-134	-20688	-1828	-3724	-2365	-17039	1347	116	132	1
-11264	-3772	11148	1400	-1412	2142	-17448	-4180	968	1331	5543	527	-17256	-2192	-1572	1018	3762	1500	2896	7592	13768	-5283	-11412	-4236	-11424	2348	-2960	16815	-2023	4195	-21032	1276	-2812	1422	-17554	4562	117	133	1
-10568	-3696	11624	1509	-1100	1976	-14328	-3704	1060	2351	6437	759	-18244	-820	-1100	530	2201	956	3620	3676	12836	5817	-11373	167	-8064	2940	-4688	3364	-5601	7776	-18000	3436	-3164	3186	-15627	4278	116	125	1
-10288	-3348	11976	1436	-619	1780	-17268	-1584	680	1636	7401	861	-16140	72	-1936	-1189	2382	230	-192	13008	14052	8815	-13541	5415	-8748	-1880	-5696	-6966	-8834	10511	-16384	832	-4112	3529	-12954	3285	118	131	1
-10304	-3108	11932	1341	-168	1511	-15664	-1248	-1320	615	7979	1184	-15600	-564	-3104	-2633	1981	67	-2940	14328	14700	2316	-17326	10572	-9960	-4528	-5648	-7617	-14327	13953	-14180	96	-4424	4062	-12184	3210	121	133	1
-10376	-3260	11692	1393	22	1378	-15308	-1164	-1272	437	8018	1143	-14572	-1936	-5316	-1284	1471	314	-4564	7584	15712	1023	-20383	16705	-9908	-5800	-5548	-5149	-19690	15122	-11928	1744	-3564	3543	-10518	2807	123	137	1
-10224	-3052	11468	1715	-144	1562	-14896	-2340	-4472	1776	8255	868	-13320	-2136	-6420	-998	1335	796	-7676	4852	16596	3740	-22955	20289	-10480	-4440	-4748	-4409	-22706	16272	-10864	2488	-2664	1259	-7913	1345	121	142	1
-10336	-2912	11432	1858	-272	1508	-14292	-1664	-6028	896	7759	991	-12872	-1724	-7772	-345	2593	1436	-12108	3288	17740	4248	-25747	20247	-10840	-4868	-4452	-6476	-26000	17420	-9304	756	-2328	-2622	-5944	-812	121	146	1
-10472	-2684	11208	1852	-480	1324	-14724	-1096	-7392	-331	6785	909	-12472	-708	-9124	-91	3923	2084	-14932	792	18200	5192	-27770	19151	-12496	-4292	-4476	-8711	-28264	17997	-9148	-604	-2124	-5775	-4813	-1740	124	148	1
-10276	-2140	11420	1729	-849	1189	-14936	-424	-8560	-1574	5522	800	-12000	508	-10308	792	5649	2189	-17564	3440	17980	5247	-28967	17618	-15324	-4860	-4484	-9775	-29901	17763	-8644	-1464	-1680	-6274	-4462	-1707	122	138	1
-10220	-2024	11616	1428	-1048	749	-15352	-140	-8132	-2844	4303	744	-11936	1964	-10588	455	7258	2249	-20104	5652	18256	3254	-28780	18269	-16912	-6384	-5648	-7474	-31624	16688	-8692	-2060	-700	-5088	-3344	-740	118	135	1
-9992	-2024	11972	1049	-930	342	-16132	-1228	-7548	-2713	3136	833	-13236	2188	-10036	445	8589	2458	-22676	6992	17320	1406	-28223	20691	-17848	-3644	-6584	-4364	-32768	15612	-9188	-1956	2256	-2071	-2509	1044	119	133	1
-9772	-2764	12116	821	-568	443	-17168	-1768	-4024	-2061	2532	609	-16496	348	-7076	724	7912	2347	-24920	5276	14448	-1138	-26356	20556	-19048	-1084	-6548	-4374	-32768	13847	-10724	528	4464	-344	-2196	3504	117	133	1
-9948	-2876	11996	737	-365	441	-16916	-1520	-3372	-999	2798	996	-17352	-1464	-3044	578	7080	1888	-30332	1756	9388	-1043	-23882	17729	-19172	-980	-7096	-7392	-31423	12697	-13072	3336	6448	37	-2126	4965	119	148	1
-10156	-2380	12388	-256	1231	514	-15800	-1452	-1152	-3244	3752	1415	-17120	-2888	-740	-637	7687	2313	-32768	-1252	2416	390	-21072	12360	-18652	-1284	-6692	-8950	-25804	9552	-17528	2432	11432	1298	-3539	4023	123	182	1
-9704	-3704	12264	-436	1934	774	-15808	-3272	520	-4798	4902	1713	-17560	-3408	-336	-1783	7380	2787	-32768	-3168	-3852	1900	-17800	7859	-16544	-2396	-6732	-5004	-16661	8437	-18672	1756	16384	568	827	1808	124	209	1
-10144	-3576	12304	-339	2628	1294	-15860	-4308	396	-4004	6605	2584	-17992	-3060	-636	-3135	5949	2478	-32768	-5336	-9936	1040	-13818	6130	-13576	-4004	-8320	2341	-10221	5019	-16188	480	19556	1158	2222	1525	122	206	1
-10252	-2904	12756	-99	3461	2066	-16456	-3044	-148	-4494	8290	2950	-17588	-2060	-1272	-4520	4293	1745	-32768	-9272	-18772	-4750	-2183	-3079	-11700	-20	-5808	10481	-915	1357	-16564	544	17684	6939	443	-383	121	177	1
-10292	-6508	13396	971	4487	2816	-16516	-2320	-2528	-5901	9711	3637	-17068	-760	-3476	-6155	3205	1366	-32768	-15740	-22956	-9049	8721	-15630	-9632	2172	-6760	6001	9028	-1405	-16232	4632	14536	7543	-569	-1115	122	148	1
-10544	-2536	14060	1823	6261	4291	-17884	-1672	-4328	-6632	10425	3772	-17268	-468	-5328	-7509	2050	1666	-13504	15380	31608	-8019	13907	-10728	-9640	2440	-6752	5178	10534	-2126	-16404	6868	11532	4710	-2368	-201	121	128	1
-10616	-2520	14228	1182	8795	4842	-19880	1148	-5128	-9499	10891	4322	-19020	-2500	-6192	-7560	1214	2043	-1856	5900	4220	-2852	16362	-6542	-32744	2056	9004	4480	7918	-1785	-15244	3344	-1036	9874	13367	-658	122	120	1
-11732	-1752	14724	1669	12322	5084	-20076	-1408	-4292	-9332	11492	5285	-20424	-2876	-4632	-5366	-406	3008	-22900	4024	22796	-4809	19080	-7909	-11484	1044	160	-8224	8644	-2680	-16108	-6212	5580	-2051	4509	-1612	126	110	1
-10820	-5172	15296	2544	17033	7065	-21932	-1596	-1248	-6518	12582	6117	-22644	-1780	-1924	-3385	-3422	4316	-32768	-1740	14640	-8821	945	-9018	-20312	-1576	-9888	-17338	15094	-7049	-21036	5436	10056	-7840	9486	5216	127	83	1
-10896	-5460	15228	3081	17430	7780	-24348	-1148	168	-3585	14264	6241	-25392	-1460	1488	-1794	-8044	4516	-14264	-1716	19000	-6126	264	-4887	-26480	-8928	-8312	-11750	12480	-3756	-17776	-4252	-6116	2199	11259	-1527	129	98	1
-13512	-6632	14484	8094	29412	17645	-25288	216	1544	-2214	15410	5501	-25704	848	6020	-3466	-16497	3896	-11396	5216	13904	-2789	-306	-1953	-16244	-6372	-7800	-206	11486	-2734	-14400	-7872	-6024	4201	9556	1706	126	87	1
-13204	-5500	14416	9002	32767	24225	-24788	2692	1248	-3933	16343	3972	-19800	4540	6056	-5269	-20938	3205	-8988	3992	13980	-152	527	-423	-15824	-3032	-5440	167	9344	-1112	-15028	-112	-3944	8682	10546	23	127	84	1
-15212	-4668	14840	5921	32767	27470	-22508	1116	144	-11307	15963	4690	-17804	8140	4932	-4525	-16675	3777	-9580	4032	13252	932	1686	326	-17228	-3420	-6852	3170	7483	-12	-16908	5828	-5212	3639	11666	-373	129	84	1
-32496	-4120	12448	5089	32767	26111	-18860	764	-8308	-16290	16250	5432	-16992	-1164	-3740	-9076	-13367	1887	-9856	4836	13132	1282	1700	420	-18500	2160	-4876	8801	4890	-377	-16760	4984	-3256	2103	11567	90	134	95	1
-30760	-11416	12752	9116	26828	30901	-18860	-6092	-9496	-21025	16096	3036	-19128	-2308	-4496	-6573	-15936	-2169	-10048	5360	12780	796	1070	246	-16796	6324	-3248	5906	3567	-1226	-15676	2976	-1272	3932	12424	-1613	140	100	1
-12036	-9880	9368	8104	22184	32223	-16784	-6364	-8136	-8117	14709	2026	-20308	1216	-5292	-2458	-14777	-2892	-9592	4996	12848	1083	577	297	-13980	3020	-1944	-134	4395	-640	-15492	3728	-240	3317	11422	-2010	139	102	1
-200	-14264	7120	13095	22794	32767	-14156	-4240	-6544	5124	10579	2458	-20088	1012	-7236	763	-15105	-4590	-9636	4300	13032	1150	589	259	-14136	2648	-1576	-573	4629	-781	-16496	3792	260	1651	10595	-2071	137	95	1
-25332	-7500	9940	13109	23374	22311	-12256	-688	-14848	11472	7364	3292	-17364	-916	-7956	1303	-15162	-6907	-9456	4764	12956	877	676	218	-17728	-188	-1916	1050	3680	-859	-16204	2132	236	1240	9813	-2875	134	102	1
-22044	-7184	11920	1159	7692	-2151	-8856	2408	-16012	5354	5843	734	-17688	-2252	-5392	4747	-16628	-7181	-9536	4608	12764	694	609	127	-16340	40	-2656	3016	3247	-614	-15440	1428	-140	1781	10042	-3579	131	123	1
-18216	-10880	10776	-4317	-6628	-15885	-9380	1660	-11852	-2090	1934	-2064	-18640	-1492	-5392	5655	-16469	-6659	-9536	4844	12952	517	447	78	-16228	1740	-2380	2713	3418	-206	-15976	1888	-880	2978	10013	-3583	128	125	1
-8660	-7308	7672	-4243	-14245	-19628	-10976	72	-8324	-5272	-2087	-2645	-19288	20	-5956	3652	-16008	-5693	-9508	4888	12880	223	324	-155	-16912	2112	-2644	1028	3425	-730	-16344	2104	-2040	4686	10642	-3206	127	139	1
-4192	-4964	5428	-4950	-13610	-16598	-10400	-2012	-8040	-4106	-6181	-3187	-19852	-432	-6804	3215	-16322	-7334	-9696	5040	12872	-86	58	-235	-16828	2372	-3340	668	2929	-933	-15548	2880	-3356	6695	11670	-3039	127	137	1
-8660	-4576	6556	-7489	-13959	-14855	-9188	-3108	-10532	2766	-11334	-5864	-18348	248	-5864	3168	-15787	-8236	-9564	4972	12600	-401	-180	-287	-16084	1840	-3372	-960	2670	-740	-15112	3672	-2960	5737	11942	-2450	125	130	1
-11100	-6556	7704	-9039	-18378	-17481	-8080	256	-11416	7800	-15038	-8336	-16360	780	-5696	2090	-15708	-7380	-9464	4724	12996	-453	-86	-348	-16524	624	-2876	-707	2435	-1144	-15872	3748	-2544	1644	11438	-2346	131	128	1
-9048	-7300	7520	-8501	-21520	-20259	-8952	3732	-9348	5584	-18462	-9120	-15076	492	-5652	1000	-14628	-7267	-9500	4708	12772	-478	-17	-288	-16744	984	-2544	3144	2122	-948	-15648	4380	-1820	-712	10748	-2764	128	131	1
-9128	-5756	7544	-8449	-21026	-22550	-10912	3724	-8932	918	-22573	-9651	-13248	1412	-6112	495	-13197	-7421	-9000	5052	12912	-492	187	-519	-16864	2712	-1156	3291	2254	-1039	-15180	4232	-616	-3247	11613	-2565	131	133	1
-11024	-5512	8104	-9371	-20196	-25866	-9308	1908	-8628	1375	-26229	-10878	-12080	2816	-6332	707	-11461	-7083	-9348	4620	12816	-603	337	-706	-16372	2536	-1328	-150	2914	-1701	-14692	2216	640	-4942	13691	-3329	136	133	1
-12724	-6376	10040	-7991	-19657	-28362	-8056	676	-8716	6663	-29482	-13194	-9808	4400	-6360	-1063	-9559	-6273	-9448	4604	12860	-816	340	-857	-16196	1616	-1340	-2156	3106	-2008	-14592	1352	-496	-5108	14458	-3233	138	132	1
-14916	-5376	12236	-6722	-19926	-30022	-9572	920	-9396	14526	-32086	-14251	-7740	4528	-6472	-3975	-7041	-5089	-9544	4264	12872	-1301	-101	-1054	-15460	1404	-1508	-2940	3653	-1900	-15960	1980	-3584	-2188	12800	-2844	136	138	1
-17968	-5268	14900	-6549	-20946	-31434	-11840	1536	-10180	19964	-32768	-13559	-7528	2948	-6876	-5139	-4600	-5413	-9252	5040	12380	-2140	-1102	-1487	-14948	3092	-464	-2026	4468	-2153	-18000	672	-3352	-4756	9492	-2321	133	137	1
-23440	-5428	16668	-4883	-22648	-32768	-14332	2172	-10364	21387	-32768	-12125	-6976	2128	-6372	-2772	-2676	-4572	-10348	3876	13076	-2294	-1535	-2302	-15608	3220	-60	-4612	5334	-2199	-17220	2140	-1216	-6687	7775	-645	129	135	1
-28916	-852	16792	-3831	-23461	-32768	-17236	840	-9476	20787	-32768	-9281	-6992	632	-3500	1714	-796	-4755	-10112	5772	13968	-1251	-574	-1834	-17740	-1520	-1752	-4054	6467	-2887	-16936	1300	-464	-2965	8819	-59	129	134	1
-32768	3740	13484	-3141	-24300	-32768	-19008	1684	-9284	20093	-32768	-5695	-6968	-1908	328	6053	761	-6780	-10012	5936	13760	-834	39	-1616	-17580	952	-52	1208	6928	-2872	-16464	1624	-572	719	9070	-1460	131	133	1
-32768	10924	8384	-3862	-23467	-29608	-21708	3008	-8816	13489	-32768	-3143	-13636	-4620	4976	12930	-173	-8122	-8704	4608	12716	-1366	239	-2095	-14232	6728	2432	-932	8393	-3639	-16424	3104	1548	-216	7517	-1432	128	132	1
-32768	15992	4352	-3158	-19588	-24382	-23312	2524	-10932	7419	-27775	-820	-27508	-10900	19176	18284	-10526	-8259	-9712	4772	13572	-1580	-184	-2694	-14640	5784	1328	-6221	11042	-5015	-16908	2708	2808	-112	6116	-136	115	132	1
-32768	22844	-4812	-4444	-14272	-15801	-17280	2912	-4540	-7751	-20188	1765	-24740	-6312	14648	8022	-1797	-7567	-9412	3932	13892	-1537	612	-3013	-16660	3632	-884	-5568	12575	-5749	-18312	4508	-136	1263	4173	770	85	132	1
-32768	16632	-16392	-4266	-14836	3133	-9640	5040	-7872	-14277	-9657	371	-15552	3420	17248	611	7832	-878	-8572	5288	14648	-1173	2834	-3891	-18444	1484	-2640	-570	13598	-6105	-19148	5260	-1992	4843	2508	273	88	129	1
-15700	13308	-9812	-8937	-7761	12059	-5616	-2648	-4560	-13027	1947	-3834	-15108	6136	18924	-9095	351	6476	-10736	9288	14792	-67	5978	-6325	-19440	1832	-5812	4252	14038	-5336	-18752	2132	-3280	6992	575	374	110	131	1
-28100	4640	-17740	22461	6042	28995	-13124	-2108	-892	-6657	11280	-3864	-20760	3352	11064	-8843	-2109	8689	-10336	5232	15720	-170	13263	-7480	-23192	-6360	-3720	8384	14176	-6341	-20996	176	-2400	6615	-1795	1208	111	128	1
-15824	-4316	31692	16790	10477	13057	-26512	3576	5272	-898	13971	6820	-15580	692	2424	-5413	5972	2166	-7760	1160	17824	2383	20288	-7637	-22988	-6056	-2752	9924	14190	-6786	-21856	588	576	7861	-3189	138	110	128	1
-7500	-8128	32767	13292	9922	9842	-28224	440	5188	9958	8205	3106	-16612	716	6204	-5690	5525	1363	-6964	4084	16916	1877	28434	-7858	-25732	-1536	192	6063	16043	-8692	-23264	3308	2120	6735	-4827	-117	108	126	1
-24956	5648	20060	6513	14689	14363	-16772	-4280	-1820	17868	10242	163	-19096	3300	3036	-2298	7480	987	-9072	5604	16796	-20	32767	-10993	-28868	-1400	2160	6135	16900	-9496	-27108	5592	11300	6026	-13505	-420	108	120	1
-24852	-4292	6568	6582	830	7485	-16592	1776	-9112	13602	16202	1025	-24356	-8480	-684	3231	9654	1458	-12640	7828	18408	-2105	32767	-15123	-32768	496	5420	11969	16184	-9714	-28928	4612	11756	2906	-19254	-1465	120	111	1
-17532	3904	17296	3784	1042	4383	-24724	-1532	-8028	15463	15102	2332	-15540	-704	-8236	1448	11621	745	-20948	11632	17880	-3670	32767	-21960	-30620	5108	7828	20043	15837	-9021	-23384	1412	9220	-546	-18162	-4854	134	105	1
-12400	-6300	10684	2550	253	2056	-14856	5228	-7916	9724	12548	339	-13820	5920	-7480	-3075	11177	5039	-27940	8060	20260	9135	32767	-20670	-24996	10020	-1520	25079	16888	-9837	-22640	6920	2056	2116	-20031	-1163	144	102	1
-11336	-3096	11572	1548	-368	1016	-13692	2348	-6476	-8350	8276	-80	-11396	668	-8312	-4130	13168	5028	-32768	11296	25180	9324	32767	-26870	-19740	11264	-9940	16477	15424	-11653	-19064	8664	-5704	2715	-19707	2062	131	126	1
-10588	-3520	11432	1037	-800	1214	-14108	-2172	-5268	-14605	5564	-2117	-14540	-7468	-6604	-2036	12294	2999	-17976	8656	25612	16485	29189	-18131	-17268	-1324	-14476	-1830	16365	-13144	-21960	6332	-9204	-2668	-18351	5131	141	120	1
-10816	-3716	11552	952	-899	1065	-18844	-6996	-3668	-9394	5048	819	-18784	1912	-3120	369	12916	1116	-32768	13884	21416	12440	17226	-18911	-19096	-7304	-14136	-4327	11848	-6444	-24104	-916	-8592	-13894	-23220	4571	145	129	1
-10608	-2468	12080	517	-930	522	-18240	-2928	-2316	2233	4593	631	-17032	3612	-816	-3577	13395	3791	-14628	32767	21676	-7663	-12000	-4237	-10704	-7236	-10592	4343	5887	-7300	-22948	-1988	-5176	-12956	-25738	3868	141	134	1
-10556	-2444	12360	-463	-489	-590	-16676	336	-1448	4401	4759	35	-17224	-744	-2284	-5124	13241	6179	3140	14584	12096	-20778	-18606	-6014	-10576	-2388	-5196	16593	-2301	-1972	-22440	1040	-4036	-3429	-23234	7004	141	145	1
-10472	-3320	11924	-1022	286	-1042	-16628	-284	-1152	-1590	4509	797	-15524	-3940	-2396	-3261	12510	4828	5828	1728	11144	-6244	-16678	606	-7508	2856	-5736	7280	-8455	4885	-18148	1976	-4812	638	-19361	7119	135	141	1
-10548	-4068	11128	-1190	841	-1052	-15832	-3632	-1176	-5507	4032	764	-14472	-2528	-1468	-2321	12262	4327	2188	9804	11160	7792	-15748	9090	-5356	-1496	-6420	-5961	-11452	8100	-19412	1176	-6660	625	-18336	4585	133	145	1
-10544	-4244	11160	-1167	881	-843	-15436	-4356	-864	-6066	3880	477	-14484	-1784	-1696	-3161	13200	3713	-3404	17064	12044	6018	-18124	14404	-6808	-3956	-7060	-10120	-16894	12251	-16764	-432	-7508	-1496	-18891	3689	130	143	1
-10200	-4280	11076	-1087	582	-590	-15456	-2792	192	-7799	3967	1388	-15284	-2292	-684	-3531	14286	2914	-7072	14108	13172	1030	-24047	20105	-5992	-4784	-7508	-8124	-21773	16197	-12844	-404	-6976	-921	-17293	2896	127	140	1
-10408	-4188	11068	-931	402	-125	-15604	-1916	576	-10831	4238	2095	-15072	-4328	756	-590	15861	3466	-8492	9856	13264	1039	-29066	24284	-6552	-3196	-7112	-5282	-25594	18771	-9668	-1324	-7252	1041	-13475	1756	124	134	1
-10224	-4540	11124	-856	284	197	-15788	-3760	1044	-9965	4843	1469	-15200	-5612	-1228	-884	14852	4203	-10504	7584	13936	2986	-32108	26192	-6936	-2344	-7032	-7930	-29157	21823	-7756	-1324	-8100	1776	-9395	270	115	136	1
-10240	-4256	10824	-423	0	621	-14972	-5480	1176	-2836	6088	1855	-17516	-2948	-4524	1435	11229	3704	-14136	5964	16640	5174	-32768	26848	-8288	-2716	-8500	-12916	-32768	23535	-6932	-1268	-9084	2539	-5266	-374	114	135	1
-9976	-4392	11096	52	29	1063	-14388	-3600	-156	4584	7069	2329	-16680	-296	-3304	6088	9902	3457	-18624	6200	19064	7691	-32768	26874	-10572	-4948	-10824	-17808	-32768	24051	-6036	-1108	-8840	935	-1536	292	116	134	1
-10228	-4048	11256	410	262	1500	-16036	-728	-1128	6036	7876	1872	-15516	180	-2900	5203	10499	2787	-25432	10564	20740	8267	-32768	26952	-15884	-5880	-10308	-15747	-32768	23187	-5952	-1096	-8652	-1263	1287	883	118	139	1
-10780	-3960	11216	426	-159	1446	-16360	-200	-2400	1739	8317	1924	-15708	-1460	-2664	2662	11238	4061	-32768	10264	20508	6672	-32768	29461	-18148	-6560	-10184	-7591	-32768	21779	-6696	-2976	-7468	-5305	3026	2230	118	143	1
-10628	-4156	11228	543	485	1905	-16060	-2404	384	-1421	8868	1838	-16804	-1592	-2396	1503	10534	4201	-32768	6156	17668	3632	-32768	31069	-21160	-4568	-9508	-3797	-32768	21592	-7092	-868	-2896	-6156	429	2810	117	151	1
-10232	-4228	11456	335	952	2228	-14824	-3440	1072	550	10040	2228	-17676	-472	1004	1243	8855	2956	-32768	-3872	10088	2496	-32768	28012	-24020	-5940	-11204	-5277	-32768	18282	-11224	3980	2200	-9054	-4029	6939	120	131	1
-10708	-4320	11584	483	1560	2746	-15116	-2588	1252	-1130	11631	2626	-16284	-728	1812	-996	8030	798	-32768	-14180	2292	4852	-29260	21420	-23912	-1424	-11644	-3474	-32768	13362	-27436	4912	20348	-12823	-10990	8599	125	148	1
-10788	-4000	12340	255	3230	3152	-15804	-2048	108	-3091	13222	2830	-16588	-756	-660	-4465	6787	382	-32768	-23244	-9340	6578	-22326	9579	-16828	216	-8200	3997	-19874	8918	-22652	10400	27920	1661	83	9157	123	234	1
-11028	-4544	12348	-488	5236	3869	-16264	-1660	-1132	-5952	14707	3768	-17336	-2500	-2960	-7329	4669	1182	-32768	-17136	-24420	-1065	-19148	-6270	-6776	-8616	-6924	1334	-7933	2281	-15540	-4976	27040	5876	13539	2411	123	253	1
-10552	-11048	14104	1586	6829	6455	-17844	-5508	-4372	-6336	15384	3469	-18452	-964	-5952	-8634	1934	1317	-32768	-26812	-29092	2672	-8577	-15224	-3024	-3264	-4784	10188	9886	-2075	-20404	-3524	18112	11694	-1922	-5413	121	169	1
-12640	-5400	13744	1950	10900	7294	-18396	-6192	-2276	-5850	14964	2812	-17404	-752	-6256	-6672	-700	871	5588	3508	6900	-12360	12999	-23164	-19212	4712	1604	15579	18467	-6965	-25816	2240	19552	3914	-9970	-9616	126	131	1
-10740	-3208	15620	1848	15277	8557	-20656	3308	-5328	-7352	15791	4008	-19460	-1420	-5056	-7304	-289	2677	-3212	19976	7116	-1809	20825	-5981	-32768	9520	20452	14065	9308	-3075	-6736	-1532	-5340	14570	11345	-1515	126	118	1
-10764	-3764	15716	3962	21632	9926	-23180	-836	-3616	-3515	16614	5039	-22232	-5700	-4312	-4177	-2239	3922	-18804	972	13868	-6282	32767	-7093	-8368	696	-6364	-11323	11868	-2101	-19100	-7244	7012	7707	4387	-522	128	119	1
-10264	-6028	16432	5796	29653	14518	-26120	-2124	-1260	-561	17459	6156	-25180	-6284	6424	-1237	-9865	4582	-30836	-12904	25628	-5009	17413	-11126	-18732	-7060	-5588	-17040	17313	-11517	-25704	17608	2064	-5708	10279	8501	134	77	1
-12464	-8068	17832	7337	32767	21389	-29840	-1580	7268	-4295	18352	6758	-27448	-3556	8404	-131	-13480	4853	-16312	13808	7720	-12730	1310	-9068	-30676	-796	-13456	-12718	19629	-11123	-17272	-2160	-6900	-4555	6420	-410	138	107	1
-14720	-14108	14728	7129	32767	31260	-32768	596	10292	-14851	17831	7378	-28360	3044	11464	936	-16133	5807	-15952	-3800	16748	-8629	-538	-6314	-14784	-6820	-12252	-6228	14567	-2420	-15156	-7452	-13016	5659	14594	-1410	137	92	1
-28172	-2244	15580	8348	32767	32767	-25160	-7824	4880	-22799	18355	5992	-22444	296	8632	-2336	-18411	4546	-9948	3520	15304	-5552	-2193	-3570	-14468	-1996	-7452	-5188	13385	-4124	-11128	5560	-7760	3633	13057	-1821	138	87	1
-32768	-17928	14424	5049	32767	32767	-22428	-12180	-9136	-15264	21362	9061	-19904	-10600	-5136	-1110	-18218	-1113	-9184	5316	13668	-3388	-1556	-2108	-14740	-2720	-7108	1534	8768	-4120	-16024	5436	-7380	-3300	12921	-661	139	104	1
-31720	-18848	16360	7746	28634	32767	-22388	-4624	-6688	-9207	18352	4272	-23064	-1160	-7448	4338	-19358	-5651	-8676	5200	13608	-2518	-666	-1875	-21404	160	-6044	5270	6755	-2063	-18536	-1972	-3264	-547	14024	-192	143	88	1
5624	-22800	14672	5987	23330	32767	-17428	-5364	-14856	6530	13341	1944	-26440	4764	-6336	6165	-20114	-5838	-9328	3804	13996	-1622	112	-1708	-18668	248	-3856	5649	4421	-1950	-17888	-900	-2536	4464	13359	-1931	133	102	1
-32768	-19672	24820	-4705	3917	4320	-14884	464	-29156	15921	10499	2975	-21520	4168	-9176	3672	-20023	-8000	-9060	3316	13956	-993	393	-1351	-15356	896	-2388	2030	4692	-2476	-16140	284	136	5612	12702	-3610	131	101	1
-11656	-29188	15060	952	-17119	-16368	-10268	9760	-8388	-5679	2659	-1651	-23656	1872	-6364	-932	-21864	-8350	-9320	4008	13820	-275	988	-972	-16992	2232	-2752	-1980	5112	-1379	-16076	4668	-1300	5543	12598	-4752	128	114	1
-40	-13328	10552	7841	-19311	-16330	-10604	-1504	-6684	-18037	-7018	-2739	-18920	-1784	-8336	-5713	-21022	-9044	-9164	4280	13496	130	1570	-670	-17732	3224	-2804	-4426	4511	-1577	-15452	3916	-2236	2700	12452	-4654	129	123	1
-1568	-3864	9388	-671	-17894	-19463	-6516	-7504	-7840	-3237	-13354	-6655	-18020	-12	-9784	-6273	-20003	-9012	-9124	4332	13436	190	1672	-740	-16808	628	-2320	-3213	4295	-1921	-15340	1544	-1444	2087	13210	-3252	126	127	1
-6904	-9876	9580	-7734	-21371	-23300	-1688	-5424	-10416	16862	-17710	-9862	-15324	1272	-10188	-4822	-17893	-7380	-9300	4208	13204	230	1569	-759	-15776	12	-1724	3395	3762	-1996	-15492	1476	-604	3533	13427	-2533	124	127	1
-9432	-10168	10420	-6029	-27761	-24877	-5828	1888	-9592	23950	-22849	-12491	-11804	1476	-10408	-4001	-16317	-8099	-9408	4172	13344	316	1509	-784	-15776	1020	-984	8361	4371	-1708	-15484	2564	1516	5946	13542	-2740	129	123	1
-8740	-6204	10656	-6903	-31550	-28735	-7320	4608	-9892	18522	-29074	-11958	-10440	1548	-11456	-4124	-13421	-7434	-9356	4240	13212	294	1277	-762	-16704	3904	372	7992	5091	-1664	-14856	4436	3012	3496	13946	-3975	129	123	1
-10296	-5156	11188	-10151	-32147	-32768	-7008	3776	-10748	11894	-32768	-10174	-7616	660	-11772	-3068	-8700	-5865	-9196	4660	12864	-147	897	-1158	-15488	5356	-296	2612	6077	-2793	-14632	4464	928	-51	14921	-3938	133	124	1
-15676	-7120	12568	-10206	-32309	-32768	-7452	1512	-11260	8898	-32768	-9636	-5704	1720	-12344	-2034	-5693	-4529	-9336	4312	12912	-604	405	-1453	-14908	3624	-1832	-2683	6763	-3700	-16112	4772	-2928	339	13474	-2100	132	134	1
-20412	-6220	15092	-8103	-32768	-32768	-7292	1536	-12300	10554	-32768	-10566	-4692	3736	-12548	1239	-2412	-3922	-9956	4244	13164	-790	272	-1696	-16136	-476	-1992	-2633	7192	-3483	-16612	1564	-3592	83	12391	-1168	122	136	1
-27088	-6552	17852	-8028	-32768	-32768	-11128	204	-13576	13956	-32768	-10918	-3932	2132	-11784	7013	-207	-2684	-10488	4044	13120	-802	274	-1642	-16428	-1788	-3752	1637	7274	-3043	-15004	-292	-3648	-748	12018	-2079	118	130	1
-32768	-3596	18332	-8245	-32768	-32768	-18172	468	-10076	16107	-32768	-9321	-4200	2008	-7332	13971	889	-1744	-11784	4836	13760	-557	765	-1970	-17024	444	-3708	3976	7291	-2787	-15676	3848	-4476	-1121	12682	-3041	119	132	1
-32768	1972	12912	-10057	-32768	-32768	-24752	2692	-12804	14622	-32768	-6796	-2924	680	-3504	17694	109	-3063	-9220	3804	13084	-206	801	-2179	-16908	3988	-1012	1959	7644	-3127	-15176	4852	-1140	-1787	10959	-2779	123	134	1
-32768	10216	10828	-8982	-30723	-32705	-28504	1080	-18552	12268	-32768	-3332	-17624	-4656	13224	23590	-14209	-9444	-9628	4676	13248	295	577	-3307	-14020	6904	3168	-1384	8807	-4165	-15204	512	4852	-2374	9424	-564	130	134	1
-32768	28224	-1808	-11752	-20246	-30328	-24256	2916	-5792	-287	-32768	569	-32768	-8820	21444	12862	-22622	-15883	-8812	4216	14676	-367	2026	-3986	-15508	3392	1024	-2869	11559	-5627	-20260	-628	4772	847	8525	268	78	132	1
-32768	22376	-20200	-4718	-17926	-15063	-11208	360	-9772	-16385	-20665	1448	-18344	-3736	21492	1875	5997	-10367	-8384	2740	16156	-980	6775	-4297	-21744	-1612	356	3528	13502	-6405	-23444	5236	492	8565	5382	-1100	35	128	1
-32768	32767	-32236	-1814	-17769	19212	3028	5016	-1024	-11824	-2373	-1683	-11464	9532	28992	-5726	7326	3899	-9120	2980	15924	689	11861	-5741	-21480	-1224	-1040	9453	14333	-6763	-20468	2424	-1688	9314	2648	-866	83	127	1
-32768	32767	-30256	-6471	-15718	20134	-4232	-496	-9508	-4566	15988	-7577	-21872	8440	15208	-8535	318	9914	-9644	2604	16344	2011	18676	-6034	-21672	584	-2512	6953	14926	-7887	-20160	-344	-1552	6199	753	-815	123	129	1
-2596	-28136	12804	32213	9638	32341	-25304	-3556	5188	-12020	23186	5787	-18280	5228	-772	-9232	1171	7367	-7588	3088	16216	882	25989	-6485	-23712	-460	-2328	5256	15038	-9384	-22916	3876	1316	9133	-841	-1393	118	129	1
1904	-10624	23912	19775	18191	2252	-32768	-5956	14648	-1852	11158	1318	3176	576	-18916	-21498	16653	50	-9056	5828	16136	-1076	32767	-8983	-26080	1844	820	5407	14934	-10302	-24384	8592	3520	7845	-3122	-2289	90	125	1
-8572	10144	7504	16707	27930	5619	-17704	-1168	-9768	29885	12735	288	-12756	-48	-7788	-11204	9244	-3922	-11212	7740	16616	-3085	32767	-14027	-29652	2024	4132	6870	16526	-10209	-26892	9520	15128	4876	-16188	-2572	99	118	1
-32768	21340	27596	5692	17906	18581	-7724	12816	-7536	22017	15486	4781	-28156	-21528	2560	11860	7173	-6405	-14880	10492	17420	-3570	32767	-21490	-32768	6036	9716	16451	16402	-10244	-25152	1692	15532	-83	-18915	-3781	105	114	1
-32768	-32768	-1896	8423	4813	7495	-32768	-1064	-16172	3427	19096	2308	-25520	8184	-8400	14458	10805	3518	-29964	6180	21864	2233	32767	-26476	-29132	11000	6668	27806	18006	-9370	-24124	3404	8556	3044	-18501	-3767	106	102	1
-17376	17804	22876	8410	1348	8336	-16804	-224	-12256	10682	15174	-675	-20624	10724	-10680	-2568	13561	6083	-32768	22488	30236	13714	32767	-29210	-25052	12036	-8604	19198	17960	-10799	-21792	7856	-1676	4835	-20592	104	154	114	1
-12252	-11224	10144	5685	-365	3955	-14448	1600	-6184	12194	13737	-551	-6112	-3032	-6496	-466	12128	6503	-32768	10408	30980	16972	32767	-29678	-21016	9092	-8008	9466	17934	-13512	-23848	8844	-10264	4119	-18865	4994	141	124	1
-11060	-4472	10756	2443	80	1496	-12288	1236	-6816	-2236	11385	1998	-13592	-6928	-7788	3180	10793	4670	17200	23860	9836	20366	19389	-29657	-20928	-4188	-10528	-3644	15797	-9962	-27240	3224	-10484	-7088	-20121	5825	154	110	1
-10340	-3692	11988	2134	204	2055	-14244	-3656	-4968	-8279	8170	873	-17672	3416	-4876	7336	12979	-985	-31152	31228	28900	7765	-10863	-9373	-14016	-8836	-19200	-6510	9507	-7667	-25400	-5172	-6404	-16114	-27029	4790	153	108	1
-10644	-3984	12028	1158	397	1759	-22100	-4032	-3220	-3927	7283	-1051	-17516	5888	-2168	-4021	13409	1934	3992	28456	11872	-16697	-21042	-4037	-11240	-6008	-4844	16062	-56	-3085	-22140	-1600	-4144	-6379	-25971	7447	156	127	1
-10692	-3172	12052	78	925	970	-18192	-788	-2620	-735	6883	1720	-17468	-120	-2160	-10307	12964	4802	6404	5764	9760	-14082	-16765	-21	-11516	-300	-4960	18351	-6468	3551	-19156	2164	-6236	3029	-21133	9132	154	146	1
-10680	-3672	11416	-387	1092	158	-14920	-828	-1608	-2435	6479	382	-14796	-3120	-1940	-7863	13564	4855	4844	4580	9928	5543	-13303	13152	-3552	1848	-5832	759	-10645	7434	-17688	2512	-7664	2641	-19158	7959	153	136	1
-10240	-4824	10968	-565	1263	106	-14044	-3828	-660	-4617	6071	720	-14960	-3164	-1588	-5446	13094	4295	-688	15456	9948	10391	-12879	21206	-4120	-2020	-5648	-11017	-14120	10521	-16564	372	-8876	-1214	-18870	5937	151	140	1
-10576	-4928	10616	-277	1194	747	-16304	-4796	-480	-4076	5789	469	-14532	-2368	-2488	-2749	13878	3967	-7076	16984	12272	1664	-17969	24397	-4536	-4176	-7304	-13508	-19562	15121	-13624	-852	-8404	-2988	-17366	4692	138	141	1
-10204	-5304	10560	79	743	1625	-15160	-3576	196	-4727	5841	813	-13616	-2968	-1036	402	14190	3043	-10436	10124	14148	-1939	-25977	27784	-4736	-3996	-7844	-11130	-23521	18918	-10412	-1432	-8780	-1842	-14506	3826	132	140	1
-11408	-4600	10580	461	314	2263	-14884	-3472	-1000	-5097	5890	1479	-14992	-3300	-44	2678	15300	1937	-11228	6956	14264	21	-32768	29618	-6228	-3112	-7724	-11074	-27228	21178	-8384	-1916	-9304	28	-10875	3032	133	134	1
-10888	-4136	10944	602	-53	2088	-14448	-1828	-1104	-3031	7326	236	-16980	-4428	-1544	1948	15301	3832	-12940	4644	15600	2427	-32768	29350	-7392	-3316	-9280	-15633	-31507	23613	-6896	-1104	-10044	532	-6715	1126	133	134	1
-10704	-4212	11224	553	156	2040	-16616	-1992	-2072	-1352	8048	1403	-16820	-2740	-6388	2026	11249	3784	-18000	3488	19012	7195	-32768	29576	-10024	-5184	-11128	-21883	-32768	24098	-6100	28	-10860	-2704	-1246	1021	127	136	1
-11004	-3872	11180	398	775	2052	-15912	-2060	-3644	942	8251	865	-15624	8	-4244	2625	10206	3105	-27668	9732	21436	10305	-32768	30251	-15104	-6384	-13056	-23727	-32768	21858	-7000	-1524	-10808	-9126	1223	1904	127	137	1
-11060	-3572	11388	-93	1233	2034	-16448	-556	-4852	-150	8127	1203	-14916	1764	-4184	90	11819	2905	-32768	11768	18992	6766	-32768	32300	-17232	-9536	-12152	-11293	-32768	19774	-5932	-3296	-11828	-11475	1988	3043	119	149	1
-10692	-3656	11828	-743	2052	2104	-17140	-32	-4456	-4453	7362	1140	-15768	1056	-4764	-2754	13027	3123	-32768	11924	18680	5873	-32768	32681	-19648	-5756	-11940	-3701	-32768	20261	-7388	-2104	-6256	-12932	1675	3321	118	158	1
-10892	-3416	11508	-1982	2771	2594	-16840	-1412	-1800	-8253	7355	906	-15920	304	-1736	-4161	12104	1739	-32768	-2712	11828	694	-32768	32767	-26908	-5212	-10976	-3750	-32768	17804	-12884	2512	280	-9510	-3407	7225	111	137	1
-11372	-4724	10760	-2186	3385	3881	-15080	-3916	1268	-8144	8680	1289	-16744	-140	424	-3131	10490	-322	-32768	-5680	4160	4246	-30308	25228	-23560	-3928	-10912	-679	-32768	18307	-23536	1876	13336	-11169	-8985	9963	124	130	1
-9920	-1704	12752	14	5093	3073	-14148	-2204	904	-4955	11041	2291	-18100	-6176	576	-6031	8372	365	-32768	-5724	2732	4178	-29745	23213	-15332	-1488	-12788	-5134	-20430	15204	-25856	7128	30768	-4229	-27	10924	130	237	1
-11176	-4104	12852	264	7138	3540	-18508	-380	936	-6463	13060	3755	-19152	-3444	-1132	-6221	6038	1632	-32768	-19916	-26888	7748	-14915	6266	-9580	-5220	-5784	-2981	-9775	6547	-22296	5860	32372	-2464	7384	9605	132	253	1
-11784	-4568	12652	522	10227	4145	-18452	-3024	-1240	-3450	14747	3289	-18676	-1000	-2384	-4759	3343	3327	-32768	-19000	-31956	3020	-37	-1670	-4432	-2976	-5444	5798	6798	163	-19656	-6728	17736	5616	-409	-5209	129	206	1
-11788	-4224	13608	1549	13540	6115	-17940	-2004	-2972	-1986	16158	4081	-18188	-628	-2676	-5181	1142	2397	-4044	-4080	-19320	-24832	27934	-16853	-10572	2080	-5948	8564	21122	-8459	-20256	1596	12540	6520	-3429	-4993	131	138	1
-10892	-4028	13624	2055	18213	7496	-19176	364	-3380	-2959	17327	4690	-19012	-2628	-1812	-6968	-389	2595	5848	29712	32767	-16013	24000	-2107	-32768	8044	21348	12126	15509	-7346	-5052	6656	-5400	21786	13067	-701	133	108	1
-11328	-5808	14592	3129	25221	10777	-21816	-1968	-1492	-6606	17960	4767	-22444	-5516	180	-6610	-2937	3819	1544	-19948	928	-6249	32767	-6834	-23532	-3492	-532	-19953	7188	417	-14284	-6680	-4596	10642	10698	780	133	91	1
-11292	-7700	13928	4294	32767	16817	-27264	-748	1204	-7429	18404	4552	-25364	-2228	7516	-5064	-9314	4007	-32768	-7848	32767	-4255	24602	-13544	-11284	-15756	-2388	-18330	14948	-12503	-27536	10512	7632	-22000	1907	7176	135	54	1
-13180	-7536	15812	3510	32767	25084	-29628	428	5368	-13855	18711	4286	-25220	896	12812	-7006	-17295	3628	-32768	32767	3956	-16425	1423	-11901	-30784	3088	-17456	-7337	21089	-9930	-21852	584	-852	-14371	6870	-322	132	145	1
-23200	-14208	11892	6054	32767	32444	-29856	-1688	9080	-23339	18995	4998	-25756	4376	8480	-6197	-15384	5044	-17888	-11424	23200	-12320	2101	-10136	-19208	-2784	-9940	-10650	13644	235	-19396	-10208	-12312	7022	13517	-2934	135	129	1
-30864	436	16800	484	32767	32767	-22996	-9028	-2880	-19647	21924	4461	-23108	-5468	2172	-9891	-17251	1919	-10180	4012	16620	-7296	-1433	-5261	-13156	-1032	-6256	-16534	18128	-6407	-6808	5152	-5464	3262	12435	2907	139	134	1
-32768	-22524	14536	-1901	32767	32767	-25856	-10624	-9148	-11222	20801	5688	-23196	-7696	-8868	-2294	-17225	-2487	-10244	6616	13292	-3481	-1103	-2646	-12708	-7480	-9116	-3755	11662	-4709	-16028	6480	-9280	-5031	10890	612	141	127	1
-19088	-14800	19448	-329	29574	32767	-22928	-2216	-4580	-6715	17049	2152	-26588	252	-8448	4732	-20336	-5809	-9040	4776	13756	-2469	-437	-2169	-16916	-1180	-8520	9162	10134	-2011	-17524	112	-6340	-3900	11924	511	136	90	1
7560	-15228	10872	-2641	32319	32767	-15688	-1676	-14684	3557	10098	868	-26636	4872	-8876	7200	-20481	-6855	-9152	4000	14072	-1721	277	-1975	-23400	912	-4952	9812	6567	-1653	-18444	-3904	-2748	4016	11982	-847	126	91	1
-32768	-20808	19144	-8757	2578	-4577	-11736	1256	-23912	3469	6208	1142	-21960	5452	-8092	4345	-21361	-7055	-9340	3308	14320	-1014	900	-1668	-15716	2036	-2776	3485	6433	-2787	-17548	-1260	-1136	8147	11861	-2429	124	99	1
-9708	-23836	14096	2704	-17426	-17571	-9868	7984	-6624	-12126	-362	-2976	-21352	3680	-6300	-3230	-21610	-7438	-9352	3356	14032	-97	1403	-1134	-15708	1916	-3688	-3161	6825	-2019	-15364	4056	-2296	8488	12523	-3403	121	110	1
244	-8172	10108	4830	-20460	-15314	-9116	-2516	-8392	-19858	-8630	-5511	-17976	-352	-8612	-6651	-19110	-7980	-9508	4304	13348	174	1749	-790	-17060	2032	-4620	-6948	6069	-1622	-15528	4052	-3176	6358	12796	-4070	119	112	1
-3116	-1288	9132	-6486	-20285	-16891	-5544	-7704	-6804	-689	-13653	-7636	-16716	768	-9280	-5317	-17086	-8248	-9464	4272	13208	-1	1494	-781	-17076	-348	-4680	-3952	4627	-1589	-14420	3636	-3388	4756	13331	-3966	120	119	1
-9964	-9320	10092	-12020	-25054	-20655	-2960	-2712	-11200	19155	-17612	-12022	-15672	2112	-9436	-3671	-17434	-8105	-9296	4276	13228	-53	1106	-831	-15624	-1340	-3616	3805	3864	-1726	-14984	2312	-2848	3188	14150	-3642	124	121	1
-9592	-8948	11504	-8477	-32354	-24345	-6936	3704	-9036	23271	-22448	-12883	-12708	1904	-9412	-3774	-15720	-7274	-11892	5500	13472	-218	578	-1257	-15768	1692	-2816	8910	4319	-1419	-15192	3124	-2312	4201	14065	-3176	128	120	1
-6332	-3816	10736	-9177	-32768	-28213	-8660	7600	-8040	15270	-28956	-11848	-9652	1576	-10064	-4658	-12941	-7225	-9292	4092	13336	-348	515	-1152	-16664	3568	-1836	5877	4274	-989	-15188	4876	-1316	1025	14534	-4248	130	122	1
-10624	-3188	11832	-12562	-31888	-31617	-8620	4772	-9944	6930	-32768	-10570	-9252	1588	-10156	-4556	-12134	-7233	-6764	3408	13088	-211	616	-1775	-16688	3652	-1584	-199	5013	-1950	-15068	4568	36	-5068	16539	-4412	131	125	1
-15896	-4768	13740	-12237	-32089	-32768	-7756	2344	-10120	5667	-32768	-10523	-6456	3020	-10800	-2970	-7167	-4473	-9208	4200	13300	-331	1009	-1374	-16360	1732	-1924	-3114	5163	-2611	-15188	2568	-768	-6832	18124	-2930	131	130	1
-19204	-5668	15788	-9607	-32678	-32768	-7480	2652	-12060	5261	-32768	-11775	-5112	3420	-11672	-1647	-4232	-3717	-8960	4028	13268	-529	942	-1643	-16008	128	-1228	-1695	5995	-2304	-15728	-64	-2436	-1859	15010	-2668	126	133	1
-26324	-9536	17632	-6791	-32768	-32768	-12752	-732	-14108	7177	-32768	-12778	-4888	1532	-10292	3402	-2422	-4094	-8976	4256	13068	-760	1036	-1493	-15840	428	-2404	207	6665	-2161	-17356	880	-3184	-1449	13006	-2175	120	132	1
-32768	-4668	18108	-2999	-32768	-32768	-18396	-792	-8828	15634	-32768	-11228	-4388	1528	-6476	9521	-728	-3239	-8816	3628	13484	73	1402	-2203	-17416	1368	-2896	1158	7052	-2058	-17640	3200	-1832	-3043	12192	-1876	121	128	1
-32768	2540	12780	-8330	-31846	-32768	-21880	-168	-12396	21834	-32768	-7027	-4408	-932	-3548	13484	1357	-4669	-8948	4944	13556	1371	2097	-3243	-18372	2220	-2560	749	7453	-2412	-17112	2644	-1032	-2570	11581	-676	126	132	1
-32768	5160	4848	-7613	-29842	-32768	-23184	820	-12240	14773	-32768	-3884	-13488	-2708	3120	22000	-2674	-9611	-9700	3636	14404	-186	3349	-3074	-16236	3112	836	2854	7954	-2710	-16124	1032	2256	1291	10175	90	135	131	1
-32768	21032	-376	-2581	-18241	-31151	-25912	-304	-5924	3627	-31424	1330	-32768	-13040	20388	20403	-26503	-15176	-9188	4104	14392	-152	5802	-3201	-15792	932	2116	5263	10483	-5313	-18476	324	3332	4675	8507	302	93	129	1
-32768	17280	-20720	-1826	-13907	-22154	-13512	7884	-16732	-1689	-20219	1922	-18716	-3972	17316	10832	5185	-10630	-10024	3640	14444	256	9181	-3472	-18604	3780	132	2859	12681	-6250	-21204	4224	528	6728	6300	-718	30	128	1
-32768	32767	-29628	-4671	-12918	6100	1240	4084	-6716	-15237	-6883	-3291	-10564	4956	26040	1983	9245	4094	-9604	3396	14948	968	13592	-4110	-21000	1108	-1560	2335	14241	-7380	-19868	5464	-2068	6737	4683	-937	66	129	1
-32768	25172	-28256	-19946	-1525	8237	-948	-1148	-8212	-9680	13915	-6122	-10212	6248	27212	983	6869	5649	-9224	3940	16344	934	18843	-4673	-20876	252	-2076	4961	14200	-8021	-19932	3336	-756	6073	2169	-357	112	131	1
-12872	-32768	2104	12168	9288	8332	-17256	-2728	-13984	-6098	23163	858	-18860	9336	3040	-6662	4400	9173	-9044	4936	14480	713	24812	-6447	-20824	684	-1580	7000	15226	-8756	-21176	1940	2980	9039	-772	-1416	112	133	1
4692	-30264	32767	23661	15899	9106	-31760	-1440	16132	-6113	9917	1154	9424	4456	-30212	-29160	19995	4370	-10484	5240	14936	-598	32239	-9038	-24292	2492	1396	8783	15726	-9815	-23516	6520	4424	8489	-2819	-1486	104	129	1
4012	13756	2856	21168	27503	7281	-27268	-10788	-3324	24299	7183	-3033	-10964	-3392	-11656	-16820	14066	-2892	-12412	7952	16328	-2309	32767	-14019	-29492	580	5412	9262	17883	-10097	-26860	5340	12416	8994	-11120	-2064	110	126	1
-32768	20088	31652	13315	24394	20876	1348	10712	-4360	32767	11998	3653	-30464	-24288	3360	16920	4581	-12626	-15516	8368	17564	-1803	32767	-20638	-31608	3668	7240	17552	17572	-9533	-25092	2108	15444	8454	-19107	-2403	106	124	1
-32768	-18988	892	11278	3260	15257	-32768	888	-18276	20911	20715	548	-32768	7536	-2080	26620	12336	3005	-28532	5292	21716	2584	32767	-23627	-31068	10440	9288	27266	19745	-10314	-24732	1900	8688	6496	-17325	-3046	89	120	1
-15844	18868	26028	10109	255	10368	-22184	7564	-11416	18940	14368	1628	-23648	19392	-4400	396	15747	9335	-32768	20040	28848	12248	32767	-27738	-26984	11376	-6304	21035	19708	-11153	-24592	8356	-2972	6832	-20627	2054	137	98	1
-11600	-8696	11464	3840	483	1963	-15176	10900	-5472	7048	14950	-2330	-5080	2696	-8568	-1813	14203	9891	-32768	10428	31452	17082	32767	-27789	-23208	6816	-8648	7159	19299	-13482	-24992	7548	-9532	2544	-21176	4854	134	107	1
-11416	-6660	9616	607	2065	-250	-12792	-1480	-5732	-12952	12504	1370	-10860	-10148	-9892	-2984	8977	6497	21004	24876	14892	21265	24166	-25777	-22656	-5860	-11228	-5147	16732	-10371	-28928	740	-10300	-9497	-21511	6214	159	103	1
-10768	-4784	11052	630	1341	1619	-8464	-13036	-7080	-10618	8324	678	-14564	808	-7656	4382	11754	-1492	-29944	32767	28852	6399	-4375	-6906	-14968	-11284	-19940	-6717	10346	-7489	-26496	-7472	-6676	-16260	-28670	4241	162	120	1
-10844	-3952	11632	422	944	2007	-22520	-6672	-5136	4954	6255	-1817	-16844	6220	-6388	-7462	15795	-562	2108	26600	14300	-17200	-15664	-908	-12468	-7380	-5808	17371	1090	-2671	-22628	-3372	-3536	-5154	-28010	6269	163	135	1
-10756	-4080	11668	-331	1212	1403	-22876	2484	-4236	1780	5394	2527	-18328	-1204	-7420	-14033	15551	5195	5032	3664	12020	-12251	-14618	1982	-9504	1012	-5376	18237	-5635	4437	-19756	1748	-6496	4959	-20717	8786	164	140	1
-10888	-3552	11288	-598	1370	796	-14096	4300	-1752	-9850	4292	66	-15372	-6932	-2848	-5265	14817	3500	3236	3108	11576	6926	-14581	11695	-2200	1396	-6472	-1519	-9007	8845	-18788	1956	-7972	3103	-20601	7083	166	141	1
-11156	-4216	10560	-833	1361	365	-13860	-6968	-932	-12750	4499	727	-14896	-5732	-260	-19	16294	6366	-1084	13736	11120	9598	-16860	16099	-3632	-2540	-6072	-11766	-13046	12337	-16984	-956	-8776	254	-20082	5084	148	146	1
-10976	-5372	10224	-400	1036	812	-14756	-8560	924	-2629	4411	502	-11504	-1712	76	5998	17263	5266	-6828	13372	13292	1785	-22865	18493	-4852	-5388	-7540	-13782	-18272	16462	-13432	-1380	-8440	-971	-18089	4872	133	139	1
-10952	-5096	10064	172	227	1559	-15292	-4000	732	1412	5127	2060	-15204	-1652	-684	3521	13694	2048	-7984	7332	13916	399	-29618	23723	-5048	-6372	-6700	-10028	-22923	19711	-10360	-1544	-8592	596	-15148	4433	129	137	1
-10748	-4440	10096	810	-700	2140	-13332	380	560	-1337	6147	1474	-17352	-3032	-3264	315	10595	738	-8936	4708	14560	2438	-32768	27521	-6996	-5540	-5500	-8217	-27129	21492	-10060	-1620	-8652	820	-14437	4267	139	133	1
-9904	-4216	10760	1418	-1108	2607	-13400	852	408	-2064	6339	1250	-17816	-3684	-3688	2234	10249	2402	-12072	2200	17540	3387	-32768	29364	-7988	-6240	-8420	-12365	-31601	22300	-7484	-2064	-9588	735	-8376	1261	141	135	1
-10416	-3484	11220	1194	-644	2430	-17344	-3164	-1088	-3156	7679	957	-16192	-3560	-3776	4006	11060	5165	-17404	-4	21492	5920	-32768	29218	-10104	-7504	-10108	-15221	-32768	22433	-7336	-1684	-10904	-791	-3710	608	131	138	1
-10820	-3140	11496	633	388	2282	-16692	-2780	-2700	2801	7892	1475	-14924	1340	-3360	575	12391	5092	-26096	3724	24956	8521	-32768	27679	-14768	-6636	-12840	-14955	-32768	21433	-7364	-652	-10540	-3643	-2209	1387	119	141	1
-10856	-3708	11400	197	1271	2327	-17052	-152	-1028	3134	7745	1666	-15048	4984	-3220	-991	11953	2857	-32768	9732	22308	3751	-32768	27279	-17088	-7848	-11824	-9981	-32768	20636	-6532	180	-11664	-6572	-714	3812	114	151	1
-11180	-3680	11136	-439	1783	2495	-16244	188	-1000	-1416	8764	1370	-16808	2404	-2076	-1290	11158	702	-32768	6748	16496	-3873	-32768	29208	-18400	-5244	-12632	-10944	-32768	18395	-6288	-48	-7468	-13294	275	4343	121	153	1
-9420	-3032	11584	-196	2804	3617	-15416	-1884	468	-4857	9708	1583	-18080	-3228	-1384	-3430	10193	578	-32768	-2368	8160	-4888	-32768	29890	-23620	-8300	-13256	-14865	-32768	13725	-10404	2396	-2532	-16089	-2999	7656	127	147	1
-10160	-3192	12876	161	3711	3527	-15668	-3488	312	-5778	11281	1686	-17076	-5128	-656	-3662	8053	951	-32768	-8652	-548	-1352	-32626	22880	-24444	-5692	-13176	-7577	-32768	12434	-21128	1112	10016	-19589	-10105	7769	129	188	1
-10868	-4020	12560	331	5824	3401	-16740	-348	588	-6750	12780	3335	-17208	-2576	64	-5280	6598	1648	-32768	-9128	-14180	-627	-27128	12895	-13984	-8316	-14736	-8988	-20343	11360	-24432	4712	32160	-11139	4892	5235	129	253	1
-11372	-3528	12964	702	8642	3736	-17188	-2004	188	-5310	14851	3602	-18948	1128	-784	-4720	5004	2109	-32768	-19400	-27888	1758	-14535	6694	-10704	-2844	-9056	-1717	-10074	5074	-16656	-8184	31136	-6346	10529	-2840	127	253	1
-11444	-3016	13504	614	12215	4299	-18176	-688	-1456	-3177	16890	4214	-18008	-1300	-2540	-6133	2213	2628	-32768	-16768	-32768	-4352	14404	-4960	-7332	-2512	-8208	4447	7445	-2295	-22000	-6468	15740	3521	764	-7944	127	206	1
-10480	-3948	14192	1661	16658	5463	-19056	84	-2568	-3304	17740	5196	-17944	-2600	-3340	-6760	435	3158	-6988	13204	18596	-3390	30070	-2289	-10164	6420	3904	13276	20157	-7033	-18704	432	26356	8447	-7573	-6349	129	135	1
-10640	-6064	13940	2259	22500	8104	-20200	-1312	-2792	-5673	18589	5901	-18188	-2644	-3368	-6638	194	3245	-13636	6044	11332	-2949	23368	-11606	-32768	5988	10104	8067	10522	-630	-14704	-9320	-6628	17166	13744	-1204	128	90	1
-12016	-8028	14272	4109	30185	13500	-24960	-2424	-836	-5145	18971	5458	-24924	-4244	1556	-5356	-5432	3980	-32768	3460	27664	-4506	22745	-11172	-9716	212	-2384	-11995	14500	-2860	-27276	2024	11328	9696	5365	4092	133	56	1
-13452	-8200	16160	4486	32767	22190	-30628	372	3608	-7994	18893	4895	-29628	-1420	12604	-4897	-16771	4527	-32768	1932	25988	-4812	19610	-11488	-23920	-7344	-11752	-12805	24765	-13453	-17748	15876	-11756	1926	6221	7372	134	53	1
-18252	-13104	12480	3468	32767	30557	-32768	1104	12088	-20868	18363	5023	-26932	3388	9788	-4342	-18434	3629	-17756	-1536	16664	-8685	2285	-7126	-21420	-10616	-17596	-2485	15971	-3774	-14044	-6348	-7608	-131	11904	2744	134	116	1
-31852	-2944	16400	3527	32767	32767	-23612	-7636	2260	-28531	18763	5271	-23720	1392	5104	-8494	-16804	3529	-8876	5328	14680	-6070	1188	-4572	-11904	92	-9212	2741	15619	-3720	-10576	796	-11332	5438	9158	-3917	134	68	1
-32768	-23364	16876	-2627	32767	32767	-21628	-12484	-8612	-16694	23443	6085	-20644	-6348	-4908	-5396	-17745	-2745	-10704	5208	13748	-4325	1202	-3926	-18004	1860	-9820	-4202	11695	-4287	-14100	12588	-9668	-3601	11183	-3105	141	74	1
-26240	-15580	17024	962	28296	32767	-24352	-3388	-6932	-9188	18420	813	-23888	1004	-7920	338	-19371	-5430	-9756	4656	13600	-3876	1639	-3894	-15208	1728	-7256	-4328	9221	-2601	-18596	3464	-5452	-10960	13352	932	140	74	1
11416	-26984	13548	-400	29920	32767	-18364	-2016	-10964	2335	14112	305	-26120	4440	-7956	3698	-20036	-6516	-10400	2984	14336	-3189	1728	-3241	-20040	-2600	-4368	-6432	7375	-3239	-18080	-4660	-1444	-5653	12561	-1207	133	83	1
-32768	-17724	18368	-9597	11771	6982	-12932	1316	-27588	10969	9845	-168	-20984	6048	-8616	3593	-19886	-7875	-9376	2976	14116	-2660	1936	-2744	-17352	-5216	-3412	614	5163	-2531	-16704	-5392	412	2122	11654	-4258	132	90	1
-14336	-26188	13712	-2458	-9549	-14811	-10988	11184	-10104	-8410	4721	-4279	-20952	5344	-5336	-1037	-21279	-7894	-9088	3176	13916	-2130	2272	-2604	-15652	-312	-2948	3886	6017	-949	-16828	52	-1192	7251	12411	-3474	132	102	1
-2744	-13324	10728	5095	-14812	-15533	-9916	-8	-5816	-20717	-3692	-6292	-17924	2260	-6908	-7772	-20391	-8118	-9720	4160	13820	-1556	2298	-2655	-17944	3732	-4060	1003	5925	-749	-16064	2960	-2560	8871	13282	-2245	128	116	1
-2636	-2344	9716	-2163	-15249	-16200	-7676	-7600	-7748	-7908	-9144	-9298	-17984	1444	-8392	-9130	-18959	-9736	-10752	2348	13816	-1154	2187	-2478	-17116	2332	-4728	-2622	4782	-1051	-14244	2848	-3484	9149	14180	-2393	127	115	1
-7684	-6760	10196	-10492	-18958	-19887	-2844	-4360	-9380	15632	-13210	-12414	-16840	1568	-8932	-7380	-17775	-10126	-10284	2604	13376	-416	1358	-1419	-15172	-1704	-5908	-2812	4142	-1780	-14748	2456	-5536	7600	15661	-3733	130	112	1
-7764	-8928	11464	-8181	-24931	-21091	-7428	2596	-7988	22665	-17936	-15265	-13640	1836	-8500	-6378	-17360	-9355	-10172	2944	13052	-266	1043	-1086	-16108	-2068	-5716	2755	3494	-1511	-15520	1856	-4876	5736	16090	-4620	127	112	1
-6088	-3552	11800	-8466	-27342	-25579	-8036	6528	-8488	19426	-24205	-14794	-10876	1332	-9392	-6757	-15220	-8781	-8656	2936	12992	-78	956	-1134	-17992	-80	-3720	6503	2367	43	-15424	3944	-4152	1441	17044	-5668	134	117	1
-7800	-3356	12368	-11385	-27589	-31205	-7716	6892	-8792	11345	-29283	-12773	-8084	1348	-9540	-6816	-10809	-7860	-9492	3108	13304	113	1301	-1408	-17700	1948	-2964	4759	2759	-136	-14836	3712	-3000	-5086	18337	-5482	137	124	1
-12204	-3680	14408	-10596	-28288	-32768	-7256	4128	-9824	5626	-32768	-11011	-6752	1704	-10440	-6497	-8201	-5771	-9836	2948	13048	515	1522	-1400	-16616	1872	-2776	698	2759	-841	-13876	2256	-1476	-8312	20018	-4196	140	131	1
-16940	-3200	16828	-7613	-30105	-32768	-7188	3236	-10880	5257	-32768	-11796	-5124	1796	-11020	-4316	-3995	-4518	-9956	2832	12820	602	1751	-1557	-16164	1336	-1080	-1928	3079	-1083	-14688	4	-2132	-4801	17209	-3925	132	130	1
-22968	-3500	19072	-5673	-32768	-32768	-9808	988	-12624	8973	-32768	-11838	-5056	816	-10656	1529	-1648	-4262	-9452	3716	12944	141	2243	-2005	-16380	852	184	565	3878	-1086	-17608	848	-3192	-3827	15687	-2427	127	127	1
-30292	-3716	19688	-3790	-32768	-32768	-14724	-188	-11184	13974	-32768	-11326	-5164	-128	-10784	11393	328	-3043	-9776	3680	12920	36	2504	-2956	-15948	3880	500	2192	5386	-1385	-20712	4052	300	-5607	12999	-2266	124	124	1
-32768	1096	16224	-4841	-32768	-32768	-20624	-800	-13036	23204	-32768	-7600	-4380	1296	-6384	19134	2800	-3482	-10944	2680	13092	-84	3336	-3370	-18848	4336	508	1055	6536	-2300	-20336	4628	2168	-2742	10657	-318	124	126	1
-32768	8376	7620	-6826	-32768	-32768	-24140	3584	-16180	24413	-32768	-1019	-8768	-976	-2952	24356	2204	-6430	-9700	2464	13680	-455	5301	-3364	-17936	1676	3052	2763	8026	-3777	-19780	828	5756	2850	8779	1315	134	130	1
-32768	992	3216	1464	-24972	-31053	-27352	4108	-18332	18237	-32768	3100	-31136	-9008	17640	29893	-21883	-9182	-10296	2640	13760	-214	7313	-3464	-15688	3604	5428	6639	10587	-5874	-18924	-1848	7220	9099	8396	434	115	126	1
-32768	32767	-18228	4315	-13536	-14875	-18252	3180	-14076	79	-20965	4274	-32768	-3084	21372	13663	-7796	-14834	-10644	3144	13968	-164	10382	-4061	-17092	4892	3112	6258	13444	-7913	-20996	5668	1276	8803	7005	-89	22	128	1
-32768	19068	-32768	2632	-10001	5177	-4296	10784	-18272	-7103	-8378	2194	-10796	8900	27284	6075	16425	2733	-10624	2732	13904	-151	15048	-4660	-18948	3880	1440	3693	16011	-9405	-20044	7832	792	9135	3615	-555	30	126	1
-32768	32767	-32768	7994	9636	20141	732	-764	-5444	-16835	10696	-5206	-14588	17472	24932	-1757	5593	8698	-9220	3664	14344	-599	20587	-5472	-18864	1348	900	5038	17222	-10209	-20264	5600	1744	7104	-1529	-1076	95	126	1
-24132	-12864	32767	14434	19239	15874	-24728	5552	15060	-12001	15079	3265	-27900	8840	8560	-13755	7027	15026	-9612	3420	16232	-1599	27802	-7860	-22948	2296	388	6439	17247	-11493	-23108	5756	2756	7200	-3446	-1125	103	124	1
-21684	5040	1624	8540	14511	20173	-32768	-15704	3924	9947	16517	-1431	-15984	864	5884	-5061	3597	1238	-10928	5972	17004	-2861	32767	-10262	-30220	1796	7044	8768	19297	-12682	-27600	7772	6968	4816	-9596	-2007	97	122	1
-28032	-4900	11384	11839	1443	9821	-11096	-1944	-7208	32767	26487	-692	-20592	-3764	-6636	-11126	13136	-7050	-18128	10232	18136	19	32767	-16122	-32768	-2956	9292	14056	20023	-12135	-32480	5528	24784	467	-32768	-1292	146	121	1
-20900	9852	16008	3206	4776	7382	-18192	14828	-15528	29885	31091	4698	-11960	7640	-21040	-4022	3028	-369	-32768	10200	26992	22420	32767	-12739	-30788	-3288	2832	27063	22102	-12277	-20096	-10368	12636	-2426	-19554	-2897	156	107	1
-12812	-3236	10392	2428	-391	4199	-8048	-560	-18792	7460	17600	-6466	-7712	6068	-14692	-12987	6029	-3954	-32768	22044	32404	27448	32767	-15521	-28208	15820	-7308	24720	18927	-13360	-23904	5648	-6832	6335	-19203	1768	164	107	1
-12156	-5924	10488	1080	-1046	1868	-16068	5060	-9960	-18754	13974	1512	-15872	-14100	-16580	-10029	8410	4038	-32532	21336	27028	20197	24671	-25540	-24056	3792	-9200	8447	19609	-16168	-24928	8852	-8132	2072	-20708	6949	152	99	1
-10880	-4756	10928	1432	-1381	2515	-19088	-4328	-11868	-32768	7094	-571	-18452	-11252	-11208	5434	12437	3618	-32768	29932	444	6241	24640	-28640	-23544	-1664	-11608	-971	15559	-10053	-27640	-72	-8464	-8930	-21971	6374	156	105	1
-10968	-3844	11440	1043	-1275	1713	-16932	-14840	-5772	-16193	6345	2269	-19368	148	-4776	11091	12235	3682	-13168	32767	21208	-11449	3666	-4931	-16184	-2712	-8276	-2446	12553	-9155	-26572	-3568	-7424	-13777	-25713	5831	150	105	1
-10816	-2648	12248	821	-474	1235	-15500	-6600	-6044	15636	6489	1890	-16904	4460	-2148	5174	12412	5803	2252	20100	16464	-21138	-2665	-2248	-14348	-5868	-5360	2736	3507	-1586	-24428	-2348	-3824	-6768	-26775	7569	148	121	1
-10612	-2656	11884	341	277	289	-16320	1376	-7040	19225	7316	1139	-16296	3228	-4004	-421	14146	7248	2128	16116	17068	-20283	-3521	-1701	-8244	-212	-6332	-291	-3179	3775	-22928	-812	-5676	1561	-24706	8027	143	127	1
-10692	-3124	11528	-132	677	-318	-17016	3468	-6572	12024	5359	2191	-15252	832	-3516	-1628	14930	5907	1620	8496	17212	5295	-12664	9496	-6700	-4208	-6184	-8606	-6656	10229	-22852	-3072	-6732	5172	-22826	7917	141	135	1
-10676	-3756	11216	-458	993	-394	-17468	2928	-5520	-2007	3398	1591	-15208	2092	-4124	-4106	16075	5031	-3116	14192	16652	7245	-19500	14292	-6500	-7356	-6844	-8434	-13073	15957	-18952	-2336	-8908	3597	-24001	5935	146	145	1
-10576	-4548	10824	-613	1158	1	-16460	700	-3892	-13276	1115	475	-15188	1092	-4260	-7869	17184	4853	-6084	11948	16116	3319	-27369	20582	-5284	-8240	-6236	-5603	-18674	18899	-13948	-1616	-8836	3191	-21028	4310	132	136	1
-10596	-4444	10492	-364	603	567	-15236	-1928	-2408	-18562	351	889	-15300	-1324	-3216	-8161	18320	5407	-6080	10976	15864	2828	-28390	21607	-5220	-6432	-4752	-2584	-24125	21649	-11988	-2788	-9760	3704	-17108	3374	134	141	1
-10104	-4560	10968	428	59	1556	-15456	-6688	272	-11251	1458	-11	-15176	-6616	-824	-114	19110	6585	-7804	1856	15728	3281	-32768	28592	-6056	-5600	-5788	-4747	-28177	23752	-6540	-2232	-9944	5263	-13074	1415	136	138	1
-10348	-4416	10460	1288	-197	2133	-15844	-8292	84	3734	3205	1097	-14060	-6960	1536	7924	20222	7257	-12616	-76	19404	5644	-32768	28867	-7176	-5860	-6372	-8911	-32604	24785	-5692	-1560	-10664	5397	-8452	333	127	134	1
-11432	-4484	10368	2005	-962	2473	-13840	-2160	2156	9102	5292	1264	-15348	-3604	736	6089	15560	4755	-18100	-300	23464	7609	-32768	27208	-7516	-6384	-6796	-9621	-32768	24923	-6048	-1348	-9572	483	-5224	206	123	137	1
-10792	-4248	10472	2901	-1399	3172	-13112	96	2844	7462	6488	2025	-16296	-532	-2148	6604	12069	3877	-24404	2896	25088	9076	-32768	24791	-14488	-7464	-10192	-12458	-32768	24508	-5824	-948	-9900	-897	-3181	1506	121	148	1
-10112	-2680	11952	2407	-724	3192	-14880	-300	-2192	5411	8644	1533	-18784	-64	-1088	8200	12638	3760	-32768	9100	22860	5560	-32768	24922	-16728	-9968	-9532	-8107	-32768	22823	-5992	-2752	-10124	-2539	-2429	2149	115	158	1
-10132	-2564	12360	1275	786	3028	-20200	1668	-3112	603	9069	1360	-18672	-884	-2396	1901	14799	4825	-32768	6884	17352	-1241	-32768	28467	-18984	-5160	-10684	-6496	-32768	20343	-4568	1164	-4732	-5810	-3480	3592	116	161	1
-10512	-2496	12764	908	2890	3135	-19476	-2084	224	-3786	7701	1356	-18696	-480	-1044	-1039	12528	4704	-32768	-2648	9476	-3737	-32768	27722	-22836	-8408	-12444	-10700	-32768	16014	-10920	6152	1564	-14179	-6513	7858	118	165	1
-11032	-2804	12160	-55	4882	3335	-14548	-2496	2424	-3661	9546	2356	-16712	3880	4600	-782	10074	1093	-32768	568	4316	-5213	-27167	18473	-25924	-4796	-14548	-4571	-32768	12988	-25012	4808	12392	-21278	-11541	9558	123	253	1
-11012	-3076	13456	-132	6311	3817	-13584	-1500	1888	-3357	13443	2920	-18568	2132	2848	-4977	8340	-97	-32768	-13668	-9012	-5922	-24464	11061	-12716	-8156	-18544	-9596	-18076	11166	-17784	4816	30580	-9588	6136	3319	124	254	1
-12004	-1792	14004	101	10210	3222	-14132	-1652	1796	-3909	14049	2999	-20900	-6868	-2728	-10154	5232	1885	-32768	-15156	-32768	-4079	-6264	-384	-8652	-6368	-11064	1209	-6824	1839	-18212	-13816	30036	-116	9698	-1767	122	253	1
-11184	-4196	15236	515	14519	4180	-21464	-1800	-1244	-10065	16923	5180	-20156	-4028	-3864	-7325	1655	3776	-32768	-24864	-32768	-4899	20523	-7840	-9412	-2756	-8048	8890	11110	-3381	-20992	-3920	22856	9077	-4901	-5936	131	156	1
-11624	-5636	15004	1788	19665	7175	-21192	-2452	-1612	-6607	17881	5699	-21060	-1248	-2016	-5613	-1197	4297	-25984	26452	32767	-3502	32767	-8712	-31288	6380	22624	17549	18326	-4382	-9992	7428	596	18575	8355	-2038	132	95	1
-10948	-6232	15688	4967	27255	11365	-22096	-3208	-612	-4297	18831	6619	-23100	-5584	-108	-4569	-3911	4964	-25208	-13872	16932	-8912	22806	-16942	-31344	12292	296	-5073	12497	-594	-23888	-5028	8804	10740	6886	-889	132	76	1
-11672	-8716	16044	7791	32767	18373	-27984	-1936	2524	-3120	19662	6692	-26832	-6036	4876	-3564	-11672	5034	-32768	19636	16172	-14559	2681	-15581	-13316	-8948	-9384	-24387	21605	-11547	-23212	-2636	8528	10072	6972	1115	131	32	1
-11388	-9500	18984	6336	32767	28504	-32768	448	3464	-5790	19235	6252	-31156	-2396	12748	-684	-23086	3693	-15060	-10440	24840	-13613	3148	-12458	-21868	-3908	-10092	-16112	21617	-8750	-10324	312	-9780	-4524	10308	3754	132	43	1
-23092	-15660	10672	11002	32767	32767	-31068	1052	15436	-23326	16083	7202	-23496	9952	10652	-566	-17858	5835	-12432	12072	11228	-8677	-2106	-5069	-10288	-3160	-14112	-1990	13469	-1254	-11004	-2932	-14568	-248	9858	310	130	43	1
-32768	-14912	17872	4539	32767	32767	-21464	-16724	-228	-26518	20351	7096	-21076	-7464	-1776	-6941	-16609	-58	-9676	6208	14372	-2822	-1158	-2201	-19492	-2124	-6268	-4599	14643	-6431	-20724	5872	-10416	1270	12823	-3897	134	41	1
-32768	-20724	13220	10819	29478	32767	-24108	-8968	-6996	-13062	18082	5583	-23932	-7304	-8552	36	-18330	-6589	-9312	4764	13792	-1766	-710	-2168	-18272	-1516	-11284	4087	8495	-612	-16928	3836	-6284	-3586	14308	290	139	57	1
-1536	-22736	15836	7613	24358	32767	-21316	-1928	-10748	-1269	16437	2924	-27296	4344	-6684	4964	-18488	-6145	-9036	4188	13992	-1364	106	-1797	-15808	2476	-5324	197	8818	-4853	-20020	-372	-4148	-1910	13801	-734	133	84	1
-32768	-5604	14828	-2130	25704	19113	-16372	-292	-17972	12424	8984	3168	-22040	5884	-8944	6222	-19130	-6775	-9516	3320	13868	-1222	493	-1750	-19124	-1820	-5412	-1353	5468	-1683	-15896	-1564	-220	1210	13058	-1635	127	87	1
-22108	-27188	13036	-6650	1645	-13462	-11852	7564	-14716	4033	6292	-49	-22288	5624	-6100	4340	-21382	-8430	-9532	2960	13944	-512	855	-1127	-16256	-2892	-3784	527	4858	-1473	-16088	-2168	-1140	5057	13618	-4944	131	99	1
-12392	-24324	11568	9111	-12850	-19797	-11272	5692	-7340	-14995	-372	-3884	-19492	4292	-5964	-4185	-21667	-8460	-9332	3464	13704	5	1095	-738	-16512	792	-4676	979	4896	-1173	-16160	1660	-2660	6069	14103	-3481	127	115	1
-4044	-6848	10108	12001	-17892	-18784	-9656	-5644	-8692	-14667	-7636	-7296	-18500	80	-8184	-7914	-19737	-9447	-9500	3628	13548	113	965	-668	-17748	1712	-3960	-42	4083	-900	-15544	1560	-1980	7286	14968	-2712	130	118	1
-3756	288	9792	-1086	-18530	-21111	-4660	-7972	-7176	8103	-11941	-9112	-18396	404	-9284	-6070	-17928	-10589	-9484	3872	13404	171	981	-535	-16212	1152	-3732	156	3374	-354	-14908	1872	-2140	9102	15836	-3385	127	110	1
-7228	-6356	10116	-8877	-21963	-21938	-4708	-1148	-9976	24726	-16425	-11989	-15532	1816	-10032	-3842	-18263	-10878	-9372	3704	13412	131	786	-498	-15996	548	-3736	698	3138	-817	-15136	3212	-2916	8162	16875	-4796	122	119	1
-8492	-7320	11108	-7081	-26768	-23026	-7664	4848	-9448	27434	-21567	-12817	-11816	3076	-9720	-2976	-17725	-8963	-9264	3852	13444	174	690	-529	-16464	532	-3188	4047	2955	-950	-15756	5288	-1756	3951	17288	-4957	130	122	1
-8040	-3688	11972	-7210	-29115	-27609	-7192	7740	-9636	19795	-27803	-12221	-9516	2440	-10808	-4722	-15616	-7621	-9240	3928	13260	26	707	-661	-17336	1352	-1768	6264	2942	-400	-14500	5324	-436	-2008	17868	-5520	134	121	1
-10948	-3360	12688	-9681	-30574	-32768	-6656	6400	-10736	8958	-32768	-10362	-7316	1956	-11536	-5548	-10726	-6897	-9184	3900	13164	9	652	-783	-16036	3544	-156	5098	3545	-836	-14868	4412	368	-5718	17392	-5006	137	124	1
-14304	-4100	13572	-9933	-31935	-32768	-6552	4752	-10328	3119	-32768	-9451	-5744	3616	-11748	-4372	-6763	-4885	-9312	3612	13220	-170	480	-910	-15212	3620	-996	533	4281	-1713	-15796	4588	40	-5445	17298	-4810	134	126	1
-18912	-4160	15676	-8955	-32524	-32768	-7228	2224	-12724	3296	-32768	-11031	-4924	4272	-12052	-1500	-3447	-3097	-9124	3904	13148	-528	266	-1108	-16020	1460	-160	-1796	5603	-2258	-16508	2356	-1336	-3992	14351	-2274	123	138	1
-27732	-7736	17540	-6828	-32768	-32768	-10512	716	-14808	9350	-32768	-12882	-4136	2368	-11856	4490	-2118	-1857	-9060	4212	13276	-808	257	-1333	-16644	1344	-496	-478	6422	-2037	-17396	1988	-1328	-6362	13436	-2068	117	132	1
-32768	-424	16768	-6647	-32768	-32768	-15608	-248	-11380	15081	-32768	-11525	-4004	2168	-12500	5684	-1548	-1663	-8872	3964	13460	-314	531	-2036	-16916	2120	-1816	-596	7228	-2339	-17444	3300	-624	-4306	12257	-2007	118	129	1
-32768	3832	10748	-10235	-32768	-32768	-21884	1544	-15440	21535	-32768	-8338	-1616	1412	-6040	15603	3270	-4068	-8828	3860	13816	1002	935	-2931	-17768	3460	212	-945	7921	-2674	-16492	1500	2040	-1047	11313	-1363	121	132	1
-32768	14304	7152	-11748	-32768	-32768	-30016	1964	-17812	15623	-32768	-839	-17108	-5076	9956	22440	-10678	-7949	-8636	5448	14104	1171	1591	-4085	-15428	4700	2444	775	9615	-3345	-16540	-2460	5884	2481	10091	704	127	133	1
-32768	29832	-5060	-11502	-21868	-32768	-22548	3160	-6572	1430	-32244	1757	-32768	-15928	19700	14593	-27897	-15258	-8184	1704	15836	-1033	4666	-3843	-16252	2548	2748	5326	12222	-5458	-21060	4704	3312	6419	8651	1155	75	131	1
-32768	25436	-21804	137	-16970	-15168	-11492	1832	-11400	-22949	-17968	4847	-18524	-4496	18772	4949	6497	-11602	-11856	2388	15604	-10	8860	-4382	-21196	2448	1720	6752	14337	-7624	-22292	8508	-604	9008	5555	-236	1	131	1
-32768	22556	-32768	7789	-17852	22479	528	6364	-5860	-11529	-3146	-610	-8344	8384	25856	1587	15415	1423	-9524	3172	15864	1299	13937	-5293	-20224	2556	12	3485	15535	-7736	-19380	3972	-328	7212	2479	-2182	68	131	1
-32768	32767	-26608	-22315	-5461	16984	-3428	-2240	-12300	-841	15491	-6788	-24872	12936	18868	-6921	3359	11457	-8476	2736	17124	1461	20314	-5450	-20460	60	-1348	3860	16675	-9147	-21024	652	1776	6179	-69	-529	120	132	1
-9376	-32768	23380	28289	2044	27557	-25156	-260	11868	-13864	21259	2342	-26156	10312	18256	-13020	3320	18274	-7320	4332	16176	1234	28338	-6566	-23956	-1624	-112	6920	17279	-10646	-23496	4916	3724	8784	-2087	-823	112	130	1
4904	-1280	18668	11650	22018	-905	-32768	-10092	23768	-2933	4879	1137	-3068	7468	-14044	-16625	19181	3948	-9412	6488	16792	-195	32767	-10167	-29116	1720	4272	8172	18909	-10799	-26912	6288	7932	8081	-6576	-2519	104	125	1
-16204	7260	15332	16388	30838	20826	-10188	-3100	-1420	24133	10679	156	-22780	-4996	6656	-11149	5425	-8666	-11860	8304	17480	-1351	32767	-16834	-31804	-1296	6332	10901	19971	-10130	-28480	4324	26336	6014	-26623	-2362	111	125	1
-32768	-6512	17684	5673	10506	13685	-11384	6404	-16524	16861	15499	2200	-28756	-21980	1556	13007	8781	-5452	-19240	11504	18544	-889	32767	-23474	-32768	5872	11624	23747	18957	-10451	-21952	-3840	14636	2603	-19263	-3617	71	115	1
-8268	-2392	16736	14423	-954	14579	-32768	-5732	-8936	9048	16659	394	-23720	15604	-8280	8856	11101	284	-32340	10368	22836	12524	32767	-22806	-28020	12408	-1884	29007	19629	-11329	-25852	10800	-3272	9324	-20442	-20	121	101	1
-12700	-4440	11232	3471	-1236	2124	-15496	7756	-8684	14506	17122	701	-11088	6240	-7608	-6709	11625	9013	-32768	12844	29964	11901	32767	-30666	-24440	12576	-8508	15833	16801	-13749	-24104	11948	-8496	4553	-21450	3742	146	100	1
-9956	-40	13260	1736	444	1029	-10452	4624	-7104	-6842	12665	-726	-7468	-7412	-10908	-890	11097	8896	-12052	16968	27728	19119	29214	-20868	-21836	-2332	-16140	-5832	18121	-14428	-27840	4504	-11020	-6986	-20697	6262	154	102	1
-10780	-7016	10228	1298	892	703	-11104	-6940	-4792	-18450	9255	1494	-13552	-6888	-6944	6050	9613	2755	-32768	32767	32767	15853	12511	-16235	-18512	-12552	-21264	-11099	12915	-9146	-27108	-3452	-8868	-20536	-27423	4878	163	103	1
-11256	-5464	10408	636	1061	1558	-16284	-13492	-5924	-1339	6540	1456	-17972	7564	-5012	3914	12782	-209	-9520	32767	20124	-11017	-15773	-2571	-11856	-11036	-8856	9005	4632	-6270	-23696	-3476	-4456	-13161	-30365	5208	165	131	1
-11316	-4136	11280	137	905	1458	-22580	-2800	-4092	11158	7361	224	-16904	4608	-4072	-9331	14011	3808	5708	11500	10948	-20918	-18529	-4316	-10396	-1632	-5804	23581	-4295	-276	-22488	784	-5460	459	-26084	7643	166	133	1
-10940	-3876	11260	-306	643	643	-16844	5056	-2952	2205	6056	2499	-15652	-4280	-4740	-11340	14830	5146	5364	356	10612	-4065	-16888	2839	-3524	5464	-5780	7160	-9713	7213	-18168	2820	-7820	3720	-21212	8295	172	151	1
-10940	-4560	10696	-334	383	377	-16044	5452	-2664	-261	5969	1958	-14828	-6096	-2584	-6219	14663	3779	1644	10092	10288	9511	-17278	11610	-1976	-1464	-6956	-11607	-11997	9952	-18632	244	-9028	111	-20332	6507	158	158	1
-10708	-5448	10200	-214	135	689	-14600	-7956	-620	-17639	4454	926	-13396	-3444	-1504	-889	16333	5683	-3240	16832	11096	5646	-20693	15881	-4524	-5428	-6452	-15443	-17494	14226	-15332	-1080	-8708	-2923	-19809	4760	136	141	1
-10684	-5456	10252	382	126	1671	-15516	-10172	236	-3982	4151	581	-12868	-1804	-1228	3721	16579	3275	-6992	12096	12428	435	-26673	21307	-3900	-7628	-7388	-10814	-22891	18197	-11088	-1988	-8940	-1789	-17023	4079	135	145	1
-10896	-5392	9680	1160	-660	2323	-14208	-4164	136	3804	6027	2919	-14720	-2904	-120	2906	16224	2596	-8068	7692	12676	1115	-31051	26573	-4696	-5236	-6616	-5318	-27473	20784	-7936	-2492	-9308	147	-12470	2218	140	148	1
-10848	-4384	10432	1979	-1740	2873	-14408	-312	840	2624	6541	1906	-17008	-5468	-3288	2034	12820	2228	-9952	5704	14028	2401	-32768	28906	-6080	-3748	-6924	-8247	-31239	22846	-6168	-2812	-10148	1843	-7042	1437	136	140	1
-10888	-4216	11100	2000	-1628	2621	-15420	-240	904	1573	8308	1010	-18812	-3660	-3788	8797	10032	3760	-15036	3612	17708	4769	-32768	30373	-6968	-4888	-8652	-14000	-32768	25073	-6492	-2640	-10892	1854	-2845	-136	134	139	1
-10540	-3604	11720	1186	-139	2102	-17216	-1428	-2024	2311	8969	1871	-17328	-1744	-2044	7050	10658	5589	-21468	6968	21604	6240	-32768	30198	-10248	-6228	-12252	-19420	-32768	25791	-5744	-2744	-11764	1389	932	159	129	145	1
-10584	-3580	11584	364	1249	2135	-18200	-1612	-1968	1603	8922	1747	-15464	2572	-1808	767	12740	5299	-32648	9384	22908	4241	-32768	31330	-15568	-6152	-10264	-13776	-32768	23335	-4692	-976	-12508	-1911	3728	1403	113	149	1
-10632	-3756	11448	-304	2414	2209	-16360	-576	-1712	-592	8902	1588	-15592	4584	-2444	-884	12552	3350	-32768	10764	20664	1264	-32768	32767	-19576	-4788	-13996	-13475	-32768	21542	-4936	-1456	-11884	-9165	4756	3098	118	160	1
-10532	-3068	11652	-780	3346	2514	-15948	-476	16	-4344	9597	1657	-17532	1528	-356	-2353	11278	1168	-32768	2420	14168	-1290	-32768	32767	-24620	-6560	-12992	-15706	-32768	18855	-7528	-48	-6960	-11058	3348	4739	123	151	1
-10508	-3488	11832	-1883	4288	2646	-15564	-1220	1184	-6544	11296	2379	-17296	-1128	712	-2900	9668	-441	-32768	-8652	5296	456	-32768	28344	-30308	-4956	-14748	-10103	-32768	12579	-19596	3992	5632	-15207	-5588	9847	128	139	1
-11040	-4096	12640	-1535	5840	3320	-15108	-4592	640	-6180	13102	2957	-17236	-3584	112	-6108	7718	811	-32768	-14304	-8704	483	-29356	18525	-17788	-13468	-18868	-1481	-31177	11822	-32768	10828	30528	-14774	-15487	12646	131	226	1
-11640	-5120	12404	-436	9098	2962	-18476	1008	424	-6689	14987	4313	-18732	-4716	-1744	-7410	5618	1988	-32768	-25420	-28308	9398	-24231	211	-7452	-5240	-12808	7356	-14175	8622	-15076	-1192	32767	-2031	19007	5180	130	253	1
-12076	-4820	12328	644	11997	4454	-18088	-2732	644	-5612	16409	4589	-18636	-1004	-1844	-6343	2764	3147	-32768	-26128	-32768	16074	-9230	-8259	-3552	1120	-4464	17478	4494	3587	-21252	-13444	25596	9644	1358	-8683	127	224	1
-11520	-5284	14456	2296	15734	6264	-18044	-2200	-3212	-1126	18089	4662	-18620	-1048	-2308	-5881	2331	3297	7200	14656	-9108	-23893	22997	-26483	-8604	5288	-4212	17180	22045	-10055	-21072	1404	11516	12556	-4166	-7843	130	136	1
-10604	-5584	13604	3193	21430	8783	-20596	144	-4860	180	18983	5656	-18964	-2852	-2912	-5746	-1655	4039	15084	32767	32767	-9624	24765	-2502	-12296	6748	-1612	16692	21926	-10151	-11752	8056	2172	23830	10753	-12	129	93	1
-10676	-6852	14308	4933	29402	13255	-23080	-2096	-1960	-2909	19035	5570	-22632	-4876	164	-3982	-4182	4468	-5236	-9544	3608	-8319	32767	-6754	-16352	-3192	-3036	-20856	9670	2049	-8456	-9528	292	13810	9257	1670	130	81	1
-10708	-8108	15316	5141	32767	20287	-23844	-2180	-1264	-3032	18961	5410	-26852	-2104	12032	-1645	-15971	4340	-32768	-22104	32767	-5714	25618	-13605	-15860	-12584	-4744	-18094	17598	-14300	-29772	15324	5832	-12612	5591	8150	129	44	1
-15200	-12548	13264	2872	32767	27202	-32768	2684	13780	-17145	18751	5408	-25068	8244	13404	-3754	-15318	5162	-31676	32767	-2680	-16448	6	-10584	-31756	2348	-21372	-14077	23177	-12080	-18820	2016	-8688	-7005	5482	731	129	100	1
-25184	-13304	13404	9703	32767	32767	-27108	-4692	8456	-29831	19139	4802	-25892	-236	8896	-9655	-16457	5492	-24336	-18228	25716	-14603	-846	-11584	-16540	-5320	-14388	-13506	14712	-1314	-16200	-5868	-14360	2129	14585	-4459	135	79	1
-32768	-264	17584	42	32767	32767	-24108	-18344	-3464	-20921	22337	5234	-24128	-10180	-72	-9959	-17972	285	-12040	-84	18860	-6739	-3705	-4745	-15160	-1712	-8364	-21103	17643	-4031	-8628	10056	-10292	-4839	12053	-783	141	118	1
-32768	-23028	14804	3712	32767	32767	-25828	-9228	-9820	-4848	20624	5744	-24064	-8612	-11892	1238	-18933	-5257	-10312	4440	13776	-3308	-1957	-2649	-15344	-9432	-9220	-5304	11179	-5211	-17828	1120	-8656	-12473	11908	663	142	89	1
-4	-20332	15520	637	29276	32767	-21772	-1984	-7780	4130	14975	2226	-29648	3112	-7772	7952	-20628	-7581	-9544	3852	14024	-2091	-396	-1871	-18772	-4204	-9052	13236	8364	-1661	-18436	-6120	-5096	-2192	12584	-1373	133	89	1
-32768	-5980	10016	-3908	32767	28322	-21248	-1872	-8552	5341	13754	2136	-24688	6404	-9832	8209	-21282	-7549	-9228	3224	14312	-1092	885	-1330	-21876	-1848	-4668	17731	5947	-880	-18336	-4664	-2912	7588	12974	-819	127	89	1
-26980	-28292	15956	-7301	2693	-8772	-10412	4388	-22700	1079	2094	1007	-23276	6740	-9652	7594	-21525	-7699	-9192	3284	13980	-229	1426	-860	-16308	5280	-2820	10686	5160	-1883	-15912	576	-2340	13005	14019	-2234	127	101	1
-14884	-24080	13656	8077	-19439	-23296	-7596	5720	-8196	-14710	-4032	-5473	-19752	2652	-7936	-6766	-21379	-8178	-9320	3580	13668	305	1667	-677	-14184	6080	-3272	-3755	6223	-1631	-15300	4628	-3040	11059	14272	-3916	131	117	1
-6716	-7156	10372	11016	-28088	-23459	-7092	3792	-7316	-16728	-5192	-6267	-17156	-648	-9384	-8199	-18352	-8476	-9504	3972	13412	398	1730	-477	-17736	2368	-3920	-10303	5300	-1531	-14728	5324	-3032	6916	15233	-3699	124	113	1
-4256	1940	9128	-4217	-30064	-25214	-4448	-7160	-7648	994	-16405	-9373	-15972	796	-9688	-6410	-16660	-8921	-9292	3936	13376	261	1598	-439	-17460	-1116	-3692	-5816	3522	-2020	-14624	3280	-3200	4713	15729	-4026	127	112	1
-8648	-3444	8304	-16340	-31564	-27129	-3176	-2040	-9764	17707	-21229	-12218	-15792	1016	-9772	-6017	-16388	-8930	-9208	4088	13308	129	1373	-763	-15436	-2268	-1836	6285	3182	-1280	-15324	3716	-1604	1865	15648	-3960	129	116	1
-10036	-9352	9576	-13647	-32768	-29718	-5232	3520	-9184	22623	-25545	-12640	-9568	2732	-10316	-3273	-14718	-7309	-9400	4108	13032	-69	872	-1111	-15524	3060	-1276	13683	4408	-1027	-14532	4944	156	-1000	15263	-4053	132	120	1
-9324	-6836	10324	-5955	-32768	-31464	-6048	4872	-9164	19154	-31518	-13148	-7856	2568	-11456	-5298	-11756	-6890	-9168	4240	13224	-215	541	-1347	-16744	7476	200	6982	5140	-1580	-14968	5212	1344	-5411	16234	-3329	138	119	1
-12224	-2500	11636	-6119	-32768	-32768	-5976	4888	-9328	17953	-32363	-13294	-5436	1248	-12464	-6919	-7072	-6280	-9308	3704	13280	-437	721	-1605	-15892	5540	-304	-4630	6184	-2640	-17000	4592	-544	-3874	14741	-3316	133	121	1
-17756	-5292	14104	-7904	-32768	-32768	-8632	2008	-12180	9643	-32768	-9342	-4688	1580	-13056	-3308	-2294	-4742	-9484	3564	13260	-447	753	-1631	-15360	-152	-848	-7601	7088	-3250	-16512	1500	-2396	-3032	13300	-925	127	124	1
-27732	-12220	16820	-4544	-32768	-32768	-11316	804	-15736	9529	-32768	-9395	-5268	1736	-11652	4832	-298	-3628	-8036	2940	13440	-200	960	-2344	-16792	-1124	-2600	-1594	7577	-2786	-16836	-204	-2596	-3207	12027	-1805	128	125	1
-32768	-3532	16156	-460	-32768	-32768	-14772	1296	-9556	13481	-32768	-10134	-4320	2712	-11428	14381	1644	-1932	-9232	4588	13852	312	1076	-2213	-17612	-24	-3676	3696	7659	-1977	-16892	2300	-2528	-446	12078	-1785	125	127	1
-32768	2360	11272	-6676	-32768	-32768	-19888	-468	-13244	21464	-32768	-7206	-1948	560	-6376	18709	3232	-3238	-9276	4420	13740	1972	1788	-4146	-18424	4392	-1644	5311	7961	-1929	-16824	780	-612	2142	11756	-476	122	129	1
-32768	5992	5200	-7876	-32768	-32768	-27488	2168	-15020	14782	-32768	-1613	-9812	-136	960	24495	-1873	-7553	-8584	1860	14880	-72	3970	-3584	-16416	2680	2680	5378	8767	-2777	-17148	164	4180	3253	10187	985	133	128	1
-32768	22496	100	-4738	-23506	-32768	-27532	-916	-7960	4362	-32768	1766	-32768	-13488	17780	24042	-32117	-13074	-9600	2748	14480	-70	6293	-3458	-15332	1720	4504	8366	11615	-5986	-19268	1392	5580	7054	7798	1000	95	127	1
-32768	23984	-21584	-3014	-19153	-23835	-11212	-580	-12672	-8134	-21489	7212	-27980	588	16200	7862	2079	-12127	-9880	2776	14948	527	9868	-3572	-18388	5300	2008	3867	14638	-7134	-19784	2008	5152	7613	7478	637	2	127	1
-32768	24488	-32768	1949	-21311	12696	192	8500	-11940	-10508	-10275	-1941	-9996	3780	28476	2664	15682	4145	-10060	3412	15032	1689	14695	-4615	-21080	2256	520	3271	16552	-8200	-19708	6316	748	9473	3067	-1325	39	128	1
-32768	32767	-31960	-24904	-8679	10421	12	-932	-7860	-7401	12373	-8230	-7772	5068	28708	2733	13742	5716	-8096	3500	15808	965	20626	-5126	-20096	392	328	7040	16863	-8746	-21500	2632	2704	7714	-773	14	121	130	1
4312	-18948	836	27046	8539	32767	-22964	-1872	2488	-20191	20986	1383	-22836	14436	3428	-8182	9155	17882	-8084	4936	15648	763	27906	-7551	-22772	952	292	9315	18090	-10515	-22048	3760	5208	10464	-3775	-747	105	128	1
11828	-18472	29836	16202	18897	7257	-32768	-11332	23352	-12300	9065	3102	2324	2088	-21164	-23061	15676	2385	-10096	6280	17320	-939	32767	-11488	-29240	2056	3872	9113	20000	-10394	-26392	7024	8688	9589	-8127	-2114	86	124	1
-3696	7856	10044	17904	32397	19606	-16756	-7224	-4296	27744	12541	-1919	-19648	-516	7808	-11443	3294	-6743	-12288	8028	17588	-1974	32767	-17890	-30356	1796	5144	9398	20374	-10490	-29208	4688	20876	6504	-24643	-1907	92	117	1
-30448	15340	18648	4691	16294	19666	-6736	12192	-9864	32501	18223	3971	-27992	-20776	732	11112	11175	-9225	-19100	10872	17528	69	32767	-23988	-32768	7640	12892	24169	19382	-9496	-24556	-5228	15264	765	-19357	-4142	75	113	1
-16056	-20484	5848	17114	-2594	16280	-32768	-5392	-16092	5509	20780	340	-26048	13448	-10856	7004	8837	413	-32768	10932	23212	14388	32767	-24267	-28328	12140	-2176	28378	20841	-10371	-26416	8740	-2156	9222	-21540	-56	107	105	1
-9756	4320	11644	3810	-1279	3966	-16172	6736	-14612	15882	19166	-787	-14904	4712	-9496	-5186	10966	6612	-32768	13316	30436	18290	32767	-30602	-24688	10048	-12416	16790	17514	-11000	-25384	11316	-8516	6411	-21719	3638	158	100	1
-9948	2004	14552	2505	-1921	2201	-13148	3536	-8716	-2758	14379	-2121	-5720	-6428	-11348	-721	10191	9037	-10984	14860	29256	25492	24906	-20518	-22872	-2200	-14288	115	18891	-13095	-30080	4204	-11980	-2063	-20416	6313	156	104	1
-10864	-4936	11604	1721	-499	1407	-12848	-5868	-7192	-15147	10507	2399	-13928	-7008	-8992	6706	9583	2631	-32768	32767	32767	20287	1474	-17955	-18192	-11992	-24784	-7972	12945	-7820	-28188	-3204	-9556	-16758	-27522	5146	166	100	1
-10992	-4672	11008	1104	225	1968	-11604	-10092	-6560	-4333	7803	1603	-17644	4816	-5684	6048	12037	-881	-6176	32767	17904	-11270	-23647	-6347	-11020	-10084	-7796	14260	2945	-4022	-24908	-4752	-4728	-10786	-29731	6865	170	139	1
-11048	-3772	11528	437	519	1450	-24600	-1960	-4612	4863	8281	-1563	-17384	5172	-4140	-6209	12582	2620	6308	10352	9924	-19269	-23198	-6083	-10276	-1116	-5324	23558	-4672	2471	-23232	580	-6384	2059	-24860	9716	166	143	1
-10704	-3564	11564	-187	1019	568	-19272	1592	-3776	767	6393	3757	-17212	-1300	-4308	-9906	13345	5758	7804	984	8384	992	-18713	5753	-3044	4060	-5076	4896	-10267	9072	-17844	2272	-7800	5174	-20871	9406	172	146	1
-10840	-4156	10888	-173	1098	347	-14180	2580	-2480	-8689	4857	620	-14680	-4888	-2964	-7030	14410	5333	4116	12112	7720	12422	-15268	15622	-2284	-2316	-5196	-10868	-13099	11683	-18188	-400	-10164	1038	-19776	8360	154	160	1
-10712	-4692	10396	27	943	664	-13412	-6016	-364	-10955	4551	665	-14332	-3136	-1780	-1245	15456	6157	-4424	16812	10784	7652	-16514	22007	-3956	-6036	-5796	-14559	-18760	16491	-13448	-1640	-9344	-1405	-17977	5525	141	146	1
-10456	-4964	10184	593	260	1531	-15060	-7764	-584	-1157	5343	1056	-12248	-976	-1252	2846	15703	4275	-8376	12304	13604	1632	-23053	28759	-2888	-7212	-7076	-11671	-23637	19703	-9220	-2328	-9460	-662	-15174	4526	138	141	1
-10216	-4880	10108	1532	-758	2591	-14872	-2980	-736	1969	6128	1793	-14132	-1568	-584	3966	16250	2857	-9516	6384	14780	38	-28437	32305	-5024	-4788	-6060	-8066	-27815	22376	-7816	-1848	-9460	234	-11167	3324	137	127	1
-10368	-3852	10216	2613	-1619	3163	-13776	-1332	-948	-229	6908	1501	-15396	-5404	-1124	3612	16508	2998	-12460	2716	17252	1329	-32180	32429	-6400	-3508	-7288	-13111	-32071	24672	-5776	-1860	-10192	1485	-6662	2045	133	147	1
-10584	-2572	11496	2125	-1028	2535	-15672	-1168	-736	1977	7828	804	-17408	-3156	-6152	4663	13843	3402	-17440	944	21128	4889	-32768	31542	-8032	-5328	-10344	-20200	-32768	25579	-4544	-1356	-11152	1603	-1615	36	138	141	1
-10312	-4160	11472	1745	-353	2639	-16008	-1052	-1628	2263	7974	906	-17616	-392	-5124	6575	11273	4246	-25624	4064	23616	7975	-32768	29499	-12620	-6900	-11928	-23553	-32768	24259	-6760	-1252	-11768	-5382	1785	1167	124	139	1
-10552	-3540	11016	1998	136	2990	-16616	-3704	-3588	5394	7966	982	-15412	-44	-2268	3419	11842	4425	-32768	10160	21860	6578	-32768	28964	-17176	-8852	-12480	-20164	-32768	20538	-4132	-2720	-13376	-8640	2245	1458	126	150	1
-10496	-3064	11920	1352	793	3010	-15784	-1460	-1800	5371	8424	1001	-16220	2420	-1568	2513	12666	3165	-32768	11408	17712	427	-32768	32767	-21200	-9168	-13428	-10677	-32768	19724	-5508	-4180	-11008	-12689	4381	1386	117	164	1
-11152	-3100	11756	1597	2063	3446	-16692	812	-112	-182	9684	1206	-17948	2768	1092	-1488	12333	1200	-32768	868	10320	-4964	-32768	32767	-26036	-6996	-12624	-7783	-32768	16458	-11912	3116	-2840	-14196	850	5233	120	152	1
-10476	-3068	12108	489	3405	4056	-16100	-76	1808	-7160	10595	976	-17620	260	2260	-3213	10437	-375	-32768	-10248	1816	-2495	-32130	28874	-29676	-3780	-12316	-1332	-32768	15035	-25036	2708	13420	-18359	-9134	11013	126	127	1
-10920	-3996	12996	-14	5172	4501	-15160	-3416	964	-8525	12567	1903	-18112	-3496	152	-6647	8127	-39	-32768	-15696	-16320	-442	-26088	14233	-13100	-6436	-15268	-7237	-22534	14838	-25160	9376	31836	-12909	733	10874	129	253	1
-12032	-3916	13012	1188	8350	4261	-19128	56	-1524	-7595	15302	2904	-19360	-4532	-2408	-7627	5380	1442	-32768	-27372	-30880	10946	-16474	3038	-7228	-2940	-8248	-5370	-8436	5533	-18384	-6944	32767	-5955	12507	-1034	125	253	1
-11384	-1924	14328	1276	12335	4931	-18916	-1964	-1600	-6713	16205	3652	-18592	-1596	-2972	-6522	3005	3095	-32768	-6640	-32768	-8105	13493	-11308	-7468	-4400	-3428	11651	8749	-1586	-20096	-9124	20068	8549	-1112	-9124	126	203	1
-10600	-2912	14708	1817	17040	5604	-18880	996	-3016	-4976	17638	4559	-18640	-1648	-4156	-4897	284	3603	-29860	14660	28756	-5377	25389	-6969	-14084	5264	9556	24990	19876	-6603	-24984	1688	11204	13061	-1382	-4827	126	123	1
-10412	-4548	14964	3626	22726	8148	-20904	-1708	-3352	-4804	18237	5174	-20980	-3792	-2084	-4713	-1379	4644	-11520	-1504	3864	-3751	27884	-10354	-32768	9696	15340	11615	9390	3529	-7660	-2712	2884	22850	11595	2051	131	96	1
-11752	-8196	14616	5978	30258	12536	-25680	-2732	-852	-3197	18421	5062	-25076	-3484	1316	-3224	-5456	4476	-32768	-4872	32767	-5635	26007	-13003	-5576	3264	1764	-11817	13962	-4198	-21252	-1100	7068	12507	3769	2484	130	76	1
-11824	-6712	16844	5414	32767	20802	-29356	-320	3572	-4874	18795	4735	-29160	-2352	13356	-1270	-17121	3853	-32768	15076	8948	-13842	-350	-12423	-6660	-1752	3500	-14783	14956	-7645	-24172	17532	-9996	-1303	7229	7777	130	64	1
-15092	-11376	15564	3294	32767	29274	-32768	3588	12268	-18270	17575	4792	-27140	5864	10188	-3942	-17589	4344	-18880	-6260	20176	-10521	2602	-8924	-21476	-8452	-17800	-13588	19214	-6671	-10152	-4496	-8932	-1291	7319	4580	131	102	1
-32768	-7596	14256	6600	32767	32767	-24704	-1672	816	-30775	16950	4397	-24164	3412	6720	-10545	-17546	5481	-12636	4456	15604	-7754	-763	-5351	-11284	-3600	-8180	-2543	16334	-2120	-10040	312	-12900	441	10417	-3410	132	76	1
-32768	-18656	15608	-1613	32767	32767	-22068	-14740	-7792	-24405	20928	5884	-20908	-8592	-4528	-9924	-16991	-752	-10652	5944	13752	-2909	-874	-2502	-16636	-2188	-8304	-8457	13574	-3892	-14500	9900	-10384	-7793	11172	-4442	138	96	1
-25560	-14240	14924	3288	30674	32767	-24468	-6200	-7452	-11409	16725	2659	-23164	-4364	-9032	-1867	-19443	-6039	-9276	5008	13396	-1430	127	-1674	-16372	-1188	-8808	1335	8750	-4292	-19384	-1124	-6928	-10333	12372	-489	141	73	1
12244	-24968	13224	2019	31583	32767	-19116	-4060	-4876	725	11939	2111	-25848	2760	-7796	4199	-19757	-6462	-9364	3544	14352	-854	1018	-1378	-20892	-2184	-5964	2966	7338	-1474	-18752	-6608	-3060	-37	12828	101	131	82	1
-32768	-13748	18472	-7084	19906	13926	-13028	-1376	-29964	15340	8060	2744	-20792	3344	-8700	5356	-20044	-8103	-9540	3192	14100	-242	1493	-1043	-17976	-1920	-4284	5014	4445	-780	-16380	-4724	-1620	8687	12220	-2080	129	100	1
-21600	-27880	14952	-1273	-8394	-15158	-10224	9056	-13404	-1173	4343	-2006	-21712	2376	-6544	1654	-21210	-8902	-9452	3472	13940	483	1999	-459	-14288	20	-3692	3930	4999	-1076	-16148	-4128	-1216	10188	12316	-2410	131	111	1
-8304	-17544	11252	11203	-21536	-20218	-10152	-208	-6404	-15318	-4178	-3683	-18112	-756	-8240	-4819	-19758	-8753	-9172	4384	13336	1119	2265	-110	-18284	2584	-3628	1643	5211	-76	-15888	3224	-3300	12940	13973	-3309	130	119	1
-2028	-3764	7744	6866	-24001	-20098	-8304	-8452	-9460	-6134	-10807	-6430	-18252	-2712	-10084	-4712	-17672	-10619	-9772	4136	13148	1163	2403	53	-17596	2600	-3576	1659	3540	-97	-15012	3412	-3196	11525	15053	-2736	125	114	1
-5300	-3744	6880	-4995	-23231	-23298	-3372	-7500	-10256	18245	-15381	-6717	-17828	-1556	-10300	-338	-16304	-9988	-9412	4692	12984	1071	2199	-92	-15580	1184	-3252	4658	2993	-296	-14536	4456	-3176	9460	16507	-3678	126	106	1
-10352	-11168	7208	-5252	-27035	-25502	-5572	-1264	-12580	32398	-19252	-9612	-13948	-80	-10220	2650	-15959	-9371	-9612	4896	12832	865	1737	-314	-16308	2672	-3128	8987	2543	-808	-14004	6220	-2240	4126	17657	-3860	124	109	1
-10788	-9036	7560	622	-31510	-28315	-6164	3376	-10392	30729	-25118	-8867	-10816	768	-10612	4123	-15024	-8386	-9344	4976	12816	595	1480	-552	-16816	4780	-1448	7470	3119	-1058	-13736	6432	-1528	2757	17880	-3968	127	118	1
-10444	-2788	7724	-524	-31845	-32612	-5016	5300	-11488	23722	-29802	-7836	-8548	644	-11144	4278	-12817	-6858	-9512	5052	12456	151	1283	-962	-16012	5496	-132	3294	3307	-1098	-16840	7388	-2220	388	13716	-4241	130	119	1
-14156	-2416	8536	-5113	-31204	-32768	-7628	2792	-10936	15110	-32768	-4445	-7196	1680	-11464	4053	-8657	-5676	-9592	4696	12436	-233	607	-1228	-13928	4408	-52	-1267	4438	-2486	-16908	6252	-2892	-2328	10615	-2488	136	119	1
-17960	-5200	10340	-4627	-31873	-32768	-7428	2340	-12528	11098	-32768	-3934	-5956	3764	-11388	3803	-4482	-3702	-9444	4884	12748	-677	88	-1546	-15784	2256	-316	-1618	5933	-3007	-17084	3408	132	-5336	9076	-1921	134	123	1
-21736	-3904	12988	-3072	-31997	-32768	-8724	2148	-13976	6670	-32768	-6420	-5384	3636	-12664	5494	-962	-2786	-9324	4584	12924	-800	-127	-1996	-16488	1268	-1124	-131	6148	-2495	-15916	1668	160	-3971	10405	-2134	120	126	1
-31472	-5532	15024	-4350	-32768	-30489	-13032	-120	-13704	4807	-32768	-6632	-5100	2988	-11140	9806	1486	-2050	-9592	4200	13004	-163	277	-2097	-16696	616	-2056	696	7039	-2933	-17076	2044	-912	-1010	11867	-2829	117	130	1
-32768	-1580	12504	-5903	-32768	-28731	-18948	236	-12824	6187	-32768	-7945	-4724	2924	-4596	12760	1461	-2485	-9468	4364	13020	1378	349	-3221	-17592	2700	-460	1768	7428	-2522	-16612	716	-728	1055	11386	-2795	118	134	1
-32768	5732	5096	-11589	-32768	-27749	-23236	1760	-13752	6507	-32768	-7833	-5536	1708	-3964	14081	3034	-4676	-9284	4648	13296	1200	637	-3549	-15888	3108	344	1662	8560	-2752	-15872	-492	2668	402	10206	124	127	137	1
-32768	15616	2184	-15149	-30284	-25624	-23856	1416	-18788	9564	-32768	-6029	-23464	-2300	15576	20122	-13995	-8909	-9468	4836	14724	-476	2518	-3345	-16296	1480	1548	3495	10227	-4303	-17928	-1688	3440	2863	9382	1524	133	132	1
-32768	30148	-8196	-17749	-18539	-24420	-21244	3764	-6668	-3211	-29128	-1156	-32768	2124	19536	4850	-17349	-14535	-9528	3304	14776	-406	5874	-3209	-18748	920	1396	3888	12000	-5622	-20012	4356	760	6520	7863	-2	51	129	1
-32768	21044	-20880	-7965	-16904	-8572	-8784	7028	-15392	-16252	-16946	-976	-11644	1528	21668	-8272	6852	-6557	-9748	3724	14928	278	9993	-3224	-19908	2724	-40	2965	13505	-6603	-20244	7248	-560	7047	5688	-1351	25	129	1
-32768	32767	-27264	-8209	-13302	14994	-1480	2236	-4296	-24393	624	-2954	-11004	4184	23464	-15406	7243	409	-9412	4276	14940	1419	14963	-4099	-19424	2040	-1300	2615	14495	-7273	-19628	3504	-1056	4620	3276	-1358	77	129	1
-32768	-9652	-25828	7485	4222	16060	-9428	-1788	-6208	-18888	17714	-2148	-20308	8720	10768	-21761	6771	7492	-8940	4500	15576	1091	20485	-5097	-20176	664	-1120	4952	15312	-8042	-20328	2020	1632	5240	250	-907	120	133	1
-20376	-13680	32767	20578	11177	21067	-31188	636	12060	-8647	11997	4671	-18092	2284	-3612	-21158	9756	9214	-9240	5132	14628	1068	27270	-6392	-22264	68	136	6755	16509	-9206	-22148	5088	3948	6988	-2015	-1030	117	132	1
-2076	-1296	5328	9089	27053	-200	-31324	-2832	7960	20495	7969	1158	-11976	-2780	-4728	-18979	13610	492	-9832	5952	15892	1335	32767	-8945	-27216	1800	3908	8362	18119	-9838	-25696	5864	7872	6563	-6454	-2317	106	125	1
-32768	14748	28660	6222	23023	18209	-13844	1168	968	25884	12954	-299	-26884	-9752	3988	5227	354	-2939	-11472	7672	17596	1510	32767	-13005	-31604	2376	7352	12219	18739	-10260	-27100	6696	19016	8043	-19934	-1622	106	122	1
-8576	-10016	7368	11170	-5882	8334	-24396	-7940	-9000	11742	20406	758	-23164	-16292	-5264	19344	14045	-2533	-20156	11224	19148	653	32767	-18901	-32768	9920	10992	20311	18115	-10950	-24284	364	10404	3540	-19487	-1488	105	111	1
-13300	10020	14916	5496	-686	5256	-24140	-6000	-15644	28028	17605	5014	-16464	9240	-16016	6589	10007	7993	-31484	10808	20704	9669	32767	-19048	-26304	9488	-24	18803	20173	-10592	-24168	6596	836	5257	-20486	-1286	150	101	1
-11456	-3004	11892	4986	-1804	3176	-12048	9436	-10284	19289	15965	321	-6476	13516	-5120	767	13874	7172	-32768	13600	28568	13669	32767	-25151	-24348	8816	-11656	9060	18917	-11923	-22732	6844	-4668	776	-21497	2384	134	98	1
-10392	-6160	10796	2014	-431	599	-10844	7092	-7208	-13826	10308	-697	-10268	-5336	-11484	-2595	9467	6676	-19424	5084	27724	21636	32767	-18573	-21748	464	-12192	-69	19719	-13042	-25096	6600	-10592	-4641	-22573	5117	140	113	1
-10584	-4564	10884	1239	78	1380	-16528	-3784	-6420	-25027	7770	-650	-16492	-5596	-4632	455	11330	-1314	-32768	11768	13516	28286	19296	-30120	-20456	-7108	-10268	-1088	13122	-6460	-26124	-552	-9504	-11169	-25077	3870	162	117	1
-10768	-4148	11284	404	295	1459	-20980	-9692	-3816	-16824	6377	1211	-19604	8640	-2508	-4671	14767	1231	-20248	32767	23308	1698	-12465	-11087	-11160	-8112	-14712	7507	7283	-7463	-24396	-5080	-4540	-11089	-27527	2350	165	112	1
-10704	-3692	11800	-250	457	689	-18356	-7020	-696	2878	3179	1139	-16608	2968	-2260	-15791	13607	4027	2104	17140	12572	-17695	-22436	-11179	-9472	-4192	-6516	22275	-1664	-1116	-20936	2324	-5160	-745	-23647	6242	164	149	1
-10744	-4484	11212	-323	827	179	-13584	-1744	-1772	10454	6997	230	-15532	-9404	-4560	-9898	13511	5213	6348	1560	9300	-6185	-20073	-5597	-7696	2504	-5908	18562	-7826	5207	-18956	5216	-7456	401	-20638	7276	165	147	1
-10876	-4964	10516	-398	526	-133	-15620	-648	-1396	1267	6568	2784	-14588	-8296	-2656	-527	12945	4833	3720	7012	8268	10109	-17281	4609	-2540	760	-7008	1842	-11181	7518	-18192	2624	-8200	-2153	-19256	5565	155	143	1
-10692	-5568	10204	-52	289	574	-15996	-2696	-1812	-7671	5354	1461	-12448	-2732	-2588	4702	14477	5242	-1328	16668	8616	10106	-16755	12021	-4524	-1800	-6152	-7098	-15380	10789	-16752	56	-8084	-3927	-18101	4736	143	142	1
-10488	-5492	10404	217	197	1304	-15116	-3976	-528	-10862	4509	844	-14072	-384	-1624	4168	16498	3255	-6028	16912	10380	2041	-20277	18850	-5304	-4480	-7228	-9248	-20314	14615	-15468	-1452	-6912	-2950	-18656	4691	137	143	1
-10860	-4432	10576	478	-282	1485	-14728	-5396	-624	-7280	4802	2197	-16780	-2144	-1264	577	14001	2662	-8200	12260	11812	-1774	-24915	24647	-5100	-3744	-6916	-6802	-24226	18407	-9840	-1848	-8076	-850	-13953	4438	127	140	1
-10556	-3992	11136	473	-237	1281	-15820	-3616	-584	1636	6251	1930	-16656	-3552	-4524	348	11011	4157	-10972	8788	13220	-842	-29146	28374	-6456	-2084	-7076	-9401	-27651	20768	-9120	-1904	-8416	318	-10276	2703	127	143	1
-10524	-4100	11116	188	287	1071	-16172	-752	-1348	4740	7911	1656	-16872	-3420	-4712	1258	10708	4282	-13708	7116	15132	272	-32768	29044	-6952	-3576	-9176	-16260	-31258	23383	-7744	-1764	-9304	473	-6562	1558	123	146	1
-10516	-4420	10988	-186	656	1055	-16624	-124	-2896	854	7478	2045	-15372	-656	-3284	4059	10255	3498	-17836	4964	18388	3368	-32768	28590	-9180	-4828	-10432	-20529	-32768	25105	-6960	-1236	-10764	2581	-2042	1405	122	146	1
-10648	-5140	10840	-573	883	1145	-16244	-1604	-3152	-2384	7094	1875	-14184	1560	-2980	-625	12624	3806	-25912	10464	20260	5945	-32768	28348	-13764	-5116	-14308	-21011	-32768	22170	-6164	-1104	-10992	125	1442	2722	122	139	1
-10452	-4808	11172	-312	1223	1916	-15968	-2540	-1220	-4072	6986	1297	-16188	1880	-2888	-1813	11733	3236	-32768	13176	17776	2057	-32768	29638	-17156	-6072	-12244	-17054	-32768	21082	-5800	-988	-11564	-4412	4014	3231	122	136	1
-10040	-4860	11444	-346	1614	2119	-15784	-2624	-444	-3348	8281	2072	-17504	-1736	-1500	-2436	10753	2114	-32768	10264	14556	-2303	-32768	32767	-21340	-6872	-11984	-12833	-32768	20121	-5840	-2864	-7392	-10388	4180	3452	124	132	1
-10784	-4252	11228	-1015	2703	2584	-16332	-1896	308	-3479	9400	2214	-17344	-1528	-588	-2388	9621	600	-32768	-4248	8720	-2722	-32768	32767	-24748	-8428	-13996	-10996	-32768	16443	-11324	2664	-924	-13291	-1799	6020	125	124	1
-11036	-6524	11012	-1116	3412	4159	-15324	-3612	480	-4812	10548	2605	-16116	-2748	-908	-3225	8660	1493	-32768	-12864	1084	3484	-30060	23563	-26120	-5972	-12244	2556	-32768	15389	-28948	1888	13524	-18479	-6903	6389	127	129	1
-10964	-4348	12500	1336	5456	4171	-15624	-2716	-416	-3706	12464	2870	-17156	-4512	-1120	-4293	7182	1435	-32768	-12572	-352	3509	-29642	21499	-14700	-3960	-14548	2144	-19604	14831	-25432	10192	30920	-5027	-499	9893	125	214	1
-11420	-4404	12852	1567	7359	5057	-18072	-1164	-248	-4682	13790	4167	-18964	-188	-1736	-4419	4956	1640	-32768	-26420	-30720	6747	-21583	-3947	-6648	-2120	-7000	4913	-6813	5227	-13820	-3056	32192	673	13083	51	125	230	1
-12412	-4200	13212	2076	11092	5882	-18696	-1220	-2652	-2416	15313	4023	-18960	-1124	-3612	-4458	2400	2950	-25812	-6420	-23560	-3125	-2574	-10049	-4672	-2200	-6176	8039	10431	-1829	-20708	-5584	17048	6418	651	-6879	124	160	1
-11156	-3904	14364	2377	15445	6713	-19312	-32	-4184	-1819	16611	4805	-18468	-1104	-3492	-5287	-60	3326	-19680	-312	26276	-9957	11927	-13910	-16444	2908	3392	14556	18812	-6314	-22300	1376	8236	10463	-694	-6506	126	129	1
-10596	-4784	14244	2688	21199	8590	-20764	136	-4044	-4128	17413	5567	-20932	-2632	-1852	-5703	-1432	3853	3056	9684	-4716	-2616	20777	-7233	-32768	6724	18620	7599	7837	1049	-11532	-1480	1464	15948	12179	-692	127	117	1
-11240	-7136	14164	3637	29772	12448	-24372	-1056	-484	-6052	17775	5636	-24700	-3252	1856	-4990	-5050	4009	-27340	-5416	29724	-4097	32767	-7224	-4700	2696	1852	-9912	10695	-1684	-15416	-10416	3456	8450	6274	368	137	105	1
-10968	-7244	16404	4087	32767	19997	-28752	712	2908	-8741	17955	5126	-27436	-2176	14540	-4333	-18416	4522	-32768	12572	31620	-12091	5907	-19395	-20348	-4532	-15836	-15478	19124	-11523	-25436	16644	2692	-8456	7218	8538	129	67	1
-15076	-12280	14444	3445	32767	25825	-32392	268	12136	-18536	17951	6756	-25276	2888	11044	-3391	-16873	4792	-6876	-544	21492	-13188	1939	-12005	-28976	3956	-9040	-15040	17923	-6656	-15292	-764	-11608	5736	5993	-1920	130	125	1
-27336	-13796	12564	8661	32767	32767	-26076	-6592	8192	-25185	17978	6464	-25024	4	7492	-6862	-16715	5329	-12596	11092	10892	-8645	-1600	-5670	-13244	-2636	-10932	-12131	15742	-2995	-8492	-4072	-11432	3374	12534	-1509	136	103	1
-32768	-12212	15824	-160	32767	32767	-22404	-15868	-3608	-15326	23082	6861	-21812	-8008	-1908	-6823	-18035	-29	-9212	4000	14688	-4379	-1663	-2871	-13708	-5708	-9712	-12479	12658	-4977	-12240	12952	-10196	-3301	12395	-1998	140	138	1
-32212	-18828	13316	6312	32234	32767	-24304	-5820	-8380	-1908	19385	4655	-24024	-4860	-9408	2546	-18987	-5310	-9040	3488	14060	-2890	-1227	-2380	-16272	-5752	-8972	8731	8986	-5087	-17452	2472	-6892	-10065	11176	-724	141	113	1
1600	-17028	15380	-856	28449	32767	-19764	-580	-9640	3857	14775	2370	-26724	4416	-7816	6463	-19507	-5757	-9164	2920	14180	-2113	-672	-2137	-22348	956	-5076	12805	6302	-918	-18396	-6508	-2188	-2960	12536	-580	135	101	1
-32768	-7768	11964	-6000	26745	20939	-15940	1968	-18496	9594	7257	3259	-22428	6372	-9792	5458	-20354	-6915	-9164	2852	14392	-1381	50	-1672	-17052	1496	-1236	7348	5292	-2161	-17668	-5120	-848	5784	11702	-2172	130	101	1
-22388	-26780	14760	-6925	-4520	-9590	-9816	6812	-16908	-4651	4695	-631	-21964	5776	-6424	56	-22296	-7363	-9416	3128	14044	-400	721	-1014	-15068	3128	-1512	-685	6368	-2701	-15744	2060	-60	9412	11642	-3004	131	112	1
-10024	-20828	11752	7199	-18443	-16561	-9172	3984	-6256	-18198	-2426	-4015	-19584	1700	-7476	-6878	-21350	-8212	-9164	3876	13672	-22	1269	-749	-17056	3492	-3088	-6762	6363	-2243	-15968	5348	-1412	7604	11530	-3142	130	120	1
-1112	-6616	8664	8127	-21221	-15733	-8816	-5448	-8560	-16372	-9488	-7193	-18244	-1448	-9128	-7394	-19389	-9493	-9356	4100	13356	-31	1242	-708	-17460	1272	-4360	-7314	5506	-1802	-14712	3920	-3368	6555	12638	-3431	124	118	1
-3556	-1424	8608	-4567	-21083	-18884	-4260	-7940	-7408	6874	-13752	-7689	-17636	344	-9792	-4813	-18709	-9860	-9260	3624	13396	-214	907	-631	-16032	-1844	-4920	-993	4563	-2117	-14496	2288	-4172	6136	13390	-3129	123	117	1
-9188	-9672	9228	-10018	-25363	-21886	-3680	-1380	-11168	22235	-18046	-11945	-14964	1916	-9240	-2937	-17279	-9390	-9284	3744	13348	-195	661	-724	-15720	-1236	-3780	7839	3631	-2060	-14820	2784	-3880	5413	14251	-3866	125	115	1
-8972	-8992	10808	-6408	-30904	-24488	-7180	4364	-9292	23590	-23582	-12406	-11960	2632	-9564	-3648	-16313	-8461	-9296	3660	13408	-117	445	-692	-17024	1544	-3128	10135	3695	-935	-15252	3496	-2792	3918	14170	-4410	128	118	1
-7604	-4420	10732	-6886	-32314	-28970	-7396	6752	-9484	16988	-29809	-12456	-9344	1972	-10420	-5144	-13161	-7018	-9208	3564	13488	96	576	-546	-16936	4040	-2144	4784	3640	-1169	-15052	4068	-1580	-980	15721	-5371	133	122	1
-11060	-3080	12104	-10365	-31345	-32768	-7444	4584	-10416	9053	-32768	-11032	-6644	1732	-10860	-5473	-8741	-5367	-9156	3916	13192	124	761	-543	-16324	3820	-1072	-1819	3858	-2396	-14564	3768	-208	-6757	17714	-3670	136	124	1
-16480	-4900	14024	-11017	-32273	-32768	-7060	2804	-11236	6778	-32768	-10112	-5452	2872	-11700	-4907	-3926	-3084	-8424	3964	12780	-17	872	-771	-16412	1796	28	-3725	4552	-2527	-15552	1420	-320	-5453	16512	-3196	137	128	1
-21652	-7308	16656	-8168	-32768	-32768	-8228	1380	-13580	6855	-32768	-11345	-5180	2128	-11632	-1028	-1335	-2620	-9052	4092	13228	-306	742	-1281	-16552	1728	92	-3540	4387	-2711	-17836	1692	-1596	-3164	13300	-2026	126	124	1
-30896	-7060	17552	-3128	-32768	-32768	-12864	844	-11476	8979	-32768	-12372	-3960	260	-12156	6652	899	-2103	-8484	3944	13592	-303	903	-1719	-15824	2968	280	337	7066	-2662	-19836	3920	108	-3589	10245	-2592	119	124	1
-32768	-900	15436	-4327	-32768	-32768	-18688	-2512	-12812	18196	-32768	-9234	-3388	1296	-8004	16011	2872	-2536	-9224	3472	13820	-91	1452	-2173	-18124	2868	-1284	-200	7817	-3015	-18640	4140	792	-1707	9901	-1872	118	126	1
-32768	5736	7532	-6218	-32768	-32768	-23872	3364	-17376	23582	-32768	-4220	-4656	568	-5652	21606	3072	-5002	-9396	3752	13488	717	1817	-2828	-17084	2680	-240	1994	8552	-3636	-16284	736	2236	2098	9282	-341	130	128	1
-32768	16420	3832	-6904	-28380	-32768	-29056	264	-16232	16649	-32768	716	-27216	-7352	15584	28030	-20419	-8842	-9280	4632	13892	464	2735	-4478	-15508	5048	2252	6464	9701	-4250	-16020	-1756	4528	6646	8536	738	128	131	1
-32768	26620	-11036	-4912	-17384	-30737	-20004	4344	-7736	829	-28660	3628	-32768	-11248	19356	10984	-15969	-17423	-8796	1384	15576	-495	5591	-4135	-16976	1796	1660	7915	12112	-6315	-20800	5108	1968	8204	7717	733	26	125	1
-32768	8856	-31520	7202	-16875	-9620	-8528	8136	-19144	-6694	-16109	3764	-13488	1608	20172	4562	16175	-4860	-9776	3200	14864	319	9594	-4962	-20304	1204	1440	7840	14470	-8397	-20680	6188	236	10746	3847	-265	7	122	1
-32768	32767	-32508	-4769	-13313	17040	4480	-1976	-1620	-11286	1268	-5611	-10628	6940	29028	3266	8504	6966	-9596	2644	15472	1467	14922	-5084	-19432	2060	492	4416	15600	-8668	-20660	2464	572	7329	-691	-2281	81	123	1
-26212	-27084	-13876	3486	4686	-2364	-7024	4456	-14644	-6465	17774	-5494	-24312	15616	11196	-1597	8293	15063	-8104	3680	16528	986	21120	-5237	-20996	-168	568	5076	16410	-10921	-20468	3168	3628	7803	-3210	-942	111	124	1
-15216	-20532	32767	16263	10413	14600	-32768	1784	13300	-7843	13497	7358	6220	8288	-23972	-20839	14174	10375	-7436	5348	16604	228	29665	-7851	-25076	436	980	6244	18358	-11009	-23912	5376	5360	8356	-5693	-1898	106	123	1
-192	-3852	-1200	10570	29030	2796	-32768	-8580	5604	19759	5344	-2618	-11584	10808	240	-16111	10473	-1866	-10860	7540	16624	-1878	32767	-13421	-30676	-1244	4664	8286	19783	-10659	-27228	4324	14256	7212	-17245	-2103	91	120	1
-32768	13568	28072	8189	26768	18456	-7836	7556	1440	25063	11224	-3466	-31140	-11904	4008	-16135	9329	-6454	-12868	8736	17984	-2172	32767	-20628	-32768	3076	7840	17606	19770	-10011	-24404	-1248	14892	487	-20646	-1855	98	116	1
-32768	-6468	6036	12246	-3955	14564	-25248	-6896	-14384	2955	20799	231	-32768	-7248	-7516	6313	10031	-6871	-24728	11556	21600	328	32767	-27100	-32208	9968	8072	25042	19396	-10337	-27476	4228	4872	6019	-19214	-3340	63	110	1
-16376	9724	20404	5259	1535	6576	-30812	10604	-12940	11635	14634	2331	-21020	11848	-7044	-4080	10339	2029	-32768	16360	27212	11679	32767	-30353	-26536	11600	-8384	22999	18450	-10688	-25140	9020	-3004	9216	-21754	541	139	99	1
-10328	-2224	13576	2653	887	2301	-13996	13308	-5860	-8629	12499	-1779	-6900	2804	-7840	-8326	8682	10001	-32768	17516	28820	15961	32767	-29733	-21524	6948	-11440	9561	18026	-12909	-23996	7288	-11348	6338	-20246	4502	153	112	1
-11436	-8360	9028	212	1693	-378	-9876	-3340	-6492	-26080	10712	1909	-9520	-12432	-9432	-935	7551	8343	6844	24172	21556	17549	23040	-24143	-20076	-5900	-15536	-772	16120	-10694	-28360	1512	-10464	-8045	-19719	7166	157	108	1
-11024	-6360	10296	246	1625	776	-8132	-7180	-6996	-26395	10064	2714	-14484	-5388	-8636	8028	9918	117	-32768	32767	32767	12137	-2506	-11182	-13264	-10884	-22912	-6553	8931	-5691	-25616	-3608	-6972	-13982	-26568	7402	163	104	1
-11104	-4760	11032	444	1088	1495	-22272	-11016	-6804	23878	8638	-1706	-18076	6720	-5664	2920	12201	2284	-572	31840	13212	-8854	-18634	-458	-8852	-6264	-6384	18067	853	-2100	-22892	-1052	-5580	-5425	-27628	9242	159	140	1
-11124	-4440	11252	-110	904	924	-22784	4308	-5616	20867	7021	4676	-16112	1720	-5316	-4763	13152	6148	4884	9992	8092	-14363	-16490	-472	-8492	2344	-4616	21075	-4649	3977	-18368	1700	-6404	4209	-22710	10357	161	145	1
-10808	-4208	11096	-708	545	-32	-13664	11360	-4476	-6153	4675	2274	-16192	-4124	-5636	-2615	13216	4765	4224	3808	8376	836	-13892	10085	-2280	4256	-5660	-117	-9011	9553	-16508	2856	-8588	3457	-19884	9521	167	171	1
-10688	-5084	10264	-950	716	-123	-14160	2672	-3128	-28593	2941	453	-14560	-1504	-3716	-2451	15355	4997	352	12820	9088	9210	-14095	18418	-2396	-1712	-6328	-15561	-11033	12048	-16036	768	-8588	288	-17921	7815	149	176	1
-10808	-5124	10060	-895	919	464	-16888	-11080	-1864	-23154	2114	-499	-12712	-24	-1872	-2460	16976	6034	-5432	16328	10880	4097	-18329	22161	-5020	-5000	-6732	-17722	-16530	16081	-15532	-2172	-7920	-2073	-18069	6918	140	156	1
-10620	-5364	10216	-568	539	899	-15228	-10900	1484	1372	3049	1359	-14568	-456	56	862	18326	4625	-8616	11036	12688	359	-24824	26409	-4564	-6128	-7252	-12483	-21225	20732	-9692	-2160	-8152	-1869	-13901	5262	132	152	1
-10644	-5740	9960	160	-207	1512	-14068	-3476	640	10850	5258	3428	-14424	-2516	1076	3775	16439	2500	-9956	5956	13976	2406	-29877	30590	-5768	-4992	-7180	-10567	-25344	22514	-9804	-640	-8636	-1124	-8853	2819	134	143	1
-10660	-4668	10068	737	-1180	1870	-13804	3956	1272	4068	6241	1029	-18748	-3648	-2636	1838	11298	2375	-11476	2868	16036	5394	-32581	31220	-7248	-5232	-8212	-13414	-29864	24738	-9268	-1316	-8368	-204	-4940	887	135	136	1
-11040	-4584	10560	787	-815	1824	-16144	896	284	-5167	6979	1143	-18736	-4248	-2296	7954	10962	2350	-17148	220	19748	9624	-32768	29676	-9344	-6860	-9288	-16476	-32768	25615	-7000	-964	-10100	-3183	-1744	475	133	136	1
-10808	-5152	10900	289	37	1592	-17528	-4296	-864	-3804	7543	1408	-17084	-2612	-2752	6348	11416	4312	-25436	3376	21332	12599	-32768	27335	-13432	-6152	-9736	-16651	-32768	23723	-7196	-1500	-11000	-5334	598	1818	131	138	1
-10872	-4368	11100	-93	1052	1612	-16840	-4464	-1072	2928	7949	2142	-16192	552	-2324	781	11820	5525	-32696	8736	20724	8496	-32768	27669	-16512	-10524	-12092	-11085	-32768	23514	-5184	-3244	-12292	-6329	2956	2983	126	147	1
-10660	-4996	10848	-171	1680	1682	-15724	-736	696	3284	9201	2101	-16264	2188	-1024	-812	10481	4468	-32768	6408	18724	2621	-32768	31992	-19444	-6896	-12464	-4641	-32768	21673	-6404	-2656	-6712	-9757	4769	3269	123	150	1
-10884	-4444	11100	-283	2055	2094	-15132	-472	1016	-1989	10415	2302	-16748	1148	800	-196	9818	1592	-32768	-3212	14236	1851	-32768	32077	-25576	-7236	-11016	-4437	-32768	20217	-11044	612	-1308	-6475	1723	6134	124	146	1
-11208	-4384	11196	-809	3230	2160	-15236	-1332	1020	-4345	11771	2964	-17524	112	-196	-1272	8148	239	-32768	-10776	7000	4479	-31091	25120	-25180	-2356	-11536	-394	-32768	18590	-21468	2564	7612	-7413	-3562	9430	129	137	1
-11128	-5828	11156	-2243	4192	3243	-16076	-3420	-220	-4599	13163	3529	-16172	-2288	-1168	-5356	6719	1364	-32768	-14860	-7700	1178	-26432	13690	-16736	-8684	-14184	-8476	-24624	13169	-27720	8372	30352	-2331	-8996	10994	128	204	1
-9228	-5880	14024	506	6802	3686	-17772	-1768	548	-4490	14060	3336	-18792	-2700	-2640	-6463	5562	1738	-32768	-26264	-22592	4610	-17369	1839	-10312	-8208	-8636	-6819	-10326	5644	-14620	2660	32767	-348	13424	4836	127	253	1
-11832	-5560	12284	818	9749	5190	-19092	784	-308	-6638	15269	4665	-18548	-88	-3160	-6118	1920	1886	-32768	-17848	-32144	-4737	2083	-9164	-8136	-8276	-5132	14090	1993	1723	-20960	-7332	23124	7111	2558	-4073	129	204	1
-11900	-4632	13048	988	13760	6317	-17568	-2752	-3728	-1769	16950	4322	-18228	-492	-3452	-4465	-564	2805	20304	-10960	4192	-16429	17311	-16199	-10872	4104	-2472	20990	17594	-7067	-20868	-1680	10224	8567	-2878	-7973	131	155	1
-10824	-4636	14480	2681	18756	8499	-19908	-800	-3684	395	17949	5147	-19436	-3320	-2620	-5636	-2126	3842	-11008	8340	13144	-4077	22469	-8280	-32768	11160	21776	11677	9050	-4520	-21260	116	13460	14085	3814	-5659	129	137	1
-10428	-8004	14188	3550	26289	11300	-23420	-772	-2320	-990	18437	6359	-21676	-5580	-1080	-2955	-5636	4018	-26808	-7332	26672	-5613	27048	-11748	-11312	3592	-136	-15409	13000	-3438	-12864	-5900	6192	13306	3778	277	133	110	1
-10776	-7392	15868	3077	32767	17177	-26768	-1028	-612	-2252	18681	5660	-27004	-5868	10740	571	-17219	4224	-22536	2728	15712	-4612	9843	-13398	-21776	-8764	-9688	-17748	20713	-14616	-22372	16660	-5676	-5478	8147	4509	132	75	1
-15604	-14104	14392	5110	32767	24766	-32768	-704	11088	-12542	17819	7006	-26900	1404	9208	2754	-15147	5094	-13716	12692	10436	-9988	3213	-8615	-19688	1544	-15648	-13348	19154	-11744	-12172	-1292	-14396	-2979	4787	-1598	133	87	1
-24384	-15008	12020	9352	32767	32767	-25624	-5076	6964	-18834	18716	7473	-24792	2548	9184	-1435	-15211	5276	-14040	5652	12784	-7910	-2451	-5112	-10460	-824	-16080	-11271	14883	-4557	-10396	-7308	-10244	-2000	13087	-1459	132	69	1
-28764	-612	16384	2880	32767	32767	-21852	-16244	-332	-14077	21223	6282	-21612	-7660	2484	-5938	-15755	1611	-10240	2880	15248	-4862	-3497	-3484	-18132	-4508	-8952	-11951	11366	-4856	-16300	7020	-11304	1184	12044	-1724	137	73	1
-32768	-19888	13620	8099	32767	32767	-24212	-9196	-8996	-1366	20122	8118	-22220	-11104	-9988	2600	-17046	-4681	-9500	4804	13700	-2499	-2111	-1755	-19084	-5508	-9828	-11349	11941	-4547	-18712	1868	-6252	-3693	12179	-136	144	72	1
-11372	-14936	17876	6577	27257	32767	-21872	-1932	-4060	2734	16915	4396	-25856	1028	-7512	8977	-18049	-6499	-9996	5392	13896	-2032	-989	-1253	-18208	-3492	-4900	12053	5761	-1167	-17992	-3028	-764	1604	12756	-1116	142	76	1
-6604	-6500	6920	2779	32767	32767	-14916	-3692	-14232	10374	8086	3292	-25304	4008	-8656	10266	-19730	-6516	-8896	3772	13608	-764	183	-874	-16692	-1672	-4168	18890	4000	-1919	-16520	-2168	-2064	8444	12161	-3218	131	91	1
-32768	-21944	17480	-6641	2003	-4994	-11336	-112	-24100	7885	4953	4079	-21468	4668	-6880	7411	-21825	-7134	-8968	3880	13588	-190	725	-827	-18360	6032	-1864	11097	4052	-2632	-15820	1236	-1496	11183	11812	-3664	132	114	1
-14824	-25820	14212	6980	-22197	-18981	-10224	7144	-6268	-8999	-546	-998	-20812	2432	-6140	308	-21400	-7777	-8248	5016	12852	-26	1092	-962	-15292	7864	-2776	-4559	4279	-1605	-15468	4864	-3020	10337	12754	-3588	130	121	1
-2596	-9376	9656	11597	-29189	-17178	-9396	-1744	-8072	-16497	-8411	-3834	-18792	-624	-8592	-4234	-19038	-7753	-9656	5680	12780	-630	1406	-1367	-17180	4200	-2560	-13976	4498	-2073	-15468	5416	-3448	5673	13290	-3303	127	114	1
1060	668	7424	-1382	-27332	-17376	-6664	-6216	-7808	-4657	-14040	-5421	-18216	536	-9992	-4142	-18729	-7883	-9840	4952	12748	-283	1481	-1501	-18324	-68	-2888	-10813	3511	-2390	-15836	3512	-2852	3780	13857	-4883	126	109	1
-5308	-6516	7364	-11311	-27424	-19224	-2208	-4356	-9856	16640	-19366	-8268	-13860	3088	-10240	-2520	-15917	-6960	-10040	5988	13588	-594	1332	-1465	-16040	-1912	-2092	3306	3152	-2252	-16192	4576	-236	2687	13474	-4373	127	112	1
-8304	-10976	8780	-7842	-31673	-19834	-4716	3028	-10704	21800	-24588	-11424	-10992	2976	-10508	-2841	-14063	-6959	-9564	4948	12688	-412	635	-2265	-16004	2900	-716	11886	3198	-1256	-14352	4776	1228	3256	13958	-3627	133	125	1
-7528	-6068	9812	-6590	-32768	-23448	-5256	5364	-9212	14943	-30978	-11380	-8568	2240	-11748	-5361	-11538	-6740	-9740	4516	13100	-667	166	-2341	-15736	7772	-800	5153	4536	-1857	-14512	4576	2368	544	14366	-4079	133	127	1
-11228	-5756	11068	-10404	-32768	-29171	-7220	3364	-12516	7868	-32768	-10375	-7304	808	-12152	-6461	-7032	-5965	-10112	5200	12824	-1150	-423	-2236	-14748	5216	-1096	-4192	5128	-3536	-16592	6180	-3960	488	13125	-3674	137	126	1
-19552	-12032	12200	-9568	-32768	-32524	-8964	324	-15260	6467	-32768	-9733	-7016	752	-12044	-3075	-3194	-4635	-9728	4336	12900	-1468	-264	-2421	-16104	464	-1884	-7063	5626	-3796	-15656	2520	-2956	-3979	11110	-1838	135	127	1
-28360	-6900	12020	-3875	-32768	-32768	-9504	1424	-8616	7388	-32768	-11336	-6828	1444	-11516	6798	-2450	-3026	-9704	3168	13396	-577	282	-2503	-18284	-2192	-3048	-3329	5355	-3090	-15484	144	-2300	-4432	12905	-2900	129	129	1
-32768	-316	10444	-8364	-32768	-32768	-11496	-4308	-14320	18125	-32768	-9708	-4216	3208	-12424	13094	-302	-3418	-9868	3872	13488	-119	685	-2487	-17168	-1412	-1484	2598	5532	-2467	-15660	392	-2456	-1390	13814	-4385	126	132	1
-32768	876	9184	-9393	-31055	-32768	-17704	1876	-18420	29081	-32768	-7204	-3156	3720	-6908	17161	788	-2718	-9696	3832	12932	719	1107	-2941	-16588	2956	-608	3066	6227	-2427	-16064	1560	1092	-1078	12861	-2968	120	134	1
-32768	14432	5780	-13062	-26036	-32768	-27484	9812	-18628	14738	-32768	-825	-12892	428	-1112	16178	-5901	-6620	-9928	4620	13292	529	1247	-3267	-14656	5060	1900	1284	7290	-3580	-17064	684	4488	-1133	12187	-422	127	129	1
-32768	18164	-2096	-14400	-24409	-32576	-17984	5012	-13448	-15017	-32768	-3710	-28404	-6744	9624	12385	-16150	-8344	-9632	3932	14008	-526	3200	-2550	-15900	692	3400	1280	10338	-5635	-20392	2156	2788	450	9325	-323	111	130	1
-32768	18152	-15284	-3889	-21372	-17669	-15432	376	-18336	-26154	-24811	-2172	-27400	-2584	22936	1968	-8268	-10521	-9480	3596	14692	-255	5619	-2701	-18456	3088	2424	2944	12331	-6136	-21312	4212	1896	5188	5759	-1805	55	122	1
-32768	30512	-24236	-4989	-17702	1495	-6352	-2528	-11412	-11954	-11849	-5239	-8928	-104	23760	-8628	13023	-327	-9876	4676	14436	-18	9115	-3801	-18796	2016	760	4351	14460	-7018	-19396	2752	1324	7444	3093	-1277	63	125	1
-32768	26856	-24504	-13607	-10157	8345	-3588	-860	-8028	2069	8119	-4078	-16416	4828	18608	-11624	8353	7622	-9504	3744	14668	446	13181	-4612	-18104	1076	-724	6307	15489	-7906	-18876	1992	1536	7471	2746	-1043	99	127	1
28660	-908	-5792	25821	5765	32767	-14788	-2304	1048	-1625	17512	-1383	-30200	7388	32767	-7621	-3111	8781	-9588	3840	15800	878	18234	-5451	-19548	-652	-1292	8743	16696	-8912	-20668	2412	1580	10289	-1608	-682	106	126	1
9684	-24980	30664	11721	11635	5580	-32768	-768	23184	-557	9743	5873	-6732	9128	-13208	-14295	13958	7738	-8832	5568	16480	-491	25584	-6899	-24784	1156	-548	9792	17658	-9386	-22940	5880	1032	9134	-4119	-974	92	124	1
4184	8436	6836	16728	24900	22033	-25552	-5544	-612	16763	11013	-2963	-26728	-3312	7688	-10443	7174	-5964	-10272	5972	16000	-1073	32767	-11848	-28372	1320	3144	8013	18328	-9704	-25424	6632	6936	7578	-10407	-1738	100	118	1
-32768	1584	17168	6299	13451	10549	-10392	10196	-12088	16869	16019	3120	-29044	-19828	2396	8470	6686	-5516	-10380	6124	17696	-1403	32767	-17565	-31612	848	4812	9572	18994	-10349	-29072	9864	15384	5568	-22966	-456	90	112	1
-15052	-5160	14264	9483	3016	8345	-32768	616	-11388	79	18703	2349	-21476	8732	-9268	11162	8527	2285	-18724	12708	17164	2055	32767	-25286	-32768	-2264	13776	23133	17084	-10091	-24392	-7412	10576	-1696	-22636	-5059	105	105	1
-14020	776	12096	3842	1117	3333	-16808	3444	-11356	2020	14368	304	-10684	11592	-11256	-4335	11877	5945	-32768	8968	22272	15468	32767	-24122	-23732	6040	-9152	32767	17713	-8935	-19796	2600	804	3091	-21968	-2952	143	112	1
-11008	-2816	12196	3449	252	2488	-11080	764	-6980	-4072	11357	-323	-7676	-1476	-10108	-6304	8608	6925	-32768	16876	29868	18985	32767	-27805	-20436	16280	-7148	21791	14056	-12526	-21080	8412	-8872	8190	-21557	2477	141	123	1
-12044	-6468	10224	1268	1135	930	-10220	-6988	-8140	-2399	9526	1807	-14996	-9144	-8072	3295	10461	4117	-14680	20760	18840	9766	25791	-29021	-18796	-1180	-15020	1403	16838	-12591	-24828	6252	-8948	-570	-19888	5509	151	110	1
-11324	-4248	11156	185	920	612	-16740	-7188	-6008	8868	7511	417	-18064	4980	-6472	7072	12286	800	-32768	14268	28920	4332	10275	-22533	-19020	-7292	-15460	-3312	12297	-5848	-25396	-1704	-8260	-10823	-25180	4540	157	114	1
-11080	-3720	11408	-953	880	-122	-24216	1604	-4020	6946	6398	729	-16920	3424	-1904	-1110	11472	3533	-9600	32220	18752	-1295	-15578	-3324	-10180	-6680	-10476	5264	6810	-7039	-23460	108	-4936	-9777	-25027	5630	162	126	1
-10460	-4364	11964	-2116	1811	-905	-14916	5820	-1716	-7003	5030	-456	-18736	-360	-1296	-4183	11071	4221	4576	19688	9008	-10890	-18458	-5473	-10796	1088	-5240	16952	-1961	1602	-21252	2076	-5272	-1510	-23616	7910	161	146	1
-10648	-4696	10924	-2633	2712	-1071	-15040	-536	-1784	-18757	5084	136	-15888	-2852	-948	-4573	10580	3859	3808	8328	8840	-3330	-16317	2702	-5404	4952	-6484	4708	-6803	8627	-17780	3196	-6480	3249	-19254	8328	153	154	1
-10824	-5992	10228	-2638	2959	-862	-16764	-8640	-1712	-14220	5234	829	-15016	-3048	-1532	-4639	11059	4602	-484	13516	9640	7041	-16684	14744	-4736	-232	-8532	-11953	-9995	12105	-18980	1096	-7540	3471	-18790	6786	146	166	1
-11072	-6336	9852	-1872	2568	-4	-16516	-7040	-1768	-2653	5751	173	-14040	-1340	-2592	-5645	13094	5192	-5624	19244	10328	3382	-19197	21147	-6384	-1920	-7704	-16932	-14901	14963	-16672	672	-7576	412	-18107	7370	130	141	1
-11096	-6640	9392	-626	1280	1112	-14052	-4120	-2868	76	5608	1768	-13544	-1228	-3388	-4410	16361	3592	-9648	15164	11584	-3332	-24505	25968	-7524	-3328	-8756	-16020	-20145	18674	-12888	776	-7220	-1181	-14537	6233	129	146	1
-11088	-6236	9232	546	-120	2197	-14532	-2684	-2892	-1293	5592	1376	-14100	-3240	-2820	-1515	18540	2586	-10496	8724	12096	-3388	-28773	30240	-8200	-3548	-7544	-17136	-24975	20189	-12400	476	-7112	-1529	-14117	6204	121	146	1
-11072	-5496	10056	641	-386	2591	-15156	-1632	-3212	-1273	5790	523	-16476	-3660	-5824	2916	14484	2186	-12620	-1276	14520	1702	-29483	32767	-7724	-6104	-6072	-16401	-28770	20296	-9456	-192	-8328	-6660	-8611	4111	121	145	1
-11224	-3972	10296	706	557	2453	-15832	-944	-3788	-2480	6073	1046	-15512	-2388	-7748	4060	11046	2097	-15616	-3432	17184	9413	-30366	29772	-10632	-5752	-9156	-18155	-32522	19366	-6956	-384	-8408	-10608	-6297	4527	122	145	1
-11388	-4236	10116	456	624	1688	-15532	-2248	-4048	-1501	6168	1574	-14716	1020	-5140	1421	10508	2262	-22628	-1252	20604	13230	-32768	24753	-12656	-7168	-9712	-15413	-32768	18869	-6092	-1008	-7824	-8133	-4074	4106	127	149	1
-11316	-5480	9880	562	438	1641	-14972	-3832	-2440	1082	5999	1579	-14336	108	-4096	961	10562	2978	-29432	8304	20652	8956	-32768	24377	-14928	-12620	-12764	-4643	-32768	18399	-6100	-896	-8308	-7847	-3350	3938	125	166	1
-10932	-5212	10244	360	672	1554	-14900	-2588	-2216	3575	6854	1593	-16692	-3152	-2520	921	10361	3593	-32516	10588	19764	-350	-32768	27632	-17104	-7664	-12876	6757	-32768	19127	-7624	-3020	-5168	-278	5106	3195	125	176	1
-11188	-4860	10276	-60	1142	1743	-16760	-1112	-1572	-324	7518	2157	-17864	-2216	-2380	199	9922	2149	-32768	5900	15644	-3373	-32768	30633	-20948	-2352	-10648	4075	-32768	20126	-8156	-1028	-2324	302	2590	3505	122	176	1
-11028	-4608	10920	-1288	2049	2215	-16628	-2128	-948	-3475	7872	2038	-17560	-748	-1016	-329	8818	1107	-32768	784	7336	-1183	-32768	27607	-20724	2212	-10176	-7634	-32768	19322	-14204	1996	452	-6211	474	5453	120	150	1
-10828	-7132	11424	-763	3305	2808	-16508	-2208	268	-5740	9356	2482	-17204	-604	1056	-3687	8465	803	-32768	-3932	-3924	1490	-32768	20725	-20052	-436	-8860	-21141	-28687	15034	-22484	3372	13620	-11832	-2229	7143	122	180	1
-11636	-5704	11440	438	5420	3895	-16712	-3468	524	-5469	11048	3324	-18128	0	-76	-5426	6701	67	-32768	-10180	-18008	-45	-23177	17155	-19124	-5720	-10296	-25891	-13827	12168	-23364	5768	28304	-10381	2390	9837	123	253	1
-11864	-5764	11812	1177	7777	4805	-17500	-2168	272	-3265	12901	3811	-19336	-1628	-716	-7117	4558	605	-32768	-18524	-26040	-1948	-4836	14850	-18756	-5796	-13328	-25507	-12643	9673	-15392	2868	26368	-11795	9785	1669	125	253	1
-11300	-5560	12076	1256	10770	6098	-17524	-2512	-1512	-2778	15040	4261	-18720	-3964	-2736	-7432	1723	1680	-32768	-19728	-26860	-2240	5463	7083	-1216	-4392	-8184	5703	9503	-2805	-21424	-1616	18344	-6501	3450	-6034	122	217	1
-13028	-5796	12776	2662	14153	8216	-17864	-1464	-2888	-2035	16400	4385	-17796	-2540	-2896	-6553	-980	2662	-18148	7228	16584	-21537	23212	-2503	-10512	9812	-4608	11960	21659	-6795	-16228	804	23260	-1925	-3124	-7024	132	135	1
-10884	-5888	12440	3037	19715	10582	-18700	884	-4424	-4001	17626	4655	-18552	-3004	-1460	-6240	-3114	3618	14916	5464	26408	-3676	16458	-882	-32768	11964	25312	4434	9310	-2835	-8944	-444	-15332	14547	18421	-2707	132	81	1
-11932	-5088	13152	3683	27406	13942	-22308	-1972	-2424	-6091	18187	4809	-22712	-3860	1472	-5119	-6514	3670	-7524	-820	3944	-4594	32767	-9157	-10168	-9320	-2868	-22974	10878	1513	-20264	-7612	12312	-7389	3928	339	134	42	1
-12984	-7472	13812	3226	32767	20210	-27596	544	428	-5321	18540	4318	-25624	-400	14020	-2735	-17717	3488	-26512	-5696	25584	-3451	28041	-10672	-15024	-12292	-2232	-9111	14380	-12238	-29120	14420	7748	-12738	7842	5774	134	38	1
-14708	-14416	11248	2783	32767	26803	-30028	204	10472	-17205	19002	4236	-23316	9176	12280	-4520	-14077	3893	-32768	21960	10132	-15505	4695	-14186	-32768	192	-19576	-6206	18595	-4237	-28316	-14936	2548	-4898	7601	-1414	130	127	1
-25192	-13376	13456	3284	32767	32767	-25800	-4872	4912	-24519	20854	3282	-24204	8960	12284	-3452	-14653	3866	-17216	-8672	23212	-10460	2420	-9457	-17056	-5072	-8020	-7575	16208	-2368	-16732	-4552	-13220	20522	12405	-1326	137	87	1
-29488	-12420	12772	2393	32767	32767	-25456	-10928	-5936	-18849	23408	2736	-24876	-4812	-552	-12116	-18486	-1746	-11796	1816	17352	-5952	-527	-5216	-14084	-636	-4948	-11458	17512	-4802	-6860	13188	-9156	8118	8902	1482	139	67	1
-32768	-19460	12172	-5684	32767	32767	-24352	-5296	-11216	-9951	20564	2606	-24980	-4036	-12200	-4435	-19108	-5062	-10236	7608	12456	-2981	-490	-2741	-10996	-4360	-10000	3354	9999	-5711	-15288	10368	-9868	-9525	8446	198	141	86	1
-6660	-16692	17044	-9216	27909	32767	-20752	780	-5232	-8367	13537	-2426	-27756	5084	-9040	399	-19850	-8650	-9712	4936	12904	-2606	-193	-2604	-16908	3780	-9132	5184	10017	-2550	-15960	292	-7068	-7674	9745	-2105	134	76	1
-3240	-18584	15240	-9505	27971	32767	-13232	-404	-19396	-955	6316	-2472	-24412	5240	-10220	2442	-20933	-8565	-9820	3672	13724	-2349	330	-2399	-23460	696	-5840	-25	6675	-2272	-18948	-2720	-4952	-1244	10543	-1730	128	78	1
-26912	-26596	15928	-9632	-10560	-10545	-8176	5560	-17292	-9212	3716	-4410	-21976	4516	-7648	-1816	-22358	-9270	-9828	3488	14060	-1584	610	-1875	-16048	-280	-4300	-1793	5522	-2633	-17212	-568	-2688	2797	11265	-2417	125	86	1
-3004	-20004	11008	3659	-21438	-17752	-7368	2080	-3436	-20773	-4264	-7184	-19432	992	-8500	-9368	-20218	-10014	-9652	3496	13936	-432	1349	-1134	-16592	-916	-4048	-1771	4905	-2401	-16048	1376	-2792	5107	11798	-3848	125	93	1
-636	-5764	7708	3383	-20654	-16703	-7848	-9048	-9588	-11527	-9996	-9910	-16332	-1432	-10232	-8419	-17466	-11194	-9668	4128	13328	33	1686	-718	-17952	520	-4320	-1808	3941	-1107	-15804	1172	-3212	5345	12908	-5146	122	112	1
-5384	-3704	8392	-8808	-23031	-21550	-56	-6096	-9528	19059	-13719	-11765	-15780	1988	-10720	-5915	-16273	-11986	-9488	4216	13244	202	1673	-626	-17128	140	-2332	552	2362	-1236	-15224	452	-2252	4840	13667	-3549	128	112	1
-7068	-9864	9260	-10687	-27985	-23070	-4276	556	-9880	28983	-18424	-16334	-13156	2720	-9552	-4811	-13104	-10141	-9548	4304	13136	231	1383	-799	-15956	600	-2620	4818	1903	-1248	-15508	-96	-1124	4460	14446	-2360	129	118	1
-7440	-3828	10952	-11157	-30777	-25995	-7296	4404	-11216	29766	-24790	-15745	-10584	2764	-10352	-6157	-12305	-9520	-9544	4296	12896	97	1193	-935	-15676	752	-148	8817	2720	-1051	-14720	2308	264	5552	14594	-1886	132	116	1
-10556	-1580	11192	-17582	-31660	-30843	-7500	5380	-11896	28571	-25984	-15677	-9316	1240	-9928	-4295	-9307	-7961	-9700	3420	13112	299	1039	-890	-16152	2976	-588	6516	4102	-932	-14956	4200	2732	2252	14789	-3547	135	121	1
-15952	-2396	12744	-19893	-32474	-32264	-8552	5956	-12424	10240	-32768	-12207	-7980	2980	-9200	-1534	-6655	-5740	-9360	4412	13112	250	1046	-946	-16304	3572	204	2208	4376	-2119	-16536	5152	480	-1441	13892	-3680	137	120	1
-20440	1080	14340	-19966	-32288	-32460	-8224	6552	-10524	661	-32768	-13220	-6888	4844	-9720	-23	-5907	-3651	-9432	4080	13012	117	1109	-1316	-15992	1904	-628	-453	5204	-2115	-16692	3252	-3316	279	11727	-2159	135	127	1
-23344	3232	16492	-19422	-31496	-29863	-10460	4252	-14132	-5027	-32768	-14139	-6472	1640	-8452	3961	-6167	-3197	-9872	3944	12812	106	806	-1333	-15848	-200	-1472	1769	5825	-2432	-18172	260	-2616	619	9158	-2019	123	130	1
-28564	9204	19024	-21145	-31542	-23720	-15352	964	-11416	-5996	-32768	-14967	-6868	424	-6480	4012	-7285	-3794	-9840	4056	12872	87	415	-1443	-15440	932	-776	5427	6213	-2406	-15776	1888	88	683	7996	-2333	119	128	1
-31596	15724	19076	-25810	-32768	-13203	-18552	80	-11432	-8558	-32768	-15109	-8792	940	-1144	-181	-6035	-5244	-9700	4052	12932	627	321	-2037	-16152	2716	280	5543	7406	-3020	-15704	2644	3388	1534	9924	-1370	121	130	1
-32768	23160	16372	-31696	-32768	4349	-19104	1844	-14808	-11733	-32768	-16481	-10292	-248	-228	-3475	-2556	-9403	-9752	3988	13028	1247	513	-2678	-16544	3336	2640	4130	8779	-3736	-16212	2224	3512	1678	9964	-1195	120	130	1
-32768	27348	11612	-32768	-32768	15679	-18084	3400	-12376	-13624	-32768	-12986	-17428	-4812	216	-2868	-1425	-11991	-9756	3260	13516	293	1485	-2702	-15388	2576	2820	3110	10748	-4987	-17432	3008	2800	7836	6210	-1194	124	133	1
-32768	26108	3480	-32080	-30458	15407	-18776	10108	-11964	-24395	-28176	-9349	-25732	-2724	8048	-9278	-6987	-9968	-9632	2952	14472	-15	3959	-1989	-16848	608	1272	3108	12929	-6921	-18184	4004	2344	8441	3903	-231	102	137	1
-30268	21892	-6232	-17776	-19496	10413	-17740	4404	-8320	-31346	-17414	-6746	-20716	-1588	23752	-23524	-3428	-6082	-9220	3336	14688	-35	4418	-1960	-19824	3280	276	1612	14086	-8215	-18580	6660	440	7985	1193	-1511	79	140	1
-29076	30976	-10672	-8329	-6430	5736	-12028	-2392	-4520	-26353	-5851	-5637	-19524	-1556	25584	-23589	-1783	-4312	-9736	4808	14668	1793	12995	-2761	-19668	2392	-1972	-122	14819	-9065	-19056	5432	4412	5723	-5454	-2270	78	141	1
-30736	23484	-6664	3109	668	6005	-2364	-10456	-3808	4472	10623	555	-22096	-6460	12172	-10141	7493	4927	-9000	5616	16100	1209	18989	-4569	-21080	1664	-652	2374	15775	-9629	-19640	3164	6684	568	-6561	-2393	79	140	1
