#Activity	walking 
#ActivityID	1 
#Date 08-27-18-10
acc_rf_x	acc_rf_y	acc_rf_z	gyro_rf_x	gyro_rf_y	gyro_rf_z	acc_rs_x	acc_rs_y	acc_rs_z	gyro_rs_x	gyro_rs_y	gyro_rs_z	acc_rt_x	acc_rt_y	acc_rt_z	gyro_rt_x	gyro_rt_y	gyro_rt_z	acc_lf_x	acc_lf_y	acc_lf_z	gyro_lf_x	gyro_lf_y	gyro_lf_z	acc_ls_x	acc_ls_y	acc_ls_z	gyro_ls_x	gyro_ls_y	gyro_ls_z	acc_lt_x	acc_lt_y	acc_lt_z	gyro_lt_x	gyro_lt_y	gyro_lt_z	EMG_r	EMG_l	act
-32768	-19028	18476	-1419	32767	27446	-21616	-5156	-13920	-14002	22572	2281	-21496	1224	-11576	-1436	-1941	-1651	-10088	7536	11544	-41	61	-6	-16888	5232	-5480	1145	813	316	-17040	-1296	320	-1871	2011	599	128	146	1
-5060	-12200	20784	10960	16207	9371	-14704	852	-9940	-3203	17448	6191	-26504	1592	-6360	379	-2625	-1689	-9704	7096	12112	-47	74	-15	-15848	5688	-4848	617	574	372	-14160	-2968	768	-667	1727	440	128	141	1
9544	-21172	17072	3895	-4332	-16043	-17808	-1512	-1220	-4143	6307	10234	-25808	-96	-8320	1778	-3048	-1296	-9968	6536	11776	-23	107	5	-16128	5216	-4888	-92	560	168	-16352	1376	832	325	1527	71	127	136	1
-2480	-8888	13244	9958	-5522	-10309	-9164	-5960	-1336	2661	-1909	2402	-22184	4152	-7456	1767	-2986	-1462	-9192	7200	11648	-80	145	5	-16184	5040	-5080	-170	557	134	-16640	4224	504	542	1587	-109	128	127	1
-6856	-4280	14696	5422	-18173	-12548	-4340	-3260	-6044	11397	-11436	4037	-21880	4904	-7008	1731	-2959	-1500	-9584	7624	11416	-174	164	-9	-16480	4128	-5104	-682	496	3	-16720	3776	1072	678	1731	-26	128	125	1
-2628	-8060	11360	3776	-30854	-14086	-7756	-2788	-3772	14508	-20437	5675	-17464	7584	-4832	1026	-2352	-1173	-9888	7384	11816	-193	145	-42	-15928	1256	-5304	-100	294	115	-16392	1496	1248	883	1943	382	128	138	1
-3372	-8240	8340	5461	-32768	-13322	-12160	2144	-7048	14647	-24299	4825	-16904	6256	-5104	614	-1886	-1122	-9824	6504	12424	-103	123	-38	-16536	712	-4400	1028	159	265	-16336	128	624	1164	1974	717	129	133	1
-6080	-7828	8476	2977	-32768	-18197	-8764	5408	-6728	10119	-31270	2633	-15336	3896	-5712	568	-1592	-1109	-9712	6216	12312	1	139	-7	-15968	3912	-3576	1440	159	334	-15400	240	1480	1455	1983	542	129	132	1
-8068	-10020	7960	1876	-32768	-25247	-8640	4776	-6116	1616	-32768	-585	-14696	3632	-6000	621	-1560	-1081	-9616	6800	11712	70	161	26	-15040	6640	-2736	1096	351	218	-14856	1552	1632	1880	1934	176	128	127	1
-9712	-7564	9248	1971	-32768	-29137	-11768	2556	-6044	-1713	-32768	-3954	-8952	3136	-6672	1681	-1200	-462	-9608	7640	11312	87	142	8	-15192	7128	-2320	509	387	99	-14560	4584	1760	2074	1902	35	127	127	1
-15560	-7268	12028	662	-32768	-30108	-13508	1676	-9172	-2569	-32768	-5393	-6712	3264	-6456	2364	-1061	-67	-9584	7000	11608	79	134	-37	-14984	4368	-2328	367	406	83	-15400	6336	1784	1811	1860	139	127	123	1
-18392	-5916	13264	-1495	-32768	-26801	-15904	2212	-9472	-4786	-32768	-6354	-5592	3696	-5808	2540	-978	168	-9512	7560	11296	97	131	-75	-16096	3616	-2696	732	538	43	-16720	7528	2112	1367	1918	254	127	124	1
-22196	-6220	14232	-4396	-32768	-23259	-17868	2624	-10144	-7069	-32768	-7468	-5864	4560	-3656	2089	-931	234	-9528	7992	11208	67	113	-123	-15744	5528	-2568	910	586	13	-15536	8112	3232	920	2093	429	126	126	1
-23412	-10212	14480	-4594	-32768	-19309	-22048	920	-9784	-7343	-32768	-10546	-7800	6240	-2168	1217	-818	43	-9368	7720	11680	55	127	-171	-15328	5312	-2480	699	667	-19	-14536	6048	4112	773	2209	244	126	131	1
-27600	-11648	15664	-5359	-32768	-20799	-24820	508	-11704	-2019	-32768	-11230	-9256	8328	-104	198	-398	-147	-9592	7392	11624	57	203	-209	-16008	5000	-2792	323	886	-132	-14776	5640	3816	744	2180	177	125	131	1
-26428	-13912	12200	-5702	-31427	-23948	-24800	1164	-12360	-264	-32768	-12374	-12168	9808	3424	-907	-132	-227	-9688	7120	12000	99	316	-234	-16336	3016	-3112	125	1150	-181	-17408	4128	-2128	284	1342	-208	129	130	1
-31452	-14100	9484	-2900	-24663	-24029	-23448	-2312	-13580	2890	-32768	-13460	-15000	7328	5544	-1510	153	-89	-10136	6752	12624	204	476	-279	-17552	3344	-3704	98	1272	-145	-18112	4632	-1808	-104	1079	-14	126	134	1
-32768	-10672	5168	399	-21545	-24571	-21440	-3460	-14556	9714	-32768	-10205	-17168	3872	8312	-2111	511	-25	-9376	7232	13216	362	733	-361	-18384	3360	-3576	252	1492	-147	-18240	3280	3472	-31	1136	100	126	135	1
-32768	-5984	-1552	2355	-16705	-26470	-17616	3460	-14612	15058	-28843	-8474	-17760	-4816	15432	-2183	438	-36	-9600	8200	13248	368	1133	-468	-18840	4216	-3592	345	1740	-184	-18256	400	3936	275	1083	272	127	127	1
-32768	16716	-9236	-7342	-8647	-24308	-16312	6048	-17552	16168	-27190	-7960	-20696	-15872	18800	-1638	285	-478	-10248	10064	14704	381	1584	-594	-17688	4320	-3056	217	2031	-305	-18704	656	1896	637	898	146	127	129	1
-32768	16392	-16628	-2524	-2369	-3284	-4376	-548	-17916	-1738	268	-3422	-21536	-17280	13264	482	-205	-1032	-10888	7944	13976	348	2200	-841	-20016	2656	-4448	89	2305	-351	-19680	4576	656	1237	739	-98	121	131	1
-32768	9780	-11636	-7194	3970	9660	-8172	4536	-18620	-6375	13863	753	-22208	-3832	6776	1442	-449	-961	-10712	8272	13776	389	2850	-1133	-20128	3504	-4000	287	2518	-399	-18920	6240	1400	1146	553	-149	121	130	1
-21700	-19156	-17488	9994	17144	20988	-15124	-2264	-11796	-6345	20738	-2368	-15080	4488	3632	542	-180	-133	-10800	10472	13160	466	3538	-1665	-21304	4464	-3808	536	2686	-312	-19216	4600	3696	775	254	-71	136	129	1
-756	-26596	29372	7961	17286	11319	-29120	-3024	20584	-6486	17809	4572	-14752	6840	1896	-927	333	586	-10120	11840	13600	682	4346	-2287	-24448	5480	-3168	889	2839	-250	-22104	3520	7848	728	-76	37	129	130	1
-22112	4568	16236	4493	32767	15839	-29904	4400	-7540	15625	19002	-5706	-25424	-3320	5120	-23	-432	1012	-10704	15608	14296	1054	5483	-3399	-30792	5616	1976	1525	2915	-137	-27752	5464	12344	754	-1139	156	122	128	1
-19972	1072	18916	2289	20441	11458	-22664	496	-4540	11658	25209	6836	-20576	-22600	-528	3423	116	650	-14240	15104	15480	1352	6579	-4915	-32408	2832	6224	2425	3059	183	-20384	-8744	1400	89	-1470	-364	131	127	1
-24096	-16248	11032	2637	15557	6802	-14844	-7580	-10048	20513	21091	6970	-14824	10632	-11888	4903	303	-748	-32208	10176	13840	2046	7071	-4971	-25008	2160	-6152	2770	3040	546	-23616	-8232	2776	1019	-2423	-755	133	128	1
-13952	-7308	12756	4729	6613	6868	-13636	-1880	-11240	31990	13335	7368	-8648	19776	-10232	2489	667	-1299	-27440	6528	11352	3647	7252	-3453	-26192	3688	-3776	3233	3127	16	-21160	2456	-7672	2398	-3316	-869	129	134	1
-15712	-8372	12732	4941	5735	6064	-17116	6600	-11960	14125	11014	1627	-11752	10984	-9672	-34	1900	-124	-32768	21872	17816	2983	5900	-3741	-24624	9464	-7160	3337	2380	-140	-26216	8224	-15152	3763	-3395	-161	128	132	1
-10520	-5976	12648	2708	1377	725	-17928	8356	-7876	-5941	10980	-2967	-16232	2416	-9232	-1305	1553	1215	-18400	32767	24440	-184	2230	-4380	-14128	12488	-15784	1417	1905	495	-26240	3960	-12480	1943	-3610	560	127	132	1
-9680	-6476	11976	1199	1220	129	-14912	1344	-6104	-20522	10255	-6455	-19736	-4328	-5904	-126	1740	909	-18864	8776	26384	202	-2264	-927	-11568	-1440	-6152	-113	694	-174	-27104	7008	-6128	246	-3821	633	128	133	1
-9488	-6728	11656	521	1125	319	-19092	-4832	-3644	-15545	7262	-5951	-18680	1912	-3376	688	1666	60	-40	14864	12712	1339	-2808	792	-13464	1568	808	645	-120	-322	-25208	9016	-4648	-674	-3570	1038	124	129	1
-9312	-7140	11116	521	1101	401	-17440	-5608	-2436	-2960	5349	-1788	-18136	4816	-1576	217	1782	123	-3512	16288	11000	60	-3292	1375	-5824	1960	-4696	146	-1282	362	-21656	4472	-4968	-906	-3249	1245	128	121	1
-9180	-6852	11236	517	1199	276	-16344	-3052	-2468	5811	3928	1004	-15856	1608	-1160	-125	1737	468	-4464	8904	11048	-826	-4364	2365	-4088	2336	-4792	-749	-2170	654	-17464	768	-5320	-940	-2816	838	125	125	1
-9216	-7148	11072	367	1109	283	-16172	-1608	-2884	8524	3294	2024	-13632	-1400	-952	-155	1696	642	-3208	4240	9840	-304	-4649	3223	-8376	1248	-2768	-1284	-2994	727	-15072	1248	-6200	-883	-2436	606	125	125	1
-9196	-7292	10596	489	1030	299	-15772	620	-2924	3059	3992	646	-13488	136	-1544	-308	1874	557	-5056	6560	9560	98	-5012	3582	-9640	424	-4624	-1710	-3738	789	-12640	2040	-7432	-1013	-1980	348	125	131	1
-8704	-18308	15228	-2521	32767	32767	-25660	308	568	-11832	24794	-6443	-20544	10496	-3160	-579	-2235	-271	-15664	10096	10688	-462	328	-135	-11520	4008	-13536	-3618	2134	-459	-13624	-12680	-7952	558	2044	847	126	109	1
-29128	-6768	15960	-10591	32767	32767	-19232	2172	-8644	-20703	29547	1803	-21224	2152	-13600	-1883	-1140	-742	-10384	4224	14048	-238	151	-34	-21320	-6736	-9272	-2547	1652	-3	-8472	-1600	-4232	1286	1561	639	126	124	1
-32768	-22792	16116	-4841	32767	32650	-23508	-5448	-15840	-21738	27862	-805	-20272	-464	-13696	-1789	-1888	-1392	-10352	7712	11408	73	219	67	-19712	-8520	-8712	1408	1206	445	-11968	9592	-5968	922	1649	256	127	110	1
-20448	-6792	18476	-8337	26258	21362	-18192	-544	-10972	-11216	20673	5636	-25712	3584	-9096	121	-2329	-1722	-10176	7168	11640	70	176	32	-14528	5344	-6592	3342	852	783	-18904	11808	-3640	-346	1426	508	126	147	1
-32768	-21984	25132	-7892	-1998	-5942	-15400	3820	-1756	-7994	11423	7125	-25160	3352	-8312	1670	-2760	-1197	-9400	7928	11240	56	161	-8	-17504	11944	-4272	1901	612	578	-23520	2424	-496	-604	1760	355	127	121	1
5684	-12584	9768	4380	-936	-5777	-11292	-5264	4568	-9552	2590	-293	-21832	7464	-6608	1932	-2859	-956	-9872	6968	11904	20	146	-28	-15208	9480	-3536	-42	611	134	-20032	992	1208	875	1824	169	127	121	1
-2380	-4416	12256	843	-3559	-8177	-6412	-884	-3284	511	-4753	-1205	-18120	9448	-5000	1253	-2592	-1146	-9952	6664	11808	110	199	10	-16592	3952	-4152	-962	654	-74	-14544	4008	1248	782	1648	-376	127	132	1
-7608	-8756	14464	-2183	-17402	-12419	-6248	-2440	-5932	4427	-12872	-1039	-16072	8976	-3248	485	-2284	-1036	-10048	7600	11224	141	208	20	-17544	2192	-4792	-620	636	-71	-12528	8656	792	191	1893	-180	127	132	1
-2548	-6292	11688	-1163	-28509	-14989	-9604	-168	-2128	9052	-20697	-211	-15360	7328	-3544	-250	-2040	-943	-10088	7736	10600	87	142	-21	-15544	1848	-4136	248	580	-33	-12400	4712	88	-183	2232	389	128	134	1
-3660	-6828	9672	-1424	-30795	-18739	-9864	4740	-3856	9910	-24893	-799	-15400	5456	-4600	-395	-1844	-1009	-10104	7280	10928	31	95	-60	-14352	2736	-4000	914	342	222	-16256	-2032	-800	-45	2047	635	128	124	1
-5648	-7724	10304	266	-32572	-24433	-9616	5472	-5516	6270	-30490	-4021	-14816	5112	-6064	-48	-1647	-1046	-10104	6968	11088	37	60	-79	-16008	3824	-3584	1025	327	331	-18344	-3488	1208	1021	2063	339	128	121	1
-7344	-5600	11128	1066	-32526	-28991	-11780	3448	-4984	5653	-32768	-5841	-13232	3464	-6768	699	-1395	-942	-9976	7368	11256	48	69	-76	-16752	4936	-3288	846	438	184	-16416	-224	2400	2006	1953	200	128	127	1
-12064	-4936	13108	835	-32768	-29325	-13544	3296	-7648	8135	-32768	-5532	-10784	3008	-5896	1461	-1322	-720	-9832	7408	11248	50	73	-87	-15736	6032	-2992	347	565	36	-14672	6392	2576	2226	2260	183	127	130	1
-17244	-3036	15536	-1098	-32768	-27530	-14732	5984	-10468	3521	-32768	-4809	-8504	3144	-5168	1936	-1253	-338	-9936	7320	11192	52	93	-111	-15792	3752	-3176	187	663	-7	-14408	10176	1928	1381	2502	187	127	130	1
-20032	-3268	15704	-4503	-32768	-22614	-17228	6464	-10688	-6118	-32768	-6720	-7752	3432	-4472	1957	-1227	-99	-10088	7656	10880	47	93	-151	-15440	3624	-3512	414	750	-84	-15416	8984	-48	215	2131	150	127	130	1
-23896	-5936	15156	-5917	-32768	-18765	-18956	4964	-11024	-10606	-32768	-10175	-8144	4488	-3232	1535	-1099	-44	-9968	7432	11136	36	93	-178	-14992	3680	-3456	539	806	-66	-16872	5584	-3336	-139	1422	206	127	132	1
-24124	-6296	14924	-6047	-32768	-18514	-21752	3316	-11196	-11062	-32768	-11728	-9576	6288	-1632	647	-830	-117	-9952	7512	11440	61	141	-213	-15264	3824	-3376	538	818	-57	-16360	2072	-2840	-5	1259	100	127	131	1
-25960	-10916	14416	-6242	-32768	-18748	-23352	588	-11568	-7230	-32768	-13496	-10416	7840	632	-429	-411	-214	-10104	7128	11688	100	241	-230	-16480	3312	-4720	173	1000	-158	-16216	3488	-1952	5	1148	-140	124	131	1
-28456	-10716	13796	-5745	-31097	-19086	-23672	-28	-12368	-562	-32768	-13460	-12504	8960	4104	-1644	-106	-254	-10136	7072	12128	199	366	-274	-16512	2440	-4704	222	1076	-161	-16264	3592	-1712	-160	1199	-173	126	129	1
-30392	-11304	11036	-3847	-28511	-20761	-23360	-1020	-13688	5854	-32768	-12667	-13616	6704	4864	-2274	244	-178	-10096	7728	12144	247	582	-327	-17328	3128	-3872	461	1167	-149	-17584	2008	448	-118	1202	-31	127	131	1
-31444	-8196	5676	-2430	-22097	-24570	-21536	848	-14708	10907	-32768	-9410	-13808	976	5640	-2148	552	-72	-10304	7776	12408	228	814	-450	-17224	3800	-3608	412	1338	-196	-18024	696	2768	205	1100	135	127	131	1
-32308	-6364	-664	2040	-13554	-27466	-18172	2664	-14088	14572	-29377	-8424	-16360	-6912	12032	-1729	528	211	-10952	7488	11848	175	1099	-564	-17352	3512	-4336	277	1596	-256	-17400	-168	3624	541	955	235	125	129	1
-32768	10168	-7392	2130	-6368	-27761	-10940	2464	-16724	5923	-17021	-3517	-21488	-17256	16480	-994	160	-81	-10768	7808	13096	138	1528	-695	-18584	3528	-4240	138	1838	-369	-18208	1280	1832	747	845	202	125	127	1
-32768	20072	-17676	1734	-1695	-8397	-4900	-504	-17984	7965	-2432	-690	-21376	-19368	16248	-794	77	-161	-11496	7688	13056	192	2022	-906	-19336	2352	-4776	174	2042	-407	-18200	5168	608	1116	745	-21	123	127	1
-32768	11024	-14376	-6265	5947	6293	-4968	2248	-18396	7634	-15	-18	-21608	-5696	8096	2371	-577	-789	-11856	8240	12728	248	2536	-1133	-19320	3288	-4520	351	2253	-424	-17600	6736	1088	1088	666	-162	128	128	1
-26880	-2672	-7044	-4190	11401	9230	-11124	1380	-16108	-4822	20598	-138	-12384	2176	3552	2189	-25	58	-11904	9272	12112	328	3086	-1507	-19760	4208	-3440	466	2484	-477	-18120	4472	3936	804	423	-107	123	125	1
-5648	-24656	8344	14268	21760	12512	-24100	-9464	7516	-6372	19732	-450	-5888	7224	-5512	254	814	559	-11672	10768	11768	438	3663	-2169	-21792	5224	-2616	696	2721	-398	-20072	2240	7816	566	157	38	123	128	1
7348	-13168	12548	7432	29733	15481	-29944	-6136	11784	15151	12010	-6993	-16392	7016	-2032	-212	417	1151	-12168	13072	13672	742	4510	-3123	-27944	6296	-1848	1152	2881	-293	-25768	2992	11640	607	-628	144	127	130	1
-30092	520	20784	9555	30384	17116	-27124	3792	-4352	24244	16755	264	-32768	-11568	10944	1838	-455	897	-13008	17264	14344	1150	5605	-4474	-32768	3464	2696	1950	3032	-45	-22344	-6376	7928	-308	-2202	-93	124	130	1
-32192	-3932	18100	3977	20155	11669	-22856	4552	-10356	18303	21789	5793	-19456	-2416	9816	4753	-733	-711	-26920	11392	15112	1191	6290	-5128	-25872	3704	-3472	2403	2983	290	-19632	-7072	2040	319	-1692	-317	129	128	1
-16444	-2236	15828	1587	7340	4313	-16020	1032	-7592	17396	18686	2792	-16920	17840	-18320	3290	936	-1469	-29872	6344	13328	2519	6881	-3622	-24488	3992	-5584	2555	3136	-196	-21680	7480	-7040	2451	-2909	-541	126	129	1
-13316	-9364	9544	1100	4260	854	-14232	-1200	-11748	7866	15352	429	-6528	14088	-10296	-751	1649	-656	-32768	22816	18920	498	5061	-4929	-25888	14352	-9800	2732	3044	-376	-25664	11664	-15136	2648	-3140	67	123	130	1
-11476	-7268	11500	926	2443	287	-15536	-4	-7616	1866	11160	-746	-10432	3928	-9224	-1643	1937	1165	-15120	22192	21224	-1715	3292	-5486	-16632	9312	-10088	685	1941	237	-26736	3928	-12072	579	-3458	608	127	128	1
-10368	-7052	11072	412	1741	-79	-16868	2012	-7016	-7681	8750	-3211	-14256	-7240	-11304	-1467	1677	1499	-32768	10608	27968	1511	-264	-1559	-14112	-3816	-12112	-930	1197	-668	-27080	4112	-7856	-612	-3645	632	127	131	1
-9724	-6624	11400	420	1314	-11	-17644	-1716	-5004	-13197	6932	-4756	-21656	-7776	-6960	452	1762	449	-1368	22792	14328	1560	-1827	767	-14184	336	-272	808	312	-657	-25448	5184	-5464	-972	-3430	1001	127	129	1
-9804	-7064	11196	97	1245	3	-18116	-4668	-2900	-6944	5028	-3080	-21216	5520	-4168	1517	1552	51	944	16320	10032	-520	-1841	1333	-8040	864	-3056	576	-1012	130	-22648	2280	-3624	-1286	-3340	1138	127	124	1
-9696	-6912	11028	-295	1147	-35	-16352	-4060	-2072	2245	3620	-349	-18680	6288	-2152	1001	1649	187	-6064	8360	11912	-1098	-2535	2364	-4168	2544	-5256	-302	-1751	216	-18856	680	-4568	-1004	-2974	942	127	120	1
-9844	-6652	11148	-671	1004	-124	-16004	-1012	-2304	5823	2557	305	-13744	2832	-56	435	1783	557	-5432	6960	11616	-724	-3645	3062	-5728	2632	-4088	-871	-2541	372	-15992	656	-6144	-749	-2542	715	127	127	1
-9628	-6600	10832	-754	964	-245	-15952	1496	-2368	918	3222	-652	-11264	1960	-96	-70	2107	492	-4440	4968	9664	-409	-4483	3009	-7632	2160	-4008	-1462	-3413	740	-14088	1008	-7392	-887	-2215	407	126	131	1
-9628	-6856	10376	-507	1168	-334	-15580	-724	-1876	-6026	4138	-1950	-13856	2448	-176	-791	2028	669	-8064	5200	10016	9	-4807	2985	-8720	648	-5248	-2085	-4061	929	-11928	1848	-8072	-1139	-1860	189	127	134	1
-9508	-7096	10428	33	764	-45	-15628	-2940	-1308	-7635	3978	-2109	-16624	4936	152	-1399	2331	471	-9688	6624	11152	121	-5050	3273	-10280	-1336	-6272	-2287	-4748	880	-10320	2760	-8016	-1508	-1659	66	127	132	1
-9596	-7240	10428	539	360	300	-11412	-3120	-484	-7824	4131	-1664	-17072	4536	1296	-2146	2700	153	-14736	5240	13304	323	-5057	3595	-14216	-2192	-7968	-1993	-5314	717	-8616	3408	-7960	-2085	-1296	-42	126	130	1
-9572	-6964	10552	981	870	626	-16672	-2652	-376	-6649	4878	-721	-15536	3504	72	-2109	2865	-364	-19920	4560	15216	699	-5197	3716	-17624	-2200	-10800	-1561	-5733	631	-7552	2432	-7496	-2819	-889	-134	127	131	1
-9440	-6420	11008	748	1300	643	-16064	-2580	-172	-4554	5809	-32	-17928	-2184	-3792	-1452	1802	-116	-22960	4208	15368	1013	-5131	3520	-19296	-3536	-12936	-691	-6052	798	-7144	2240	-6736	-2997	-839	-160	126	127	1
-9736	-6200	11080	437	1454	742	-15404	-1344	-604	-3139	6939	651	-16400	-5440	-6752	-845	710	362	-29432	7728	15888	856	-4908	3268	-20888	-2424	-13912	362	-6157	942	-8760	1216	-3216	-2318	-767	-148	125	125	1
-9352	-6720	11188	202	1381	765	-15396	-1852	-1088	-2375	8034	1027	-17200	-4176	-2776	-432	839	396	-31776	9520	14912	549	-4832	3048	-24064	2888	-14176	830	-5992	1408	-10328	-3152	736	-896	-713	-30	125	124	1
-9572	-7480	10568	-75	1721	959	-16232	-2128	-1444	-1120	8697	1875	-17824	-904	752	-282	1030	259	-32768	12560	12816	699	-4595	2990	-22816	7624	-14504	0	-5640	1441	-10704	-6464	3920	503	-426	93	125	128	1
-10092	-7016	11172	-263	2588	1182	-16908	-1404	-2464	152	9340	2086	-16616	1864	-776	-353	830	205	-32768	13536	8944	716	-4131	3163	-21368	9776	-14784	-1652	-5235	1354	-13656	-6584	6680	1271	146	93	125	136	1
-10188	-6256	11220	-636	3612	1358	-16848	-236	-2324	-267	10484	2192	-16160	3744	-1912	-187	718	278	-32768	7128	3360	589	-3368	3617	-21976	2088	-15184	-2650	-4357	983	-17472	-2240	9376	2053	323	-7	125	124	1
-9820	-6916	11664	-1441	4985	1838	-16352	-164	-1132	-658	12084	2446	-16592	2664	72	-134	691	377	-32768	-104	-2896	-324	-2219	3618	-19856	-3576	-17592	-1988	-3238	539	-17080	3104	20216	1771	-453	-15	125	122	1
-10008	-6616	11308	-2387	6192	2062	-15852	-920	-1512	-77	13788	2432	-16488	1400	2104	-389	748	167	-32768	-12368	-10296	-1343	-1081	2515	-11024	1096	-17904	-883	-1873	190	-14488	10192	21280	-373	-1080	467	124	130	1
-10536	-7284	11436	-2878	8391	3015	-17172	-1920	-3924	2195	15072	3202	-16272	1992	-32	-1085	650	-9	-32768	-17104	-16352	-189	-333	564	-6912	2680	-18648	-624	-54	80	-15120	12432	21536	-864	-1017	668	124	148	1
-10584	-7672	12052	-1773	11344	4178	-18200	-1104	-4836	2837	16072	3720	-16520	1824	-3552	-1308	543	203	-29496	1448	-10272	-531	1193	-838	-8200	1016	-16128	-245	1485	100	-20224	4608	13016	-879	-16	375	125	126	1
-10496	-8628	12396	-1583	15023	6083	-19072	204	-6008	1745	17075	2816	-17184	424	-5008	-869	506	450	-27936	-17616	-6952	-1377	2767	-3091	-11928	6280	-19416	-261	2839	197	-17480	-5104	10600	-1077	-408	-850	127	125	1
-12252	-5884	12260	-1168	18989	7626	-18888	32	-5812	-951	18144	1490	-17856	-728	-3072	-519	559	456	-8224	26784	27944	-967	2447	-2333	-32768	1416	15544	374	2114	-216	-25384	-1536	25408	-1212	-1748	-524	127	138	1
-11360	-8024	12260	-2357	23387	10310	-21152	-2268	-4352	-2077	19129	1424	-20696	-1352	-1816	-404	600	300	-22152	576	20696	-780	3342	-1563	-22624	-6664	-9536	469	3059	52	-10168	5928	-4656	-80	894	239	125	128	1
-11368	-7212	9728	-5010	24252	11692	-21880	-2960	-2792	-1381	19072	1513	-23776	-400	-56	-214	148	216	-8904	3232	14120	-283	2411	-1162	-11264	4920	-4376	1216	3032	-716	-10368	7384	-6680	26	869	931	129	155	1
-11016	-9476	12724	-4706	32767	18518	-24128	-1356	-1436	-1310	21290	826	-24160	-1600	5712	-22	-421	163	-21888	5192	12216	-381	376	-890	-9048	15400	-13368	-1187	2547	-454	-17632	-3480	-5064	-2116	728	480	128	126	1
-11460	-15900	12236	-6340	32767	26339	-28368	-1080	6024	-8554	22932	973	-24416	-432	11688	118	-1952	-132	-16392	3872	13168	-563	122	-541	-16104	5056	-14000	-3935	1879	-211	-15736	584	-8496	527	587	573	127	120	1
-16484	-10984	12340	-12142	32767	32767	-24764	-1416	-476	-9434	23436	-5906	-18960	11384	5928	-727	-2715	-662	-12320	3112	14040	-302	37	-70	-24792	-8616	-10656	-2250	1638	-526	-18704	7872	-5456	425	1436	827	126	128	1
-21164	5012	11332	-18981	32767	29601	-20880	4640	-8560	-18235	23193	-3736	-16664	9672	-1912	-1548	-2054	-435	-10264	5632	12928	-8	91	75	-17640	-4200	-8024	475	1308	-16	-18752	7896	-4448	-1023	1956	790	126	120	1
-32768	-11532	12416	-21066	32767	22614	-22404	-1380	-9500	-26677	26835	2705	-24168	1600	-16600	-2731	-1672	-1100	-9768	5864	12608	79	118	81	-15112	1064	-4776	1462	889	382	-18976	2240	-856	-2011	1750	727	127	118	1
-32768	-15932	13844	-17824	28909	21728	-22044	-4760	-14380	-18267	23376	1049	-21928	1376	-12472	-2241	-2043	-1618	-9672	6512	12200	121	144	81	-17240	4080	-4120	1345	756	433	-17968	-3016	1736	-823	1706	589	127	131	1
-10308	-18200	14052	-2249	15267	18475	-14940	-2376	-8060	-9167	16719	3761	-24992	2656	-9184	-485	-2386	-1802	-9560	6904	11928	91	126	64	-15584	7184	-3536	902	606	423	-14776	-824	2688	461	1412	224	128	129	1
-1200	-16016	16580	-853	-7143	-1011	-14504	1000	-3528	-5467	6150	5947	-24520	2648	-6504	1379	-2837	-1528	-9560	6848	12088	63	115	37	-15616	7008	-3672	14	563	183	-14240	4648	2928	1139	1229	-191	127	133	1
-3720	-8988	11236	1619	-8906	-2231	-8452	-1640	-1596	-4504	-910	987	-21752	5304	-5824	1713	-3004	-1482	-9560	7296	11736	9	100	18	-16288	5112	-4104	-460	652	-12	-15208	7536	1968	981	1349	-250	128	126	1
-5764	-8096	11344	1195	-18436	-7704	-4728	-780	-5008	869	-8340	-45	-19216	7424	-4200	1274	-2828	-1414	-8672	7624	11288	-41	92	15	-15944	3960	-4408	-432	649	-83	-16160	6088	1024	565	1515	31	128	126	1
-4904	-8180	10924	2340	-29170	-12321	-6104	-1232	-4576	3105	-16224	-953	-16800	7696	-3136	810	-2415	-1067	-9744	6752	11872	-72	63	-38	-16208	1864	-4968	-13	486	50	-17032	2904	1288	367	1626	482	127	128	1
-2648	-5580	9060	1818	-32768	-15604	-8996	1460	-2384	7026	-22777	-1822	-15544	6232	-4144	257	-1940	-937	-9944	5680	12208	-61	68	-23	-16880	800	-4448	703	288	179	-16824	16	1200	442	1728	505	127	130	1
-4428	-6452	7912	446	-32768	-20331	-8536	3684	-10772	5022	-26621	-2449	-14680	4464	-4768	132	-1535	-934	-9904	5608	12200	8	105	6	-16960	1024	-4488	786	268	199	-15968	-576	1192	810	1749	183	129	132	1
-6160	-5648	8208	159	-32768	-23957	-8456	4784	-4260	2769	-32601	-5061	-14368	4408	-4872	165	-1493	-924	-9440	5944	12264	56	141	20	-15464	5032	-2992	1005	271	238	-14856	600	1448	1133	1745	-16	128	131	1
-9172	-5656	9880	-264	-32768	-27305	-10740	4128	-5744	2064	-32768	-7015	-10320	3928	-5992	981	-1119	-526	-9496	6800	11880	84	149	4	-15128	5960	-2696	496	391	122	-14792	2768	1944	1452	1722	-108	127	129	1
-14008	-4204	12404	-1260	-32768	-27879	-13320	3464	-7864	2180	-32768	-7151	-8152	3552	-5584	1537	-1083	-316	-9496	7424	11632	71	131	-31	-15632	5416	-2720	241	426	68	-15112	5632	2008	1478	1654	39	127	127	1
-17808	-4236	12796	-3173	-32768	-25453	-14760	5208	-8772	380	-32768	-7406	-6952	4024	-5104	1750	-904	-44	-9888	7192	11536	39	115	-80	-15504	4400	-3152	336	478	11	-15936	6816	1352	1180	1614	204	126	126	1
-20384	-4988	13824	-3374	-32768	-23684	-16580	6524	-10420	-4029	-32768	-8498	-7336	4328	-3856	1637	-754	117	-9544	6616	11832	26	88	-112	-15712	3440	-2912	509	540	-26	-16336	6256	1728	672	1782	255	127	127	1
-23008	-5668	14220	-4427	-32768	-22375	-19364	5368	-9852	-9026	-32768	-10915	-7936	5424	-1320	972	-511	34	-9392	7304	11752	47	103	-129	-16104	4192	-2480	589	599	-26	-16224	6000	1760	598	1826	243	126	127	1
-27520	-8188	15680	-5339	-32768	-21053	-22236	2388	-11860	-8783	-32768	-12796	-8840	6192	608	27	-178	-112	-9872	6632	12032	57	161	-148	-15936	4592	-2792	393	730	-75	-15704	4752	3088	350	1989	-30	126	128	1
-27364	-8840	13880	-5792	-32768	-19071	-24096	848	-11008	-5411	-32768	-12979	-10608	7320	2696	-988	174	-179	-9352	7496	12000	55	219	-161	-15776	4752	-2384	173	975	-226	-16392	3984	3160	350	1988	-86	126	129	1
-29628	-10652	11136	-6391	-31014	-18643	-22516	568	-12576	-765	-32768	-12101	-12608	6176	4520	-1749	556	-24	-9608	7160	12304	90	298	-234	-16504	3712	-2752	33	1103	-213	-17536	2696	1232	262	1821	132	127	130	1
-29544	-10928	6024	-3853	-26404	-21554	-21904	-52	-12648	4077	-32768	-10994	-15704	3128	5368	-2126	657	166	-9840	6880	12472	153	392	-281	-16280	2216	-3264	201	1280	-226	-17064	1664	1024	149	1339	243	125	130	1
-29400	-7520	344	-428	-16468	-24953	-19244	-8	-13336	9324	-30820	-9769	-16560	-2792	8856	-1935	449	193	-9608	7144	12896	216	565	-346	-16384	3912	-3576	239	1453	-266	-16224	2664	1176	183	994	240	124	134	1
-31852	-2572	-3560	452	-8268	-27603	-15316	3112	-15624	12726	-23792	-7101	-17688	-10920	13568	-1157	384	240	-10440	5840	12888	203	829	-424	-16640	3928	-5432	151	1623	-284	-16008	2872	1272	303	824	51	124	131	1
-31356	7452	-10704	2839	-846	-23897	-9324	652	-13760	9227	-12204	-2729	-19584	-17488	15080	468	487	-172	-11048	7248	13000	191	1063	-546	-17232	4008	-5016	251	1818	-432	-16536	4336	1128	536	773	-50	122	129	1
-32768	14816	-15500	1947	5268	-8770	-6840	1764	-16468	12414	861	968	-19424	-11184	9928	2884	484	-644	-10872	8288	13264	67	1397	-794	-17424	3888	-4568	437	2037	-435	-17472	6296	1872	689	657	-88	125	130	1
-28220	5248	-9544	-7031	9305	1879	-8584	4808	-16680	3757	12229	1266	-17120	-3536	2792	3840	361	-263	-11088	8552	13448	22	1817	-1133	-18616	3688	-3952	576	2325	-437	-17936	4776	3560	627	374	-65	126	133	1
-14328	-400	-9708	7835	23660	18327	-15724	-2600	-14896	2132	17215	-3763	-13480	3912	-136	2405	912	322	-11024	9784	14136	76	2383	-1589	-20896	4560	-3936	677	2697	-470	-19064	1824	6344	419	-8	56	128	131	1
5444	-28080	26244	3785	22223	12676	-32152	-4260	25228	-998	9422	-1154	-11824	10224	-5104	652	1232	978	-11992	10136	16456	317	3177	-2247	-26144	4568	-5560	892	2966	-348	-23776	-432	10192	103	-738	153	129	127	1
-17908	-7708	11008	6655	32231	17335	-26552	1896	-3448	19519	11782	-7168	-28416	13480	-1440	649	497	1984	-11592	12264	16392	444	4243	-3388	-31536	3480	-4056	1340	3116	-164	-24264	-6600	13456	-825	-1844	-212	130	132	1
-32768	-7852	17840	4094	19940	20515	-25752	2880	-2024	20116	12907	-4973	-32768	24	-1344	3027	687	994	-8384	13448	16944	638	5293	-4807	-30120	2744	1648	2142	3168	137	-24744	-5080	1448	2048	-1529	-431	128	129	1
-22376	-7080	14984	7812	4759	7063	-18180	-4336	-6112	15631	14775	-1040	-21216	-2856	-80	2832	750	-547	-10024	13720	17776	710	5411	-4992	-27160	4080	-2528	2445	2825	651	-24352	-128	-2328	2558	-2377	-813	128	131	1
-12292	-7732	11700	2939	1793	1277	-18512	3500	-6148	16956	12271	314	-10224	7840	-2992	138	1656	-1497	-28936	4696	10032	2616	6936	-3794	-22912	2792	-13632	2738	2888	-13	-25608	7616	-8720	2461	-3187	-555	127	131	1
-11184	-6808	11892	569	1586	-512	-15792	1632	-3444	2860	11491	-1184	-3816	11584	-6112	-287	1496	-579	-32768	17040	11056	1649	4338	-4025	-18440	10384	-15664	2725	2940	-385	-26272	6424	-16480	2519	-3062	157	132	134	1
-9628	-8056	10640	-57	1279	-557	-14032	-1896	-1532	-7860	11468	-2227	-4216	7896	-9480	-356	777	716	5248	20360	27528	-810	2144	-4358	-13608	5424	-11048	1207	1679	370	-24968	776	-12072	1059	-3063	694	121	128	1
-9160	-9188	10192	1282	290	582	-16368	-5212	-1024	-11157	10476	-3402	-16720	-5208	-10760	-719	499	990	-4888	15808	19328	1303	-16	-694	-13896	-4264	-4784	902	612	-146	-23736	2848	-6032	-266	-3255	636	124	132	1
-9372	-7748	10940	2211	111	1191	-17920	-5056	-876	-4984	8826	-621	-28856	-12608	-2840	-2881	939	-577	2200	18872	11928	595	-524	408	-9720	-456	816	1995	-223	232	-22488	2576	-2536	-894	-3171	575	137	131	1
-9676	-7816	11248	2023	410	1134	-17664	-4008	-376	-4336	7795	2274	-16192	-5352	-2160	-2959	251	-867	-2264	11296	13320	-310	-1008	1235	-3928	2968	-2048	1015	-1030	859	-19392	1896	-2440	-389	-2907	506	123	123	1
-9000	-8180	10288	1886	297	1108	-15084	-4300	-1540	-576	7633	3973	-12904	-1240	-3408	215	160	309	-4720	8680	15472	-5	-2336	2462	-4224	4408	-3048	-680	-1680	958	-15624	1008	-3632	42	-2349	409	116	120	1
-9448	-7476	10632	2183	-126	1537	-15516	-1096	-2304	1250	6690	4209	-11648	1576	-3736	1297	24	140	-2352	6280	13960	229	-3538	2915	-7776	2152	-1288	-1527	-2619	1244	-13960	1808	-4520	-32	-2028	91	121	126	1
-9496	-3504	12512	2030	-435	1521	-16404	4680	-4164	496	5531	2057	-12000	8240	-536	1635	309	-99	-2872	4096	12296	553	-4086	3144	-10696	-1016	-1760	-2052	-3410	1371	-13528	4816	-5856	-576	-1838	32	124	124	1
-9296	-5828	11464	1466	208	483	-16704	3520	-3624	-5322	5985	107	-16936	9880	-1168	33	1113	414	-6456	5056	12592	563	-4184	3450	-11512	-2952	-4208	-2425	-4063	1317	-11704	4928	-6904	-1423	-1409	43	130	128	1
-9152	-6080	11372	913	609	98	-16672	-988	-1852	-4203	5180	-579	-17408	7080	-2000	-1297	1339	688	-11392	3360	15216	423	-4211	3771	-13760	-2856	-6576	-2323	-4673	1004	-10064	3200	-7464	-2330	-1159	89	136	129	1
-9512	-5976	11036	1018	453	212	-15776	-2232	-1864	-1782	4904	231	-15968	160	-552	-1329	1202	405	-16984	1592	17608	648	-4428	3813	-17232	-3112	-9392	-2097	-5077	703	-9160	2248	-5720	-2738	-980	9	124	127	1
-9000	-7296	10732	1424	88	559	-15448	-2016	-1052	-1593	5347	969	-16544	-5152	-72	-482	1065	-49	-22040	3128	17248	821	-4673	3510	-19640	-5360	-12056	-1244	-5440	728	-9568	1360	-3928	-2616	-933	33	134	127	1
-8824	-7304	10740	1492	-223	411	-15292	-292	-1148	-3431	6417	926	-16096	-5192	-304	170	781	-362	-23832	3312	13832	615	-4417	3028	-22632	-4136	-12656	48	-5470	900	-11304	800	-896	-1977	-902	129	124	129	1
-8928	-6852	11188	1157	255	777	-16392	-552	-1492	-4187	6976	756	-16256	-4792	-608	201	733	-344	-28944	6152	15168	615	-3922	2304	-22424	-1000	-14928	921	-5232	1406	-12016	-5488	1752	-740	-667	198	119	124	1
-9188	-5856	11596	1089	740	454	-15876	-544	-2112	-2298	7249	1510	-15384	4496	496	-9	364	509	-32768	7552	13328	1045	-3934	2493	-20592	6224	-14208	16	-4925	1381	-12800	-8968	7544	328	-672	43	141	130	1
-9356	-6768	11236	565	903	744	-16096	-1256	-2388	-1029	7440	2473	-15304	4800	512	-76	377	550	-31872	9240	8128	789	-3345	2500	-21600	3840	-14184	-1518	-4358	1101	-14832	-8736	11568	1400	-738	-328	127	135	1
-9188	-7304	10868	808	1023	1223	-15968	-1148	-2844	-156	7866	2801	-15864	904	-392	-970	1063	224	-32768	5864	5904	-50	-2554	2846	-19536	552	-13688	-2193	-3582	647	-15872	-3960	11640	2022	-628	-482	126	124	1
-9220	-6552	11308	866	1336	1405	-15908	-180	-2920	-627	8532	2750	-15704	-736	-720	-897	1167	29	-29568	-1272	3800	-866	-1794	2835	-18600	-1360	-12720	-1952	-2727	222	-15288	2384	13128	2001	-638	-79	130	126	1
-9176	-6312	11244	524	1640	1506	-15412	-220	-2948	-1648	9519	2479	-15080	-208	-1432	-753	1022	218	-29408	-6400	1768	-1269	-1255	2034	-15072	-616	-12808	-1513	-1845	-151	-12928	7632	13328	933	-777	534	132	126	1
-8692	-8180	10428	137	2166	1753	-15488	-2044	-3420	-878	9917	2227	-15432	552	-3384	-803	928	386	-27272	-7768	136	-1188	-810	1153	-12448	-1480	-12600	-1371	-997	-263	-11832	10568	12344	-711	-492	757	126	130	1
-9700	-6800	11388	80	2800	2200	-16408	-1420	-5652	2315	9450	2782	-15712	272	-4584	-765	1073	565	-25216	-6320	-608	-860	-329	448	-12712	-1792	-11952	-1043	-57	-393	-13592	5592	11960	-1540	-392	370	125	135	1
-9696	-6928	11388	-103	3365	2367	-16624	60	-5404	2789	9709	3372	-16384	432	-2864	-559	1242	646	-23896	-4280	272	-528	103	-126	-12144	-1104	-12264	-469	708	-382	-15200	168	9720	-1784	-394	-375	127	132	1
-10696	-6324	12408	-713	4252	2511	-17060	-176	-4160	1425	11104	2738	-18528	-1208	-400	-598	1327	728	-22232	-1888	1336	-150	352	-707	-12240	400	-12152	298	1224	-255	-13656	-2496	7264	-1649	-382	-750	127	130	1
-10200	-7528	11824	-979	4855	3640	-17324	-408	-3556	-14	12085	2578	-17512	8	-288	-758	1136	558	-20120	1016	1744	298	485	-1232	-12216	1792	-12736	921	1595	-73	-13376	-1736	5064	-1059	-513	-713	127	133	1
-9616	-7476	12916	-2138	6461	5846	-18336	-644	-4060	1045	12425	3145	-18072	2024	-56	-692	1069	425	-20744	3656	1904	520	899	-1676	-11384	3480	-11864	1783	1864	4	-17568	608	6352	-174	-758	-475	125	134	1
-10724	-7688	13480	-120	10834	8505	-20116	896	-6192	956	13344	3054	-20504	1640	-64	-839	982	640	-9144	10728	12120	-12	1202	-2078	-13184	5984	-7928	2220	2233	-18	-6664	-4560	-1080	-1190	301	-563	127	143	1
-10620	-7032	14064	483	15311	11339	-20964	956	-5052	1120	14524	2673	-20872	472	776	-940	873	758	2416	26832	11048	-137	725	-885	-27136	11704	9376	1717	1301	-78	-7656	-3288	-10608	2592	1684	670	125	105	1
-11020	-6988	14084	584	19728	13906	-21244	1372	-3904	-62	16273	1714	-21888	-1040	2096	-851	545	697	-25744	20872	10456	-1281	1734	-296	-18264	4296	-8824	-1164	1658	539	-27576	-232	21064	-320	-372	860	131	121	1
-10972	-9204	15032	1411	24192	17124	-22912	-1264	-1064	-884	18585	1182	-22376	-1784	2448	-215	-46	502	-15104	-15824	24928	-507	1275	14	-18464	-2472	-9848	-2349	1904	-556	-21480	12864	2712	1556	1325	815	128	143	1
-10688	-9524	14644	2454	29295	22367	-24156	-1832	-468	922	20921	976	-23192	-840	8064	57	-1036	227	-5912	10152	9896	531	368	-172	-21048	-8248	-8944	-1996	1748	-794	-17424	1656	-4904	145	1981	1200	129	162	1
-11328	-12968	14800	2842	32767	27274	-25368	-2292	1640	-2253	21892	1296	-23648	-3592	10368	-130	-2282	-177	-13080	3040	13360	295	477	81	-15592	4136	-11560	-311	1175	212	-20336	816	-2808	289	1732	731	127	139	1
-13332	-15160	14276	-1586	32767	32767	-28408	-1884	4812	-9193	20768	-1688	-19992	1368	4360	-902	-2532	-374	-11728	11680	10480	199	308	151	-16512	2384	-8656	-229	812	218	-15080	5368	-544	606	1589	198	127	127	1
-24204	2668	16092	-5652	32767	32767	-17388	620	-9152	-16930	24087	-1449	-15480	2096	-6704	-828	-2197	-579	-10136	5736	12616	214	156	111	-17520	-640	-7472	450	554	266	-16464	8824	-360	34	1506	198	127	110	1
-29352	-12452	14028	-1503	32767	31258	-21108	-2500	-12844	-22625	27369	1966	-19040	-1320	-14816	-590	-1554	-1237	-8792	9120	10984	166	137	151	-17120	4560	-4936	911	424	280	-18056	9632	328	-914	1619	638	127	135	1
-24408	-9040	15380	-2752	25248	22457	-21444	-2240	-11360	-13493	22260	5338	-20016	-1192	-14496	-615	-1669	-1331	-8520	6768	12064	94	145	96	-15608	4808	-3472	202	370	295	-17872	1904	2456	-1575	1833	764	127	125	1
-28680	-26528	23828	-2634	10228	-5277	-17632	812	1136	-9718	13530	7795	-25072	2600	-8048	1262	-2584	-1275	-7720	6664	12200	47	250	-37	-16176	3504	-3816	-505	411	287	-17040	-3504	2392	-1057	1649	219	128	129	1
5816	-20784	13108	10990	4478	-12910	-15148	-8612	4928	-5033	4630	2241	-22048	6184	-6376	2035	-2750	-1039	-8848	6368	11768	129	269	-2	-16080	2800	-4880	-779	356	232	-16264	-1864	2400	-127	1490	-203	127	126	1
-1768	-5832	14656	7194	427	-14632	-8628	-4148	-2036	7562	-3890	2709	-18848	6328	-4664	1551	-2543	-1348	-9624	8216	11312	56	276	-66	-16824	3408	-5832	-531	212	291	-15608	3280	904	718	1600	20	128	142	1
-6132	-9172	15480	2022	-13212	-15057	-7016	-5028	-4188	11577	-12777	3390	-17184	4960	-3928	1080	-2208	-1551	-9464	7936	10904	-121	201	-143	-16112	1616	-5752	203	67	390	-14720	3808	1200	893	1825	420	128	118	1
-4532	-8068	11916	1988	-26045	-14632	-7628	-4960	-4152	12329	-14325	3364	-16664	5264	-4200	816	-1855	-1273	-8800	8208	11168	-355	188	-272	-16176	3176	-4424	774	-18	487	-16064	960	464	936	1928	507	129	135	1
-3172	-9232	8868	2319	-30483	-17530	-11040	4048	-3788	16020	-25695	4573	-15720	3912	-4896	616	-1740	-1097	-10528	6680	12176	-490	195	-273	-15288	4568	-4496	396	23	442	-17048	96	440	1257	1962	479	129	134	1
-5296	-10496	7516	4583	-30678	-22420	-10684	2532	-4532	15849	-26487	4177	-13992	3824	-5184	878	-1515	-1028	-10136	6144	12552	-294	206	-120	-15832	4096	-4536	53	99	302	-15480	3008	784	1464	1901	317	128	127	1
-8564	-9452	9140	5382	-29788	-28089	-11080	2716	-6464	7641	-32768	-2062	-12176	4448	-5496	1394	-1251	-832	-10208	6344	12032	-62	212	-33	-16320	4136	-3752	220	116	199	-14304	4808	1720	1355	1937	115	128	125	1
-12204	-9208	11404	5119	-30064	-31559	-13668	1596	-7688	6743	-32768	-3039	-10152	4376	-5712	2010	-1055	-595	-9784	7296	11384	20	203	-34	-15376	5080	-2512	655	156	188	-14384	6496	1864	1241	1910	136	127	126	1
-15296	-6752	13108	3706	-31188	-30237	-15776	2112	-9260	3532	-32768	-4412	-9536	4048	-4712	2240	-901	-363	-9616	7992	11144	29	145	-33	-14672	5920	-1736	797	285	148	-16376	6576	2800	1065	1841	259	127	124	1
-19176	-6864	14036	284	-32538	-25135	-17772	1660	-9524	-1939	-32768	-6076	-8760	3744	-3192	2089	-824	-176	-9776	7128	11440	15	112	-88	-15216	6120	-1888	708	348	106	-17280	5440	3552	861	1837	505	127	125	1
-24568	-8876	14260	-2941	-32768	-20090	-20216	864	-10008	-3258	-32768	-8616	-8080	4744	-856	1581	-706	-136	-9744	6840	11968	41	119	-103	-16088	4584	-1656	603	519	11	-16088	4272	4832	841	1764	496	126	126	1
-24468	-10464	13712	-4584	-32768	-19703	-20716	352	-10564	-3049	-32768	-8876	-7912	5608	416	804	-511	-131	-9608	6960	11704	65	145	-111	-15552	4512	-1400	547	719	-85	-16128	4504	3640	795	1626	300	126	128	1
-25532	-11720	12456	-4469	-31242	-20276	-21212	344	-10316	-2695	-32768	-8768	-9568	6656	2464	-130	-102	-185	-9696	7440	11440	77	173	-128	-15192	4824	-2280	422	876	-136	-16120	3592	560	673	1391	106	127	129	1
-25564	-11440	11360	-3609	-27491	-19852	-22384	652	-10172	107	-32768	-10930	-11560	7520	5056	-879	251	-203	-10056	7328	11672	79	204	-178	-15712	4352	-3864	270	988	-126	-15840	2648	88	495	1267	149	128	130	1
-25704	-10572	9400	-3913	-23038	-20516	-21524	-2304	-11204	2515	-32768	-11995	-14656	5984	7656	-1136	248	-110	-9760	7000	11768	124	278	-203	-16488	3336	-4344	371	1122	-171	-15672	2608	400	760	1314	181	126	132	1
-31696	-10436	5740	-1425	-18480	-23074	-19228	-1328	-11116	7620	-31515	-9924	-16672	1208	8864	-835	-118	-136	-9472	7104	12608	199	420	-305	-17384	3464	-3760	443	1214	-114	-16616	3480	128	775	1338	155	123	133	1
-25428	9564	2280	-865	-13206	-25527	-15532	3692	-10848	7342	-25929	-6368	-19376	-7144	11856	-917	-336	-77	-9808	6992	13032	317	651	-385	-17312	3568	-3336	443	1230	-104	-17368	3744	-2224	731	991	173	123	128	1
-31488	3904	-5564	4447	-6489	-14751	-12080	604	-13480	6607	-15432	-4084	-18984	-11664	16656	-314	-249	-469	-9480	7280	13024	341	953	-471	-17456	3896	-3664	328	1609	-272	-17320	4912	-1120	736	815	86	125	129	1
-32768	14796	-10492	819	-2355	-4007	-8532	5584	-15260	5033	-2792	604	-19944	-8880	13008	783	-221	-1013	-10392	7824	12680	292	1233	-636	-16584	4320	-5088	286	1772	-246	-16080	6720	-88	756	739	-36	128	127	1
-30308	5332	-9520	-3275	3544	5032	-10924	1712	-15304	-4250	9252	-524	-23760	-3112	9328	890	-690	-598	-10944	7808	12896	202	1617	-896	-18384	3960	-6160	210	1986	-271	-17536	6304	-496	682	727	-37	125	127	1
-25412	-988	-7476	-1524	10627	7809	-12628	-1084	-12580	-2490	17255	629	-17672	3296	8680	310	-672	172	-11216	6832	14040	322	2159	-1132	-20968	2224	-6288	372	2131	-259	-19576	3808	-888	511	723	-81	127	128	1
-25732	-6840	-2152	917	16613	6687	-13828	-2728	-13516	2680	23002	2006	-12544	5440	2192	-1167	429	87	-11352	7528	14016	452	2832	-1468	-21832	1432	-5000	683	2286	-226	-20096	1480	1704	596	736	-45	132	134	1
-9552	-19480	26112	14014	18342	8583	-27712	-6680	14040	-97	18570	977	-11320	4496	104	-1393	497	134	-10736	8888	14304	578	3575	-1860	-22656	3704	-2952	892	2470	-235	-21400	208	5136	598	573	4	119	130	1
-912	6668	11616	9589	25762	10702	-22160	464	2856	16474	15536	-3280	-13344	-3464	-5256	332	844	-4	-10624	11048	14832	664	4465	-2524	-25592	5232	-2256	801	2677	-262	-24920	-128	8240	726	21	14	127	135	1
-32768	-4664	22288	5524	23474	13706	-24484	7844	-8564	18413	17904	3252	-31584	-20648	9232	2298	-196	5	-10352	12992	14376	999	5556	-3472	-29344	4392	2368	1222	2851	-174	-27864	3680	10984	838	-1204	-126	131	127	1
-28744	-12168	15648	2523	13997	9093	-21856	4056	-9568	9956	22539	5169	-20472	-1448	3992	5500	-995	-536	-19264	11624	15232	1405	6565	-4664	-29952	1792	3584	2151	2983	220	-17336	-7320	1736	217	-1832	-628	124	128	1
-12472	-1772	14784	1779	6306	3725	-15412	-2048	-5868	12412	19841	4034	-15936	17408	-16504	4627	793	-848	-28376	8400	10840	2228	6913	-4362	-23000	3472	-5600	2717	2991	496	-24176	-4792	3992	1064	-2379	-669	122	125	1
-13168	-9240	10016	1795	3732	633	-10640	-2872	-11120	13016	15353	1305	-7928	17384	-5160	130	1389	-106	-25480	20744	9440	3452	6895	-3345	-26392	5560	-3712	3386	2914	-79	-20216	5336	-9248	2291	-3267	-831	130	131	1
-11908	-5904	11720	897	2332	6	-15664	932	-8704	12954	11150	1403	-11032	10576	-7032	-873	1860	758	-32768	20376	18144	2486	5352	-4149	-22816	11480	-7424	3075	2414	11	-24352	7944	-16056	3260	-3329	22	124	131	1
-9940	-5780	11600	-343	1740	-517	-17272	6376	-7980	875	9602	-1084	-15232	960	-8008	-1580	1779	578	-6384	30880	26856	-359	2172	-4172	-14424	10800	-19872	880	2011	309	-25512	4520	-11232	1385	-3604	707	129	134	1
-9592	-6320	11544	-598	1461	-599	-16476	2144	-6572	-10959	8997	-4908	-22112	-7848	-6480	-695	2143	-52	-12656	14832	28240	589	-3118	1	-13904	-640	-3496	-135	951	-599	-27472	8672	-6376	-116	-3951	625	126	136	1
-9812	-7264	11072	-339	1031	-312	-17056	-3712	-5480	-10606	7249	-5714	-20856	-568	-5208	610	1812	70	1552	16408	13952	602	-3417	890	-15872	3032	1816	596	-239	-264	-27272	9280	-5816	-391	-3900	659	128	133	1
-8336	-7032	11060	-25	1123	-86	-17940	-5320	-4300	-3206	5427	-3070	-17944	104	-2600	731	1717	731	688	12816	11608	-336	-3677	1275	-6416	2408	-2960	-109	-1559	303	-22888	3736	-4128	-1093	-3417	1060	127	120	1
-9444	-7148	11052	-125	1116	-154	-17224	-3568	-3672	4639	3644	70	-13464	-584	-1016	614	1687	1011	-4264	8248	11992	-199	-4413	2338	-5600	1152	-4424	-780	-2331	518	-22160	2728	-4472	-1074	-3317	1029	125	119	1
-9156	-7484	10604	41	1225	-7	-15576	-1084	-3872	5360	2687	515	-12488	472	-1952	540	1804	840	-2152	8856	9456	-55	-4799	2816	-10976	2568	-2848	-1026	-3188	734	-16024	1016	-6208	-870	-2563	588	126	126	1
-9444	-7308	10568	186	1227	179	-15764	244	-3848	855	2814	-809	-15104	3096	-2368	341	2156	593	-7584	9104	10024	-88	-4930	3087	-9824	1712	-5712	-1638	-3972	981	-13744	1168	-8136	-980	-2144	357	126	131	1
-9368	-6568	11116	-15	1759	222	-15792	1004	-3960	-2830	2740	-2267	-17304	6128	-1824	-40	2463	341	-8056	7968	10888	-33	-4961	3668	-11360	96	-5392	-1989	-4759	901	-11904	1592	-8888	-1171	-1821	240	126	135	1
-9788	-6292	11272	-610	2102	-95	-16136	200	-3556	-6641	2658	-2987	-16936	6184	-1320	-852	2779	458	-12232	7496	11976	113	-4685	4034	-13784	-1288	-7912	-2168	-5268	944	-8952	2312	-8656	-1513	-1603	131	125	132	1
-9612	-7360	10616	-469	2364	102	-16468	-3388	-2492	-6066	2991	-2696	-15416	1952	-256	-1704	2940	593	-17560	5224	16552	355	-4684	4140	-15896	0	-9816	-2089	-5711	859	-6600	2360	-7696	-2144	-1228	36	127	128	1
-9648	-7012	10684	-431	2424	198	-15876	-2796	-1424	-4229	3640	-1194	-14472	-2552	-624	-1954	2736	495	-23008	4896	17536	895	-4760	3810	-20536	-1896	-11712	-1638	-6039	771	-5840	1912	-5344	-2165	-1083	-60	126	127	1
-9600	-7672	10532	-97	2719	823	-15332	-2660	-308	-3745	5128	68	-15616	-2664	-1664	-1383	2227	454	-28432	7832	17512	904	-4820	3140	-22176	-3008	-13464	-261	-6192	1041	-6608	1000	-2728	-1973	-1104	-44	125	127	1
-9124	-6496	10664	-151	2573	965	-14880	-1516	-228	-3917	6768	302	-18184	-1752	-856	-439	1506	481	-30704	10200	15936	791	-4814	2812	-22424	1120	-14336	574	-6023	1461	-8296	-2080	400	-1289	-970	-18	125	127	1
-9776	-8072	11044	-498	2754	1500	-16304	-2316	-924	-2531	8126	882	-18224	896	8	-194	1359	320	-30576	11440	13488	834	-4370	2922	-22768	4840	-14640	39	-5731	1604	-10512	-5496	4008	-278	-701	-8	125	120	1
-9988	-7324	11500	-979	3959	2321	-17388	-1272	-1892	-1387	9432	1390	-19784	1944	-624	-394	1399	231	-32768	8944	9848	1008	-3738	3313	-21048	7608	-16448	-1024	-5312	1429	-12920	-6592	8280	652	-523	-44	125	134	1
-9964	-7536	11968	-1886	5790	2897	-17452	-48	-1616	-1788	11401	1655	-19176	1088	-904	-374	1042	323	-32768	6352	1440	565	-3262	3334	-19368	5592	-18200	-2020	-4334	993	-17352	-2016	12392	1894	-332	40	124	128	1
-10288	-7132	11960	-2312	8124	3308	-16576	-668	-1484	-1571	14004	1497	-16848	240	600	-494	784	263	-32768	-1288	-8520	-461	-2135	3122	-16760	-568	-20744	-2500	-2914	481	-14080	1504	17368	2260	-188	327	124	128	1
-9476	-8432	12300	-1797	10460	4412	-17144	-1204	-2164	744	15515	2328	-17176	1560	2088	-642	720	94	-32768	-9656	-14880	-1228	-800	2537	-10328	-136	-24504	-1799	-1334	119	-15008	9592	21592	564	-824	903	123	133	1
-11468	-7124	11612	-1016	13974	5571	-17568	-864	-3636	2326	17782	3351	-17168	3536	392	-923	630	9	-32768	-16224	-18912	-522	159	1169	-6360	1216	-22432	-1021	425	0	-15536	17880	16848	-469	-448	1169	123	152	1
-10960	-8268	12580	-513	17854	7394	-19524	-1708	-5076	3099	19060	3098	-18648	1456	-3688	-1357	577	125	-32768	-10816	-12208	-88	1142	-135	-5512	176	-21560	-913	1893	17	-15176	16896	15600	-619	-167	1063	124	134	1
-10196	-7460	12216	-467	22396	9666	-20320	48	-5336	1723	20093	1680	-19200	1552	-3112	-939	579	304	-31632	-3912	-3504	120	1591	-661	-9712	-16	-20032	-249	2930	-138	-14536	1256	6392	-1684	735	-763	127	125	1
-11004	-8712	11916	-1606	27804	13213	-29048	-816	-5012	-558	21799	-441	-18032	-984	-144	-810	571	260	5880	23944	29672	-1464	2230	-1355	-32304	3736	18888	1696	1855	-22	3032	2888	-12200	-1059	2142	-463	127	117	1
-11488	-8976	12204	-2969	31843	16644	-21148	-1740	-1880	-4767	22889	-1100	-18688	-256	4816	-663	491	-76	-8616	2784	12112	-475	4496	-2906	-32768	-176	-1664	-168	2203	655	-27752	6552	10048	-90	-536	176	128	124	1
-10644	-9308	13844	-4859	32767	22037	-27880	-3368	-1096	-6236	22775	-394	-28080	-1424	11880	-450	-710	-133	-30080	21520	15032	-984	3191	-1791	-25760	5208	-6392	-706	3079	-558	-30632	8312	16712	-5538	554	-76	129	135	1
-12504	-18624	12556	-6287	32767	31140	-29364	-1696	7376	-10396	25719	1771	-21896	-4376	3384	-1335	-1965	-687	-12280	-4416	15288	-530	1063	-1064	-11536	5688	-8368	-2166	3332	-1255	-25944	-11280	-17664	-3551	1847	1196	128	143	1
-23420	-9876	13772	-12352	32767	32767	-24160	-336	-600	-13938	26561	-5727	-18976	6888	1248	-1222	-2497	-337	-14872	8848	9976	-645	257	-496	-9376	9024	-15984	-3434	2532	-478	-9016	-14608	-9040	1084	1460	1410	126	110	1
-28068	-9884	14068	-21699	32767	26458	-22756	2428	-3132	-20879	28607	3032	-18936	3816	-12064	-346	-2073	-965	-11640	5176	13360	-436	156	-78	-20208	-6992	-12872	-2109	1578	129	-6096	4112	-8296	2669	1484	455	126	117	1
-29672	-20832	12512	-13926	32767	28709	-25100	-5744	-8544	-21359	26409	1431	-22960	1504	-14848	-1285	-1996	-1620	-10376	7512	12168	-130	159	22	-20024	-5328	-9232	1216	1435	207	-13400	16176	-8808	1657	1502	238	127	114	1
-14132	-18732	13984	-4945	28613	24226	-19340	-4212	-11968	-10477	18744	3028	-27336	5824	-9752	-178	-2410	-1931	-9848	6952	11928	-52	162	-17	-18032	-3736	-8720	1603	1337	249	-22280	18048	-5544	-1071	1511	685	127	148	1
-28672	-18868	26464	429	-8364	-5031	-17700	4948	-8812	421	9874	8124	-26568	4520	-8816	903	-2887	-1400	-10080	7840	11880	-62	164	-57	-16928	9904	-5448	1338	682	270	-26424	1224	-1992	-1757	2204	554	128	121	1
164	-12364	14156	3052	-12426	-11255	-12412	-3724	1340	-4210	-508	5680	-24320	4600	-7168	1115	-3218	-1352	-10032	6240	12624	-21	178	-41	-15024	6696	-4624	-442	649	-6	-19464	-4048	-120	-123	2040	-84	127	134	1
-7196	-7248	13452	1714	-20055	-13150	-6684	-860	-5236	3455	-8322	1266	-21240	7720	-5448	1093	-2951	-1466	-9976	6176	12144	93	226	33	-16616	2616	-5608	-1066	625	-102	-12232	1408	464	-62	1928	-383	128	130	1
-5568	-7680	13096	927	-32768	-16713	-5528	-872	-5356	4432	-17573	-373	-18520	9216	-4416	823	-2591	-1212	-9888	7288	11584	153	227	47	-17832	720	-5296	-431	555	-11	-11584	5936	320	-10	2230	-207	128	129	1
-4976	-5988	8908	461	-32768	-16934	-9980	388	-2692	6731	-24581	-643	-16936	8776	-4928	391	-2217	-1050	-9784	7328	11144	144	195	10	-15304	432	-4752	743	405	127	-13664	1336	-592	12	2268	390	128	124	1
-2148	-4588	7604	617	-32768	-15670	-10764	4336	-3404	6318	-29744	-2341	-15632	7408	-5280	42	-1890	-1101	-9544	7984	11104	119	152	-20	-14904	4432	-3752	1443	225	293	-18080	-1792	-1320	591	2284	443	129	126	1
-6728	-5364	8140	-2511	-32768	-18620	-9844	5260	-4036	6114	-30291	-2260	-11872	5968	-6440	98	-1555	-982	-9864	7448	11144	80	108	-72	-15824	5720	-4032	1101	190	326	-19040	-1632	-1408	1753	2347	588	127	133	1
-8392	-6816	10296	-2522	-32768	-23139	-10248	5324	-5788	-3610	-32768	-8002	-8792	4696	-7336	352	-1349	-659	-9832	6752	11880	83	120	-78	-16160	3872	-3952	677	268	230	-15624	1200	216	2461	2446	505	128	117	1
-13484	-6124	13540	-2826	-32768	-27819	-14236	4380	-7644	-3100	-32768	-9332	-6992	3456	-7576	785	-1318	-277	-9816	6704	11648	109	147	-52	-16064	3584	-3384	613	391	141	-12776	6224	2568	2153	2688	292	128	127	1
-18528	-5568	15428	-4186	-32768	-29049	-15432	3884	-9640	-4238	-32768	-9454	-5928	2744	-6672	1157	-1150	73	-9936	7728	11296	123	171	-60	-15608	4544	-2632	796	493	27	-13904	9336	3336	1404	2662	110	127	129	1
-20612	-5012	15408	-5160	-32768	-25635	-17696	3916	-9924	-5720	-32768	-11220	-5784	2864	-5688	1339	-1059	246	-9944	8432	10840	73	125	-122	-14736	5792	-1392	920	602	4	-16936	7512	464	556	2101	74	125	133	1
-23612	-6040	15516	-6378	-32768	-20954	-20472	3236	-9760	-7600	-32768	-13463	-6320	3232	-4136	1211	-812	176	-9856	8064	11064	17	90	-211	-14472	5680	-2016	619	794	-68	-19200	5456	-2144	405	1275	244	128	132	1
-28816	-7220	17252	-8788	-32768	-18709	-25320	2796	-12800	-5680	-32768	-13953	-8424	4056	-2544	649	-557	3	-10048	6968	11912	53	139	-253	-16888	3480	-3384	343	1014	-160	-17592	3688	-376	346	1060	282	127	131	1
-30784	-11464	16448	-6165	-32768	-18487	-24824	1828	-13436	-1938	-32768	-13359	-10336	6000	3488	-438	-127	-261	-10040	6864	12040	131	271	-259	-17168	2576	-3112	388	1155	-248	-16520	6112	456	124	1131	-45	124	130	1
-32768	-11888	10376	-580	-30387	-22966	-25544	-156	-14968	5970	-32768	-11896	-14968	3720	9040	-945	-329	-294	-9624	7320	12632	179	520	-346	-17528	3072	-3816	298	1272	-198	-16568	3928	232	-30	1138	-135	127	127	1
-32768	-11452	1320	6990	-21725	-28306	-20868	-2432	-15576	13912	-32768	-8498	-18912	-1360	9184	-1415	-133	-191	-9952	7432	12816	225	784	-420	-17560	3384	-3896	247	1479	-278	-17352	200	888	93	1100	57	127	129	1
-32768	-4992	-3848	9659	-13098	-29664	-17684	-1288	-17364	23912	-28837	-5992	-21456	-5600	12736	-1448	189	-50	-10672	7568	12512	190	1077	-565	-17544	4072	-3936	145	1746	-384	-17808	-2160	2352	456	974	251	124	128	1
-32768	8816	-9644	7502	-5301	-27476	-11916	2144	-17824	17578	-16375	560	-20680	-11800	18352	-763	68	-58	-11304	8744	12336	47	1517	-826	-18320	4288	-4776	28	1971	-439	-18384	784	2464	899	830	220	121	126	1
-32768	17664	-15660	6702	-466	-9505	-7012	2012	-19316	14634	-2923	1384	-19224	-12144	14936	788	-172	-453	-10768	8120	13320	24	2047	-1173	-20112	3192	-5064	117	2189	-413	-19048	5880	1208	1400	789	105	133	128	1
-32768	9784	-13464	-4136	5878	3681	-7728	6048	-19548	-2622	12186	487	-20552	-5288	7448	2043	-760	-533	-10920	7592	13592	82	2601	-1475	-21152	3304	-4160	442	2394	-446	-19040	7456	680	1373	621	-22	110	131	1
-28688	560	-8240	-3997	10612	8333	-9868	-112	-17440	-9041	21143	-1014	-15400	1632	4016	1604	-307	-88	-11328	9456	13672	168	3246	-1945	-21128	3984	-2704	591	2636	-463	-19328	5296	3440	776	387	-94	129	128	1
-27008	-1008	-7220	-3562	11578	8502	-18260	-10208	-288	-9038	22601	-623	-8160	8504	3368	-242	579	348	-11600	10656	13328	302	3923	-2574	-22432	4184	-1928	788	2892	-399	-20184	3224	8768	669	128	17	130	126	1
7344	-26356	11656	6414	24702	12168	-30052	-5668	15972	7063	13180	-3626	-5512	7984	-13016	-667	797	470	-11328	12608	13336	428	4726	-3629	-27888	6944	520	1193	3057	-277	-24608	2592	12672	523	-569	123	124	130	1
-32768	-5120	17940	6208	32767	14897	-26320	-1552	-9292	17581	16656	-5711	-32768	-7664	15088	25	19	1514	-15272	16048	17208	568	5737	-5052	-32768	5040	4728	1688	3223	-46	-21728	-8400	9560	-861	-2194	53	128	130	1
-32768	-9768	21188	4550	15175	16321	-25652	5440	-15880	18000	22276	6096	-26056	-15136	7048	3479	-632	-735	-26880	7168	16640	975	6630	-5381	-26648	3688	-3760	1784	3279	234	-25848	-5920	5232	1427	-1850	-361	134	128	1
-16580	2584	19272	2084	5241	3318	-17704	3160	-6528	15026	22169	6135	-15832	13680	-18256	4441	754	-1637	-29112	16304	13968	3144	7659	-3610	-27592	1520	-3736	2434	3238	-362	-21592	7144	-9200	2612	-2970	-592	142	131	1
-14580	-7184	10652	916	3014	-345	-12012	-2668	-12268	10853	17223	1277	-7224	14848	-8984	546	1854	-553	-32768	17688	12104	1536	5977	-4673	-25728	11032	-4936	3442	2698	-282	-24936	9680	-17072	2652	-3113	1	125	132	1
-10764	-6420	11536	712	2090	-521	-13492	-4	-8468	7384	11914	-1392	-9824	7824	-10408	-859	1683	938	-25464	31664	21168	-1241	3350	-5348	-15888	11512	-14496	1405	2024	589	-26664	2200	-11504	392	-3508	493	125	132	1
-9900	-7196	11588	243	1608	-558	-17528	3292	-7712	-2238	9619	-2144	-12224	160	-9368	-1175	1429	1450	-29752	11744	30632	760	-1721	272	-14656	-5392	-6416	-488	963	-437	-29512	3224	-6536	-659	-3926	400	126	134	1
-8796	-6428	11392	320	1219	-354	-17604	-276	-6472	-10688	8705	-4291	-22088	-9008	-6592	-300	1864	547	2648	22088	13864	863	-1993	1860	-17592	2984	3472	1340	-26	-337	-27232	3864	-5552	-1048	-3688	723	126	132	1
-9184	-6724	11428	177	1527	1	-17844	-3176	-4784	-8864	6905	-3739	-21112	3040	-4200	1039	1690	-35	-3752	12880	13696	-645	-2592	1857	-5336	3312	-5288	375	-1317	634	-22832	1056	-4328	-938	-3443	938	127	124	1
-9640	-6592	11252	-47	1652	148	-18168	-3600	-3828	-2706	5416	-2178	-19640	6464	-2776	613	2023	260	-4328	5200	14352	-192	-3818	2709	-4272	3320	-3952	-672	-2175	776	-22200	512	-4216	-834	-3376	917	128	123	1
-9988	-5760	11812	-320	1930	153	-16004	-1208	-3132	1902	3842	-1050	-14256	3304	-1592	-6	2069	697	-3936	6848	11280	199	-4552	2907	-10096	3000	-2864	-1341	-3018	1032	-16792	584	-6344	-313	-2675	635	126	124	1
-9704	-6604	10968	-718	1939	5	-16128	-904	-3328	1094	3477	-766	-11392	568	-1424	-517	2235	984	-6352	6264	10616	293	-4873	2861	-10088	784	-3952	-1919	-3815	1192	-14384	960	-8624	-444	-2249	476	125	130	1
-9552	-6836	10792	-421	1849	259	-15728	-896	-3512	-2013	3665	-1263	-13256	312	-2880	-780	2612	767	-9424	7952	11784	401	-5010	3425	-11352	-2032	-5936	-2310	-4521	1119	-11328	1864	-8552	-725	-1903	379	125	133	1
-9588	-6840	10576	-262	1821	544	-15936	-1940	-3188	-4298	3633	-1525	-17392	1776	-1368	-939	2786	619	-12304	6760	13840	358	-4879	4130	-14480	-3256	-7104	-2041	-5219	1092	-8336	2392	-8296	-1167	-1703	236	127	131	1
-9844	-6684	10628	-68	1599	789	-15444	-1560	-2752	-5191	3974	-1436	-17288	3320	320	-1578	2929	350	-17064	5128	17664	492	-4835	4429	-17752	-1832	-9424	-1831	-5638	986	-6736	3536	-7896	-1878	-1328	114	126	130	1
-9652	-6460	11036	-66	1534	939	-15924	-1408	-1296	-5793	4812	-1009	-15352	1560	1400	-1956	2757	349	-23160	1232	20000	971	-4978	4197	-18352	-1840	-9936	-1814	-5717	958	-6872	2712	-6232	-2552	-1235	-34	128	130	1
-9652	-7268	10572	72	1694	1257	-16052	-2652	-156	-4982	6324	-208	-15768	-632	-856	-1336	2222	146	-23504	1368	19976	1068	-5021	4144	-22400	-4080	-12328	-63	-6246	1033	-7312	3616	-4088	-2565	-1347	-143	127	126	1
-9256	-7580	10472	256	1650	1675	-15344	-2144	-736	-2917	7484	288	-16328	-3752	-6848	-442	1044	542	-30104	8544	17776	706	-4906	2859	-23416	568	-13536	543	-6177	1455	-9352	-72	-640	-1936	-1261	-152	125	128	1
-9956	-6672	11556	-15	2430	1844	-17032	-1604	-3644	-688	7655	688	-18032	-3344	-5096	-237	1199	581	-32768	10328	16728	897	-4869	3036	-22272	3208	-16464	65	-5946	1461	-10304	-5728	3392	-328	-1056	9	125	126	1
-10000	-5700	11888	-1019	3751	2133	-18740	-40	-3932	198	8762	2424	-18736	1584	-1344	-137	1469	257	-32768	11648	9792	1026	-4590	3300	-21488	6792	-17240	-781	-5546	1340	-10592	-7224	6520	667	-610	25	124	133	1
-9292	-7096	12372	-1615	5882	2749	-17780	-164	-1444	-941	10306	2054	-18392	3240	-464	-8	1064	438	-32768	11640	8560	993	-4507	3332	-20160	5920	-19448	-1977	-4755	1157	-14512	-3728	8712	2114	-226	-113	124	127	1
-9740	-7624	12052	-2439	7937	3611	-16728	516	244	-3307	12929	970	-19224	1296	3536	272	910	449	-32768	-2584	-6600	225	-2686	3428	-19672	-2224	-21088	-1962	-3385	683	-15848	-224	16024	2689	-164	-46	125	120	1
-10464	-7660	12584	-2203	10511	4583	-17564	-1492	-1268	-3470	15583	1209	-18760	272	4632	-376	772	87	-32768	-10144	-12712	-330	-1051	2598	-11832	-720	-25312	-820	-1748	361	-19792	6840	24032	806	-1061	203	125	134	1
-10692	-6480	13532	-1570	14726	6315	-20352	-1968	-2852	958	17573	2915	-19680	4504	1872	-1339	688	-123	-32768	-16232	-17648	-12	-358	957	-5480	2352	-23928	-176	52	114	-16512	15848	19152	-434	-891	704	125	140	1
-11684	-6548	13336	-1336	20281	8200	-20368	224	-4004	3718	19411	3364	-19424	4112	-1440	-1580	488	267	-32768	-11976	-13880	521	639	-629	-6576	40	-22608	-99	1609	171	-15552	8760	10240	-572	384	550	123	136	1
-11932	-7380	13148	-1557	25747	10862	-20888	1028	-3872	2058	21022	1740	-19216	-432	-2376	-1241	413	512	-32768	-2296	-4720	642	1226	-1043	-9320	-56	-21248	252	2793	-121	-16816	1576	8864	-924	507	-478	128	132	1
-14840	-4772	13488	-3582	28123	11937	-19308	504	-2832	-543	22145	-415	-19248	-1528	904	-770	399	274	-6512	8832	25000	-1743	2209	-1785	-28232	4032	10240	1136	2270	59	4328	5824	-13808	-366	2162	-631	126	143	1
-10656	-9008	13048	-4579	32767	17257	-22156	-1224	320	-4491	23871	-1032	-20424	-1632	5296	-708	195	58	6648	2976	9240	-712	2963	-2521	-31944	6656	8232	-374	1870	76	-13744	9248	-4376	1480	-38	165	127	132	1
-10664	-8972	13968	-6697	32767	23076	-31680	704	-432	-9277	23771	805	-26920	-4344	10936	-627	-488	-100	-32072	20696	16648	-829	3473	-1848	-22984	1680	-9472	-1531	2440	-498	-32768	20632	22920	-5662	-882	866	129	143	1
-17692	-23168	13068	-9962	32767	31035	-30020	-2824	8200	-14034	29403	1458	-22576	-4976	11984	-1950	-3020	-814	-31712	3448	18296	-1127	2182	-1831	-16816	5552	-11760	-2428	3286	-1189	-26384	-11504	-14744	-4955	2386	986	127	144	1
-31280	-7704	13672	-17918	32767	32767	-24112	-1252	-4476	-15481	28073	-6166	-19616	5040	1560	-1364	-2392	-381	-20728	13416	12480	-969	696	-1101	-11104	6064	-13392	-3553	2579	-767	-14536	-18376	-6408	-202	1450	1201	125	120	1
-32768	-11584	15116	-25929	32767	24251	-23612	1264	-6032	-23780	30352	5996	-20544	464	-16272	-1102	-2142	-1016	-16384	2400	15208	-752	56	-372	-18912	-7488	-13744	-2662	1615	49	-8728	-648	-7304	1861	1409	821	126	113	1
-32768	-26268	18268	-15618	32767	28255	-26936	-8704	-13908	-21444	28109	407	-23680	192	-15728	-1294	-2306	-1799	-10808	5640	13064	-284	146	-32	-20784	-7016	-9472	1316	1476	178	-12232	9520	-7272	1427	1660	464	127	112	1
-24200	-7356	11688	3822	19361	21991	-19096	-3652	-9868	-5645	18379	5225	-29248	4576	-9648	289	-2719	-2151	-9544	7296	12224	-78	169	27	-15120	3272	-6408	2674	944	480	-18656	13064	-5128	-212	1332	411	127	138	1
-2128	-18144	19096	1773	-8539	-3664	-17932	1640	-3232	304	6831	11044	-29264	4608	-7944	1760	-3279	-1639	-9864	7488	11712	-37	159	-7	-17176	10016	-5208	1770	769	489	-21896	2856	-2128	-907	1689	218	129	125	1
-3288	-11736	13868	6765	-9598	-6314	-9160	-3208	-1712	2330	-2522	5130	-25192	6264	-7512	1822	-3498	-1676	-9496	7208	11992	-29	156	-28	-14992	8720	-4144	194	642	119	-21224	-2256	360	546	1841	156	129	133	1
-4648	-7400	13876	7594	-19282	-10129	-5536	-496	-5804	6718	-11635	2860	-22752	8520	-4792	1104	-3154	-1847	-9552	7072	12024	0	187	-6	-16624	4776	-5096	-730	585	-11	-15064	2928	192	1023	1781	-85	127	128	1
-5208	-6160	12912	4700	-31246	-14836	-6440	-252	-5724	7409	-21002	2412	-19808	8104	-4352	729	-2609	-1589	-9536	7184	11544	28	195	9	-17760	2280	-5112	-566	542	-92	-12864	7552	56	649	1940	-31	129	133	1
-5156	-6756	10060	3184	-32768	-16500	-8348	1120	-4204	7442	-27809	963	-16392	6664	-5272	645	-2064	-1395	-9736	7440	11304	30	204	3	-16048	656	-4608	384	492	39	-12904	5520	464	344	2184	202	129	126	1
-6412	-6024	8240	895	-32768	-19256	-8524	4300	-5476	6734	-32768	-454	-14168	6192	-6104	593	-1709	-1256	-9440	7360	11264	33	160	-32	-14656	2960	-4312	1271	294	205	-16040	-408	-664	249	2118	297	127	126	1
-6196	-6852	7540	-471	-32768	-22823	-7576	5092	-4780	720	-32768	-2725	-10800	4872	-7656	522	-1297	-980	-9784	6848	11464	54	149	-49	-15616	4536	-3496	1387	196	270	-19704	-3152	-280	979	2125	192	128	135	1
-10768	-8148	9028	-542	-32768	-27078	-9780	3884	-6056	-1516	-32768	-6127	-8240	4104	-8496	870	-1022	-645	-9960	6800	11512	81	146	-47	-16096	4824	-3168	1161	274	201	-17232	-1120	1352	2130	2080	158	127	120	1
-15676	-7812	13208	722	-32768	-30786	-13300	2812	-8644	-759	-32768	-8081	-5800	3456	-8592	1543	-971	-184	-9816	7200	11192	81	142	-44	-15504	5320	-2416	925	425	132	-14296	3440	2576	2429	2076	342	127	130	1
-21036	-4864	14364	-2405	-32768	-30959	-16592	3204	-8976	-839	-32768	-7180	-3776	4384	-7944	2259	-950	281	-9280	8320	11000	62	128	-92	-15712	5984	-2200	708	523	0	-14056	8648	2872	2251	2296	324	126	125	1
-22780	-6200	13760	-4329	-32768	-27178	-17976	4676	-10420	-2273	-32768	-8932	-3584	4816	-6552	2426	-1059	470	-9968	8008	11256	22	95	-179	-15424	5064	-2480	564	603	-68	-15672	10712	2200	1611	2413	283	126	128	1
-25416	-6740	15200	-4825	-32768	-22585	-22168	4700	-10632	-7008	-32768	-11163	-5368	5080	-3984	2130	-843	367	-9888	7304	11288	12	86	-197	-15672	3536	-3336	659	696	-103	-16456	6032	-160	1085	2283	167	126	131	1
-32768	-9800	17188	-8170	-32768	-19978	-26944	2684	-14952	-6697	-32768	-12652	-8032	6592	968	1175	-565	-20	-9672	7224	11400	25	123	-226	-16232	4088	-2512	630	820	-135	-15624	1488	-1960	568	1789	235	129	131	1
-32612	-14872	13204	-5410	-32768	-19580	-28852	540	-14888	-963	-32768	-14783	-12288	8792	7984	91	-796	-203	-9576	7320	12128	79	222	-240	-16456	3824	-2184	469	1010	-151	-16560	1536	-1032	-55	1343	83	128	129	1
-32768	-11852	7328	-1991	-28550	-27547	-23592	576	-15764	6268	-32768	-12696	-20712	4616	13672	-480	-1195	144	-9856	7576	12712	154	402	-324	-17312	3800	-2728	181	1286	-248	-19072	4624	1504	-67	1189	-36	126	136	1
-32768	-8104	764	4376	-21183	-31019	-19840	-4228	-14912	12300	-32768	-9365	-21896	2168	12328	-2071	-343	300	-9424	7288	12976	244	634	-420	-17960	3560	-3224	173	1466	-276	-17560	5512	2296	495	1046	21	123	131	1
-32768	-100	-4684	10514	-12929	-28113	-15712	-136	-17632	22727	-26663	-4503	-16760	-3336	14120	-2984	677	64	-10216	8272	13240	198	1003	-575	-18824	3760	-3632	211	1568	-309	-18008	4008	600	670	1072	38	119	127	1
-32768	6448	-11648	11033	-5271	-22158	-11676	976	-18220	18288	-13434	653	-15552	-8992	15440	-1801	599	-553	-10136	10216	13696	169	1391	-799	-19152	3856	-4672	196	1802	-355	-18536	2416	-592	360	920	-11	127	127	1
-32768	7584	-12596	10953	-4210	-19536	-8436	3200	-19072	12146	690	1473	-18864	-13240	11584	-358	239	-1147	-10464	8584	14216	27	1991	-1110	-20440	3424	-5272	83	2018	-391	-19304	2920	-1224	566	836	-51	121	128	1
-32768	6120	-9796	-1665	6968	2829	-8548	3344	-18616	-877	12502	-725	-21968	-8240	6456	1291	-633	-696	-11824	6152	13672	128	2577	-1323	-21416	2040	-5352	257	2096	-425	-18928	4016	-584	831	868	-107	129	126	1
-26740	-444	-5392	-1963	10444	7028	-12236	-1148	-16252	-5400	19860	-765	-15888	664	2992	1569	-271	-163	-11176	7640	13288	206	3232	-1626	-21520	3616	-3872	493	2221	-475	-19960	4800	2592	842	921	-184	130	129	1
-19980	-8680	11700	6404	21750	16033	-21656	-6596	-420	-6650	21016	-1163	-11176	7192	-2936	122	811	44	-11872	10328	12488	267	3831	-2217	-22008	5728	-1512	691	2376	-480	-21368	4128	5504	658	636	-88	132	127	1
4092	-8748	16964	1584	24640	13061	-32512	6384	10804	5447	14914	-4786	-19976	4968	2584	-785	-107	496	-11336	12584	12632	329	4455	-3099	-24736	7208	584	840	2570	-506	-24648	4664	9808	680	54	-13	135	133	1
-32768	-5040	22368	312	27150	11455	-25328	3548	-8468	4933	20392	-1819	-24744	-13856	6080	872	-138	1238	-11880	14640	11824	626	5331	-4176	-28120	5568	4152	1247	2766	-436	-26072	7560	12792	885	-821	-49	140	131	1
-18160	-15852	9644	-1281	21745	8934	-18992	-3592	-5704	8060	23041	4855	-16664	-6256	-200	4565	23	26	-19216	13904	14088	895	6185	-5152	-28600	2288	5192	2031	3036	-110	-18736	-6648	6584	-498	-2427	-50	134	126	1
-10068	3224	13704	2512	8353	7762	-15524	-8376	-7060	21170	18032	3521	-12832	13992	-17320	4261	769	-1061	-25768	-6656	12744	2001	6772	-4556	-21808	3496	-7560	2315	2926	97	-22064	-6040	4488	-191	-2341	-318	125	129	1
-12420	-6240	10448	3705	3030	3065	-14820	2956	-12792	23586	13264	3863	-9144	13736	-3872	531	1589	-941	-28864	23016	10760	2221	6129	-4038	-27392	7664	-5568	3160	2991	-600	-20480	2832	-10952	1529	-3100	-503	133	132	1
-11268	-6008	12556	2603	1584	410	-18904	4056	-8800	10424	11070	694	-15824	8336	-9856	-669	2110	425	-27120	26696	19672	1368	4965	-5006	-28496	9072	-4584	3248	2888	-589	-22320	3744	-13016	2065	-3049	-458	128	131	1
-9348	-6572	12024	833	1368	-592	-15876	5484	-7072	-1832	9641	-2784	-16480	-856	-8648	-1232	1843	1026	-32768	30496	25096	-1807	1155	-3939	-14288	5912	-15536	11	1627	437	-26568	-128	-9808	1064	-3849	384	129	134	1
-9652	-5848	12144	71	1367	-582	-14212	2104	-6056	-14683	8514	-6193	-18736	-5328	-4704	362	1927	357	-4264	16448	21728	595	-2259	1427	-18320	-624	-2720	19	973	-413	-27544	4728	-6464	252	-3835	365	127	133	1
-9188	-6608	11592	-381	1473	-523	-18356	-2264	-3924	-14265	6849	-6135	-18408	2664	-3200	906	1700	27	-4168	17784	14368	623	-2703	2566	-13824	1704	-2248	736	-217	121	-25296	6168	-4896	-457	-3546	1015	125	134	1
-9044	-7132	11192	-304	1516	-570	-17532	-4920	-2172	-4775	5609	-3502	-17848	4064	-1008	352	1709	615	-5176	10360	13928	-295	-3583	2657	-6392	3464	-4432	306	-1576	756	-24856	5720	-5064	-561	-3505	1125	127	121	1
-9356	-7120	11352	-425	1505	-658	-16332	-3872	-2556	3297	4552	-428	-15616	664	-152	33	1588	897	-3056	4248	12832	30	-4413	3194	-8120	2976	-2888	-765	-2360	1057	-19288	680	-5232	-549	-3059	861	126	121	1
-8548	-6864	11144	-512	1412	-586	-16384	-1468	-2688	4926	3947	471	-13584	-280	-968	-53	1799	774	-6576	6328	11232	329	-4809	3343	-10856	1976	-4592	-1718	-3022	1145	-16776	1184	-6712	-504	-2705	643	126	128	1
-8948	-6948	10928	-311	1304	-438	-15944	400	-3096	139	4143	-435	-13728	1128	-1160	-377	2115	511	-4944	5152	10648	246	-5010	3201	-11312	104	-3792	-2098	-3942	1164	-13648	1584	-8464	-633	-2188	412	125	132	1
-9020	-7028	11024	-201	1124	-269	-15668	-56	-2724	-5404	4427	-1757	-16744	3696	-912	-705	2330	343	-9512	6704	12696	373	-4815	3570	-12944	-2944	-6864	-2370	-4693	1044	-11144	2088	-8712	-896	-1901	327	126	134	1
-9076	-7004	11228	-245	1255	-59	-16036	-788	-2800	-8212	4097	-2331	-17296	4408	-744	-1204	2624	420	-13416	5784	15032	355	-4794	3935	-15704	-4000	-7968	-1935	-5260	991	-8096	3008	-8288	-1388	-1567	195	126	131	1
-9304	-6972	11008	-223	1307	144	-16636	-2532	-2576	-8116	4158	-1955	-15840	2144	208	-1677	2904	426	-18160	3328	17744	778	-4837	4004	-15952	-3976	-8184	-1824	-5352	987	-6000	3064	-7496	-2400	-1235	13	126	131	1
-9316	-6232	11216	-290	1632	305	-16308	-2468	-1184	-5364	4869	-465	-15520	1120	328	-1742	2920	409	-23488	2584	18584	1361	-4880	3689	-19648	-4528	-11696	-221	-6055	1153	-5280	3216	-5744	-2722	-1268	-129	126	126	1
-9180	-7396	10732	-408	1944	636	-15560	-2192	-152	-4100	6389	1011	-15784	-2216	752	-1625	2326	576	-27600	7752	17744	1159	-4988	3001	-20624	-1504	-12344	1009	-6104	1524	-6520	2352	-2264	-2367	-1235	-194	125	127	1
-7708	-8876	9944	-22	2140	1389	-15360	-2552	520	-2660	7934	945	-17928	-3168	-2440	-536	1431	572	-30160	8768	16312	1217	-4994	2713	-22176	2992	-13240	886	-5860	1881	-7952	-3176	1376	-1265	-1071	-185	126	127	1
-7732	-9504	10944	265	2179	2028	-16224	-2560	-1372	-23	9121	1286	-17608	-2936	-4776	114	1027	466	-31184	11168	14248	1403	-4681	2828	-22008	5432	-13280	-114	-5571	1896	-8712	-7992	4480	77	-767	-58	125	119	1
-9228	-7004	11756	-746	3370	2311	-18076	-24	-3188	1278	10109	2916	-18856	632	-1648	373	1336	269	-32296	9704	9896	1267	-3943	3078	-22088	4680	-14200	-1443	-5086	1652	-12976	-7944	7912	1359	-439	-171	125	138	1
-8996	-7228	12468	-1517	5216	2601	-17652	476	-2144	-664	11805	2893	-18104	1280	-48	113	1040	410	-32768	5008	4848	627	-3030	3457	-20736	1664	-17824	-1995	-4273	1072	-18816	-2456	11856	2434	-404	-301	124	122	1
-9172	-7216	12772	-2399	7928	3559	-16708	840	-1380	-1760	13506	1798	-17272	3384	568	-98	830	484	-32768	-2352	-5624	-424	-1995	3230	-18128	-880	-20264	-1803	-3007	438	-17472	1896	20120	2784	-785	-58	125	123	1
-9524	-7876	12832	-2826	10725	4177	-17520	-528	-2260	-1100	15901	2214	-16904	3552	3600	-252	844	362	-32768	-12256	-13448	-607	-695	2162	-12008	1456	-22800	-935	-1371	233	-16640	9736	21320	861	-1105	949	125	131	1
-10228	-7600	13784	-1968	14584	5516	-20064	-1992	-4104	2578	17232	3472	-19128	4688	1656	-898	833	153	-32768	-13296	-19432	-25	160	573	-6056	2424	-22808	-778	547	148	-17280	17960	16960	-134	-255	1605	125	139	1
-11620	-7088	14396	-1396	19765	7895	-24420	-3516	-5540	5773	18476	2601	-20840	3216	-1656	-1258	636	327	-32768	-8056	-11344	99	1426	-181	-6288	-1016	-22088	-642	2102	16	-17008	6688	8320	-960	321	235	127	132	1
-10884	-7932	14172	-2664	25037	10152	-21820	1364	-2968	2032	20726	2600	-20848	-1760	-2192	-954	536	529	-17624	-1552	-4112	-2360	3099	-2062	-14376	3296	-18592	-164	3155	-53	-15376	1008	9176	-1614	367	-708	127	123	1
-10736	-8596	13724	-3782	30691	13558	-21928	948	-2776	-2545	22365	274	-20752	-2688	96	-631	322	339	7448	15296	32767	-778	2211	-1503	-32768	1520	19680	184	1692	-152	-2064	6608	-5400	-941	1053	-276	126	133	1
-10112	-9632	14280	-4741	32767	18114	-21952	704	-2336	-3322	22649	52	-23520	-1624	4016	-409	84	145	-30832	-2808	23248	-390	3759	-2632	-24584	-7120	-13616	37	2939	-255	-28072	16160	8768	-431	-957	491	127	136	1
-10464	-10468	14580	-7181	32767	24473	-29408	-2576	1060	-6162	22618	699	-28176	-3816	9032	-285	-675	18	-8744	23128	7400	-633	2794	-1510	-14632	8048	-7376	199	3304	-1071	-21384	2400	-1408	-4994	1905	151	129	144	1
-17952	-25452	11936	-8753	32767	32767	-28292	-2068	8176	-13394	27911	1553	-22032	-3416	16656	-1201	-3588	-445	-22344	-5520	17872	-840	994	-1341	-8992	16712	-11920	-2501	2818	-677	-20776	-9096	-12584	-2310	1318	448	127	135	1
-26180	496	14872	-16481	32767	32767	-23584	80	-5776	-12982	27408	-4774	-17600	8784	3144	-828	-2440	-500	-13928	-4864	16344	-785	861	-1457	-15088	880	-16848	-4593	1987	-479	-14216	-6352	-4656	554	1245	1222	126	114	1
-32768	-6904	16948	-19419	32767	28247	-23616	-456	-3888	-22306	28874	6649	-20224	3696	-15552	-1526	-1835	-1224	-12584	4872	13560	-532	95	-245	-27040	-13832	-12840	-1736	1745	-408	-14656	7248	-7272	1588	1802	994	126	115	1
-32768	-21380	19092	-8821	32767	30895	-26360	-8132	-13452	-15629	26029	478	-23568	1328	-15160	-1964	-2087	-1874	-10816	6184	13016	-205	111	-35	-14448	-3624	-9008	1868	1257	227	-15424	12392	-5912	-187	1837	833	127	129	1
-27844	-10380	14168	5007	18209	21000	-18468	-3896	-9736	561	18001	5989	-27800	3376	-10792	-691	-2518	-2122	-9016	6936	12368	-35	162	20	-16368	3656	-4912	2403	839	590	-20816	3912	-2680	-1441	1720	368	129	135	1
-824	-18232	18804	3472	-7916	-2751	-17812	1556	-3356	1977	7084	10939	-27848	2232	-7080	1416	-3122	-1609	-9648	7848	11760	16	200	-5	-16720	9944	-5000	1403	723	476	-21512	-2392	32	-497	1813	54	127	137	1
-3804	-9456	13552	5112	-8476	-4365	-10760	-1312	-1644	3142	-1205	5083	-24464	4728	-6816	2011	-3445	-1670	-9352	6936	12184	-18	196	-10	-14472	7896	-4464	-215	634	163	-20640	-2920	336	-139	1824	44	128	131	1
-5608	-7472	13656	4274	-18451	-8612	-5788	112	-6344	4887	-9967	2783	-22016	8000	-4872	1507	-3222	-1775	-9280	7184	12048	29	227	13	-17776	3960	-4448	-687	602	-38	-14104	5072	912	1172	1802	-341	127	129	1
-5152	-7452	12344	3063	-30986	-13136	-6180	-128	-5232	3733	-18501	1884	-19008	8888	-4288	1032	-2750	-1379	-9968	8064	11184	55	247	2	-17384	3568	-5000	-240	661	-85	-14640	8952	128	924	1959	-22	129	123	1
-5592	-6568	9784	1912	-32768	-15445	-8672	920	-3676	4266	-25024	167	-16288	7168	-4720	614	-2280	-1147	-9768	8112	11264	22	197	-35	-16936	3504	-4960	-121	650	-73	-14896	5520	-336	520	2116	479	129	124	1
-3396	-6340	7744	1145	-32768	-17455	-9240	4320	-2948	2724	-31117	-1387	-14184	5392	-5880	406	-1846	-1092	-9728	7168	11424	18	151	-68	-15160	3376	-4336	1201	158	250	-16528	440	-120	526	2168	475	128	132	1
-5732	-6536	7172	-86	-32768	-20842	-7384	4168	-4548	40	-32768	-3222	-11536	4088	-7344	394	-1434	-934	-9672	6776	11648	54	136	-62	-16304	4024	-3616	1234	207	253	-18328	-2760	272	1160	2124	230	128	135	1
-10332	-8084	9260	113	-32768	-25008	-9308	2460	-6008	-1024	-32768	-5904	-8904	2800	-8104	785	-1143	-672	-9784	7032	11680	90	144	-57	-15920	5080	-3352	1044	308	172	-15776	-1232	808	2260	2122	-357	126	124	1
-13312	-7548	11796	701	-32768	-28850	-12632	2240	-7736	990	-32768	-7506	-6304	2680	-8664	1411	-1025	-313	-9640	7536	11584	114	147	-70	-15344	5176	-2848	745	440	101	-13736	2264	2136	1981	2076	88	128	131	1
-18284	-6484	12808	-1246	-32768	-30738	-14808	2616	-8532	2228	-32768	-6662	-4360	3776	-8464	2107	-938	55	-9944	7992	11296	92	123	-98	-15568	5608	-3144	698	518	1	-14280	7648	3344	1921	2463	430	126	120	1
-20228	-5204	13524	-2999	-32768	-28910	-16520	3896	-9140	-417	-32768	-7624	-3296	4240	-7832	2307	-824	319	-9424	8696	11240	28	93	-167	-15680	5168	-2112	788	558	-56	-15872	10328	2528	1719	2733	523	127	127	1
-24468	-7160	14080	-4229	-32768	-22931	-24452	3280	-8844	-3846	-32768	-10362	-3976	5392	-6288	2036	-640	354	-9832	7360	11408	4	83	-241	-15584	4984	-2920	707	682	-108	-17056	7376	808	1174	2499	204	127	130	1
-32768	-10356	17932	-6027	-32768	-21615	-24216	2992	-14848	-3698	-32768	-11627	-6224	7472	-1680	1321	-166	133	-9552	7304	11704	23	122	-278	-15992	4224	-1752	551	879	-202	-16560	4016	-2112	519	1521	138	128	132	1
-31600	-15924	15864	-4443	-32768	-23095	-31248	640	-13768	-1773	-32768	-14023	-6864	7776	-568	1137	-146	118	-9528	7440	11792	52	180	-368	-16104	3696	-1728	334	1104	-170	-16456	2976	-1592	71	1120	17	128	133	1
-32768	-12624	8664	-2173	-31896	-29702	-24588	300	-15528	6006	-32768	-12092	-17088	6944	13952	8	-1169	130	-9640	8032	12208	124	339	-399	-17016	3520	-3232	108	1290	-211	-17232	4712	2272	-129	1101	-96	127	131	1
-32768	-7676	3440	3668	-23986	-32174	-21432	-2060	-15700	12266	-32768	-9548	-23184	1096	12432	-1368	-846	359	-9680	6832	12984	220	677	-469	-18720	3400	-3416	100	1454	-293	-17656	4104	3472	324	1246	-60	126	131	1
-32768	3612	-2280	10783	-16064	-29311	-16584	188	-16352	17101	-29114	-3507	-20168	-5568	14512	-2139	591	139	-9952	7696	12792	227	1020	-580	-18024	3624	-3656	191	1650	-317	-17688	1832	2144	479	1180	119	120	128	1
-32768	9588	-12808	8100	-9212	-16864	-12004	-308	-18456	15874	-15240	1305	-18544	-7432	21280	-1389	434	-558	-10320	9664	13552	124	1414	-762	-18144	4000	-3472	152	1931	-395	-18496	896	976	497	944	56	122	129	1
-32768	12264	-17732	-1164	-897	-2707	-7432	5224	-19184	4285	2054	887	-20216	-9664	15992	-307	-79	-1018	-10592	8128	14392	73	1961	-1052	-20280	3000	-5576	11	2220	-403	-19432	3496	216	699	796	-52	125	130	1
-32768	4188	-11252	-2821	6937	5854	-8024	2084	-18216	-8086	14530	-2414	-21456	-6392	9752	697	-544	-729	-10888	8056	14400	58	2584	-1363	-21560	2864	-5448	182	2293	-457	-19136	6184	-976	931	764	-204	127	129	1
-32240	3152	-10320	-2876	7681	6236	-13352	-3416	-14476	-6702	21926	-703	-15088	2584	4360	530	-128	-134	-11600	8048	13368	155	3222	-1621	-21528	3240	-4288	399	2428	-469	-19704	6456	1032	762	760	-283	131	131	1
-17480	-11296	9284	6361	23234	13549	-21940	-7332	-564	-2417	22332	303	-12136	8208	-2488	-710	1231	73	-11552	10424	13192	214	3853	-2222	-22664	5024	-1968	688	2577	-452	-20728	4512	5616	480	566	-161	130	128	1
88	-2876	20380	265	23541	9339	-30076	4616	11116	8211	16558	-2180	-13576	1784	-1096	-1230	14	-105	-10400	12528	13176	311	4558	-3111	-25568	7288	-832	876	2722	-411	-24712	2488	9600	288	32	54	130	132	1
-32768	-180	24388	-1336	29159	9268	-25512	7360	-10112	10102	20589	97	-23232	-18248	2840	181	274	941	-12144	17264	14088	652	5495	-4295	-29992	6536	4368	1326	2834	-336	-28128	4456	12560	530	-1330	106	129	127	1
-16108	-10836	11804	-1879	22021	9163	-19676	-2712	-6528	5707	24229	5186	-19120	-7640	-1960	4775	-214	-14	-20744	9600	13128	906	6492	-5332	-28488	1680	2648	1934	3009	97	-17432	-8544	336	290	-1561	-440	115	125	1
-27304	-8700	13876	1736	8401	7510	-16104	-9516	-10188	17534	19623	2327	-14432	11936	-16264	4733	514	-808	-28592	-4368	13320	1947	6839	-4770	-21832	2848	-8936	2582	2960	294	-23824	-5448	3264	738	-2507	-569	128	127	1
-15616	-8300	11220	4235	3222	4343	-13388	1104	-13016	23067	13964	3550	-9560	14144	-4192	986	1422	-517	-32768	24808	12672	3014	6781	-4099	-27256	6528	-6128	3524	2795	-260	-21432	3880	-10632	2488	-3129	-585	120	133	1
-13880	-7564	10568	4521	3090	4406	-18000	5444	-8964	10889	11494	1703	-14216	9832	-9336	-244	1919	409	-31064	25560	19136	2147	5235	-4653	-21312	9688	-4008	3112	2245	311	-25032	3744	-15744	2960	-3346	75	127	134	1
-10016	-6256	11916	1807	1008	221	-17688	5024	-7620	-1037	10487	-2109	-17072	32	-8592	-989	1722	735	-32768	32767	22696	-1340	1081	-3777	-13344	6968	-20096	641	1645	611	-25544	1064	-10328	1285	-3730	561	127	133	1
-9792	-6132	11932	772	914	-99	-14660	2372	-6860	-12358	9290	-5147	-19456	-3632	-5048	141	1941	223	-168	17672	20720	108	-2536	1267	-17408	1792	-1680	615	858	-399	-27640	6080	-6016	146	-3798	564	127	132	1
-9220	-6876	11372	400	1119	-212	-18172	-2140	-4312	-12232	7471	-5657	-18544	3408	-4000	676	1821	78	-4200	13928	13640	364	-2544	2191	-13096	2768	-2120	842	-375	263	-25392	6880	-4464	-504	-3594	1102	126	131	1
-9208	-6744	11484	436	1345	-231	-17872	-4212	-3948	-2765	5655	-3536	-17520	4416	-1392	124	1898	594	-4792	11240	13168	129	-3736	2878	-5176	3192	-5192	-297	-1496	648	-21888	3096	-5032	-648	-3279	1291	124	123	1
-9320	-6704	11488	171	1499	-320	-16084	-2704	-3416	4165	4509	-339	-15096	1656	-800	-141	1777	828	-1992	6776	11672	-23	-4293	3270	-7016	3736	-1128	-998	-2346	1070	-18456	776	-5712	-728	-2896	905	127	123	1
-9200	-7056	11096	-144	1529	-453	-16404	-888	-3168	4270	3923	530	-13880	88	-1464	-288	1912	838	-5544	5120	10512	190	-4706	3476	-10664	1448	-4744	-2158	-3018	1272	-16064	64	-6304	-731	-2578	653	126	125	1
-9488	-7480	10812	-11	1227	-241	-15932	-8	-3252	-379	4009	-670	-14032	-56	-1744	-291	1948	819	-6192	5280	11120	457	-4922	3625	-10928	-816	-4288	-2434	-3776	1165	-12560	1464	-8184	-807	-2002	399	125	132	1
-9380	-6896	10792	74	1065	-20	-15256	284	-3364	-5158	3991	-1871	-16392	3008	-1424	-653	2410	432	-8120	6408	12240	383	-4860	3860	-12912	-3584	-4800	-2369	-4625	1109	-10688	2200	-7688	-1065	-1777	283	125	132	1
-9160	-7160	10916	-107	1057	21	-16352	-844	-2504	-7901	3958	-2363	-17016	4008	-808	-1051	2636	497	-12024	4264	15104	392	-4677	4161	-14960	-5168	-6848	-2027	-5223	1100	-7896	3104	-8232	-1588	-1433	110	125	134	1
-9456	-7284	10864	-122	1239	504	-16520	-2240	-2608	-5749	4001	-1885	-15608	2144	0	-1529	2786	515	-17632	2136	18864	755	-4708	4093	-17800	-4736	-9136	-1316	-5673	1027	-7104	3096	-8208	-1788	-1343	87	126	131	1
-9696	-6860	10616	-85	1627	692	-15804	-2364	-2212	-3699	4667	-310	-14416	-1376	1288	-1784	2853	518	-22192	3272	19776	1252	-4867	3712	-19704	-5024	-10536	-204	-6000	1158	-5576	1848	-6240	-2691	-1163	-225	126	126	1
-9500	-7700	10640	-291	2053	717	-15932	-1664	-864	-2536	5626	855	-15512	-2184	736	-1823	2557	543	-26720	7464	19936	902	-5072	3131	-21384	-1808	-11768	779	-6184	1428	-7304	2128	-3400	-2304	-1187	-265	125	127	1
-9352	-7372	10784	-275	2159	1104	-15284	-1052	-452	-2737	7304	721	-17288	-976	-2512	-733	1481	604	-29736	9360	18088	798	-5069	2832	-24464	2592	-13224	655	-6129	1697	-9024	-1640	0	-1469	-1056	-139	125	128	1
-9564	-7272	10792	-210	2553	1430	-15788	-1676	-800	-2256	8608	966	-16512	-544	-3968	488	977	483	-32496	11632	15264	970	-4831	2893	-23320	5000	-14944	-375	-5851	1653	-9624	-6536	3112	-38	-755	192	125	119	1
-9392	-7684	11456	-658	3255	1947	-17472	-1556	-2128	-610	10101	2146	-20120	-736	-1544	461	1321	220	-32768	10976	8472	802	-4017	3103	-22952	5304	-14888	-620	-5788	1620	-12216	-8560	7032	1206	-494	9	125	132	1
-9492	-7800	11952	-1551	5013	2751	-18900	368	-2404	-410	11574	2739	-20544	-712	-1192	424	1331	217	-32768	5232	904	96	-3096	3388	-19456	2984	-18712	-2213	-4364	894	-18088	-2752	11976	2446	-474	-286	123	132	1
-9776	-6776	12416	-2378	7712	3834	-17500	740	-1228	-496	13904	2313	-16912	944	624	-490	674	421	-32768	-3456	-8112	-825	-1895	3233	-17208	-1032	-22024	-2284	-2921	353	-18480	1840	22928	2891	-658	-168	125	123	1
-11120	-6920	12876	-2244	10935	5075	-17960	248	-2268	-233	15428	2088	-16120	4048	3496	-252	868	338	-32768	-15048	-15016	-810	-633	2250	-11880	1216	-24672	-987	-1256	49	-17664	11024	23160	754	-1084	587	126	134	1
-10372	-7156	13852	-1099	15227	6373	-19880	-612	-3812	2215	17816	3480	-19600	6168	2552	-560	867	117	-32768	-15944	-21088	86	77	221	-6120	2552	-23824	-472	712	105	-17320	17056	16008	-476	-184	1236	129	163	1
-10484	-7660	14532	-952	20466	8809	-21388	-220	-3680	3348	19693	3541	-21384	3152	-96	-1348	665	311	-32768	-7520	-12032	490	1262	-717	-4936	-272	-23360	-72	2180	186	-17080	4928	7464	-958	398	182	127	124	1
-10548	-7880	14576	-899	21390	9327	-21192	1088	-3268	1936	22072	2274	-20616	-1952	-1360	-1398	496	524	-12544	-12608	14136	-2385	2994	-2529	-20824	7232	1328	1277	2981	220	-17352	-2088	29696	-2363	-1084	-659	125	136	1
-14092	-7628	14820	-3045	29884	13804	-21816	-120	-1476	-939	23356	367	-21056	-4824	944	-774	362	403	-11904	-600	17896	-884	2620	-2320	-32768	-8888	3568	-1386	2454	-111	-6384	7168	-1432	239	590	-162	127	128	1
-10452	-10432	14276	-3180	32767	20037	-27412	-3684	624	-2565	24946	636	-25072	-5256	5240	-291	-19	149	-32768	15152	21272	-306	3243	-1817	-17960	-1392	-8232	106	2935	-1075	-26344	16800	4248	-1486	-439	706	128	125	1
-12040	-12348	16324	-6047	32767	27927	-31400	-2556	4120	-7158	24586	1499	-28760	-7224	9816	-6	-1387	-89	-17008	15736	9144	-921	2959	-1286	-9568	11176	-11640	-1007	3141	-814	-20648	-3152	-9536	-4399	2147	651	128	143	1
-19924	-15040	12732	-9769	32767	32767	-27160	-1340	2140	-10701	28628	-1577	-17064	4152	4304	-394	-2805	-717	-16816	4392	13744	-574	866	-1190	-13056	12024	-14240	-4025	2381	-584	-11584	-10184	-9240	-678	904	675	126	164	1
-27236	7240	16492	-17490	32767	32767	-22340	2132	-7668	-16530	27534	-1825	-19128	8544	-1720	-456	-2102	-755	-14104	400	15336	-757	91	-537	-21408	-5552	-16016	-3932	1805	-366	-10448	-11168	-7080	-452	981	920	125	116	1
-32768	-18912	15168	-14828	32767	29927	-26648	-5420	-5888	-25269	27485	5437	-22752	1928	-19520	-1368	-2077	-1221	-11520	5520	13352	-255	102	-49	-22616	-11344	-10768	469	1514	-43	-16592	9232	-6800	931	2008	825	127	125	1
-24104	-21280	18776	-3298	30293	28770	-22676	-7064	-11824	-11186	23051	2747	-25376	1712	-14400	-1168	-2093	-2054	-10256	5856	12344	-29	144	27	-13304	-80	-7424	2762	889	618	-17104	9280	-4896	-878	1888	643	127	126	1
-32768	-17572	28508	5091	3229	8602	-15508	1448	-8880	3705	14197	8321	-27040	2912	-8208	597	-2733	-1886	-9408	7416	11736	60	185	44	-18568	7192	-4968	2359	707	613	-19432	2392	-1240	-1125	1965	273	128	130	1
1740	-16176	15000	4598	-6829	-6166	-14796	-2124	-428	-146	3343	10422	-26672	3320	-7264	1960	-3352	-1535	-9688	7656	11712	61	189	42	-15120	10568	-4304	970	561	367	-17632	-2136	1136	4	1901	119	128	131	1
-3460	-9136	12796	5655	-10814	-8543	-8460	-468	-3960	5777	-5217	4922	-23728	7040	-6960	1947	-3369	-1709	-9640	6496	11984	-9	200	17	-15216	6728	-4280	-570	557	69	-15192	-344	800	973	1893	-155	128	132	1
-5264	-7392	13460	4251	-22283	-13396	-500	-848	-6404	4802	-13656	3206	-20824	10168	-4440	1321	-3014	-1600	-9816	7008	11784	33	215	32	-17496	3672	-4392	-767	590	-97	-15336	6000	504	1000	1984	-239	128	128	1
-4100	-7020	11048	2955	-32768	-16297	-7184	-140	-4148	6415	-22274	2247	-17272	9616	-4336	828	-2469	-1134	-9904	7792	11216	43	198	27	-16832	2640	-4088	-102	661	-132	-14352	7048	1040	635	2166	154	129	126	1
-2540	-5980	8300	1686	-32768	-16280	-8916	2692	-2780	5518	-28573	-324	-14544	8128	-4704	363	-1998	-1059	-9744	7808	11256	15	154	-25	-14704	1352	-3552	902	400	139	-15376	2968	1040	383	2215	537	128	124	1
-5840	-6368	7984	80	-32768	-17470	-6740	5332	-3372	1646	-31855	-2945	-11904	6848	-5568	155	-1568	-978	-9768	6944	11568	26	147	-69	-16008	3536	-3152	1517	207	347	-16728	-976	856	844	2241	478	127	139	1
-7800	-6688	9064	-1472	-32768	-21138	-7116	4552	-4912	-3304	-32768	-5808	-8784	5640	-6768	51	-1128	-737	-9912	6152	11512	55	142	-67	-15984	5096	-3160	1390	321	275	-16432	-1160	1184	1569	2151	262	129	129	1
-12364	-8812	12104	-2249	-32768	-27637	-10844	3216	-6320	-3993	-32768	-7844	-7104	4360	-7920	84	-884	-486	-10008	7168	11464	72	135	-66	-15064	6088	-2392	858	550	68	-14664	1120	2008	2117	2077	38	126	125	1
-14976	-8096	14152	-1076	-32768	-32429	-15848	2212	-6968	-2989	-32768	-8745	-5888	1704	-7632	669	-785	-177	-9984	7624	11392	58	127	-85	-15256	5736	-1984	384	610	-10	-13616	5368	2928	2058	2183	221	126	125	1
-19740	-5364	14708	-3341	-32768	-31158	-18052	3136	-8180	-1375	-32768	-8544	-4568	1416	-6560	1786	-789	175	-9608	7688	11304	44	128	-118	-15736	4152	-3056	323	710	-55	-14904	8128	2144	1777	2449	407	127	124	1
-24032	-7980	14356	-5333	-32768	-27105	-19108	4096	-9456	-2272	-32768	-9554	-5112	3208	-5608	2438	-1053	339	-9872	7056	11464	34	122	-157	-16112	3968	-3648	563	771	-78	-16936	8112	488	1174	2532	343	126	128	1
-27576	-10884	17092	-2318	-32768	-24640	-22832	2776	-10904	-3410	-32768	-12176	-6512	4432	-4632	2429	-834	125	-9848	6824	11200	41	155	-181	-16144	3800	-3160	764	831	-96	-16072	4848	-1824	466	2162	235	125	131	1
-31208	-11688	18340	-3775	-32768	-26323	-27904	2544	-12764	-1011	-32768	-11693	-9704	6856	680	1266	-550	-231	-9712	7464	12000	60	237	-178	-15832	4864	-1128	619	1020	-187	-16352	4936	-2048	117	1459	44	129	130	1
-32768	-14048	15012	-3471	-32768	-27667	-28000	172	-14068	1490	-32768	-12115	-12328	7464	8000	-219	-583	-352	-9640	7440	12632	127	394	-255	-15832	4472	-1664	177	1369	-279	-18768	6840	1264	-289	1121	-122	127	134	1
-32768	-13336	6604	2300	-31373	-29378	-22276	-1556	-14940	8413	-32768	-10741	-12992	7080	8584	-369	-633	-310	-9568	7656	12960	229	607	-336	-18096	3624	-3208	-25	1610	-326	-18608	5360	4776	-230	1070	-101	130	131	1
-32768	-11416	-3520	6759	-21773	-28585	-21260	-3000	-16192	15511	-32768	-8633	-20728	2184	15608	-2678	-158	420	-10000	7600	13160	262	933	-501	-18496	2456	-4048	106	1794	-309	-16248	-296	2744	384	1077	125	125	127	1
-32768	15116	-8672	2047	-9149	-29698	-13184	2492	-17148	11694	-21123	-2614	-22336	-11128	22528	-2665	229	87	-10928	6856	13096	190	1323	-623	-18760	2488	-4096	188	1813	-293	-16968	-2000	2112	451	1055	191	119	131	1
-32768	13588	-16888	3627	-2212	-10503	-7520	-2004	-19956	7672	-4333	-1539	-21032	-19192	19440	-740	-171	-814	-10776	8224	14160	85	1890	-931	-19440	3392	-4792	114	2235	-440	-19504	736	776	937	878	116	119	130	1
-32768	10832	-14700	-3616	4046	4498	-6668	4684	-19376	-1094	10892	934	-20312	-8056	9896	1227	-638	-1048	-11376	7592	14512	89	2525	-1216	-21168	2552	-5656	140	2465	-428	-19760	4336	80	1583	688	-90	125	126	1
-29200	-2688	-8024	-5145	9088	8887	-12364	268	-16860	-7058	20440	-325	-17752	672	3304	1803	-624	-524	-11120	8688	14216	212	3231	-1566	-22336	2616	-4560	404	2645	-470	-19480	6704	40	1468	529	-268	135	129	1
-17320	-3012	-10476	9611	27817	18220	-17404	-7384	-15896	-594	25166	-2940	-13608	7288	1584	303	495	-87	-11032	10264	14232	353	3992	-2201	-23448	4560	-2720	794	2766	-378	-19512	7120	784	1350	526	-275	137	127	1
1020	-14724	26728	5503	23328	12470	-32768	2240	19744	4992	18144	467	-10216	584	-3496	-597	-172	29	-11168	12080	14328	476	4854	-3191	-27640	7064	-2280	1068	2883	-276	-25920	5904	11600	343	-143	7	121	133	1
-32768	-1080	21020	1636	31480	13663	-26052	7192	-12216	15726	22450	272	-26904	-17432	1576	-111	561	1368	-9640	17368	14832	845	6004	-4680	-32768	6336	5192	1617	3066	-222	-31072	5960	21840	-375	-2366	197	132	127	1
-14332	-10260	10652	541	23602	10180	-17116	-2792	-8324	8507	26153	6459	-17616	-768	-5552	4976	41	-198	-17528	11216	14048	1272	7048	-5689	-30192	1952	1360	2249	3159	223	-21720	-7480	3464	542	-1533	-321	122	127	1
-23052	-2616	13592	4758	8872	10571	-15772	-9624	-11956	22942	19836	4633	-13368	13760	-18128	4465	487	-1092	-20712	-7528	9984	2879	7733	-4594	-22624	2400	-6880	3142	2981	232	-23256	-3680	-1728	971	-2972	-690	116	129	1
-19128	-4356	13276	5914	2902	5100	-12568	3100	-15948	29663	13399	3005	-11144	16184	-5240	1226	1389	-664	-32768	17032	13784	2911	6646	-4501	-29360	10528	-5288	4111	2650	-487	-24296	4944	-14496	3139	-3300	-501	131	131	1
-10984	-4580	12952	3313	2029	1117	-19036	9848	-10912	7778	11856	-204	-16488	8848	-10440	-378	1917	504	-28592	32767	22312	1415	4482	-5167	-17776	12992	-11648	2401	2288	569	-26112	1864	-15688	2741	-3573	346	133	131	1
-10172	-6420	11856	1151	1600	-616	-15152	4616	-8184	-9375	11660	-4310	-17728	-1536	-8152	-1118	1878	968	-32768	24728	32767	-782	-1123	-1692	-11600	-1720	-12432	-435	1144	365	-28432	2496	-7864	896	-4081	527	126	132	1
-9728	-7248	11360	333	1496	-389	-15976	-884	-5696	-16791	9649	-6637	-18864	-3960	-4824	152	1971	343	7312	19096	15304	843	-2729	1873	-19352	2048	3040	965	342	-276	-27936	7696	-4872	-117	-3915	593	128	134	1
-9428	-7040	11236	220	1550	-108	-18524	-4976	-4336	-10918	7163	-5528	-17944	2448	-3096	559	1866	60	-5216	15464	12456	394	-2877	2355	-8240	2544	-6464	385	-967	628	-24672	5880	-4624	-454	-3617	1272	128	126	1
-9132	-6648	11396	324	1717	-74	-17152	-4144	-3736	-1012	5508	-2071	-17896	3408	-1120	66	1892	478	-4096	10360	13216	-231	-4022	3033	-3848	3016	-3160	-371	-2053	882	-20840	1320	-5536	-423	-3253	1181	127	120	1
-9448	-6476	11336	15	1775	-208	-16352	-2348	-3600	4864	4337	353	-15272	1096	-1040	-244	1840	761	-3656	9320	13216	-281	-4146	3144	-8456	3320	-1936	-1432	-2896	1285	-17224	240	-6712	-459	-2817	832	126	124	1
-9444	-7064	10884	-111	1714	-280	-16356	-692	-3768	4629	4022	696	-13936	-784	-1232	-263	1955	908	-6544	4736	10688	91	-4862	3626	-10856	888	-4416	-2347	-3649	1310	-13984	728	-7784	-561	-2339	622	125	130	1
-9488	-7360	10740	-183	1652	-232	-15348	892	-3724	-126	4491	-689	-13520	1536	-1208	-385	2132	674	-6744	6576	11824	175	-4965	3717	-11344	-856	-4936	-2710	-4394	1132	-10992	2520	-8824	-801	-1810	516	126	131	1
-9396	-6852	10752	-224	1193	-127	-15060	1412	-2888	-6979	4970	-2315	-16456	5008	-1200	-730	2471	583	-7408	6776	11600	161	-4944	3740	-13528	-3576	-6504	-2657	-5230	1103	-8504	2488	-9056	-1255	-1583	344	126	135	1
-9360	-7528	10396	-74	1380	330	-16792	-2348	-2460	-8733	4755	-3241	-17520	3912	-1256	-1261	2795	584	-16584	5416	16328	329	-4900	4388	-16176	-3968	-8328	-2138	-5644	936	-5848	2928	-8432	-1988	-1175	168	126	132	1
-9652	-6744	11408	-72	1719	667	-16912	-3088	-3104	-4684	4430	-1888	-15816	464	376	-1610	3072	485	-20872	2072	18440	821	-4969	4183	-19040	-3936	-9960	-1307	-6071	897	-4264	2256	-7360	-2778	-965	-19	126	129	1
-9856	-5852	11088	-117	2261	838	-15920	-1880	-2528	-1396	5310	594	-14816	-2296	1528	-1701	3073	499	-26976	5648	19160	1165	-5044	3680	-20376	-4280	-12240	2	-6247	1087	-4680	2528	-5944	-2990	-1045	-179	126	124	1
-9456	-6984	10992	-133	2507	1165	-15740	-2128	-1888	-516	6037	1288	-15248	-1296	-984	-1647	2371	553	-29632	8152	18296	834	-5216	3054	-23552	216	-12608	831	-6273	1532	-7000	776	-2336	-2562	-1052	-185	126	125	1
-9392	-6392	11112	-13	2542	1823	-15108	-692	-1068	-1468	7497	986	-14728	0	-7744	-512	1221	694	-32768	9776	16984	1091	-5084	2792	-25248	2960	-14424	609	-6059	1882	-8496	-5720	1616	-1367	-942	-28	126	125	1
-9364	-7100	11368	-61	2547	2194	-12668	-1988	-1692	-2637	8689	280	-16896	-1376	-4304	480	1293	634	-32768	11680	12488	1252	-4826	2844	-21528	5416	-15160	-497	-5618	1686	-10216	-9072	5928	53	-724	99	124	131	1
-9628	-6852	12168	-506	3983	2779	-18264	-1456	-2704	-2133	9701	1185	-21288	-48	1616	497	1528	349	-32768	6712	5840	789	-3923	3233	-20192	3696	-17472	-1882	-4921	1326	-16680	-8112	12224	1450	-785	-483	124	142	1
-9596	-7012	12456	-1972	6232	3668	-17940	-32	-956	-1508	12274	2606	-20928	32	1928	-510	943	341	-32768	-656	-4376	-303	-2784	3382	-19840	-552	-19936	-2120	-3593	589	-20664	-1336	21136	3005	-746	-460	122	128	1
-9604	-6828	12740	-2318	9173	4659	-17444	924	-332	-1752	15102	2100	-17480	1304	4240	-584	861	375	-32768	-13928	-12880	-1353	-1307	2433	-12712	-72	-24496	-1533	-2025	100	-17552	3944	25648	2254	-907	354	124	127	1
-9800	-7276	14048	-1708	12961	5881	-18192	-892	-2072	-522	17485	2460	-18480	3112	5048	-507	852	178	-32768	-15496	-20432	-440	-427	702	-11464	376	-23688	-1250	-1722	33	-16288	16072	19408	564	-561	1303	123	134	1
-11368	-7864	14092	-1317	18211	7956	-21492	-256	-3928	2267	19533	3892	-20184	5592	968	-1315	751	55	-32768	-11360	-14904	387	522	-354	-5496	-592	-25072	-618	1932	42	-17280	10624	10712	-236	236	686	125	126	1
-11596	-7452	14812	-1018	24597	11314	-22724	820	-4464	3968	21152	3085	-21504	2192	-2400	-1627	716	378	-14744	-22072	-5376	-1689	3142	-2431	-16648	3032	-19760	110	3266	242	-23080	2088	12800	-1698	-213	-562	126	106	1
-10684	-8484	14896	-1289	31496	14774	-31152	172	-1656	1770	21606	110	-21912	-5872	-1296	-1115	613	613	-14920	-14328	12024	-1572	3446	-2072	-20248	4264	-5480	886	3301	114	-7296	2984	2472	-1799	670	-634	129	121	1
-11804	-9572	12432	-3659	28671	14621	-25144	-2652	1100	-2601	24217	251	-25104	-9384	1960	-377	256	363	-25456	5536	20520	-255	3544	-1713	-19568	-4624	-10120	1074	3267	-711	-21768	11272	-12016	526	555	343	128	132	1
-11232	-10700	15784	-4875	32767	24966	-29008	-5232	3248	-5337	23837	2093	-28376	-11120	9120	324	-862	10	-7776	8216	8552	-225	3017	-1330	-6432	10704	-11624	-79	2994	-828	-18624	552	-8392	-3055	1501	623	127	137	1
-18512	-21276	14504	-6713	32767	32767	-28696	-3796	7944	-8383	27835	1097	-17680	16	4816	382	-2536	-836	-26288	4392	12552	-732	860	-1333	-13112	17432	-16936	-3186	2500	-425	-12936	-3696	-4776	-1219	1040	708	126	138	1
-31148	1916	17024	-12763	32767	32767	-23084	1064	-8128	-9505	27629	-3835	-20904	9680	3352	649	-2553	-468	-22240	2384	14992	-972	179	-767	-18592	-3824	-16472	-4719	1756	-372	-17840	1560	-6128	-171	1680	1118	126	123	1
-28624	-17672	12880	-13914	32767	30165	-26232	276	-4456	-23938	30121	8350	-20928	2952	-17672	-895	-1952	-1149	-12688	6280	13344	-471	109	-210	-26048	-13528	-10784	-815	1734	-422	-19552	5864	-5264	-144	1963	951	127	124	1
-32768	-23628	19348	-6375	32767	30480	-24716	-7196	-13872	-14013	25020	1486	-24408	2608	-14384	-1344	-2212	-1772	-10440	5840	12552	-91	192	-28	-12960	-2984	-7088	2223	1246	378	-17960	3664	-2424	-1256	2083	629	128	118	1
-24036	-18208	17072	10809	17202	15466	-22716	-5976	-13524	-11299	23598	2344	-27800	5480	-8432	130	-2781	-1723	-9552	7632	11656	19	240	15	-17048	6008	-5040	2469	939	666	-17840	528	-352	-662	1996	271	127	121	1
-476	-16404	18696	5215	-5714	-9962	-15820	792	-8304	1198	15146	6368	-26456	4776	-7416	1553	-3304	-1461	-9976	7944	11296	-17	223	-19	-16032	10496	-5200	1513	760	442	-15680	-208	312	492	1724	53	128	132	1
-4836	-8564	14920	3788	-9310	-10774	-10224	-2196	-1696	2617	-1948	4632	-23136	7544	-7040	1765	-3450	-1691	-9992	6912	11664	-93	211	-28	-14928	8336	-4704	31	647	141	-15456	2072	336	1452	1679	-2	128	132	1
-5096	-5760	14304	829	-20922	-12298	-2572	740	-6492	3396	-10726	2504	-21064	10464	-4088	1135	-3175	-1667	-9688	7392	11720	-81	211	-23	-17328	5120	-5000	-705	667	-193	-16520	6952	-24	1591	1846	-146	128	122	1
-6316	-5412	12624	-2668	-32768	-15222	-6040	80	-4752	5681	-19190	1482	-17952	9912	-4144	479	-2738	-1244	-10080	7584	11368	-50	176	-43	-16680	3104	-4880	-447	757	-254	-15312	8000	-328	830	2104	-68	129	123	1
-4492	-6876	9164	-2644	-32768	-16542	-8304	2948	-4080	4436	-26110	-310	-15248	8072	-5000	-93	-2178	-1111	-9904	7216	11496	-41	139	-60	-15320	504	-4712	284	589	-83	-15400	4224	656	232	2197	339	128	128	1
-1292	-4356	7888	-1977	-32768	-16944	-8448	6760	-2576	-1030	-31058	-3399	-13672	6416	-5784	-260	-1720	-992	-9872	7288	11520	-6	148	-66	-16224	1568	-4184	1232	295	213	-16720	48	344	387	2224	468	129	139	1
-6196	-5952	8428	-3076	-32768	-20989	-7304	5768	-4948	-5412	-32768	-6798	-11152	4376	-7544	-300	-1252	-835	-9864	6888	11512	42	164	-82	-16552	4416	-4040	1366	298	261	-16520	-800	256	1111	2104	149	128	132	1
-11156	-8468	11624	-1935	-32768	-28000	-9756	3080	-6420	-5115	-32768	-8608	-8384	3112	-8736	100	-926	-593	-9776	6896	11376	59	155	-117	-15576	6216	-3904	921	404	122	-15352	600	928	1902	2164	-404	126	125	1
-13312	-6264	13476	-938	-32768	-32357	-14104	2760	-6928	-1836	-32768	-9715	-5832	1656	-8368	914	-860	-269	-10056	7112	11208	48	133	-122	-14640	5672	-3712	316	540	-39	-14384	4056	904	1815	2303	41	127	127	1
-19708	-4840	14416	-3238	-32768	-31321	-16204	3060	-8612	-400	-32768	-8690	-3536	2432	-8280	1952	-822	159	-9968	6968	11280	39	125	-120	-15464	3928	-3424	239	613	-124	-14720	7016	1096	1730	2717	429	125	117	1
-22064	-6368	14940	-3867	-32768	-27367	-18280	4360	-9940	-800	-32768	-9489	-3792	3528	-7544	2482	-914	421	-9888	7672	10960	29	127	-154	-15992	3176	-2880	598	692	-115	-16136	7832	1656	1362	2729	532	127	127	1
-25448	-7872	16184	-3926	-32768	-23102	-23540	4468	-10804	-3494	-32768	-11078	-4016	3728	-7320	2462	-905	436	-9880	7656	11112	29	128	-213	-15888	4600	-2688	792	800	-113	-16096	5816	2000	707	2432	278	127	130	1
-32768	-11716	18720	-4444	-32768	-23456	-26644	3480	-14720	-1357	-32768	-11556	-8536	5984	-712	1335	-464	75	-9832	7416	11712	55	181	-299	-15568	4552	-1400	627	1012	-172	-16248	1824	328	171	1822	100	127	129	1
-32768	-14356	15212	-980	-32768	-25648	-28504	2060	-14548	1172	-32768	-12360	-12024	7536	6136	51	-679	-145	-9864	7696	12024	83	334	-376	-16512	3880	-2704	348	1279	-234	-17784	1744	224	215	1251	-122	129	133	1
-32768	-12236	6956	4488	-31213	-28324	-24328	-2300	-15908	8046	-32768	-10534	-17848	4056	10112	-622	-971	103	-9872	7328	13064	207	558	-482	-17544	3384	-3096	144	1498	-308	-18872	5544	1472	565	1082	-76	126	132	1
-32768	-9396	-2492	8495	-22533	-27817	-20108	-3436	-18244	17360	-32768	-6866	-22984	2472	12648	-1644	-201	272	-10280	8224	13152	259	879	-595	-18528	2344	-3712	219	1692	-321	-17272	4976	3776	599	1085	-79	128	129	1
-32768	-400	-9976	9610	-12956	-26175	-14632	1768	-20432	19889	-24633	-4085	-20288	-5360	20320	-1888	304	196	-10712	8088	13344	73	1334	-755	-18200	3672	-4936	216	1914	-372	-16648	1920	1056	473	990	128	120	126	1
-32768	11624	-17504	4589	-3094	-18801	-8844	-140	-20416	10778	-8425	-128	-20688	-12296	20272	-1211	161	-370	-10600	8272	14816	-20	1927	-1013	-20712	3816	-4936	1	2159	-487	-19456	296	-200	505	945	79	114	126	1
-32768	14608	-17336	-240	2421	-660	-5976	2440	-21004	4906	6845	749	-19224	-9712	12688	292	-345	-748	-11032	8320	14504	-17	2557	-1311	-21488	2840	-3736	202	2373	-524	-20136	5376	2136	1046	962	-217	133	129	1
-26116	928	-7124	-3822	8838	7491	-9600	2056	-19104	-8763	18124	-663	-17904	-1840	3760	1707	-318	-789	-11040	8056	13992	57	3198	-1695	-21984	4640	-2608	452	2624	-554	-20288	8208	4360	896	713	-289	122	128	1
-22916	8224	6968	2843	25357	17949	-18960	-5632	-11224	-10943	25624	-2949	-15080	5360	760	457	296	-341	-11232	11528	14216	118	3922	-2413	-24048	6976	-1072	593	2908	-558	-22144	7184	8888	390	365	-136	128	128	1
-2968	-14020	19000	-366	28673	20120	-32768	8812	7192	8939	17112	-4215	-19640	3704	4008	-1012	-387	42	-10968	15512	15264	143	4732	-3589	-30368	9280	-904	741	3145	-512	-28456	7616	14064	163	-434	13	129	131	1
-31928	-3532	21596	-2257	29984	12194	-23736	2684	-7072	3882	25468	1641	-26104	-15960	-4208	-119	112	1339	-12792	17672	16360	344	5780	-5369	-32768	6336	7000	1723	3244	-224	-29240	6424	20448	-539	-3040	331	117	127	1
-32768	-23528	8028	-1250	16335	9657	-12772	-11904	-13808	9042	24843	4962	-14696	1048	-8720	4074	574	-280	-25720	10616	16856	761	6767	-5968	-26760	3664	312	2420	3163	312	-21088	-6904	2840	380	-1751	-145	123	128	1
-23156	-6368	14608	6148	3856	7347	-15384	-9632	-12504	30559	16830	6360	-9832	7424	-14848	2380	1013	-1372	-32768	21144	15992	2139	7328	-4395	-24960	4480	-3056	3046	3454	-390	-19256	-1216	-10584	1078	-3171	-525	124	133	1
-13436	-3996	13464	5274	1479	2846	-16088	8632	-13980	28649	11186	5820	-12112	10496	-7528	1260	1666	-715	-32768	29936	22488	1640	5452	-4653	-23352	10336	-11944	2451	3256	-396	-24792	4512	-18960	3070	-3276	201	139	133	1
-10352	-6424	12760	1824	1715	-193	-20772	10752	-8284	4131	10811	-1735	-17920	7160	-10512	459	1460	824	4840	21416	25960	-2320	1110	-3541	-20048	4496	-12928	168	2258	49	-29112	-8	-10096	1039	-3984	502	128	136	1
-9552	-6760	12052	-102	1861	-925	-12056	4068	-7840	-14082	10564	-5464	-18152	968	-6608	253	1446	1127	20288	23688	19144	-51	-731	1395	-22624	1880	1440	847	667	-401	-32072	5840	-5984	-84	-4340	155	128	132	1
-9240	-7220	11544	-616	1779	-660	-17260	-1700	-4824	-19673	8624	-7834	-18304	1520	-3688	855	1766	444	-2736	14176	17328	-717	-532	1715	-8944	3208	-1232	426	-506	218	-26040	6400	-6608	-336	-3718	869	130	128	1
-9152	-7104	11176	-420	1952	-533	-18900	-6024	-3004	-10842	6427	-5750	-16872	4888	-1776	338	1959	44	-6336	8168	19640	-476	-2279	2377	-2744	3904	-5072	-631	-1509	462	-22320	3544	-5144	-374	-3303	1308	123	118	1
-9596	-6896	11316	-322	1901	-454	-16828	-4524	-3628	1027	4809	-1574	-16808	4624	-1392	-427	1974	387	-5520	6440	16096	-23	-4038	2824	-6752	4280	-2304	-1426	-2508	829	-18424	1272	-5456	-617	-3080	972	126	119	1
-9204	-7068	11192	-500	1807	-717	-16356	-2192	-3220	4924	4111	812	-15648	176	-1568	-868	1968	763	-7296	5688	13072	452	-5182	3074	-11592	688	-4560	-2175	-3410	909	-14752	784	-8136	-761	-2558	658	128	127	1
-9268	-7632	10804	-395	1568	-547	-15944	-1028	-3252	3781	3647	620	-13320	-3056	-1800	-689	2148	803	-7248	8648	11224	439	-5694	3437	-11376	-2256	-5352	-2143	-4236	850	-12584	1808	-9080	-961	-2080	521	125	132	1
-9608	-7076	10688	-242	1310	-328	-15164	1284	-3480	-2199	3830	-1163	-14240	760	-1648	-511	2352	442	-7792	7248	10176	92	-5411	3909	-13192	-3848	-5184	-1805	-5042	877	-10608	1920	-9056	-1276	-1760	344	125	132	1
-9156	-7104	10884	-464	911	-435	-15200	1988	-3064	-9711	4473	-2225	-17256	5264	-704	-758	2621	330	-13984	6528	14008	242	-4850	4390	-14744	-2304	-8240	-1498	-5591	880	-8400	2888	-8704	-1752	-1365	177	125	132	1
-9044	-6828	11036	-484	1021	-394	-16384	-1668	-1936	-10768	4431	-3083	-16640	4864	536	-1581	2796	435	-20576	4808	18064	459	-4945	4340	-17440	-432	-10840	-1369	-5973	865	-5968	2664	-7896	-2631	-1014	-15	126	130	1
-9204	-7380	10884	-325	1066	92	-16432	-3836	-1784	-8026	4778	-1567	-14416	-224	1160	-2037	2848	506	-23536	3800	18328	915	-5153	3789	-20344	-2720	-11512	-728	-6120	886	-5232	2600	-5112	-2953	-1201	-153	127	127	1
-8968	-7060	10888	-140	1331	591	-16096	-3564	-1136	-3339	5484	852	-14736	-4040	40	-2050	2821	552	-25984	6768	17936	928	-5041	2783	-22208	-2080	-11928	462	-6243	1197	-6200	1576	-1392	-2440	-1402	-381	126	127	1
-9228	-7616	10868	-84	1376	639	-15420	-1452	-612	-1162	6673	1610	-16736	-2552	-2344	-1323	2091	661	-31512	9408	17624	1184	-4882	2250	-24056	1960	-14024	866	-6057	1625	-7088	-3472	2568	-1560	-1258	-274	124	126	1
-9376	-8712	10472	-174	2204	1356	-15656	-1100	-156	-1415	8259	1181	-17832	-2544	-5152	-91	1054	693	-32048	10208	17272	1236	-4875	2248	-22232	3944	-13728	135	-5656	1672	-8640	-8696	5616	-197	-836	-67	125	126	1
-9208	-7592	11292	-332	2980	1987	-16508	-1560	-1416	-1294	9778	1246	-18480	-80	-2616	589	1146	454	-32768	9880	9344	968	-3701	2627	-21616	4816	-14928	-1004	-5087	1562	-13168	-9904	8280	1172	-460	-263	125	130	1
-9584	-6784	11952	-1259	4245	2485	-17596	-1164	-1228	-725	11701	2853	-20736	1184	2400	381	1196	248	-32768	2552	4512	553	-2825	2871	-19784	1720	-17760	-1546	-4184	1123	-18448	-4256	12864	2391	-523	-481	124	125	1
-8852	-8176	12400	-2262	6158	3652	-17940	-136	-840	-193	14032	2854	-19352	1064	3632	-376	877	234	-32768	-6456	-3912	-223	-2037	2558	-16808	-816	-20848	-1199	-2887	498	-18416	2248	20064	3123	-934	-238	126	128	1
-10068	-7072	13372	-2874	9827	5004	-18092	-60	-2156	738	15976	2156	-17800	2752	2480	-797	856	207	-32768	-12200	-13784	-596	-1068	1535	-11024	1824	-22368	-531	-1341	100	-17064	10208	20040	1606	-1154	532	125	125	1
-11216	-6496	14044	-2959	14978	5920	-20700	468	-4000	1647	18285	3096	-19680	5232	1552	-932	887	220	-32768	-12984	-18248	142	-114	73	-10360	1920	-22832	-484	-1029	83	-15736	16352	13552	796	-110	1250	127	144	1
-10500	-8340	14768	-1348	20727	8825	-21912	-52	-3884	2656	20136	3059	-20792	3984	-280	-1233	750	313	-32768	-5312	-11824	593	845	-474	-6888	1672	-22928	-53	1956	102	-17144	7728	6288	-248	260	332	127	127	1
-10540	-8456	14920	-2000	27155	11798	-22724	540	-2712	2313	22073	2430	-21864	-848	-1360	-1076	672	460	-21088	-4544	-10960	-2642	2562	-2405	-13864	4512	-23232	-218	3018	298	-18232	2920	11008	-1329	226	-548	125	129	1
-9212	-10832	14528	-3539	32767	14991	-21368	736	-712	-206	23713	662	-21320	-5392	712	-737	468	443	5136	20456	32767	-1382	2803	-1509	-32768	1616	22800	133	1729	-355	-5328	11384	-4912	-830	776	-200	130	132	1
-9844	-10556	15156	-4025	32767	18854	-26812	-3500	2408	-2494	24876	840	-25320	-7040	4952	-466	113	319	-32768	2120	24944	-438	3829	-2003	-24680	-8288	-16984	87	2967	-628	-29624	21472	5376	-1627	-678	1152	127	142	1
-10208	-9824	15444	-5976	32767	27536	-32540	-2484	2800	-4622	24124	2513	-29048	-9384	8152	-22	-988	5	-11304	12632	12416	-715	2368	-1470	-10704	10656	-10152	-340	3307	-1216	-21776	-2304	-11232	-5700	2787	483	127	134	1
-22936	-26564	14744	-8561	32767	32767	-28644	-2304	7512	-9544	30261	1286	-21112	-2416	12240	-1303	-3815	-801	-17864	3480	15712	-596	747	-929	-8568	13328	-13992	-3826	2540	-731	-16600	-14520	-10880	-2051	1331	225	126	131	1
-25588	7376	15096	-16946	32767	32767	-28660	-2304	3888	-10931	29406	-913	-17784	9432	-504	292	-2610	-569	-13992	1816	15160	-709	72	-429	-19472	-4152	-16208	-4880	1632	-369	-16440	-8376	-6184	230	1746	1071	124	116	1
-32768	-28140	16188	-15416	32767	29578	-28000	-3324	-5128	-23019	29874	7709	-23272	4112	-17592	-1020	-1929	-1416	-10888	6832	13064	-168	170	37	-27784	-17160	-10536	218	1467	-132	-13616	5120	-6360	1528	2139	1114	126	125	1
-25252	-25856	16840	-1384	32767	30956	-23648	-8640	-11684	-8612	23872	1778	-25712	6544	-14056	-1043	-2434	-2012	-9432	6784	12448	42	227	59	-11736	-104	-6488	3224	948	640	-16128	10064	-4136	-45	1925	743	127	128	1
-32768	-15972	31400	5879	-425	10999	-18380	3344	-11724	6082	14443	7272	-26792	7256	-8320	22	-2793	-1850	-9136	8448	11656	78	237	30	-17640	9160	-3824	2706	740	738	-20368	3584	-768	-288	1963	389	130	120	1
-32768	-15156	30424	2788	-5805	4520	-15204	664	-624	-950	4638	10421	-25232	3576	-6056	1178	-3449	-1573	-9352	8296	11480	-14	188	-51	-15560	12304	-3320	1072	643	414	-19344	592	1216	715	1883	201	129	132	1
-1600	-8856	12608	727	-13535	-5722	-8956	432	-2868	1026	-4073	4101	-22936	4800	-5960	1388	-3500	-1827	-9288	6640	12152	-54	199	-57	-15424	7200	-3744	-602	660	21	-14504	1432	1184	1554	1786	-130	128	127	1
-3420	-5780	12300	176	-21867	-9115	-4192	1648	-5008	92	-12241	1060	-21000	7424	-3648	941	-3095	-1745	-9504	7528	11824	3	218	-27	-17816	3728	-3872	-913	696	-151	-13496	6960	1152	1312	1799	-327	128	131	1
-5108	-6204	11252	-1919	-31160	-13490	-5592	728	-4412	-2152	-19600	-20	-17352	7616	-5160	786	-2622	-1221	-9360	8152	11176	-1	188	-44	-16712	2992	-3968	-219	752	-147	-13448	8792	360	630	2273	-7	130	125	1
-5312	-7088	8644	-1644	-32768	-16607	-7436	2136	-3952	-1867	-25455	-2099	-14664	6568	-5616	347	-2171	-1062	-9592	7200	11520	-25	140	-84	-13936	1288	-3992	660	513	72	-15568	2704	400	-111	2250	507	128	123	1
-3432	-6468	7452	-653	-32768	-18940	-7628	2544	-1936	-2986	-29888	-4317	-14392	6632	-5984	298	-2111	-1042	-9608	6672	11984	33	136	-83	-16024	2048	-3728	1504	348	337	-17672	-3256	1144	427	2293	399	127	139	1
-6612	-7036	8240	-1005	-32768	-23829	-7876	2624	-4968	-1572	-32768	-6317	-10336	4056	-7640	82	-1448	-808	-9120	7584	11464	70	137	-88	-17040	6248	-2480	1490	502	220	-15688	-4800	1712	2271	1994	-54	128	122	1
-9752	-8316	9784	-255	-32768	-28374	-10520	2416	-4672	95	-32768	-8026	-8296	2664	-8608	488	-1198	-549	-9352	7712	11728	63	151	-131	-15296	7584	-2736	780	530	115	-14424	4160	2072	2379	2077	140	126	129	1
-13820	-7604	12696	127	-32768	-31672	-13624	1512	-7832	4240	-32768	-8634	-6040	2328	-8720	1183	-1088	-198	-9920	7176	11328	58	159	-131	-15096	5576	-2976	322	680	-77	-14856	9224	2112	2183	2551	427	126	126	1
-18888	-6028	14012	-2481	-32768	-32586	-15484	2620	-8656	4909	-32768	-7047	-3928	2832	-9064	2156	-1047	197	-9616	8400	11344	46	156	-136	-15288	4200	-2592	356	826	-172	-14544	10584	1312	1308	2613	562	126	127	1
-21796	-7520	13328	-4291	-32768	-29946	-18132	4004	-9568	2622	-32768	-7958	-2648	3592	-8320	2429	-937	351	-9464	8120	11400	27	156	-187	-15728	4336	-2872	538	890	-133	-14744	10416	1680	1112	2559	544	124	129	1
-29256	-9360	17236	-3692	-32768	-28882	-22644	5340	-12896	-972	-32768	-10052	-5264	5160	-6792	2176	-583	325	-9576	7144	12056	67	190	-250	-16384	3904	-3208	562	991	-156	-16688	912	-2152	239	1639	170	124	130	1
-31196	-12904	17756	-4255	-32768	-28923	-29720	2164	-14776	-2024	-32768	-12886	-8392	8224	-264	932	-243	73	-9544	7528	12048	110	275	-314	-15920	3184	-3208	541	1162	-178	-16104	1024	-2344	327	1277	12	125	130	1
-32768	-15440	12576	-213	-32768	-28549	-28332	-1644	-17748	4449	-32768	-11364	-13440	7664	8848	4	-801	-156	-9624	7240	12600	151	480	-352	-16872	3320	-3624	398	1311	-192	-16824	6192	-40	487	1200	-97	128	134	1
-32768	-14180	32	3141	-28804	-31472	-22512	-2280	-19480	12193	-32768	-8522	-21872	3224	16672	-503	-1284	20	-9360	7592	13360	263	744	-432	-18440	3456	-3256	377	1495	-250	-18248	5656	2400	398	1185	-108	127	130	1
-32768	-7968	-8088	7267	-18552	-32768	-16792	-1164	-18916	19431	-31295	-5928	-24840	-1720	17592	-1680	-76	119	-10016	6824	12888	255	1063	-560	-17968	3488	-3680	345	1758	-286	-18016	1400	3128	241	997	150	123	126	1
-32768	3796	-11492	5849	-8748	-28128	-13032	-1488	-19496	11775	-18327	-1881	-16784	-7216	20088	-1854	836	-298	-9872	9848	13848	132	1565	-807	-18880	5200	-3728	184	2042	-415	-18544	-632	1864	510	854	233	122	125	1
-32768	13336	-15580	4936	-4803	-9509	-8856	1368	-20152	12011	-4140	1048	-16064	-8616	15176	-974	306	-745	-10400	8960	14816	55	2171	-1159	-21064	3648	-4576	16	2320	-400	-20888	3208	960	1124	787	-23	130	129	1
-32768	5864	-14028	-3785	2788	2138	-7376	5248	-20108	-2553	9959	-837	-19912	-7144	7384	579	-197	-659	-11128	7920	15008	103	2896	-1524	-22872	2264	-4712	377	2506	-375	-20344	6224	1440	1357	654	-218	127	127	1
-15012	-7800	-13584	2777	17783	12632	-12892	-2272	-15172	-8047	18682	-3977	-20032	-1400	6088	1106	-508	-194	-11600	9152	14384	223	3674	-1912	-23192	3504	-2984	758	2626	-398	-20608	5664	3808	962	551	-204	128	124	1
-21576	-10188	20176	4550	22912	12443	-22828	-2564	9352	-11260	24059	1948	-18088	-2064	13848	-781	-706	-169	-9968	10872	15184	358	4509	-2691	-26072	5952	-952	961	2817	-383	-23672	4432	8368	691	264	-76	128	131	1
-14228	1756	16268	-1599	26157	17400	-32768	10916	-4984	14315	20682	-3748	-20456	-3344	-7304	22	1193	602	-11184	14712	15304	486	5441	-3895	-29936	8144	-64	1051	3008	-390	-27848	4056	11912	643	-633	-19	133	129	1
-19696	-16380	14356	-225	25044	10063	-18980	-592	-4788	4999	26995	4015	-20240	-6768	1544	2732	-15	532	-14016	15448	15016	991	6663	-5277	-32768	3488	5992	1841	3042	-59	-20728	-7528	9904	-907	-2856	-66	120	128	1
-15220	-9800	10348	697	23664	4773	-13000	-8292	-9576	17129	21170	5897	-18496	-2488	1880	3592	60	394	-32200	6872	12816	1705	7238	-5632	-24328	1968	-4944	2684	3057	432	-21960	-9960	4504	1014	-1899	-316	129	127	1
-22904	-3324	14080	3449	9464	9760	-17192	-3928	-15076	32767	13308	6341	-8512	11328	-5240	2010	991	-997	-32768	15576	11208	3664	7477	-3927	-24064	4936	-3128	3995	3001	67	-19480	-392	-7664	2036	-3269	-705	128	129	1
-20780	-9548	13484	4748	4850	5592	-15824	9936	-15804	21155	10711	1949	-17160	7608	-8728	1191	1920	-186	-31072	21776	18968	2398	5964	-4753	-26656	12608	-3496	3729	2379	-47	-26320	7296	-17056	4071	-3312	24	129	133	1
-11684	-6900	11940	3980	1608	2333	-19796	5560	-7952	661	10992	-3385	-18792	1648	-9288	-137	1809	783	-9440	30016	26584	-362	3093	-5559	-15264	12496	-15440	1660	2004	698	-26088	2824	-13400	2154	-3645	727	126	133	1
-10232	-6684	11780	2524	1136	890	-14252	3428	-7272	-11200	10185	-5012	-17632	792	-5536	532	1673	710	-26240	13152	26200	-36	-2012	-470	-11568	-2960	-8408	-532	894	-30	-27648	5192	-6376	421	-3929	617	127	133	1
-9772	-7132	11192	1461	1228	492	-17708	-984	-4528	-16254	8451	-6992	-17352	2600	-3568	859	1776	300	720	18080	14016	948	-2364	2131	-16216	1536	3272	841	67	-232	-25496	8264	-4936	-595	-3642	1038	127	131	1
-9568	-6744	11340	899	1458	379	-17940	-3276	-3492	-10148	6305	-5370	-16960	4080	-1312	364	1938	294	-5880	17016	11928	-226	-3031	2579	-7136	3624	-6984	156	-1143	679	-22584	4096	-4120	-947	-3358	1440	124	122	1
-9392	-6404	11480	452	1817	129	-16884	-2436	-3020	-902	4715	-2517	-14856	4872	-720	-169	1957	604	-5176	6072	13464	-449	-3973	3299	-4632	3768	-2416	-620	-2093	1003	-19016	336	-5056	-917	-2977	1095	126	124	1
-9536	-6972	11008	67	2072	-270	-16936	-2212	-2868	4954	3810	-113	-14992	2448	-1248	-637	2107	822	-7368	5616	11848	222	-4791	4051	-9120	2224	-3904	-1833	-2832	1260	-15672	-328	-5968	-887	-2567	816	127	124	1
-9648	-7216	10632	185	1963	-269	-15980	-928	-3324	5744	3778	508	-13808	1328	-1856	-739	2296	690	-5408	5368	10200	275	-5099	3940	-11096	656	-2544	-2310	-3681	1328	-13440	272	-7168	-999	-2232	552	125	130	1
-9528	-7572	10348	158	1657	-276	-15472	776	-3016	-196	4624	-1055	-15848	2120	-1832	-1157	2638	457	-7152	3376	11248	338	-4986	3856	-12304	-2320	-4160	-2725	-4373	1306	-10528	1496	-7696	-1174	-1788	264	126	131	1
-10028	-6712	10924	341	1763	-116	-14796	908	-2764	-6714	5540	-2876	-16496	2360	-1776	-1417	2755	567	-13000	5208	14784	406	-4873	4038	-13744	-3976	-6296	-2496	-5057	1172	-8240	2064	-7368	-1359	-1606	133	127	131	1
-9592	-7384	10420	111	1597	-9	-16308	-2308	-2516	-9980	5536	-3068	-16104	-184	-792	-1591	2790	674	-15512	3664	18008	491	-5024	4210	-17416	-3736	-8064	-1983	-5574	959	-6200	2672	-7224	-1999	-1199	19	127	129	1
-9648	-7544	10684	150	1652	495	-15584	-4084	-1380	-6418	5899	-1048	-15320	-2624	1144	-1522	2727	536	-20608	1536	19072	1004	-5093	3983	-20024	-4680	-9000	-1182	-5967	911	-5232	1704	-6344	-2503	-1026	-101	127	127	1
-9576	-7004	10388	70	1975	834	-16044	-2604	-896	-3332	6770	836	-15280	-1104	1168	-1248	2328	594	-26312	5744	20440	1083	-5168	3438	-20872	-4448	-12320	164	-6210	1087	-6088	2520	-4520	-2671	-1099	-120	126	123	1
-9476	-7964	10380	146	2335	1246	-15360	-1924	-636	-76	7993	1768	-16304	24	-3792	-678	1508	497	-29184	7080	19232	828	-5270	2946	-24304	-400	-12616	1046	-6226	1463	-8368	960	-784	-2349	-1095	-3	125	124	1
-10188	-7144	10848	36	2811	1659	-15752	-664	-2560	1011	8983	1385	-16536	-808	-6104	1	1034	643	-32456	10512	16584	964	-5092	2611	-24480	4136	-14792	713	-5981	1762	-9576	-5272	2480	-826	-884	260	125	123	1
-9772	-6988	11688	-522	3927	1899	-17288	-260	-3064	293	10101	2224	-18304	128	-1424	725	1398	479	-32768	11736	11832	1106	-4688	2775	-20856	7024	-15440	-773	-5548	1626	-10184	-9632	6504	569	-616	195	125	129	1
-9720	-7492	12060	-1556	5739	2675	-18660	-256	-3072	-859	11142	2130	-19672	248	-64	34	1190	493	-32768	7808	3336	748	-3704	3267	-19856	5576	-17208	-2201	-4740	1214	-17536	-7376	12128	2304	-647	-403	124	133	1
-9876	-5944	12564	-2412	8347	3775	-17540	940	-1272	-2556	13570	1665	-18432	3072	1104	-371	927	477	-32768	-456	-5880	-404	-2381	3286	-18736	-568	-20456	-2613	-3367	478	-19128	-328	20616	3415	-573	-283	126	122	1
-9952	-8496	12240	-2602	10817	5213	-17484	-428	-260	-2691	16001	1590	-17448	3256	4848	-334	912	365	-32768	-14136	-11064	-1033	-982	2692	-12232	-1824	-26352	-1492	-1769	113	-15504	6896	23744	1784	-781	405	125	129	1
-10304	-7936	13404	-1139	15073	7116	-20144	-1404	-2800	1426	17733	2450	-19504	5608	2936	-720	918	65	-32768	-17408	-19776	-404	-219	596	-8320	2872	-24864	-310	240	37	-14024	20296	16904	-282	-447	1323	128	141	1
-11384	-7072	14188	-872	21151	9373	-22076	-176	-4408	4582	19493	3636	-21280	4688	-1104	-1573	816	179	-32768	-11872	-15568	145	892	-834	-4688	-584	-25344	-320	1724	101	-16384	10368	8272	-744	422	746	124	130	1
-10820	-8400	14264	-1684	27758	12267	-22772	1420	-2972	4112	21124	2718	-21376	-1160	-2360	-1483	803	570	-14880	-25288	-4848	-2490	3455	-3435	-14864	5688	-17536	155	3134	388	-18400	-1072	6648	-1512	-41	-672	130	133	1
-10672	-9192	13476	-2948	32767	15497	-22580	672	-964	-192	22048	600	-21376	-5656	8	-691	622	562	-12688	17192	29512	-947	3450	-2554	-32768	-5688	10224	-1084	2221	-247	-9968	-960	6712	-2381	-150	-1213	129	118	1
-10520	-11512	14080	-2941	32767	20628	-26920	-3244	3224	-2615	23203	1484	-25904	-7264	3680	-141	324	213	-28232	8264	22056	-679	4663	-2483	-21208	-2608	-8056	765	3048	-500	-19464	13640	-5704	126	31	334	126	126	1
-11584	-9264	15464	-6631	32767	28628	-28788	-3052	5168	-7332	23178	2509	-30424	-8224	17648	196	-1545	-43	-24424	7272	9848	-617	546	-1153	-9240	13712	-20952	-4	3448	-710	-21192	760	-4392	-3628	1626	633	127	130	1
-22552	-22480	9928	-5588	32767	32767	-26560	-3688	6212	-10576	28902	1462	-16248	600	3456	54	-2305	-819	-13040	4952	12368	-620	267	-301	-11536	8544	-14152	-3298	2782	-804	-17288	-4168	-18880	-508	1247	738	126	131	1
-27800	376	14808	-11393	32767	32767	-22460	252	-7256	-7621	28834	-1475	-20696	8760	-2880	185	-2450	-567	-13248	5016	13392	-417	15	-49	-17920	-208	-14024	-4091	2090	-861	-14552	-7224	-6184	848	1605	1346	126	110	1
-31200	-17568	14576	-10431	32767	30595	-27556	-2556	-2604	-16824	27593	8355	-22544	2160	-18888	-1053	-2092	-1129	-10184	4360	13728	-22	181	151	-25272	-16112	-10792	-945	1738	-211	-18336	4608	-7288	1014	2057	677	127	120	1
-32768	-20872	20196	-570	32767	27688	-25060	-4980	-13320	-7791	23826	2529	-23544	2464	-12440	-650	-2397	-1691	-10184	5592	12680	145	249	146	-12280	-1784	-8168	2085	990	612	-16120	11848	-5712	-647	2207	270	127	127	1
-32768	-14800	28376	5960	3780	8024	-16584	-584	-9756	2188	15577	6803	-26672	3480	-8176	771	-2959	-1667	-9344	7848	11832	191	260	125	-18328	7928	-4944	2528	811	589	-19136	5456	-1712	-1178	1939	331	129	128	1
624	-15964	17864	2031	-11048	-7082	-17724	-1612	1008	-1244	3986	11361	-26752	5256	-7536	1768	-3305	-1538	-9960	8792	11064	125	222	40	-16120	12296	-4528	1451	632	524	-19408	1088	1016	-231	1986	203	129	128	1
-4888	-9280	14672	3626	-15235	-6479	-10052	-1084	-2780	3488	-4788	5211	-23616	8848	-8120	1679	-3417	-1680	-10016	6528	11928	89	207	11	-15048	7840	-4704	-20	570	122	-15624	992	944	899	1943	87	129	132	1
-6096	-7196	14552	3177	-26084	-9694	-5592	40	-5200	3740	-13505	3772	-20232	10408	-5848	912	-3109	-1524	-10280	7200	11384	129	229	20	-15360	6936	-4864	-129	557	83	-14328	5568	448	1002	1976	-221	128	131	1
-7272	-7924	12276	1450	-32768	-13906	-7844	-260	-4748	3551	-21415	3145	-17200	8864	-5256	355	-2748	-1204	-9776	7736	11032	116	201	-10	-16000	4152	-3928	84	569	-58	-14248	8024	1088	566	2220	-11	130	127	1
-4212	-7244	8748	300	-32768	-15556	-9584	2484	-2904	1600	-27089	1224	-15440	6888	-5624	12	-2242	-1188	-9840	7712	11264	77	165	-48	-14120	3568	-3736	340	489	4	-14624	4344	728	121	2349	551	130	131	1
-4088	-8336	6352	-54	-32768	-17397	-8292	3820	-3372	-2787	-32347	-1930	-15376	6688	-5688	-19	-2156	-1186	-9488	7264	11296	53	123	-77	-15808	3336	-3904	768	315	214	-17424	-1224	216	555	2392	635	128	136	1
-8664	-8372	8472	-1449	-32768	-22574	-8780	2828	-6224	-6234	-32768	-4900	-11072	3240	-8824	204	-1296	-1012	-9976	6800	11352	68	123	-117	-16184	3264	-4176	828	307	232	-15192	-3672	1888	1704	2250	492	126	127	1
-11500	-10292	9688	-970	-32768	-29198	-11204	1472	-6196	-4634	-32768	-7200	-8488	2104	-9768	669	-1066	-756	-9984	6880	11392	96	125	-114	-15752	5032	-3728	1126	430	204	-14040	1256	2048	2445	2422	30	126	123	1
-15852	-8988	11596	1	-32768	-31773	-15084	76	-8436	226	-32768	-8861	-6088	2080	-9488	1434	-1012	-320	-10048	7552	11400	104	135	-125	-15584	5824	-3016	846	476	65	-13664	5832	3616	2177	2745	440	127	128	1
-22192	-7776	13548	-2963	-32768	-31577	-16720	1648	-10156	2340	-32768	-7723	-3328	3688	-8648	2334	-1008	219	-9816	7784	11288	94	171	-141	-16000	5224	-2448	600	587	-37	-15816	10160	1192	1736	2986	464	126	130	1
-24696	-9760	15324	-4217	-32768	-29518	-20256	3004	-11332	887	-32768	-9176	-3360	4424	-7240	2637	-1029	462	-10016	7368	11240	75	181	-189	-15288	4704	-2872	625	745	-87	-17008	8112	-3176	925	2109	213	127	130	1
-28100	-11584	15416	-4633	-32768	-28033	-24536	2892	-10892	-1223	-32768	-11171	-5472	5400	-5168	2302	-756	383	-9904	7320	11800	77	206	-250	-15256	4280	-2688	605	901	-158	-16568	7608	-3696	788	1867	196	127	130	1
-32768	-14760	16976	-3568	-32768	-26964	-27876	1376	-15008	574	-32768	-12961	-9192	6952	536	1082	-606	26	-9856	7304	11960	148	291	-330	-16488	3544	-3264	611	1027	-120	-16968	3584	-544	90	1215	142	128	131	1
-32768	-15276	13228	-1968	-32768	-27952	-28160	-640	-15492	2694	-32768	-12906	-14120	7088	8792	123	-1052	-179	-9912	6576	12280	208	497	-389	-18008	3160	-3296	650	1159	-131	-17696	5088	2512	390	1220	-156	126	131	1
-32768	-11888	5032	150	-27776	-28949	-24440	-2340	-16284	8354	-32768	-11656	-21544	3896	13848	-332	-1177	-49	-10208	7488	12760	268	788	-460	-17984	3912	-2400	565	1393	-225	-18272	2840	3520	518	1238	-83	125	130	1
