#Activity	walking 
#ActivityID	1 
#Date 09-09-17-35
acc_rf_x	acc_rf_y	acc_rf_z	gyro_rf_x	gyro_rf_y	gyro_rf_z	acc_rs_x	acc_rs_y	acc_rs_z	gyro_rs_x	gyro_rs_y	gyro_rs_z	acc_rt_x	acc_rt_y	acc_rt_z	gyro_rt_x	gyro_rt_y	gyro_rt_z	acc_lf_x	acc_lf_y	acc_lf_z	gyro_lf_x	gyro_lf_y	gyro_lf_z	acc_ls_x	acc_ls_y	acc_ls_z	gyro_ls_x	gyro_ls_y	gyro_ls_z	acc_lt_x	acc_lt_y	acc_lt_z	gyro_lt_x	gyro_lt_y	gyro_lt_z	EMG_r	EMG_l	act
-32768	6328	-29596	12423	-22071	-16141	-9464	-1120	-22476	22814	-14688	-6277	-18252	-7300	26748	350	-445	-6030	-14400	4136	11576	-442	10699	-4428	-19740	-44	-1964	189	14433	-4392	-18528	4236	6272	4195	8945	479	21	134	1
-32768	20764	-32768	2184	-10142	-10507	-6388	7168	-21188	9449	-14	-3761	-17304	-9436	26428	1134	1565	-4892	-14264	4296	12228	-82	14575	-5282	-19592	-48	-1612	1459	17014	-4957	-18196	1156	4288	9038	8175	-300	164	129	1
-32768	22284	-32768	-1135	-7580	-10323	-4188	2816	-19480	-2132	17847	1258	-15400	-3192	13480	5186	5932	2316	-13412	4724	13240	-208	19320	-6222	-20560	16	-816	543	18648	-6096	-19560	820	3368	11098	5175	-760	165	115	1
-7636	-388	8008	10110	23465	16080	-4772	2528	-20848	-2408	19984	1956	-11812	-3916	3716	4270	9023	3165	-13084	6128	13932	-554	24399	-8248	-22372	-1236	-636	478	20412	-6774	-20656	3380	4264	12219	1933	-430	197	122	1
24512	-26424	17352	7776	27287	5903	-32768	-4656	32172	-8554	8745	97	-16396	-504	-428	5396	12714	1580	-12980	7524	14832	22	32767	-11145	-26740	-824	1724	2518	21758	-7291	-24252	5196	5660	12615	-2872	-572	192	122	1
-32768	2864	5388	12549	32767	175	-6196	-7664	-12860	12160	16792	5050	-19028	2624	9680	11593	9162	1490	-12700	8204	14964	387	32767	-11725	-26476	-5532	4152	5065	23015	-6393	-24712	4520	17144	16623	-20945	-1907	155	111	1
-25896	8216	15008	13691	32767	6809	-16404	-5132	-7472	9979	21309	742	-15980	-11772	4708	24360	6875	-301	-24912	7948	12504	3701	32767	-19259	-28096	-1488	3160	11641	24897	-6354	-17892	-496	15880	14533	-20403	-1313	175	128	1
-32768	-18516	26468	-1807	22772	2655	-28648	7456	-19140	32359	22198	8154	-25252	9368	-3676	19427	11460	-4041	-32768	10884	10184	587	32767	-25628	-27828	8060	1456	3953	27586	-8081	-19740	744	-968	10505	-10747	765	68	116	1
-16828	13224	11976	3954	5173	7785	-17164	-724	-12700	10075	21298	4748	-20524	8916	-14752	-4727	11220	-3466	-32212	9904	10908	-11	32767	-26981	-30876	4604	-4916	-1409	26217	-10284	-25784	10852	-14660	13298	-13268	6872	134	123	1
-15984	2404	11728	2170	4998	4254	-16596	3444	-10892	13239	15484	109	-9356	1656	-12004	-15216	12319	-4305	-23356	22240	30928	-4005	32767	-31730	-24136	-516	-40	-929	23227	-5857	-30464	-3988	-7560	-6303	-22829	6470	188	88	1
-13324	-1176	11044	1877	3482	2332	-14336	8512	-11008	-12078	11226	-1434	-12248	-4212	-10344	-11916	12630	-2666	-32768	4704	14920	5406	32767	-31476	-18624	-204	-17112	-5886	14452	-672	-31252	-2172	-4860	-7158	-27663	4963	86	111	1
-13284	-1252	10696	1593	3379	1994	-16056	-1740	-7816	-28754	6916	-1444	-16056	-2736	-7208	-8877	8538	-3273	-27312	12028	18380	7599	-13235	-4391	-17376	-2412	-14612	-8629	2122	464	-29348	-4412	-6604	-3762	-28020	7098	253	75	1
-11956	-2424	10832	343	2204	1207	-16584	-11916	-4336	-10942	6632	-996	-18084	-6648	-4096	-4622	13219	-23	-7368	13280	18120	7015	-29357	9892	-11876	-6708	-3916	6804	-3292	3143	-28300	-4212	-7496	1405	-26027	9063	242	124	1
-11848	-2564	10656	650	1553	1988	-14672	-9632	-4600	14364	8711	1405	-18244	-5736	-3084	2319	11739	2423	-4780	9808	11896	5086	-29824	13329	-10336	-5580	-6988	20818	-10007	8468	-25720	-2552	-7048	9189	-24215	9470	101	95	1
-12336	-1980	10288	1804	621	1433	-16188	-2912	-6812	22712	8724	2313	-14376	-3352	-2768	7662	12252	2098	-10692	5888	10316	1872	-32768	17817	-5960	-2736	-10404	20337	-19882	11502	-20104	-8	-7588	8162	-22683	8786	9	109	1
-12140	-1864	10688	2773	-261	1042	-16500	2196	-5616	13945	6335	1980	-13864	-3076	-2584	8220	12756	2067	-11156	2248	11644	260	-32768	20906	8	-3808	3704	8467	-19796	15117	-16672	888	-6852	3036	-20381	8458	189	150	1
-12196	-1808	10644	2824	-345	995	-15596	2304	-4440	-2140	4318	-331	-16420	1480	-2040	2859	14597	2489	-12540	-2120	11644	3256	-32768	22509	-8724	-4896	-6224	866	-31714	13416	-14184	116	-7648	-4563	-19473	7294	74	135	1
-11788	-1740	10636	1668	-607	558	-16664	-2180	-3776	-9659	2895	-1355	-16468	1796	-1020	-1392	14575	1673	-13280	-5520	12144	9689	-32768	21857	-11952	-5944	-5736	-661	-32768	14778	-12644	-684	-9008	-10265	-16913	6275	28	124	1
-11760	-1596	10656	777	42	1087	-15392	-5412	-3012	-7857	3401	-1120	-15404	712	-44	-5571	15857	558	-15904	-3336	13312	15104	-32768	18447	-12312	-5348	-7616	-315	-32768	14897	-10060	-576	-8932	-13037	-14269	5188	153	153	1
-11876	-1800	10680	461	856	1558	-14344	-5460	-2372	-2604	4555	164	-13284	-1516	1300	-3605	16534	117	-20732	-576	13876	16003	-32768	15617	-13440	-6696	-8616	1429	-32768	15422	-7156	-488	-8936	-14021	-11151	3303	131	144	1
-11900	-2204	10440	902	1317	2363	-14860	-3844	-3968	-39	5281	543	-13980	-2656	1600	418	18274	-292	-20956	1200	14580	14424	-32768	16485	-15724	-8380	-9328	5227	-32768	16193	-5200	-1372	-9280	-13738	-7747	1931	118	152	1
-12028	-1664	10804	1318	1643	3008	-15772	-2328	-4028	-1617	5463	383	-17656	-3896	-1388	-2231	16955	-134	-26836	4216	16320	12530	-32768	20854	-19016	-7780	-10448	7630	-32768	16735	-3916	-2024	-8012	-12338	-3892	686	96	238	1
-12244	-1476	10900	1334	2325	3299	-16692	-1828	-3248	-5459	5447	275	-18884	-3980	-5252	-7537	14379	971	-32768	5384	14476	8583	-32538	28095	-22892	-8072	-15732	3026	-32768	18452	-4628	-3868	-5684	-12437	-2857	95	76	174	1
-11888	-1488	11340	1237	3166	3268	-16384	-2736	-2820	-7421	6063	643	-18552	-2828	-3796	-1920	9772	896	-32768	-4420	9532	7807	-30818	31486	-24440	-4164	-18232	269	-32768	17268	-5828	-3712	-1060	-12209	-4263	343	44	133	1
-12356	-688	11064	1604	4244	3604	-15576	-5064	-136	-4646	7578	1508	-17380	-3616	1484	3480	7476	1441	-32768	-5832	432	5375	-31908	29128	-24004	-2720	-20256	-7172	-32768	12654	-11064	-1056	10844	-6749	-9702	471	95	100	1
-11888	-1048	11972	1613	5276	3778	-15360	-5240	-148	-4054	7974	1652	-16560	-3796	5916	2233	7528	336	-32768	-11352	-12992	-8015	-32768	21633	-19448	-2796	-19408	-13123	-32768	5566	-18484	3604	26176	4499	-12768	1838	109	69	1
-12704	-204	12164	1850	8138	4051	-17072	-3536	-1520	320	12625	4219	-17840	-408	6848	-2422	8510	-1398	-32768	-11784	-30540	-21649	-24587	10627	-7440	-8184	-26492	-15656	-20161	1552	-21040	3380	22068	7717	4554	5762	136	19	1
-12828	-156	12880	1492	11650	4167	-19428	-1536	-2476	-2457	14006	4782	-19056	4336	3128	-4747	8753	-1490	-32768	-32768	-32768	-7787	-10099	4632	-5364	-6464	-19692	-4056	-2000	619	-15496	4108	19208	973	2453	38	131	103	1
-12980	168	12628	1536	12256	4155	-19204	-1384	-3028	-5797	15078	5456	-18828	1076	400	-4003	7263	-234	-32768	-23956	-29080	9722	7510	1552	-5456	-2284	-21888	-2668	13956	-1885	-15000	5936	14792	-840	930	-5046	123	183	1
-11856	732	13636	1538	20506	3366	-19800	-2160	-2872	-5933	16085	6532	-19340	-3168	-916	-7125	4979	102	-2960	-8220	8864	1767	21454	-15382	-20340	-3616	-4584	12705	23330	-6706	-10060	4088	6352	-6060	4596	-2997	97	238	1
-11800	228	13996	1191	25969	2903	-20696	-1924	-2872	-6001	16880	7301	-19600	-4828	-536	-7682	1497	291	8100	25556	14188	22107	27610	-17555	-26468	-2800	4956	21130	23668	-6815	-23064	-2148	11684	-5051	-4089	-1546	131	123	1
-10884	-1280	14080	1168	32767	2047	-23732	-3072	136	-7164	16750	8169	-22760	-4628	2064	-6043	-1987	1829	-17532	7320	11760	6092	28420	-9595	-5732	1708	3656	13314	20386	197	-13112	-17932	12988	83	-309	-8607	112	66	1
-9500	-1396	13328	-12	32767	3132	-23220	-356	3924	-10714	16905	8200	-21020	-1804	10500	-7787	-10979	4692	-32768	9568	9012	-3132	27410	-17277	-25800	13788	-6452	7606	18834	-1648	-18280	2804	7952	5689	11321	-4144	170	135	1
-10564	-2888	12224	-520	32767	3660	-21212	-2084	4624	-15558	16919	8688	-17744	-716	17580	-23754	-16875	3265	-28628	5824	10808	166	22561	-9055	-27360	640	-10676	-17640	15657	-5856	-23820	14084	-6712	12955	13671	9340	164	119	1
-32768	-6880	2752	494	32767	9155	-20380	-8000	-3480	-15186	18597	9678	-14112	6776	7504	-9222	-7034	1828	-27196	-6260	11724	-7056	1361	-11960	-14048	5552	-14420	-20758	17327	-6573	-16788	9864	-10232	13319	12019	6182	125	87	1
-32768	-952	9348	7359	32767	18663	-21896	-6884	-11360	-7829	22681	7491	-23812	-2768	-3244	-16106	-7453	-4531	-16216	6032	8388	-3303	-163	-5988	-16624	-6572	-12268	-17282	12579	-2522	-13200	3784	-9696	2870	15731	2694	238	139	1
-31512	-9720	15232	6374	32767	18155	-30420	-1216	-4600	-11568	19374	7247	-30512	-3312	-13708	-13182	-14083	-6782	-14268	1796	10668	-621	-422	-2104	-15996	-12348	-10132	6668	12421	-535	-15856	3516	-7252	-7061	10833	-647	133	148	1
-10844	-7368	23188	-2825	32767	18784	-25604	-3608	-440	-9370	13414	5204	-28108	-1548	-8940	-623	-21644	-6179	-13368	3960	10392	1182	-161	419	-18092	-3536	-7356	20741	11999	701	-17260	1744	-5340	-7023	12508	-2642	143	82	1
-32768	-9076	16784	-12874	30444	10974	-15088	-1348	-16964	2090	8195	2673	-27392	1112	-5416	5919	-23841	-7728	-12920	5180	9788	1564	-43	916	-17940	4980	-5268	15083	9097	1011	-16840	4460	-3188	-6333	11580	-3336	142	88	1
-29216	-12124	21164	-8632	-4224	2298	-8272	-672	-18748	691	8693	-749	-24904	4020	-5344	5628	-24614	-8438	-12440	5144	9884	1420	133	492	-15672	7196	-2788	-3387	6091	-189	-16080	4128	-2436	-9019	11249	-2806	148	164	1
-14668	-8896	16076	-1780	-24744	-5580	-15072	1320	-6032	-8053	195	-4443	-25468	2812	-6112	1185	-22588	-9307	-12544	4948	9676	1478	400	640	-16352	1364	-4436	-17079	3433	-2370	-16060	1912	-1748	-9585	10483	-1716	0	109	1
-7664	-6532	11024	1299	-32768	-10623	-9836	1888	-7300	-3629	-6879	-4638	-22512	2552	-8388	-3971	-19310	-9733	-12724	5340	9608	1416	531	866	-17536	-4528	-5780	-11009	2891	-1624	-15896	1588	-1568	-9588	10802	-1320	9	118	1
-5584	-2684	9676	1482	-32768	-13397	-6528	580	-8052	-2140	-11910	-7996	-18888	1180	-8960	-4417	-17865	-10057	-12592	5292	9544	1431	272	708	-15832	-4476	-5576	5499	3148	1025	-16184	-1276	-240	-3887	12640	-884	123	106	1
-7548	-464	9276	-1366	-32768	-15720	-5872	-528	-5764	11548	-19131	-11134	-15560	-556	-8180	-3200	-16399	-9780	-12456	5208	9748	2381	0	809	-16508	-1636	-3616	15224	4190	2505	-15692	-2240	608	3315	14123	-346	138	111	1
-10992	-84	10348	-3537	-32768	-15961	-6412	860	-9012	19358	-24354	-12739	-12976	-1576	-8360	674	-15063	-8433	-12444	5096	9580	3198	21	753	-16620	3116	-1924	13843	4113	2064	-15412	-176	1412	8511	15692	8	170	135	1
-13668	684	10328	-4290	-32768	-13043	-9276	3144	-7872	17584	-29339	-13465	-11564	-1644	-7884	6190	-14408	-6687	-12744	5468	9364	2719	172	524	-15836	4940	-1256	4991	3847	790	-14820	2628	2104	11040	17094	-290	141	131	1
-14840	3664	9892	-7722	-32768	-10409	-10024	3524	-7704	17332	-30174	-13554	-10300	-904	-8092	14023	-13703	-4877	-11984	5936	9024	1588	414	-79	-15872	2988	-1832	-2018	3586	-951	-14684	4784	2628	11857	17334	-950	166	132	1
-17112	4464	10812	-13514	-32768	-9806	-13576	4764	-9376	10532	-32768	-13637	-8692	1192	-8436	18269	-13111	-2840	-12072	6592	8872	1095	385	-1226	-15800	716	-1872	183	4361	-1159	-14932	4584	3072	12587	17287	-1742	168	121	1
-21884	3020	12136	-17717	-32768	-9970	-14264	4424	-10616	2872	-32768	-14758	-7256	2004	-7804	20638	-11508	-1379	-12144	6044	9164	970	279	-2203	-15804	1048	-2308	5090	5612	-950	-15364	3072	2668	10655	17643	-1359	177	113	1
-25476	664	12708	-18321	-32768	-11583	-16196	3464	-10184	-3079	-32768	-16599	-6976	2156	-6148	17889	-10079	-615	-12044	5928	9308	697	3	-3276	-16124	1908	-1564	5890	6759	-1391	-16276	1564	1788	6904	17578	-646	140	125	1
-29192	-2200	14640	-14975	-32768	-14786	-18064	1856	-11032	-3400	-32768	-18758	-6328	2884	-3964	10953	-6470	-505	-12456	5616	9380	-71	282	-3977	-16252	1512	-1592	2883	7549	-2075	-16436	2016	420	5292	15595	-1032	118	125	1
-32768	-1560	16144	-11175	-32768	-17963	-21720	244	-10500	-311	-32768	-20992	-6076	4232	-996	4680	-2353	-1110	-12244	6292	9264	-1499	791	-4813	-16000	1840	-2336	-1434	8271	-2933	-17100	4400	-956	4557	13046	-1459	120	125	1
-32768	3252	14124	-8857	-32768	-19619	-24008	-1624	-10112	5430	-32768	-20647	-8096	3752	4284	1932	-1586	-1745	-12996	5344	9920	-2139	1479	-4868	-16680	1640	-1940	-3649	8647	-3608	-17504	4932	-1096	1739	11062	-423	75	134	1
-32768	6696	2404	-5840	-32485	-14873	-23848	-5900	-9452	11259	-32768	-15634	-14716	1796	13132	-494	-7496	-3879	-13592	5196	10076	-1894	1969	-5174	-17356	1008	-2768	-3945	10319	-4323	-17636	4124	-20	-122	10246	197	76	135	1
-32768	-116	-9792	5379	-32768	-13878	-14408	-1140	-14140	30196	-25024	-7649	-21624	-5884	21072	1265	-11468	-7470	-13660	5008	10164	-1517	2852	-5103	-16756	536	-1764	-2983	12192	-5172	-17300	3352	760	1865	8613	229	97	131	1
-32768	13804	-26864	19276	-20835	-3964	-11816	6200	-17236	29697	-12664	-5575	-16344	-8236	23588	4490	1837	-4198	-13612	4772	10948	-1483	3835	-4868	-16948	388	-2772	-2198	14227	-5680	-17048	2268	1864	5587	6900	297	61	123	1
-32768	32767	-31724	-3034	-3326	-4551	-8164	8744	-16536	5910	1734	-1138	-16648	-4936	23876	7647	-1671	3306	-11352	4820	17096	-3440	7401	-6652	-20696	336	-2108	-1401	14829	-6360	-18288	1088	1792	7957	6168	233	204	115	1
-32768	16472	-23600	-2451	9989	6310	-6444	700	-17832	-4131	16314	3696	-16448	-2708	12852	9665	1598	4794	-13880	5328	13764	-2716	11736	-7226	-21808	-3820	-3008	-1485	16385	-7204	-21252	420	112	7480	4621	-334	178	121	1
-21428	32332	9624	3958	17940	22062	-17476	-2044	-14308	-12783	25221	8054	-14784	-1140	3480	4891	3352	5148	-13828	5080	15064	-2791	17990	-8388	-22900	-4464	-3900	1003	18098	-7202	-21484	2340	1324	8946	1760	-1468	188	125	1
-4204	-19000	7692	8906	23332	27482	-32768	6748	6776	-4519	11478	2474	-19492	6584	1896	-2128	8086	6203	-10908	6112	16776	-2062	26617	-10636	-24912	-4552	-532	2332	18857	-7571	-24440	2988	4412	11267	-1906	-2143	135	117	1
-23628	-9908	11348	5503	28462	-1653	-12532	4760	-316	-16192	15109	805	-10768	14888	4420	-2463	10763	7242	-11876	6784	15712	-555	32767	-13328	-25608	-3872	2652	4092	21246	-7966	-22828	1488	10804	8658	-9539	-2783	172	119	1
-26168	23840	15592	6490	30380	-1730	-23440	-5580	-6164	-14496	16640	2778	-15228	-7344	1580	-542	8588	-2009	-12544	8844	16584	1790	32767	-16375	-29308	400	5428	4012	21752	-8451	-22024	1564	22976	10544	-31650	-3846	253	120	1
-28528	-3204	19280	-4396	21090	3094	-20124	516	-13640	10346	18775	7206	-19164	-3932	-4888	8341	10818	-3252	-27452	10856	10724	2394	32767	-24386	-28036	2080	-744	407	22281	-7935	-18936	-788	8300	9692	-10946	-1358	66	121	1
-18416	8460	12876	3041	7075	3504	-17140	-7040	-13300	3843	18791	4090	-20836	-432	-17224	-3723	16156	-1284	-25620	10436	15076	2409	32767	-28074	-31108	8332	-2712	-1550	25229	-9216	-23248	9248	-8184	16355	-12693	327	90	121	1
-15796	2112	11532	1290	4513	1883	-17156	-2376	-10444	15427	14003	3385	-13548	276	-13648	-11088	12430	-5822	-27928	18184	10944	-2388	32767	-32768	-27072	2832	-7452	-2251	20275	-7323	-24148	8160	-9356	11134	-15662	4625	141	112	1
-12932	1156	11512	181	3273	-65	-16404	8628	-10668	2550	10179	1467	-14092	216	-8456	-7775	13972	-1380	-20912	21408	25532	-1274	32767	-32768	-22924	4332	2224	75	20592	-4667	-29304	440	-6116	-4701	-23655	4925	128	80	1
-12276	-1156	11228	-1048	2727	-1804	-17492	4012	-7620	-19251	5689	-1034	-17088	376	-6608	-7995	10451	1133	-18120	23228	28772	-982	32767	-32768	-15736	4320	-21796	-8366	12161	-1931	-29644	5880	-6900	-8958	-24163	7411	129	103	1
-12180	-1620	10636	-1562	2147	-1964	-16328	-4588	-6204	-25984	4431	-2542	-16892	-5188	-3248	-7910	12680	1080	-25728	10948	21568	-7449	-21902	1857	-15512	2432	-13216	-14502	-2337	-4198	-26120	3184	-6648	-9512	-25983	10391	73	83	1
-12524	-1696	10820	-1919	1720	-2129	-15616	-11672	-3068	-9017	4630	-809	-18136	-5696	-1448	-3151	11827	2013	-3564	10864	16964	-3920	-30197	11923	-11612	-3480	256	-3767	-6732	-4825	-25300	2596	-7208	-5237	-22786	11622	174	122	1
-11996	-2520	10288	-1516	1394	-1982	-13972	-8352	-4056	8165	5541	1272	-15368	-6088	-876	2820	12454	2772	-3396	9212	10236	-1911	-31051	13459	-10960	-1544	-9000	5908	-14209	-771	-22064	2480	-6664	-924	-20630	10824	204	90	1
-11844	-3072	10220	-854	1310	-1427	-15540	-3560	-3892	9890	4726	2140	-14956	-4580	-456	6254	13290	2782	-10976	9092	8356	-3106	-32768	15077	17004	-26360	14616	17709	-1095	14083	-15816	1528	-6632	-4561	-19056	10018	0	122	1
-12100	-2836	10228	-426	1297	-734	-14584	1592	-3524	-2506	2299	-21	-14632	-1028	36	-734	7208	6305	-12800	8900	8148	-4734	-32768	17613	-8736	7100	-8268	-4548	-32251	-2212	-15472	2456	-5212	-10071	-17658	11497	202	133	1
-12080	-2232	10284	-539	1255	-464	-16280	-2836	-3552	-7986	3036	114	-12120	-240	-828	-3934	19082	110	-14148	7676	6416	-5422	-32768	19417	-8504	-3548	-6660	-4422	-32768	4844	-13040	0	-8496	-16374	-12818	7420	100	172	1
-11912	-2348	10140	-617	1231	-65	-15720	-3740	-3744	-10300	2501	240	-15492	984	-1092	-9360	16382	-1954	-14712	6404	6180	-3554	-32768	20800	-12144	-1016	-7788	-2525	-32768	5413	-12672	208	-8552	-17156	-12420	6731	9	146	1
-12024	-2188	10088	-577	1297	171	-15456	-5168	-3424	-7237	2864	1136	-13288	-1288	908	-13939	19233	-2584	-16812	6380	7632	-407	-32768	22207	-11304	-924	-9196	-1305	-32768	6691	-9536	-468	-9224	-24395	-12992	5135	99	147	1
-12204	-2272	9980	-417	1425	539	-14388	-4400	-3576	-3547	3416	1602	-13984	-1696	712	-13082	17948	364	-20944	8012	8344	2486	-32768	22519	-13928	-1420	-9724	1260	-32768	9240	-7836	-2808	-8444	-23154	-11090	3973	114	146	1
-12044	-2796	9684	-27	1488	1411	-14328	-3816	-3448	-3316	3802	1327	-14564	-1036	-844	-11184	16966	2484	-24452	9744	10160	3462	-32768	22314	-16232	-1388	-11104	610	-32768	12280	-6560	-4264	-8136	-18062	-5628	2608	115	177	1
-12240	-2088	9864	200	1602	1887	-15504	-3244	-2956	-4902	4126	1550	-16884	-3724	-1628	-7035	13750	-263	-29628	8644	12572	4805	-32768	22577	-19604	-3336	-12900	-163	-32768	14947	-6308	-4932	-5696	-11908	-1047	1294	143	200	1
-12272	-2612	10212	862	1908	2224	-15584	-4976	-2048	-5727	5146	2318	-18640	-6192	-1580	-5653	10263	-1902	-32768	-380	12404	13548	-32768	24963	-22576	-7776	-17652	1010	-32768	17187	-7016	-7304	-2592	-8681	-1482	372	112	126	1
-12240	-2748	9976	1812	2063	2801	-15140	-6668	156	-1264	6825	3409	-19408	-5976	704	-92	7366	-367	-32768	-2280	5812	20322	-32768	26740	-22024	-7192	-20756	8831	-32768	17154	-8988	-6832	3244	-8280	-5987	1009	0	118	1
-12500	-1764	11012	2282	1536	2787	-16044	-5184	-972	2829	8960	4373	-18364	-6328	3012	3111	7644	1079	-32768	-7796	-2196	16220	-32768	21772	-21840	-4748	-18280	17024	-32768	16604	-12600	-936	10476	2277	-7532	3033	140	101	1
-13000	-1100	11096	2513	1454	1759	-17000	-3672	-1016	3901	10750	5290	-17268	-3844	3076	224	8313	1659	-32768	-11464	-16252	6115	-27791	16068	-18284	-2364	-18252	14104	-26962	12771	-19388	1108	20408	15095	-8474	6007	100	41	1
-12420	-1608	12164	2396	1982	1321	-16904	-3732	-1480	2165	12380	5671	-16840	324	2860	14	8075	1294	-32768	-16808	-31256	-4024	-13910	3723	-7228	-1712	-21148	783	-12321	8285	-21496	1440	23712	18252	-939	8008	119	85	1
-10648	-1532	15948	-1844	6263	1431	-17604	-3280	-3584	692	13437	5842	-16996	2424	1804	1382	8050	751	-32768	-32768	-32768	5502	2558	3264	-5144	-5716	-22632	-8852	3706	2117	-16636	12128	20260	13402	-628	5647	110	110	1
-12848	-2136	13524	1846	12194	2369	-20356	-1996	-3828	-2785	14322	6495	-20640	1796	652	-321	6687	403	-32768	-19288	-26220	4988	15662	136	-8864	-5168	-22484	-10468	16589	-4862	-11808	7696	13960	8550	-194	-201	107	190	1
-12004	444	14204	1097	18216	1874	-20080	-544	-2968	-6033	15477	7412	-20252	-1808	772	-6039	4107	1565	-32768	31024	20196	-6968	15158	-14463	-23784	-4568	7948	16167	22767	-6202	-8996	7068	1460	-2670	5647	-682	88	233	1
-10144	336	15708	81	25181	878	-21428	-296	-1716	-8159	15959	7952	-20156	-3324	1208	-9576	1336	2636	9372	18020	12272	-4175	16261	-14737	-32768	1084	22804	11400	6205	2671	-17952	3324	2380	-3430	6989	-134	91	152	1
-9896	-2008	15616	-707	32767	-1936	-24760	-3164	2256	-10654	16136	9399	-24176	-3096	4744	-5619	-3634	3462	-23592	-3732	14772	-4327	27658	-8117	-7304	-2164	1264	-11889	16972	-3238	-19412	356	5984	1942	276	1989	153	112	1
-7844	-3572	15668	-915	32767	-1827	-24964	-3792	6948	-11409	17485	10648	-22780	-1608	14984	-1617	-15779	5664	-26060	-1076	14236	-7744	24530	-17438	-23912	-1520	-7012	-14001	15290	-7687	-17016	7960	14664	-15398	5235	621	186	86	1
-11268	-5340	14428	-1972	32767	-57	-24256	-6292	7980	-13883	18465	11919	-18760	-2016	25896	-11899	-22245	3686	-27452	10688	8804	-4880	16902	-9222	-25796	-716	-11276	-20067	16373	-7441	-20588	4268	1308	-14695	13713	1650	150	81	1
-32768	-7660	6396	-2300	32767	7693	-23208	-10040	-1884	-9327	21917	14517	-13016	-1548	8424	-9971	-8735	2835	-21088	-14292	15552	-7203	1574	-11220	-13808	3212	-11956	-26053	14915	-4130	-22260	-3260	-15784	-8045	18791	1545	63	100	1
-32768	-14564	11564	5008	32767	16307	-26604	-8100	-7028	-6954	23808	12729	-25024	-9216	-16920	-18162	-6346	-4352	-16588	2320	10088	-3438	-1435	-6059	-16288	-8232	-12892	-21857	11065	-1587	-12004	-1952	-7592	3360	11249	1387	243	100	1
-26856	-12408	21436	3759	32767	21672	-29764	-4100	-3048	-9003	19334	10586	-32768	-2452	-9440	-529	-18081	-5746	-14328	2956	10600	-493	-959	-2082	-15820	-11068	-10600	9553	12789	1403	-13636	-1168	-5048	3363	12225	858	165	101	1
-7644	-15664	32767	-3898	32767	21449	-23340	-6948	2968	-10271	11351	5840	-29852	1500	-2492	12543	-26960	-3251	-13352	4604	10100	1310	320	159	-17752	-3464	-7204	23860	11166	2556	-17236	3052	-5304	5443	14857	2970	154	117	1
-32768	-11216	27528	-514	7661	4207	-11436	-5192	-29924	19718	7624	5536	-27404	-2480	-4196	8740	-25147	-6339	-12840	4472	10060	1922	726	577	-18400	2432	-6088	23459	8921	3631	-18120	3032	-3320	8094	13059	-216	152	125	1
-14468	-10840	27464	6266	-32768	-3170	-14132	-1004	-5132	5109	3306	2499	-26420	-1212	-7420	6447	-22956	-8828	-12644	4288	10052	2419	1069	814	-15796	8552	-2364	7363	7159	2253	-17600	5152	-1180	6755	12822	-1013	0	112	1
-3024	-3960	17544	2176	-32768	-2707	-13984	-1544	-1692	301	-8516	1275	-25908	-3292	-9232	2099	-20250	-8134	-12724	4892	9640	3250	838	735	-15924	5100	-3304	-12070	4393	-392	-15344	4832	160	3856	12186	-1476	27	136	1
-6668	-4104	11672	-2565	-32768	-4920	-9248	-2336	-11424	9020	-16417	-2151	-20820	-2728	-9200	-712	-18627	-6833	-12524	5548	9368	3007	911	726	-17608	-740	-4592	-12393	3502	-1100	-14228	4964	-228	3227	12566	-1436	130	148	1
-9928	-7520	10160	-3010	-32768	-6591	-4996	-1444	-8300	12610	-24511	-4443	-14424	-3360	-8924	2271	-16504	-6179	-12628	5940	9120	2734	829	112	-15476	-4284	-4872	2532	3762	952	-15016	4688	76	4424	14335	-1720	115	96	1
-11312	-9696	10160	2650	-32768	-7009	-7008	-3192	-8304	18006	-31171	-5323	-12032	-3200	-8408	6373	-14637	-5934	-12260	5800	9292	2890	-107	-240	-15628	256	-3364	15867	5596	1923	-15664	2640	528	5682	14944	-1226	148	124	1
-14208	-6256	9200	5924	-32768	-7851	-12864	1876	-7844	16381	-32768	-6705	-11360	-2900	-9784	10386	-13686	-4948	-12472	5036	9412	3124	537	-603	-17140	8016	-1804	15107	5395	1474	-15164	1976	1220	7559	16278	-1007	156	119	1
-17740	-4968	7512	4210	-32768	-8233	-13312	-28	-10380	13202	-32768	-6202	-9960	-2004	-11328	17323	-12837	-4147	-12648	5148	9416	2151	660	-1370	-16100	3916	-2216	3063	5255	384	-14612	3084	1692	9566	17621	-1175	144	110	1
-19804	-4348	10280	-3557	-32768	-10508	-11948	864	-10892	2092	-32768	-6766	-7744	-740	-10356	21204	-12850	-3614	-12384	5300	9424	918	1294	-1507	-15716	1480	-3068	-3156	5171	-1163	-14468	3748	1736	12311	19234	-2066	153	124	1
-25440	-7884	11132	-9031	-32768	-12099	-13508	-1296	-11688	-478	-32768	-11381	-6852	1488	-9712	21108	-11785	-1653	-12580	5616	9220	385	1700	-1297	-16320	-376	-4144	-994	5297	-888	-15356	3424	1424	11542	19208	-1558	128	122	1
-29152	-12560	11708	-8165	-32768	-12972	-16296	-3076	-12200	1457	-32768	-15013	-6136	4844	-6952	15354	-10584	-42	-12584	6040	9068	157	1575	-1850	-16276	460	-3492	5264	6200	65	-15580	2708	-1112	7975	17952	-960	138	121	1
-32768	-13920	10716	-5898	-32768	-14570	-19152	-32	-14640	5490	-32768	-19437	-5560	7144	-5092	9574	-7109	1010	-12920	5452	9292	189	1449	-2461	-16384	2732	-2004	6927	7511	-322	-17108	3320	-2932	2471	15315	-751	109	136	1
-32768	-10832	7556	-4160	-32768	-18929	-19444	2928	-17876	16227	-32768	-23056	-7388	8292	1344	7556	-7235	987	-13120	5048	9736	257	1953	-2383	-16400	3372	-52	2562	8765	-1767	-18404	5324	-64	255	11186	-717	94	137	1
-32768	2624	2752	-12984	-32768	-27305	-21208	-3104	-14260	7445	-32768	-19803	-10588	4132	8560	9559	-8698	-388	-13020	5288	10076	-149	3048	-2096	-16916	2372	-760	-1936	10479	-3066	-18544	6024	4248	2148	8260	29	166	129	1
-32768	9160	-6816	-20552	-32087	-29811	-19800	2956	-21808	11190	-29585	-13556	-18160	-2552	17732	6671	-10305	-2978	-13436	6080	10068	-637	4259	-1906	-17524	3040	-1964	-4450	12323	-4209	-16728	5260	6076	4995	7963	1001	161	131	1
-32768	5068	-24920	-4096	-19730	-13158	-12992	2248	-18520	-1473	-19511	-9465	-18976	-392	23932	-3294	-2938	-6892	-12532	6560	12856	1143	5966	-2143	-19312	2420	-860	-2048	14277	-4475	-17064	3196	3696	7161	8801	777	18	137	1
-32768	23740	-32768	-2429	-6724	1973	-6048	5808	-21136	-8432	-3554	-8385	-19776	-5460	19108	-10284	1127	-4909	-14664	6884	11856	95	11037	-4166	-21324	-1980	-1764	1547	16538	-4839	-21260	1916	1392	9044	7726	-247	99	122	1
-32768	21572	-32596	-18254	7602	3036	-6552	4660	-19804	-11757	13798	-315	-17160	-3124	13392	-14209	2373	-61	-14176	4848	13816	-201	16500	-5230	-21780	-2696	-1812	3392	18794	-5125	-21332	1304	2588	10374	4201	-212	116	115	1
-9900	-16864	16848	17013	30380	23159	-19340	552	-4340	-25514	21275	4164	-11396	-4880	3596	-10601	6822	4199	-12464	5080	15332	-148	23183	-5950	-22800	-3156	-1320	2730	19936	-5586	-20540	1592	3948	12268	2526	100	144	114	1
25884	-32768	17312	22265	32767	5414	-32768	-15960	19892	-6877	6869	320	-14900	-5912	-2428	-5723	14885	2630	-9856	4596	16644	1831	32767	-5664	-25748	-4444	2696	3653	20883	-6880	-23224	2880	7076	12336	-1234	-647	179	114	1
-32768	3236	13076	19335	26922	5547	-3264	-14056	-15004	28391	19669	6595	-25444	-10512	6924	12662	8121	-8350	-8180	6292	17444	3610	32767	-5966	-27304	-7148	6884	5324	22450	-7466	-23616	2700	16028	12920	-13212	-2946	211	125	1
-25120	30912	19320	7579	28393	13564	-21320	1328	-5544	32767	22431	4329	-12880	-22068	6332	32767	6097	-7077	-17504	6908	16808	6102	32767	-7287	-30524	-6396	7616	9792	24023	-7811	-21632	-1096	21200	15974	-28873	-4286	188	125	1
-32768	-30096	3224	6673	14147	5237	-29636	604	-19300	28906	23156	12683	-21780	6564	-2964	29499	15335	468	-32768	13872	7532	8177	32767	-13799	-30108	10540	-3840	3744	28580	-8170	-20832	2456	2088	9412	-13505	-1600	192	111	1
-16060	2244	11892	4244	8363	8471	-12844	2988	-10260	15697	18835	4799	-20168	16004	-19072	16782	16231	2772	-29040	18132	14828	1868	32767	-25449	-32128	3888	-3492	-5974	25270	-9971	-25624	14156	-15980	8290	-13192	2484	0	119	1
-16304	1896	11392	3850	4725	6057	-15040	5988	-12788	13347	15304	302	-13652	9348	-13868	-6939	9856	-1779	-24528	15116	25568	5817	32767	-26752	-26816	1396	7516	6642	23842	-6743	-29472	2276	-6076	-644	-24197	1977	151	125	1
-13856	1200	11608	2236	3026	3010	-16708	8316	-10884	-9009	10652	-865	-11972	4036	-8104	-14396	9004	-3513	-15668	8104	26112	18289	32767	-23831	-19832	3412	-18696	-7145	17105	-3788	-31456	-820	-4556	-6521	-27547	2943	253	133	1
-12984	152	11480	644	2444	651	-17972	1752	-8800	-22822	6644	-2274	-14716	-552	-4900	-13342	11519	-5192	-30956	20856	19116	9974	-12241	-5399	-21768	2788	-11940	-13137	2815	-5552	-29912	40	-4936	-9994	-28755	6962	106	97	1
-12244	-1352	11016	-347	2029	-550	-18072	-4744	-6396	-22994	4770	-3575	-19244	-4732	-4888	-11082	16800	-2561	-7512	14612	21532	717	-32768	1670	-15484	-672	-1572	1677	-4809	-1221	-29248	2228	-6616	-2573	-27498	8889	253	81	1
-12148	-1080	10864	-825	1814	-918	-15524	-8204	-3932	-8843	4996	-1907	-19460	-4516	-4048	-7028	14013	401	-2672	9364	12992	3111	-32768	-224	-11664	-764	-4564	11427	-13104	3248	-24476	3036	-5980	6620	-24409	8368	169	66	1
-12012	-1700	10640	-931	1699	-1126	-13356	-8900	-3012	11269	6638	582	-14408	-4156	-1204	-1919	14322	1483	-12020	8856	8168	3453	-32768	2898	-3440	-1376	-9832	11120	-21633	4769	-18784	3888	-6396	4687	-22725	7955	189	140	1
-11868	-2296	10336	-223	1584	-920	-15828	-2744	-6616	16995	4647	430	-14316	-1212	-2060	-4982	9005	5919	-12524	10300	8812	1218	-32768	8198	-7676	4392	-6160	2029	-30112	2514	-14636	3104	-6136	-1735	-20338	8188	69	138	1
-11768	-2768	10168	213	1628	-479	-17572	1284	-4428	1519	4422	-657	-8840	-4964	808	-5087	22261	1943	-11952	8768	7176	-619	-32768	12398	-9028	-3304	-6816	1303	-32768	6129	-14940	1776	-8016	-10991	-22486	11421	1	126	1
-11852	-2420	10180	268	1638	16	-15748	-2024	-3904	-13309	1956	-1577	-15372	-3144	-1816	-5257	19514	82	-12684	6108	6740	321	-32768	16468	-11064	-2400	-7376	6170	-32768	8372	-12724	1096	-9192	-13975	-12804	5057	0	137	1
-11856	-1796	10332	-208	1741	378	-15116	-5240	-2740	-16031	2714	-1618	-14712	-2880	1640	-6065	20162	-1383	-14584	6928	8092	1716	-32768	20125	-10852	-2124	-7984	6966	-32768	10193	-9072	1132	-10036	-18991	-13775	4293	119	151	1
-11840	-2672	10236	-102	1905	1193	-14268	-8916	-1032	-7883	3892	169	-13788	-2436	1392	-695	16306	-1338	-19232	8132	9812	2189	-32768	21049	-12584	-1264	-9372	8236	-32768	12112	-6324	-36	-8868	-19176	-11239	2417	138	148	1
-11996	-2296	10224	415	1823	1867	-13920	-7068	-1476	1207	5948	1031	-18196	-3188	2340	-3072	14319	-6	-22908	8584	11516	2791	-32768	21914	-15204	-1036	-10368	4999	-32768	14699	-4280	-1912	-9052	-15992	-6874	1125	158	168	1
-12100	-2368	10376	1141	1913	2766	-15604	-4248	-2040	3598	7150	1718	-18620	-6304	-2088	-6877	14842	-753	-30680	8048	13156	5559	-32768	25455	-18420	-2288	-12312	27	-32768	16000	-3744	-2196	-7172	-12425	-2047	528	22	204	1
-12484	-2328	10760	1484	2402	2845	-17264	-2048	-2324	-1642	7348	1306	-18440	-3712	-1736	-3764	12644	-910	-32768	6732	10052	7659	-32768	30084	-21800	-5740	-16404	-5096	-32768	15412	-4536	-3924	-5040	-10953	-1208	385	171	173	1
-12684	-1204	10776	1481	2408	2581	-16352	-3904	-1000	-6390	8190	1620	-17960	-3640	868	1020	10219	-25	-32768	4356	3372	5998	-32768	32507	-23636	-5756	-20236	-3692	-32768	12956	-5932	-3992	-356	-11472	-4867	1188	89	147	1
-12648	-1412	10736	1714	2443	2242	-14744	-6392	1684	-4733	10453	2922	-16988	-4760	4552	1556	8969	688	-32768	-1076	-7144	547	-32768	29988	-24664	-5080	-20488	2547	-32768	10747	-10584	8	10440	-6920	-9690	2769	112	116	1
-12624	-1936	11276	1832	2678	2157	-13724	-8320	-156	830	13834	4228	-16916	-3236	7160	-1340	8165	-192	-32768	-3984	-23936	-7532	-26004	22651	-16452	-476	-21340	-650	-29501	8095	-19216	1700	25596	434	-9929	5317	93	45	1
-10728	-2060	15232	1632	5178	3506	-16600	-6768	-1288	2783	15647	4690	-16676	652	5920	-3492	8739	-1780	-32768	-13848	-32768	-10569	-13887	9366	-6544	652	-27748	-10395	-14134	5922	-21504	1300	27536	2398	-7800	6110	126	39	1
-12792	-628	13620	1419	11020	3226	-21168	204	-2960	-4060	16609	5504	-20260	1468	1356	-2516	7848	-2461	-32768	-29944	-32768	3571	474	6950	-6744	-6096	-24720	-12532	3305	1753	-16428	7880	19728	4287	1927	2120	105	117	1
-12708	1020	14468	877	16636	2350	-19920	-1312	-2360	-9345	17981	6182	-20044	-2240	1492	-8541	4996	-547	-32768	-18240	-31044	9924	17304	5532	-6752	-5276	-23076	-6357	19584	-3301	-11856	5688	12712	3625	2606	-2809	89	212	1
-11612	188	15304	740	23329	1719	-20852	-2880	-2360	-7888	19483	7115	-19196	-2824	1212	-12444	2354	-73	-32768	32767	30696	-3395	19643	-16455	-27100	-1156	13904	26430	23585	-4579	-8408	6200	1972	-3808	11285	-444	86	229	1
-10416	-20	15684	73	31665	1233	-22732	-1580	-1240	-7710	20089	7798	-20356	-2312	2884	-9513	-1180	1046	11084	10384	2192	5603	32767	-14262	-32768	6820	23020	2551	6775	2946	-18404	2240	-32	-4113	12213	3564	138	112	1
-10480	-492	16144	-20	32767	853	-25700	-2656	3012	-9641	20062	8737	-23420	-2716	8360	-4917	-7873	3062	-32768	4708	8440	-9086	25478	-17709	-5140	5176	-1896	-16706	18795	-1357	-21404	3548	10864	1737	114	7622	149	81	1
-6776	-3996	16292	-240	32767	-1854	-26144	-2352	3956	-10003	20134	8716	-24308	-1088	23004	-10642	-21887	4024	-32768	-17824	19720	-7446	32767	-21084	-29552	-5200	-12836	-32226	16240	-6748	-21368	17904	20616	-10532	4846	3527	160	105	1
-28528	-5744	9556	-3412	32767	2602	-26080	-6056	3516	-21846	20528	9376	-12580	5416	9444	-16450	-11037	5267	-30680	9528	4016	-11267	5930	-17605	-27336	-2844	-13332	-23785	21656	-9397	-27336	-9992	-1304	-14772	13633	101	101	86	1
-32768	-7744	13888	-1209	32767	10819	-24852	-15604	-11856	-17005	25195	10104	-26696	-3864	-7472	-15594	-8744	-3812	-18072	5032	8704	-4683	5260	-4764	-12796	-6340	-11176	-19112	18657	-1977	-15832	-9860	-16096	-3858	15629	-739	253	165	1
-32768	-14112	20212	4500	32767	20294	-32432	-1924	-3412	-11749	20768	6655	-32768	-3792	-15248	-11941	-15032	-7070	-18316	7072	8516	-4386	2908	-4820	-13308	-5940	-13444	109	16237	1698	-3808	3068	-12768	13056	11619	-137	196	93	1
-17900	-7200	32767	-6191	32767	18990	-25580	-3156	4416	-12711	15070	2436	-29296	6068	-4000	3194	-26763	-4496	-13344	4344	10072	-1334	-2524	-2565	-15780	-1156	-9480	14399	15264	1626	-12228	8328	-7188	5251	11798	2748	166	71	1
-32768	-13648	25152	-19785	13085	3697	-12860	-128	-30972	11014	10154	376	-29908	6220	-3520	4766	-28274	-5270	-12468	5444	9920	-723	-2116	-2549	-18812	1392	-7332	11147	10904	4	-18576	10004	-7264	3238	15476	3204	108	97	1
-13808	-14060	27456	-12552	-31102	-3789	-14660	6104	-4740	-12830	5517	-4784	-28956	7092	-7392	-3701	-25369	-7666	-12720	3608	10744	-548	-1293	-2715	-18288	1796	-4504	5010	8179	-483	-20716	4632	-3372	-1310	12751	-1632	151	109	1
-2524	-5088	17476	-10407	-32768	-4919	-13552	892	-2256	-19800	-8161	-9305	-28028	3248	-9624	-11840	-22656	-7582	-12356	4012	10656	-977	99	-2043	-16528	1836	-3736	-7722	6194	-1683	-16652	3064	-336	-4697	13682	-4038	0	124	1
-6044	-1196	12700	-11174	-32768	-9941	-7820	188	-9148	-87	-14567	-14378	-22960	2992	-9956	-13797	-22167	-7138	-12588	3632	10520	-1164	-215	-1406	-16252	56	-4728	-14351	4939	-2101	-14116	2468	-1300	-6249	14113	-3282	0	208	1
-9724	-264	12652	-9864	-32768	-13562	-5100	3872	-6288	11176	-20661	-16438	-16432	360	-9724	-12748	-20184	-7356	-12484	4448	9944	-1550	-46	-748	-16408	-1904	-4932	-11092	4198	-1705	-14776	2044	-1288	-4771	15594	-2620	95	111	1
-11544	1640	13904	-6224	-32768	-13738	-8068	3532	-7340	11970	-27637	-17059	-12388	-1212	-9156	-8287	-17435	-7397	-12428	4208	10404	-1523	-174	-863	-16644	-2052	-4380	-1117	4551	-469	-15884	2360	-1536	-4464	17072	-2736	138	115	1
-14948	5012	12600	-7488	-32768	-12690	-12116	5956	-7328	12231	-32768	-16696	-11272	-988	-9880	-3154	-15648	-6477	-12284	4196	10680	-1264	419	-770	-16188	-1400	-3152	5253	5718	207	-15912	-500	-764	-3141	17933	-2239	170	130	1
-15920	6220	12776	-10705	-32768	-11168	-13400	6508	-7832	9775	-32768	-17080	-9472	748	-10728	3350	-13860	-5160	-12484	3868	10844	-696	1384	-1103	-16544	572	-2888	3991	5864	375	-15656	-1736	392	-1726	18383	-1854	161	116	1
-19904	5848	14352	-14278	-32768	-10652	-13072	5652	-9420	3727	-32768	-17799	-7288	1492	-9924	8256	-12973	-3823	-12456	3548	10648	-592	2326	-1342	-15852	380	-3384	-468	6139	-118	-15244	-1300	1248	1131	19685	-1666	164	112	1
-25012	3148	15224	-15554	-32768	-10895	-15140	4180	-10488	1743	-32768	-18839	-5644	1716	-9316	11567	-11648	-2285	-12784	3860	10248	-352	3030	-1512	-16284	-656	-3800	-1500	6520	-585	-15432	204	2496	5179	22240	-2218	136	126	1
-28524	492	16448	-13263	-32768	-12796	-17132	2828	-10488	2514	-32768	-19286	-4912	976	-8052	10937	-9689	-711	-12908	3064	10236	-40	3121	-1451	-16448	-1580	-4512	1896	7103	-44	-16660	1352	644	8510	20269	-1690	165	134	1
-32768	-216	16960	-9532	-32768	-16519	-19852	3332	-11668	7755	-32768	-19639	-3828	608	-5776	10604	-7755	127	-12932	3628	10388	244	3237	-1555	-16736	-856	-4044	5236	7861	302	-17264	2552	-4540	5963	16810	-1174	138	141	1
-32768	4636	13492	-7886	-32768	-21557	-23956	1968	-15084	10050	-32768	-18508	-3832	564	-2320	10910	-6252	114	-12796	4020	10904	340	3991	-2062	-16768	988	-2200	4941	9015	-748	-17396	3476	-4216	-168	14373	-306	90	134	1
-32768	5284	5732	-5194	-32768	-22459	-24552	1308	-15356	9896	-32768	-17926	-7008	44	6472	12950	-7126	-1149	-12404	3488	12748	120	5167	-2739	-17228	1892	52	1194	10650	-2070	-18464	4244	1052	-2527	11444	586	49	143	1
-32768	2532	-14472	4758	-32768	-17627	-18404	-2804	-15160	20342	-31540	-8223	-17332	-5328	25024	10794	-14599	-3748	-13612	4316	11968	-257	7608	-3388	-18652	124	-1060	-1319	12636	-3321	-20108	4272	6476	3117	8729	633	99	113	1
-32768	8672	-32768	14870	-24764	-9419	-6940	2272	-21064	27208	-14792	-4294	-20828	-8840	26804	4959	913	65	-13804	3468	12644	-257	10757	-4172	-19108	-896	-2168	-681	14559	-4123	-18948	2564	7304	9564	8826	629	80	116	1
-32768	32376	-32768	-2825	-5552	-8870	-7024	8060	-21256	11898	2276	-230	-17396	-5568	22524	11905	3183	4764	-14188	3592	12912	-297	14373	-5197	-19928	-200	-2076	604	17116	-5169	-18460	976	5012	10582	7878	400	149	124	1
-32768	1984	-20952	-7666	14932	-320	-5200	-428	-18064	-8750	19984	5145	-16128	-3040	14516	11095	4540	5426	-13584	4988	13872	-125	19288	-6898	-21772	-496	-1772	511	18570	-6372	-20064	2924	2324	9543	5399	-133	167	118	1
-9896	-160	32767	-964	22232	-1739	-27220	-10408	19200	-32768	19797	7962	-16004	-1556	732	8274	9352	5191	-13164	5724	16108	-471	24814	-8799	-25288	-1288	-1792	1515	20065	-6993	-23156	6372	3000	11479	3230	-172	175	122	1
-30740	-13464	-17648	14218	32767	19077	-19228	-7100	-20580	-267	18062	3288	-32768	5968	24612	2259	-2716	2520	-12156	7880	14936	190	32767	-13564	-26548	-4492	2820	1944	21446	-7459	-25648	5316	7236	10738	-4355	-926	137	119	1
-15880	-13100	10956	14155	32767	271	-11072	-3868	-6340	324	21766	1516	-4128	9108	1592	11528	13137	4211	-10524	7296	18028	2713	32767	-16486	-28688	-4676	5540	7640	23539	-7117	-25508	3780	21244	13925	-25679	-3528	123	114	1
-32768	23364	15520	-2024	28203	5307	-25676	4560	-9364	18713	22840	7352	-18500	-11476	-3940	4297	8568	-7497	-26820	9960	15576	2265	32767	-20992	-31392	1848	5268	9803	24704	-8490	-19984	-816	14372	10171	-21000	-1884	109	138	1
-32768	-3112	13704	6719	12802	10608	-19700	-6412	-23452	2210	23347	5526	-21704	8984	-12816	1587	11920	-4832	-30496	9384	13488	966	32767	-26233	-30948	10828	-1952	-1365	27720	-10212	-23072	3412	-5420	9778	-12576	1682	165	125	1
-16868	-744	11208	3089	5954	5079	-14088	976	-13456	3170	16329	3320	-14272	-628	-18224	-21378	12318	-3840	-32768	20032	13412	-5510	32767	-32768	-27680	2292	-6124	-6529	22389	-10315	-23900	6908	-13960	5918	-13191	6479	235	106	1
-13432	-1256	11204	2389	3496	3501	-15536	3796	-11932	3365	12367	507	-12476	-5320	-10276	-7457	12524	-1680	-17176	28068	31928	-6066	32767	-32768	-21620	640	-1164	-7103	22781	-4883	-30508	-8284	-5304	-1322	-24749	5275	172	95	1
-12560	-564	11308	732	2042	880	-17240	4516	-8600	-11825	8581	289	-17208	-556	-6844	-3857	10824	328	-32768	9716	17460	-235	32206	-25111	-15724	-3852	-27444	-16090	11488	-242	-30976	-3540	-4052	-4792	-27193	5704	195	82	1
-12248	-1756	10948	-183	2010	-91	-17036	-4772	-6160	-15000	6294	-186	-17312	-2632	-4172	-4327	12286	980	-22620	11324	22540	3110	-20803	4863	-17248	-3500	-12244	-9592	-604	787	-29184	-3088	-6532	-3499	-26811	8675	162	48	1
-11984	-2388	10796	-530	1571	235	-15968	-9208	-3952	-885	6919	202	-18508	-4388	-2568	-2978	13294	1617	-3048	12168	17216	4736	-28206	12497	-10700	-6744	-1328	10190	-4882	3030	-27248	-2508	-7448	3756	-24907	9602	97	114	1
-12068	-2644	10412	35	982	470	-15612	-4816	-4652	10260	6699	824	-15696	-4592	-1128	868	12225	1788	-3788	8976	11304	4675	-28535	13411	-9948	-2984	-6820	20934	-11471	9248	-23556	-1024	-6756	10489	-22720	9214	121	113	1
-11820	-2548	10540	265	777	498	-15360	-2084	-4896	8315	5829	1610	-14276	-3684	-988	4583	12922	2576	-12292	5352	10360	3336	-32768	17798	-5460	200	-9452	15287	-21224	11925	-18272	1204	-7188	7955	-21212	8787	170	108	1
-11888	-2616	10424	1671	-684	498	-15152	-2476	-3860	2064	4584	1213	-14828	-2524	-1488	5171	14250	2842	-11564	4208	10680	1372	-32768	21488	-6592	-364	-4564	4377	-26534	12455	-14552	1732	-6788	1718	-19491	8985	1	140	1
-11968	-2640	10256	1676	-672	480	-15432	-3740	-3436	-1010	4121	553	-15932	-1444	-1116	3514	14852	2437	-12116	788	10308	2217	-32768	22054	-10840	-3028	-6172	-80	-32302	12635	-14104	1632	-6880	230	-19254	8863	120	131	1
-11844	-1448	10852	649	-401	824	-15984	-3016	-3748	-660	4276	372	-15992	616	-488	1333	16042	1633	-13708	-976	9948	5598	-32768	21482	-10944	-3352	-5908	-3065	-32768	13040	-11120	-348	-9740	-12770	-15598	7043	74	151	1
-11668	-1640	10664	-71	597	863	-15684	-2100	-3584	-1417	4135	313	-15040	1680	-288	-3632	17702	1052	-16372	-216	11516	9399	-32768	19398	-11312	-3408	-8016	-2214	-32768	13732	-8816	-280	-9060	-14819	-13678	5517	64	150	1
-11816	-1560	10596	-146	645	847	-15124	-2616	-3700	-3300	3973	317	-12760	732	720	-6550	19283	827	-20388	1356	11936	12330	-32768	18365	-12780	-5376	-8848	582	-32768	14786	-6596	-1428	-8700	-14089	-11023	3848	68	138	1
-11684	-1868	10740	-62	765	1038	-15344	-3212	-3260	-3941	4082	434	-13668	-1592	1964	-3486	19786	1123	-21324	2436	13412	13705	-32768	19675	-15020	-6496	-9900	4569	-32768	16461	-5056	-2136	-8888	-12266	-6976	2592	131	160	1
-11768	-1988	10592	-71	863	1447	-15444	-3116	-2164	-5767	4529	435	-17912	-2168	608	-4265	18647	1144	-25808	3572	15976	15112	-32768	21605	-19124	-6352	-10436	8652	-32768	18279	-4076	-2384	-7528	-10053	-2599	1815	118	225	1
-11604	-1756	10676	67	1024	1760	-15468	-3948	-1068	-7104	5618	998	-18820	-3080	-3016	-5775	13034	27	-32768	1536	15180	17779	-32768	24734	-22348	-7748	-17416	6688	-32768	20371	-4256	-2696	-5764	-10044	-1890	1405	66	197	1
-11712	-1864	11332	345	1815	1900	-15684	-5428	0	-4965	7456	2149	-19672	-4852	740	1162	8356	-537	-32768	-4252	9756	20602	-32768	27851	-25348	-6856	-18656	8391	-32768	19941	-5868	-3804	-1536	-9918	-3648	2295	117	113	1
-12072	-1648	11564	933	3062	1832	-16160	-5724	4	390	9888	3359	-19140	-6252	3556	4224	7896	130	-32768	-7352	-44	18815	-29812	29491	-24816	-5240	-20084	10163	-32768	16567	-11576	-1004	10288	-1372	-8113	3062	80	107	1
-12128	-1804	11768	1846	4554	1875	-16660	-5220	244	2910	12306	4381	-17540	-5228	4540	1093	8770	784	-32768	-6556	-17400	2632	-28064	25085	-17356	-660	-19264	3969	-30351	11905	-20932	3484	26556	13518	-11131	4695	97	77	1
-11900	-2036	12584	1064	6462	2184	-16600	-4464	-1532	1539	14159	5090	-17424	-1364	4460	-2270	8304	139	-32768	-15324	-32768	-14784	-20058	11912	-7544	-2940	-24388	-9564	-15724	7453	-23464	5092	24544	16920	6176	8355	113	9	1
-11292	-608	16164	739	10831	4154	-18852	-3104	-1036	-2353	14788	4988	-18228	2520	3648	-3044	7815	-711	-32768	-32768	-32768	-5942	-2414	6878	-6568	-6632	-18764	-9214	2080	1030	-16360	12504	22104	5535	2966	2278	130	96	1
-12164	112	14520	793	15261	3233	-19688	-1576	-1176	-2667	15097	5053	-20048	3300	1624	-2455	6106	-1197	-32768	-22588	-30004	2718	15426	4557	-5740	-2320	-23192	-13277	19816	-4997	-13884	10304	14236	-3430	790	-1783	117	198	1
-12096	780	14916	987	21075	2127	-20420	-232	-3172	-8563	17373	7132	-19568	252	1368	-7849	3125	802	-29264	912	27112	-7242	18055	-21437	-28048	-2564	12608	11237	22073	-8050	-9380	8552	1400	-14757	8916	450	83	238	1
-9752	1168	16576	-8	28803	678	-23208	-20	-1848	-9296	17845	7935	-21332	-1732	2084	-10118	113	2768	1656	13096	3088	-3286	26322	-17893	-25396	-2612	3672	-8907	8337	-5	-18840	752	-884	-15753	12069	2276	100	136	1
-9472	-1772	15824	-571	32767	-2191	-26460	-1300	2324	-11869	17692	9510	-24876	-2644	6740	-6207	-6699	4181	-26812	6228	14416	-6141	28963	-9453	-7748	-5576	-1036	-11372	18600	-4424	-21380	-2292	13488	-1456	-9146	1700	172	90	1
-6916	-3848	16504	-187	32767	-2495	-25972	-2816	8084	-14269	17962	10297	-22784	-2528	19524	-4882	-19642	5495	-32768	-10716	15904	-8508	28950	-18894	-26340	-288	-9192	-14456	17101	-5527	-14248	5544	11464	-10767	8989	-2228	153	80	1
-15364	-7008	13088	-2573	32767	516	-25224	-8040	7708	-16821	18736	11838	-14408	160	11968	-18645	-13226	4909	-32768	32767	2708	-11375	15630	-7802	-24572	192	-14380	-18531	17397	-7859	-23620	-4028	-7728	-7600	14839	1635	204	123	1
-32768	-4304	8304	700	32767	11508	-22792	-14108	-12472	-6425	23512	13941	-20800	-3208	3432	-8657	-8516	-2287	-17644	3184	9720	-4391	7019	-6019	-14256	176	-11184	-20918	15844	-3517	-19432	-1740	-16552	4216	14785	3251	153	127	1
-32768	-13752	15076	9392	32767	22441	-30688	-4216	-7772	-5110	22319	10671	-28884	-12068	-18988	-16694	-6928	-7515	-16152	952	10892	-2174	-115	-4136	-16636	-9180	-14636	-14110	12571	-788	-10324	2280	-11984	12491	12634	1842	157	103	1
-20168	-12208	27920	6757	32767	25101	-28820	-5376	4284	-9712	16875	8406	-32336	640	-5812	5523	-23591	-5179	-14120	2064	11064	136	-831	-1341	-15872	-9784	-11336	12869	12485	1731	-14928	904	-7116	2479	12126	1372	194	115	1
-32768	2680	18716	-5943	32767	18419	-18388	-5000	-12936	730	8105	3368	-30680	1508	-5788	7367	-24470	-4760	-12864	4428	10148	1771	241	705	-18224	-2248	-7604	24298	10646	2620	-17824	3812	-6792	5228	15588	713	120	117	1
-32768	-12304	29260	-8031	-7861	1435	-8716	-3168	-26300	16856	9026	3733	-26156	1492	-4836	6414	-25176	-7255	-12736	4596	9932	2100	832	818	-18272	2932	-5836	21639	7940	3602	-18256	3376	-3644	4630	13231	-2862	137	118	1
-9560	-10980	22756	-1912	-32768	-2216	-17388	384	-1064	-4458	-966	-1512	-26720	668	-7960	3511	-22503	-8288	-12320	3660	10280	3239	855	1041	-16388	7980	-1664	5239	6311	1970	-16452	5160	-1160	2961	13379	-2969	0	116	1
-2916	-6284	12788	-2226	-32768	-3454	-11232	-168	-4724	-4167	-11040	-2506	-24408	-852	-8980	-2562	-20242	-7770	-12436	5036	9676	3589	810	720	-16076	5332	-2676	-11171	4155	-1069	-14424	4704	-296	69	12474	-2443	34	142	1
-6796	-4888	9952	-3267	-32768	-6181	-6660	-520	-10076	2819	-17246	-6076	-18648	-448	-9728	-3106	-18506	-6629	-12556	5960	9132	2677	750	294	-17272	708	-4076	-10466	3444	-1233	-14788	5412	132	129	13530	-2257	125	124	1
-10352	-4828	9732	-2729	-32768	-8893	-4228	-56	-7368	11985	-24650	-8743	-14220	-1536	-8576	-630	-16617	-6605	-12616	5760	9244	2199	741	-475	-15756	-1368	-3672	3128	4228	202	-15320	4520	816	1891	15386	-1768	134	109	1
-13028	-4856	10476	21	-32768	-10472	-7008	40	-9164	15434	-31010	-9971	-11376	-1684	-8768	3248	-14806	-5439	-12400	5368	9436	2136	531	-899	-15856	-40	-3024	12743	5600	1437	-15484	1952	1316	3646	16592	-478	157	125	1
-16044	-4116	8300	-451	-32768	-10123	-12444	2584	-8548	11688	-32768	-9666	-10672	-1836	-9560	7649	-14058	-5111	-12364	5400	9368	2462	355	-1731	-16676	3504	-1632	12987	6280	790	-14776	484	2640	6741	16644	-365	140	117	1
-15932	-560	9300	-4034	-32768	-11502	-12408	2228	-9148	10739	-32768	-10979	-9740	-688	-10124	15466	-13296	-3991	-12352	4940	9604	1608	665	-2076	-16040	3884	-1872	4672	6218	-285	-13888	1132	3696	9702	18925	-1229	157	103	1
-20348	-224	11496	-9062	-32768	-11589	-12172	2600	-10644	5423	-32768	-13029	-7256	792	-10004	19754	-12352	-2713	-12528	5424	9428	281	1141	-2195	-15868	2488	-2804	-2276	6264	-1690	-15872	2924	2988	12849	19418	-2162	139	119	1
-26852	-1872	12476	-14172	-32768	-12162	-14264	784	-11336	859	-32768	-15800	-7136	976	-9872	20115	-11929	-2440	-12780	5516	9416	-717	1283	-2129	-16660	-204	-3684	-1900	6152	-1560	-16344	5212	-1516	14138	18109	-1290	146	125	1
-29628	-6004	13568	-13918	-32768	-14091	-16384	-480	-11932	2571	-32768	-17419	-5984	4160	-7164	12777	-9777	411	-12892	4808	9976	-423	1522	-2107	-16976	-976	-3444	3348	6975	-1198	-16916	4352	-6076	7936	15279	-521	172	134	1
-32768	-11552	13232	-8364	-32768	-16169	-20692	1332	-11292	5762	-32768	-20339	-5096	5760	-5044	5974	-5441	865	-12944	4464	9844	-32	2085	-1804	-16776	736	-1952	5253	8235	-1590	-17444	3556	-3892	-1454	11676	-1055	104	135	1
-32768	1688	11524	-3789	-32768	-22806	-22916	412	-16108	10187	-32768	-21470	-6164	4920	1004	3198	-4980	245	-13112	4708	9908	139	2980	-1314	-16440	3228	-468	492	9648	-2601	-18044	5556	2096	-2926	10424	-1564	95	140	1
-32768	4068	5228	-10272	-32768	-29406	-23776	-2420	-15532	4874	-32768	-17143	-11060	1176	8548	4537	-7926	-1505	-13768	4460	9812	-595	3844	-1231	-16396	2200	-652	-3711	11116	-3723	-17724	5696	5092	172	8445	-1020	120	138	1
-32768	1612	-11920	-6137	-32768	-26150	-18056	-2296	-17372	16322	-29980	-11964	-19360	-3348	21828	4581	-12678	-4097	-13288	6068	10500	-516	5074	-1379	-16880	3060	-768	-5194	13451	-4780	-17024	4368	5816	2339	8550	-153	150	128	1
-32768	5716	-31840	8258	-21121	-13666	-9192	1624	-19308	20243	-14626	-7720	-18856	-6700	26060	-3247	1831	-6582	-13844	5464	11844	-656	9017	-3974	-20100	-692	-1396	-2331	15110	-4881	-18788	1264	4272	3994	8528	379	1	132	1
-32768	8964	-32768	9463	-18889	-11698	-6308	6796	-19948	6835	1938	-4014	-19772	-8232	22216	1053	2095	-3732	-13528	4868	13620	-540	12732	-5330	-21012	-2716	-3836	1047	17661	-4926	-19676	-928	1984	6964	6886	433	123	114	1
-32768	15300	-32768	-9632	12106	-2796	-6424	3880	-19852	-3036	19420	3071	-15248	-2884	13072	2937	3427	2290	-13404	5240	14072	-263	18444	-6225	-21392	-2456	-2416	2347	19434	-5615	-19776	-892	1696	7950	6340	290	176	117	1
-7128	8260	20172	15085	26250	14491	-25052	-1520	6712	-24027	21604	6402	-10108	-3896	-320	2080	9132	3391	-11880	4448	15668	64	25185	-7135	-22836	-3012	-1528	3078	20640	-6000	-20524	2668	2440	15584	2489	-255	214	121	1
21168	-18104	2568	16583	32767	18599	-32768	-5708	8284	1710	8895	-1800	-19324	1044	-1640	-1117	15476	3333	-10788	6572	15636	1499	32767	-7373	-25752	-4164	2960	3901	21626	-7376	-24440	4088	5864	13402	-2516	-784	230	115	1
-4832	576	-2560	16238	32767	20849	-5272	-4436	-2240	9075	17623	4130	-27180	-4288	12872	11454	20	-5789	-10588	6528	16692	3698	32767	-8680	-27244	-6472	5504	6959	22999	-6971	-23696	2696	19616	14820	-19257	-3740	154	118	1
-23124	26852	20812	7105	32767	6197	-24544	-324	-2948	14310	20291	2679	-11088	-15556	9028	32767	6127	-2243	-22188	8488	15120	5533	32767	-11386	-30504	-2872	6772	10332	24238	-7632	-19036	-1708	18364	14786	-22458	-3038	139	133	1
-32768	-31340	15204	2979	18908	1403	-26948	160	-3988	18342	21125	3775	-20872	7768	-4080	16093	14454	-453	-32768	13596	10080	6351	32767	-19548	-29716	10220	-2152	2165	28416	-8450	-21696	3352	-1448	11375	-12639	-568	177	117	1
-13884	8896	12208	3576	7694	7180	-16140	832	-9160	7407	19667	3817	-21080	8788	-18600	3181	12544	-311	-32768	18080	13184	2027	32767	-27938	-30976	3968	-4284	-3809	25191	-10380	-25576	14424	-14924	8978	-12170	4982	61	107	1
-16656	2180	11236	2673	4911	3659	-16720	2164	-12424	14737	16436	1481	-11460	4124	-14012	-13786	10073	-3773	-31728	19692	12772	1809	32767	-28609	-25752	2456	2676	3397	25052	-6492	-29728	-324	-5780	-2062	-24237	3888	159	108	1
-13600	456	11292	1421	2907	1271	-15120	9368	-10804	-8964	11322	-93	-11456	1600	-8908	-13716	9007	-3152	-25948	20528	27880	4421	32767	-29529	-18876	1640	-18196	-10154	15670	-3595	-31940	-1272	-4644	-9797	-27848	3956	98	93	1
-12336	-1016	11116	252	2370	-198	-16276	1204	-8116	-25875	6884	-1831	-15572	-1352	-5756	-13630	9304	-2574	-26104	17068	17080	9256	-12647	-5675	-20236	236	-11236	-10482	2326	-3442	-30072	-2048	-5724	-10423	-28732	7065	172	61	1
-12152	-1908	10680	-488	1845	-539	-18064	-8000	-5588	-24708	5066	-2499	-18916	-7220	-4576	-11441	14979	-1089	-5852	14348	19636	3242	-32768	2662	-12064	-2536	-2552	2851	-5279	337	-28240	-796	-7172	-2324	-26587	8487	253	129	1
-12092	-1804	10888	-803	1611	-480	-14904	-12408	-3144	92	6553	248	-19508	-7216	-2284	-4770	11653	1940	-2352	9580	12340	2980	-32768	2751	-10148	-2812	-5940	13859	-12454	5863	-24024	184	-6896	7701	-23379	8049	108	90	1
-12068	-2312	10264	11	856	-199	-14052	-7016	-4700	16764	8165	1769	-14316	-5580	-544	1903	11816	2519	-3024	9220	11744	2785	-32768	3188	-7024	-864	-9664	14193	-21875	7730	-19084	1708	-7276	7124	-20845	8043	130	138	1
-11992	-2732	10168	1298	-261	4	-15476	-2300	-4988	16535	6864	2691	-14772	-2868	92	4111	13165	2132	-13448	8700	8940	511	-32768	13105	-14056	8532	-15592	11664	-28142	12827	-13676	-1084	-7736	2942	-18475	7432	49	142	1
-11812	-2368	10428	1830	-878	544	-15272	1740	-3392	658	5093	762	-9848	-2852	-3612	-1155	17699	2316	-14076	5308	7872	-221	-32768	17642	-9988	-2068	-8324	1229	-32768	5121	-13068	936	-8484	-6750	-18783	9079	32	120	1
-11972	-2272	10152	1688	-1150	566	-16152	-2640	-4400	-9521	3451	-380	-16664	-924	-804	-1939	14062	1453	-14176	2424	7744	2850	-32768	20768	-11100	-4016	-6920	3017	-32768	11949	-11644	236	-9820	-14277	-14939	6000	72	143	1
-11892	-1956	10784	428	-644	988	-15292	-5252	-2472	-9154	3582	-322	-16128	-476	184	-4356	16452	316	-15864	3400	8836	5615	-32768	21677	-11276	-2872	-8204	3447	-32768	12675	-9380	-192	-9968	-19279	-13708	4549	206	156	1
-11820	-1780	10624	130	-38	1376	-14868	-5708	-3068	-3552	4566	529	-14288	-648	656	-4973	16784	433	-20796	3820	10412	7855	-32768	20777	-12096	-2616	-8104	6085	-32768	14633	-7016	-1056	-9276	-18602	-11372	2245	115	132	1
-11640	-1676	10536	255	327	1704	-14500	-4128	-3488	474	5583	1273	-12920	-1872	1488	-3023	18665	825	-23968	5396	11368	9574	-32768	20920	-15312	-2968	-10220	5074	-32768	16879	-5556	-2032	-9084	-14943	-7745	1303	92	153	1
-11716	-1772	10512	752	747	2274	-15252	-2940	-3212	605	5853	1170	-15692	-2084	1456	-4323	19278	26	-26836	6620	13684	10298	-32768	22424	-15684	-3040	-10264	4791	-32768	17201	-4020	-2704	-7632	-10985	-3688	1016	133	176	1
-11724	-1852	10928	1154	1115	3024	-15668	-2408	-2648	-2240	5934	686	-17552	-2404	-2732	-6431	16942	228	-32768	4400	12808	11118	-32768	27496	-22204	-7476	-16196	-3173	-32768	18336	-4900	-3584	-4972	-9323	-2567	1359	65	199	1
-11660	-1236	11272	777	1971	2672	-16208	-2104	-1424	-5349	6812	827	-19264	-3536	-2448	-434	12139	-564	-32768	416	6832	10410	-32768	32767	-24528	-7196	-19656	-1818	-32768	15261	-5984	-3132	-492	-7714	-5309	2411	101	120	1
-11840	-488	11244	692	3104	1984	-16068	-4064	48	-4996	8798	1839	-18772	-5856	1140	4847	8333	529	-32768	164	-2984	3264	-31073	32640	-24600	-4512	-20208	2678	-32768	12065	-10320	248	9680	-3339	-10171	4079	118	130	1
-11984	-1200	11788	1276	4397	1505	-14664	-7608	136	1088	11736	3129	-17088	-6524	5500	4380	7912	1537	-32768	-2896	-18468	-10759	-28282	25384	-17688	456	-19196	-4072	-32313	8577	-17492	2536	22552	5889	-8365	5611	100	82	1
-12292	-1584	11908	1165	6140	2058	-16060	-6804	-1724	5734	14478	4176	-17620	-2744	5720	1453	8826	-198	-32768	-9884	-31788	-19378	-18935	12977	-8352	-2116	-26088	-18530	-18028	5930	-25344	3644	23972	9582	2818	6153	116	0	1
-9272	-2928	17048	1293	8586	3311	-17560	-4140	-2532	955	15285	4121	-16932	2464	3792	-578	8881	-1652	-32768	-32768	-32768	-5183	-3775	7828	-8120	-2840	-26192	-16745	-15633	5411	-16908	9256	20136	119	1579	2436	112	98	1
-12180	304	14380	665	12922	3453	-20184	64	-4088	-7659	15844	4697	-20336	2276	896	-2400	7044	-1503	-32768	-22440	-32384	11737	12963	5866	-6416	-4076	-24008	-6522	13999	-1210	-13772	7172	14452	-1486	836	-2382	102	192	1
-12740	484	14448	635	17935	2654	-19900	-1740	-2940	-11077	17131	5547	-19844	-852	1064	-8869	3739	-537	-32768	-18000	-30468	10925	14760	3705	-11652	-240	-23344	-1119	27691	-5919	-10292	5284	4892	-6664	5673	-1335	78	239	1
-11032	464	15584	577	24175	2203	-21404	-2288	-2768	-8412	18378	6502	-19456	-1972	1580	-11239	927	380	31272	17396	32767	4435	-909	-7436	-32768	-660	32767	32767	14578	-4295	-13124	3736	-1188	-6834	10776	647	82	154	1
-10188	-8	16512	-651	32767	446	-24448	-2192	-1012	-9799	18348	7563	-22496	-3224	4000	-8741	-2889	2059	-24644	-3488	-2704	-3723	29610	-31816	-5864	11156	-6856	-4331	19594	1600	-22768	-5804	5624	3523	2515	2245	176	106	1
-8628	-3324	16024	-370	32767	-1507	-26056	-560	4408	-11844	18398	8276	-23384	-2184	13756	-6575	-13581	3641	-10352	16184	7196	-9689	28401	-14982	-20112	2992	3840	-19758	18891	-5980	-18468	3124	19328	-9675	2304	661	173	84	1
-7316	-2900	16024	-561	32767	-1458	-25472	-2336	8728	-18818	18383	8464	-18752	568	19880	-19450	-18389	3821	-27960	-3184	10152	-2594	24894	-11962	-29356	-8228	-11256	-26066	17199	-5768	-22080	11784	9360	-9429	12360	5497	133	98	1
-31892	-5408	6808	-3307	32767	3749	-24836	-7932	2152	-17732	19807	10745	-16504	3440	11528	-10323	-9371	2562	-25220	-13708	17436	-8474	-459	-12942	-14444	-192	-12260	-23317	18129	-5912	-22292	-4048	-14852	-5681	20058	1457	85	96	1
-32768	-18992	10752	1731	32767	12391	-25052	-12592	-9684	-13199	23240	10324	-26196	-11772	-11460	-20129	-7649	-4853	-16364	924	10340	-4118	-1958	-6541	-15560	-4052	-10316	-23449	14325	-2043	-9752	-4436	-9400	727	15716	1345	209	184	1
-30456	-12424	21204	3547	32767	21418	-30656	-4536	-3608	-13018	20058	6822	-32768	-4272	-12636	-4158	-15825	-6357	-14192	4916	9760	-257	-1337	-1850	-14656	-10360	-10216	2850	13501	1858	-8480	1396	-8564	9331	10239	-281	213	96	1
-3748	-11116	28388	-3571	32767	21797	-24464	-6184	5604	-8180	11853	3901	-29696	3260	-2764	10818	-25800	-4555	-12868	4592	10168	754	-583	-554	-16904	-2536	-7592	17458	13021	2090	-15240	5488	-5648	1905	11740	3437	158	93	1
-32768	-9244	22280	-10876	22294	8409	-11132	-2780	-30908	14807	8920	2084	-28040	5040	-3004	7132	-25869	-5208	-12552	5356	9724	1016	163	-786	-18452	-56	-6912	19742	10406	3301	-18584	4716	-4616	5619	14587	705	146	82	1
-24704	-11240	26000	-5080	-24754	-2923	-10996	3808	-10428	3730	7311	-1682	-26416	4480	-5788	1781	-24573	-7545	-12488	3560	10644	1221	692	-693	-17712	5156	-3104	9885	7852	1588	-18696	4068	-2136	5186	12047	-3335	99	117	1
-5700	-5244	17212	-4354	-32768	-5026	-14804	4660	-2236	-10980	-6406	-5306	-26336	4056	-6168	1196	-24075	-7644	-12564	4440	10080	1005	375	-815	-16224	4956	-3292	-6583	5693	-354	-15628	5124	-800	1508	12218	-3151	0	134	1
-3880	-1016	11544	-6943	-32768	-9530	-8172	2264	-8352	-6851	-13111	-8386	-21748	1192	-9252	-7286	-19628	-6502	-12620	5084	9828	291	201	-551	-16836	2008	-4276	-13683	4331	-1510	-14408	4560	-824	-613	12735	-1983	106	169	1
-8260	-800	10112	-9167	-32768	-15065	-4964	1072	-6112	2375	-20367	-11895	-16924	-312	-8852	-6777	-17641	-6169	-12664	5268	9736	-162	407	-597	-17140	-1976	-4524	-7704	3713	-960	-15360	4280	-812	-228	15472	-1717	145	98	1
-10064	-2684	11404	-4624	-32768	-16757	-4572	1596	-5244	4993	-21424	-12218	-12932	-1624	-8784	-4167	-15490	-6177	-12448	5012	9764	-197	289	-909	-16596	-2684	-4612	-5907	3746	-748	-15920	2540	-608	135	16603	-1494	154	123	1
-14188	-256	11372	-13	-32768	-15130	-8668	4156	-7588	13723	-30629	-13869	-12280	-1252	-8780	161	-14490	-5074	-12432	4524	10080	293	418	-1159	-16652	300	-2776	9221	5360	636	-15228	336	452	2014	16764	-1327	144	127	1
-16388	2680	10652	-1635	-32768	-14130	-13524	3824	-8516	13867	-32768	-12676	-10836	-996	-9696	7459	-13882	-4567	-12560	4400	10260	592	1022	-1454	-16900	2412	-2120	6468	6280	269	-15160	280	2020	4490	16659	-1565	134	123	1
-18120	4120	11384	-7412	-32768	-14002	-12992	4172	-9968	10624	-32768	-12873	-9092	96	-9924	13811	-13742	-3422	-12300	4712	9916	32	1520	-1687	-16000	2336	-2188	428	6604	-663	-14964	1620	2964	5995	18295	-2084	140	112	1
-23164	1848	12576	-13613	-32768	-12771	-13268	3540	-11288	4086	-32768	-14275	-7324	1500	-8772	17204	-12530	-2062	-12748	4752	9924	-164	2031	-1705	-16232	204	-3396	-1340	6800	-1243	-16300	2776	2608	7055	18828	-1862	114	124	1
-27612	-2220	12452	-15592	-32768	-11277	-15696	2568	-10688	-1338	-32768	-16693	-6836	2192	-7588	15198	-12228	-522	-12860	4616	9996	-122	2469	-1683	-16580	-856	-4208	1471	7492	-905	-16320	3516	-1700	8369	16951	-1271	179	132	1
-30196	-5852	13488	-11585	-32768	-11043	-17692	1308	-10808	-2481	-32768	-18827	-5748	3676	-5292	8660	-9129	350	-13132	4076	10292	273	2687	-1745	-17008	-252	-4600	3950	8034	-941	-16400	2644	-6172	4736	14766	-1097	194	130	1
-32768	-6116	13268	-7035	-32768	-13074	-20792	1956	-13188	3508	-32768	-21578	-5228	4276	-2540	3166	-5420	311	-13312	4160	10300	816	3367	-1782	-17148	588	-3748	2785	8382	-1506	-16684	2456	-4632	-1749	12839	-1054	164	133	1
-32768	2536	10428	-7417	-32768	-20013	-21324	2048	-13976	4345	-32768	-21772	-6352	3500	3336	1177	-3523	-434	-13144	4752	10892	1291	4356	-1642	-17212	396	-1872	1352	8831	-2119	-17712	4500	-412	-1630	11752	-1068	62	134	1
-32768	3156	368	-9419	-32768	-23666	-21660	-2668	-13692	3208	-32768	-15562	-11600	1084	10012	442	-6538	-1971	-13328	3640	11228	555	6611	-2767	-18396	0	-848	64	10486	-3046	-19428	5048	3372	2302	9937	-1191	123	137	1
-32768	-656	-15756	-969	-31786	-18374	-15768	-1476	-18164	18468	-26740	-11350	-19940	-5256	22872	-2005	-12276	-3750	-13296	5196	11716	21	8931	-3598	-18260	516	-724	-372	12922	-3892	-19332	3620	5576	3189	8959	-793	85	123	1
-32768	11068	-32228	9293	-18684	-8672	-9260	3820	-19596	22136	-11648	-7718	-17104	-11812	22948	-1896	4716	-3668	-13860	5236	11896	-387	12066	-4359	-18780	508	-1176	-1056	15231	-4613	-18308	1596	6240	4405	8176	-236	55	130	1
-32768	28216	-32768	-4062	-2472	-7686	-5572	7428	-18348	8049	6408	-804	-18500	-10160	21204	8651	3062	-613	-13904	4756	12484	-554	16235	-5855	-19868	-464	-2824	-1250	16958	-5491	-17968	-724	4152	7947	7004	-61	171	126	1
-32768	11860	-27220	-2514	13356	655	-6088	2760	-20572	-1412	21810	5332	-14436	-3716	10872	8518	6883	2187	-12792	4408	13368	-435	21013	-6367	-20924	-2488	-1532	230	18147	-6140	-19212	696	1224	11846	5202	-397	159	115	1
-4088	10572	32767	5260	14759	10985	-27416	-3420	11276	-26132	20078	7064	-11212	-2148	-2700	6808	11676	4060	-11584	4968	15004	-31	26986	-8211	-23376	-3388	-1012	3838	19528	-6245	-21652	3540	2108	14925	2273	-624	197	118	1
11148	-8296	-484	13752	32767	25452	-27248	-1196	-5504	4460	11225	-1475	-24068	5812	-1004	589	16404	7011	-11700	7584	13672	1931	32767	-9682	-26088	-3776	3756	5907	20772	-7094	-22640	3888	2596	14910	1677	-641	204	116	1
-9732	-15360	12488	13176	31665	2575	-6672	556	2364	-242	16508	2170	-18340	3488	9844	17367	4508	2868	-13808	7092	14748	5178	32767	-11800	-27008	-4348	4608	9563	22304	-6712	-24304	2788	21176	16997	-26138	-3027	197	111	1
-32768	26952	16484	5577	32767	5879	-26384	-4820	-6984	9440	20189	3560	-19116	-21492	7852	22865	5421	-5569	-32676	9872	9300	4264	32767	-17226	-29332	4504	-88	8650	25056	-8234	-17232	-1080	13048	11416	-18111	-1137	143	117	1
-32768	-32768	4004	4784	17619	962	-24756	952	-19192	18833	20888	9380	-23248	14164	-9856	10516	15387	-893	-32768	12644	10592	-491	32767	-28391	-26992	7848	436	-4223	25563	-9624	-21900	7628	-6976	11519	-11942	1512	106	107	1
-15772	4004	12080	2886	7662	5456	-15432	2300	-9996	7323	17662	3608	-18904	7300	-18088	-9459	12957	-1619	-29440	19468	14320	-349	32767	-28837	-31176	1252	-3544	-3644	22420	-9856	-25856	11928	-11620	9179	-13934	5028	155	108	1
-15608	560	11044	1881	4372	2114	-16852	5588	-11672	6576	14025	758	-8752	-908	-12804	-11264	13205	-4312	-25728	20692	25864	-579	32767	-32768	-24124	2416	3736	2896	22635	-5810	-30824	-1400	-5572	-7194	-24320	3895	164	86	1
-13372	68	11540	485	2496	-183	-16100	6084	-9524	-12181	9264	336	-13788	1996	-10344	-10224	11790	-2340	-32768	3760	18012	10832	32767	-24911	-16836	1736	-24656	-12234	11765	-2503	-30464	-612	-4264	-9932	-26551	4482	17	80	1
-12160	-2772	10816	-643	2348	-1211	-16148	-2260	-6768	-20724	6331	-1973	-16528	-36	-6408	-9773	10674	-1844	-25480	15348	20640	6792	-22444	-2899	-18876	-136	-11500	-9376	-1260	-2788	-28388	-1272	-6004	-9378	-27032	7814	253	94	1
-11832	-2324	10856	-1153	1917	-1114	-16536	-8220	-4688	-13681	5255	-2347	-17916	-5388	-4648	-7832	15970	-130	-6340	14624	17440	3428	-32768	3883	-12072	-2456	-1204	4725	-5740	-147	-26620	192	-7168	-496	-24653	8689	163	127	1
-11704	-2412	10732	-1406	1831	-1307	-15720	-7724	-3264	1741	5769	-496	-17632	-6328	-2692	-2506	13179	1462	-4256	10508	11016	1485	-32768	5588	-10976	-1804	-5964	13950	-13162	4522	-23096	1568	-6568	6474	-22006	8698	89	100	1
-11712	-3188	10324	-1149	1594	-1259	-14404	-6088	-4060	7225	5712	695	-14460	-4876	-564	1977	14028	2003	-11472	8700	8820	-557	-32768	10817	-8172	416	-10152	12090	-22897	6387	-18040	3480	-7168	4622	-19419	8959	1	112	1
-11448	-4276	10172	-325	1568	-529	-14648	-3144	-3984	2571	4669	-375	-18104	-1584	6904	-987	5121	4731	-11816	7956	7920	-1604	-32768	16615	-7256	3660	-5436	5292	-32768	4834	-14636	3740	-6932	-1430	-16091	8659	176	131	1
-11512	-3492	10276	423	1575	235	-15472	-3684	-3164	-8340	3654	-955	-13512	-2388	1852	-8421	14057	3714	-14652	6488	7552	-435	-32768	21324	-11816	16	-7252	-5767	-32768	2158	-14112	1852	-8716	-11619	-17962	10717	82	152	1
-11692	-3360	10336	491	1603	701	-15496	-5300	-1648	-10166	3850	-348	-21848	-1488	5064	-6804	14196	-909	-15884	5436	6908	1453	-32768	24315	-11952	-808	-8972	-2668	-32768	10432	-12056	1828	-10540	-19757	-12406	6392	42	149	1
-11860	-2832	10208	645	1670	1221	-14460	-6672	-2548	-6825	4178	95	-20120	-1044	3984	-5733	12908	-1449	-17528	7328	8048	1950	-32768	24281	-12976	-384	-9076	-3140	-32768	9046	-9820	1048	-10660	-24927	-14122	5584	177	154	1
-12228	-2716	10028	1006	1406	1461	-14484	-5320	-2412	-271	4787	1861	-15844	-2012	1208	856	15092	-4203	-21608	6308	9996	3076	-32768	23660	-14188	-568	-10016	972	-32768	10792	-8028	-308	-9248	-24897	-12695	3937	123	139	1
-12364	-2684	10332	1330	873	1444	-14972	-3856	-2816	2364	6364	1770	-18232	-2208	-4288	-7753	12738	-2104	-24644	8684	10164	4446	-32768	24590	-17296	-1472	-12144	-2221	-32768	12652	-6284	-2624	-8240	-19209	-10234	2300	129	168	1
-12372	-1872	10496	1547	564	1107	-16280	-1356	-3512	-1272	5813	1145	-17136	-2260	-3720	-8129	9808	382	-30420	8628	10944	6936	-32768	26411	-19568	-2852	-13292	-1918	-32768	14377	-5380	-3988	-5928	-12559	-5254	1520	86	238	1
-12288	-2112	10792	873	685	350	-16652	-2944	-2408	-5995	6020	1195	-17528	-4532	-884	-4109	9472	-143	-32768	4344	8532	12412	-32401	29419	-21632	-6108	-19080	-423	-32768	15851	-5604	-6268	-3192	-9569	-3796	1811	114	169	1
-12060	-2536	10948	650	1355	59	-16068	-5536	-824	-4879	7162	1916	-17468	-4204	656	-714	9361	-62	-32768	2672	2680	16087	-32013	32767	-20060	-5392	-21072	6392	-32768	16163	-7244	-5388	2080	-6918	-5839	2977	114	112	1
-12172	-2400	10640	832	2224	-79	-15100	-6016	236	-429	9473	3179	-17360	-3144	2688	19	7909	131	-32768	-1332	-5708	15532	-30272	32767	-21244	-5180	-21428	13303	-32768	16303	-11044	-1232	7748	1210	-7680	3783	90	100	1
-12032	-2568	11380	1081	3430	-85	-14780	-5648	-64	2783	11845	4095	-17000	-2420	4960	-689	7152	-619	-32768	-6908	-16884	9039	-25586	28313	-17600	-2188	-20536	15543	-27766	15902	-18124	52	18588	13901	-5767	4221	130	18	1
-10996	-2728	13092	-635	6075	375	-16724	-5004	-1240	2585	13313	4204	-16624	-696	3936	-1773	8111	-1068	-32768	-12164	-28536	-18	-15448	14139	-10552	2256	-21460	5480	-14976	11226	-23008	3696	22236	18338	-1466	7042	147	90	1
-9744	-7172	15236	1217	10257	1316	-18624	-3332	-3692	-2329	14468	4311	-17744	556	1668	-3135	7974	-1335	-32768	-25284	-32768	-2681	-5851	3543	-5776	-4016	-20484	-8997	1298	3988	-15296	11904	18936	14580	2794	9464	124	84	1
-12024	-372	13596	564	14963	1691	-19724	-2008	-2792	-6891	15348	4742	-19932	-1180	720	-6572	6374	-1108	-32768	-25200	-30180	1076	11017	-1230	-8052	-7744	-22392	-11602	16126	-3175	-11740	12604	12976	7339	4510	3576	127	180	1
-11524	-652	13840	-469	20899	225	-19692	-1172	-1556	-9372	16501	5791	-19632	-2100	804	-9549	3157	-54	-18692	-9104	26060	-26901	14421	-24117	-27016	-1640	13872	15525	21280	-5080	-9844	11108	1504	-6435	8293	1016	103	224	1
-10028	124	15288	-1798	28596	-1746	-21528	-988	-1152	-10826	17145	6521	-20240	-1848	2408	-8887	-532	1529	-4700	-1624	1384	-11367	32213	-21166	-23292	3244	5504	-20829	8848	-907	-19336	6732	-828	-14734	15540	1707	96	173	1
-8632	-1428	15000	-2114	32767	-5167	-24632	-1324	4152	-12455	17251	8092	-22852	-1104	7272	-6413	-6259	3338	-12580	-9412	-1000	-13374	28136	-27124	-8756	-11416	2508	-30957	16445	-8755	-28740	8316	13828	-14473	-3655	6262	133	111	1
-8560	-1888	15080	-3168	32767	-7583	-24512	-1500	8364	-15174	17787	9086	-21456	-172	18088	-6819	-17806	5331	-32768	-4764	14004	-7446	28674	-17510	-27788	-9784	-10048	-26007	17265	-7332	-14580	7112	26656	-23782	-2538	-3094	131	70	1
-18372	-6968	10480	-6128	32767	-5941	-23276	-8316	4496	-17999	19148	10805	-17664	3016	21556	-17624	-18845	2944	-32768	23432	3400	-9895	14616	-9123	-22660	352	-15760	-16402	18525	-6922	-21908	-16772	-9288	-28892	19931	-6178	147	120	1
-32768	-9848	6008	-2714	32767	3515	-24176	-11220	-8392	-4687	24401	12627	-19516	-4896	4048	-12259	-7884	-2094	-15876	1884	10808	-4963	5977	-7132	-13348	1668	-8812	-20860	15892	-1878	-22460	-8296	-17720	-9118	16966	494	188	127	1
-32204	-12464	17824	-2968	32767	10677	-32768	-628	-3304	-8035	23415	10506	-31264	-11160	-19984	-19069	-6715	-6325	-15396	3856	10176	-1984	-99	-3777	-16664	-5928	-11944	-19239	13729	-1352	-5040	-52	-9220	13007	8432	3243	135	95	1
-21384	-11340	26924	-6851	32767	15341	-27548	-6312	4520	-15503	17845	8466	-30352	576	-6604	1834	-23710	-3295	-13836	2956	10476	-1161	-1797	-2675	-14776	-8956	-10568	8685	13351	885	-12836	2480	-3676	7041	10271	5646	165	37	1
-22196	-2192	24292	-19020	32767	15459	-16320	-5760	-17164	-2403	10877	3145	-27644	2288	-1592	11099	-26545	-2527	-12780	3880	10312	-191	-822	-991	-18372	-3344	-6732	21370	11597	2426	-17752	7424	-6316	9651	15580	5069	127	136	1
-32768	-13296	28288	-11580	-18325	1971	-11880	-84	-18428	13173	10147	2537	-26668	476	-4592	4880	-24850	-7301	-12728	4724	9804	414	-24	-933	-18588	2656	-5712	21837	9208	2542	-20016	4304	-3588	8507	12102	-698	132	147	1
-2676	-8620	22512	-6532	-32768	-964	-18592	1364	-928	-9812	-1135	-1758	-27204	1136	-8624	-274	-21687	-7319	-12556	3404	10660	950	504	-715	-15372	7384	-1060	4276	7741	796	-17452	2072	776	4299	12092	-3142	0	140	1
-320	-5932	13804	-7722	-32768	-2579	-11536	-1900	-4004	-2466	-11971	-2897	-24968	1024	-9540	-2057	-20543	-5546	-12360	3632	10196	1368	683	-643	-15988	3808	-3272	-12223	5706	-824	-14648	2368	820	4072	12017	-2379	24	132	1
-9036	-7760	10740	-4548	-32768	-6164	-6544	224	-9916	8011	-18270	-7439	-19428	948	-11372	-3942	-19284	-5065	-12792	4340	10024	348	1673	-49	-18088	-260	-4484	-16298	4305	-1442	-13396	4164	24	3594	10773	-2731	94	154	1
-10040	-8192	11396	3914	-32768	-9027	-4456	1892	-8300	11880	-25441	-9675	-13552	-2148	-7476	-3198	-18181	-5262	-12872	5232	9348	-449	1659	-139	-15364	-3528	-5088	-3620	4356	-90	-16240	6028	-456	2664	15831	-1462	134	88	1
-12568	-3684	10500	7776	-32768	-9146	-9096	1720	-8012	8539	-32041	-10257	-11848	-1416	-8004	-1382	-15240	-3999	-12588	4956	9616	-96	1119	-432	-16436	252	-3984	8637	5592	867	-15564	3428	240	3032	14975	-2100	150	125	1
-14776	-5916	8652	5068	-32768	-7919	-11960	2484	-8592	7418	-32768	-10550	-10984	-2264	-10784	5837	-13317	-3644	-12636	4520	9744	768	778	-1327	-16744	2656	-3148	11062	5878	1375	-15328	1796	-936	1668	16114	-1614	127	120	1
-17048	-92	10112	-1791	-32768	-8310	-10740	2624	-9552	6114	-32768	-11570	-9328	-540	-10932	13774	-13347	-2433	-12704	4200	10000	872	721	-1706	-16260	2668	-2220	5156	6002	309	-15420	1356	1052	3334	16067	-1413	141	127	1
-22644	-2140	11688	-6714	-32768	-7225	-11564	2252	-11508	1926	-32768	-13630	-7012	1320	-9512	18202	-11918	-877	-12520	4036	10032	145	1080	-1728	-15608	1352	-3188	-1937	5806	-507	-14948	1576	988	6448	17129	-2442	133	122	1
-26780	-4544	12296	-8476	-32768	-5996	-15116	1000	-10760	222	-32768	-15873	-6564	1980	-8276	16988	-12411	639	-13084	4336	9712	-222	1455	-1410	-16708	-328	-3872	-2501	5812	-724	-15380	2476	1084	7818	18826	-2233	129	123	1
-28160	-5628	13512	-7766	-32768	-7061	-17796	1132	-11088	1230	-32768	-16784	-5848	3368	-5496	10055	-10258	1343	-12920	4424	9676	-150	1681	-1419	-16424	-876	-4028	2743	6732	-33	-15452	2996	980	7163	18908	-1383	158	131	1
-31980	-8972	14176	-4862	-32768	-9682	-20696	3172	-11248	3927	-32768	-18852	-5412	3068	-2816	5984	-6667	981	-13124	3920	9864	393	1938	-1559	-16272	808	-3568	6765	8242	-38	-15592	2040	-1500	3573	18811	-790	124	129	1
-32768	-592	11388	-5477	-32768	-16529	-23144	716	-13296	3341	-32768	-18454	-6400	2500	1452	4126	-5942	-782	-13508	4128	9932	576	2348	-1647	-16664	2600	-1492	4602	9035	-1087	-17328	3296	-2564	985	16062	-951	84	132	1
-32768	-2188	2592	-7612	-32768	-20821	-21316	-2720	-14764	3406	-32768	-15093	-10204	1912	7460	1425	-7102	-2751	-13248	3936	10264	411	3317	-1637	-16676	1932	-812	556	10674	-2204	-18792	5996	848	450	11561	-758	135	140	1
-32768	-5784	-12632	642	-32768	-17412	-16028	-3344	-14580	14286	-29021	-11485	-18216	-3576	19332	3421	-11461	-4727	-13488	4576	10840	253	4795	-1895	-17128	3040	-1800	-2937	12647	-3396	-18296	7380	4764	2798	8839	-371	137	127	1
-32768	5356	-28800	7716	-20275	-10448	-10900	1036	-18444	22051	-15607	-7952	-18376	-5540	24500	-973	-600	-3958	-13616	4500	11752	-168	7979	-3883	-20092	-276	-1560	-2465	13173	-3993	-19056	4796	4560	4282	9045	0	0	127	1
-32768	19564	-32768	-438	-5193	-7475	-7652	5420	-20756	9966	-548	-2850	-17648	-6988	22540	4510	974	-122	-13996	4248	12724	-233	11278	-4548	-19816	-1160	-2068	1377	16719	-4501	-19072	1436	3872	4755	7764	308	110	125	1
-32768	11240	-31856	-2400	9858	-961	-5508	2468	-19688	347	16191	3386	-16292	-4260	12992	4255	3152	1818	-14372	4860	13220	-130	15917	-5559	-20996	-12	-2424	1573	18535	-5343	-19960	1284	3376	7808	5574	-349	185	118	1
-2172	-8312	14560	1571	21403	12211	-9952	-3220	-20436	-8196	27566	7400	-10996	-5360	1948	2797	7305	2296	-13568	5196	14092	292	21302	-7825	-22184	-2236	-2384	1217	20223	-5773	-20648	2624	3292	12533	3560	-191	202	119	1
31024	-31140	32767	808	13581	9225	-32768	-9656	32767	-29149	8518	1436	-10064	-1896	-5256	923	14870	2223	-12204	5944	16280	247	28570	-8538	-25708	-2232	-160	3377	21621	-6704	-22488	3604	4728	13363	-172	-249	167	118	1
-32768	-9432	-1412	12311	32767	7950	-8448	-3440	-17260	13553	15062	2877	-29976	2664	11652	4241	4742	-200	-11780	7732	15216	1907	32767	-11905	-26184	-5312	3836	3845	22948	-6838	-24224	2844	11500	11782	-8797	-1786	137	112	1
-12952	-4512	13184	17919	32767	5331	-13976	-5108	-4948	7321	21677	514	-14332	-7180	6952	31209	5564	-266	-13600	6912	16880	5513	32767	-13147	-28996	-5008	5764	11100	23778	-6274	-22988	1240	22920	17825	-27999	-3692	189	108	1
-31732	20044	12812	-4510	25399	6035	-31500	3664	-10856	25842	22965	5646	-18028	-8096	10044	19668	8591	-4274	-32768	9876	10112	4570	32767	-18138	-30524	5960	-524	9139	26287	-7357	-18804	-1080	7720	12756	-11470	-1099	165	125	1
-29528	3320	14548	6424	13459	10420	-31448	7536	-10300	27161	22155	7697	-23180	17708	-13188	12992	15869	550	-32536	13004	13048	929	32767	-25855	-31324	9532	-4240	-2808	26995	-9357	-25280	11152	-11984	14700	-12799	2737	102	116	1
-15044	-2880	11732	2955	6935	4599	-12844	1668	-11796	13670	16977	2888	-13488	5436	-12864	-16639	12273	-2792	-29728	17656	14888	-2609	32767	-31343	-28416	1784	1280	2288	23080	-7826	-27000	3484	-10408	2658	-18989	6071	192	118	1
-13412	-4552	10688	2531	4377	3650	-14392	2796	-12008	-1827	13556	-328	-8664	-4540	-12072	-15716	11054	-4557	-11208	18112	25872	6568	32767	-32768	-20704	2204	-4984	-3399	21403	-3300	-30564	-5128	-3384	-10911	-28357	4265	117	108	1
-13396	-516	10968	1763	2836	2510	-15800	3848	-9268	-21394	8490	-1372	-14984	-2888	-7612	-13351	9081	-4309	-32768	15076	18072	10280	10749	-15386	-15364	-1112	-28100	-15901	8432	-1925	-29608	-1536	-5180	-5130	-27785	5805	79	83	1
-12336	-1204	11168	306	2565	986	-18712	-5660	-6668	-20541	6132	-1386	-17996	-4872	-4512	-8162	14716	-1974	-14232	13620	20332	7412	-28069	2211	-15656	-3288	-7100	-2798	-1738	1494	-28744	-2844	-6384	-2026	-26769	7941	253	102	1
-12288	-1748	11044	-258	2141	573	-15264	-9008	-4320	-260	6993	-576	-21264	-4608	-4384	-3163	14079	2610	-3184	12272	14616	4733	-30324	5613	-9916	-5400	-4220	13417	-7637	5065	-26580	-1436	-6700	7493	-24297	8652	142	108	1
-11956	-2000	10696	-13	1564	340	-15356	-6856	-5200	16406	8303	1655	-15800	-4056	-2352	2216	12512	3178	-8492	8140	10120	2056	-32768	10782	-7788	-3860	-9924	19639	-15072	8498	-22072	992	-6436	8489	-22873	8299	118	124	1
-12112	-2516	10488	1175	673	100	-16072	-2036	-5792	18571	6828	2309	-13416	-3440	-1612	5944	15561	1628	-12632	5508	9564	1100	-32768	18485	-6224	-5832	-16444	20340	-15877	15613	-16496	1648	-6072	2741	-21451	7831	87	126	1
-11960	-2424	10512	1729	21	437	-15920	3032	-5936	3877	3429	494	-12508	-1300	-3020	1952	14065	3096	-11992	1988	10216	1659	-32768	23324	-9904	596	-8632	870	-32768	6828	-16252	2136	-6856	-6019	-21703	9358	37	130	1
-11944	-2308	10632	1062	-148	151	-16328	-1628	-4448	-9928	3131	-1336	-18720	56	784	-1118	16451	1721	-12404	1132	8872	3889	-32768	23716	-11448	-3588	-5576	1883	-31427	12622	-14196	-416	-9032	-11801	-17932	5981	162	138	1
-11712	-2112	10696	463	321	605	-16532	-2800	-4088	-10800	2925	-1419	-15888	140	-928	-3675	18296	-124	-14344	356	9684	6036	-32768	20195	-11476	-1916	-7220	-1713	-32768	13081	-12020	-736	-9100	-14948	-16667	5188	160	149	1
-11928	-1924	10460	27	1125	1127	-14580	-6588	-2480	-4599	4004	-131	-14120	-1108	1048	-3130	17901	-177	-18524	60	11012	9629	-32768	17345	-11652	-3380	-8388	-1766	-32768	13587	-8932	-380	-8908	-15043	-14341	3769	111	144	1
-11928	-1728	10632	190	1182	1480	-14536	-4156	-3000	385	5159	722	-13256	-2476	1524	-126	17163	-75	-20968	2740	11788	11605	-32768	17937	-13796	-5456	-10180	251	-32768	14044	-6516	-1148	-8708	-13291	-10906	3138	96	145	1
-11992	-2044	10372	504	1036	1756	-15220	-2772	-3496	-330	5800	855	-17408	-3032	-56	-2001	15597	-27	-23028	4016	13600	11885	-32768	20416	-15492	-6356	-11204	4202	-32768	15289	-4328	-2116	-8988	-10998	-6023	2181	101	177	1
-11832	-2076	10908	691	1199	2009	-15844	-2760	-3268	-3370	5963	639	-18148	-3984	-3896	-5921	13910	711	-28588	4796	15440	12164	-32768	24166	-19032	-5516	-11304	6722	-32768	16950	-3956	-1692	-7192	-8407	-1651	1548	84	206	1
-12080	-1620	10776	813	1840	2205	-16900	-2680	-3464	-5140	6209	637	-17964	-3112	-3800	-3957	12022	31	-32768	1736	13608	12912	-32768	27643	-23124	-6712	-17564	4939	-32768	18195	-4600	-2812	-3836	-6761	-1910	1684	93	140	1
-12488	-900	11120	912	2449	1619	-16504	-3648	-2664	-5366	7136	1522	-17676	-2904	-1148	1646	10381	511	-32768	-2752	5528	14347	-32083	29788	-25152	-4892	-20112	5006	-32768	16609	-6176	-2748	924	-5269	-3464	2627	125	127	1
-12204	-1392	11316	1040	3369	1266	-15636	-5620	148	-1723	8881	2701	-17624	-3032	2692	2586	9525	925	-32768	-4456	-7260	8201	-31895	29192	-22776	-3572	-21840	2524	-32768	12414	-13524	1116	15180	1398	-10651	2868	106	94	1
-11788	-3264	12280	-46	4913	1932	-14776	-7876	-180	1405	11436	3579	-16716	-2944	6084	-99	8451	-41	-32768	-8876	-23456	-7184	-27035	22159	-15304	-196	-19404	-3370	-27745	7537	-22076	6448	27176	10717	-9151	6539	65	26	1
-12844	-1404	12344	869	9294	3142	-18332	-3544	-292	608	13475	4373	-19396	-1264	6416	-2510	8289	-1319	-32768	-15464	-32768	-16855	-12216	5757	-6552	-3892	-24812	-8967	-11771	5155	-19528	3332	21556	9153	8443	9541	132	56	1
-12408	-116	13724	1087	13185	3306	-20000	-900	-1612	-5237	15022	5201	-19860	296	3444	-2022	7955	-1274	-32768	-32768	-32768	2065	4878	5833	-4804	-5336	-24752	-10920	6248	-117	-15608	11164	20376	1922	1462	88	126	127	1
-12324	596	14064	861	18169	1965	-19820	-1892	-2304	-7182	16633	6278	-19000	-880	2184	-5677	6525	19	-32768	-1896	-10668	-19277	22156	-1698	-11000	-1704	-11056	4364	22587	-4662	-12312	8972	10736	-3672	2271	-3120	99	222	1
-10672	632	15132	295	24574	1154	-21120	-1580	-1992	-6248	17686	7598	-19972	-1696	932	-9067	3421	1053	16408	27728	32767	-2004	8617	-4433	-32768	96	32767	31433	16872	-7367	-11936	6576	324	-13500	11112	412	62	230	1
-10732	-312	15840	-587	32767	-1309	-24008	-1712	-88	-8772	18125	8573	-23264	-2940	2420	-5103	-1039	1801	-20124	-10312	2908	-6643	21301	-28339	-8244	8092	-5932	-7725	19678	-2048	-27812	-2676	12172	-6761	1359	2080	84	135	1
-8048	-3856	16228	-608	32767	-2451	-26316	-1776	5540	-10643	18387	9566	-24824	-1856	10156	-3582	-10836	4187	-18552	15164	5332	-7667	27432	-14896	-17864	-5160	-4392	-18079	18530	-7007	-12304	744	16932	-6798	3798	-275	158	81	1
-7744	-4200	15856	-1405	32767	-2036	-25972	-2704	9304	-16187	18633	10009	-22612	-1152	24224	-5983	-23094	4912	-28620	-5880	10744	-4244	23264	-13530	-29712	-2808	-12080	-19631	18149	-3051	-20184	2844	2112	-9504	13196	580	150	114	1
-32768	-8120	7688	-2419	32767	5496	-24736	-11272	2832	-17798	20673	12448	-12044	1548	4284	-18687	-9423	3378	-30072	676	15816	-8136	-43	-11868	-15596	1972	-11328	-19655	18747	-5442	-22892	-2692	-14384	-4707	16759	2181	141	119	1
-32768	-13168	11004	5256	32767	15452	-25372	-13540	-11960	-6418	23857	11517	-26340	-4976	-9076	-15534	-8640	-4393	-16548	2628	10096	-3450	-1121	-5337	-16064	-3280	-10120	-22599	15335	-2920	-12112	-2580	-10960	3813	13063	3940	250	130	1
-31008	-15352	20944	6777	32767	22247	-31116	-1736	-3092	-9195	20141	8892	-31732	-3948	-15640	-8931	-13812	-6928	-13904	4168	9920	-363	-946	-1674	-14724	-11328	-10980	415	12279	1029	-10012	2424	-7616	8577	11581	13	191	81	1
-7964	-11184	30896	-827	32767	21706	-24804	-5060	5500	-8407	12478	4697	-29712	3492	-5228	4143	-26386	-4563	-13064	3136	10644	677	-242	-61	-16748	-5452	-8404	18901	12358	2089	-15556	4188	-6104	2608	13187	1941	132	87	1
-32768	-9448	24584	-8967	17675	5249	-12232	-3052	-29556	14007	9116	2979	-28272	1956	-3056	8984	-27250	-5349	-12576	4600	10184	1496	495	492	-19248	1244	-6056	20920	9640	2631	-18136	5448	-3916	3964	14544	140	110	126	1
-21708	-11268	26828	-4195	-27129	-3842	-12336	2768	-8644	475	7601	-327	-26568	3172	-6276	2219	-25190	-8396	-12388	4672	9924	1509	784	339	-16800	5532	-3276	12027	7604	1733	-18220	4800	-1500	1901	13198	-2975	123	114	1
-5720	-4972	17452	-5215	-32768	-4729	-15720	1272	-2940	-11676	-5519	-3310	-26620	1072	-9272	-3298	-21708	-8137	-12224	4456	9956	1641	885	81	-16004	6520	-1612	-6433	6098	25	-15156	4144	-60	-765	12524	-2845	0	137	1
-4748	-2788	11172	-7305	-32768	-7748	-8284	-1024	-9340	740	-12847	-6235	-22648	212	-9876	-6919	-20693	-7208	-12372	4220	10028	1782	1001	24	-16660	1156	-4008	-15826	3708	-1399	-13792	2268	584	-1147	12432	-2096	39	144	1
-8560	-4044	9792	-7150	-32768	-10351	-5092	1056	-7128	6941	-19620	-9961	-17560	-316	-9756	-6142	-19123	-6322	-12680	5212	9576	1981	1243	-11	-17628	-3288	-4212	-6985	4541	-714	-15448	2708	504	837	13784	-2577	123	110	1
-10248	-5204	10472	-2549	-32768	-11234	-5320	156	-8100	13888	-26318	-11813	-12900	-1008	-8772	-2415	-17078	-6037	-12468	4992	9624	2214	1188	-489	-15348	-2172	-3632	9426	5461	1270	-15664	2184	892	3477	15197	-2020	123	124	1
-13172	-1908	10164	85	-32768	-10156	-8272	3228	-8168	12596	-31927	-12057	-10984	-748	-9020	1973	-15712	-4683	-12404	5316	9596	2748	813	-1107	-16580	2116	-2332	14706	6643	1558	-15576	960	1520	5739	16126	-946	156	119	1
-15188	1188	9112	-3871	-32768	-9943	-12604	2928	-8348	9242	-32768	-12749	-9920	-1092	-9896	8205	-14854	-4318	-12412	4964	9488	2392	729	-1787	-16656	3936	-1780	9026	6891	525	-15116	1428	1916	7381	17129	-834	122	123	1
-17284	1976	10192	-10295	-32768	-10350	-11324	3500	-9800	5462	-32768	-14012	-8100	-332	-9988	14422	-13813	-3028	-12784	4620	9760	1022	1106	-1863	-16172	2768	-2520	458	6648	-739	-14324	1972	2512	9062	19348	-1318	154	129	1
-23168	320	11928	-15663	-32768	-10082	-12364	2840	-11324	140	-32768	-16308	-7896	-120	-9904	15241	-13639	-2896	-12836	4804	9552	-170	1428	-1655	-16076	500	-3404	-2677	6448	-1511	-15956	3052	2352	11402	19586	-1790	153	126	1
-26360	-2320	12232	-17188	-32768	-10376	-15076	1160	-10572	-2915	-32768	-18706	-6268	2000	-7964	14074	-11946	-342	-12992	4984	9596	-369	1537	-1554	-16612	-716	-4204	1280	6846	-944	-15892	4188	-1500	12572	17592	-1589	165	116	1
-28260	-5400	14008	-14427	-32768	-12337	-17344	600	-10952	-1630	-32768	-20509	-5380	3224	-6312	7807	-8592	329	-13152	4720	9704	-166	1772	-1701	-16928	-164	-3864	5890	7777	-774	-16084	4208	-5876	9318	16207	-1282	165	130	1
-32768	-6372	14504	-8751	-32768	-15614	-21348	3032	-13588	6252	-32768	-23383	-5512	3628	-3204	2685	-4986	-59	-13156	4468	9748	215	1936	-1634	-16688	1748	-3060	5656	8429	-1466	-16812	4160	-4844	1093	12815	-1738	128	133	1
-32768	4204	14032	-9016	-32768	-23752	-24400	-376	-15156	5893	-32768	-21484	-7420	2096	2824	2056	-5644	-1182	-13220	4316	9900	-74	2619	-1761	-16644	1760	-2340	970	9140	-2376	-17208	5916	-232	-1819	11271	-1758	63	143	1
-32768	9696	-1128	-5022	-32768	-25421	-23828	-4044	-15100	8040	-32768	-16197	-13924	-1180	10172	1968	-9579	-3176	-13224	3880	10096	-45	3542	-1495	-16644	1616	-2064	576	9123	-2584	-17728	5740	3816	328	9083	-1413	101	141	1
-32768	-2752	-13688	1632	-32388	-20831	-14072	-340	-20244	25330	-24740	-8195	-20036	-6452	22108	1838	-11312	-5904	-12940	8660	14096	-1224	5583	-2390	-18232	1716	-872	-1955	12654	-4253	-18364	4340	6228	2597	8812	-758	23	126	1
-32768	10008	-32768	16660	-17282	-8767	-9532	3232	-20252	26704	-10607	-6317	-17460	-10648	23420	1769	5405	-4463	-13320	5072	12596	-701	9124	-4607	-19800	-812	-2160	-464	15495	-4869	-19976	740	4916	4209	7952	103	40	130	1
-32768	30880	-32768	-2604	-511	-8423	-7204	8264	-20528	12571	7008	-633	-19404	-8124	20160	10732	1638	-187	-13736	4208	13832	-529	13879	-5607	-20752	-1312	-2868	1687	17801	-5567	-19060	-216	3912	7147	6079	-98	216	123	1
-10992	-9848	-4108	-2759	16161	51	-6836	1184	-20448	-979	22810	4902	-13892	-2560	9900	11451	4336	2553	-13636	4528	14184	-33	19450	-7060	-22088	-2556	-2792	610	18776	-6259	-20244	1384	1968	12203	5036	-951	199	116	1
-19584	21932	32767	4917	14849	1969	-30536	-4544	13516	-31518	20492	6948	-13260	-2356	8740	11206	5093	2973	-11764	5104	16412	199	26822	-7588	-24600	-3604	-708	2700	19965	-6974	-22408	4320	2900	13424	2980	-934	253	113	1
-2016	-1692	-1480	12373	32767	15275	-25464	-2752	-3308	3826	14160	1733	-25568	6308	2416	805	12590	1917	-10608	6852	15908	1134	32767	-9309	-26420	-4504	4280	4286	21433	-7809	-24932	4340	7740	11119	-3671	-1903	155	114	1
-16992	-9396	15016	12340	30197	-978	-9272	2952	2296	3979	18042	1459	-13708	2560	5384	10757	10290	-295	-10012	8108	17260	4367	32767	-10508	-28620	-5568	6368	7514	22894	-7620	-25252	2120	22704	12929	-24023	-4866	137	115	1
-26832	31756	19556	4415	31567	8564	-11212	2540	-324	5699	19213	872	-12840	-13076	5040	25885	7610	-2045	-28428	10204	12044	4599	32767	-16035	-30288	592	4796	8474	24337	-8295	-18164	-1764	17260	11779	-20793	-3391	156	121	1
-32768	-32768	2192	4802	14909	1036	-23788	-2132	-16980	14846	21343	7270	-23668	8332	-3832	11124	14399	-2841	-32768	11300	12960	4063	32767	-24906	-29700	11644	-2692	-3034	27779	-9654	-21368	7164	-5236	12857	-11280	174	142	120	1
-14700	1504	10376	2845	8429	6728	-15128	-1352	-8428	10720	17658	3750	-20064	4108	-16908	-4868	12282	-4028	-30932	21552	13980	536	32767	-30741	-30544	2148	-3740	-4989	22557	-10671	-25524	13684	-12852	6727	-12526	5129	150	107	1
-16516	1228	11024	2626	4797	4224	-15960	3080	-12300	16998	15253	218	-11060	1364	-10604	-10792	10911	-5848	-24000	23160	28236	-230	32767	-32768	-24572	4168	5452	2043	23490	-6519	-31112	-1012	-4784	-5558	-25841	3039	209	116	1
-13544	752	11280	1033	3481	999	-16784	9760	-10248	-6939	10591	-267	-12252	-840	-7884	-11370	11979	-2593	-32768	7928	19644	10618	32767	-24858	-16068	936	-29724	-17319	11629	-3185	-30756	424	-4612	-11923	-27503	4675	94	102	1
-12412	-1428	10752	-26	2663	-258	-16864	436	-7692	-24897	6553	-2561	-16444	-1212	-6132	-10537	11274	-1445	-23364	17880	21724	6827	-24988	-663	-19856	-340	-9708	-11197	-1380	-4098	-29600	-900	-5692	-12403	-28646	7985	135	81	1
-12132	-1808	10788	-677	2099	-559	-17496	-8344	-5000	-21312	5018	-3089	-18800	-4600	-4472	-8998	15252	-488	-5504	15488	17852	3551	-32768	4815	-11868	-2848	-1312	3624	-5233	-1066	-28160	24	-6880	-1487	-25940	8681	155	107	1
-11984	-1816	10836	-845	1878	-810	-14780	-11052	-3216	1192	6337	-628	-18100	-6036	-2500	-3275	13361	1339	-4512	11436	10824	937	-32768	5847	-10296	-2200	-7856	14228	-14753	3844	-23868	1528	-6312	6465	-23388	8634	107	93	1
-12036	-2524	10320	-261	1507	-686	-13900	-7224	-4364	15792	7411	1047	-13476	-5596	-1040	2024	14129	1424	-11628	9616	8732	-2322	-32768	9390	-10408	3724	-11328	13647	-26710	6315	-18340	2612	-7216	3729	-21394	8702	70	136	1
-11896	-3140	10240	847	942	-284	-16588	-532	-6964	11673	3186	99	-14528	-1780	-1892	-1269	7629	5641	-12268	7380	9688	-2333	-32768	13694	-7084	6280	-6944	3193	-32768	2570	-15044	3384	-6632	-2354	-19063	9620	195	124	1
-12008	-2224	10444	834	932	38	-17140	708	-4276	-2392	4220	-889	-8368	-3136	-324	-3695	20845	2096	-13780	5532	7580	664	-32768	18559	-9704	-4836	-6884	272	-32768	7621	-11700	-668	-11148	-9004	-18470	9312	0	130	1
-11960	-2004	10632	233	1256	-1	-16228	-2428	-3700	-12360	2653	-1313	-16524	-604	-1804	-4264	17836	-1079	-14768	6412	7100	3221	-32768	21729	-11064	292	-8212	968	-32768	9220	-12736	1776	-9868	-14932	-12298	6754	110	140	1
-12104	-1788	10572	-341	1460	-115	-15476	-5232	-2672	-11799	3287	-1464	-15368	-212	1024	-4604	20662	-3858	-21700	9148	3504	645	-32768	23065	-12112	-284	-8796	1029	-32768	11264	-9100	1208	-10440	-19323	-12837	6057	128	149	1
-12140	-1812	10420	-349	1426	-144	-13388	-11472	-864	-12053	3198	-2676	-13476	-864	1844	-628	17664	-2970	-22736	9212	8076	4624	-32768	23917	-11648	-176	-9948	1053	-32768	11695	-6624	-216	-9496	-19852	-11228	4699	103	152	1
-11868	-2488	10612	-2432	598	-974	-12848	-3604	-3896	669	8404	3432	-17748	-3152	-568	-4787	15167	-1044	-24876	9912	10248	6076	-32768	26671	-16740	-840	-13056	-1787	-32768	14668	-4516	-2000	-9176	-16760	-8252	3353	142	169	1
-11828	-1820	10124	3294	1353	1133	-14636	-4880	-2100	3131	6666	174	-17472	-5444	-3668	-8010	14284	-1329	-31348	10548	11068	8222	-32768	28850	-20556	-1992	-13376	-3038	-32768	16115	-3780	-3148	-7280	-12940	-3853	2069	0	207	1
-12228	-2056	10632	2738	1904	102	-17548	-2896	-1768	-510	6940	1361	-19180	-4648	-1428	-2359	10715	-1199	-32768	6156	8048	9429	-32768	32661	-21096	-4832	-21148	-6430	-32768	17328	-4524	-5128	-3776	-11377	-3281	1498	115	158	1
-12364	-1860	10776	1822	2268	-242	-15544	-3780	-708	-3574	7529	682	-19692	-4820	868	1826	7999	-71	-32768	-104	2344	14058	-32768	32767	-22580	-6948	-23068	2693	-32768	15470	-7192	-2700	2932	-10076	-7386	2478	96	133	1
-12216	-1396	10836	-506	2638	-247	-15852	-5360	1020	-6022	10798	2737	-17296	-4544	5156	1712	7666	-63	-32768	-3528	-9488	14485	-30190	32767	-22304	-6448	-21488	15016	-32768	16343	-11964	800	12504	-837	-9904	3755	93	101	1
-12228	-2156	11588	-350	3925	-549	-14472	-7624	-232	-1073	13362	3447	-17024	-2516	7440	-941	7734	-871	-32768	-10992	-23716	9042	-20362	23156	-14856	1416	-23900	16171	-24594	15615	-21420	-620	25852	13407	-6415	6593	137	15	1
-11816	-2260	13264	-2498	7285	-425	-17388	-5120	-336	1830	14946	4300	-17892	2164	5896	-4713	7591	-2043	-32768	-20412	-32768	3715	-9084	5859	-6112	668	-25300	653	-8516	10002	-22180	5508	22064	18275	4370	10665	165	83	1
-10456	-664	16184	737	12993	1109	-19904	-3656	-908	-1805	15752	4480	-18204	2668	2604	-5072	7820	-2080	-32768	-29560	-32768	5886	1630	839	-5476	-5436	-23764	-9265	9436	1317	-13980	12416	18760	13689	3004	5648	117	96	1
-12040	864	14836	-400	18385	-346	-21396	-948	-2484	-6662	16921	4821	-21588	-1020	588	-9268	5582	-1900	-32768	-17368	-28568	445	17451	-3397	-8668	-8644	-25352	-11155	22113	-6003	-10848	9644	10632	4212	4033	1105	119	238	1
-10596	28	15440	-1289	25338	-2324	-21816	320	-328	-12276	18220	5864	-21252	-3484	1568	-12756	747	-182	-30980	32767	32767	-23713	12039	-19298	-32768	-3648	32767	32767	21238	-4799	-8036	10380	-3368	-7193	14239	300	67	193	1
-8632	500	17004	-2603	32767	-5515	-23456	308	1784	-15119	18856	6356	-21488	-1496	5824	-11851	-4770	1978	16792	27172	32767	-22153	474	-9138	-12828	16428	-5988	-21921	9406	608	-17912	5208	-5640	-5660	15886	2586	87	115	1
-7284	-1464	16756	-2392	32767	-10039	-27796	-888	7356	-16149	18809	8154	-24192	908	12912	-6846	-14166	3730	-19228	15884	14416	-13095	28786	-8790	-6092	-9680	-5880	-32768	15714	-9444	-23140	5964	9400	-17290	4900	5709	127	108	1
-12784	-2888	13520	-6107	32767	-10995	-26476	472	9308	-20228	18641	8502	-20572	4660	26588	-13817	-24765	4870	-32768	-15084	10952	-8397	32609	-17522	-32768	-11312	-13948	-32768	15088	-8807	-24700	13832	26568	-23778	-1603	-1838	148	127	1
-32768	-11724	5500	-8639	32767	-5638	-22060	-11304	-5220	-18637	22445	10557	-10128	4852	7980	-14487	-7232	3034	-32768	-4280	7304	-11926	6585	-16706	-18020	1828	-12892	-18400	17856	-6022	-23300	4456	15816	-19871	7965	-2822	107	91	1
-32768	-13864	17784	-6042	32767	4540	-30324	-9056	-7240	-12525	24935	10032	-29640	-9860	-21596	-28916	-2763	-4352	-16108	5196	9676	-2859	4493	-4918	-17132	-3460	-10304	-19901	14736	-1441	-15636	-10200	-15704	-1245	16877	-1224	193	122	1
-23108	-11628	27100	-6215	32767	12034	-32768	-5372	2020	-12092	16489	8045	-32768	-4620	-10256	-10292	-21206	-4755	-14604	6664	9044	415	1335	-1588	-14448	-5484	-11028	1994	15091	1097	-4644	3268	-11432	17885	10557	604	215	81	1
-20884	-10620	29928	-7150	32767	12529	-19536	-6752	-14288	-4803	10478	3085	-28180	-3420	-1744	10370	-27732	-2618	-13384	4088	10076	907	-845	-1037	-16012	-4400	-9532	18888	12338	1765	-13948	6108	-6152	8430	12679	5293	163	50	1
-32768	-12632	27320	-20160	-11031	9437	-11148	-2676	-21688	12820	10700	4112	-27976	-1760	-4224	11652	-27704	-5935	-12800	4676	9888	1538	1	-552	-19732	-2716	-8004	25363	10067	2960	-18544	4992	-6148	9784	16079	2701	167	114	1
-7508	-9652	22652	-13271	-32768	6509	-19360	448	-2568	-8813	-1053	-2164	-26976	2512	-8560	4676	-23593	-5949	-12352	3648	10472	2394	526	14	-18364	6692	-2112	15276	7627	1309	-20808	2824	-3204	8148	12530	-3232	0	137	1
-440	-7028	12884	-12044	-32768	4452	-11256	-48	-3388	-7511	-11121	-2082	-24816	464	-9148	-3967	-21742	-4743	-12524	5132	9872	3033	434	-192	-15780	7808	-1948	-6382	5435	-366	-16280	4936	-164	4899	13796	-4023	34	130	1
-5812	-8524	9428	-6489	-32768	562	-6648	84	-8920	-924	-17622	-6903	-18868	876	-8956	-7685	-20047	-4285	-12300	5436	9576	2089	512	-392	-16780	2784	-3284	-15200	4196	-1973	-13368	5156	-360	2736	14390	-2508	107	124	1
-9156	-7288	9740	769	-32768	-4078	-4380	1008	-7124	6605	-25033	-10212	-13124	-776	-8676	-6035	-17613	-5051	-12556	6012	9120	1133	933	-862	-16588	-3552	-4420	-6580	3565	-1376	-14008	5000	-560	4075	14972	-2582	162	157	1
-11124	-5164	10516	5144	-32768	-7781	-7168	72	-9056	8819	-31283	-10737	-10572	-2944	-8328	-2910	-15380	-5369	-12368	6168	8992	1083	942	-940	-14968	-1400	-3176	9515	5451	378	-15896	3860	228	1866	18152	-2465	147	112	1
-14124	-1956	9416	2855	-32768	-8725	-10484	1380	-8628	5755	-32768	-10354	-9224	-3580	-9920	3333	-13381	-5296	-12472	5144	9456	1472	306	-2298	-16684	2632	-2028	14596	6406	1117	-15924	1528	828	2016	17289	-1868	112	122	1
-17248	-964	9016	-3305	-32768	-9024	-10960	960	-8756	6664	-32768	-11687	-9064	-1944	-10708	12200	-12348	-4059	-12772	4860	9668	1520	778	-2613	-16332	3228	-1532	8904	6823	-114	-14540	232	2344	3596	16613	-1821	141	111	1
-20616	-3136	10544	-7989	-32768	-9384	-10892	1376	-11084	6589	-32768	-13682	-8900	-1504	-10648	13433	-12422	-3865	-12648	4896	9420	484	1092	-2494	-15700	2328	-2540	1283	6773	-1548	-14772	1124	3476	7410	17553	-1937	163	121	1
-25440	-5964	11816	-9578	-32768	-9710	-13772	872	-10924	3690	-32768	-16049	-7172	2144	-10204	19929	-12027	-710	-12724	5720	9460	-676	1273	-2349	-16176	876	-3696	-2330	6491	-1927	-15768	3436	304	11652	17984	-1926	175	132	1
-27304	-8204	13572	-6377	-32768	-10892	-17448	480	-11580	5548	-32768	-17504	-6752	3512	-8520	15309	-10044	984	-13584	5152	9268	-1303	1085	-2679	-16676	104	-3708	-138	6927	-1623	-16436	4640	-3540	11481	16430	-1273	181	138	1
-32692	-11228	14444	-2278	-32768	-12924	-21200	2512	-10060	6440	-32768	-19760	-5700	3916	-6084	9149	-6317	1990	-13060	4308	9992	-862	1443	-2541	-16888	-676	-3652	3319	7771	-1636	-17160	4888	-3668	2905	13473	-684	177	137	1
-32768	3808	12292	-2539	-32768	-19380	-23268	1036	-15072	7543	-32768	-20218	-6212	3684	-1088	5711	-5906	860	-13024	4304	10068	33	2070	-1892	-16856	764	-1088	3829	9395	-2343	-17064	5236	-340	-2513	12105	-1186	79	140	1
-32768	2384	4284	-9965	-32768	-25500	-23288	-1532	-16904	5247	-32768	-15934	-10000	1884	6040	6485	-8155	-1282	-13004	4960	10132	341	2949	-1363	-16572	3076	780	52	11118	-3536	-17692	4380	4372	-786	9497	-1948	24	141	1
-32768	-2296	-12460	-2846	-32768	-19668	-18752	-3292	-15216	13335	-31156	-11966	-18852	-2912	21372	9122	-12791	-3465	-13060	5948	10300	843	4370	-1553	-17012	4696	196	-4694	13667	-5155	-17860	4532	8260	2476	8669	-1124	81	81	1
-32768	4992	-32280	9483	-22288	-8790	-9424	980	-20296	19699	-16921	-8165	-19096	-2588	27512	1820	-236	-5458	-12140	3800	14532	-1029	7609	-4319	-19572	220	492	-5076	14733	-5913	-18684	3708	6168	4919	8703	-5	0	136	1
-32768	27572	-32768	27	-7619	-4279	-5912	7872	-21860	7328	-727	-4165	-18812	-3880	24744	2207	2183	-2695	-13716	5816	13740	-933	11310	-5152	-20916	-3032	-3568	-3072	17638	-6417	-19556	1788	1864	5893	7553	-63	136	115	1
-32768	13760	-32768	-10886	9378	-1070	-4864	3856	-19128	-4468	17837	3685	-16444	-76	14032	286	2843	2745	-13820	4796	14224	-738	17344	-6035	-21800	-3460	-3212	63	19518	-6616	-19864	572	756	8353	5258	-1338	207	116	1
4156	-18780	32656	6875	19015	15077	-10424	-6252	-14484	-22368	28886	6988	-10852	-1836	1704	-2192	7292	3718	-11628	4504	15728	-264	24089	-7138	-22068	-4320	-1240	2236	20714	-6544	-19940	1076	2192	11653	2878	-1574	152	120	1
32767	-32768	25732	-2232	16524	13276	-32768	-11400	32767	-25975	4928	-2522	-13336	3060	-4084	-5565	14675	4584	-10340	5988	16704	995	32767	-7405	-26352	-2692	1564	4244	21844	-7952	-23328	2448	5144	10416	-2103	-2067	183	121	1
-32768	4916	-1048	11845	32767	8860	-4944	-5964	-20088	14125	15285	3083	-27712	5964	14632	-839	7700	-1191	-9132	8600	16028	4013	32767	-10075	-27344	-6796	3264	3190	22543	-8090	-25228	3360	17548	10762	-17927	-3816	174	111	1
-24756	5692	15024	15366	32767	5564	-17616	-592	-8524	482	20456	198	-12680	-12076	4088	24327	7229	-126	-19432	11196	14404	4696	32767	-13803	-29136	-1572	7868	9666	23856	-7781	-17688	332	18656	13798	-21875	-3526	201	117	1
-31408	6456	19512	-5401	27943	5108	-31608	7536	-17924	15760	19921	7527	-22508	652	3932	7858	8509	-3977	-32768	14748	8088	3973	32767	-21775	-29984	12540	-1964	4352	27256	-8316	-18172	696	276	8227	-10152	-888	97	124	1
-24564	18628	14484	5492	8748	8658	-18372	-4540	-17144	542	22740	6005	-21952	8684	-17440	-3928	14100	-344	-29044	13220	13960	407	32767	-29626	-31692	8612	-5816	-7429	25956	-10609	-26196	15284	-14608	12228	-10647	4020	113	113	1
-15808	2604	12304	2701	6168	5663	-14752	-56	-11096	7426	15330	2939	-11720	4596	-14552	-20284	10540	-2502	-26284	17980	21760	-778	32767	-32151	-27316	724	3752	3383	23306	-7296	-30160	2756	-8900	-1212	-20421	4513	186	92	1
-13836	608	11788	2030	3556	2888	-14680	7248	-11316	-4669	11574	462	-11132	-5672	-11508	-14413	11929	-3335	-15788	7620	23556	11825	32767	-31155	-20280	3072	-13388	-6707	18056	-4166	-30732	840	-4364	-12958	-26828	3490	253	92	1
-12504	-1856	11108	604	2024	497	-16132	500	-8640	-19140	7792	701	-16768	-2424	-7732	-10418	8947	-1414	-32768	17444	17788	12925	-3632	-10109	-18232	1328	-17064	-11856	4802	-5295	-29136	604	-6356	-12185	-26879	6321	146	86	1
-11672	-2748	10492	-220	1706	373	-16944	-6976	-5632	-15892	5639	-842	-17276	-5136	-4064	-6356	12277	-85	-10628	16276	19416	5118	-32714	1784	-14884	-980	-4284	-1205	-4274	-1664	-28324	-1256	-6668	-8342	-26632	7747	205	116	1
-11848	-2888	10456	-555	1469	1300	-16052	-10088	-3528	-482	6353	600	-19024	-6168	-3568	-2675	12972	1700	-3172	11808	13024	1546	-32768	2545	-9352	-3216	-4064	11494	-10390	2851	-25088	-932	-6376	2737	-23245	7642	95	100	1
-11648	-3848	9964	1023	966	2443	-13792	-8560	-4196	15146	7015	2222	-14576	-6260	-1652	3305	12266	1649	-9656	9760	8428	-1349	-32768	6520	-8024	-2560	-9356	17184	-18636	5436	-19528	848	-6712	4579	-21619	7743	177	91	1
-11916	-3200	10012	3650	-437	3613	-13708	-5292	-5308	20184	6572	2803	-13324	-6096	-540	8056	14610	1239	-12216	8732	8252	-3651	-32768	11594	6392	-10032	15060	10862	-11205	22159	-13832	796	-6624	690	-19968	7939	123	161	1
-12388	-1284	11460	3890	-1897	2987	-15532	2168	-3268	13326	4699	1806	-11884	-2516	-2368	4441	10509	5411	-13432	5928	7200	-3028	-32768	16284	-8976	580	-6728	-1767	-32768	3594	-14816	2888	-6080	-7253	-21002	10373	0	138	1
-11864	-72	11200	2107	-1728	1020	-18944	3740	-5080	-662	3789	858	-20024	2780	2620	3105	17357	3043	-14052	4944	6760	-878	-32768	20163	-11084	-2556	-6928	-2731	-31558	11646	-12272	-1232	-8908	-11400	-15802	6257	66	117	1
-11920	-496	11128	329	-857	-365	-16624	-120	-3504	-10687	2417	-345	-15320	3660	-2552	-1507	20568	333	-15700	5968	7724	1098	-32768	22332	-12412	-516	-8640	-3552	-32768	10296	-11492	-128	-8948	-15678	-16031	5623	28	152	1
-11716	-1632	11136	-532	286	-591	-15468	-5900	-2716	-7665	3007	-485	-13820	1872	860	-5473	21273	-1354	-19944	6484	9308	2772	-32768	23482	-13212	-580	-8908	-2867	-32768	12075	-9848	-468	-8336	-16964	-13880	4253	133	133	1
-11492	-1552	11060	-566	290	-613	-14120	-5696	-3740	-1293	4335	649	-12384	-180	1660	-4194	19866	-201	-23384	7476	10932	3931	-32768	24008	-15728	-1516	-11864	-5091	-32768	13623	-8676	-2276	-8224	-15062	-11368	3488	125	143	1
-11708	-1472	10836	-615	1134	-245	-15828	-2488	-3168	-586	4643	725	-14936	-1112	1132	-5538	21750	1177	-24924	4604	12652	7276	-32768	23326	-17892	-3516	-12296	-4278	-32768	15277	-6152	-3132	-7572	-11054	-8255	2378	139	202	1
-11748	-1456	11112	-661	1813	-299	-16964	-1516	-2460	-5677	4792	257	-19276	-3928	-4252	-3992	19348	242	-32768	-1080	12168	18357	-32768	23945	-19772	-8260	-17856	270	-32768	16769	-6032	-4220	-5432	-6355	-6145	954	141	198	1
-11656	-2152	11200	-803	2857	-490	-16700	-4548	1020	-8162	5607	767	-21768	-6000	-2688	-2144	11390	37	-32768	-3340	7100	28885	-32768	26267	-19912	-8604	-23680	14346	-32768	18346	-6136	-5324	-408	-2022	-8207	904	168	150	1
-11892	-2100	11252	-67	4126	45	-14772	-7752	2096	-5114	8372	2208	-20064	-8476	4304	5827	7061	1883	-32768	-8332	-2080	32665	-32768	24900	-20484	-8452	-25108	30098	-32768	20550	-8808	-732	5292	8585	-7845	2543	4	108	1
-11992	-2672	11196	759	5054	440	-13928	-9468	1940	820	12220	4148	-17820	-8556	8300	6614	7796	1773	-32768	-14728	-12964	30274	-30671	22653	-16144	-6136	-26396	32767	-29453	20679	-15492	1604	14172	23785	-7923	4425	113	109	1
-11448	-2768	12732	-505	6570	2035	-15384	-8208	704	5343	15035	5183	-17020	-2716	7416	476	8506	49	-32768	-15236	-25588	15429	-23913	11593	-12432	2392	-21216	30030	-14768	15448	-19824	2908	18308	32767	-2452	7741	138	4	1
-9268	-2800	16248	2609	10898	4001	-19152	-3040	516	29	16007	5295	-18484	4336	4668	-2393	8432	-628	-32768	-23936	-32764	-1604	-9935	-4887	-5980	1076	-21064	532	-428	6312	-14912	11420	15576	26730	3212	9873	137	80	1
-11804	780	15160	1158	15923	4359	-21076	-1436	-3320	-5490	17142	5682	-20464	4560	1192	-2900	7046	-64	-32768	-29624	-28864	-11704	2450	-10130	-5884	-10096	-24452	-21955	12604	-4359	-11032	20008	13796	9748	7753	5740	108	121	1
-11848	1192	14612	704	21920	2201	-20992	1108	-2052	-9556	18646	6561	-20196	1204	1244	-7553	3856	-250	-32768	-26340	-14616	-15797	14201	-8268	-8964	-16052	-31240	-24478	24853	-11605	-8416	14928	12300	-4782	4814	577	91	224	1
-9784	1708	15820	-1323	29704	-845	-22088	2132	-296	-11533	19175	7853	-20864	376	1620	-11322	-1383	1200	32767	32767	32767	-11815	-11057	-5985	-32768	912	32767	30312	7306	-3341	-4224	10676	-13668	-13086	16030	-4929	61	190	1
-7864	624	17620	-2103	32767	-6373	-22592	2288	128	-12218	19234	7938	-24816	760	8352	-7491	-10984	4261	32767	32767	32767	-3159	2599	-9036	-1988	8952	-7352	-5000	12986	2347	-29840	-7060	-544	-17958	12817	-6309	127	141	1
-7184	-3220	17408	-2297	32767	-9840	-30104	1216	13584	-18676	19101	10514	-26232	288	22740	-2835	-23116	4814	-25080	14032	6388	-9123	23512	-23489	-27132	4332	-8696	-22310	15398	-12837	-30044	7008	32767	-32768	-3593	-1879	173	112	1
-21904	-4728	10200	-5314	32767	-7078	-24224	-6544	5672	-20055	20852	12650	-10440	348	7632	-15339	-12480	6448	-28688	-1660	11852	-15229	17318	-13161	-24688	-1500	-11732	-27496	14665	-9142	-19700	-3232	-648	-20355	21794	4000	153	89	1
-32768	-7388	7184	-1534	32767	3276	-20992	-13600	-12024	-6417	25638	15344	-18328	-4928	-5012	-15826	-7001	-1819	-20276	-2516	8252	-8965	6190	-10647	-13180	-852	-10828	-26021	15650	-6753	-18376	-11640	-8312	-7357	17812	2007	253	144	1
-29468	-17328	19900	4940	32767	14959	-32632	-5468	-4136	-1746	23156	12626	-20176	-6356	-10044	-19864	-4989	-2284	-17712	3968	9648	-4636	3098	-6508	-15452	-8412	-13680	-11521	12593	-2753	-8828	-6540	-12716	17560	12819	-175	44	80	1
-20028	-14648	32767	7260	32767	21040	-26676	-8516	3284	-7946	16148	8593	-32304	-3192	-6660	-740	-25454	-1975	-15136	908	11044	-1192	570	-3184	-16688	-7404	-11080	9873	14023	1620	-14300	284	-8156	9935	12787	2899	139	117	1
-32768	388	26812	-4785	29402	14530	-13232	-5584	-27848	13925	10010	6748	-28204	-9496	-3900	16224	-26035	-4517	-13600	2836	10740	470	573	-576	-18416	-5012	-8540	22128	10551	2515	-18240	6716	-6388	12284	13927	4457	128	127	1
-28976	-9196	31972	-11756	-32768	5138	-12832	-260	-11752	14724	7112	7246	-27420	-4564	-7992	15030	-25191	-8243	-13192	3400	10268	1588	1271	504	-18036	3236	-5640	21346	8976	2439	-20004	4416	-3644	10510	13286	-889	171	121	1
776	-10176	19400	-12595	-32768	4362	-17340	-3352	-16	-994	-8271	5709	-27608	-7260	-10704	13147	-22518	-5983	-12628	3824	10060	1676	1358	519	-16284	6884	-2540	5316	6283	903	-17156	4188	-664	7007	13250	-3302	0	105	1
-7848	-15384	11296	-5032	-32768	2903	-9540	-3520	-13952	5801	-17450	1459	-25100	2680	-10800	1878	-20501	-4534	-12204	4264	9960	1675	1659	357	-15500	5492	-1960	-9869	5449	-451	-12320	6372	748	3085	11514	-3174	0	129	1
-11192	-14112	9684	7859	-32768	-1548	-5808	400	-9984	7506	-25593	-1512	-15580	-3104	-9356	2002	-19719	-4092	-12596	5268	9172	899	1655	196	-16952	1588	-4824	-11820	3729	-1226	-14056	7464	-468	956	10162	-3074	52	167	1
-10516	-8784	10016	13961	-32768	-5186	-7272	-2976	-7932	9398	-32768	-731	-12712	-2044	-7444	2670	-16590	-4843	-12300	5644	9000	437	1377	-622	-16168	-96	-4732	-2224	4396	-1039	-15184	7628	-256	909	10334	-2771	130	111	1
-13084	-3744	8860	10132	-32768	-7451	-8940	-2652	-7704	9162	-32768	-4806	-11012	-2240	-9940	8398	-13393	-4228	-12276	5188	9392	683	1214	-1349	-16312	-3364	-5192	13816	5084	1498	-14160	3088	-1008	5568	15374	-1785	116	107	1
-16328	-11296	9928	6114	-32768	-4896	-19448	1488	-7688	15228	-32768	-6249	-10380	-1276	-11812	16278	-12706	-3561	-12624	5076	9548	550	1033	-2643	-17240	4544	-2124	15554	6680	1424	-15520	3188	1296	6176	14572	-1128	138	121	1
-18748	-8188	11316	356	-32768	-8386	-9956	-1972	-10452	-998	-32768	-5301	-8488	216	-9736	22006	-12251	-3000	-12532	3960	9776	1553	1371	-1848	-16180	5156	-2164	5587	5247	-272	-15140	2776	1720	9647	15652	-1786	134	111	1
-23492	-8488	11524	-3192	-32768	-9241	-14076	-864	-11468	3380	-32768	-11156	-7048	3228	-8916	21105	-11528	-509	-12884	4104	9968	778	1802	-2094	-16788	3156	-3588	-3855	5103	-1787	-14776	2800	848	12420	18672	-2264	144	132	1
-27092	-10992	12940	-3505	-32768	-12036	-16268	-1884	-13044	6924	-32768	-12094	-5908	5208	-6484	16205	-10984	1798	-13684	4664	9592	336	1620	-2073	-17040	-196	-4104	-4500	4125	-2117	-14660	3088	2168	12877	21690	-1981	149	127	1
-32768	-14932	12316	-1635	-32768	-14745	-17824	-896	-13724	12217	-32768	-14792	-4804	7404	-4908	9656	-7502	3434	-13404	4240	9388	273	1906	-1725	-16548	-1204	-3188	3631	5452	-808	-15892	2348	-212	8131	22282	-1318	148	130	1
-32768	-10328	9704	2814	-32768	-18892	-20028	620	-18756	17093	-32768	-17208	-5568	6252	504	7706	-7009	3128	-13504	3848	10004	666	2198	-1562	-16248	2280	48	8587	8332	-901	-17872	4744	-4552	3144	16958	-1163	102	134	1
-32768	-132	2740	-6391	-32768	-27032	-22480	-3416	-16440	8763	-32768	-15295	-8736	2880	5876	8785	-7879	380	-13348	3688	9852	707	3018	-1689	-16076	4852	352	2666	10880	-2622	-19736	7060	1688	-364	11374	-1226	73	134	1
-32768	-4472	-10204	-10494	-32768	-27458	-18344	-2736	-17684	7643	-32631	-12204	-16072	-560	13804	8843	-11502	-3303	-13740	4544	10012	700	4122	-1719	-17052	4604	-1472	-4516	12390	-4523	-17564	6968	7648	686	9206	-100	141	129	1
-32768	-660	-26812	-2928	-21395	-19007	-9948	-3568	-22840	8226	-20116	-9719	-22088	-708	24336	1014	-9954	-7436	-13692	5628	11376	763	5613	-2713	-18184	2640	-1836	-5141	13600	-5253	-16424	5504	3956	3466	10154	561	77	139	1
-32768	11576	-32768	-5443	-9423	-8995	-5828	2980	-22332	1023	-5035	-8649	-15964	-5572	20432	-5647	1413	-6004	-14816	5084	12140	-667	9819	-4334	-20132	-1500	-3112	671	16647	-5307	-19800	3156	636	4980	9133	-387	63	127	1
-32768	12248	-32768	-12314	4594	-3853	-5480	852	-20312	-6544	11589	-2179	-16344	-4912	14012	-7202	1763	-2873	-14144	3756	13376	-81	14513	-5931	-21400	-1324	-2844	4733	18837	-5553	-20668	1312	1028	8365	5991	-1087	127	121	1
-12480	-18652	2772	574	16711	4797	-7896	-1516	-26420	-6054	25459	3381	-9948	-6032	3412	-7570	5706	157	-13764	4416	13960	576	20230	-6534	-21572	-1964	-2172	4348	20467	-5998	-19512	-192	1712	11348	3568	-602	161	116	1
2648	14272	32767	13457	13231	940	-32768	-7088	32767	-32768	13112	2788	-9116	-8484	-1224	-3823	11452	-1540	-12256	4252	16064	665	27283	-5974	-23988	-1892	-396	3207	21505	-7162	-21268	1280	3504	12415	1603	-23	162	131	1
-32768	-8736	-8076	21827	32767	8589	-13852	-4252	-14008	20691	18357	7246	-24800	-8940	8820	2942	9913	-6288	-12536	7476	15452	1445	32767	-7986	-26456	-3852	3552	2425	23038	-8228	-25124	3016	10280	14660	-5504	-1035	178	114	1
-14372	3212	15864	21307	32767	9002	-7696	2232	-1460	28654	24016	3679	-16692	-16232	4684	32767	7708	-3672	-11168	7276	15964	1833	32767	-8607	-30124	-6036	5568	9457	24515	-7508	-25744	3412	23296	23608	-25326	-2725	247	101	1
-32768	-12740	27668	195	22000	3920	-32768	9032	-23684	32767	26780	8048	-19412	2412	2880	32767	14208	316	-32768	12956	12480	6480	32767	-16971	-32188	3908	3632	11570	27670	-7837	-20656	-112	11748	16463	-19066	-223	238	124	1
-15668	11536	12820	4427	5475	8746	-17300	3500	-11412	20792	24179	8046	-23140	17040	-21812	27040	17925	1543	-32768	16292	13780	4077	32767	-25596	-32768	12828	-1656	734	29468	-9457	-27052	10132	-10472	9876	-15461	4397	0	118	1
-15828	1380	11548	1193	4108	2410	-16768	6536	-12480	22277	17847	2812	-13628	15820	-14156	-9447	10858	-104	-32768	23052	16832	-1412	32767	-32768	-29028	1748	-3676	-1877	26575	-8271	-26496	4220	-11644	67	-21130	7063	200	106	1
-12480	-2848	11004	2271	2829	1842	-11704	11528	-11108	-14933	12196	-3478	-8636	3376	-7496	-17280	9099	-2699	-14692	24264	32767	5425	32767	-32768	-21960	-400	-8728	-9108	24492	-3044	-32768	-11608	-2792	-9472	-30563	3932	253	106	1
-12680	-36	11532	863	2421	-93	-15976	2536	-9772	-32768	6519	-3168	-11992	-4236	-5448	-18986	10625	-6095	-32768	17200	17056	10900	18944	-14700	-20856	-116	-11908	-9894	23209	-1881	-32768	-8688	-5664	-1771	-31144	5084	0	99	1
-12076	-2184	11016	-137	1963	-243	-19664	-14984	-4620	-23435	5598	-2752	-19420	-9628	-4412	-12156	16286	-3284	-14220	12212	22080	7066	-26278	5445	-15560	-5684	-9712	156	-1584	5733	-32320	-6752	-7496	5184	-29882	8416	254	89	1
-11784	-3260	10672	60	1293	1154	-13724	-13056	-4080	8195	8219	270	-21440	-8364	-4408	-3713	13488	-69	-812	10844	16432	6551	-26575	7422	-8020	-8196	-4484	19498	-6940	10161	-28732	-3592	-8792	14196	-27579	9460	228	70	1
-12060	-1856	11000	1069	391	1297	-16032	-5520	-5952	23764	9446	2399	-15920	-5728	-2800	3580	12818	2212	-5628	2484	12140	7212	-29034	11115	-6440	-6580	-7836	25095	-15026	15066	-23164	-3076	-8000	14712	-26192	7669	169	95	1
-11984	-2124	10656	1811	88	1031	-16660	2008	-5708	19790	7162	3446	-13400	-3116	-2040	8144	15611	2202	-10880	-556	12972	9539	-32768	20092	-4668	-5608	-6944	16305	-23661	18159	-17580	-3052	-7664	12443	-23826	6373	96	187	1
-11880	-1496	10804	1859	-57	981	-15412	4812	-6500	1621	4473	556	-15016	964	-3832	5561	16226	3898	-12912	-924	14132	10142	-32768	24973	-7084	-4748	-6360	12651	-27995	17898	-14536	-1832	-7968	9218	-22046	6525	0	141	1
-11752	-1216	11060	873	445	469	-16384	236	-4844	-8949	3209	-1510	-15552	1780	-3724	4694	16146	4224	-14048	-2924	13536	9403	-32768	25224	-8880	-4828	-4328	6425	-32768	18772	-12608	-756	-8996	3753	-20405	6544	23	120	1
-11724	-1100	10980	20	1142	522	-16236	-3692	-3992	-8324	3428	-1782	-15944	1200	-1316	-353	18344	4132	-14732	-6184	14412	10124	-32768	22635	-10200	-6304	-4516	2393	-32768	19926	-9448	-324	-9932	-1418	-18077	5918	126	128	1
-11856	-1180	10740	-246	1550	496	-15276	-4832	-3636	-2947	4006	-187	-14668	-224	0	1856	18920	2283	-19164	-7960	15140	15373	-32768	18904	-12488	-5612	-6768	189	-32768	19162	-6332	228	-10752	-6132	-15066	5201	0	132	1
-11688	-1632	10764	37	1712	672	-14312	-4224	-4320	2627	4918	322	-13772	-1400	928	4873	18655	996	-22556	-3652	15888	18068	-32768	18734	-13760	-6228	-8952	-3363	-32768	17236	-3848	544	-10676	-9632	-10250	3875	236	163	1
-11952	-1460	10416	544	1784	1192	-15320	-1484	-3704	2611	4982	331	-15988	-1448	-1428	3288	18310	-58	-24988	176	16152	15820	-32768	20736	-13920	-6800	-9332	-3337	-32768	16811	-2552	224	-10484	-11569	-5328	2524	143	214	1
-11928	-1388	10380	569	1861	1212	-15808	-32	-3480	-2961	4981	-168	-17568	-476	-3436	17	15429	-503	-30272	1992	16104	14289	-32768	20606	-20556	-12036	-13984	10685	-32768	16108	-2616	440	-8208	-11119	-3495	1810	67	236	1
-11896	-892	11160	253	2677	1185	-16552	-2184	-1500	-7394	5699	17	-19360	-1448	-1568	1575	10425	-707	-32768	-4424	8136	16072	-32768	26479	-20300	-6812	-23692	12000	-32768	17003	-3560	-1172	-5452	-14483	-2672	1184	51	171	1
-11776	-1248	11376	224	3619	927	-16388	-5284	520	-6034	7501	1363	-19340	-4616	2528	3975	8611	205	-32768	-5400	-1036	13859	-32768	27478	-24012	-3732	-23476	12593	-32768	15380	-6040	860	4760	-11173	-6994	418	191	107	1
-11988	-940	11824	-799	5077	1363	-14816	-7828	96	162	10229	2865	-17540	-5356	5372	2805	8249	62	-32768	-8812	-14260	6027	-32768	24957	-20228	-3528	-23448	3204	-32768	10684	-12824	4572	24828	5899	-12825	-828	1	55	1
-12028	-1152	12996	416	7660	2178	-17044	-5580	724	2608	12522	4446	-18300	-1956	6196	-1237	7942	-1729	-32768	-9276	-31904	-6340	-22105	17410	-9576	124	-24012	-4195	-22156	5421	-21420	5028	25732	18115	3872	3788	135	47	1
-12264	-1400	13420	1121	11072	3103	-19460	-2476	-1704	-225	14367	5269	-20656	3508	6520	-5411	7692	-2141	-32768	-23092	-32768	-8840	-6614	7643	-6176	-3740	-24844	-9774	-3606	2539	-18624	9900	21184	4513	9991	3971	125	85	1
-12456	196	13756	1422	15384	3113	-19744	-8	-1624	-6088	15527	5811	-20648	3892	6160	-5728	7662	-1959	-32768	-27340	-32768	1159	11691	8133	-5532	-3288	-24260	-12690	12554	-3738	-17136	12576	15484	-4618	4590	-3335	108	145	1
-11344	384	14888	1208	20989	2141	-20524	-744	-1472	-9784	16589	7098	-19692	-788	1992	-10803	4892	-126	-21560	32767	27564	-13530	19685	-3192	-20916	2060	6692	15771	23868	-6145	-11536	10268	5092	-16821	10114	-2934	60	238	1
-10288	-216	15888	111	29132	574	-22868	-824	-540	-10794	17343	8120	-22208	-3328	1872	-11330	258	1014	16688	18868	10488	-2172	26311	-8075	-32768	8524	24508	-3076	4000	2175	-17296	3564	2656	-16597	11519	1476	119	146	1
-9328	-2684	16608	-180	32767	-1727	-26836	-3344	2888	-11984	17723	9883	-25284	-4004	6408	-6284	-6351	2277	-32768	-1912	13128	-10999	23975	-12789	-4580	-148	-4768	-20866	15007	-2034	-19708	-2408	9812	-10665	4872	4596	120	81	1
-7772	-4372	16404	-1501	32767	-626	-27016	-2576	8900	-13105	18190	10645	-23852	-3200	19736	-5999	-20981	5319	-31616	-6196	17128	-10661	30488	-19021	-25524	-7556	-8020	-25421	14026	-7630	-18336	5024	15160	-16540	7809	465	177	99	1
-22980	-6604	10468	-2028	32767	3805	-24492	-8248	6084	-17117	19649	12686	-15220	-1404	13708	-23602	-16812	4239	-24884	4496	11784	-6267	22038	-13484	-26696	-10684	-9604	-21990	15754	-6494	-23644	-7576	-2024	-6174	16082	1578	198	98	1
-32768	-9184	10792	3301	32767	16012	-22508	-14664	-10312	-8143	24524	13721	-19104	-3572	2612	-7039	-9601	-2701	-20392	-9064	14836	-8599	-858	-12468	-12756	2016	-13832	-12186	17829	-885	-19312	-3016	-11236	5111	12612	1285	174	156	1
-32768	-16672	16120	8987	32767	24487	-30556	-4368	-6324	-5367	22461	11367	-28536	-10136	-18684	-12730	-8168	-8350	-16768	1272	9476	-3013	-2106	-5812	-18340	-3920	-11448	-11883	14809	-990	-8968	6504	-10656	8355	16890	1793	245	125	1
-17492	-14656	27724	5710	32767	27109	-27764	-5936	4140	-7223	17523	7664	-32768	3708	-5248	6760	-23981	-7022	-14144	4088	9828	-228	-1602	-2327	-15220	-6460	-9404	4678	12622	927	-13404	4436	-7576	3024	11117	806	171	82	1
-32768	-7044	16684	703	32767	17141	-26844	-6068	5988	-6212	15989	6956	-29868	4880	-972	13327	-28189	-5388	-13356	3808	10108	839	-529	-509	-16812	-2860	-6400	15919	10414	1405	-15748	4052	-5236	-1495	14159	2898	79	89	1
-32768	-9580	29264	-2474	-11476	-984	-8424	1716	-23240	16783	10194	945	-27092	5640	-5488	3585	-25804	-7691	-12700	4240	10064	957	292	-92	-18880	1688	-5544	14384	9073	1591	-18292	2896	-2992	1676	14144	-1666	108	107	1
-8012	-6472	21744	-4308	-32768	-6291	-18096	3976	-2340	-6027	-1151	-4099	-27744	4260	-9096	-1338	-22815	-8756	-12588	4516	10028	863	523	-158	-16252	6256	-1856	2941	6929	785	-16556	4824	-976	750	13353	-3531	10	142	1
-3400	-3660	13332	-7968	-32768	-8090	-11060	2520	-6144	-7834	-11409	-6269	-25608	2436	-9644	-7331	-21041	-8440	-12372	4928	9772	1219	347	-684	-16072	4160	-2424	-9858	5946	-754	-13972	4596	-264	-1300	11678	-3500	1	155	1
-7608	-2732	10468	-9641	-32768	-11618	-5868	1696	-9460	-337	-18339	-10830	-19300	1476	-10276	-8396	-19740	-7585	-12520	5048	9488	728	386	-906	-16780	724	-4192	-9404	4347	-1393	-14880	4424	-192	-2433	11493	-2300	102	145	1
-10032	-3296	10740	-6661	-32768	-14298	-4544	1900	-7176	7803	-25280	-14333	-13928	-152	-9148	-7319	-17350	-7268	-12800	5360	9464	442	273	-1187	-16168	-2992	-3676	622	4850	-594	-15812	3704	-8	-1465	13678	-1421	122	108	1
-12956	-2208	11292	-1930	-32768	-14725	-6964	1588	-8088	10339	-31444	-14970	-10476	-836	-9604	-3753	-14361	-6051	-12596	4748	9896	753	201	-1251	-16380	-368	-2616	8821	6313	288	-15920	812	172	432	14517	-809	168	131	1
-16060	112	10148	-2084	-32768	-14827	-11324	2816	-7916	10513	-32768	-14600	-9620	-1288	-9880	2463	-12414	-5865	-12624	4368	9952	1062	441	-1412	-16540	2360	-2068	7883	6853	148	-15272	-952	1052	3098	14604	-773	147	109	1
-17276	1224	10136	-5452	-32768	-15762	-12036	2960	-8756	12351	-32768	-14946	-8344	272	-10152	9482	-11516	-4859	-12580	4444	9960	530	848	-1449	-15956	2004	-2152	1752	6775	-661	-14648	76	2156	7028	16825	-1125	150	111	1
-22500	1280	12180	-9741	-32768	-16197	-12748	2556	-10528	9238	-32768	-16125	-6776	1820	-10228	15006	-10563	-3649	-12596	4620	9772	-370	1426	-1392	-15956	1028	-3252	-1927	6893	-1423	-14944	1404	3004	10709	19482	-1367	141	125	1
-28560	-1780	13216	-13580	-32768	-15789	-15148	2396	-11548	5803	-32768	-17764	-6196	2552	-9932	16953	-10456	-1941	-12908	4788	9564	-766	1520	-1500	-15988	-336	-3904	-243	7308	-958	-15628	2068	520	12213	18152	-806	163	122	1
-30948	-5372	13640	-12338	-32768	-15874	-18688	1212	-11376	2922	-32768	-19299	-5568	3484	-7604	13012	-8551	-472	-13008	4508	9748	-624	1613	-1726	-16380	-140	-3316	4599	8310	-493	-16600	3292	-2548	8350	15514	-339	157	132	1
-32304	-2760	13636	-7113	-32768	-16188	-22320	4756	-15652	10107	-32768	-22009	-5412	2372	-3548	9811	-7366	11	-13040	4172	10200	-69	2131	-1761	-16716	856	-2464	6044	9645	-1011	-17336	4200	-3152	2507	13293	-16	109	134	1
-32768	6012	9944	-12764	-32768	-23389	-24564	1192	-17604	4976	-32768	-20129	-7124	1420	2540	10066	-7975	-1857	-13040	4276	10048	197	2979	-1778	-16468	1344	-1992	2640	10641	-1869	-16724	5300	-228	-62	10464	-143	94	139	1
-32768	1084	-1788	-11088	-32768	-22761	-21404	-1520	-16464	1811	-32768	-15186	-13180	-344	13132	8740	-10970	-4391	-13304	4472	10132	312	4256	-1558	-16412	2476	-2032	-1870	11704	-2880	-16160	5716	2572	2162	8779	-543	81	136	1
-32768	584	-18888	4870	-30179	-13572	-14112	-1668	-17600	18105	-24748	-10603	-19448	-3956	26664	-257	-9084	-5674	-13380	6480	10424	1448	5496	-2035	-17708	2680	-4104	-4469	12705	-3652	-16584	4300	3020	4802	9144	-290	79	130	1
-32768	16896	-32768	9660	-16462	-5213	-9160	5872	-20404	16542	-11015	-6697	-16860	-5480	22580	-3528	4294	-772	-15024	4744	11096	-29	9025	-4081	-20232	-2784	-3316	-616	14091	-3897	-19632	556	1556	4333	8684	62	74	118	1
-32768	26176	-32768	-7148	-1091	-3049	-6448	8172	-17708	-854	6013	-466	-18736	-4476	18364	-220	1121	1581	-14244	3552	12908	385	12483	-5118	-20264	-1424	-2408	3457	16568	-4260	-19920	76	2184	4118	6576	171	145	117	1
-32768	-1476	-19148	3308	18211	8598	-7632	-1716	-14656	-9703	20527	4210	-13796	-3152	10404	1138	3848	3301	-14272	5344	13480	416	17328	-6471	-21412	-192	-2708	1784	18534	-4968	-20384	1848	3200	9660	4111	-348	166	121	1
-16740	11320	32767	4909	16022	8438	-28996	-5416	15036	-32768	19189	6636	-12384	-3200	-1032	1655	7990	3238	-12396	4708	15436	272	23744	-7746	-23528	-2880	-2660	1436	19222	-5548	-21444	3240	3668	13669	1072	-409	155	133	1
-6680	-2512	-2264	15062	31260	27378	-24772	-7332	-3812	2168	14628	2667	-23860	1408	7392	-489	7966	3161	-10532	5480	14796	1037	31028	-8769	-24804	-5668	1624	3431	20320	-6375	-23256	3740	6600	12928	-4832	-1308	153	115	1
-23548	-19916	12492	16195	25391	9730	-8136	-2228	636	6257	19643	2334	-12448	544	7320	12770	10276	182	-10828	4852	16620	3559	32767	-8976	-27044	-5828	6224	9759	21750	-6677	-22732	2296	17216	15293	-19942	-3557	206	94	1
-32768	31804	14996	4377	24447	6891	-30952	716	-9656	21191	23088	3583	-10948	-1580	7332	15873	10584	32	-16376	8684	15880	3886	32767	-11577	-30532	-1276	6152	11303	22566	-7729	-19496	-3180	16156	11609	-13823	-2483	151	121	1
