#Activity	walking 
#ActivityID	1 
#Date 09-24-16-44
acc_rf_x	acc_rf_y	acc_rf_z	gyro_rf_x	gyro_rf_y	gyro_rf_z	acc_rs_x	acc_rs_y	acc_rs_z	gyro_rs_x	gyro_rs_y	gyro_rs_z	acc_rt_x	acc_rt_y	acc_rt_z	gyro_rt_x	gyro_rt_y	gyro_rt_z	acc_lf_x	acc_lf_y	acc_lf_z	gyro_lf_x	gyro_lf_y	gyro_lf_z	acc_ls_x	acc_ls_y	acc_ls_z	gyro_ls_x	gyro_ls_y	gyro_ls_z	acc_lt_x	acc_lt_y	acc_lt_z	gyro_lt_x	gyro_lt_y	gyro_lt_z	EMG_r	EMG_l	act
-9452	-2620	16008	-1991	19405	759	-21336	2424	-1432	1899	17698	-1325	-21896	2308	6956	-2825	5004	913	-2516	16108	12036	-32005	15578	-15532	-17304	1264	-4612	-10654	23081	3178	-10248	7468	-4008	18676	2639	6925	130	135	1
-8960	-1376	17288	-2407	27077	525	-23492	4024	-488	-955	20390	-1809	-22904	3700	11168	-4825	-1152	1308	2068	-2716	27280	-8253	30095	3336	-32768	-13328	8836	-32768	17756	-9369	-10844	7176	-6432	-8412	-1047	5041	130	131	1
-8920	-2812	20272	-3691	32767	-1778	-30200	6372	1956	-1327	23206	-935	-26104	6380	19008	-5734	-10037	1914	-32768	-30500	26860	-7019	31758	-7093	-15428	-14648	-19512	-32768	21989	-1248	-27640	5312	32767	-32768	-3003	10085	130	132	1
-5068	-8740	20676	-4913	32767	-3187	-32768	16748	8856	-7152	25067	-2110	-26896	12012	32232	3564	-27053	7876	-18064	11436	17376	2412	16146	-13317	-15400	-8392	-8456	-3414	23196	3006	-27616	-24592	-25788	-21238	16602	-5322	127	124	1
-21328	-10632	21756	-5843	32767	3364	-32280	1776	7896	-23934	26905	-2907	-14676	16824	-5068	-11903	-1057	9888	-15840	17192	14240	-10434	18380	-7387	-14876	-1884	-8432	-264	22673	2887	-7352	-6420	-10696	10841	1943	-2278	123	129	1
-32768	-14868	18124	-7175	32767	13136	-28704	-20144	-7416	-11471	27243	-3170	-24064	-2412	-376	-22212	-3981	5830	-21292	3512	17536	-8462	5909	-11050	-13220	5948	-15820	-12462	14966	5515	-9784	5824	-8320	11316	9269	4482	125	121	1
-29604	-15472	25276	3691	32767	25718	-30648	-3800	-4888	2819	26697	-4112	-31028	-2920	-13472	-14008	-6681	1904	-15184	-3508	18576	-4556	897	-4484	-20064	-6852	-15452	3798	12105	3684	-24688	8624	-9820	10434	12510	8079	124	115	1
-22204	-7236	32767	-2596	32767	21540	-23924	628	-8584	1743	21707	-4820	-32768	4404	-8528	-11397	-17026	720	-9940	4284	14372	-1643	248	-1440	-19860	-6932	-14528	7252	12025	3431	-20668	4632	-5316	6394	8634	6919	125	103	1
-31504	-4404	32767	-18958	13302	8734	-18524	-816	-11948	-1095	12313	-754	-30560	2072	-8352	-7084	-18938	732	-9092	2312	14324	-599	204	-837	-16792	4668	-8952	7942	8158	3888	-17408	4060	-4700	4640	10088	1307	122	128	1
-6996	-18528	30472	-20167	-20652	5043	-15932	-188	-3668	-12509	4462	-2043	-29552	3800	-10152	-2634	-19658	2500	-8652	1980	14408	652	1178	-200	-17480	5044	-7656	-5859	6908	2243	-16684	1032	-1700	1084	11671	2323	123	126	1
4152	-13188	16296	-8403	-29607	5162	-11256	-4672	-1868	-11807	-4469	-2780	-25224	2240	-10560	-3087	-18933	1931	-9236	3076	13940	1713	1898	18	-17480	104	-8032	-7322	4986	2302	-17868	1428	-2856	-347	13983	961	120	127	1
4596	-8224	10472	-594	-29894	3630	-6328	-5840	-2896	-3888	-12949	-1805	-19524	1964	-11420	-5364	-18529	583	-9740	3256	13472	1840	1894	153	-16396	-164	-7260	1938	3356	3152	-15884	2168	-2876	276	14430	66	137	122	1
1424	-5904	9016	-258	-29500	303	-6184	-2804	-3680	2950	-19495	6	-15664	1324	-11188	-5858	-18121	-1449	-9636	3896	13100	1514	1659	450	-15856	3016	-5940	8189	2062	3108	-16696	3092	-2560	1491	15197	99	132	130	1
-2040	-5792	10108	-2901	-30290	-3647	-6844	-1248	-5008	4822	-24713	1411	-15156	-628	-12100	-4189	-17908	-2265	-9648	3976	13292	1257	1661	646	-16144	4292	-3900	8201	1650	2539	-16452	3628	-820	61	15001	1188	123	134	1
-6324	-6912	11972	-3885	-32768	-7908	-7316	-1368	-5960	3836	-29771	2807	-10524	-176	-13704	-2787	-20392	-2332	-9584	3604	13288	1122	1713	713	-15600	3732	-2748	5377	1884	2333	-15984	752	1500	2187	16386	1821	131	129	1
-10072	-6940	13504	-2754	-32768	-11967	-8108	-2108	-6600	4286	-32768	3665	-9460	-1200	-11896	3551	-18309	-2747	-9556	3572	13164	1041	1752	684	-14508	2808	-2896	3913	2396	2356	-14040	-36	1216	4068	14637	525	134	131	1
-11652	-4964	14592	-2146	-32768	-15278	-9992	-1388	-6920	5600	-32768	5027	-7216	-1268	-11424	5287	-18436	-2976	-9548	3900	12908	816	1487	437	-14584	3056	-2844	5287	2869	2323	-13680	644	676	9607	13857	-233	135	130	1
-14000	-3496	15728	-4269	-32768	-17553	-12312	64	-7052	3848	-32768	6397	-6356	-572	-11140	7533	-16171	-2707	-9672	4224	12640	254	921	-154	-14156	4164	-2680	7505	3365	2383	-12988	2620	172	13354	13765	-64	133	124	1
-17832	-4016	17780	-6978	-32768	-17846	-14764	-1816	-7528	1922	-32768	7191	-4256	360	-12836	8692	-14266	-2985	-9472	4348	12660	-323	438	-801	-14488	5472	-3072	6889	3884	1791	-12508	3664	5168	11053	15416	1702	130	128	1
-19680	-2052	18224	-12426	-32768	-16794	-19592	-916	-7628	1560	-32768	6888	-3348	1420	-12672	10409	-11083	-3978	-9720	3916	12804	-741	98	-1574	-15416	4424	-3600	4227	4321	1396	-13564	4636	-672	10405	19224	1723	127	129	1
-25368	-4000	20764	-15854	-32768	-15838	-23576	-1584	-10468	238	-32768	8031	-3844	768	-8624	10939	-9731	-5398	-9328	3448	13320	-832	124	-2150	-15824	840	-2844	5018	4980	1518	-18292	6204	-4740	11793	18324	430	128	126	1
-32768	-11208	29572	-11866	-32768	-17391	-30356	-5480	-14988	1530	-32768	8017	-7256	2160	4608	9341	-13838	-3780	-9428	3456	13456	-674	812	-2395	-15296	2044	-1940	6116	6182	1826	-20584	5052	-3284	4188	9587	-255	131	132	1
-32768	-11924	25336	-4202	-32768	-20130	-31264	-5852	-14084	1968	-32768	8021	-13784	124	8080	7003	-14515	-1275	-9448	3384	13616	-417	1833	-2332	-15360	4740	-1900	3266	7676	1440	-16980	7112	2660	-52	7696	-508	135	132	1
-32768	-5632	14068	-2448	-32768	-23495	-22892	-5360	-17740	-4193	-32768	6497	-17032	620	5476	8144	-7372	-3084	-9296	3368	13756	-305	3247	-2413	-15892	4048	-944	1176	9507	695	-16100	6612	5224	1407	11005	259	126	128	1
-32768	-2756	1880	-2833	-32768	-17946	-23504	-5860	-17400	-4190	-32768	1805	-15728	8772	19656	6478	-14950	-156	-9744	3708	13988	9	5132	-2789	-15256	3284	432	874	11872	410	-17472	4816	6108	2406	11167	746	128	126	1
-32768	22400	-27668	-12088	-28168	-4079	-9640	1456	-22236	-8342	-21471	-7636	-13080	18828	32767	10886	-9540	1285	-9824	2856	14692	308	7823	-2885	-16296	3924	-904	-2177	14718	-26	-17996	3832	6664	2746	9499	789	119	124	1
-32768	29720	-32768	-17985	-3869	6500	1876	-10176	-24120	-15302	4072	-8048	-20256	8824	32767	4387	1766	-3984	-9268	2636	16044	881	12475	-2671	-19548	2528	-2492	-5182	17725	-974	-19208	2928	4108	1585	7819	1172	119	130	1
-32768	13584	-10344	7985	7358	12846	-9736	-10112	-26404	473	19324	-3641	-18120	2976	4672	-7033	6754	-9209	-9584	4092	16644	1777	19417	-3028	-22068	-1392	-2916	-2034	19852	-378	-22584	2544	4736	3389	6270	-296	118	127	1
760	-2252	10652	30568	20458	7273	-22684	2772	7372	17384	25708	-3773	-12376	1744	-2416	-18938	11597	-5153	-9296	3676	17904	2679	28762	-3728	-24092	-1708	-1304	2451	22272	367	-25356	3844	8264	5331	1758	-1289	111	127	1
4460	13140	22364	15850	32767	-8378	-32768	10408	-1712	32263	18136	5349	-24740	-3108	21036	20639	2879	-5052	-7812	4380	18048	3873	32767	-3785	-29336	-2908	1576	2699	25326	-207	-28060	4568	13540	-154	-6091	-609	120	124	1
-32768	30676	32767	7794	32066	-863	-17676	15732	-14352	32767	20287	747	-7172	-3748	16660	32767	9704	-1211	-6912	8308	20080	4953	32767	-5712	-32768	-11964	6804	10521	26955	1105	-28040	-1304	23744	-4462	-21241	-2606	109	128	1
-12088	2696	18292	-5366	18027	12646	-20820	9272	-7476	9642	24620	-4651	-19676	22524	-21436	24255	5040	-2911	-13968	18868	20484	6712	32767	-16461	-32768	-1428	9564	26908	25711	2835	-18296	-14884	3340	-340	-21924	-14268	118	128	1
-9252	-19316	7640	4244	24720	1977	-13248	-13092	-6744	9866	16781	-6799	-7760	9064	-10368	-12315	4163	2335	-32768	10392	19336	3111	32767	-29387	-24568	17784	-9976	15667	26565	4546	-22716	-1588	1132	11761	-15411	-8825	132	132	1
-9372	-2468	12252	678	870	400	-16164	-2952	-2296	-2705	3801	-1745	-14556	72	164	-10159	14563	-1907	-16428	5648	15912	2244	-32768	19887	-11348	-404	-9216	-3594	-32768	-2100	-7748	140	-10716	-9629	-6001	36	129	135	1
-9604	-2372	12284	839	659	1082	-15884	-3200	-2480	-2459	4060	-1407	-14060	-2016	672	-11424	15100	-1791	-21432	6312	17960	3487	-32768	19715	-13508	1624	-9824	-3067	-32768	-2127	-5000	-1008	-11548	-12325	-2608	461	128	134	1
-9372	-1764	12584	924	530	1496	-15668	-1156	-2636	-2201	4762	-1167	-14020	1004	4828	-4542	16320	-4034	-21968	5832	17476	6753	-32768	18853	-17624	2056	-9704	-6464	-32768	-2497	-3264	-1612	-10368	-14832	1275	2196	127	130	1
-9544	-1744	12740	945	725	1678	-16588	104	-2136	-3479	5677	-1256	-16588	3592	2260	-3989	17375	-5123	-25836	9328	19392	9971	-32768	18431	-22260	3596	-11708	-9866	-32768	-3990	-2220	-332	-8196	-14300	2288	3949	123	129	1
-9252	-1328	12972	930	1140	1847	-15584	712	-1780	-5045	6681	-1847	-18224	3592	-920	-7743	12024	-2459	-32768	16976	26628	6088	-32768	20186	-28316	6044	-15848	-8563	-32768	-5374	-9280	72	-556	-13349	-4029	3528	126	127	1
-9276	-764	13116	661	1911	1527	-15660	176	-2388	-4795	8153	-2398	-18072	-908	452	-4586	6558	-548	-32768	17680	20312	-1765	-32768	26965	-24636	3952	-18472	-5086	-32768	-5454	-17352	2100	7620	-12081	-13057	3572	129	124	1
-9472	-944	13556	304	3146	962	-17080	-1832	-3208	-3176	8763	-1904	-16192	-2544	2156	-5136	10635	-579	-32768	11064	2092	-3827	-32768	30501	-18260	2428	-19468	-2296	-32768	-1336	-17584	456	10704	-12027	-5746	3238	129	126	1
-9312	-1780	13396	-42	4744	1160	-17184	-1248	-1748	-2839	10360	-1635	-18040	-692	3340	-3777	12995	-727	-32768	-14016	-17460	6113	-27582	21683	-15284	-1948	-16064	695	-28381	7337	-16276	-15888	32767	-17445	-7300	3492	129	126	1
-9340	-900	14076	-100	6798	935	-16116	-1488	-768	-1092	12366	-1411	-18020	-1536	6040	-1232	11900	-369	-32768	-32768	-30512	30417	-14415	5489	1992	11552	-15364	17874	-6196	9298	-29576	-11712	32767	287	-1451	-50	129	135	1
-9304	-848	15500	-401	10603	114	-19316	-2924	-1472	3055	14681	-155	-18928	-2980	5568	1220	11460	-404	-32768	-19280	-17796	-7629	1959	-15278	-5116	11608	-18708	3051	12187	4986	-18876	4984	14752	15626	-8492	2060	124	134	1
-9536	-2956	16152	-240	15984	596	-21820	-668	-1516	3906	16822	-43	-22604	-1260	5128	615	7636	426	-32768	1544	-16232	-27865	13717	-26749	-10528	5792	-20340	-5966	22176	2355	-15960	8244	-824	20471	-2668	5873	127	118	1
-9684	-1856	16368	-388	22357	1536	-22308	1856	-1232	1199	18993	-848	-22800	36	8624	-713	4740	2175	6204	2912	32767	-12898	32272	-2023	-32768	-26244	21156	-24324	19803	-6676	-16196	4228	-1032	10896	-1240	7261	129	118	1
-8820	-1664	18164	-529	31619	1720	-26024	1172	492	30	21797	-813	-24540	384	12568	-2020	-1897	2295	-32768	-12144	14024	-11594	32767	-7730	-29928	4312	-20692	-32768	25954	702	-32156	4276	27344	-30700	-10081	9145	130	136	1
-6756	-1328	20536	-1450	32767	1505	-30580	5532	4220	921	24117	-871	-24856	836	13520	-2303	-3158	2138	-15908	-17200	26544	355	17896	-10708	-10124	-22732	-11776	-14839	24528	4980	-15116	-18116	-30172	-5847	21390	-5943	128	115	1
-4232	-16236	22132	1461	32767	3703	-32768	19000	11028	-9939	25670	-2506	-27452	14564	31292	16631	-14666	6324	-6188	23700	5760	184	19988	-7435	-12796	7372	-13212	-603	19815	4744	-16556	-11916	-16024	-745	292	-4386	134	132	1
-32768	-14116	20716	1253	32767	14225	-30832	-6612	-3440	-21170	29626	-5266	-15048	18948	2412	-17722	-6591	10378	-20120	-1264	15460	-8622	8604	-10664	-15972	18132	-16252	-6022	15405	9240	-2628	5112	-9932	13889	8051	1204	132	123	1
-32768	-14708	24816	2527	32767	23434	-31844	-14452	-6212	-9027	27816	-4715	-28212	-4148	-7784	-22865	-3189	4869	-20100	1096	18604	-5367	1009	-5695	-19832	-3636	-17140	-5458	12834	5200	-26200	14548	-12004	6414	14868	6304	126	117	1
-27032	-11448	31200	3688	32767	26699	-27568	-512	-4032	-2188	25118	-5091	-32708	708	-13124	-19285	-9732	734	-11360	5728	13344	-1696	-43	-1796	-15868	2404	-9288	14470	11133	3352	-22128	7008	-6856	1037	9246	9395	120	122	1
-2500	-4636	27564	-9827	32767	20589	-23728	-88	-8260	-1871	18041	-4791	-32768	6012	-6792	-12815	-17455	452	-9284	2996	13952	-649	-46	-1353	-16992	5096	-9076	9633	8667	3358	-17436	2924	-5100	3273	10689	3554	120	117	1
-31984	-15992	32767	-23344	-179	6368	-17020	-1224	-10456	-7971	9154	-2355	-29452	2664	-9496	-7083	-18567	809	-9272	1916	14224	66	508	-1003	-16992	2968	-7688	2953	7234	2296	-15852	2336	-1904	2480	10532	2688	118	125	1
-556	-18992	24548	-15241	-21596	1680	-15784	60	-2320	-12185	1385	-4366	-29724	3760	-9792	-2450	-20090	1353	-9272	2664	14012	987	1076	-245	-16916	3872	-6764	-5253	6156	1588	-17612	716	-1708	-56	12869	1780	125	122	1
4828	-12348	13880	-4153	-26019	-1722	-9552	-4448	-2792	-7963	-7587	-4594	-23056	3880	-10696	-5017	-19214	459	-9616	3032	13664	1260	1550	-156	-16920	-240	-6756	-2645	4548	2365	-16768	968	-2092	1314	13539	1224	125	123	1
4636	-5964	10288	-833	-24878	-6697	-6400	-3336	-3340	-83	-15429	-2728	-17804	2280	-11288	-7317	-19624	-726	-9732	3520	13544	1276	1641	195	-15820	1916	-6268	4487	3214	2539	-16440	2112	-2488	3308	14091	779	138	125	1
-576	-4684	10692	-1331	-25599	-10711	-6288	-996	-4224	4654	-21344	-1008	-15344	236	-11772	-6391	-19060	-2397	-9688	3720	13160	1156	1604	366	-15884	3008	-5020	6710	2392	2295	-16432	3436	-1712	1741	14799	823	134	135	1
-4944	-3736	12444	-760	-30034	-13030	-6212	-1204	-5692	6414	-26165	504	-13236	-424	-11324	-3839	-18148	-3410	-9556	3560	13264	1052	1673	378	-15932	2796	-3520	6852	2208	2201	-15512	2460	-160	934	14473	1044	130	138	1
-7220	-2012	13312	-743	-32768	-14952	-6552	-1216	-5996	7098	-30808	2367	-12732	-1224	-12612	-1770	-19842	-4466	-9660	3600	13124	891	1617	360	-14928	3800	-3228	4124	2509	2210	-15760	636	516	1823	13961	1222	134	131	1
-9248	-1688	13860	-1095	-32768	-15888	-8056	-1260	-6376	7793	-32768	4414	-8944	-2708	-13428	4495	-18007	-4405	-9664	3640	12904	645	1385	153	-14576	3332	-2884	2508	2924	1896	-13856	1664	968	4032	14091	-228	135	130	1
-11828	-1076	15432	-1860	-32768	-15502	-8356	-4132	-7232	8630	-32768	6046	-5644	-1416	-12704	7120	-16677	-3580	-10148	3992	12788	88	990	-479	-10912	4276	-2812	3845	3491	1246	-14020	2376	816	6938	13327	-941	137	128	1
-16360	-792	17528	-5680	-32768	-15038	-11788	-628	-7700	7222	-32768	8545	-5284	-1040	-14076	10180	-14397	-3256	-9904	4044	12608	-356	318	-936	-14928	3928	-3208	4288	3967	1705	-13980	3944	-152	8571	13022	-671	136	130	1
-16708	-1364	17540	-10415	-32768	-13422	-16440	-704	-7264	3485	-32768	9649	-3920	-228	-15872	13357	-12933	-3872	-9560	3640	13032	-681	-189	-1322	-15348	4008	-3288	4471	4033	1750	-13776	3756	580	8525	14548	963	130	127	1
-22484	-1524	19260	-17167	-32768	-11464	-21824	-1124	-9860	1241	-32768	9208	-3104	2468	-13532	15558	-9570	-4702	-9544	3716	13220	-700	-91	-1854	-16416	2224	-4404	3753	4663	1314	-13668	1204	1540	7946	16732	1705	127	131	1
-32768	-4656	26836	-19630	-32768	-12691	-28620	-872	-13992	-975	-32768	9558	-3212	3220	-1988	14657	-11663	-4936	-9524	3196	13328	-761	298	-2394	-15916	356	-3524	6424	5024	1776	-15456	-192	-124	9994	19710	1164	128	124	1
-32768	-12732	28240	-15027	-32768	-16136	-32768	-1896	-11912	389	-32768	9023	-10300	4964	8736	6244	-18228	-1533	-9348	3348	13664	-551	803	-2444	-14784	2752	-1012	7295	6308	1827	-18716	3740	-1672	8383	14329	-416	131	126	1
-32768	-11072	17652	-6858	-32768	-22368	-27600	-4160	-17904	-5655	-32768	6118	-19804	3784	12012	5838	-12971	1458	-9156	3728	13760	-386	2042	-2651	-15656	5480	-396	2032	8412	1363	-19692	8032	1608	1563	8692	-42	125	126	1
-32768	1992	8496	-5568	-32768	-23783	-18792	-7868	-18304	-3241	-32768	3470	-15088	3716	11828	5291	-7170	253	-9584	3240	13928	-121	3831	-3014	-16084	2744	-936	-607	10840	666	-18212	7544	5648	54	9337	1511	134	125	1
-32768	9084	-5784	-6032	-31975	-14449	-20068	-3012	-18388	-3419	-28893	44	-11124	10168	25492	7912	-10235	749	-9452	2976	14272	199	6114	-2734	-16196	2828	-1148	-66	13035	181	-17040	5508	5308	2579	11544	830	125	126	1
-32768	32767	-32768	-11324	-16804	-513	1380	-2468	-23340	-10572	-9748	-7379	-15496	14948	32767	13639	-4819	-2456	-9480	3048	15024	519	9420	-2722	-17072	4156	-2332	-3024	15650	-345	-17544	4940	3236	2470	10307	63	123	127	1
-32768	21056	-22096	-1705	5125	9371	-3472	-11488	-25336	-1527	12589	-4892	-17940	7428	21344	1829	5528	-7207	-9472	3168	15836	739	14436	-2657	-19256	2124	-2712	-4246	18247	-1041	-20104	4296	2520	129	7786	55	127	126	1
-32768	292	-10384	32574	16709	14666	-15088	-3040	-20548	10083	23698	-4125	-15576	2768	-520	-16388	9808	-6077	-9712	4364	16756	1138	21195	-3543	-21616	-708	-2156	-1242	20421	-223	-22796	3412	5880	1970	4166	-384	119	126	1
11836	-11388	32767	16470	30431	-5187	-32768	26996	22360	26953	20554	2083	-14512	6368	-436	-6356	13820	-307	-9436	4236	18512	931	31333	-4327	-26540	180	-204	1836	23153	-492	-26480	4444	10088	1407	-1561	-824	128	126	1
-32768	21036	16020	10000	32767	-4349	-27312	208	-18112	24625	20746	-1817	-20356	-2972	14940	21625	615	-6672	-7964	5708	19184	2178	32767	-5995	-32080	-5668	3172	2915	25900	-331	-29220	3552	16672	-1908	-11258	-233	125	124	1
-20540	28624	30616	1011	21791	11532	-17104	15652	-9256	11871	22868	-6576	-19756	11476	-20064	26073	10721	-203	-7852	10600	20116	2710	32767	-9828	-32768	-13700	7352	17065	26793	1462	-30904	-4636	32767	-9925	-32768	-6701	120	125	1
-5200	-27000	4932	-744	23210	4394	-15696	-4816	-8548	5844	22015	-4141	-13172	11664	-19332	-144	4296	626	-21308	14772	19720	4331	32767	-23606	-30436	8160	3964	27868	25947	2398	-15336	-21296	-5036	11932	-9436	-12828	112	125	1
-27672	736	17692	7050	18446	7385	-12104	-15680	-12252	5394	14050	-8636	-6652	-3788	-6920	-13075	5659	1596	-32768	11568	16404	-639	32767	-31294	-24232	16932	-11760	13679	26253	4272	-26372	6308	-128	18142	-17357	-6237	130	128	1
-17784	-8028	15184	9615	8984	5194	-22464	520	-12304	4821	12282	-7739	-24112	-8908	-10368	-1440	11576	-7767	-32768	16768	30804	160	32767	-32137	-26788	7184	-11444	1133	24230	2288	-30632	12564	-14180	18818	-13110	-1501	128	127	1
-11396	-688	14680	4324	2367	2839	-23440	2236	-12112	3056	13013	-7003	-22632	-12	-7564	-2166	9642	-7377	-7928	13636	26616	9302	29806	-17527	-23212	3592	-10480	-7350	19589	-269	-31856	4080	-7640	2108	-21076	2288	115	118	1
-9632	-1216	13936	3273	1580	2073	-16360	-1368	-7928	-12379	9541	-3795	-15272	1704	-4444	-3557	11546	-3150	-31916	28160	32767	16285	-227	-6276	-14176	1660	-16824	358	12286	-179	-26876	1244	-7820	-4648	-22951	4033	122	103	1
-9336	-632	13904	1270	1538	677	-18004	-3456	-6640	-3928	6979	-3357	-17308	1556	-2848	-1105	12341	-1551	-2248	22576	22228	1495	-22890	373	-12852	-448	-6872	14658	3169	842	-25968	-780	-5996	-2584	-23563	579	126	151	1
-9304	-580	13744	-241	2053	-86	-18848	-1432	-5632	3010	5880	-2538	-17952	2656	-2560	1217	13380	-2116	7100	9004	11340	-6340	-23459	3178	-9788	3480	-5252	12898	-4810	1653	-23780	4392	-6556	1490	-20435	-438	122	150	1
-9752	-1360	13264	-1041	2480	-416	-17900	-284	-5272	457	4604	-2658	-17700	1112	-2932	-1100	14198	-1222	6880	4444	8540	-3291	-20014	5882	-6004	3416	-4616	3399	-11610	760	-21128	4572	-7804	1254	-17528	148	121	131	1
-9896	-2620	12572	-751	2534	-763	-16804	-1916	-4412	-3760	3806	-2498	-17048	-1664	-2856	-2269	15300	-905	1204	6188	9984	-125	-19211	7580	-4900	3032	-5948	-5564	-17006	-527	-16980	2736	-9456	-330	-16365	969	121	133	1
-9972	-3056	12452	267	2092	-838	-16732	-3212	-3408	-6571	3441	-1876	-16772	-3324	-2092	329	15243	-1622	-3700	8212	12608	-240	-23570	8328	-4960	3072	-7176	-7260	-22310	-685	-14872	1704	-9580	-1937	-16323	2313	134	133	1
-9736	-2248	12544	733	1706	-918	-16468	-3676	-3096	-5111	3269	-1575	-15536	-52	-988	2535	14305	-2437	-7924	7800	14176	-1325	-30537	10395	-5368	2512	-7580	-6835	-27186	-1206	-11848	3392	-9524	-4589	-15970	3031	135	126	1
-9600	-1944	12624	767	1474	-937	-15664	-2296	-2764	-2051	3378	-1480	-15096	1628	-344	1218	15003	-1973	-9452	6612	13716	-22	-32768	13678	-7024	2184	-7784	-6838	-31236	-2277	-11068	3284	-8444	-5261	-13392	3242	137	130	1
-9460	-1996	12540	568	1341	-883	-15688	-1888	-2168	-995	3683	-1373	-15188	1496	-132	-2709	14139	-1541	-10140	6796	13196	1615	-32768	16698	-9160	1084	-8332	-6046	-32768	-3480	-8108	2908	-9408	-6684	-10621	2274	136	136	1
-9588	-2788	12392	602	1000	-255	-15740	-1696	-1880	-2088	3832	-1468	-14764	1564	380	-7783	13789	-1950	-13788	7788	14184	2185	-32768	18554	-9576	608	-9160	-5216	-32768	-3617	-7944	1008	-10632	-8152	-7377	1006	131	136	1
-9500	-2336	12288	631	808	386	-15840	-2068	-2056	-4423	4219	-1563	-13796	100	1528	-12520	12894	-1839	-18592	8084	16852	2633	-32768	19976	-11352	1472	-10048	-4832	-32768	-3128	-6408	-584	-11108	-10311	-4568	272	127	137	1
-9540	-2248	12392	740	685	991	-15916	-2700	-2568	-4765	4800	-1348	-13776	496	4176	-7434	14196	-2927	-22796	8996	18660	5263	-32768	21874	-14184	2756	-10328	-6022	-32768	-3054	-4072	-1204	-11472	-14445	-1239	1138	125	127	1
-9616	-2032	12504	745	812	1418	-16484	-1380	-2524	-3941	5492	-1265	-14552	2732	1752	-5654	18320	-4650	-24912	9036	18808	9962	-32768	23937	-18384	3012	-10732	-7669	-32768	-3283	-2068	-1780	-11160	-16931	99	2264	124	122	1
-9476	-1448	12748	662	1058	1671	-16172	468	-1888	-4722	6387	-1467	-19304	3136	-1492	-7769	15581	-2873	-27860	12776	22148	11342	-32768	24671	-25804	5272	-15704	-4654	-32768	-4209	-5252	-1776	-5340	-15078	-594	3058	123	126	1
-9372	-1244	13056	509	1728	1661	-15320	336	-1556	-5476	7474	-2214	-17920	232	532	-4710	7392	-1038	-32768	16848	24604	5046	-32768	26744	-24796	4300	-17736	-4649	-32768	-3597	-12344	944	424	-9549	-7541	3017	127	125	1
-9392	-820	13256	265	2818	1134	-15952	-2136	-1628	-3716	9053	-1922	-16684	-3140	4600	-4296	8093	-270	-32768	7320	17000	1997	-32768	30526	-21028	4400	-20028	1570	-32768	-2148	-16812	3500	4876	-4018	-5742	2241	129	120	1
-9512	-2084	13208	46	4090	1145	-16688	-2568	-1124	-1692	10727	-1188	-16144	-2396	5168	-4712	12153	-910	-32768	516	-3564	3829	-32768	21662	-22652	3676	-18324	4376	-32768	3753	-19248	-4088	16448	-9697	-9667	4046	125	133	1
-9476	-1872	13880	29	6046	1590	-17012	-1456	-36	-1382	12688	-1128	-18092	-804	6168	-2752	12520	-849	-32768	-29172	-29620	25217	-24009	4422	-6092	96	-19984	9477	-20425	11831	-23828	-17964	32767	-7108	-4226	9563	128	126	1
-9228	-456	15140	-259	9506	1103	-18456	-740	-728	1532	15204	-779	-19476	-1560	7932	317	11348	-626	-32768	-26100	-31380	22220	-3575	-6075	4512	12716	-20064	14225	4343	8790	-26412	-2268	25496	14580	-1359	-452	128	131	1
-9384	-128	16552	-859	15279	21	-21300	-128	-1356	5039	17751	175	-21628	-1124	7248	1668	7896	463	-32768	-4580	-18936	-31914	17936	-19617	-9460	10268	-22668	486	20113	3568	-17288	10908	1288	21780	-4872	4220	129	128	1
-9280	-2948	17152	-1539	22406	236	-23592	1788	-44	4625	20220	-271	-22756	1732	8924	13	2577	1692	-780	848	32767	-26530	25678	-6430	-23788	436	23976	-18793	20580	-2323	-13592	11720	-3812	18728	489	7713	129	134	1
-8804	-1804	19004	-2326	32141	732	-26360	4212	1108	604	22661	-1286	-24760	896	15224	-1185	-3906	3720	-22756	-16740	14204	-14049	32767	-9420	-32768	2836	-14404	-32768	23812	-4959	-23492	11508	9532	-26716	-4409	9029	128	131	1
-4880	1828	22000	-3384	32767	-1012	-32768	10480	5300	-641	25576	-1147	-28208	5728	26128	-3499	-19903	5528	-32768	-28600	32767	-3227	21152	-11057	-13636	-32340	-15004	-27002	26042	3233	-14528	-18868	10528	-26243	16171	2328	131	120	1
-7484	-8908	23300	-1514	32767	356	-32768	15224	10736	-15465	26108	-2773	-23312	16960	25352	16945	-7805	7698	-10204	31512	9664	899	18427	-7336	-12632	7492	-7844	6497	23849	4967	-15580	-24700	-25488	-14401	6182	-5083	129	124	1
-32768	-9008	17604	-3160	32767	11493	-30512	-14096	-1748	-19309	27075	-1093	-15308	14188	3648	-22361	-3913	10042	-23760	-5152	18108	-10614	9724	-13322	-14676	19936	-13964	-5435	17216	9198	1436	10468	-10308	23404	1123	-3650	131	104	1
-32768	-18712	24776	3598	32767	22901	-32364	-13208	-8132	-2518	28535	-2856	-28080	-7700	-8728	-21926	-3459	4655	-16048	5896	15292	-6398	-656	-6990	-17480	-4176	-18464	-5836	14627	4682	-18532	9112	-10336	8243	13139	4500	123	117	1
-27144	-16120	32767	5121	32767	26103	-27916	1640	-5640	5076	25454	-3591	-32768	-104	-12240	-13384	-12690	1045	-11580	1936	14456	-1286	-1082	-1808	-18692	-4004	-11412	18480	12494	3374	-25180	8412	-11492	6481	10979	9812	124	114	1
-6712	648	28808	-10586	32767	13465	-22492	-1544	-7880	4543	16582	-2342	-32768	4656	-6072	-5818	-18185	217	-9792	2588	14304	-521	-761	-1432	-16144	6148	-10080	17522	9983	3979	-21916	2120	-6724	6385	9699	3266	116	116	1
-23420	-18988	32767	-21214	-8493	3792	-17460	372	-8224	-7703	7798	-579	-31400	2304	-10224	-3143	-19778	1814	-8420	2308	14432	161	129	-838	-17336	5948	-7676	1459	8278	2825	-14348	2860	-2964	4348	9873	1803	120	129	1
1080	-15344	20644	-11991	-26219	3973	-14360	-2364	-1268	-11677	-351	-2425	-29080	2876	-10440	-1618	-19259	2132	-9896	1980	14088	1113	890	-165	-16816	3444	-8364	-9647	6810	1472	-18152	1840	-3072	1332	12715	1420	122	123	1
1944	-15080	19044	-9921	-27549	4112	-8116	-6892	-2432	-6661	-9642	-2685	-23084	2164	-11168	-3263	-18147	1431	-9332	2692	13868	1513	1479	180	-17420	-1600	-7788	-3576	5060	2544	-16820	1648	-3096	1676	13966	909	135	120	1
2960	-6264	8688	268	-29253	1379	-6288	-3808	-3368	1593	-17219	-822	-16412	2568	-11360	-5375	-19335	-194	-9640	3460	13528	1565	1648	779	-15984	1524	-7096	5812	3366	2657	-16864	2884	-3520	3114	14616	299	137	119	1
-808	-5548	9420	-2800	-29499	-2721	-5800	-908	-4392	5108	-22776	804	-15544	1104	-11412	-5947	-18721	-1494	-9544	3992	13368	1250	1585	583	-15536	4644	-4968	6671	2560	2354	-16224	3992	-2044	2382	14714	391	126	129	1
-4368	-6476	10808	-5075	-32053	-7135	-6940	-596	-5508	3726	-27744	2086	-13804	-240	-11928	-2913	-18818	-1999	-9360	3740	13304	957	1522	159	-15776	4060	-3436	3991	2621	1977	-15572	3324	564	784	14768	1132	130	138	1
-8068	-6672	12592	-4396	-32768	-11344	-7312	-1472	-6116	2791	-32235	3115	-10388	-2324	-11112	-26	-19348	-2607	-9476	3524	13344	658	1549	-104	-15040	3496	-3228	1671	2988	1997	-15644	668	552	1001	13824	1546	139	131	1
-10752	-5060	14112	-3348	-32768	-15254	-8144	-2112	-6736	4521	-32768	4337	-7720	-2068	-12200	3972	-18648	-2717	-9300	3516	13228	432	1537	-393	-14504	3184	-3300	935	3326	1704	-13992	816	752	4178	14693	256	141	131	1
-13600	-3320	15996	-4158	-32768	-18155	-10188	-1060	-7084	5245	-32768	5932	-5304	-2076	-12068	7011	-16646	-2650	-9556	3620	12984	87	1352	-897	-14992	2860	-3148	3175	3586	1717	-14392	1012	-72	9141	13537	-309	142	127	1
-15820	-2860	17172	-6060	-32768	-19406	-13148	-1156	-7228	3094	-32768	7209	-5428	-1468	-13068	9516	-13883	-2729	-9588	3628	12944	-261	1072	-1491	-15216	3220	-3424	5410	4034	1857	-13068	2252	1300	11182	14489	170	140	128	1
-17108	-2660	17736	-9721	-32768	-18086	-17504	-1772	-6772	2786	-32768	8201	-4280	-884	-14700	11251	-11635	-4220	-9536	3416	13128	-377	988	-1827	-15340	3240	-3948	5327	4478	1666	-13592	2804	3616	8755	16675	1363	125	129	1
-23436	-2844	20376	-14199	-32768	-15874	-21920	-2648	-10060	2547	-32768	8541	-3248	1052	-12760	12971	-8541	-5652	-9564	3164	13312	-386	1366	-2128	-15820	1708	-3316	5263	5160	1594	-16036	4156	-792	11542	19613	461	126	126	1
-32768	-6280	26824	-15032	-32768	-17540	-29456	-2692	-13584	2671	-32768	10120	-3500	1316	-2408	14054	-12193	-6101	-9604	3060	13632	-369	2154	-2440	-15412	1896	-2392	6023	6269	1588	-19496	5340	-3280	9680	15058	-745	126	125	1
-32768	-15616	27524	-7153	-32768	-19696	-32768	-3980	-13112	3602	-32768	10292	-11692	3012	6360	6894	-17467	-3103	-9528	3020	13932	-132	3461	-2598	-15328	3696	-2040	4117	7918	1498	-18564	6844	-532	1336	8096	-864	131	127	1
-32768	-11716	14800	300	-32768	-25120	-32768	-3928	-14432	2550	-32768	9906	-19556	568	7036	10002	-8852	-1554	-9588	3148	14000	98	5220	-2500	-16408	3700	-2152	1373	9932	635	-16980	7192	4240	695	9750	-339	126	129	1
-32768	-3056	3356	-1990	-32768	-24079	-20780	-6112	-17976	1227	-32768	4028	-14916	6044	14656	6601	-11589	1607	-9688	3184	14072	154	7184	-2720	-15452	2176	-1220	1232	11986	518	-16484	5008	5956	1959	11485	-142	129	127	1
-32768	14400	-19144	-8728	-30000	-9263	-16208	-1300	-20360	-4554	-25882	-4286	-12244	18816	32767	11745	-8749	1535	-9808	2972	14444	474	10099	-2756	-16508	3344	-804	-345	14737	134	-17924	3772	6900	2271	11033	1	140	126	1
-32768	32767	-32768	-17352	-9629	6419	5412	-8680	-23496	-16207	-2364	-9685	-16776	9880	32767	11434	-1224	-3462	-9892	2460	15468	623	14573	-2753	-18700	2720	-1684	-2992	17798	-498	-19272	2468	6352	1031	8448	506	151	123	1
-32768	18716	-15200	4490	5347	16352	-6280	-10472	-24940	-1004	16615	-5019	-18452	5356	7728	-1818	10454	-7408	-9868	4636	16280	731	20998	-3250	-21504	-652	-1020	-2010	20601	-402	-21684	2484	7528	1619	5839	-29	130	122	1
-5912	26328	10396	25804	21285	13169	-19980	5496	10100	18062	26532	-3444	-13808	6724	1680	-21785	15628	-4233	-9300	4108	17404	630	30326	-4671	-24840	-1916	-512	1288	23400	572	-25256	3520	10968	3806	187	-1569	124	126	1
-9064	3084	27984	13190	32767	1188	-32768	9504	-4644	30810	20929	3697	-20820	5440	14120	13799	2575	-6042	-8720	4704	19272	1549	32767	-5314	-32768	-4344	1524	3949	25996	153	-29784	4624	15312	115	-8723	-1431	129	124	1
-30512	29872	32767	6405	30348	2657	-14372	20812	-8896	22027	23687	-2198	-15576	3788	-4892	18547	7569	-1954	-8084	10312	20076	2448	32767	-8547	-32768	-12788	6316	13826	26788	1885	-30728	-1852	27776	-4740	-27174	-4541	124	122	1
-5292	-8904	9856	-3778	21192	9038	-17856	10408	-14688	5891	22603	-6742	-14952	16272	-28588	4981	2945	-2986	-20948	16524	20084	4329	32767	-22842	-32272	6528	5560	27338	25420	3076	-15156	-21956	-5548	10761	-10858	-13294	122	127	1
-23012	-2972	15044	-149	21779	3881	-13344	-13492	-12188	-3118	15510	-9033	-6956	-756	-12364	-20381	5371	4073	-32768	11284	15808	-739	32767	-31912	-24660	16424	-10520	13841	25985	4782	-25256	6048	1244	16523	-17408	-6628	126	125	1
-21292	-13948	12572	7502	10613	5157	-20672	-11792	-13872	246	11154	-11108	-22656	-15036	-13460	-6667	11953	-3389	-32768	16500	23484	-24	32767	-28710	-27212	4528	-10436	6426	23152	1521	-30832	12284	-13440	19389	-12708	-2684	136	129	1
-14692	-992	15568	4403	4792	3537	-20216	-224	-9412	-1569	13758	-4140	-25472	-5420	-8060	2168	8268	-8064	-23604	18164	28504	12566	32767	-14272	-22584	3260	-12184	-3324	18540	-1985	-32440	5148	-10092	1989	-20031	2149	109	123	1
-8940	-788	14368	3357	2665	1577	-16200	-2748	-7228	-4627	9969	-2773	-14892	1232	-4936	3841	9992	-4230	-32768	32767	32767	5957	2379	792	-13204	7240	-19588	-461	13289	-1694	-27980	1464	-7172	-7079	-23536	3920	118	108	1
-9112	-1312	13564	2399	2180	597	-17560	572	-6312	-5066	7344	-3208	-16024	3216	-2640	1288	11657	-2057	-3196	18328	21208	-7254	-18125	10955	-14216	-1612	-7724	9688	4124	-1215	-27736	2372	-6748	-5148	-23539	1583	118	117	1
-9308	-540	13960	1027	2333	-112	-18908	-1672	-5396	-2172	5982	-2488	-18220	3632	-2284	140	12472	-1994	6432	7260	10472	-9952	-17946	14856	-9420	2988	-5880	10834	-3776	-1338	-24224	4456	-7280	-1536	-20377	597	117	159	1
-9844	-2396	13256	317	2532	-595	-18372	-1028	-4992	-385	4821	-2604	-17392	2644	-2148	-918	13697	-1725	5160	3076	7788	-9499	-14410	14342	-5652	5568	-4656	696	-10747	-1656	-21440	3820	-8352	-1295	-18175	919	117	136	1
-9720	-2404	13056	107	2322	-954	-17192	-32	-4392	-3814	4096	-2637	-16488	1644	-2016	-3922	14874	-931	128	3044	9848	-8576	-15072	10295	-4028	5824	-6552	-12257	-15892	-1699	-16048	-1012	-9532	-2076	-17074	1167	119	134	1
-10104	-2740	12492	264	2203	-1220	-16620	-2036	-3876	-6809	3425	-2276	-16356	-2284	-1416	-2429	15314	-952	-4684	3536	13152	-7048	-22528	5188	-3720	3284	-8016	-12899	-21218	-1500	-13048	772	-10156	-2927	-16948	2499	131	133	1
-9812	-2804	12560	546	1777	-1232	-16332	-3164	-2800	-6212	3239	-2036	-14956	-292	408	1303	15257	-1459	-8104	3220	14332	-3291	-32768	2058	-4076	1420	-8276	-8771	-26477	-1996	-11600	2940	-9844	-4733	-16195	2967	133	123	1
-9596	-2240	12520	536	1563	-1223	-15920	-2608	-2252	-4356	3611	-2059	-15524	352	604	-598	15158	-1865	-8400	3448	12820	1907	-32768	1584	-6204	412	-7808	-3842	-31000	-2851	-9892	2764	-8924	-6566	-13821	2668	133	127	1
-9600	-2504	12352	416	1263	-1083	-15368	-2300	-2052	-2926	4018	-1760	-14660	636	1048	-2067	14461	-1852	-10808	5212	12416	6466	-32768	3151	-7652	-336	-8308	-2221	-32768	-3383	-8468	1596	-9084	-6740	-10673	1493	132	132	1
-9448	-2992	12180	391	901	-455	-15696	-2648	-1648	-3375	4313	-1593	-15072	-728	720	-4956	14332	-1631	-15552	8404	14136	8269	-32768	6064	-9068	-504	-9576	311	-32768	-3151	-7712	448	-10388	-7767	-8092	209	131	136	1
-9408	-2776	12052	685	484	378	-15820	-3200	-2152	-4026	4575	-1436	-14744	-1048	-508	-10633	13909	-1994	-18628	9868	15712	8153	-32768	10065	-11236	-44	-9800	3521	-32768	-2244	-7140	-1276	-10572	-8859	-5784	-848	130	139	1
-9708	-2648	12452	828	330	920	-15924	-2852	-2612	-3131	4838	-1070	-14136	-1228	1288	-10655	14448	-1615	-22176	11264	17028	7951	-32768	14851	-14028	2052	-10040	3422	-32768	-1222	-5072	-2000	-10512	-11009	-2551	-452	127	133	1
-9656	-2404	12640	833	529	1433	-16848	-1288	-3316	-3085	5242	-921	-13328	1936	2048	-2611	17017	-3662	-23520	9888	16156	8932	-32768	19158	-18204	3024	-9552	-45	-32768	-637	-3424	-1816	-8716	-11850	1313	1599	126	127	1
-9540	-1988	12700	637	844	1640	-16780	-256	-2796	-4006	5770	-1098	-17372	4656	-836	-6599	17978	-4505	-27164	12112	19084	10240	-32768	20147	-23412	6192	-11692	-5643	-32768	-127	-3544	-640	-7472	-11263	1175	3592	123	123	1
-9388	-1724	12792	461	1390	1753	-16184	1200	-1592	-5787	6562	-1671	-18796	3704	-1284	-8253	11483	-1160	-32768	17220	25984	5305	-32768	22307	-28884	9028	-15132	-11064	-32768	-1759	-12824	296	1008	-9857	-4107	3591	121	121	1
-9256	-1224	13068	183	2240	1514	-14960	-564	-1200	-6150	8141	-2165	-18656	3084	-584	-7917	10012	-822	-32768	12460	22336	-1851	-32768	30601	-24464	2348	-17192	-11072	-32768	-4323	-18520	4408	9216	-9643	-11298	4408	125	119	1
-9424	-1712	13116	-394	3531	803	-16232	-3588	-1592	-2507	9608	-1327	-15944	-3168	4592	-3716	10704	-570	-32768	7240	4552	-5549	-32768	32603	-19936	-1584	-17716	-1470	-32768	-1810	-15108	1176	11500	-11261	-6133	4195	126	119	1
-9320	-2552	13224	-539	4948	1103	-16424	-1988	-356	-614	11629	-924	-17236	-2280	4556	-2101	14055	-942	-32768	-25972	-22124	11809	-29250	18224	-12288	-3100	-16320	7088	-26015	8480	-20188	-11720	32767	-12257	-6346	2714	128	125	1
-9340	-1368	14228	-872	7248	1056	-16692	-1428	-416	788	13853	-671	-18832	-3212	6596	301	11227	-44	-32768	-32768	-30024	32767	-13217	-670	2312	15804	-15672	17334	-2797	8811	-28104	-9308	32767	-668	-3560	-126	128	133	1
-9404	-1028	15780	-1318	11417	35	-19864	-2480	-1176	4837	16406	492	-20104	-3200	6168	2983	9247	205	-32768	-13212	-17764	-10925	3676	-15085	-6144	9856	-20132	2515	15191	3291	-17240	2928	9908	10840	-5809	1941	124	124	1
-9588	-4084	16516	-1181	17475	540	-22976	296	-1008	5952	18330	494	-23280	956	6888	2601	5696	1012	-30744	-3044	-8984	-27899	15665	-20759	-6924	7448	-20756	632	17199	2690	-13928	6428	-2812	20011	-158	7189	127	118	1
-9324	-2076	17136	-1739	24863	1401	-23408	5104	-440	1908	20629	-932	-23376	3904	10896	-751	2105	2706	21532	4236	32767	-17469	28389	-2201	-32768	-17960	21160	-25824	18046	-4179	-9984	2536	-3416	13653	806	7081	129	125	1
-7676	-1760	20004	-2611	32767	-325	-28816	6132	2160	-2253	23923	-770	-24788	4800	17332	-3840	-4839	3016	-32768	-14080	10924	-13691	32767	-3191	-27464	3028	-21176	-32768	23387	-897	-30204	11256	18460	-32768	-9513	9541	128	140	1
-5980	-8088	20624	-3725	32767	-2453	-32768	9116	8656	-2313	26138	-573	-27308	9896	30692	-765	-21646	5078	-24808	-24280	32767	437	20033	-16044	-14860	-23724	-12292	-19463	25073	4534	-22464	-17472	-11160	-11673	24151	-2622	130	90	1
-13104	-11344	22480	-3878	32767	3153	-32768	5240	10064	-15415	25295	-2045	-18452	16576	9256	9526	2828	6066	-18924	32767	13340	-6609	20850	-7602	-14288	9308	-9768	9913	20995	6275	-15992	-19356	-16748	1552	436	-1248	124	141	1
-32768	-10820	21116	-5915	32767	14941	-30656	-17792	-5880	-14753	28268	-1452	-21136	4928	4612	-24219	-4078	7867	-21064	-7416	23356	-8972	6253	-11662	-14264	13880	-17268	-2897	17099	10004	-360	12104	-10980	23921	4043	-1791	130	134	1
-32768	-17760	29384	2954	32767	27060	-32768	-8004	-2984	-530	28203	-3990	-32500	-6888	-13724	-16951	-5124	2785	-13444	-4952	17864	-3783	-822	-5401	-16204	-1740	-17000	-779	14668	4422	-21640	12128	-10992	8685	14645	5700	126	126	1
-23880	-12112	32767	-324	32767	27705	-26324	1924	-8244	4772	23338	-4971	-32768	2808	-10540	-9789	-16612	251	-10016	2696	14020	-660	-995	-1615	-17968	864	-11076	17705	12127	3173	-22416	8672	-9440	4133	8307	8824	117	101	1
-29140	-2100	32767	-17827	22568	10418	-19268	-768	-12896	3506	14404	-1204	-31592	3672	-7076	-5476	-19598	79	-9516	3128	14272	-415	-585	-1210	-16604	5856	-9176	9776	10030	3020	-20676	4536	-6296	4084	11326	3678	115	109	1
-7796	-23448	32767	-19461	-17961	201	-17516	1448	-2828	-8691	6367	-1351	-31168	3888	-9716	-1979	-20175	2084	-9280	2164	14208	379	370	-791	-17192	6028	-8844	-4109	8357	1719	-16000	2552	-2844	-56	11034	2321	119	135	1
5860	-16720	18900	-2378	-27712	-481	-13248	-2920	-1348	-10749	-3025	-2876	-28960	4644	-11484	-2083	-20023	1772	-9200	2804	14056	1190	941	-305	-17252	-180	-8388	-10195	6491	1512	-17772	-640	-2980	-1864	14453	1743	119	125	1
6576	-6448	12328	5935	-27921	-1745	-6640	-5308	-2736	-4030	-12929	-2191	-22000	3612	-12080	-5775	-19968	699	-9364	2448	13856	1348	1465	258	-16552	-1556	-8048	-2685	4760	2467	-16936	-528	-2768	828	15214	320	134	115	1
1976	-3020	10908	2610	-28306	-4449	-6028	-2048	-3828	3296	-20398	208	-15684	3016	-11852	-6620	-20074	-1576	-9348	3428	13616	1429	1649	747	-15844	2224	-6744	4454	3250	2847	-16724	3236	-3544	2317	16046	-233	136	123	1
-2216	-2712	12336	-2741	-31162	-6548	-6916	-616	-5104	5176	-25900	1605	-15960	632	-12048	-5600	-19104	-2337	-9416	3896	13380	1068	1651	277	-15708	4468	-5000	4467	2592	2511	-16232	4804	-1988	994	16140	454	131	121	1
-6688	-3676	13684	-4945	-32768	-8049	-7364	-4	-6212	3343	-31250	3018	-11584	460	-13768	-3455	-20705	-2371	-9300	3792	13412	763	1564	-191	-15744	4832	-3620	1858	2588	1974	-13812	7420	-4156	-2123	14354	688	125	136	1
-10076	-3160	14992	-4730	-32768	-9949	-7696	-68	-6884	2516	-32768	3937	-9348	-2264	-12176	2820	-18198	-2371	-9416	3432	13192	510	1621	-561	-15132	2996	-3792	-200	2794	1879	-14612	472	224	-1594	16665	1326	135	131	1
-12236	-1920	16072	-4898	-32768	-12419	-9388	-148	-7272	3033	-32768	5682	-6976	-1384	-13624	3968	-17901	-2907	-9400	3320	13444	297	1510	-756	-14600	1884	-3668	1254	3034	1953	-14620	-852	324	3602	15875	929	135	129	1
-14372	-2212	17200	-5494	-32768	-14139	-11936	804	-7484	1946	-32768	7217	-5048	-864	-13372	7000	-15892	-2345	-9612	3576	12948	22	1410	-978	-14952	3312	-3560	3118	3256	1877	-14044	484	-648	9240	14724	-1121	140	129	1
-16300	-2504	18412	-7104	-32768	-14313	-15184	48	-7776	1108	-32768	8588	-4076	-236	-14740	9498	-13787	-2402	-9636	3436	12916	-168	1037	-1354	-15180	3292	-3952	4668	3503	2062	-13028	2492	2100	10939	15958	86	134	128	1
-20048	-1400	19116	-12789	-32768	-13599	-19668	144	-9016	1120	-32768	8954	-2664	684	-14944	12014	-11239	-3665	-9700	3216	13084	-326	942	-1686	-15360	2824	-4404	4911	3820	1822	-13436	2816	1124	9244	17955	1297	130	127	1
-28264	-4856	23436	-15310	-32768	-13987	-24120	-1360	-11676	725	-32768	9864	-2228	1968	-10196	13081	-9941	-5048	-9600	3016	13292	-424	985	-2007	-15660	532	-3348	7147	4346	1992	-16684	3332	-2152	12394	19942	621	125	127	1
-32768	-14184	31708	-11296	-32768	-17158	-32768	-6024	-13288	3359	-32768	10284	-6140	3488	2180	10234	-18063	-3258	-9564	3104	13344	-414	1123	-2102	-15252	2112	-1480	9015	5634	2159	-19980	4280	-2076	9149	12992	-26	123	127	1
-32768	-16368	23152	-82	-32768	-23989	-30876	-5736	-16308	2921	-32768	9136	-12524	2000	7756	8493	-18339	-390	-9564	2996	13716	-139	2798	-2589	-14916	4744	-500	5913	7836	1760	-18372	7748	2892	2005	7299	-135	126	128	1
-32768	-6140	8544	3646	-32768	-29120	-20304	-7848	-18924	5625	-32768	8382	-16304	1136	7868	10521	-8196	-1070	-9620	3092	13688	-142	4483	-2675	-15788	3576	-752	1937	10350	879	-16692	8108	6828	2535	10155	673	124	126	1
-32768	-5764	6540	3432	-32768	-28771	-22260	-5172	-17996	5920	-32768	3981	-15960	9292	25540	12727	-15875	2337	-9684	2864	14204	-8	6321	-2680	-15272	2868	-732	1046	12930	399	-15216	5700	6288	3847	12518	580	130	124	1
-32768	32767	-32768	-12128	-19391	-3009	-2236	-2664	-23924	-8214	-14740	-8040	-14404	19020	32767	22424	-5112	799	-9780	1996	14792	341	9462	-2659	-17020	3780	-1780	-1446	15717	-215	-18136	5068	4684	3368	10898	319	111	125	1
-32768	20952	-28524	-8344	2392	10226	-332	-12700	-26008	-9005	9379	-6630	-19656	11692	24736	6829	3256	-5850	-9512	3252	16184	584	14755	-2690	-20556	2680	-2112	-3657	18548	-1051	-20884	4596	3144	803	7983	295	134	121	1
-32768	-11844	-2336	17352	12698	17934	-13628	-8308	-19100	5878	22195	-4650	-13784	4948	-200	-18376	11437	-4222	-9556	4504	17048	278	22324	-3961	-22764	-992	-1716	-655	20806	-339	-23440	3740	6356	2531	5492	-365	128	119	1
7760	1228	32767	14789	32767	-4372	-29296	18672	19388	29731	23304	-222	-13672	1280	1348	-10705	9381	-3229	-9260	4084	18404	-181	32309	-5226	-26248	-712	-516	2513	23338	-29	-26376	4352	9968	3482	-382	-1580	121	124	1
-31276	4632	18832	10855	32767	-7662	-32768	-3460	-15020	32751	20540	-2020	-21744	-7840	13460	16866	702	-8415	-8648	5332	18440	-201	32767	-6921	-31164	-4044	2756	3119	25896	-169	-27624	3640	15692	-395	-8666	-1189	128	128	1
-24548	29736	29396	3685	28697	7026	-14452	13332	-9668	21218	21894	-7129	-18680	11896	-14016	32767	7774	-3679	-8648	5172	18548	102	32767	-7371	-32768	-11884	7944	14265	26834	1677	-30520	-2148	32640	-6480	-29061	-4725	127	125	1
-6056	-20928	5884	-1839	22538	8811	-18508	2596	-10740	13212	20731	-6129	-16580	13652	-20672	9903	3708	-4993	-9688	14328	20720	607	32767	-12407	-32768	7112	5200	27858	25544	3730	-16068	-23204	-5236	11685	-11769	-13042	135	125	1
-32768	-960	18188	8644	20934	7454	-14924	-17120	-13316	5051	14542	-9454	-5708	-868	-6260	-10939	4982	1513	-32768	9608	20576	-2114	32767	-32768	-23916	15432	-9692	16558	26386	6518	-25736	5044	-288	16125	-18858	-6504	111	132	1
-16340	-6816	15936	10391	8209	6301	-14964	-19272	-15364	4080	14594	-10335	-21744	-6860	-11076	-1888	10902	-8009	-30516	15100	24192	-2106	32767	-32424	-27620	4488	-10500	8672	22727	3134	-31756	9720	-14284	20958	-14257	-1869	119	128	1
-12732	-3508	14284	4138	2282	1925	-19240	7628	-9388	-8272	14888	-5069	-25032	-256	-9580	-2700	9728	-8607	-20488	11928	28764	12606	32767	-18080	-22692	1120	-11668	-1744	18179	1368	-32768	108	-8516	6386	-21725	2152	111	122	1
-10052	-1296	13376	2599	1284	1154	-16900	-3160	-8800	-16623	10142	-5020	-16140	724	-6480	-3347	11204	-3827	-14208	8616	28964	16225	31575	-17232	-13372	5016	-19440	2602	11002	1385	-28844	-320	-7420	-1964	-25438	4353	115	118	1
-9504	16	14308	1064	1462	192	-17980	-4280	-6548	-8539	6733	-4540	-16008	1604	-2436	-748	11954	-2311	-5236	22268	22644	5130	-25877	3098	-13464	-1188	-8060	15920	1323	3531	-28916	820	-6784	1544	-24832	1556	127	112	1
-9048	-500	13644	-365	2127	-827	-18996	-4344	-6140	4058	5939	-3836	-18320	2480	-2844	1472	12803	-2576	6804	10604	10536	-707	-26309	9239	-9284	2560	-6436	15801	-6659	3725	-24336	3724	-7448	6208	-21114	594	122	162	1
-9684	-1544	13476	-1204	2754	-1073	-18760	1488	-5852	2935	4524	-3546	-18228	3500	-3300	-1224	13665	-2065	8096	5440	6316	-1148	-20482	11833	-6244	3656	-4648	5154	-13820	3530	-21292	2204	-8788	6143	-17915	1575	114	134	1
-9668	-1560	12968	-1631	2982	-1630	-16876	728	-5540	-3924	3002	-3520	-16904	148	-3708	-2587	15269	-812	1000	4748	8620	-1193	-16783	10952	-4420	3508	-6160	-7519	-19214	2889	-15912	1684	-10584	3710	-16613	2929	120	135	1
-10080	-2572	12412	-1020	2915	-2185	-16600	-1884	-4436	-8523	2293	-2903	-17484	-1760	-2848	-145	15554	-1459	-5644	5036	12740	-1361	-21716	9714	-3460	1960	-7780	-10380	-24286	2781	-12952	2332	-10780	468	-16247	4049	137	131	1
-9756	-2540	12300	-509	2521	-2149	-16868	-2948	-2884	-8306	2057	-2915	-15372	280	-936	339	14402	-2088	-8620	3248	14668	1429	-29604	10730	-4348	612	-7948	-8189	-28799	1764	-10416	3320	-10804	-3680	-14903	4452	133	125	1
-9740	-1828	12384	-635	2247	-2194	-15632	-2468	-2656	-4919	2466	-2980	-15448	1048	328	82	14708	-2569	-10816	3516	14900	5934	-32768	12965	-6524	1016	-8304	-6749	-32768	426	-8440	2716	-10180	-6052	-12565	3748	134	124	1
-9636	-1896	12144	-872	1969	-2324	-14968	-2108	-1920	-2498	3096	-2523	-15224	1144	508	-269	14534	-2492	-13300	5364	15228	8389	-32768	15810	-8668	1324	-9008	-5843	-32768	-712	-8004	2580	-10344	-7251	-9346	2567	135	135	1
-9564	-2932	12064	-483	1478	-1503	-15596	-2108	-1604	-3387	3102	-2258	-13964	444	1180	-8205	13550	-2234	-16844	7248	15988	7539	-32768	18565	-9984	288	-9588	-5015	-32768	-794	-6260	1040	-11548	-9190	-6956	1316	130	137	1
-9672	-3132	11936	5	884	-453	-15644	-2740	-1588	-6101	3775	-2416	-14208	868	888	-9794	13563	-2500	-19276	7280	16664	6542	-32768	21049	-12056	824	-9948	-4724	-32768	-930	-4928	212	-12528	-11372	-4019	542	129	138	1
-9632	-2712	12128	493	592	299	-15776	-3132	-2176	-6309	4242	-2168	-14204	-1140	3924	-12112	13003	-2425	-22036	6904	16380	8570	-32768	24092	-15956	1936	-9836	-7767	-32768	-1714	-4212	-224	-11944	-17782	429	1733	124	128	1
-9644	-2300	12248	630	439	801	-16152	-2632	-2560	-4802	4931	-1520	-13980	836	2512	-3732	17494	-4477	-22400	6848	16468	9158	-32768	24526	-19700	4368	-11476	-11728	-32768	-3078	-1708	-892	-10296	-19404	3445	4091	122	125	1
-9756	-2280	12532	630	560	1215	-16184	-332	-2384	-4624	5681	-1433	-17852	2656	-1632	-8112	17399	-3504	-32768	12816	25128	4495	-32768	25295	-27232	4940	-16244	-9669	-32768	-4324	-5688	-1224	-3008	-18710	-2195	4736	125	123	1
-9680	-1940	12548	437	818	1528	-15788	968	-2168	-6896	6559	-2095	-18800	1584	-1156	-8332	10465	-1568	-32768	10616	23940	-804	-32768	28254	-25120	4948	-17632	-7427	-32768	-5018	-15736	980	7496	-13077	-12896	4491	127	122	1
-9580	-1136	12932	49	1470	1096	-15700	-716	-1588	-7274	7752	-2321	-16716	-2340	3240	-6289	7948	302	-32768	6496	8540	-294	-32768	29322	-17768	2712	-19920	1068	-32768	-2681	-17548	2000	7944	-6593	-7535	4495	128	126	1
-9332	-1868	13044	-498	2672	685	-16344	-2492	-900	-4417	9398	-1694	-17588	-2004	5580	-5503	10874	-218	-32768	-4180	-9864	5023	-32768	20508	-20408	-1268	-16988	-1454	-32768	5330	-13796	-8516	23628	-10985	-8143	2455	130	123	1
-9212	-2120	13328	-757	4449	857	-16472	-880	432	-2311	11549	-1449	-17176	-248	7540	-3102	13121	-703	-32768	-32768	-32096	32767	-24670	9415	-256	-2464	-16528	19009	-14455	11814	-31648	-18016	32767	-7004	-3846	2643	127	121	1
-9232	-792	14636	-1562	7589	382	-17496	-1600	-76	486	14167	-778	-19324	-2200	8200	1006	14221	-325	-32768	-17780	-23056	10028	-1335	-4242	-1252	18040	-16988	18504	7418	6847	-21632	-756	21760	12051	-1343	-356	126	135	1
-9460	-1776	15760	-2491	12493	-337	-20912	-648	-1012	4357	16753	173	-21372	-716	5692	1909	9521	83	-32768	-17232	-5996	-14386	7554	-16990	-8380	7332	-19432	-4155	20890	1468	-14416	9088	316	19530	-5466	5782	125	127	1
-9632	-3192	16440	-3010	18362	-144	-21648	3052	-1080	2354	18779	-580	-21864	2268	8408	-723	5018	1853	10812	704	18248	-32482	16719	-19020	-19120	2320	8264	-13337	23125	2522	-14004	6580	-2792	18731	1719	7633	127	131	1
-9132	-1568	17704	-3340	26963	-642	-24876	5164	-168	-1751	21357	-1228	-23776	3040	11824	-3719	-483	3594	-5012	-4260	20536	-13952	32767	-5656	-32768	-3396	1032	-32768	20410	-9675	-17932	3944	408	-10948	-3835	5813	131	133	1
-7448	-760	19848	-4683	32767	-3278	-30104	5148	3064	-2647	24196	-173	-26496	4992	20808	-5213	-11137	3225	-32768	-32768	32767	-8105	28833	-7465	-16796	-25880	-17308	-32768	24544	-285	-20488	420	32767	-29638	2860	14326	129	124	1
-5092	-9172	21592	-6209	32767	-4724	-32768	14308	10184	-6528	26112	-646	-27504	10844	32767	10985	-25192	6311	-16616	15440	14524	3064	18157	-11765	-10880	-6624	-9540	494	24643	4242	-24080	-23144	-29536	-22671	12071	-6646	130	131	1
-20480	-11028	20584	-7310	32767	2307	-32220	-1792	8188	-18733	28530	-469	-12812	13048	-8120	-12217	2863	8001	-24640	3848	15364	-10696	16423	-10313	-16712	21556	-15060	-519	17709	8234	-324	-1060	-9304	19746	1491	-3551	129	117	1
-32768	-14668	19476	-11291	32767	11598	-30496	-19544	-5180	-5529	27619	-368	-26228	-2964	-4032	-17711	-2402	4320	-22244	12360	16096	-7850	1757	-7547	-15176	5328	-17724	-9193	14988	6001	-14672	10880	-10092	10228	9697	4140	126	128	1
-32768	-17352	29368	648	32767	26552	-32540	-2044	-6928	6225	26631	-2843	-32768	-1424	-12088	-9969	-9626	1334	-12684	-192	15116	-2126	-693	-2582	-19596	-5420	-14148	7720	12930	2881	-26936	12476	-14300	6381	12469	8963	121	119	1
-17248	-14668	32767	-3587	32767	20022	-25856	-748	-7240	4944	21545	-3510	-32768	5996	-6656	-6714	-19010	1788	-9880	2964	14628	-677	-911	-1373	-16612	5876	-9940	14499	10081	3644	-23084	3156	-6312	3107	9749	6848	119	112	1
-32408	-14048	32767	-11013	6676	4571	-18812	1028	-11504	-564	12417	-743	-30544	1600	-9304	-5615	-19110	1871	-9104	2668	14096	194	-87	-766	-17624	3684	-9116	5812	7762	2974	-15332	3944	-5724	3657	10259	2119	120	126	1
1624	-16324	27280	-8440	-20412	-922	-15784	576	-1732	-9814	4013	-1006	-29636	3364	-10440	-2587	-19831	2415	-9268	2436	13988	1216	863	-134	-17148	5640	-8912	-5366	6157	1497	-17436	1652	-2996	1632	13725	2766	131	125	1
6520	-9944	15836	-837	-24817	-806	-15404	160	-1456	-10366	2598	-936	-25128	3132	-10708	-2152	-18298	1975	-9372	2320	13852	1336	956	-57	-17804	-1016	-8228	-7098	4226	1975	-17548	-1140	-3196	-178	15004	1703	127	120	1
4512	-6096	11064	3231	-25384	241	-7052	-7112	-2864	-2887	-13851	-404	-19632	3728	-11488	-5443	-19229	1146	-9448	3196	13524	2041	1849	748	-16388	-1564	-7164	2979	2419	2806	-16328	792	-3364	2397	15231	139	139	124	1
196	-4176	10676	2032	-27312	727	-6776	-6572	-2948	-1623	-15052	-159	-16072	248	-11592	-6011	-19075	-1622	-9632	3308	13536	1935	2091	1195	-15920	2656	-5560	9072	1168	3276	-17008	2340	-2684	2919	15167	-174	137	130	1
-4064	-4636	11900	-555	-31410	629	-6832	-2760	-5080	5256	-25364	2066	-14440	-1324	-12312	-5096	-19279	-2348	-9572	3696	13356	1744	2134	1249	-15748	4340	-3172	8342	1063	2909	-15944	3436	-300	1427	14333	763	126	137	1
-7136	-5280	12748	-2034	-32768	-343	-7228	-2156	-5736	4091	-30372	3556	-13100	-1200	-14868	-2383	-22360	-2695	-9492	3740	13052	1440	2040	997	-14968	4788	-2280	5032	1515	2719	-15132	1956	-384	976	12954	1217	131	137	1
-9296	-5008	13152	-3065	-32768	-2519	-8164	-1316	-6220	3633	-32768	5019	-9544	-2384	-13316	2404	-19953	-3118	-9544	3708	12800	1041	1716	620	-14160	3580	-2360	3345	2080	2392	-13600	1128	848	4778	14157	531	133	126	1
-11920	-5048	14248	-4309	-32768	-5588	-9460	-616	-7180	3222	-32768	6411	-6108	-1368	-12124	6175	-18513	-3124	-9720	3892	12680	453	1057	27	-13952	3340	-2280	5206	2602	2492	-13436	780	564	5612	13827	359	133	129	1
-15164	-5312	15916	-5919	-32768	-8907	-11684	764	-7728	366	-32768	7303	-5868	-220	-12756	8573	-16450	-2602	-9736	4112	12620	-222	383	-571	-14156	5428	-2772	7592	3130	2302	-12468	3768	3620	11770	13581	872	138	121	1
-17300	-5480	16872	-8094	-32768	-11993	-14544	-488	-7508	-2231	-32768	7902	-3840	228	-13868	10105	-14421	-2704	-9772	4016	12504	-717	-254	-1203	-14716	6064	-3716	6192	3511	1478	-11932	4012	2728	9081	16508	1797	132	129	1
-18976	-4712	17232	-12341	-32768	-13425	-19760	-716	-7808	-2482	-32768	7359	-2800	624	-13828	11881	-11186	-3740	-9472	3740	12984	-932	-513	-1865	-16212	2376	-3228	4842	3987	1296	-15916	6388	-4584	13569	18998	1181	127	127	1
-27572	-6588	21672	-15658	-32768	-14538	-20272	-1144	-8332	-2617	-32768	7290	-3716	560	-9576	10919	-9579	-5437	-9456	3004	13684	-717	148	-2220	-16488	-124	-2196	7666	4794	1778	-21808	5244	-3580	13019	14428	280	127	124	1
-32768	-16044	28428	-12132	-32768	-17567	-32768	-8460	-11484	3865	-32768	8165	-8168	2076	1328	8797	-15532	-3872	-9280	3380	13628	-394	931	-2209	-15000	3608	-960	8236	6316	1982	-19024	4308	804	3189	7052	-343	128	127	1
-32768	-16992	22808	-1892	-32768	-23818	-30116	-4432	-16712	5509	-32768	7888	-14844	1360	8104	8126	-15642	-1028	-9488	3828	13468	-247	1812	-2376	-15404	6404	-484	3429	8199	1290	-16036	7416	4924	2727	8926	165	127	124	1
-32768	-6744	9660	3996	-32768	-29881	-22156	-6580	-19976	5599	-32768	6888	-16996	752	5204	14349	-6725	-1972	-9224	3760	13788	-125	2962	-2944	-15368	4064	48	1617	10296	692	-16224	7328	5604	3417	11786	960	135	124	1
-32768	-1188	-3792	3233	-32768	-24275	-22632	-4256	-17648	4403	-32768	3261	-14916	12604	24868	13147	-15372	1079	-9260	2832	14380	37	5093	-3317	-15732	3084	156	688	12812	458	-17372	5244	5188	3655	11017	982	128	125	1
-32768	32767	-32768	-9222	-22930	-6831	-3992	1072	-22696	-7226	-17033	-9160	-12888	23260	32767	18199	-3852	-527	-9588	2864	14408	112	5506	-3285	-17008	3296	-1788	-2674	15606	-404	-18396	5004	4428	2128	8997	914	119	125	1
-32768	22960	-32768	-13531	2811	6702	804	-13824	-24800	-11369	8730	-7324	-18664	8696	27508	2366	3847	-5689	-9392	2560	16144	1318	13438	-2259	-19984	2160	-3104	-5073	18425	-1193	-19620	3548	3440	217	7403	608	127	125	1
-32768	8136	-8448	10255	9799	12830	-10552	-7960	-26196	7031	20611	-4021	-16696	1184	-2024	-15582	8281	-7825	-9736	3880	16692	1714	20615	-3128	-22168	-808	-2544	-1235	20342	-404	-22276	2688	5288	3374	5885	-655	118	124	1
768	-4068	21444	22825	23741	3541	-25696	7672	15268	25800	23321	-3062	-8200	672	-5492	-16258	16155	-2385	-9004	3988	17528	2416	29709	-3903	-24020	-956	-824	3144	22651	295	-24348	4064	8744	5434	1762	-1615	131	128	1
2128	7952	32767	21495	25510	-122	-32768	9816	-3896	32767	17684	4353	-27416	-4680	26168	24500	-4526	-6940	-8660	5708	18412	2619	32767	-4632	-29016	-1620	1720	2598	25474	-319	-27052	4364	13724	777	-5334	-582	116	127	1
-32768	32767	32767	6545	31486	2737	-18716	12272	-13636	32767	18536	-849	-10740	4744	10408	32767	12741	-1334	-8960	8080	19296	3469	32767	-7329	-32768	-10144	6476	9061	27056	1000	-28840	916	22244	-3397	-19493	-2439	114	125	1
-14340	-10192	14252	-4678	19035	11217	-22640	9796	-7600	12071	23674	-5854	-19220	24072	-19764	22454	2752	-4427	-12840	17724	20500	6011	32767	-17775	-32768	-2832	8756	25643	25998	2561	-16992	-11352	1244	898	-21452	-12446	105	125	1
-18016	-5852	14364	8529	23416	4381	-13444	-14144	-8612	6452	17288	-8790	-5276	4496	-8684	-17284	3442	2282	-32768	8016	14440	870	32767	-30866	-25052	19328	-10312	17351	27111	4553	-25896	-2112	-356	9267	-16481	-8281	126	136	1
-17096	-11720	11916	8703	6690	7823	-14264	-7212	-13728	9038	12151	-10995	-7724	-9488	-12668	-7783	8512	-3002	-32768	13888	31556	-3946	32767	-32768	-28988	7708	-11212	8782	24875	3262	-27528	9684	-13764	17712	-15440	-3049	114	125	1
-13996	840	15548	5571	1129	3887	-21612	8784	-11716	-6505	13860	-6589	-30112	-3204	-11912	-4053	12062	-10253	-25256	15188	32767	3976	32767	-22727	-23848	1848	-10224	-6690	20003	27	-32760	740	-12044	7939	-21154	659	112	116	1
-10220	-2696	12900	2966	418	1934	-18152	-644	-8784	-21853	10730	-4359	-19888	-700	-8664	-6190	10793	-4580	-32768	14012	32767	16927	13068	-10152	-15812	4016	-18424	-5388	13347	935	-29936	-952	-5972	-498	-24437	3487	118	118	1
-9392	-768	14076	1096	678	974	-18324	-7812	-7344	-10664	6291	-4089	-16352	-248	-3680	-1030	11868	-2122	-8520	24580	28536	10721	-22832	-539	-14352	-3092	-8668	15050	3208	2331	-29636	180	-6380	-585	-25651	904	121	121	1
-9236	-156	13584	-509	1334	-266	-18068	-2036	-7072	8017	5591	-2977	-17020	2316	-3728	3970	12742	-2270	4768	12568	14288	3293	-28549	4318	-10816	932	-6224	18954	-5207	3042	-25772	1896	-7692	4751	-21663	-936	121	161	1
-8908	-1148	13600	-1205	2140	-889	-18924	2532	-5224	6287	4354	-2676	-18012	4368	-2668	2302	13608	-1499	7552	6716	8164	1662	-24626	7875	-6476	3724	-5388	11820	-12886	3602	-23504	2228	-8948	5314	-18943	-210	115	137	1
-9536	-1900	12900	-1161	2451	-1737	-16740	1828	-4708	-2684	2726	-3189	-16232	1216	-3332	-1105	14496	-447	1888	5936	9264	1241	-21460	9633	-4496	2300	-6236	-2493	-18928	2854	-17012	-1276	-10016	5408	-16861	803	118	133	1
-9696	-2900	12556	-442	2101	-1833	-16228	-2124	-3576	-7557	2645	-2909	-16288	-2288	-2552	1006	15320	-389	-4332	6116	12808	148	-25349	9410	-4180	1496	-7444	-5704	-24185	3342	-13868	1600	-10816	4493	-16413	1892	135	130	1
-9420	-2836	12380	104	1477	-1265	-16532	-3996	-2340	-6726	2298	-2514	-15188	-1660	-196	1759	14953	-2472	-7756	2736	14844	1410	-32512	10098	-4252	-376	-7376	-3644	-29243	2980	-10520	3140	-10712	-100	-16106	2507	143	126	1
-9392	-2136	12616	139	1164	-862	-15304	-2864	-2024	-2626	2624	-2299	-15408	-220	-24	1696	14073	-2407	-9640	1552	14632	6867	-32768	11909	-5812	-84	-7632	-1639	-32768	1821	-9004	2724	-10056	-1742	-13123	2285	148	128	1
-9308	-2172	12412	97	934	-719	-15600	-1776	-1620	258	3147	-1647	-15448	128	-144	1441	13977	-2420	-9536	1528	14400	7614	-32768	12196	-8892	236	-8520	-2128	-32768	1184	-6760	3024	-10328	-3427	-10090	1068	140	137	1
-9104	-2464	12548	230	724	-146	-16336	-984	-1612	-964	3127	-1670	-14680	2272	384	-8342	12316	-2676	-14560	4748	17292	8970	-32768	14724	-10756	-592	-9548	-2317	-32768	1003	-7420	2620	-10992	-4978	-7062	-843	129	140	1
-9304	-2584	12388	464	493	451	-16352	-1612	-2156	-3641	3425	-1720	-13088	1068	3404	-12502	12619	-2777	-19056	5180	19160	8158	-32768	16481	-12132	276	-9656	-2888	-32768	380	-5144	876	-12364	-8292	-4542	-1243	132	139	1
-9676	-2240	12460	620	235	859	-15500	-1172	-2324	-4963	3927	-1720	-12692	2008	3832	-6948	14287	-4905	-21096	5412	17780	10382	-32768	19399	-15724	1176	-9580	-5997	-32768	-439	-3916	1424	-13000	-9962	-4630	-1519	126	131	1
-9080	-1916	12748	516	96	1005	-16164	-388	-1584	-5325	4882	-1757	-17472	1924	1076	-7034	16920	-4023	-23636	7320	18148	11942	-32768	21521	-19652	3376	-11312	-12143	-32768	-2498	-2740	-804	-10020	-18600	1846	2765	122	123	1
-9068	-1764	12960	464	339	1125	-16620	988	-452	-5397	6049	-2008	-20376	2620	1212	-7222	14093	-2750	-32768	12288	26244	6239	-32768	23605	-27068	3464	-15060	-9488	-32768	-4155	-6148	-120	-3500	-18413	-3035	3582	118	119	1
-9008	-1404	13132	290	907	1162	-15448	392	-540	-5954	7456	-2523	-18340	1212	2704	-4385	7217	-1071	-32768	13328	27244	-136	-32768	28114	-26940	7128	-15896	-6544	-32768	-6191	-14748	3360	6620	-13588	-12593	3944	125	115	1
-9100	-1448	13316	109	1490	718	-15692	-2552	-1624	-3549	8516	-2316	-14824	-3328	3436	-2310	10336	-747	-32768	9736	12584	-4272	-32768	31021	-20480	5936	-18288	-1539	-32768	-5171	-18208	4312	7776	-7757	-9425	3909	128	123	1
-9152	-2628	13000	67	2472	992	-17164	-3072	-1448	-566	10035	-1475	-16380	-3032	2584	-1597	14783	-1060	-32768	10236	9080	-4897	-32768	30750	-19832	844	-17376	-9316	-32768	1961	-15900	-6784	23756	-11219	-8482	1938	125	125	1
-8860	-1892	13444	96	3673	1289	-16152	-724	-136	-260	11687	-1590	-17256	-2244	5108	542	13375	-652	-32768	-32768	-32116	32767	-23812	9789	-3224	-4712	-16400	13764	-16636	10270	-28568	-21152	32767	-7239	-3349	4003	128	123	1
-8700	-224	15056	-248	6676	773	-17112	-1712	-432	2925	14226	-666	-19024	-2272	6924	2561	11478	-372	-32768	-21264	-21336	16429	-3337	-8417	-1740	16464	-16600	20209	4396	8658	-22528	-3296	24120	8534	-2663	-1043	130	132	1
-8904	-2084	16412	-692	11785	219	-21292	-1940	-1516	6724	16514	546	-21612	44	4088	3024	8443	-652	-32768	-16980	-7636	-11617	4516	-19121	-7848	6044	-19356	1991	18333	2208	-14308	7244	3740	16853	-8778	3700	128	123	1
-9408	-3668	16348	-622	17285	1440	-22032	1512	-2012	4089	18075	-438	-21156	2488	4760	-1161	5348	852	-12504	21844	6036	-30767	10383	-18424	-15132	3760	-11416	-790	23665	2910	-14684	6292	-2708	19105	734	6992	124	127	1
-8768	-1972	16848	-414	23977	1959	-22568	4236	-2060	-84	20122	-1484	-22120	2360	8104	-3554	3124	2112	17620	-28	32767	-14798	29902	5486	-32768	-18924	14948	-26884	17608	-7789	-10940	1380	-2552	12031	-953	6060	128	135	1
-7980	-688	19068	-1434	32767	620	-27416	2868	36	312	22649	-588	-22572	1868	8228	-3780	2296	2262	-32768	-20540	14720	-12854	32767	-1658	-20916	-4800	-22392	-32768	22123	-357	-22976	16984	13652	-32768	-2891	15066	131	126	1
-4380	-3032	20832	-3768	32767	-1269	-32768	13320	6492	-916	24787	-639	-26876	9352	25936	-1948	-18895	3962	-21960	-21160	31620	909	17566	-14479	-16368	-20316	-10056	-16383	23341	3033	-25176	-18368	-14664	-14882	24669	-6360	132	89	1
-8064	-8860	22340	-1401	32767	2266	-32768	11708	9696	-16420	24342	-3516	-22804	15444	25644	11581	-5706	8734	-5460	31024	6844	-1331	20256	-5566	-15532	7544	-9564	380	18633	4691	-17316	-15400	-16576	-2722	3538	-3994	125	130	1
-32768	-10980	17184	-1436	32767	13994	-31128	-14604	-3692	-19063	25927	-2508	-18924	7624	4760	-23927	-5056	10487	-28380	-5244	19340	-7798	7361	-11775	-13332	16584	-18068	-6806	14879	8542	-4544	4184	-5420	14991	7131	1552	133	122	1
-32768	-17496	23712	3194	32767	24035	-32416	-13036	-5820	-2666	27444	-3499	-30160	-8020	-10048	-17802	-3918	3526	-17044	-4008	18408	-4924	902	-5331	-20192	-4440	-17176	-1548	12572	5313	-25336	11408	-11148	12283	14303	7027	123	116	1
-27900	-13452	32767	1205	32767	25147	-27276	1852	-5064	4184	24269	-3713	-32768	288	-10596	-12479	-13179	53	-10776	4344	14072	-1235	153	-1173	-16580	1896	-9864	17454	10593	3700	-20324	8048	-7992	7699	8486	7243	123	107	1
-2856	-1940	28876	-11403	32613	16294	-22688	-1668	-7160	2774	16185	-2343	-31492	4192	-5892	-6368	-18851	252	-9860	4280	13952	-1211	125	-1179	-16520	6412	-9064	10382	8247	4050	-18180	5684	-5728	5686	11323	2189	117	122	1
-21820	-19620	32767	-19557	-8923	3690	-17008	-208	-7188	-6901	7448	-383	-29788	1396	-9836	-3335	-19853	2093	-8988	1744	14408	578	737	-138	-17364	5668	-7256	-1386	6905	2208	-16816	2616	-1940	1679	11713	2068	123	124	1
2236	-17052	20684	-9047	-24594	1258	-14236	-1208	-1440	-9607	-783	-1841	-28284	3240	-10236	-317	-19890	1502	-8892	2724	13996	1513	1346	416	-16984	2060	-7008	-8101	5420	1614	-17384	1428	-2292	-1066	13733	1547	119	130	1
5260	-10176	12460	1954	-27260	-266	-13196	-2256	-1544	-9367	-2305	-1920	-22892	2804	-10616	-2777	-18342	1283	-9496	3172	13668	1920	1555	309	-16920	-1144	-6736	-1410	3819	2466	-16240	1160	-2532	-837	14827	595	146	122	1
2920	-5592	9344	3202	-27081	-3040	-6172	-3400	-3304	1879	-17168	-142	-16712	1968	-11128	-4871	-18656	-596	-9492	3816	13372	1655	1485	359	-16092	1756	-5652	6505	2245	2745	-16636	1184	-2268	989	15532	403	140	112	1
-772	-4736	9688	104	-27857	-6028	-6508	-1488	-4360	5049	-22563	1484	-15184	428	-11544	-4557	-18181	-1776	-9528	3868	13396	1297	1532	545	-16108	3276	-3648	8216	1690	2587	-16312	2424	-388	1520	14934	324	134	125	1
-5388	-5452	11356	-2620	-31002	-8740	-6936	-1336	-5616	4511	-27598	2731	-11404	-340	-10880	-1707	-17119	-2037	-9532	3544	13452	1141	1622	558	-15756	4088	-2568	6400	1873	2442	-15916	2208	776	1801	14539	1005	130	133	1
-9108	-5664	13232	-2505	-32768	-11249	-7500	-2040	-6220	4024	-32112	3551	-9496	-2596	-13720	579	-20334	-2505	-9452	3428	13472	1147	1682	616	-14732	3792	-2656	3479	2444	2332	-15344	720	676	4468	15024	865	136	131	1
-11268	-4320	14360	-1742	-32768	-13610	-8924	-2188	-6892	5508	-32768	4858	-7736	-1588	-11640	4655	-17355	-3307	-9464	3860	13036	699	1395	174	-14336	2904	-2784	4395	2812	2032	-13384	1092	400	7126	14268	-184	132	138	1
-13384	-2928	15340	-3398	-32768	-15369	-11068	-124	-7144	5463	-32768	6510	-6076	-1360	-11944	4509	-17710	-3242	-9768	4028	12752	225	1032	-316	-14484	3624	-2876	7120	3238	2116	-13848	2300	100	10929	13867	321	139	125	1
-16768	-3280	17252	-6377	-32768	-16287	-13388	-748	-7476	2483	-32768	7575	-5480	-436	-13100	9016	-14340	-2908	-9504	4180	12740	-188	562	-823	-14480	5356	-3228	7486	3722	1706	-12416	3228	3864	10648	14500	1285	132	125	1
-18508	-3400	17648	-10606	-32768	-16152	-17984	-1008	-6732	1555	-32768	8114	-4184	464	-13676	11104	-12070	-4201	-9672	3720	12924	-655	82	-1508	-15112	3992	-3796	5724	4134	1363	-12560	3884	100	10424	17968	1758	127	128	1
-22536	-3780	18756	-14232	-32768	-14359	-22772	-2852	-9268	884	-32768	8342	-3216	512	-10584	12823	-9525	-5320	-9496	3616	13172	-702	-20	-1949	-15764	1604	-2668	6707	4732	1349	-17368	5712	-2956	13209	18307	445	127	125	1
-32768	-8016	26220	-14725	-32768	-16257	-30004	-3728	-14448	1445	-32768	9394	-5132	1152	956	13564	-13122	-5534	-9292	3636	13684	-598	456	-2354	-15632	2332	-1348	7262	5898	1541	-20632	5548	-3028	8133	11513	-228	132	128	1
-32768	-15320	25872	-7533	-32768	-19515	-32292	-3204	-12740	2233	-32768	9001	-13308	3960	7096	6825	-17011	-1964	-9440	3160	13848	-389	1392	-2504	-15068	4316	-1252	3947	7576	1414	-18228	6872	1824	394	6928	-283	135	127	1
-32768	-13124	12792	-216	-32768	-24868	-24660	-5600	-19808	-1948	-32768	5598	-18204	984	4436	7832	-10907	-2614	-9304	3628	13748	-98	2663	-2615	-15860	4124	-1236	803	9448	643	-15924	7028	4648	1435	9944	-34	126	127	1
-32768	-5112	4632	-471	-32768	-25698	-21200	-6496	-18464	-237	-32768	2865	-13976	6240	14144	8227	-11152	-27	-9176	3440	14028	-65	4287	-2960	-15112	3256	-284	801	11452	330	-16576	5260	5208	2868	11579	355	136	124	1
-32768	10448	-15960	-7300	-30985	-14427	-16660	-1184	-19508	-3406	-26430	-3868	-12924	18392	32767	10957	-9948	88	-9188	3372	14812	190	6747	-3017	-16344	3888	-616	-1381	14096	-65	-17940	3824	5436	2475	9899	677	116	126	1
-32768	32767	-32768	-19169	-11663	260	2336	-5708	-21508	-17565	-5067	-9745	-16832	12172	32767	6356	-1359	-2448	-9204	2836	15700	649	10792	-2957	-18584	2696	-2388	-4172	16953	-871	-19368	2468	4176	1312	8438	985	115	126	1
-32768	4152	-24028	12183	10596	15462	-7392	-12312	-23048	-2499	13182	-6941	-18640	1884	12284	-2935	5920	-8737	-9580	3364	16752	1153	16993	-3118	-21260	208	-2728	-2787	19328	-753	-21424	2628	4148	2142	6862	234	134	125	1
-3736	26484	3800	22655	31371	5526	-17496	5624	-1564	21410	24222	-481	-18724	-1648	616	-14799	8036	-7260	-9448	3380	17456	1905	25353	-3614	-23752	-832	-2288	157	21503	-208	-23788	4260	6392	4766	4026	-1120	119	124	1
-12844	4532	32767	13801	32767	296	-32768	4252	-3444	32767	20380	5300	-31376	4420	16288	10293	6354	-4478	-8580	5544	18960	2364	32767	-3541	-28176	-512	616	935	24141	-793	-28076	6316	9476	1355	-2377	-1063	120	125	1
-32768	19864	32767	7325	26793	6104	-18660	20928	-15756	32767	25890	140	3056	6304	9652	32767	11245	-770	-7388	5728	19064	3951	32767	-5529	-32768	-7688	4472	4634	26082	-13	-29436	2916	16128	-3081	-13911	-847	118	120	1
-6116	1388	15276	-3792	19621	6051	-20220	29040	-11592	27960	24163	-2984	-17036	20584	-28152	18655	5093	-2080	-11824	14076	18988	4609	32767	-12382	-32768	-9576	10360	22905	25610	2665	-30992	-6900	32767	-16517	-32768	-8781	150	133	1
-19508	-16812	9896	5226	23423	4863	-10964	-17532	-9780	1674	16927	-6938	-1608	2760	-7156	-14125	1635	4772	-32768	11512	18212	2931	32767	-28366	-26504	16200	-4844	22368	25291	4244	-18852	-17272	4116	7161	-10344	-11100	113	130	1
-14180	-2304	14572	8953	7170	7051	-16624	-11644	-12620	8521	12584	-11127	-8900	-12752	-14140	-7029	9399	-2317	-32768	17184	21256	613	32767	-29915	-26032	9300	-11556	13562	24841	4359	-27624	7856	-6348	20081	-17004	-5388	120	126	1
-13224	412	16064	5461	1485	3183	-23416	7480	-10508	-2354	13662	-5134	-32768	-2700	-12940	156	12066	-10965	-27396	14852	29956	2006	32767	-28557	-23684	2740	-8976	3842	20968	1749	-30536	7844	-16232	16297	-15218	-1118	112	127	1
-10080	-3424	13220	2709	735	1558	-17356	-1196	-7500	-12862	11063	-3284	-17736	2136	-6056	-1304	10015	-5278	-10032	7844	28668	15984	26857	-14357	-17316	3604	-11928	-4002	16127	998	-29592	-780	-5560	3250	-23090	1748	107	116	1
-9632	-812	13516	1211	536	989	-17604	-1764	-7448	-8209	7208	-4606	-14872	3464	-3184	-81	12538	-2198	-22980	29656	32767	11556	-11236	-1029	-14248	1408	-12200	7116	8051	1460	-26136	-272	-6512	-1747	-23401	2103	120	112	1
-8872	-188	13680	-544	1330	-231	-19132	-1880	-6092	2136	6280	-3570	-17356	3196	-2644	1195	13191	-1989	2004	15028	20220	2337	-25831	5250	-12424	-1636	-4908	17446	-1463	2488	-26388	-112	-6068	-1816	-23906	1396	124	152	1
-9264	-1944	13516	-1412	2278	-906	-18784	-68	-5148	2970	4522	-3274	-18440	2756	-2824	603	13802	-1579	8436	7164	11324	657	-24224	8752	-7852	2904	-4340	15537	-9202	3065	-23236	3404	-7096	4470	-19451	-1534	120	151	1
-9956	-2108	12676	-1007	2462	-1897	-17044	-108	-4548	-2570	3405	-3273	-16552	-984	-3068	-1233	14827	-1059	4232	4948	9956	553	-20759	9963	-5836	3712	-4480	2335	-15601	2766	-18180	1192	-8348	4497	-17027	-900	121	133	1
-9780	-3336	12420	-242	2158	-2197	-16388	-2936	-3340	-7204	3064	-2575	-16956	-2768	-2568	-1084	15316	-1281	-2780	6076	12604	-874	-23125	8503	-5120	4296	-6276	-6377	-20904	2529	-14372	1496	-9900	3633	-15569	725	123	135	1
-9712	-3212	12324	4	1647	-1546	-16248	-3784	-2496	-6468	2562	-2232	-15512	-2500	-532	935	14879	-2694	-6572	3744	14620	-725	-29122	7380	-5856	2344	-7032	-6726	-25777	2108	-12488	4200	-9676	903	-15676	2197	134	132	1
-9380	-2372	12460	-35	1354	-1168	-15796	-2884	-2216	-3246	3016	-2268	-15580	-108	236	2307	14758	-2426	-10180	3508	15420	3575	-32768	8109	-7120	1804	-7656	-5775	-30050	483	-11124	4396	-9112	-897	-13512	3009	142	127	1
-9404	-2112	12424	-244	1262	-1037	-15564	-1624	-1712	-289	3433	-1713	-15600	1732	552	207	13225	-2185	-11456	5280	14628	6304	-32768	9839	-8940	1624	-8020	-4645	-32768	-718	-9644	4772	-9012	-3432	-10697	2802	139	132	1
-9368	-2788	12404	-149	994	-646	-15900	-1092	-1636	-771	3326	-1761	-14480	2044	372	-5292	12793	-2167	-13128	7004	14336	6596	-32768	11996	-10584	1020	-8696	-4491	-32768	-1524	-7384	2584	-10084	-6214	-7955	1692	140	131	1
-9460	-2808	12224	3	714	-104	-15832	-1280	-1984	-3478	3814	-2058	-13712	1000	1156	-11374	12592	-2222	-17384	8716	16116	5527	-32768	14422	-12052	924	-9784	-3498	-32768	-1854	-6816	1220	-10912	-9281	-6289	503	126	134	1
-9420	-2536	12476	189	514	224	-16112	-2228	-2480	-4629	4293	-1983	-12992	784	4132	-9558	13515	-3080	-20092	8896	16904	5955	-32768	17824	-14728	2812	-9636	-3336	-32768	-2272	-5412	1200	-11260	-13346	-3626	1471	128	133	1
-9700	-2632	12444	310	358	389	-16148	-1924	-2372	-4136	4882	-1785	-15216	648	1796	-4709	16552	-4448	-22428	9776	16488	7899	-32768	21294	-18364	4672	-9888	-7687	-32768	-3405	-2636	616	-10316	-18344	-1298	3713	124	122	1
-9404	-2024	12688	269	519	628	-16744	-448	-2036	-4540	5583	-1716	-18680	1780	-280	-4173	17727	-3706	-27824	14504	19636	5097	-32768	22784	-23348	7224	-12888	-10746	-32768	-4770	-5344	316	-6700	-19393	-1608	5207	122	122	1
-9260	-2036	12884	163	1072	693	-16388	424	-1400	-5979	6467	-1995	-19324	1444	-1440	-4907	11567	-2093	-32768	19400	23688	-384	-32768	25433	-25920	7664	-14928	-12426	-32768	-5830	-10804	24	348	-15094	-7582	5395	124	122	1
-9468	-1852	13044	-126	1824	473	-15388	-948	-1760	-5890	7787	-2199	-17544	-2516	1444	-3188	8440	-259	-32768	19160	17076	-6045	-32768	31813	-23480	6140	-17632	-9734	-32768	-5463	-16168	360	4548	-11310	-8777	4252	126	124	1
-9428	-2612	12928	-416	2698	472	-16652	-3604	-1356	-3442	8681	-1620	-16360	-3072	2944	-4567	10604	12	-32768	9060	2212	-5950	-32768	32415	-19420	4	-16476	-7248	-32768	-268	-17840	-3676	12820	-13724	-10889	2028	129	135	1
-9312	-2792	12832	-308	3893	1266	-16064	-2044	-372	-2131	10494	-1309	-16656	-1028	5016	-1970	12767	-562	-32768	-16896	-14732	21601	-30011	21974	-13196	-2708	-15676	10076	-28806	9504	-17972	-18380	32767	-6904	-4366	4751	129	119	1
-9184	-1380	13712	-716	5789	1263	-16184	-1432	-156	-384	12668	-944	-17196	-268	6892	-287	12646	-845	-32768	-29876	-25484	32767	-17131	9416	-148	10196	-15016	27798	-7988	12858	-26440	-6888	32767	3540	-2735	111	126	132	1
-9260	-1252	15380	-1308	9658	493	-19476	-1976	-1260	3710	14997	152	-19888	72	4716	878	11409	-1312	-32768	-13912	-18908	-2191	-581	-9884	-5776	19516	-15612	13477	9565	6469	-16972	7348	18372	12029	-8727	2855	127	136	1
-9660	-3328	15700	-1461	14770	590	-21248	448	-1708	4649	16871	260	-21664	1372	3948	-184	8067	-642	-32768	-11652	-4748	-11135	5604	-19493	-7408	5788	-19684	-12661	20930	616	-13984	14432	-1348	13877	-4631	8357	127	118	1
-9308	-2656	15844	-1867	20326	1119	-20560	2932	-2024	1403	18724	-1058	-20444	3264	6012	-3607	5061	934	15360	2028	18552	-32768	17471	-13135	-19288	-3632	4924	-18618	23380	2862	-9348	10084	-4476	12815	3498	8492	130	124	1
-8864	-1528	17364	-2140	28769	291	-23948	4020	-536	-1372	21134	-1164	-23364	2956	10252	-5322	-1364	1492	1376	-8648	26080	-9001	32767	-1090	-32768	-6324	1624	-32768	19636	-11380	-18744	3460	2812	-22304	-6293	7065	135	144	1
-6592	-352	18980	-4626	32767	-2414	-30360	5508	3584	-713	23641	170	-25892	5092	20208	-6363	-12511	1480	-32768	-32692	28812	-6775	29555	-5451	-13792	-21716	-16932	-32768	24531	-304	-17196	-7988	32767	-30222	10569	7674	134	116	1
-6072	-9100	20600	-3583	32767	-627	-32768	14720	9412	-7429	25341	-1887	-26536	11500	32767	7796	-27296	6380	-14096	13168	13688	3066	16152	-12620	-13272	-4472	-9828	-3379	24713	2645	-25792	-21240	-30660	-24738	10170	-4950	127	105	1
-24436	-10168	20040	-4968	32767	7500	-32000	-2100	3932	-20310	27929	-2300	-13808	12912	-6164	-14126	445	8169	-21792	16204	16548	-12271	19605	-9623	-15292	17360	-12632	-4555	17239	6961	4424	-3960	-8524	16779	1710	-3847	133	129	1
-32768	-14044	21632	-4332	32767	17971	-30520	-19680	-5192	-5912	27913	-3277	-25652	-2668	-2756	-16474	-3435	4736	-15288	6548	17140	-10133	5309	-11568	-15464	1220	-17896	-12248	14542	6312	-15044	3880	-10104	12093	10944	5110	127	126	1
-29916	-15904	28120	5367	32767	27666	-30216	-240	-5376	5630	26683	-4647	-28500	-5160	-7348	-15047	-3351	4434	-13704	-2336	16604	-3680	331	-3674	-19348	-5976	-14324	10789	12802	3666	-28232	15172	-12560	11547	11923	8836	121	105	1
-16084	-6092	32767	-4703	32767	19650	-24712	1216	-7296	2781	20839	-4587	-32768	5724	-7844	-11940	-18007	957	-10192	3492	14488	-1746	-395	-1839	-16780	8048	-9492	16149	10074	4233	-22712	5572	-5316	3912	8703	5652	124	118	1
-32768	-10820	32767	-19090	4222	5730	-18084	748	-11444	-4701	11290	-1029	-30112	1536	-9828	-7562	-19225	1198	-9020	2212	14080	-582	-114	-956	-16332	8372	-9412	13761	9974	4054	-13152	3172	-3232	1741	10281	2201	120	145	1
-852	-17708	28376	-14884	-24772	3632	-16488	324	-1672	-12376	2490	-2745	-30532	5220	-10416	-3314	-20753	2065	-8340	2084	14080	408	592	-471	-16976	3568	-7476	-7047	7042	1703	-17884	3292	-3024	-1566	12911	2287	129	124	1
6732	-10920	16336	-3868	-30560	3459	-10492	-4792	-1700	-10159	-7366	-3324	-25180	4596	-10992	-4804	-19299	1799	-9336	3072	13904	1227	1182	-229	-17148	1480	-8184	-11027	5380	1542	-17312	1032	-2944	-3967	14149	1263	122	121	1
5752	-4964	11472	-860	-29920	1512	-7192	-2988	-2684	-2782	-16320	-1835	-19196	4092	-11684	-7618	-19401	671	-9812	2916	13468	1248	1190	39	-16460	-1392	-7752	-994	3448	2374	-16336	1920	-3432	-2529	15648	515	136	120	1
940	-3476	11324	-4632	-29733	-2138	-7048	204	-4100	1162	-23131	32	-16020	2212	-12280	-7661	-19016	-932	-9512	3200	13628	795	932	124	-15988	1516	-6184	7273	1921	2579	-17356	1408	-2300	-1258	16280	590	134	127	1
-4060	-4724	13060	-6773	-32685	-5681	-7536	672	-5732	377	-28288	1135	-14644	300	-12968	-6240	-19189	-1093	-9360	3188	13620	745	930	289	-16236	3284	-4256	6966	1542	2399	-16120	1072	-292	-603	16126	1155	129	132	1
-7996	-4288	14280	-6181	-32768	-8987	-7992	276	-6580	-485	-32768	2085	-10640	-716	-14980	-3363	-21061	-1100	-9196	2972	13644	789	1145	411	-15416	3072	-3264	2705	1657	2452	-15048	-152	600	-778	15918	1479	128	134	1
-11084	-3852	15604	-4540	-32768	-12234	-9004	-804	-7004	870	-32768	3217	-8844	-1376	-13276	348	-18551	-2336	-9252	2844	13580	958	1362	474	-14692	2148	-3152	700	2168	2543	-14676	-120	972	2594	15869	618	131	131	1
-11484	-3396	15664	-4281	-32768	-12725	-10860	260	-7512	2574	-32768	4763	-5136	-1104	-12724	2330	-17633	-2731	-9228	3416	13296	814	1227	299	-14688	2140	-2892	2485	2625	2530	-14064	240	528	6611	14954	-558	136	132	1
-13900	-1832	16856	-4422	-32768	-15398	-13172	-44	-8088	2276	-32768	6437	-4484	-544	-12744	5905	-14901	-2356	-9344	3644	13064	394	882	-317	-14260	3552	-2592	5409	3123	2528	-13984	3052	-804	10041	13638	-451	140	131	1
-17888	-2712	18828	-7639	-32768	-16390	-17364	-240	-7520	2622	-32768	7507	-3024	-224	-14208	8920	-12687	-2931	-9444	3664	13080	64	706	-776	-15152	5060	-3212	5234	3756	2191	-13884	4388	1292	10138	14179	1013	132	128	1
-22588	-860	20364	-12470	-32768	-14901	-21464	-236	-9800	1766	-32768	8199	-2600	1060	-11704	12042	-9568	-3919	-9436	3020	13140	-97	647	-983	-15576	2896	-4288	3780	4217	1861	-12684	2468	2468	7951	17511	2196	126	127	1
-32768	-4784	26412	-15662	-32768	-16455	-28780	-1280	-11752	523	-32768	10119	-2684	568	-4116	12110	-10930	-4584	-9360	2948	13368	-214	851	-1221	-15500	732	-3248	5840	4756	1917	-15520	1644	-244	9255	20621	1623	124	127	1
-32768	-15608	28588	-7671	-32768	-18578	-32768	-5864	-9964	1688	-32768	10704	-11068	972	7648	10514	-18110	-1665	-9208	3348	13616	-316	1307	-1625	-15296	2924	-1136	7887	6046	2168	-19976	5068	-2700	7917	14407	62	127	125	1
-32768	-14804	15644	4105	-32768	-22563	-26004	-8220	-17896	918	-32768	8754	-17200	-1244	7852	6581	-13546	-2255	-9216	3660	13936	-406	2298	-1945	-15688	5308	-248	3816	8129	1706	-20460	8696	1368	705	7300	497	139	124	1
-32768	-10236	584	4018	-32768	-24464	-19776	-6776	-17864	4579	-32768	6357	-17364	4532	12844	11009	-9629	-1019	-9308	3024	14140	-436	3883	-2239	-15556	3632	-76	544	10627	1003	-17536	8300	6804	297	9590	1477	133	125	1
-32768	4400	-16744	-5211	-29896	-15434	-18060	-564	-19176	377	-27805	-1023	-11736	17460	32767	13120	-12795	1795	-9076	3304	14480	129	6204	-2399	-16224	3444	-496	310	13165	377	-16672	5852	6528	2965	11395	1316	125	124	1
-32768	26720	-32768	-22418	-11401	-3166	872	-5576	-19304	-20820	-6561	-9727	-18252	16776	32767	7034	637	880	-9120	2584	15828	584	9772	-2631	-18004	4156	-1676	-2280	15920	-415	-18892	4444	5196	3890	9898	1033	129	127	1
-32768	11480	-21012	-1714	4792	10387	-4728	-15896	-23324	-11135	12390	-7217	-18252	144	13624	-6572	3051	-8071	-9120	3856	16624	1049	15757	-3125	-21212	1112	-1516	-2269	18628	-698	-22476	2628	4352	3288	7712	842	121	122	1
-32768	5516	-18204	30029	23149	15269	-15216	-5152	-24496	16444	21717	-4436	-15336	-5300	2776	-16262	8429	-6461	-9412	3936	17556	786	23779	-4307	-22952	-1564	-1320	651	21192	168	-24476	2472	7012	4441	3704	-323	147	121	1
6736	3892	32767	11598	32767	-13555	-32768	26760	15420	32767	22524	6906	-15444	-4420	3528	12194	9265	-4188	-8532	3816	18712	536	32767	-5060	-26932	-152	152	2112	23978	-78	-26264	3808	10140	2968	-1519	-1024	120	125	1
-32768	23656	20984	8614	32767	-1433	-25076	5552	-21208	32767	21069	276	-18008	-3752	11328	31099	4954	-6283	-7944	5128	18504	1320	32767	-6525	-30724	-5396	2060	3453	26233	198	-27732	2764	15372	-1070	-10605	-402	113	126	1
-19952	15904	27604	-2824	19920	12054	-16204	18288	-9232	14622	24794	-8023	-22572	23408	-21892	32767	6502	-2409	-8576	12652	19556	942	32767	-12150	-32768	-12036	7712	18224	26340	2264	-31016	-3564	32767	-10955	-32768	-5834	137	127	1
-5736	-25112	4308	1391	23972	3857	-15084	-5924	-9152	6749	20849	-6627	-12460	17212	-14688	-1670	4147	-96	-29692	14140	19512	1700	32767	-27006	-30256	9684	1244	26676	25414	3630	-16564	-21508	-3836	12126	-10115	-11882	130	138	1
-28224	4676	20516	6719	11868	9832	-14780	-14544	-14736	4487	14023	-11226	-3844	-3792	-9608	-14030	6102	481	-32768	15900	23052	-4143	32767	-32462	-28036	13656	-2080	24809	25800	3711	-25704	6356	-3024	18784	-18880	-5113	117	132	1
-16220	5928	17516	7638	3232	5065	-22012	5056	-13748	-51	12972	-9156	-28344	-6156	-12400	-5457	12855	-8700	-27760	16128	23124	-2686	32767	-29749	-26436	5240	-8476	5882	21884	1844	-30524	8216	-13640	15717	-14794	242	112	124	1
-10056	-3356	13332	3426	1758	1729	-18528	1912	-7800	-18032	13049	-4445	-20944	-2732	-8892	-7425	9936	-5827	-16340	13220	27184	9358	32767	-16934	-19788	736	-11680	-8254	18124	1034	-31548	-572	-7252	3907	-21610	2665	106	121	1
-9956	-992	14152	2279	739	1267	-15964	-4364	-7288	-15106	7893	-4270	-15908	-2028	-4648	-2957	11514	-2670	-32064	29276	32767	15789	-2582	-2692	-13472	3044	-17472	623	10362	2024	-26220	-1212	-6540	-1297	-23567	3212	124	98	1
-9608	-1100	13460	714	888	436	-17352	-5356	-6788	2723	5891	-3163	-16244	876	-2828	3000	12314	-1958	-1896	20232	22792	5436	-25365	4759	-13608	-3124	-6412	16227	441	4020	-27216	-168	-6288	1336	-23296	195	124	139	1
-9160	-1976	13500	-521	1487	-254	-19280	776	-5396	7671	5642	-2434	-18312	2992	-2752	4870	12818	-1909	8788	8760	11640	1194	-24769	9517	-8848	1328	-5440	15908	-7395	4332	-24264	2960	-7200	4549	-20092	-755	122	158	1
-9712	-1424	13148	-747	2117	-789	-17712	1508	-5404	1884	4057	-2595	-17520	2012	-3244	1136	13827	-891	6524	4016	9472	1229	-19781	12131	-6356	1740	-4612	5314	-14156	3890	-20012	1884	-8340	3991	-17317	286	118	134	1
-9876	-2676	12512	36	2003	-1197	-16224	-432	-4832	-4074	3406	-2679	-16360	-460	-3144	159	14954	-473	-1592	4540	12920	498	-20354	11842	-4996	1952	-5604	-4666	-19253	3206	-16880	-472	-9172	2933	-16059	1034	120	132	1
-9668	-3080	12340	668	1501	-980	-16544	-3340	-3712	-6318	2851	-2271	-16036	-2124	-2064	1390	15297	-1138	-5652	1364	15560	68	-26944	10156	-5532	-100	-5476	-4392	-24028	3231	-13480	1004	-9360	795	-16493	2200	131	129	1
-9444	-2400	12532	712	965	-634	-16116	-3512	-2748	-4045	2587	-2087	-15824	-952	-1044	2796	14339	-2128	-7880	208	16264	5202	-32768	10332	-6496	-1380	-7476	-4234	-28355	1962	-11356	1856	-9120	-1565	-15451	2659	140	126	1
-9216	-2352	12524	473	787	-226	-15464	-2728	-2116	356	3054	-1638	-15436	260	-124	2732	14018	-2281	-9232	2412	16320	7923	-32768	11193	-8880	-352	-7744	-1338	-32768	926	-9928	3120	-8532	-2615	-12997	1509	141	131	1
-9412	-2496	12304	439	569	120	-15672	-1836	-1852	1954	3405	-1236	-15276	1480	152	22	13339	-2728	-10764	2940	16636	7615	-32768	12224	-10592	-816	-8568	-1962	-32768	371	-8176	2796	-9640	-3489	-10012	233	136	137	1
-9484	-2812	12452	678	343	764	-16240	-856	-2008	-4	3481	-1300	-14424	2420	416	-6177	12614	-2695	-14304	4232	17940	7322	-32768	13798	-11352	-1020	-9580	-2225	-32768	-269	-7532	1780	-10736	-5326	-7360	-1051	127	137	1
-9492	-2204	12456	818	59	1229	-16108	-1004	-2584	-2632	3942	-1422	-13164	1276	2284	-10358	12905	-2513	-19688	6688	19304	7430	-32768	15870	-12956	1260	-8900	-2186	-32768	-679	-5520	-108	-11580	-9120	-4835	-1175	130	137	1
-9428	-1932	12624	768	42	1425	-16484	-880	-2908	-3211	4443	-1509	-13236	2016	3652	-4315	14728	-3862	-20756	7768	18604	8128	-32768	18631	-16284	1888	-10048	-7668	-32768	-1392	-4988	-2652	-8844	-14282	-115	1321	125	125	1
-9460	-1704	13020	558	353	1342	-16680	888	-2380	-3577	5234	-1509	-17468	3140	544	-4133	16492	-3459	-23948	9892	19912	8616	-32768	22439	-19900	2684	-11656	-11363	-32768	-2746	-2920	-2372	-9544	-17422	1650	2908	122	122	1
-9308	-1728	12996	355	862	1335	-16932	876	-1636	-5165	6215	-1919	-18736	3248	456	-4561	16728	-2016	-30796	13296	25652	4947	-32768	26060	-26648	4176	-13728	-9742	-32768	-4258	-6596	-68	-5296	-14830	-1539	3107	123	120	1
-9148	-1120	13376	303	1497	1241	-15328	640	-1452	-5263	7251	-2508	-18108	608	896	-2187	9663	-572	-32768	15672	27372	-9	-32768	29250	-28560	6876	-15308	-7465	-32768	-5988	-13660	2428	3800	-10408	-9816	3153	129	120	1
-9196	-1456	13260	88	2387	739	-15852	-1536	-2060	-3756	8685	-2112	-16336	-2368	2128	-3192	9797	-559	-32768	10992	15316	-5031	-32768	32729	-21520	5784	-18492	-5454	-32768	-5169	-19308	4100	10464	-9327	-11306	4043	127	125	1
-9308	-2008	13244	33	3867	749	-17528	-1756	-1444	-1749	10054	-1454	-17084	-2336	3472	-2396	13464	-520	-32768	-6092	-11964	1923	-32768	23890	-18288	-5112	-17592	-4108	-32768	3722	-15036	-9176	28336	-14360	-10204	4120	127	131	1
-8856	-1588	14104	-277	5752	959	-16060	-1112	496	-912	12138	-1269	-18504	-1708	6952	28	12441	104	-32768	-32768	-32052	32767	-23405	8540	656	912	-17296	21516	-14105	11746	-14664	-11832	32767	-14591	-8210	4608	129	122	1
-9052	-676	15412	-378	9268	519	-18396	-1748	-412	2833	14629	-418	-19908	-2344	7308	1995	11267	-133	-32768	-15284	-21744	12404	-4411	-7118	-1112	18964	-18236	23900	6988	7176	-19944	-2296	19592	18164	-5690	-1146	126	129	1
-9380	-2872	16204	-579	14834	337	-21880	-1480	-1192	6316	16980	584	-21596	452	4892	2934	8666	-342	-32768	-18760	-8292	-16759	5093	-22533	-8476	9224	-20552	-1724	20375	849	-14292	12480	240	24337	-9017	5438	126	124	1
-9632	-3364	16040	-111	20602	1655	-21936	2428	-1732	4156	18730	-682	-21680	3532	6364	-861	5884	966	232	15836	11748	-25932	6597	-22375	-13784	1368	-6668	-7084	24679	2983	-12788	14216	-2460	24912	-5896	6029	128	131	1
-8652	-1484	17572	-637	28419	1814	-24160	5852	-664	534	21232	-1655	-24440	3636	11240	-4095	1126	1502	16220	5868	32767	-9325	32101	-48	-32768	-21788	14260	-32667	16735	-8518	-8072	3392	-5148	-3732	336	3597	130	125	1
-6200	2160	20560	-2496	32767	-548	-30300	6824	2140	782	24044	-541	-26336	5612	18216	-3194	-9137	1074	-32768	-20920	16680	-9525	32767	-1251	-17488	-4180	-21004	-32768	20806	121	-11496	3904	-11112	-11053	-112	3652	132	113	1
-5532	-8448	20580	-846	32767	-56	-32768	16972	9244	-6948	25226	-2127	-26432	5864	20744	-2035	-10491	1432	-26196	-10400	27928	2421	15356	-16087	-18448	-8948	-11824	-13077	23648	2322	-31908	-21460	-17972	-23338	17183	-3691	128	102	1
-20284	-12628	21380	-2274	32767	7119	-32768	-1960	7472	-21461	25462	-2259	-14328	17184	-776	-4102	2091	8886	-8088	20268	10848	-5064	20777	-3507	-15540	9412	-10320	-6023	18117	5595	-6652	-12668	-15328	10337	4120	-2453	127	129	1
-32768	-10600	23188	399	32767	18910	-30660	-19832	-5088	-10757	27262	-3847	-25488	-3204	-2816	-23798	-2514	6010	-24256	4892	17256	-7782	7410	-11000	-13524	8284	-16308	-6588	14458	7080	-9452	4036	-7848	13737	8860	3430	139	124	1
-30588	-14292	29168	8672	32767	28357	-31064	-2328	-4144	3546	27357	-4602	-32504	-5148	-14172	-14523	-7360	1224	-17216	-6888	20360	-5619	3275	-5428	-20400	-2044	-15556	4611	11819	4697	-26020	14796	-11216	12140	13384	6864	112	111	1
-16184	-7136	32767	-5223	32767	19686	-24828	2284	-6936	3298	21667	-3007	-32768	4328	-8796	-9287	-17566	-6	-10196	5580	14072	-2439	1175	-1741	-16588	5280	-8668	15202	9883	3886	-19612	7744	-5352	5127	9532	6925	121	109	1
-32768	-10440	32767	-18721	9420	5703	-17992	-836	-12404	-2707	11875	-74	-30188	3216	-8948	-5398	-19604	1118	-10028	2756	14604	-976	726	-930	-16876	4960	-8316	5695	7986	3247	-17232	4420	-4680	2172	12111	1987	124	129	1
-2536	-20084	28924	-14275	-22379	683	-16648	452	-1408	-11247	3480	-1888	-30116	3580	-10104	-2832	-20946	2816	-8872	1876	14652	405	1246	-308	-17592	4716	-7064	-5968	6783	1604	-16320	836	-1160	-1029	12759	2665	125	129	1
6492	-12792	15776	-776	-28291	-527	-11228	-4348	-1200	-8503	-5538	-2463	-25252	3828	-11024	-3292	-20086	1380	-8612	2444	13940	1403	1831	248	-17324	-788	-6704	-7298	5067	1831	-17316	-544	-2060	-2791	15186	1021	121	129	1
5680	-6816	11200	4018	-27496	-2361	-6512	-4756	-2432	-1409	-14660	-941	-18756	2500	-11656	-5811	-19634	122	-9492	3576	13616	1736	2060	192	-16796	-1272	-6068	2262	3420	2909	-16092	340	-2176	-523	15244	-129	142	121	1
1160	-4524	10216	1455	-27423	-4858	-6328	-1700	-3660	4406	-21394	869	-15368	1920	-11448	-6926	-19125	-1847	-9572	3848	13356	1537	1832	201	-15964	2848	-4432	8610	2348	3049	-16316	2408	-2136	1649	15408	-161	137	118	1
-3784	-5068	11816	-2174	-30596	-6994	-7104	-1120	-5212	4786	-26502	1792	-14300	348	-12224	-5275	-18908	-2309	-9452	4036	13156	942	1597	85	-15808	4640	-2660	8250	2167	2710	-15256	3760	-1144	687	14453	783	134	131	1
-7576	-4720	13012	-4427	-32768	-9170	-7392	-1092	-6024	2956	-31399	2737	-10692	-1220	-12168	-2343	-18512	-2282	-9684	3636	13288	758	1494	80	-15088	4484	-2304	4989	2577	2420	-15568	1328	908	1647	14924	1474	129	141	1
-10416	-4956	13736	-4983	-32768	-11378	-8464	-1940	-6568	2358	-32768	3630	-7896	-2436	-11784	1769	-18137	-2929	-9524	3672	13252	648	1414	122	-14724	3136	-2580	3100	3083	2085	-14284	160	108	3074	14338	964	130	137	1
-12912	-4188	15172	-5081	-32768	-12921	-10072	-1624	-7132	3460	-32768	4781	-6128	-2260	-12436	4728	-16790	-3147	-9600	3500	13088	406	1200	-43	-14824	1872	-2840	5476	3414	2202	-14912	324	-648	8082	13804	930	135	133	1
-16152	-3456	16876	-7097	-32768	-14675	-12476	-976	-7676	2191	-32768	6038	-5624	-1060	-12476	7047	-14685	-3071	-9740	3796	12744	178	798	-290	-14476	3448	-3372	8199	3774	2288	-13056	1528	2064	12087	14373	877	135	129	1
-17884	-4260	17784	-10459	-32768	-15883	-16144	-1536	-7088	722	-32768	7439	-4228	-1048	-14176	9043	-13152	-3932	-9752	3916	12660	-269	224	-735	-14500	5016	-3728	7973	4165	1903	-11340	2324	2908	10779	16865	1966	125	128	1
-21324	-4440	18680	-14467	-32768	-15108	-21372	-2036	-8556	611	-32768	7369	-3468	32	-13268	11925	-9896	-5042	-9420	3572	13008	-734	-169	-1313	-15256	3120	-2868	6302	4624	1752	-14116	4628	-2696	11549	19968	1483	126	123	1
-31520	-6744	24044	-15919	-32768	-16432	-27136	-2936	-11736	430	-32768	8472	-4040	-28	-6380	13204	-10846	-6630	-9112	3668	13448	-765	156	-1948	-16196	2244	-1780	6411	5536	1577	-20532	6600	-3712	11439	16685	220	128	123	1
-32768	-16656	27372	-11649	-32768	-19061	-32768	-5332	-10768	2384	-32768	8791	-10408	2180	3956	8590	-17746	-3654	-9280	3592	13860	-642	934	-2402	-15468	3092	-1188	6226	6976	1741	-19796	5812	-1364	2446	8416	255	132	126	1
-32768	-15820	19100	-1881	-32768	-23942	-29460	-5792	-17824	-1108	-32768	6719	-19944	-4	10052	10294	-13011	-1568	-9208	3580	13936	-398	2565	-2502	-16324	3888	-788	3367	8826	1166	-17588	7292	3236	1208	8055	224	125	127	1
-32768	-4072	7452	-2167	-32768	-26398	-20744	-6052	-19452	-1404	-32768	4308	-15952	4708	11808	7999	-8853	-660	-9204	3160	14044	5	4445	-2702	-15860	2824	192	2061	10903	632	-17096	6028	6192	3540	10017	649	129	124	1
-32768	5500	-10720	-6095	-32768	-14862	-21136	-2828	-17680	-6644	-30123	-3296	-11988	17416	32767	6361	-13614	1269	-9312	3336	14364	419	6734	-2821	-16040	3552	492	407	13612	163	-17768	4744	7252	4259	10916	682	124	126	1
-32768	32767	-32768	-21671	-16823	1513	2404	-2592	-21076	-19223	-9661	-11160	-16756	12728	32767	8368	-1783	-1919	-9376	2468	15580	916	10643	-2804	-18048	3920	-992	-3938	16784	-702	-19476	2240	6344	3988	9100	1271	119	125	1
-32768	16032	-23088	-3169	4273	14244	-3848	-11592	-25524	-6636	13245	-6239	-18448	2460	17040	-402	4654	-9792	-9416	3348	16384	1893	16929	-2749	-21180	124	-1708	-4023	19685	-997	-21784	1696	4336	2340	6727	1198	128	121	1
-32768	-1228	-13576	32767	17448	20009	-16300	-556	-22176	12442	24462	-4622	-17176	-772	184	-14599	9653	-7302	-9304	4084	17116	2130	25212	-3620	-22992	-2344	-1692	93	21909	226	-23788	2196	6360	5141	3292	-506	126	124	1
11092	1328	32767	17295	32767	-14140	-32768	32767	19012	32767	21988	6485	-13636	1012	-2588	1982	12419	-2138	-8584	4220	18592	3236	32767	-3768	-27380	-1800	204	2812	24559	39	-26928	3828	9704	3543	-2922	-1401	120	126	1
-32768	26552	18556	12702	32767	-2866	-23508	-4224	-21140	32767	21085	1245	-20872	-7164	14708	29659	-1517	-7406	-7348	6252	18904	4503	32767	-4486	-32768	-8564	4096	6417	26518	314	-28484	2760	17500	-1350	-13654	-1159	114	125	1
-19844	22968	28960	77	19210	13770	-18180	22764	-9488	17724	23636	-6872	-23032	17888	-24556	32767	11915	-3021	-8900	14008	20596	5909	32767	-10384	-32768	-8984	10500	23146	26148	1994	-29732	-5716	32767	-15468	-32768	-8439	134	126	1
-5840	-29908	4400	3019	23859	3589	-15984	-7516	-7984	8776	23527	-5114	-13504	17744	-18604	-2486	3137	407	-32768	14144	21104	4658	32767	-27076	-27696	16104	-4712	19918	26327	3220	-19340	-15516	4868	8661	-9957	-11283	114	131	1
-31012	8324	19948	9859	10411	10440	-12036	-14968	-15852	8859	14263	-9910	-3936	-5524	-9348	-17238	6532	903	-32768	17840	23328	-738	32767	-30377	-27804	12176	-9368	11539	26307	4145	-27104	10228	-8584	19207	-16471	-5239	116	132	1
-11980	1920	15484	7438	1908	5711	-23424	9060	-13784	-2419	14031	-7449	-27036	-7024	-13544	-3138	12580	-8690	-28796	20476	31700	543	32767	-31868	-24696	4840	-8612	450	21816	1063	-31836	9580	-16364	13452	-16719	-562	118	122	1
-10192	-1696	13944	2878	519	2316	-18740	2252	-9080	-18272	13195	-3708	-21312	-316	-8620	-4225	9981	-6836	-25520	4680	32676	17321	23464	-15219	-18572	2788	-12428	-10954	18087	622	-29464	1408	-4796	354	-23068	2717	105	122	1
-9276	-744	13864	1124	400	1061	-17684	-7344	-8356	-8814	8245	-3565	-15616	1320	-5540	-2112	11912	-2488	-17812	30460	32767	17477	-18237	-1628	-17316	-756	-9132	8725	7909	149	-27472	900	-5900	-4700	-24408	2318	118	102	1
-9152	28	13812	-242	1043	322	-17460	-7104	-8032	-5985	7674	-3728	-16696	3076	-4132	1727	13068	-1520	3932	18800	19684	4071	-29605	2957	-12416	-508	-4668	18428	-1913	1385	-26904	68	-6780	-785	-23088	-796	126	156	1
-9048	-1672	13568	-1318	1819	-499	-19912	1888	-5700	5362	4838	-2712	-18640	4268	-3916	2650	14324	-1503	9388	9476	10584	-704	-25978	7573	-8004	3128	-4416	15804	-10101	2097	-23156	3568	-7632	3176	-19862	-940	117	143	1
-9708	-1544	12836	-1114	2197	-1264	-17044	1096	-5428	-1389	3106	-3330	-18604	4128	-4000	2185	14196	-1404	4732	6836	9492	-1568	-21311	10506	-5732	3872	-4596	867	-16982	944	-18764	1200	-8624	3272	-17180	-159	119	133	1
-9672	-2416	12808	-157	1806	-1791	-16096	-1224	-3896	-8157	3128	-3038	-17432	-1820	-2232	-1752	15927	-655	-1804	7460	12512	-3292	-22937	10005	-5680	3924	-6432	-6198	-22523	1044	-15948	1104	-10396	3036	-15488	1280	127	135	1
-9388	-2996	12616	52	1324	-1457	-16768	-5328	-2652	-8570	2518	-2148	-16624	-3636	-744	292	14982	-1593	-8172	5616	15700	-3020	-29581	9959	-5684	1884	-7712	-7074	-27392	733	-12168	3348	-10756	304	-15988	2510	133	133	1
-9184	-2312	12576	176	798	-910	-15516	-4532	-1908	-2946	2973	-2162	-14912	-1412	420	3509	14757	-2518	-10952	4104	16004	1135	-32768	11507	-6660	1120	-8036	-4719	-31856	-677	-9764	3372	-9768	-2244	-14582	2965	145	128	1
-9036	-1988	12560	192	690	-595	-15172	-2196	-1084	1638	3380	-1233	-15300	1240	1240	2145	13477	-2828	-11004	4392	14720	4426	-32768	12698	-9316	948	-7940	-3072	-32768	-1405	-8936	4432	-9492	-4291	-11549	2239	134	131	1
-9012	-2508	12628	273	485	21	-16060	-940	-996	676	3646	-1361	-14916	2484	1224	-3608	12565	-2923	-13460	6000	15348	5218	-32768	13410	-10420	-64	-8816	-3388	-32768	-1673	-6892	1592	-10476	-6369	-8198	645	133	133	1
-9352	-2500	12516	542	275	794	-15900	-1712	-1376	-1757	4149	-1718	-13712	1988	2404	-11942	11393	-2606	-18280	7452	17664	5019	-32768	15010	-12260	28	-9788	-2886	-32768	-1831	-5696	-360	-11892	-8326	-5723	-859	130	135	1
-9608	-2516	12592	802	-72	1352	-15960	-2216	-1948	-3137	4830	-1714	-12984	748	6292	-9758	12729	-3788	-21104	8156	18220	6133	-32768	17626	-14912	1412	-9816	-3791	-32768	-1907	-3724	-920	-13948	-13878	-3468	-386	127	131	1
-9136	-1784	12780	876	-228	1658	-15700	-1340	-1608	-2818	5627	-1517	-14796	1428	3336	-5086	16053	-3926	-22992	8964	17984	8901	-32768	20668	-19000	2676	-10696	-8188	-32768	-2933	-2536	-2428	-10104	-18322	263	1779	125	123	1
-9072	-1608	13140	747	75	1802	-16796	-52	-1644	-3185	6811	-1623	-19896	2084	516	-6908	17589	-3105	-31556	14308	23908	6464	-32768	22771	-23996	4776	-12892	-11118	-32768	-3746	-4520	-1016	-6096	-19752	-2186	3111	120	122	1
-8840	-1328	13280	661	812	1845	-16144	1408	-1660	-4493	7767	-2221	-18488	2452	-328	-4315	11351	-2383	-32768	18252	27768	-276	-32768	27101	-28596	9716	-14704	-10677	-32768	-5455	-12072	760	3232	-16484	-10148	3252	130	121	1
-9172	-844	13236	482	1672	1323	-15412	-956	-2716	-4707	8911	-2358	-16048	-1876	680	-3284	8709	-873	-32768	13764	15400	-6614	-32768	32767	-22016	5908	-18112	-8829	-32768	-7396	-16908	5160	7224	-11464	-10534	3401	131	125	1
-9056	-960	13280	496	1811	1248	-17040	-3628	-2976	-1810	9658	-1542	-15984	-4184	1020	-3006	13817	-729	-32768	10892	-5068	-10136	-32768	32448	-19672	1148	-17736	-11554	-32768	-1510	-17076	-4336	17056	-17143	-8189	2562	128	127	1
-8972	-1640	13676	1002	3948	1462	-16200	-1108	-972	-884	11236	-1427	-17752	-2160	3100	-837	12953	-494	-32768	-31024	-29376	23912	-24219	19133	-6096	-5372	-17520	5752	-20017	8650	-24008	-19464	32767	-15888	-5534	4712	126	131	1
-8780	-632	14856	502	6653	1212	-16988	-1616	-740	1235	13313	-855	-18952	-1892	7156	1583	11543	-490	-32768	-20236	-23380	26955	-6069	3614	12	16588	-15820	20792	1116	9024	-24504	-9260	28484	5432	-2758	-1600	126	132	1
-8836	-1556	16420	28	11430	471	-20876	-2152	-1692	4185	15867	134	-20772	-412	5092	1526	9098	-202	-32768	-15072	-11732	-14359	5267	-13484	-8036	14044	-18480	1544	16250	3209	-16812	7116	8820	16574	-11661	2422	123	129	1
-9016	-1820	16436	94	12257	548	-22224	852	-1904	3255	17678	-366	-21724	1880	5336	-1494	6527	630	-32768	7836	-4996	-20215	11143	-17462	-11812	6644	-17516	-10826	24309	1485	-14300	9768	-3952	19100	-1057	8087	127	127	1
-9620	-2064	16920	335	23822	2560	-22692	3040	-1420	-408	19899	-1451	-22372	3236	8380	-4879	4181	1473	16100	-3756	32767	-18419	25038	-2905	-32768	-24040	17196	-23460	20150	-2294	-10256	4444	3268	6913	-1964	7961	129	135	1
-8484	-760	19132	27	32767	2793	-27336	1948	32	-1171	22597	-1369	-25164	3192	12924	-5136	-2090	1354	-27104	-11408	11528	-7864	32767	-2301	-27680	1280	-17868	-32768	20893	-931	-12516	960	7872	-428	-4989	7054	130	119	1
-6948	-2712	20048	-1646	32767	2462	-31852	6524	4544	116	24727	-1320	-26612	6516	23944	-5694	-15197	2222	-28984	-24344	32767	-515	22987	-12718	-13056	-10876	-10692	-21861	23308	3925	-26508	-19776	-10520	-23658	19284	-1871	130	121	1
-2524	-1872	16056	-3172	32767	4503	-32768	17708	4980	-13639	24737	-3504	-24564	14420	28408	14151	-8699	7298	-9700	29260	5936	-410	18957	-7926	-18296	3016	-13088	-8750	19856	5024	-20984	-14300	-14828	-9118	4403	-177	125	113	1
-32768	-7616	21752	1370	32767	15682	-31968	-14720	-3404	-27190	28588	-5109	-21196	17400	11616	12415	-3060	7287	-27928	-3516	21536	-8456	12963	-12328	-14292	11180	-15508	-6116	15008	8463	-5572	-4692	-5760	9839	6893	1184	124	116	1
-32768	-16964	27148	4372	32767	25208	-32768	-17728	-5444	-8847	28068	-4645	-30624	-7612	-7704	-29133	914	3570	-25680	-1476	19720	-7170	9833	-12851	-20008	-2676	-16044	-1119	12206	7720	-22576	10936	-11912	14835	13402	5285	122	126	1
-25360	-12140	32767	5038	32767	28467	-26196	-988	-6048	5589	25014	-5373	-32768	-3020	-14288	-14925	-9540	-2517	-11920	5796	14052	-2121	2508	-1948	-15896	1832	-9948	15068	11258	4846	-20516	10340	-7692	8573	9393	7203	117	102	1
-12428	2768	27656	-13626	28500	17495	-21716	808	-9584	4340	15740	-3552	-29928	4588	-7868	-2860	-18336	-1528	-9716	4056	14108	-1399	1871	-1326	-16920	7100	-9008	11414	8782	4126	-18084	7860	-5800	5089	11359	3287	127	135	1
-12352	-20460	32056	-25505	-10437	4391	-15928	952	-5400	-8955	7291	-1734	-27164	6104	-12008	165	-17601	337	-8472	3132	14512	-554	2174	-1014	-17612	4832	-7412	1934	7133	2292	-16280	4684	-3232	957	11876	3058	127	120	1
4584	-19668	17276	-8543	-22241	2110	-13044	-1240	-1008	-11535	-1521	-4132	-28128	6012	-12116	-2489	-20057	905	-8772	2444	14724	-439	2233	-947	-17480	3480	-8340	-7626	5823	1215	-18648	348	-2712	-2636	14371	2851	124	129	1
7576	-8644	11456	930	-21748	-2091	-7428	-3268	-2460	-4548	-10269	-4029	-22364	2004	-11016	-4293	-20247	-75	-10068	2256	14092	1444	2145	-40	-17664	-3544	-8124	-2659	3805	2163	-17560	-2388	-3092	-1597	15703	1291	129	121	1
3960	-4676	10276	-2509	-19673	-8767	-6668	304	-3608	2540	-17466	-1239	-16940	1512	-11292	-3391	-20247	-1104	-9608	2852	13748	1743	2427	380	-16192	-132	-7028	5703	2162	3097	-17124	-1608	-2596	2255	15838	-13	142	121	1
-1812	-6416	12632	-4330	-22586	-12977	-6880	-524	-4912	3091	-23206	-145	-14232	2960	-10904	-2672	-19660	-1496	-9984	3320	13396	1662	2634	629	-16032	1584	-5240	8084	1337	3409	-16280	960	-1404	2915	15778	-254	130	131	1
-6440	-5240	15304	-1423	-29230	-15180	-7828	-916	-5916	3815	-28285	238	-12392	2464	-11428	-3975	-19598	-1632	-9788	3592	13300	1656	2734	786	-15868	3132	-3084	7502	1313	3241	-15264	2244	256	1678	16359	188	127	133	1
-10136	-2744	16016	641	-32768	-16809	-8096	-688	-6368	5244	-32644	1056	-10796	1276	-11804	-3673	-19951	-2333	-9904	3732	12920	1504	2487	802	-14604	4076	-2888	4891	1667	3008	-15108	1392	-452	652	13648	818	133	136	1
-9912	1660	15596	-2361	-32768	-17953	-9312	424	-6372	6500	-32768	3325	-8368	-1132	-11588	100	-18691	-3157	-9864	3764	12872	1496	2443	804	-14120	3392	-2920	4375	2157	2563	-13532	1336	-840	4213	13904	232	139	133	1
-11572	1376	15600	-7555	-32768	-17952	-11636	952	-6500	5423	-32768	5776	-5460	-776	-12204	4268	-17217	-3301	-9868	4164	12424	769	1300	172	-14144	3360	-2956	6372	2558	2545	-12912	2320	-1284	7970	13123	87	144	132	1
-14584	-524	16172	-8425	-32768	-15517	-13280	636	-7236	2898	-32768	6432	-4636	-344	-13416	7285	-14990	-2686	-9988	4212	12456	220	627	-594	-14512	4296	-3900	6521	2888	2386	-12200	2464	4728	6957	15068	1618	136	129	1
-17296	1356	17292	-12988	-32768	-12473	-16668	1176	-8640	1593	-32768	6563	-3424	1032	-13736	10959	-12040	-2967	-10140	3496	12212	-240	-189	-955	-14352	3088	-4172	6096	3278	2122	-12544	3244	-52	6924	18991	1868	129	128	1
-22792	56	20740	-18214	-32768	-11615	-21964	324	-10036	-1548	-32768	7824	-4192	2888	-9392	11927	-11899	-3500	-9684	3584	12980	-476	-536	-1406	-15560	1424	-3064	6707	3815	2124	-17112	4480	-3900	11127	19710	797	125	125	1
-32768	-6508	27780	-15987	-32768	-12415	-29628	-3244	-10596	-2391	-32768	7903	-4716	1184	-3200	7974	-12912	-4177	-9532	3360	13484	-456	-12	-1613	-16420	1584	-1556	7022	4906	2227	-21192	3888	-1696	7652	13372	304	124	123	1
-32768	-9560	27192	-11391	-32768	-13971	-30976	-4400	-12260	-4419	-32768	8945	-13860	1048	7220	3566	-18376	-3443	-9492	3508	13304	-343	851	-1673	-14828	3388	-384	5033	6756	1920	-18796	4684	2360	39	7950	816	125	125	1
-32768	-9388	19900	-7187	-32768	-16572	-27128	-4512	-15904	-9059	-32768	5976	-18196	648	6148	-752	-10253	-2645	-9200	3732	13692	-218	1895	-1822	-15672	5188	180	1300	8850	1089	-16684	7412	5788	1051	9291	640	114	126	1
-32768	-7828	8572	-5296	-32768	-16390	-23692	-8100	-16888	-8500	-32768	3120	-15604	2260	11964	-1585	-9368	-529	-9420	3900	13864	-251	3923	-2698	-16696	4116	256	-26	10957	647	-17812	6984	5488	3735	11482	860	123	126	1
-32768	2316	3860	-5768	-32768	-16067	-19916	-1320	-16584	-7714	-29596	-1446	-11564	9844	26792	5869	-10618	-195	-9372	3452	14560	214	6758	-2898	-16772	2796	392	-1321	13637	-95	-19364	5088	5488	3405	10422	800	132	126	1
-32768	29616	-32768	-17816	-18017	-226	-2244	-1396	-20860	-17227	-12118	-9512	-15700	12004	32767	5533	-2093	996	-9600	2356	15608	1098	11037	-2431	-18588	2008	-1116	-4515	16740	-763	-20240	3960	5484	1842	8209	741	121	125	1
-32768	18212	-26576	-5070	3265	8846	-1992	-11788	-24988	-8355	9665	-6217	-18624	3956	22372	1013	2239	-7994	-9532	3340	16656	2230	17718	-1931	-19152	1784	-1408	-4733	17289	-931	-21360	1776	4688	-104	6333	607	136	121	1
-32768	2764	-16316	32767	16687	16786	-14884	-4308	-32460	15039	21736	-4290	-16104	656	2988	-8765	8830	-8745	-9428	3748	17380	2807	26547	-2687	-22948	-2460	-1892	-2479	22009	-400	-23272	1808	6560	2403	2999	-505	142	121	1
16324	776	32767	19970	32767	-8825	-32768	27228	20876	32767	19543	5453	-13892	2304	-4520	-1688	14849	-3934	-8684	3580	18476	4820	32767	-2367	-27740	-4540	432	3006	24388	-262	-27440	2580	10592	3694	-2235	-1414	127	129	1
-32768	32320	13228	11734	32767	-921	-25752	-1264	-18132	32767	19335	2866	-32768	-8576	32767	28326	-4708	-6142	-6896	6612	18188	6225	32767	-2865	-32768	-9364	5460	9105	26113	86	-30064	1232	18160	-1925	-14329	-1688	109	124	1
-20892	23456	28232	-414	18552	12953	-22616	28872	-10800	16554	21358	-6890	-16812	17288	-16404	32767	21592	40	-11488	16692	20272	8616	32767	-11289	-32768	-2692	10900	24139	25432	1185	-30316	-5440	32767	-18813	-32768	-9159	117	123	1
-8912	-26960	6964	-590	21169	3417	-15744	-9976	-5876	-1621	23678	-7475	-8340	21060	-18588	-4901	97	179	-32768	14976	17372	5806	32767	-26324	-28156	17172	-6324	13334	26081	1940	-18844	-10364	572	12696	-7723	-10934	150	131	1
-26984	-1504	16876	8378	16218	8871	-9584	-15556	-11256	6497	13689	-9426	-4588	-6960	-6564	-21406	5769	4013	-32768	18520	21968	534	32767	-28842	-27364	9380	-9860	7461	26115	2165	-28320	12456	-8000	17791	-16668	-4872	130	131	1
-17748	-2792	18932	8983	3974	6347	-22932	3556	-13356	-1690	13653	-7530	-20068	-10296	-11160	-8125	11320	-8022	-27504	20192	31676	-2659	32767	-30222	-23872	4472	-7652	14	21761	-806	-31192	10188	-16160	7350	-16542	390	126	122	1
-11480	-820	14524	3705	1476	2844	-20456	2040	-8140	-13404	13736	-4174	-26312	-2536	-9832	-6359	9676	-7391	-13596	6272	28544	12025	25883	-15363	-17832	3968	-11872	-12859	17995	-1733	-28276	1300	-4288	-5414	-23392	2940	102	112	1
-10424	-820	14276	2339	588	1917	-15892	-4024	-8000	-14365	9241	-3788	-15548	-680	-5536	-4780	11985	-2393	-18956	30092	32767	9053	-15192	-66	-16764	108	-10356	2598	8548	-2519	-25344	1196	-5652	-6748	-23207	2110	108	112	1
-9240	-396	13940	397	1083	690	-17852	-5840	-6744	687	6632	-3269	-15796	-960	-5724	-3949	12403	-1546	3204	15356	19104	-1694	-26922	4788	-11788	-1660	-4384	16049	-1095	-1815	-26136	1184	-6740	-3797	-21868	-661	123	160	1
-8880	-736	13560	-1242	1965	-443	-19184	128	-5332	8099	5646	-1878	-17832	2116	-3632	4281	13927	-1311	8288	7888	10440	-4440	-24399	7619	-8464	4408	-4340	14365	-9050	-1175	-22828	5036	-7432	199	-18713	-1188	119	148	1
-9560	-1976	13008	-1389	2475	-864	-17640	1300	-4436	1040	3979	-2204	-17100	1484	-2932	1118	14848	-270	4216	6780	8844	-5489	-20152	8533	-5820	6008	-4660	511	-15569	-1994	-19184	2636	-8600	-577	-16123	-450	118	135	1
-9868	-2924	12348	-334	2070	-1262	-16048	-1968	-3596	-6364	3576	-2155	-16628	-1972	-2900	-1469	15907	271	-3000	8612	11372	-7579	-22076	7043	-5200	5540	-7064	-9048	-20813	-2085	-15284	-48	-10012	-77	-14445	543	122	135	1
-9616	-3152	12460	616	1299	-909	-16604	-5028	-2668	-7457	3028	-1684	-16296	-5308	-1296	3516	16945	-462	-9256	8004	14400	-7844	-29794	6306	-5420	3384	-8272	-9916	-25440	-2103	-12700	2212	-10184	-297	-14686	2037	140	135	1
-9432	-2256	12608	655	791	-600	-16076	-3440	-2112	-3229	3011	-1404	-14596	584	108	3328	14856	-2423	-12232	6220	14736	-4245	-32768	7849	-7160	2344	-8708	-6568	-30111	-3042	-10360	2064	-9944	-2670	-14493	2867	143	127	1
-9252	-1524	12648	473	565	-572	-15140	-1024	-2148	-147	3469	-1161	-15104	3132	484	1081	14840	-1875	-12156	5792	13244	1114	-32768	9513	-9084	1184	-8244	-3840	-32768	-3673	-9608	3776	-8836	-4736	-12234	2130	146	129	1
-9208	-1476	12644	466	577	-581	-16120	-1424	-1052	-337	3602	-1242	-14520	2880	1244	-5006	13800	-1966	-15176	7764	13644	4415	-32768	10778	-10052	284	-9196	-3042	-32768	-3518	-7464	1688	-10156	-7096	-8933	541	133	127	1
-9272	-2484	12676	434	376	246	-16260	-1764	-1096	-2834	4190	-1603	-13932	1384	2116	-11816	12759	-2290	-18596	8796	15124	5337	-32768	12463	-11776	780	-9432	-1542	-32768	-2729	-7372	-628	-11152	-8696	-6337	-982	123	136	1
-9084	-2540	12576	569	204	852	-15796	-2248	-1208	-4358	4709	-1540	-12804	364	5272	-11906	12692	-3319	-19428	7816	14488	7909	-32768	14804	-15344	1428	-9752	-1206	-32768	-2446	-5756	-792	-11200	-11044	-3305	-652	123	132	1
-9308	-2180	12548	714	62	1349	-15852	-2240	-1524	-4440	5410	-1336	-13864	1872	4200	-8519	14541	-5647	-23180	9512	15856	11730	-32768	16511	-18960	4408	-10616	-4620	-32768	-3072	-2940	-868	-9880	-15178	-2079	971	126	125	1
-9180	-1824	12868	720	115	1671	-16472	-684	-1220	-3783	6516	-1376	-18788	1368	836	-7944	16276	-3800	-30004	15580	21696	8394	-32768	18056	-24088	6528	-14020	-7958	-32768	-3715	-5796	-40	-3972	-16465	-3122	2913	123	122	1
-9080	-1496	13176	543	542	1734	-15828	1012	-676	-4919	7812	-1827	-19456	1020	168	-5432	11188	-2091	-32768	19504	25460	1530	-32768	23447	-26668	9264	-13612	-9778	-32768	-5032	-11468	1572	3096	-15248	-11195	3654	126	122	1
-8932	-1472	13376	438	1271	1518	-15804	-1968	-1716	-4111	9006	-2220	-17524	-2832	1596	-3222	7512	-301	-32768	14160	15352	-4983	-32768	31645	-22224	2236	-17948	-5025	-32768	-6057	-16872	2988	4956	-10316	-11206	3910	129	121	1
-9108	-2164	13400	415	2375	1578	-17168	-3144	-2228	-738	9884	-1445	-15924	-3452	1900	-2852	11546	-350	-32768	9448	3840	-7519	-32768	32767	-17796	3908	-17324	-3406	-32768	-2254	-14296	-292	7352	-11551	-6079	1533	129	127	1
-9196	-2188	13560	786	3554	2185	-16468	-1704	-1560	-1373	11059	-1489	-16740	-1876	2848	-994	14357	-133	-32768	-14956	-15380	3975	-27831	22472	-16372	-2856	-15384	-2269	-28248	5650	-16884	-12584	32584	-14249	-6366	2485	129	126	1
-8680	-700	14508	818	5712	1927	-16760	-1120	-1216	58	12867	-1121	-17964	-212	5044	192	11575	-448	-32768	-31304	-27064	30544	-15293	6687	776	8768	-15628	15402	-7852	8572	-28020	-8872	32767	-5550	-3950	637	128	127	1
-8828	368	15828	70	9691	851	-19052	-784	-2200	3539	14973	-326	-18896	444	4500	1248	9998	-492	-32768	-13132	-16900	-512	241	-8827	-5212	13476	-17576	9460	8916	5197	-19472	1336	18352	8963	-6277	408	127	132	1
-9468	-2656	16552	3	14935	381	-21928	-404	-2428	4424	16651	-9	-21556	692	3308	-123	8069	40	-32768	-9260	-7264	-10375	5300	-15011	-8688	8660	-19796	-4463	19954	165	-14820	6404	-56	14811	-5763	4489	126	132	1
-9668	-2748	16420	-21	20518	1416	-22200	1100	-2236	1834	18179	-1045	-21212	1140	5580	-2642	5991	1273	2452	10660	4776	-26673	21085	-12454	-18124	3196	-1464	-15749	24236	2592	-12676	3736	-1136	15215	-82	8046	125	130	1
-9552	-2308	17384	-337	27813	2003	-23392	1232	-848	-500	20456	-1637	-22812	992	9220	-4220	1570	1505	2568	4572	17572	-25176	24170	-10907	-21652	-1272	8172	-18103	23148	2050	-18944	1640	6196	-6234	-6605	6786	128	126	1
-8568	-2140	18348	-233	32767	2061	-27560	2036	2180	276	22707	-1322	-24972	2476	15960	-4623	-6184	1220	-32768	-19648	24944	-8469	32767	-1755	-16244	-10648	-16304	-32768	23461	-121	-17996	5868	16916	-21653	8293	14060	131	113	1
-6092	-4504	21684	-1826	32767	2428	-32768	11916	5332	-1580	24471	-2396	-26812	7860	28964	-751	-19413	4997	-14060	-5080	19920	4215	15941	-13335	-12560	-13828	-11200	-12696	23317	4163	-21376	-20264	-25300	-20109	12469	-3250	127	126	1
-13024	-9636	21692	438	32767	9929	-32768	5160	11712	-20806	22887	-5027	-21044	18436	5776	8441	-2937	7224	-8184	20924	7856	-4234	20986	-8060	-16036	10264	-10824	-3020	17068	7633	-5740	-10240	-10296	7071	6484	-2062	129	106	1
-32768	-8404	19788	345	32767	20314	-29484	-17244	-4312	-18967	25701	-5410	-18820	9816	3824	-20590	-5270	9358	-25916	-2756	21136	-8652	6217	-14898	-15136	13432	-18164	-8793	13678	8738	-14376	3632	-6368	10563	7811	4111	140	126	1
-30948	-13864	27960	3810	32767	26617	-31808	-4404	-2956	-6919	25848	-6753	-30816	-1876	-14192	-22680	-3460	3126	-17072	-1636	18684	-5594	1783	-5345	-20508	-3404	-14388	144	12092	5235	-26868	14836	-12008	9616	12486	7505	115	101	1
-18856	-9448	32767	-8796	32767	21194	-24944	2868	-6948	-3828	21081	-6016	-31000	-1060	-14244	-23066	-5023	2336	-11056	4692	14420	-2018	329	-2095	-15888	4296	-9732	12428	10173	4219	-20680	6000	-6112	3037	9956	7150	121	109	1
-31564	-7180	32767	-24449	18308	8083	-18000	-552	-11116	-7572	11359	-3507	-31400	4012	-9860	-11964	-19958	576	-9556	2360	14292	-619	316	-1225	-16964	2520	-9144	6849	7709	3524	-15836	3284	-4936	1203	10516	3225	122	115	1
-8080	-25244	30484	-21215	-18177	-552	-15956	-1616	-3116	-15421	3311	-5092	-29112	4844	-10432	-6740	-18906	1319	-9052	1556	14540	521	1023	-602	-17384	3236	-8312	728	6291	2100	-17280	2052	-2024	-411	12180	2920	126	122	1
5300	-15360	16348	-3559	-26414	-5154	-11780	-3436	-1872	-9848	-5169	-6609	-27340	5076	-11512	-7344	-18503	-340	-9136	2900	14276	1334	1505	-89	-17404	3108	-8384	-359	6108	2002	-17700	-340	-1400	-2725	13907	1966	121	122	1
5952	-5860	11276	96	-24890	-10053	-6920	-3240	-2872	-2091	-14053	-4696	-20548	2132	-11552	-9077	-18024	-898	-9112	2708	13828	1629	1770	112	-16812	-2160	-6964	-1338	3376	2947	-16760	-900	-1804	-1159	14689	636	136	118	1
112	-3768	11020	-2317	-24561	-13646	-7120	-1344	-3816	3639	-21034	-2731	-16012	372	-11808	-7686	-18396	-2451	-9184	2704	13700	1295	1967	327	-16336	352	-5988	4698	2014	3596	-16992	-1240	-1764	-606	14750	480	135	127	1
-3812	-2936	12516	-2615	-27646	-14511	-7692	-880	-5004	6805	-26111	-1718	-13676	1156	-11296	-5669	-18645	-2895	-9508	3184	13584	1117	1834	539	-15852	2060	-4508	6685	1466	3473	-15668	1216	-680	2507	15129	284	131	133	1
-7484	-1400	14120	-1940	-32364	-14645	-7932	736	-6096	7166	-30627	-27	-10876	-140	-12080	-3027	-18897	-3476	-9600	3292	13524	1122	1771	555	-15356	2600	-3124	6077	1525	3509	-14860	1992	-712	1312	14559	893	134	137	1
-10900	52	15648	-1480	-32768	-14914	-8744	1056	-6628	5765	-32768	1602	-9060	-216	-11824	-281	-19531	-4201	-9544	3584	13204	695	1622	535	-14560	3672	-2768	3574	1911	3163	-15072	-148	1372	3055	15903	1677	136	137	1
-12516	2500	16828	-3302	-32768	-15363	-10488	1340	-7332	5184	-32768	4003	-6456	-1408	-11424	3366	-17096	-3609	-9664	3236	13020	493	1118	310	-14200	3172	-3240	2823	2478	2811	-13560	992	336	6557	14653	727	134	133	1
-14780	2240	17624	-6053	-32768	-14721	-12784	2136	-7488	2976	-32768	6100	-4776	-1736	-11988	6597	-15429	-2882	-9652	3808	12752	179	456	-77	-14400	3276	-2736	5098	2899	2655	-12884	2196	-20	9374	14005	219	134	132	1
-16616	1988	18960	-8663	-32768	-12473	-15568	1084	-7992	471	-32768	7342	-4436	-948	-13088	9623	-13940	-3450	-9372	3944	13112	-281	40	-817	-15080	4296	-3540	5803	3256	2441	-12204	3872	5156	7199	15153	1928	134	131	1
-21628	2936	19916	-14339	-32768	-10075	-20264	320	-9084	-269	-32768	8162	-4348	100	-11988	12115	-10965	-4077	-9352	3352	13284	-397	31	-1291	-15800	2936	-3724	3999	3692	2089	-13872	3844	-552	6570	18988	2159	130	129	1
-27964	-1136	22460	-17183	-32768	-8735	-24768	460	-10452	-491	-32768	9567	-3224	1068	-8448	13726	-10391	-5434	-9364	3052	13500	-415	263	-1660	-16236	788	-3284	4836	4256	2165	-19424	5948	-4612	11078	19155	442	126	126	1
-32768	-10440	26904	-13883	-32768	-11088	-30884	-2720	-12680	1728	-32768	9371	-8740	4028	4972	10482	-18108	-3738	-9236	3412	13860	-321	943	-1940	-16048	1376	-2220	6648	5151	2439	-20888	4060	-2672	7485	12717	-499	123	127	1
-32768	-15772	21004	-3483	-32768	-16883	-28644	-2980	-13772	-604	-32768	7881	-16996	6200	9928	10248	-15617	-493	-9284	3264	13756	-245	2150	-2038	-15904	4288	-1212	4922	6720	2113	-17128	4712	1936	-56	9156	212	133	127	1
-32768	-15364	19184	-2048	-32768	-18465	-23572	-3468	-16872	1301	-32768	6284	-17180	6080	7120	7595	-7897	-11	-9040	2872	14132	28	3283	-2107	-15340	4032	-348	2063	8684	1388	-15784	5976	5384	1410	10487	1071	127	123	1
-32768	-1980	3812	-1234	-32247	-26255	-22048	-5020	-14792	314	-32768	3967	-12072	7764	18880	8516	-11878	3022	-9120	3116	14280	252	5181	-2243	-15692	2976	664	257	11241	868	-17480	4840	6576	2524	11231	1335	127	121	1
-32768	-632	176	-1102	-31384	-24845	-11404	2228	-19720	-9380	-20975	-5537	-13020	15672	32767	14594	-8915	1774	-9292	2624	14828	466	7791	-2175	-16656	3452	-580	-2089	14009	225	-18940	4488	5808	2309	9895	939	124	123	1
-32768	29468	-32768	-18381	-4668	3543	-188	-14072	-21112	-16875	2244	-7260	-21564	11348	32767	1849	1582	-3450	-9140	3024	16288	1007	12394	-2038	-19956	3440	-1652	-4552	16925	-746	-20368	5800	3416	490	8011	1109	137	125	1
-32768	23176	-29792	-15722	-1436	6110	-10776	-9212	-20352	2551	16449	-2112	-18472	1968	5784	-10522	5167	-8951	-9264	4116	16608	1725	19328	-3102	-22116	76	-1956	-2626	19136	-373	-23024	3848	3856	1952	5655	387	134	122	1
-24020	-10964	-6020	29376	16489	14610	-17560	168	-12656	11679	23886	-4512	-12260	496	-2604	-19756	10819	-4296	-9320	4068	17120	1425	27673	-4202	-23284	-2012	-1672	1266	21265	143	-24036	2280	6704	4755	2179	-531	137	125	1
13108	-412	32767	15276	29689	-8993	-32768	25588	13260	25317	18658	1705	-11636	-2100	-3384	9274	13228	-3722	-8876	3564	18200	1981	32767	-4780	-26448	-2108	692	3367	23683	45	-25356	2312	11032	3002	-3091	-690	116	126	1
-30140	22784	17024	10522	32767	-4511	-23588	880	-15348	32767	17765	1467	-19644	-15512	12492	20279	338	-6201	-8168	5808	17880	2751	32767	-6208	-31540	-7760	4240	6699	25510	277	-27504	-268	18364	-1920	-12692	-1147	126	121	1
-18224	22668	27304	-966	20831	13187	-17896	17932	-7360	16554	22570	-5065	-23576	17884	-13784	32767	10840	-985	-11404	15332	18492	4067	32767	-13466	-32768	-7244	11852	23915	25122	2226	-28772	-7948	32767	-18033	-32768	-8914	110	127	1
-11756	-30512	6704	1321	21350	4833	-17808	-8900	-7068	11351	19758	-4852	-16796	15120	-13048	6033	4690	-954	-32768	13664	17356	732	32767	-30307	-27116	16872	-4636	18190	25855	4103	-20008	-12548	5316	9608	-10587	-11070	132	131	1
-15244	9036	17608	6140	17239	7504	-14764	-7120	-9500	12680	13122	-8221	-4900	-1968	-7796	-11146	6636	-327	-32768	14776	22136	-2383	32767	-32688	-28296	9936	-10468	10820	25878	4967	-27876	10292	-5340	20074	-18446	-4780	118	125	1
-20080	-10940	13296	8676	8783	5938	-19592	224	-12592	1130	12988	-7565	-19512	-896	-8112	-4726	11675	-8014	-28876	18936	25512	586	32767	-29399	-23904	3668	-9424	2879	21498	1867	-31380	8764	-14448	14113	-15467	559	118	127	1
-14048	-388	14792	3574	2326	2865	-20420	4456	-9284	-7964	13558	-4776	-23748	-2176	-8160	-10460	10908	-5753	-21624	7664	27988	13642	25648	-20319	-18748	3248	-13480	-7389	17117	2150	-29392	-1760	-6560	72	-24190	3611	119	123	1
-10180	-328	14116	2476	1295	1753	-16192	-4032	-7456	-14140	10675	-3894	-16552	-4360	-5604	-6854	11752	-2292	-24224	30264	32767	11032	-17375	-2730	-15556	840	-12384	6588	8346	1667	-26484	-1352	-5452	-1978	-25144	3016	122	108	1
-9224	-1900	13396	1297	895	1067	-17548	-5512	-6700	-4687	7684	-2739	-17248	-3496	-5416	1151	12896	-1320	1804	14380	16912	3070	-30072	6716	-11972	-3412	-6008	16732	-1008	2719	-27224	716	-6996	3723	-22437	79	122	146	1
-9060	-768	13748	-94	1329	558	-18468	-2964	-6440	5542	6008	-1116	-17996	204	-3964	7815	13739	-2712	9892	8088	8000	2181	-25750	11559	-7748	2492	-5192	18844	-8758	3003	-23208	3852	-7428	6953	-19351	-235	110	149	1
-9720	-1712	13284	-875	1671	82	-18428	912	-6068	6525	4351	-1248	-18148	4196	-4288	7242	14181	-1894	6252	5260	6772	598	-19518	12687	-5088	4760	-4664	4465	-15127	2990	-18852	2440	-9152	4888	-16518	766	111	140	1
-9968	-2024	12760	-444	1620	-420	-17024	2164	-5224	-804	3349	-1924	-16232	3148	-3680	4633	15154	-934	-2184	6488	10624	-1487	-19804	11132	-3268	5308	-6540	-8411	-19907	3070	-14300	-572	-10352	3047	-15011	1991	134	133	1
-9860	-2180	12636	363	1290	-1059	-16960	2040	-5288	-1991	3123	-2071	-16356	2836	-3248	4590	14626	-851	-6756	3872	14112	-1602	-26850	10186	-3992	2408	-7600	-10632	-24589	2793	-12772	3120	-10160	1783	-15044	3500	146	131	1
-9408	-1952	12752	689	980	-1518	-16508	-1656	-2620	-6581	3013	-2868	-15484	2760	-364	3578	15224	-1685	-9736	3080	15056	3852	-32768	11471	-6164	1408	-7836	-7637	-29396	1207	-10828	4308	-9644	-94	-13579	4078	145	130	1
-9256	-1656	12804	435	956	-1703	-15684	-2284	-1892	-2113	2843	-2519	-15684	2600	572	1459	14295	-1854	-10652	4608	14368	6748	-32768	12658	-8192	1600	-7576	-6026	-32768	248	-9900	4364	-9060	-2949	-11299	3383	140	127	1
-9188	-2140	12636	242	834	-1376	-15392	-1596	-1540	210	3173	-2283	-15136	2316	900	-1691	13519	-2784	-11900	5364	14524	7303	-32768	14054	-10368	804	-8120	-6837	-32768	-792	-7512	3112	-9552	-6427	-8911	1870	131	129	1
-9292	-2768	12560	233	611	-603	-16052	-1140	-1844	-2552	3528	-2485	-14256	1476	768	-7609	13316	-3724	-15760	5928	15788	7621	-32768	15951	-11836	-740	-9116	-5806	-32768	-1387	-6660	1072	-10572	-9138	-7140	363	127	131	1
-9280	-2708	12428	380	332	234	-15668	-2220	-1424	-5524	4082	-2671	-13652	-384	1016	-13382	13492	-3805	-16300	4492	14968	10254	-32768	17549	-12116	-764	-9168	-5252	-32768	-1498	-5052	592	-10368	-12870	-4298	434	130	132	1
-9180	-2196	12736	559	191	770	-15700	-3212	-1816	-5231	4883	-2274	-13856	-1516	4588	-9193	14335	-4156	-22504	7384	17872	10794	-32768	17948	-17188	3736	-10904	-5042	-32768	-2613	-3784	40	-7420	-17107	-1849	2433	124	127	1
-9320	-2268	12496	751	147	1280	-16692	-2024	-1636	-3778	5755	-1791	-14488	1600	2636	-6557	15286	-5552	-30776	10612	25304	7346	-32768	18389	-22432	5800	-11816	-6431	-32768	-2690	-6232	-660	-5176	-18349	-1251	4235	125	121	1
-9116	-2144	12988	932	189	1804	-15128	288	-612	-5177	6772	-1939	-17440	1504	360	-7642	16448	-3244	-32768	13688	27020	3791	-32768	21989	-25844	8420	-13744	-7622	-32768	-4783	-10576	1568	768	-14635	-7622	5005	119	121	1
-9092	-1652	13364	914	592	2052	-15388	-1800	-1472	-5454	8025	-2400	-20060	-2336	-960	-6526	6634	-1306	-32768	15172	19824	-835	-32768	26806	-24808	4192	-16052	-3638	-32768	-5710	-15768	2956	2972	-10299	-8426	5692	122	123	1
-9156	-1688	13600	844	1582	1937	-17584	-2776	-2968	-3174	9236	-1849	-17504	-3800	1208	-6608	7998	-1154	-32768	15112	18020	-1559	-32768	27676	-20448	6348	-16900	-8001	-32768	-2561	-15016	2208	5844	-11310	-4508	2895	126	131	1
-9168	-2248	13588	702	3125	2150	-17564	-940	-2092	-3350	10481	-1597	-17264	-156	2976	-3090	14071	-1276	-32768	-6820	-13380	3546	-28178	26695	-19116	-5976	-16148	-9483	-32023	4402	-18088	-14228	27552	-14704	-6118	2829	126	125	1
-9260	-1956	13504	783	3338	2190	-16076	-264	-700	-2460	12161	-1593	-17980	-616	5664	-2438	11129	-700	-32768	-30564	-27032	32767	-14126	15940	416	3368	-15752	15368	-11380	10219	-29468	-14316	32767	-9911	-2493	2322	130	127	1
-8616	184	16068	-301	9573	719	-16288	-308	-652	-1886	12523	-1438	-19800	-2168	6700	828	9681	-261	-32768	-17692	-18080	4633	1845	534	-2544	17624	-17116	12753	8431	6146	-19812	732	21148	5616	-3316	79	128	134	1
-9244	-2112	17264	-810	15597	-21	-23268	-404	-1312	5329	16855	486	-23744	252	5908	2098	6716	-80	-32768	-16288	-16612	-2898	3954	-2685	-9364	9792	-20880	-10001	21654	1059	-15332	9632	2800	10190	-6474	5713	127	124	1
-9316	-3012	17100	-846	22216	1130	-23196	2760	-656	3000	18974	-782	-23180	2668	8528	-1467	4374	1277	-2936	1948	15680	-28871	18753	-11885	-18408	-1876	636	-18492	24683	1518	-13976	5164	-2864	13286	1687	8451	127	120	1
-8452	-1080	18684	-1125	31164	1396	-25564	4044	600	-67	21780	-1625	-25128	2112	13560	-3422	-1486	2485	1000	-4912	29048	-6108	31924	1853	-32768	-12676	2968	-32768	19841	-9203	-17472	2272	1428	-7748	-1368	6682	129	136	1
