#Activity	walking 
#ActivityID	1 
#Date 09-09-17-34
acc_rf_x	acc_rf_y	acc_rf_z	gyro_rf_x	gyro_rf_y	gyro_rf_z	acc_rs_x	acc_rs_y	acc_rs_z	gyro_rs_x	gyro_rs_y	gyro_rs_z	acc_rt_x	acc_rt_y	acc_rt_z	gyro_rt_x	gyro_rt_y	gyro_rt_z	acc_lf_x	acc_lf_y	acc_lf_z	gyro_lf_x	gyro_lf_y	gyro_lf_z	acc_ls_x	acc_ls_y	acc_ls_z	gyro_ls_x	gyro_ls_y	gyro_ls_z	acc_lt_x	acc_lt_y	acc_lt_z	gyro_lt_x	gyro_lt_y	gyro_lt_z	EMG_r	EMG_l	act
-11844	-5364	9496	-230	1556	347	-15132	-3316	-4252	1337	1563	1062	-15524	-2080	-4768	1962	1207	789	-12464	3160	10644	229	264	-308	-16532	-784	-1352	-21	-1695	1945	-16612	704	-44	1595	4808	672	126	125	1
-12080	-4828	9444	-131	1601	630	-15380	-2596	-4324	1525	1629	1058	-15480	-1852	-4852	2147	1231	793	-12492	3212	10404	264	229	-219	-16440	-288	-1472	-287	-1446	1930	-16352	1556	-596	1377	4069	632	126	125	1
-12196	-4648	9332	17	1783	684	-15480	-2088	-4480	1136	1593	1085	-15496	-1384	-4952	2035	1339	922	-12508	3328	10508	327	307	-257	-16408	-300	-1196	-378	-1417	1782	-16192	2328	-1036	726	3472	657	127	126	1
-12092	-4512	9688	264	2098	581	-15704	-2448	-4172	1068	1574	1117	-15452	-1156	-5264	2258	1233	1034	-12564	3568	10532	228	253	-299	-16480	32	-1268	-552	-1176	1730	-16224	2696	-1172	159	3081	557	127	125	1
-12172	-4572	9448	266	2330	539	-15704	-2472	-4432	2067	1700	1167	-15808	-888	-5464	2621	1161	1066	-12628	3400	10496	81	233	-485	-16560	-32	-1804	-912	-1181	1683	-16436	2452	-1288	-240	3102	448	126	126	1
-12348	-4344	9276	313	2477	492	-15376	-2276	-4720	2860	1790	1230	-15440	-1016	-5544	3175	1010	1118	-12576	3292	10468	145	245	-376	-16736	-644	-1668	-353	-1427	1559	-16324	1992	-1564	-160	3160	407	126	126	1
-12544	-4080	9236	242	2470	247	-15216	-1856	-5068	3373	1810	1269	-15020	-1012	-5808	3384	1011	1137	-12632	3308	10504	182	267	-423	-16684	-288	-1324	302	-1073	1621	-16376	1580	-1584	122	2800	287	125	126	1
-12656	-4080	8996	14	2412	-101	-15276	-1220	-5412	2520	1582	1251	-14908	-640	-5900	3091	1068	1265	-12684	3136	10540	246	228	-448	-16548	-284	-1400	395	-990	1677	-16472	1220	-1356	390	2332	242	126	126	1
-12640	-4320	8784	-99	2239	-250	-15028	-1612	-5400	1217	1371	1064	-14676	-456	-5980	2584	1007	1363	-12608	3100	10560	304	256	-311	-16660	-296	-1404	678	-891	1567	-16376	1288	-1316	465	1903	458	126	126	1
-12504	-4592	8628	-58	1952	-231	-14824	-2216	-5492	843	1246	949	-14408	-648	-6140	2019	994	1260	-12616	3208	10512	361	394	-179	-16624	-24	-1160	620	-725	1482	-16164	1448	-1568	1028	1621	619	127	126	1
-12676	-4796	8684	43	1716	-76	-14932	-2208	-5400	754	1074	874	-14460	-748	-6352	1673	979	1048	-12756	3396	10452	316	378	-272	-16628	268	-1276	382	-704	1482	-16332	1480	-1836	1597	1546	675	127	126	1
-12648	-4632	8584	61	1578	150	-15032	-2140	-5604	536	883	806	-14832	-912	-6412	1465	889	901	-12704	3032	10336	316	316	-218	-16492	-128	-1480	387	-747	1416	-16420	1720	-2008	1444	1551	945	128	125	1
-12756	-4340	8616	91	1356	213	-14972	-1996	-5364	475	760	718	-14828	-1024	-6096	1262	824	927	-12656	3172	10316	320	312	-40	-16552	-44	-1148	797	-554	1246	-16128	1864	-2084	1442	1252	998	127	126	1
-12784	-4316	8372	37	1096	175	-14940	-1596	-5516	96	659	745	-14756	-924	-5784	906	749	1043	-12596	3308	10360	400	282	-36	-16492	172	-1252	963	-534	1245	-16088	1960	-2432	1754	969	861	128	126	1
-12780	-4360	8572	5	965	127	-14968	-1824	-5084	-468	638	688	-14868	-1080	-5596	646	637	1191	-12736	3056	10348	457	160	55	-16388	12	-1368	1486	-507	1248	-16092	1872	-2504	1956	854	829	127	125	1
-12680	-4524	8700	23	894	129	-15076	-2460	-4952	-116	753	737	-15040	-1200	-5416	822	702	1244	-12696	3260	10292	476	138	171	-16420	296	-1064	1749	-436	1124	-15840	1980	-2436	2219	440	906	128	126	1
-12700	-4520	8760	46	877	197	-15228	-2360	-5008	673	905	769	-15168	-1232	-5416	1202	844	1234	-12680	3344	10352	481	21	131	-16544	524	-1276	1646	-342	1118	-15884	1848	-2460	2613	171	868	126	126	1
-12796	-4432	8700	106	893	242	-15480	-1876	-5008	533	894	761	-15468	-1176	-5456	1491	977	1250	-12656	3168	10364	473	19	213	-16500	236	-1688	1701	-423	997	-16096	1804	-2492	2753	174	954	126	126	1
-12796	-4472	8652	136	950	287	-15224	-2008	-5004	258	933	781	-15360	-1120	-5456	1689	918	1330	-12664	3244	10356	565	41	326	-16664	104	-1384	2397	-437	957	-16044	1836	-2260	2942	-15	1037	125	126	1
-12808	-4368	8540	97	961	293	-15088	-2108	-5044	663	1126	782	-15216	-1112	-5320	1899	801	1339	-12592	3448	10448	683	-17	388	-16724	412	-1056	2929	-412	994	-16132	1932	-2320	3632	-64	1102	125	125	1
-12812	-4532	8540	138	944	419	-15172	-2124	-5032	747	1288	817	-15284	-1096	-5408	2181	627	1364	-12684	3396	10348	729	69	380	-16740	380	-1332	2984	-376	977	-16300	1948	-2336	3937	-140	1127	128	125	1
-12760	-4392	8800	207	1078	579	-15284	-2308	-5028	1370	1430	835	-15256	-1204	-5648	2702	660	1293	-12652	3628	10296	673	52	329	-16708	524	-1116	2772	-389	882	-15872	2056	-2488	4030	-187	1129	126	125	1
-12880	-4348	8656	253	1183	628	-15368	-2064	-5212	2004	1542	940	-15328	-1152	-5928	3007	672	1313	-12700	3608	10144	581	39	271	-16540	768	-1288	2469	-364	877	-15808	2412	-2544	3895	-187	1077	123	126	1
-13000	-3812	8656	159	1332	414	-15280	-1408	-5520	2097	1524	970	-15288	-864	-5996	3012	472	1372	-12736	3456	10272	502	-49	207	-16508	744	-1260	2421	-382	825	-15880	2644	-2232	3381	-95	1065	123	126	1
-13076	-3984	8412	-3	1379	207	-15272	-1076	-5684	1133	1340	1000	-15136	-448	-6144	2429	304	1470	-12536	3692	10280	458	-77	146	-16704	728	-824	2133	-391	729	-15980	2756	-2112	2920	-67	945	123	126	1
-13032	-4096	8508	-60	1400	116	-15160	-1476	-5848	552	1242	882	-14908	-208	-6280	1785	156	1468	-12552	3596	10388	453	-9	106	-16788	684	-708	1656	-278	693	-16256	2528	-2136	2550	-28	759	125	126	1
-13104	-4152	8380	-45	1334	-26	-15088	-1788	-5912	652	1161	856	-14744	-140	-6560	1479	153	1192	-12644	3632	10340	360	57	36	-16740	604	-880	1064	-260	669	-16264	2308	-2092	1961	61	684	127	126	1
-13100	-4248	8216	40	1263	4	-14976	-1684	-6024	716	1070	873	-14856	-192	-6620	1224	108	930	-12672	3468	10280	369	25	60	-16564	228	-964	823	-279	697	-16076	2128	-2048	1333	131	674	127	126	1
-13044	-4380	8112	28	1167	145	-14936	-1700	-6080	716	1088	840	-14676	-368	-6708	864	-28	757	-12684	3600	10276	397	85	124	-16548	332	-696	1005	-153	688	-16068	2048	-1844	974	165	583	127	126	1
-13136	-4224	8116	57	961	160	-14836	-1368	-6340	444	783	672	-14624	-452	-6880	439	-110	610	-12636	3476	10320	411	44	174	-16524	356	-800	944	-50	758	-16072	1960	-1736	810	195	466	126	125	1
-13120	-4228	8204	38	768	226	-14948	-1500	-6208	-24	589	612	-14736	-532	-6664	-136	-252	542	-12740	3540	10308	506	101	289	-16636	296	-1160	919	61	687	-15924	2096	-2088	754	229	452	128	134	1
-13136	-4400	8056	150	673	403	-14896	-1756	-6472	-144	405	488	-14596	-716	-6900	-536	-102	513	-12672	3648	10412	471	-4	344	-16732	612	-1296	723	46	726	-15952	2048	-2576	766	318	489	128	136	1
-13184	-4288	8008	194	515	520	-14784	-1656	-6496	-6	222	397	-14524	-812	-6924	-510	-13	412	-12696	3560	10252	467	-77	354	-16472	640	-1404	560	113	680	-15896	2164	-2620	783	449	514	128	129	1
-13228	-4180	7940	261	274	587	-14744	-1264	-6364	-344	7	344	-14668	-740	-6860	-474	10	386	-12704	3528	10116	437	-129	488	-16340	500	-1372	711	45	623	-15896	2184	-2752	760	444	518	127	123	1
-13296	-3900	7988	308	87	536	-14796	-1360	-6140	-522	-152	332	-14620	-692	-6500	-617	-81	420	-12500	4124	10316	412	-199	302	-16800	480	-920	1145	41	690	-15652	2256	-2816	871	630	386	125	121	1
-13212	-3880	8192	250	-101	438	-14840	-1216	-6172	-545	-186	236	-14604	-656	-6228	-586	-67	489	-12512	3824	10348	358	-141	191	-16976	736	-1024	1045	-110	861	-16272	2112	-2916	602	440	247	127	119	1
-13196	-3900	8100	265	-195	401	-15072	-1480	-6032	-251	-205	281	-14852	-724	-6124	-404	67	469	-12624	3620	10272	452	-25	287	-16672	476	-924	382	-63	786	-16300	1996	-2492	-200	317	312	129	120	1
-13160	-4156	8172	256	-199	417	-15228	-1688	-5816	40	-269	248	-15088	-708	-6220	-57	197	490	-12620	3580	10328	527	101	414	-16572	208	-1280	202	-193	741	-16044	1944	-2368	-191	354	279	128	121	1
-13100	-3940	8420	244	-144	503	-15248	-1548	-5724	144	-259	178	-15264	-620	-6096	262	198	449	-12712	3652	10192	533	123	539	-16600	652	-1140	545	-70	766	-15900	2172	-2512	247	463	301	126	124	1
-13136	-3872	8280	203	-81	479	-15320	-1312	-5632	-49	-209	173	-15408	-576	-5860	212	3	427	-12696	3796	10300	592	78	556	-16516	1036	-1220	703	-22	725	-15992	2516	-2404	173	422	397	124	124	1
-13236	-3996	8368	182	-7	486	-15156	-1648	-5368	-7	-183	260	-15356	-616	-5608	71	-107	392	-12464	3924	10220	562	-30	534	-16520	912	-980	871	2	602	-15952	2588	-2352	107	334	408	125	125	1
-13204	-3920	8404	249	52	507	-15072	-1868	-5512	438	-11	248	-15208	-656	-5436	200	-71	382	-12596	4044	10260	567	-52	465	-16564	932	-792	935	18	620	-16112	2556	-2264	265	364	345	126	126	1
-13224	-3728	8344	248	81	523	-15160	-1556	-5496	784	60	284	-15120	-544	-5580	267	-27	318	-12600	3876	10264	575	-25	483	-16580	920	-860	936	109	558	-16240	2496	-2200	373	295	270	127	126	1
-13180	-3820	8304	261	115	452	-15176	-1124	-5512	302	64	263	-15180	-328	-5612	5	-75	297	-12504	3964	10204	543	4	566	-16600	824	-924	617	148	485	-15992	2352	-2140	356	347	191	128	126	1
-13156	-3684	8448	261	222	445	-15348	-1368	-5592	-112	25	181	-15324	-220	-5788	-322	-74	320	-12624	3980	10188	573	144	526	-16716	780	-1364	588	200	476	-15824	2120	-2444	736	487	99	128	127	1
-13264	-3684	8524	188	310	355	-15392	-1312	-5728	-424	43	246	-15364	-220	-5680	-552	-62	288	-12588	3996	10232	544	71	543	-16620	720	-1228	878	124	505	-15812	2180	-2656	794	585	125	127	126	1
-13176	-3764	8364	160	374	357	-15224	-1400	-5488	-514	60	228	-15220	-324	-5824	-703	-113	202	-12520	4232	10324	498	102	591	-16704	904	-928	858	198	465	-15972	2184	-2588	699	524	207	125	126	1
-13244	-3472	8424	71	420	271	-15020	-1292	-5480	-232	105	220	-15156	-392	-5632	-674	-192	148	-12636	4072	10132	465	73	455	-16644	1036	-1048	713	195	424	-16108	2340	-2624	675	512	246	125	126	1
-13236	-3500	8232	-7	454	95	-15072	-1048	-5620	-422	195	296	-15044	-360	-5384	-698	-294	151	-12616	4112	10060	390	-2	488	-16440	948	-1244	650	198	428	-16084	2408	-2264	386	501	318	127	127	1
-13296	-3532	8144	-27	397	14	-15056	-1188	-5660	-697	231	284	-15008	-496	-5300	-770	-270	192	-12680	4032	10240	470	-167	555	-16356	936	-1536	1566	721	374	-15860	2360	-2388	414	439	288	127	127	1
-13312	-3520	8300	-103	379	-83	-14932	-1556	-5340	-706	407	328	-15072	-736	-5300	-577	-280	255	-12976	3908	10172	1524	-550	712	-16364	892	-96	4205	1786	463	-16068	2520	-1988	275	336	281	127	128	1
-13276	-3688	8240	-122	357	-128	-14912	-1792	-5260	-552	630	454	-15476	-972	-5056	-161	-572	229	-12772	3852	10344	1805	-745	1049	-16376	1112	-1040	3534	1974	277	-16284	2556	-1532	-44	127	284	127	126	1
-13260	-3768	8236	-98	365	-86	-14836	-1736	-5080	-64	891	570	-15316	-1044	-4768	-141	-818	135	-13392	3184	10200	2690	199	1689	-16344	828	-760	4016	3537	85	-16372	2444	-1364	28	6	152	124	126	1
-13276	-3688	8208	-109	294	-100	-14864	-1624	-4736	-138	1278	702	-15576	-924	-4404	46	-1416	70	-12508	4684	10784	2598	-106	2115	-16772	696	-988	3194	2883	-2	-16452	2584	-1336	-393	23	227	125	125	1
-13348	-3492	8208	-101	295	-183	-14944	-1604	-4760	-204	1347	746	-15980	-712	-3588	257	-2356	-101	-12024	4840	10220	1956	-462	1923	-16964	932	-1748	1708	2812	-134	-16424	2500	-1652	-306	315	151	128	125	1
-13328	-3352	8252	-240	200	-355	-14572	-1564	-3896	-196	2675	1216	-16052	-480	-2468	-167	-3523	-280	-13284	4648	9960	1219	-528	1460	-16376	1588	-1152	1469	2982	-242	-15848	3132	-1812	-701	529	217	127	127	1
-13152	-3824	8688	-227	490	-423	-15048	-1976	-3820	148	3520	1546	-16436	-372	-1884	-648	-4499	-487	-11936	5280	10048	1216	-1371	1408	-16448	1496	-1212	234	3089	-460	-15980	3752	-2004	-1275	497	287	130	127	1
-12984	-3888	9112	-232	1300	-287	-16108	-2256	-4356	279	4189	1760	-17312	-188	-1476	-1227	-5152	-718	-12076	5016	10424	1166	-1262	1152	-16672	796	-1428	-914	2884	-600	-16016	3264	-2052	-1922	273	28	130	123	1
-12996	-3924	9124	-243	2228	-133	-16428	-1620	-4016	-650	4851	2077	-17812	-84	-848	-1903	-6066	-892	-11908	5040	10396	1339	-1063	1233	-16676	308	-1824	-1005	2824	-703	-16208	2860	-2176	-2049	390	-316	126	126	1
-12980	-3720	9396	-369	3299	-140	-16176	-1356	-3444	-1760	5601	2358	-17672	-112	-104	-2668	-7717	-1168	-11668	5104	10296	1330	-745	1069	-16476	660	-1836	-756	2891	-516	-15796	2932	-2136	-1832	609	-419	128	127	1
-12960	-3652	9572	-597	4795	-181	-16344	-1308	-3152	-2804	6634	2607	-17964	196	1120	-3958	-10133	-1072	-11856	5084	10212	1327	-479	967	-16248	920	-2128	-1311	2891	-659	-15424	2384	-2184	-2245	780	-618	127	125	1
-12940	-3924	9772	-845	6566	-211	-16676	-1540	-2448	-3887	7857	3129	-17820	528	3216	-4696	-13754	-721	-11500	5228	10204	1325	-297	726	-16252	384	-2076	-1602	2861	-723	-15260	1780	-2412	-2650	1138	-779	117	127	1
-12972	-4492	10460	-888	8790	93	-17456	-1612	-2040	-4224	9290	3384	-17440	564	6320	-5609	-18314	-513	-11700	5232	10152	1187	109	593	-16164	-88	-2680	-1244	2668	-412	-14760	1524	-2996	-2128	1551	-979	114	128	1
-12748	-4828	10848	-1112	11752	719	-18584	-824	-2848	-4563	10740	3119	-18524	952	8832	-8136	-18871	-735	-12324	4652	10308	1338	14	662	-16376	-52	-3200	-1104	2679	-230	-14816	1688	-3604	-2103	1952	-1279	121	133	1
-13472	-4976	10840	-1650	15615	1423	-19052	-136	-5624	-5115	11709	2653	-16332	1172	1744	-12524	-13911	-252	-11640	5612	10080	1159	179	704	-16596	516	-3524	-2003	2200	-164	-15240	2624	-4096	-3297	2462	-1374	128	137	1
-15952	-5936	10552	-3053	19008	3167	-18848	-552	-6384	-8859	12095	1618	-18268	3000	328	-7351	-13509	-1306	-12668	5072	10104	1142	274	497	-16380	316	-4072	-2505	1724	8	-15088	2952	-4268	-3962	2920	-1995	147	125	1
-21616	-2468	10468	-7387	19416	3824	-18292	-948	-7312	-10637	12706	1060	-21872	2140	-3108	-8123	-12509	-3481	-11776	5848	10160	976	282	585	-16828	480	-3916	-2049	1390	86	-15296	3536	-4504	-4996	3346	-2293	84	122	1
-19484	-3424	9032	-16479	16956	3544	-17504	1800	-11392	-6086	13849	1613	-21664	2192	-3080	-8267	-12605	-3793	-12132	5364	10300	705	364	432	-16556	720	-3784	-1890	1060	147	-15544	3424	-4544	-5938	3579	-2582	73	123	1
-16412	-5116	6920	-21986	14209	3932	-16068	2852	-11920	-4514	12340	20	-21388	4432	-3020	-4461	-14595	-4359	-12072	5592	9984	527	378	376	-16428	912	-3488	-1745	856	14	-15868	3012	-3908	-7071	3469	-2834	77	123	1
-13240	-5508	10856	-21905	11019	4497	-13980	3640	-11064	-5833	9549	-2820	-20048	4176	-1196	-3397	-15150	-2706	-11868	5856	10052	108	486	166	-16456	1344	-2856	-1604	790	-113	-16236	2940	-2592	-7371	3111	-2492	112	116	1
-5440	-9068	18536	-12583	2468	4417	-14356	3768	-4928	-11037	4377	-5543	-18132	2912	-2636	-6329	-13426	-777	-11908	6016	9852	-83	488	-119	-16112	2056	-2028	-1413	1304	-474	-16680	2912	-976	-6425	2535	-2091	153	124	1
-5816	-2184	19028	-5079	-6242	2151	-12232	2128	-3676	-10804	-1559	-7299	-17000	-216	-2472	-9102	-11456	-505	-11660	5820	9936	-363	697	-679	-16284	2176	-1720	-1112	1805	-894	-16924	2976	504	-4760	2139	-1641	141	122	1
-3752	728	17088	-5917	-9870	1726	-12300	1948	-1828	-8784	-6859	-8309	-15812	-1108	-1612	-8989	-10275	58	-11708	6060	9804	-773	901	-1389	-15984	2120	-1852	-812	2483	-1284	-16492	2588	576	-2058	2569	-1242	152	117	1
-6376	-260	16732	-4942	-14294	2287	-12648	1200	-3492	-4262	-11021	-8750	-15560	-1760	-524	-6084	-9356	154	-12012	5428	9960	-810	771	-1918	-16004	1300	-2316	-488	3053	-1572	-15688	1712	-668	1042	3285	-1118	160	116	1
-7548	652	16292	-2825	-18113	3137	-14364	1864	-3132	-953	-14779	-9182	-15556	-2472	-60	-2980	-8733	638	-11644	5468	9820	-1282	873	-2379	-16180	1284	-2668	-289	3389	-1730	-15316	1444	-2048	3046	3534	-973	146	124	1
-9684	912	16108	-1759	-20549	3431	-15668	2372	-3480	665	-18249	-8893	-15028	-2324	208	-664	-8502	1593	-12600	4904	9956	-1255	688	-2539	-15904	1056	-3532	-782	3682	-1955	-15296	1864	-3380	3374	3454	-593	137	129	1
-12324	664	16312	-834	-22676	3481	-16580	2532	-3868	921	-20753	-8528	-14300	-1644	1044	1080	-8003	2026	-12352	5160	10064	-1404	587	-2649	-16100	760	-3696	-1505	3739	-2229	-15256	2572	-4208	2384	3161	-511	113	129	1
-13792	644	15924	-173	-24260	3052	-17584	2364	-3836	1202	-23133	-7931	-13516	-856	2604	2189	-7409	2259	-12444	4808	9984	-1446	663	-2617	-15984	200	-4228	-1546	3809	-2202	-15068	2828	-4796	1418	3179	-855	112	129	1
-14792	744	15268	-171	-24771	2526	-17972	2068	-3948	1465	-24833	-7296	-12980	-196	4204	2834	-6715	2181	-12516	4732	10040	-1304	852	-2672	-16144	176	-4532	-1260	3806	-2302	-15280	3116	-4756	124	3353	-1248	113	130	1
-15908	240	14500	-694	-24362	2543	-17884	1724	-3988	1424	-25749	-6698	-12448	268	5024	3184	-5592	2323	-12620	4488	10232	-1287	941	-2662	-16024	-160	-4712	-1174	3757	-2205	-15068	2464	-4736	-517	3879	-1661	132	130	1
-16348	-908	13600	-781	-23257	3594	-18052	896	-3716	1099	-26286	-6779	-12136	1196	5612	2411	-4346	2639	-12692	4260	10040	-1043	1046	-2632	-16064	-208	-4672	-688	3690	-2158	-15108	1500	-4240	-667	4161	-2033	105	130	1
-17576	-1000	13088	-631	-21720	4961	-18140	456	-3328	340	-26333	-7190	-12284	1812	6716	1505	-3587	2613	-12944	4284	10048	-1018	1010	-2515	-15940	-264	-4220	-396	3945	-2176	-15360	988	-3996	-897	4203	-1828	119	131	1
-18872	-328	12480	-1850	-20906	5426	-17900	32	-3872	-1030	-25621	-7166	-12432	1964	7488	237	-2636	2148	-12588	4400	10164	-956	1191	-2445	-16048	244	-4336	-792	4195	-2287	-15440	640	-3584	-391	4172	-1466	130	130	1
-20344	584	11900	-4568	-21266	4827	-17268	-736	-3840	-2826	-24745	-6851	-12316	1380	7476	-1126	-1535	1540	-12336	4464	10088	-940	1463	-2306	-16124	-8	-4284	-913	4406	-2578	-15768	648	-2896	670	4230	-1071	135	131	1
-19808	340	9936	-7298	-22946	3332	-16068	-816	-3720	-3592	-22686	-6341	-12764	584	7196	-2609	-1383	1267	-12620	4244	9956	-1047	1512	-2249	-16036	256	-4256	-1187	4869	-2795	-15488	956	-2868	1974	4512	-685	135	126	1
-17736	-720	7636	-8067	-23119	3188	-15300	-1724	-3420	-2797	-20746	-5992	-13156	-712	7380	-4369	-3124	1550	-13412	3568	10308	-1079	1751	-1982	-16384	-256	-4500	-933	5253	-3137	-15716	1248	-3268	3932	4853	-651	119	126	1
-17912	-248	5604	-7519	-21164	3260	-14524	-1632	-2968	-2384	-18580	-5468	-13084	-1480	7236	-5514	-5173	2384	-12696	4316	10424	-357	3056	-1587	-16600	56	-3956	-682	5766	-3507	-16184	1984	-3412	4408	4663	-614	114	126	1
-19244	288	2280	-7840	-19104	2804	-14032	-780	-4664	-1912	-15024	-4551	-13036	-1072	7964	-5493	-6023	2450	-13204	4456	10156	533	4000	-1893	-16844	232	-4292	-184	6427	-3956	-16656	2884	-3104	4575	4194	-760	128	127	1
-19160	716	-1224	-7867	-16205	2799	-12628	-796	-6176	-3024	-10938	-3469	-14124	-740	10160	-5001	-6047	1972	-13648	4232	10340	455	3974	-2416	-16456	84	-4492	-800	7849	-4484	-16788	3524	-2304	4416	3683	-863	132	127	1
-19808	1568	-4724	-6943	-11931	3430	-11040	-756	-6616	-4790	-5962	-2495	-15400	-620	10480	-3002	-2807	1686	-14256	4252	10460	38	4157	-2862	-16432	-204	-4672	-1113	9106	-4908	-16248	3196	-2432	4334	3449	-960	138	125	1
-14772	1012	-9444	-10832	-56	6476	-12148	-1540	-6360	-6154	-607	-1088	-14576	-480	10768	-4647	839	1003	-13088	4920	12780	-698	5200	-3144	-18248	-1264	-5040	-231	9620	-5320	-16568	2388	-3044	4746	3426	-1315	125	123	1
-22508	3540	-12696	-8290	8606	8150	-10556	-1788	-10728	-3352	6810	1468	-14284	-1132	10884	-6050	2472	354	-14004	4152	11796	-1663	8030	-4973	-18796	-3220	-5372	233	10224	-5598	-19240	1044	-3460	4722	3200	-1963	132	122	1
-12004	-2316	21028	-6748	14619	7993	-16204	-5372	632	-16215	12162	3386	-14972	-3392	6652	-4920	4072	129	-13664	3528	12744	-2417	11139	-4872	-19572	-2780	-5088	1055	11204	-6164	-18440	1580	-1812	4369	2224	-2505	124	121	1
-5240	-19192	6052	1629	16610	9778	-26068	-4712	4400	-3549	7203	-485	-19592	-204	5108	-4215	6342	1961	-13536	4308	12236	-3169	15643	-5624	-19992	-2180	-4380	-941	10880	-6955	-18584	1828	-1632	4469	2181	-2557	104	124	1
-19876	-9708	11724	5760	17990	2321	-12440	-8708	744	-1161	9895	-613	-17200	772	6684	2360	3561	2001	-12864	3208	12656	-4004	20640	-5851	-19420	-3012	-3964	-1241	11804	-7680	-19692	3472	100	4325	794	-3058	140	125	1
-15920	-1112	12364	8910	17482	4114	-16252	-7488	-2148	3231	12734	-83	-15016	-9964	8068	8099	5312	-4277	-13488	5240	11480	-3394	27008	-7750	-19812	-1636	-2300	-1441	12702	-8307	-19088	3796	1756	3436	-2521	-3795	129	127	1
-21416	11352	15032	1099	15234	2454	-20736	-1156	-2600	12055	13442	2232	-14880	-11716	7072	8731	6027	-5633	-14376	7088	11180	-2510	32585	-10733	-21596	208	-1696	-1633	13760	-8448	-20700	3696	5964	3771	-8828	-4753	133	122	1
-17252	-4848	12724	-450	10484	532	-19992	3572	-6096	7879	14013	4561	-17964	5524	712	14099	9503	-1877	-17924	8460	9860	-623	32767	-16045	-22872	292	64	-623	14760	-8259	-22472	4484	10480	6555	-20883	-4860	128	115	1
-14952	904	12340	841	5094	2138	-15464	-3312	-6444	2791	12670	1243	-16360	7896	-4156	2523	11430	576	-23348	7640	9116	-1607	32767	-20995	-23368	1800	-1652	570	17550	-8922	-18364	1212	5760	2306	-17484	-2391	113	107	1
-13780	-412	11468	328	4101	715	-15636	1480	-6516	4568	11273	-509	-15748	3884	-5312	-6131	11409	-2838	-22448	5936	9216	-1485	32767	-23067	-21484	584	-2524	-4175	19874	-10148	-18384	1280	-528	-1485	-12256	761	99	107	1
-12844	-1976	11024	-564	3267	-346	-16876	1572	-6824	-5040	8915	-829	-14440	1484	-4440	-10688	9648	-2722	-24928	8900	6436	-4968	32767	-26750	-22128	1560	-5112	-4048	19680	-10240	-19068	2384	-4624	-4195	-12563	4210	96	115	1
-12424	-2640	10908	-936	2470	-774	-16384	-1100	-6300	-11125	6592	-2059	-14564	1144	-4364	-11420	9382	-2631	-25420	12860	9828	-9598	32534	-29642	-19596	264	-7772	-6000	19260	-9050	-20656	116	-5804	-1410	-15346	5062	157	114	1
-11852	-2136	11040	-1104	2132	-1172	-16244	-2364	-5104	-10949	5071	-2534	-17308	-3488	-3180	-9971	11271	-1930	-10664	18660	13184	-13560	32767	-32768	-17680	2536	-4300	-3315	15647	-5091	-23204	-3080	-5376	-2264	-17331	4856	151	97	1
-11796	-2356	10944	-1114	2135	-1174	-15784	-4248	-4048	-8029	4480	-1938	-17672	-4520	-2180	-5736	10651	-870	-32768	4552	13428	-17667	7168	-18531	-11972	-976	-20188	-13993	9291	-3069	-23160	636	-5048	-1595	-19566	6391	148	120	1
-11756	-2048	10980	-1455	1924	-1677	-15176	-4716	-3928	69	4489	-1232	-15680	-3312	-832	-3370	9928	557	-19184	4236	17692	-6563	-18797	5533	-15828	-2640	-9680	-7600	984	-4055	-22904	4516	-4652	-2473	-20311	8710	132	143	1
-11908	-2728	10524	-1417	1772	-1666	-16368	-2828	-4692	-378	3821	-1072	-15400	-2780	-652	-3360	10319	1258	-5740	9252	12520	-310	-23129	11324	-14400	-1620	-2120	4889	-2646	-4115	-22872	4524	-5052	-3610	-19881	9570	158	116	1
-11652	-3548	10460	-1260	1596	-1289	-15448	-3460	-3836	-5250	2996	-946	-16024	-3296	-128	-4142	10562	863	-9792	9408	9480	-1693	-24502	11348	-10756	1552	-7904	3424	-9850	-729	-22752	4260	-5084	-3887	-19879	9497	172	116	1
-11216	-3552	10296	-982	1635	-697	-15364	-3888	-3160	-7231	2513	-1377	-15916	-2716	668	-5789	10555	629	-12416	8348	8648	-5148	-31246	14329	-8032	-52	-8652	-3829	-16339	411	-19336	3060	-3672	-11565	-20222	7968	189	113	1
-11500	-3152	10192	-603	1762	-130	-15448	-6356	-3952	-5468	1610	-413	-15844	-1764	280	-7881	7468	1084	-10760	6080	8704	-6294	-32768	15089	-11792	1408	-7336	-5031	-21689	-360	-18260	3612	-3984	-16823	-19864	7835	168	144	1
-12048	-2292	10580	-447	1793	-128	-15728	-4300	-2712	-3282	3593	-64	-15892	-1112	1320	-9855	13046	25	-10784	2820	7612	-2457	-32768	15532	-12092	-3004	-7224	-3853	-24597	2561	-17540	1568	-4348	-17328	-18514	5407	124	136	1
-11804	-2756	10324	-486	1893	-21	-15812	-3188	-2748	-3990	3638	466	-16072	-1920	1200	-7565	9745	-403	-11944	4532	7896	1547	-32768	14688	-12560	-1168	-9076	-833	-28198	4637	-16592	84	-4388	-17337	-17962	4970	151	152	1
-12000	-3276	10176	-324	1870	75	-14760	-4448	-2844	-4824	4336	763	-16032	-2580	1524	-5919	9447	-491	-16120	5384	8912	3029	-32768	12994	-13024	-2208	-10516	718	-32400	5377	-15184	-1524	-3692	-15870	-16543	4234	151	167	1
-11884	-3752	10116	-15	1958	586	-14600	-5256	-3164	-3691	5016	1174	-16564	-4112	-1296	-6989	8034	-128	-18168	4432	8908	5104	-32768	13030	-13912	-2392	-10420	3282	-32768	7758	-13068	-1916	-3612	-13405	-14091	4048	106	159	1
-11788	-3488	10092	367	2223	1179	-15244	-4360	-3996	-2064	5326	1542	-15880	-4944	-2008	-6089	6841	347	-17504	5388	8412	6746	-31747	14055	-14628	-2656	-9596	3438	-32768	10060	-10796	-3000	-3560	-10127	-11064	4140	93	154	1
-12052	-3300	9972	809	2315	1655	-15260	-3736	-4744	-401	5577	1762	-15664	-4940	-2136	-5811	6780	426	-20988	6868	9644	6273	-27247	16642	-15140	-2804	-10944	1962	-32768	11521	-9120	-3760	-2896	-6478	-7463	3973	81	141	1
-12176	-2444	10232	1319	2228	1447	-15664	-2368	-5472	1355	5734	1972	-15324	-1776	-2936	-2403	8885	652	-25684	7104	10960	6116	-25882	22255	-16452	-2708	-11544	30	-32768	12646	-8376	-3792	-2156	-2001	-3591	3565	62	129	1
-12536	-2236	10376	1654	1865	1001	-16272	-1168	-5232	797	5371	1723	-15500	784	-2852	-1700	9395	642	-26136	5000	11284	6886	-25036	24377	-19032	-2532	-11024	-456	-32768	14688	-8256	-3852	-520	1495	-1989	3371	106	120	1
-12624	-2428	10380	1702	1502	552	-16204	-2076	-4884	-1264	5035	1432	-16424	340	-2464	-1428	8789	889	-32508	-1020	9764	10638	-23221	24050	-19012	-4028	-14748	-3236	-32768	14942	-8820	-2948	1820	1279	-3120	3598	137	116	1
-12520	-2520	10512	1684	1465	518	-16484	-3228	-4100	-1563	5118	1547	-17424	-1072	-1800	-1038	8960	797	-32768	-2144	4572	11294	-26432	22104	-17472	-4588	-16532	-1482	-32768	12468	-10280	992	3048	2080	-4466	3922	143	111	1
-12764	-2204	10432	1903	1633	31	-16600	-3060	-2384	-1690	5915	2029	-17900	-2440	484	1219	8545	468	-32768	-5584	-1180	5877	-28458	19539	-16928	-6100	-17348	2367	-31610	10480	-11196	3624	8088	5641	-4867	3521	135	100	1
-12460	-3168	10808	-509	3458	64	-16504	-3204	-2212	-1628	6155	2148	-17096	-3620	2352	229	7691	179	-32768	-10232	-9756	1007	-24728	15843	-15684	-4544	-16464	8329	-24187	8688	-12648	5048	15032	8639	-4130	3903	131	100	1
-10744	-6240	12776	0	6395	736	-15884	-5036	-2344	-476	9354	2893	-17064	-2968	2916	-2378	7233	249	-32768	-13608	-19600	-338	-15711	9632	-9508	-2232	-16696	4203	-13052	6603	-13452	7404	16456	5689	335	4838	123	122	1
-12376	-3572	11760	822	10095	2168	-17764	-4044	-2860	-1020	10772	3378	-18660	-980	2416	-3334	6708	-86	-31328	-21116	-23268	3525	-3906	4745	-7148	-2732	-16632	-2714	-854	3551	-13368	9548	14552	526	4875	1789	124	130	1
-12640	-1520	11932	490	13458	2185	-17424	-2504	-2496	-4336	12106	4216	-18604	-1132	1608	-2791	5237	-54	-32768	-18696	-20252	4841	6934	1486	-7804	-4096	-18268	-6342	10749	-1350	-13448	9524	14572	-371	4872	978	128	172	1
-12252	-1052	11976	-171	17233	1682	-17492	-1600	-2664	-5141	13533	5023	-18164	-1712	1060	-5043	3224	359	7536	12516	27108	-13814	11552	-6287	-13664	-236	-13280	4450	19898	-4956	-12552	5664	7660	-10123	6399	-1421	122	161	1
-11620	-480	12572	-1612	22273	731	-18824	12	-3220	-7058	14552	5454	-17828	-840	1788	-7691	788	1208	26000	32767	32767	-66	3073	-8069	-32768	1468	32767	25476	7352	-1567	-14256	2748	-684	-5998	7744	-2455	125	132	1
-11268	-524	13412	-2714	29423	-2065	-22228	-1968	-692	-10124	14424	6724	-20368	-340	3536	-6173	-1119	1666	-25264	-6440	8968	-6483	22212	-15730	-8168	3356	-1384	-3668	12653	2464	-26068	-9724	11696	-1134	1590	-2599	126	119	1
-10560	-3116	12480	-2705	32767	-3650	-22524	-576	2096	-9316	14906	7595	-21724	16	6744	-5468	-5938	2667	-19212	8412	10020	-8498	22872	-11799	-23872	1712	-1620	-9186	14811	-5873	-19112	3256	21032	-9793	3839	1178	120	106	1
-11992	-2624	11408	-3688	32767	-4980	-21064	-2056	3340	-11977	15615	8266	-19580	-712	15952	-15291	-14038	2774	-30324	-6684	12492	-2478	21728	-10473	-24816	-1080	-5984	-19657	13509	-4449	-20580	2596	10068	-5125	13187	3208	143	108	1
-23700	-6844	7584	-5031	32767	-2226	-19336	-8200	-1120	-10382	17727	10117	-12436	1192	4068	-15177	-4919	1069	-32768	19712	3064	-6595	11336	-4968	-17948	636	-11452	-17812	15430	-4669	-18272	-3600	-7388	741	17325	2227	129	112	1
-32768	-7244	4952	-3195	32767	4491	-21260	-4860	-9164	-1198	21602	9057	-21196	-1732	360	-11369	-8044	-3522	-13664	4604	9808	-1156	7799	-3718	-15016	-1404	-7740	-16009	12939	-2013	-12460	2604	-9352	8382	15500	868	141	142	1
-28756	-10204	12628	-6784	32767	7571	-29196	-292	-5372	-5940	21215	8719	-26916	-5092	-7980	-12302	-13510	-3921	-14712	3608	10504	-1195	2355	-3746	-16760	-5248	-9728	-1793	12358	-185	-11344	5924	-6644	6165	10212	764	141	131	1
-25864	-8296	17832	-11458	32767	10205	-25372	-4140	-2432	-11595	16378	7349	-27460	-2436	-8660	-1483	-19790	-2793	-13832	3660	10364	-243	958	-2108	-16752	-3504	-7260	11739	10637	784	-15908	4540	-5172	129	11909	2612	137	120	1
-5376	-11816	22392	-15821	32767	14129	-17400	-4332	-11296	-9059	12373	4979	-26560	-2304	-8224	-81	-20478	-2689	-12912	3880	10492	444	1138	-1495	-17872	344	-4908	13570	9105	1084	-17952	2592	-3196	1383	11771	-428	166	113	1
-32768	-13484	21248	-8105	-3143	1858	-11476	-1868	-21944	4005	11317	4434	-24260	-1648	-4924	5523	-22391	-7196	-12440	3596	10704	1044	1393	-861	-16232	3864	-1880	2970	7399	331	-18160	2520	316	629	10557	-2669	108	127	1
-8672	-9044	19368	770	-27143	379	-15732	844	-4136	-9410	4955	2456	-24696	-148	-6320	5025	-20554	-7179	-12816	3820	10504	1508	1453	-560	-16124	3544	-3156	-8244	6264	-641	-15868	3052	1204	-2786	9003	-2028	0	136	1
-3164	-2904	13092	-1164	-27726	143	-12088	-2864	-5116	-3162	-3501	1553	-23392	960	-7392	1972	-18837	-6612	-12584	4812	9688	1955	956	-249	-17428	-532	-4388	-9131	5002	-1344	-14980	3076	392	-1868	8988	-1575	95	135	1
-9000	-6096	11096	-911	-31828	-651	-7316	-152	-9852	8538	-9450	-2168	-19980	388	-7324	1203	-18326	-6286	-12656	5280	9636	1684	541	-731	-15956	-2200	-4388	2161	5977	-223	-15660	2948	140	998	8794	-954	76	123	1
-8128	-7256	11476	4470	-32768	245	-5560	1048	-8828	10660	-15402	-4654	-16916	-1100	-6416	1721	-17338	-6422	-12684	4796	9856	1708	353	-900	-16452	664	-4004	9468	6574	628	-15924	2128	116	3861	8936	-596	140	138	1
-7000	-3628	10548	6949	-32768	1588	-8676	244	-7400	9548	-21988	-6810	-15160	-2748	-7068	3768	-15519	-6014	-12680	4940	9952	1687	443	-1480	-16516	2524	-3584	9021	6191	643	-16020	1480	68	6324	9052	-456	167	139	1
-7280	-884	9168	3271	-32768	1077	-10608	1668	-6800	9585	-28085	-7122	-14556	-3184	-8080	6839	-14323	-4814	-12672	4488	9972	978	646	-1514	-16656	2936	-3704	8377	6172	433	-15612	2176	-180	8494	9869	-518	147	130	1
-8944	-1212	9128	-1935	-32768	-754	-10436	2160	-6648	9449	-28803	-7087	-12448	-2824	-9128	12375	-13378	-3199	-12652	4740	9908	119	995	-1642	-15996	844	-4076	-2198	5194	-1106	-15836	2964	-816	9676	10304	-987	146	127	1
-13960	-3488	10556	-5104	-32768	-3043	-10416	2604	-9988	6020	-32768	-8889	-10176	-372	-8924	18427	-13080	-999	-12824	4584	9620	-338	1126	-1513	-15864	-612	-4384	-1383	4763	-788	-15328	3360	-952	9630	10242	-1673	149	128	1
-18412	-4892	11356	-5283	-32768	-5624	-12448	2456	-11256	2874	-32768	-10806	-8568	1160	-7364	20600	-11369	479	-12560	4544	9792	-295	1047	-1530	-15960	-272	-4472	2477	5034	-501	-15220	3652	-828	9158	10680	-1700	143	125	1
-22156	-4260	12144	-4998	-32768	-7288	-15200	1056	-10720	688	-32768	-12388	-8080	2404	-5892	18746	-9809	838	-12744	4784	9696	-349	1111	-1858	-16268	1132	-4100	3996	5367	-543	-15640	3524	-788	7390	12196	-1457	103	126	1
-26456	-5204	12872	-5832	-32768	-9118	-18092	716	-11272	751	-32768	-14444	-8552	3784	-3560	14002	-7408	347	-12876	4632	9664	-867	980	-2279	-16020	1480	-4552	1895	5406	-809	-15628	3352	-888	6900	12426	-1401	117	127	1
-29252	-6916	13252	-4753	-32768	-10650	-19080	-216	-11864	4341	-32768	-16233	-8468	6132	-1756	9480	-3545	-287	-13116	3756	10068	-923	1310	-1921	-16272	224	-4468	-1075	5307	-1239	-15232	2716	-632	4287	15018	-1568	107	125	1
-32768	-6972	11624	-3817	-32768	-12643	-20320	1600	-9340	13711	-32768	-17606	-8356	6440	1356	4471	-1421	-742	-13180	3756	10236	-846	1630	-1631	-16572	-884	-3936	-797	5827	-1355	-16380	2780	160	3022	16166	-1747	136	125	1
-32768	2668	9100	-7677	-31635	-17466	-20732	756	-11896	12621	-32768	-15763	-11624	4980	6620	429	-3697	-1063	-13076	3952	10112	-496	2212	-1431	-16604	196	-2904	760	7063	-1450	-16848	3188	1080	154	15390	-1362	100	127	1
-32768	196	1336	-5545	-31593	-15938	-19636	-612	-13696	8250	-32135	-12059	-16072	2004	11316	-3128	-8147	-1620	-13052	3984	10180	-20	2978	-1221	-16444	1356	-1968	1111	8693	-1954	-16788	3248	2168	-2000	13272	-1328	138	123	1
-32768	1844	-9304	5653	-28269	-11732	-15072	984	-14108	13076	-24274	-8851	-18556	-3312	14228	1296	-8091	-3157	-13088	4732	10564	159	3999	-1740	-16256	2728	-2332	-1375	10446	-2932	-17316	3816	2140	-865	11093	-866	112	121	1
-32768	10632	-20788	6540	-20017	-8342	-12028	4384	-15416	9670	-14028	-5986	-16156	-5304	19744	3421	-2869	-3000	-10852	4980	15724	-1131	5543	-3366	-18048	2276	-1880	-1954	11528	-3569	-17840	3692	1808	3408	8032	-249	137	118	1
-32708	17488	-25692	-2635	-6547	-6259	-7144	2496	-13596	695	-973	-2207	-15048	-5012	17672	947	-405	1019	-13112	4920	12280	-405	8727	-4053	-18972	-676	-3088	-371	13848	-4606	-19620	3764	1452	5631	5944	-188	129	126	1
-31140	11000	-20336	-4216	5974	-339	-8552	-1272	-14432	708	11428	2913	-14156	-3628	11756	-1615	1811	2815	-13916	4528	12608	-390	11910	-5083	-19656	-704	-4120	1751	15828	-4912	-18880	4312	1568	8017	4137	-447	129	126	1
-14808	15572	-88	-2786	23666	10992	-14668	-640	-15644	-2922	20559	6567	-15764	-3128	5604	-853	3093	2545	-13748	4864	12956	-669	16034	-6634	-20708	-1376	-3920	1918	16778	-5253	-19132	3716	1036	10375	2672	-774	132	124	1
1388	-21788	18300	2238	18255	14770	-32768	748	18416	-14722	9137	1926	-17964	1072	316	-1407	7378	3041	-12748	4716	14388	-938	22084	-7998	-22376	-2868	-2612	2947	17464	-5835	-21060	2988	2100	10494	782	-1485	144	118	1
-32768	-4672	10964	6338	24965	10567	-11332	-7952	-6384	-6689	13413	859	-19788	7112	5516	8470	1876	2179	-14024	4604	13880	286	27952	-8076	-22892	-5532	-1008	4160	18395	-6286	-21328	2444	6864	10345	-5692	-2991	178	111	1
-15728	-5808	12672	13223	26174	6674	-18784	-5740	-4512	-3137	17319	-352	-11024	-8068	1532	8766	8533	-2756	-12096	5276	15036	974	32767	-10077	-24876	-2556	296	4169	19730	-6613	-23272	2264	16488	15062	-17019	-3074	159	112	1
-26488	12556	14844	-3570	17249	5118	-24740	3416	-12180	18362	18316	5486	-21160	-11684	3668	13265	8347	-7993	-18544	10684	12940	2015	32767	-14429	-27772	-560	1356	3946	19940	-6718	-20400	-2332	10984	12415	-11490	-1094	90	116	1
-18508	-648	14040	3460	9832	5289	-19784	-3192	-13496	4840	18686	5881	-20864	6464	-9108	10874	15376	196	-28488	11948	10728	3071	32767	-20036	-27612	4648	-324	2654	23099	-6436	-23092	-884	2288	11850	-13009	-330	46	118	1
-14104	-3316	11624	1364	5317	1579	-14016	892	-7944	9043	13937	2839	-20316	5972	-10052	7809	15994	500	-27768	10300	10264	4256	32767	-23307	-26816	3116	-7144	-1375	23248	-5958	-23640	1056	1020	12248	-14435	290	117	118	1
-13484	-1912	11168	168	3493	389	-15492	3128	-9328	6682	11553	-465	-12328	1564	-8372	-4786	11532	-3661	-28360	12336	11368	5943	32767	-25386	-24960	-1404	-6912	3919	19303	-4130	-23384	3556	-7768	1317	-19479	5195	94	104	1
-12588	-1752	11268	-901	2572	-944	-16752	2196	-7696	-6626	8479	-676	-14868	-384	-4984	-7173	9902	-2283	-18408	18644	24012	6887	32767	-27948	-20016	2556	996	8430	20385	-2490	-28684	540	-7200	-2399	-23327	5327	170	77	1
-12032	-2920	10920	-939	2064	-753	-15868	-3112	-5756	-11326	6404	-1844	-16660	-4984	-3180	-5219	12301	-1459	-32768	18888	12188	6238	29697	-20339	-19156	3184	-1480	7298	19930	-1952	-26748	464	-5980	-2779	-23861	6322	238	109	1
-11928	-2468	11008	-1044	1931	-568	-16656	-4368	-4796	-10496	5060	-2168	-17356	-5420	-3144	-5242	12683	-1023	-23200	11492	18172	-2184	-24080	5089	-12920	40	-12464	-4451	-1367	-324	-24632	1120	-4364	-2465	-23623	8463	219	131	1
-11580	-2156	11096	-1105	1956	-596	-15692	-5320	-3572	-3169	4890	-888	-16468	-3308	-492	1374	11169	1664	-3008	9320	14804	-1779	-32326	11581	-11072	-3076	-1240	8489	-6587	764	-22912	2416	-6516	1196	-20087	9669	212	101	1
-11804	-2332	10812	-1007	1773	-725	-15100	-5312	-3872	4241	4975	158	-15992	-3180	-420	1595	11381	1744	-2600	7220	9924	12	-30574	11053	-10556	188	-5396	11039	-12309	4190	-20232	3100	-6260	1078	-18684	9108	108	77	1
-11668	-2524	10852	-969	1751	-728	-15996	-2740	-3828	4025	4185	-127	-15560	-484	-16	-974	13155	341	-10992	6544	8668	-293	-32544	12649	-6540	2568	-7172	1242	-21055	5779	-17132	3308	-5312	-2874	-16906	8586	128	120	1
-11508	-2764	10444	-313	1781	43	-15568	-660	-4500	-3401	3173	-899	-14752	-2808	984	-4523	12441	-1044	-12756	6996	8760	-2982	-32768	15609	-7792	184	-7372	-7453	-28173	5597	-14928	2624	-5032	-9884	-16149	7381	136	146	1
-11676	-2208	10668	-467	1846	89	-15704	-2952	-3020	-8885	2744	-1041	-15772	-424	1248	-9905	14027	-180	-12304	3816	7980	-2299	-32768	16424	-11996	-3028	-6604	-5146	-29756	6429	-13956	1940	-6480	-18464	-16013	5928	165	148	1
-11464	-2436	10416	-484	1930	208	-15256	-4596	-2240	-9306	2993	-682	-15548	-1892	1140	-11899	13712	283	-13072	1716	7396	2136	-32768	16714	-12136	-3124	-7708	-4096	-32768	7312	-13020	644	-7040	-22826	-15570	4750	107	180	1
-11684	-2632	10348	-212	2023	527	-14780	-5584	-2148	-5140	3815	145	-14704	-3056	828	-9121	14187	332	-14968	3032	8924	5738	-32768	16186	-11700	-3412	-8916	279	-32768	8577	-11192	-840	-6720	-22761	-14153	3222	110	139	1
-11884	-2824	10420	113	2209	785	-15076	-4748	-2752	-2258	4712	930	-15020	-2576	1336	-5062	13452	-596	-19580	4068	9436	7859	-32768	15573	-13464	-4364	-10052	5162	-32768	10308	-9140	-2248	-5908	-19635	-10839	1763	120	190	1
-11872	-2872	10240	390	2209	1113	-15284	-4088	-3136	-1490	5257	1506	-17580	-4000	-760	-5303	11484	-352	-21360	5980	10164	8236	-32768	16282	-15148	-3468	-10332	8169	-32768	13259	-8100	-3532	-5024	-13795	-6135	1440	101	184	1
-12288	-2872	10372	887	2287	1677	-15696	-3340	-3712	-1774	5581	1565	-18040	-5036	-4256	-6982	10137	530	-25236	6400	11760	7963	-32526	18768	-17688	-2892	-10588	6847	-32768	15039	-7204	-3940	-3148	-6701	-1587	1883	0	167	1
-12448	-2444	10268	1364	2104	1741	-15992	-3432	-3952	-1435	5800	1724	-16384	-3280	-2264	-2672	8786	1269	-31804	3888	12080	10371	-29291	23223	-20684	-4424	-12112	3961	-32768	16646	-7252	-4296	-972	-719	1345	2638	106	129	1
-12464	-2204	10392	1538	1847	1458	-16216	-2856	-3540	-1118	5954	2049	-16032	-2196	-1060	-433	9214	1347	-32768	1004	8428	12690	-28615	25514	-21672	-3184	-14688	1617	-32768	16459	-8568	-5236	1908	842	-542	4096	113	109	1
-12364	-2140	10704	2076	1530	1472	-16388	-3568	-1852	-1587	6513	2582	-17204	-1812	1292	938	9768	931	-32768	600	7596	12700	-28790	25524	-20284	-2528	-16080	-1399	-32768	14165	-11488	-2648	5856	2668	-4158	5006	119	104	1
-12496	-2084	10832	2631	1575	1342	-15636	-4308	336	-316	8266	3228	-17748	-2004	3400	1629	8369	107	-32768	-5052	-5640	25	-30495	20960	-19380	-4368	-15264	-2818	-31818	10156	-15520	2724	12564	10206	-7920	4828	117	80	1
-12268	-2088	11332	2395	2397	1600	-14764	-5160	-760	1889	10821	3797	-17172	-1700	4660	1559	7177	-196	-32768	-9196	-17724	-7902	-23032	15611	-13380	-5252	-17140	-2853	-22147	7191	-17656	4520	18592	14045	-4143	6066	131	78	1
-11492	-484	13500	-1106	5352	2129	-16376	-3792	-2588	2263	12763	4250	-16200	-20	3456	-1234	7430	-1003	-32700	-20176	-25712	-5561	-10654	8391	-8096	-4900	-18488	-1900	-8800	5799	-16048	9460	18292	3711	1541	6311	131	106	1
-12628	-2848	12276	761	10168	2202	-19060	-1796	-3584	-1622	13728	4801	-18212	728	924	-3256	7002	-747	-31316	-29236	-25796	6998	4321	7530	-7412	-3924	-17636	-4808	4236	1210	-13400	11052	15556	-841	2088	128	128	139	1
-12468	-956	12652	1244	13999	2351	-18584	-1416	-3204	-5520	14624	5310	-19220	-648	-764	-5531	4973	-434	-27348	-12804	-32760	-8047	25915	-12654	-11628	-4388	-17824	-5835	15931	-3540	-12632	7380	11176	-7841	2403	-1349	104	218	1
-11800	-352	13784	666	18881	2053	-19200	-1392	-2932	-6992	15581	6043	-18824	-3016	-412	-6882	1517	221	2944	32336	32767	1612	22008	-863	-32768	-1064	32767	22218	11942	-6905	-15584	6056	744	-12659	9059	-21	113	161	1
-10704	92	15172	-772	25710	1125	-21936	-2036	-1884	-8795	15791	7004	-20792	-3560	1600	-5741	-852	1546	-20772	-6608	8636	-4275	21744	-20363	-11356	5544	-6764	-185	17078	-1261	-17880	4148	1660	-12604	9670	-357	109	116	1
-10568	-1264	14568	-1462	32767	-569	-23920	-612	288	-8890	16288	8126	-22496	-2608	6000	-4898	-6737	3632	-25332	17000	5884	-7195	21909	-16989	-23848	980	-4928	-11429	16978	-4221	-15144	-160	19648	-7508	-1457	-2182	155	97	1
-9588	-2028	14616	-1152	32767	-2459	-24000	-2920	3644	-11465	16575	9184	-21096	-2132	15624	-8865	-14403	3773	-23628	-3164	12276	-4519	17950	-10294	-24872	-1724	-8328	-19715	16705	-4920	-18432	1640	-2560	-7366	18000	2700	166	116	1
-15564	-6652	12448	-2898	32767	-567	-24544	-8144	4148	-11426	17014	11066	-16524	536	8648	-16153	-8743	2454	-13364	-3448	13276	-8975	1278	-11468	-13988	3368	-9736	-16609	16669	-4512	-19528	-2356	-11732	-3582	16179	3645	155	120	1
-32768	-8100	4808	-2692	32767	8773	-20792	-8040	-7292	-4852	21534	11422	-21004	920	996	-5913	-9128	-1929	-16716	5404	8904	-3634	1044	-5769	-15564	-2828	-9948	-18555	12180	-2073	-10012	584	-9712	5587	12289	3746	152	111	1
-32268	-10572	9896	2062	32767	14513	-25868	-1296	-8224	-4900	22491	8569	-22892	-6484	-10264	-12212	-12823	-5567	-14916	3764	9876	-1062	337	-2357	-17236	-9524	-10180	-3119	10745	154	-12728	1780	-5804	4820	10144	1771	126	112	1
-24076	-7672	18572	-3985	32767	15141	-27660	-1228	-4284	-12412	18061	7708	-27848	-1600	-7124	1608	-19646	-4277	-13672	2832	10736	172	-65	-405	-16820	-5328	-7228	13052	10336	2006	-17996	1856	-5596	990	14412	2190	143	111	1
-9848	-8284	27144	-9071	32767	16871	-21704	-5608	5892	-15542	11172	5684	-27624	428	-4540	5598	-20377	-3662	-12568	4064	10248	958	-81	320	-18216	872	-4836	15716	8375	2925	-18432	4072	-3332	3511	13505	-975	117	124	1
-32768	-16320	18004	-4031	26882	8697	-9860	-3716	-25880	7030	6247	2972	-24584	420	-3832	3148	-22304	-5411	-12756	4292	10028	1304	403	405	-16612	4268	-2856	7855	6757	1910	-16828	5864	-1192	378	12448	-2226	130	116	1
-28464	-10984	23992	7952	-20675	-1256	-8740	1056	-11856	8858	6208	1267	-22928	-480	-4688	4092	-22171	-7687	-12628	4588	9876	1194	551	424	-15844	5396	-2168	-4394	5347	670	-15556	4760	-104	-2362	11848	-1840	0	123	1
-7560	-2220	17472	6370	-32768	-3031	-14656	1776	-2488	-4412	-3629	-1328	-22520	-2072	-7092	1064	-19090	-7646	-12404	4852	9752	1234	793	293	-16964	2064	-3012	-10884	3837	-438	-14948	3208	712	-3457	11124	-1570	56	144	1
-2704	44	11704	-1628	-32768	-5351	-10088	-284	-7496	1131	-10936	-1445	-20616	-1772	-8284	94	-17407	-6880	-12516	4896	9672	1495	709	-48	-16796	-1876	-4020	-3897	3868	26	-15272	2572	928	-1130	12671	-1067	120	136	1
-6712	-3224	9560	-5889	-32768	-7370	-6348	-1096	-6316	9715	-18126	-4773	-17352	-1000	-8652	839	-16451	-5742	-12432	4948	9696	1752	670	-382	-15628	-2656	-3196	9078	4557	1825	-15728	1624	1340	2808	12572	-628	171	133	1
-10136	-7584	9564	-1413	-32768	-7712	-5768	-168	-8788	18411	-24677	-6811	-13896	-364	-7548	2263	-15591	-4697	-12428	4652	9796	2131	611	-696	-16524	2516	-2268	12619	5463	1741	-15660	1400	1372	7290	13153	-852	158	127	1
-11732	-5888	9680	5612	-32768	-6981	-7908	2148	-8496	13456	-29024	-8822	-11972	-1048	-7600	4879	-14470	-3525	-12656	4628	9860	1767	873	-865	-17140	3748	-1564	5828	5349	319	-15744	2548	1940	10077	13664	-1041	155	132	1
-13288	-1184	9056	4797	-32768	-7975	-12440	2512	-8260	10806	-32768	-7266	-10472	-2560	-8328	11060	-13046	-2901	-12652	4816	9716	1157	1206	-1178	-16412	2976	-2316	-2714	4713	-496	-15824	4052	680	10193	14502	-1105	133	127	1
-15848	-156	9264	-1356	-32768	-10325	-12640	2696	-9608	8257	-32768	-7821	-9144	-1144	-8592	17606	-11904	-2065	-12892	4836	9548	369	1248	-1131	-16276	460	-3536	-3520	4782	-1197	-15584	4224	-340	9478	15085	-824	142	125	1
-20944	-1340	11092	-6893	-32768	-11285	-13056	1896	-11560	2179	-32768	-9939	-9012	-756	-8512	18213	-11776	-1932	-12900	4704	9412	224	1031	-1209	-16024	60	-3460	367	5100	-572	-15100	3364	-1140	7703	14917	-250	143	126	1
-27536	-3296	11024	-11186	-32768	-11721	-15868	688	-11536	-1623	-32768	-12520	-8640	2092	-5168	17043	-10332	-448	-13076	4564	9720	211	999	-1270	-16020	532	-3636	4003	6025	-383	-14656	1596	-1284	4917	14114	-684	130	126	1
-29920	-8144	10828	-9981	-32768	-11585	-17656	-360	-11636	-2051	-32768	-14293	-9068	4024	-2344	9611	-8151	-364	-12964	4756	9552	127	961	-1340	-16388	2128	-3276	4244	6666	-560	-15060	2052	-1820	2065	14170	-919	147	127	1
-30964	-9260	11008	-4676	-32768	-11327	-19236	36	-11072	-443	-32768	-17272	-8440	6400	-200	2886	-4481	-552	-13040	4712	9704	-380	1202	-1494	-16556	2160	-3164	801	6771	-1141	-16724	3788	-2040	1017	13596	-997	75	128	1
-32768	-6308	9396	-2381	-32768	-12625	-20848	1204	-12748	6992	-32768	-19569	-8516	6524	3200	-2151	-1668	-788	-13116	4524	10040	-436	1654	-1541	-16992	772	-2840	-1073	7183	-1582	-17996	5652	-2620	-206	11362	-783	100	129	1
-32768	2112	4988	-7964	-32768	-19051	-20048	-1468	-12584	5284	-32768	-16798	-11924	3668	7224	-5182	-2768	-1471	-13272	4048	10328	20	2639	-1164	-16984	-244	-1948	-175	8282	-1876	-18056	4888	-580	-1644	9243	-754	109	129	1
-32768	-772	-4992	-9100	-32115	-19468	-18048	-2080	-13316	6830	-29143	-13199	-16856	-2152	10416	-5234	-5958	-2270	-13124	4404	10196	566	3868	-1231	-15984	1944	-848	1195	10982	-2419	-17136	3472	4556	-1078	8159	-411	134	125	1
-32768	2176	-16436	826	-23610	-13704	-12900	-984	-15984	11313	-19073	-10159	-20608	-8056	16628	-1902	-8244	-3256	-12956	3888	10616	1722	5088	-1567	-16504	3820	-568	423	13269	-3515	-17224	2456	6876	2178	7090	715	65	126	1
-32768	12052	-27588	3484	-13367	-8131	-10064	4276	-16500	8700	-6677	-6217	-15672	-11148	20388	3018	281	-2636	-13108	4736	11300	2401	5281	-1366	-19172	1952	-764	-98	15343	-4619	-18736	1448	4860	7191	5916	1126	121	120	1
-32768	17308	-27976	-1324	1392	-4756	-5884	2836	-13860	1036	8542	-137	-14128	-9364	15868	3769	3933	-448	-13728	5240	12832	422	11195	-4719	-20464	-728	-3656	-512	16901	-4955	-19616	1832	1088	11311	3857	803	141	120	1
-32768	11396	-18816	3839	13358	3534	-9564	-496	-17980	5292	20313	5784	-13292	-7168	7864	4823	6308	1368	-13860	5648	13148	-58	15684	-5683	-21016	-1956	-3592	1150	18397	-5160	-19260	3096	-596	14333	2782	760	152	123	1
-12196	3268	32767	4364	10338	12741	-25852	-1076	10464	-11525	18387	6991	-11312	-3408	-2796	7935	10511	2971	-12688	5128	14696	-219	21403	-7130	-22224	-3244	-3236	4423	19126	-5009	-19964	2144	724	14951	1398	68	181	125	1
19124	-10052	5024	8481	24657	19553	-32100	-744	12928	81	8705	-1484	-20340	7528	-1724	9781	10872	6372	-10624	4540	15728	836	29279	-7267	-25104	-4204	620	6615	19901	-6077	-22912	2880	5020	13657	-3829	-708	200	124	1
-32768	-13804	2808	9364	26686	-1780	-8988	368	-8108	2436	13677	2367	-20256	8324	7856	17148	4369	5419	-10216	6132	15088	1775	32767	-8989	-25048	-5968	492	7398	20444	-6155	-24420	3396	17472	22401	-19458	-1052	168	114	1
-27192	-16496	3488	10845	26571	-4212	-18228	-6604	-7724	-2682	16942	-76	-15092	-11220	6060	24497	5617	-4187	-16020	7560	13132	3061	32767	-10415	-25820	-2440	5112	8993	21456	-7422	-16388	-7892	11864	13009	-9847	-1419	116	118	1
-26160	23664	15388	-2090	22338	5367	-23480	640	-4636	21023	15623	4069	-22860	3080	6536	14991	9720	-4901	-32768	11296	7172	5100	32767	-15270	-26000	6260	-1948	3963	24425	-6885	-20476	-2004	204	13690	-11166	251	60	116	1
-15720	-16784	7284	4386	12505	2211	-23336	1052	-14060	7624	17896	6305	-21156	15516	-6828	991	11210	160	-26656	8316	10780	4245	32767	-23455	-26944	4328	-6868	-6785	24422	-6702	-22884	8420	-7316	13391	-13697	3761	79	117	1
-13252	-6408	10232	1480	7058	2198	-13188	1240	-8468	5869	14160	1525	-15500	1176	-9332	-16991	14671	-2917	-29920	13912	11820	7622	32767	-24339	-25180	-2072	-3128	4772	21416	-4850	-25120	6536	-8400	1146	-18650	5494	84	91	1
-13016	-2652	10768	1163	5186	1463	-16228	1684	-8432	-296	11520	-562	-10968	-4528	-8180	-16476	12406	-5720	-26084	16428	22560	12923	32767	-23171	-21276	1104	-6516	5146	21943	-2936	-25856	6720	-8896	-389	-19687	5351	174	94	1
-12332	-3036	10812	790	4172	1082	-15576	216	-6884	-14859	8207	-704	-13820	-5412	-5408	-11494	10440	-2994	-32768	23112	6456	14484	28642	-15933	-15244	2312	-17820	2684	9288	-1594	-27364	1916	-5696	-7634	-24795	5161	225	142	1
-12264	-2128	11188	333	3426	920	-15368	-6356	-5312	-14589	6281	-873	-16412	-5852	-3556	-6300	11304	221	-23336	16932	19508	2824	-25665	1788	-13776	868	-12840	-3720	-778	-113	-25564	-1064	-5676	-7911	-24939	6652	203	121	1
-12036	-2160	11008	153	2845	865	-16108	-7684	-3704	-2142	6478	330	-17948	-6300	-3368	-1984	11926	2609	-496	10728	16720	470	-31818	4284	-10820	-2792	248	8040	-6496	2063	-24376	-1428	-7744	-2564	-22089	6898	129	101	1
-12016	-2388	10808	91	2542	754	-15148	-6132	-3676	8685	7183	1853	-16592	-4192	-1020	2314	10167	2453	-5088	7028	11048	2226	-30493	4627	-10360	-2032	-5280	10577	-13567	5773	-23848	-1312	-7752	-1151	-21729	6864	35	76	1
-11788	-3376	10564	599	2186	949	-15932	-3240	-3952	8942	6649	1789	-16688	-1616	552	1608	10746	1712	-13384	6700	9580	2383	-32768	11347	-4272	2380	-7804	4400	-12082	18423	-17428	2832	-6044	440	-19318	7608	142	107	1
-11784	-3196	10316	1308	1887	1551	-14576	400	-2664	-1222	5817	305	-13096	-284	152	-5742	8877	3488	-11856	7316	9324	96	-32768	16954	-9264	576	-8068	299	-29474	4590	-15828	3052	-4872	-5237	-18725	8439	167	134	1
-12012	-2504	10480	1237	1829	1512	-16148	-2956	-3432	-6336	4709	603	-12292	-628	-752	-6610	11145	3094	-13132	4368	7740	-483	-32768	18181	-10160	-4448	-5544	900	-32768	7643	-14464	1116	-7560	-11085	-14902	5489	145	153	1
-12232	-2168	10428	1101	1633	1647	-15652	-4124	-2908	-5662	5032	598	-16504	-1052	-336	-4289	14516	-1488	-14008	2908	7924	1766	-32768	18136	-11708	-3536	-7740	1569	-32768	11475	-12748	172	-8144	-15915	-15184	3920	98	153	1
-12184	-2376	10368	1184	1396	1632	-15504	-4308	-2792	-5302	5104	713	-14948	-1324	268	-1926	13607	-2335	-17240	2208	9668	5357	-32768	16478	-12944	-2708	-9168	3840	-32768	12532	-11184	316	-8148	-18438	-13850	3233	146	133	1
-12236	-2232	10416	1432	1253	1797	-14616	-4340	-3568	2511	6217	2092	-15084	-1864	-1256	-1635	11606	-801	-20680	2304	9876	10207	-32768	15082	-14672	-4328	-9860	5252	-32768	14286	-9584	-1136	-7004	-16098	-11148	1792	105	169	1
-12360	-2008	10356	1469	1008	1840	-15536	-1760	-4804	1472	6433	1908	-16120	-2792	-2960	-3447	10755	703	-21612	4252	10908	13546	-32768	16145	-16176	-4224	-10872	5704	-32768	16530	-6992	-2452	-6200	-12789	-7567	969	79	181	1
-12412	-1940	10568	1396	854	1698	-15960	-800	-4956	-2873	6001	1425	-15820	-2600	-2996	-4152	10440	1502	-29068	6752	12664	13613	-31042	20601	-19088	-5816	-12728	3730	-32768	17292	-6332	-3576	-3876	-7128	-3838	829	57	182	1
-12016	-1584	10336	1055	799	1182	-15752	-2384	-4420	-4453	5832	1318	-15808	-1944	-3856	-2242	9988	1239	-32768	6300	11540	12214	-29282	26709	-22732	-7120	-13696	4880	-32768	18790	-6804	-4424	-1568	-1398	-1403	1620	94	135	1
-12044	-1584	10816	842	1105	703	-15420	-3776	-3868	-1730	6439	1812	-16360	-1784	-2408	979	9385	1242	-32768	-852	7824	12482	-26846	29878	-22196	-4220	-16620	4891	-32768	18198	-8988	-3660	2148	824	-2179	2852	95	121	1
-12084	-1396	10760	850	1792	382	-16072	-3056	-3008	546	7419	2318	-16776	-1856	432	2626	9161	920	-32768	-860	1064	8837	-27096	29323	-21368	-2884	-17404	1797	-32768	14442	-12944	92	7528	3525	-4956	3664	146	114	1
-12352	-1528	10860	596	2802	77	-15848	-2960	-1800	455	8589	2711	-16648	-1200	2712	2077	8887	309	-32768	-3560	-9644	-3868	-27458	23922	-19368	-1852	-15556	-2342	-30424	10487	-17056	2684	14216	11224	-6835	4062	142	80	1
-12040	-2664	11404	-365	4315	203	-15520	-4624	-2076	-26	10058	2939	-16612	-900	3788	1498	8786	-14	-32768	-11172	-21580	-10515	-19707	14281	-11948	-3792	-17512	-7082	-19294	7263	-19664	6624	20684	11408	-2897	6122	123	85	1
-11600	-3188	12988	-1014	7263	894	-16928	-3512	-2672	-1427	11366	3348	-17424	-976	2444	-677	8462	-902	-32768	-25132	-27332	-1704	-8238	10569	-7544	-6088	-19412	-7660	-5613	3552	-16848	12124	19196	2083	1996	5118	129	91	1
-12456	-1676	12228	319	10388	1653	-18264	-2868	-3476	-3615	12337	3951	-19136	-1608	-36	-2874	6945	-965	-32768	-22792	-23964	7189	3504	8929	-7836	-5324	-17912	-4178	8466	-1027	-13928	8140	14256	-2339	1559	-561	127	149	1
-12720	-460	12272	69	14000	716	-18364	-1756	-3072	-5456	13808	5034	-18936	-2488	204	-3706	4136	-216	-32768	-10776	-16596	2388	10909	1074	-10204	-4288	-19352	-2781	20009	-5420	-13560	5012	7404	-9457	2865	-1767	117	233	1
-11796	-224	13300	-285	18659	-214	-19020	-1664	-1704	-6030	15087	6145	-19224	-2420	1584	-5571	339	1321	-5404	15884	31424	-2597	7850	-13050	-31580	-92	17060	27421	18844	-5339	-12888	5532	-1828	-7769	8886	-1468	95	160	1
-10920	-308	14992	-1168	25073	-1463	-21116	-684	-1548	-7870	15846	6871	-19788	-1068	4376	-6773	-3097	2874	1676	15652	3276	-4069	11379	-22213	-19760	6820	2276	-2453	8833	3173	-14320	4496	-1276	-6515	8044	-1693	127	132	1
-9884	-1784	14828	-1243	32767	-3796	-24712	-4	900	-10067	15866	7836	-22300	132	8188	-5563	-6937	3126	-14412	7972	9444	-7504	15480	-9918	-11568	-2828	-284	-10171	11623	52	-14760	-5412	2912	-6518	6895	-1353	131	99	1
-8584	-2452	14720	-1301	32767	-4726	-24456	-556	4312	-12925	15987	8425	-21512	2452	13676	-6846	-12322	4448	-20388	2484	12928	-9499	21694	-7676	-22004	-1980	-5736	-10364	10488	-5361	-18120	9304	9056	-10979	10875	3361	161	121	1
-12900	-5572	12540	-3866	32767	-4149	-23860	-4776	5596	-14295	16459	9494	-17884	3088	16240	-14151	-12384	4305	-24384	-4052	14564	-4489	14723	-14573	-20192	-1180	-5564	-20216	9364	-3869	-20216	-1624	1072	-9511	16990	2750	154	109	1
-32768	-10264	3684	-3335	32767	4411	-20164	-9372	-4208	-9927	19890	10565	-15344	1036	9056	-16304	-7620	-229	-17820	4936	12240	-3588	12210	-7097	-20320	-5504	-6516	-20153	10351	-2949	-19896	-3440	-4344	-5016	15091	1135	126	108	1
-32768	-11568	9448	2038	32767	13286	-24420	-8004	-6684	-7376	23383	8560	-21920	-9712	-10500	-22384	-7626	-5861	-16136	10380	7716	-4916	5940	-5575	-16400	-648	-7744	-4390	12680	200	-15832	2980	-3580	-1860	15045	-909	140	104	1
-26680	-9348	16480	-3078	32767	14323	-29736	-3964	-7552	-7618	19663	8233	-30508	-6820	-10452	-5634	-16630	-7527	-16964	7456	10224	-5515	4163	-5976	-17036	-44	-6824	-171	10259	1533	-13804	5308	-7284	978	16053	2442	134	137	1
-11340	-10112	25524	-8330	32767	16768	-23992	-6364	704	-6384	12113	6796	-31144	-5568	-4784	8302	-23437	-5933	-14228	3564	10712	-2469	1187	-3223	-17388	-1560	-7136	2373	7633	1174	-13776	4536	-7024	596	15613	2835	149	105	1
-32768	-10960	15640	-10090	32767	10672	-22640	-6668	1132	-7187	10840	6314	-26672	-1824	-6372	6980	-23227	-5808	-13616	3760	10912	-1497	535	-1525	-17764	-252	-4448	3424	6408	499	-17272	3500	-3828	-1667	13868	-705	20	116	1
-32768	-14796	21620	3207	-17422	-545	-6788	1040	-21064	12729	8150	2546	-25108	-356	-5656	9039	-25426	-8019	-12788	4524	10668	-609	359	-249	-17240	1292	-2924	2801	5829	891	-16936	3664	-1356	-1113	13393	-1978	0	135	1
-9676	-5784	15796	8417	-32768	-2850	-14856	2708	-5116	-16	-2028	-539	-25972	-452	-7412	7172	-21426	-8339	-12228	5024	10292	-160	358	127	-16804	3288	-1724	1399	5153	712	-15536	3120	708	560	13028	-1781	68	146	1
-528	-448	10284	2530	-32768	-2404	-10048	552	-7076	-5674	-9447	-774	-23072	836	-8652	3158	-19894	-7196	-11988	5116	10340	-164	359	151	-16432	3848	-1552	-1617	4681	-304	-15464	2372	1692	3780	12938	-541	137	117	1
-7676	-692	7448	-4389	-32768	-2655	-6048	-1248	-7536	4230	-17499	-4333	-17668	272	-7844	3293	-18860	-6159	-11736	5684	10128	-201	558	-655	-15992	936	-1768	581	4630	-321	-14908	1348	2184	6900	13278	-345	102	127	1
-10564	-5140	7980	-3576	-32768	-2915	-3088	972	-8660	16125	-23218	-7223	-14056	380	-6112	5747	-17595	-5125	-11484	5488	9604	-82	560	-1225	-16248	420	-1156	8184	5738	129	-15476	1680	2492	8480	13199	-144	147	129	1
-10828	-4504	8368	1216	-32768	-1624	-6480	3544	-8516	12322	-27943	-9401	-12240	444	-6608	8555	-16053	-4110	-11396	4860	10228	367	937	-2197	-16148	2704	128	11057	6638	176	-16408	2460	2072	8695	12541	811	141	127	1
-10872	-144	7368	-61	-32768	-1858	-12432	3836	-7704	7876	-32768	-9497	-12480	-240	-7888	10758	-14851	-3541	-11772	5088	10072	1008	1288	-2553	-15880	4168	-48	7086	7280	-1130	-17448	3688	1652	9352	10005	-80	136	128	1
-11684	1768	8408	-6122	-32768	-4503	-12364	4204	-8564	4675	-32768	-9730	-11216	72	-8064	12317	-13015	-2776	-12196	5084	10096	855	1713	-3176	-16332	3144	-828	768	7566	-2491	-17248	5252	48	8030	7527	275	157	120	1
-17896	-72	10064	-11186	-32768	-6346	-10904	4288	-11568	1077	-32768	-11652	-8688	1168	-7356	13835	-10673	-1273	-12128	5228	9924	545	1992	-3439	-16320	1256	-2336	-935	7227	-2716	-15228	4216	20	6113	7506	704	137	118	1
-21772	-3084	11352	-11621	-32768	-6670	-12816	2032	-10480	-3312	-32768	-14567	-6952	2384	-6012	13685	-8263	97	-12212	5292	9856	229	2056	-3873	-16136	616	-2992	500	8149	-2595	-14564	2672	-608	4629	9247	689	141	124	1
-26644	-2772	12216	-10945	-32768	-8489	-15624	1320	-11128	-1887	-32768	-16617	-6412	3392	-4112	9663	-6420	979	-12992	4644	10152	2	1844	-3994	-15968	824	-3632	1539	8241	-2546	-14004	1220	-884	3387	9966	173	118	127	1
-29808	-5240	13228	-9778	-32768	-12191	-17888	1324	-10596	-497	-32768	-18149	-6132	5108	-2404	3698	-2974	1255	-12768	4684	10132	-125	1908	-3782	-16292	584	-3840	1531	8580	-2587	-15012	1244	-808	3037	11262	-343	121	129	1
-32768	-1836	12504	-6818	-32768	-16516	-19404	868	-12444	5928	-32768	-19292	-6948	4976	1284	-1251	-463	352	-12848	4436	10272	-344	2393	-3554	-16836	1064	-3080	-541	8795	-2943	-16936	3200	-2952	4573	10415	-555	115	130	1
-32768	4052	8044	-8013	-32768	-19986	-21524	-1588	-12660	6693	-32768	-16847	-9452	2848	5604	-4156	-1296	-847	-13340	4168	10476	-310	2978	-3212	-17240	28	-3104	-2510	9199	-3357	-17328	3428	-2360	3329	8955	-195	124	125	1
-32768	2888	-1260	-5974	-32570	-18915	-20340	-3464	-11960	9004	-32768	-11693	-14152	-1876	8740	-6078	-3279	-2230	-13376	3288	10772	-143	3999	-2503	-17028	-128	-3416	-2724	10143	-3985	-16284	3500	1120	1545	8754	-62	135	124	1
-32768	-2040	-14420	7969	-27209	-13558	-14376	1232	-17836	24393	-22409	-6997	-19520	-8460	19112	-5197	-7542	-3634	-13652	4384	10372	-133	4753	-1971	-16556	1244	-2572	-2580	11639	-4480	-15672	2276	2332	3480	8466	-120	57	127	1
-32768	9124	-27500	13669	-17304	-7301	-10428	5680	-17816	18099	-10290	-4790	-17764	-12564	21244	6146	2408	-1878	-12960	5176	11032	433	5485	-2050	-16392	2464	-2672	-2661	13624	-4918	-15744	1928	2220	4978	7706	239	113	125	1
-32768	24572	-31596	-3019	-2148	-7070	-5776	5756	-14400	833	4767	-1063	-15464	-6100	18200	10024	2773	1556	-14956	4236	10496	-99	8865	-3671	-19412	68	-3320	-3009	14875	-5457	-18924	3624	400	7040	6221	-143	188	120	1
-32768	9840	-23936	-7369	12134	-1119	-7380	-808	-16820	47	17636	3817	-13816	-3112	11976	6015	5811	4263	-14204	4720	12916	-760	12351	-5138	-20692	-2552	-3452	-721	16604	-5767	-20008	5264	-232	7504	3866	172	175	124	1
-32768	4316	-11028	9980	18618	9106	-10432	-460	-18288	1525	26551	7336	-11468	-1976	3860	7126	7151	4005	-13632	5088	13268	-928	16947	-6357	-20432	-3132	-3700	2080	18380	-5495	-18788	3284	520	9676	2386	-915	160	122	1
32767	-15524	32767	-7605	-2718	8450	-32768	-3680	28288	-28977	13057	5204	-7500	-532	-5584	12376	11694	844	-12832	3888	15052	-884	22556	-7530	-22144	-2516	-3616	4164	19327	-5522	-19244	1704	3324	10940	-1618	-2561	201	124	1
23552	-6556	-7496	7499	32767	19775	-18464	3984	-9984	1626	11385	-2547	-24784	15520	-3880	-2420	16867	6912	-11916	6148	14052	-98	31375	-8963	-23900	-3832	-356	3781	19551	-6748	-22244	652	6860	10784	-7435	-2417	169	120	1
-13804	-21708	8952	10747	28565	-12377	-6008	-4416	3556	-6814	13858	256	-19756	6828	9348	16266	3210	2469	-10968	5384	14748	1593	32767	-10692	-24148	-4380	3344	7904	20604	-6513	-19468	-376	15240	13438	-16934	-3066	157	104	1
-32768	32192	15772	1764	25715	5156	-26120	-7164	-7600	11646	17206	881	-24820	-21192	18592	19037	3144	-10718	-17908	8260	12648	2403	32767	-13371	-26324	428	1636	8655	21412	-6861	-17128	-4628	11476	12493	-9506	-1930	68	114	1
-32768	26804	14588	-1865	23037	5148	-22388	-7136	-16964	16931	19954	6264	-23792	13332	-4444	7781	14550	-2177	-32372	10404	10424	3031	32767	-19783	-27812	7560	-2160	1239	24658	-7576	-23604	6876	-2192	16442	-10038	1276	92	101	1
-14216	-6872	9836	1526	7075	3060	-15216	1548	-8680	15807	15330	3412	-15488	3544	-11608	-14941	16910	-2095	-32768	15188	9376	1041	32767	-26031	-28532	2124	-6512	-2276	22380	-8636	-25840	12696	-9388	11357	-13324	5647	141	125	1
-14188	-2848	10460	1787	4453	2216	-12780	3536	-10828	5154	12711	-1041	-7152	-6564	-10404	-13531	16880	-5135	-24244	12980	19660	361	32767	-29425	-25416	2428	1148	5423	22693	-6532	-26448	6432	-6524	-9056	-22311	4783	130	119	1
-12512	-2148	11244	1324	3472	1261	-15520	3496	-7960	-12914	8442	-724	-14268	860	-9292	-11299	8931	-2016	-7012	18440	29352	4720	32767	-31848	-18460	4856	-12644	-5511	18593	-3537	-28012	1100	-6092	-12682	-24911	3374	129	112	1
-12476	-1600	10984	491	2947	769	-16992	-1092	-7288	-24547	5840	-2871	-15752	-2888	-4372	-9724	7976	-2816	-31144	14212	15136	1678	-5434	-13210	-15552	-516	-16688	-11969	5994	-3824	-26840	-2388	-4568	-11826	-26153	5371	243	116	1
-12412	-1504	11040	-668	2262	-20	-17292	-9268	-4476	-13720	4963	-1934	-18860	-6484	-5348	-6437	14314	281	-10448	9940	19512	1498	-32174	2929	-16756	-136	-14980	-12260	4034	-3595	-25780	-1224	-5464	-4946	-23051	7905	156	93	1
-11936	-2380	10724	-675	1988	-132	-13520	-11052	-4228	11804	6872	792	-18500	-6292	-2980	-458	12602	3458	-436	9180	13132	3050	-30303	6024	-11236	-5196	-3308	9565	-9479	1583	-23148	556	-6136	3586	-20950	8401	115	63	1
-11836	-3460	10292	392	1495	100	-13708	-10472	-4524	14556	6962	1171	-16172	-4800	-1296	2861	13684	1883	-7888	8356	9972	412	-31539	7977	-1072	-7228	5120	14543	-6374	17584	-18552	896	-6716	2177	-20283	8163	129	99	1
-11672	-2988	10304	1838	985	861	-16224	4888	-4004	3795	3791	-46	-13724	-376	-1368	-4214	9301	4444	-11440	7268	9920	-2754	-32768	12713	-6920	3432	-8448	3609	-27120	1542	-17108	3328	-5040	-3592	-18809	9383	253	146	1
-12020	-2016	10624	1608	711	548	-16712	-724	-3656	-10968	2131	-1464	-12000	608	580	-6161	13603	1631	-12576	4620	9264	-3518	-32768	17043	-10732	-3100	-7612	-1256	-32768	3602	-14416	1828	-7172	-8610	-15306	6936	98	154	1
-12044	-1888	10728	953	506	317	-15440	-5156	-2792	-11272	2032	-1285	-18144	728	1000	-4745	15118	-1342	-13200	3172	7988	-767	-32768	18713	-11344	-2412	-7468	570	-31445	8252	-14360	1172	-8512	-16690	-14892	5463	50	141	1
-12016	-1960	10544	506	338	258	-14764	-6820	-2408	-5684	3013	6	-12696	-636	540	205	18906	-4028	-13464	2476	8884	2861	-32768	17313	-10860	-1260	-7436	-579	-32768	8720	-12244	116	-9388	-21686	-15741	4708	163	155	1
-12064	-2104	10588	601	260	422	-15596	-5432	-2856	439	4111	1147	-15680	-2556	-4	4193	13085	-3441	-19948	2308	8344	6627	-32768	15685	-12780	-1768	-8696	428	-32768	10708	-10124	-844	-8292	-21497	-13717	3005	147	159	1
-11872	-2244	10528	933	294	706	-15400	-3500	-2688	1633	4951	1066	-18640	-4812	-3536	-2815	10953	-1222	-19716	3928	10272	11203	-32768	14977	-14432	-3228	-9448	751	-32768	12430	-7148	-2120	-7128	-16405	-10376	1847	84	200	1
-12056	-1892	10968	1053	914	685	-16896	-1188	-3736	-2553	4901	765	-18820	-4428	-4460	-8358	10717	878	-24392	6156	11772	13192	-32768	18257	-16572	-4296	-12812	2095	-32768	13881	-5744	-3200	-5752	-10163	-4584	1055	57	169	1
-12176	-1496	10852	462	1786	240	-17028	-2460	-3304	-6860	4786	705	-16924	-2876	-3200	-3465	9276	582	-32768	7164	11324	14148	-31701	23928	-20028	-5612	-15392	3797	-32768	15726	-6076	-4556	-3696	-3909	-1046	555	104	137	1
-12104	-1660	10972	260	2531	-41	-16036	-4616	-1808	-6690	5590	1334	-17068	-2360	-300	-324	8437	1154	-32768	3832	7392	15211	-29650	27597	-21828	-4520	-16660	7342	-32768	18363	-7276	-6784	-956	301	-1044	1983	93	122	1
-12144	-1872	10932	152	3185	32	-15248	-5972	-52	-2954	7195	2525	-17284	-3200	2908	1207	8308	878	-32768	-3400	1376	19385	-25216	29509	-20772	-2956	-20776	8813	-32768	18260	-10900	-3288	3600	1528	-3214	2678	86	107	1
-11640	-1984	11472	-1012	4404	371	-14904	-5156	1836	-194	9435	3261	-17712	-2688	5556	-304	7466	339	-32768	-6028	-6956	17228	-27211	27270	-19596	-4392	-21080	7947	-32768	16403	-15264	2236	10252	8141	-6905	2702	130	103	1
-11516	-2768	12348	-1703	6674	963	-15456	-5080	-504	182	11698	3815	-17184	64	5732	-2196	7504	-727	-32768	-12768	-16576	7242	-24396	20960	-15808	-2600	-20036	8719	-23722	12695	-18048	3224	18436	18830	-5810	4240	151	79	1
-12524	-2180	12264	-177	9697	1751	-15876	-4924	-668	-148	11993	3869	-18080	1324	3696	-1605	7552	-1164	-32768	-19228	-28044	-52	-10383	9182	-9400	-4244	-18324	5835	-10163	8014	-16640	8324	19732	16819	2076	8092	129	80	1
-12448	-1312	12708	-207	13018	1450	-18472	-2280	-984	-4499	14736	5289	-18744	-1348	1936	-3868	6783	-990	-32768	-29516	-30412	4463	1422	5355	-4200	-4284	-22060	-3080	5106	1970	-15744	9192	19460	14581	2859	8295	121	108	1
-12284	-468	12648	-259	17225	721	-18224	-2152	-1104	-5005	15017	5449	-18592	-3192	548	-8694	4073	-68	-32768	-20404	-22760	3832	10693	1547	-6896	-6924	-19556	-7285	17166	-4509	-11052	11812	10844	824	7273	1198	123	213	1
-11192	-240	13452	-1163	22308	-357	-18972	-248	-1676	-7101	17590	6992	-18244	-1496	96	-8477	202	855	-6620	4796	31624	-14962	7636	-14457	-29492	-2380	18644	23650	17043	-4767	-8760	8820	-1268	-9068	12058	-2094	110	184	1
-10740	-712	14408	-2346	30026	-2653	-21352	512	-564	-10754	17919	7460	-19108	372	3084	-6937	-4384	2724	-3684	1312	1120	-9886	21058	-31655	-18632	10028	-3656	-12559	8610	2360	-19056	4928	-876	-6338	11784	-1647	122	149	1
-8960	-1756	14160	-2622	32767	-5600	-24684	292	2396	-13010	17754	8435	-21884	1324	7472	-5661	-10153	4393	-15436	8960	11812	-9985	25554	-11918	-13944	-4408	7912	-21734	12978	-5529	-23896	4452	10984	-14132	-564	847	111	121	1
-9808	-1088	13636	-3702	32767	-7437	-23436	440	5812	-16773	17611	9290	-18788	1820	16000	-10866	-16165	5182	-29900	-10160	13408	-11104	23154	-13649	-29796	-5780	-13636	-29834	15778	-9040	-30092	11944	22920	-19547	1256	3372	141	106	1
-22392	-8136	6548	-4420	32767	-4313	-21012	-8464	-248	-15391	18598	11672	-12672	208	5688	-16189	-8470	4311	-22228	-8508	15944	-10378	3512	-9894	-16196	-3332	-6768	-22629	16391	-6989	-21048	-9992	-8376	-17469	22048	-1071	248	118	1
-32768	-3492	4504	991	32767	3968	-22092	-9856	-11340	-1828	23447	12492	-24456	-4444	-996	-12648	-7872	-1329	-16200	2236	10568	-4602	1656	-6197	-13960	-3284	-8124	-19686	15084	-3688	-7904	-9852	-10292	-4903	15239	-536	96	145	1
-26204	-13396	17876	3876	32767	11036	-32768	-1768	-3900	-7030	21862	11947	-30672	-8472	-17512	-13754	-10811	-5431	-14380	4052	9968	-1416	-1	-2934	-13584	-4316	-9224	-2540	14579	67	-6692	-1532	-9660	13226	6295	376	137	111	1
-15444	-7800	24536	2161	32767	12355	-27244	-2928	2436	-5585	14417	9723	-29104	-368	-8516	6158	-24614	-3847	-13228	4616	9888	-293	-1078	-2025	-16488	-3868	-7960	8687	13619	331	-13736	-16	-3660	7044	4970	5611	168	63	1
-19792	3520	19532	-15799	32767	15382	-16384	-4508	-3960	-5689	7950	6422	-26296	660	-3672	11518	-24738	-2158	-12372	5048	10180	696	271	-1275	-16612	-3960	-7780	10421	13156	560	-16044	6032	-6300	13497	11752	4034	130	85	1
-32768	-10252	23884	-20849	5260	8583	-6052	-3040	-30336	13567	6595	5620	-22700	1940	-3804	6969	-25956	-4055	-12672	4500	9860	739	921	-1046	-17308	4792	-5164	13542	9711	1712	-19640	5576	-5332	14530	9413	-1244	90	145	1
-20836	-13440	20524	-8875	-32768	3905	-14760	2792	-9468	-739	373	-316	-22844	740	-5508	3886	-22373	-5434	-12528	4124	10252	918	969	-985	-16084	5764	-3808	-2755	6985	59	-18124	6508	-2076	6789	8654	-3089	32	151	1
-7452	-8816	13268	-1335	-32768	3875	-12840	3064	-4456	-10413	-8186	-330	-23520	352	-7788	-2263	-19183	-5275	-12636	4560	10044	405	1121	-683	-17392	936	-5272	-11847	4932	-1134	-15748	5028	-2020	1546	8996	-2088	0	135	1
-2488	-5268	8884	151	-32768	2777	-7380	-1864	-8744	-12455	-14464	-2108	-20196	-1488	-8268	-2465	-17640	-4805	-12976	4776	9924	185	1042	-276	-16568	-2008	-5944	-6975	4097	-681	-15264	3676	-1852	507	8792	-1812	109	168	1
-7744	-4592	7820	-844	-32768	926	-5568	-2704	-5628	1520	-23294	-6444	-16156	-2612	-7656	-504	-16400	-4477	-12692	4716	9788	639	948	-100	-16336	-1648	-5232	4275	4138	762	-15284	2628	-1092	5065	14094	-1370	158	126	1
-11224	-6168	8064	527	-32768	-621	-6188	-1880	-8136	13751	-27722	-8691	-13324	-3444	-7240	4298	-15669	-4058	-12616	4816	9804	1004	839	-428	-16448	2404	-4132	9135	4533	1279	-15920	2384	-1116	5377	13034	-1876	147	125	1
-13060	-4080	8452	-447	-32768	-1214	-10008	1996	-9160	11395	-31193	-9395	-12440	-3416	-8444	11635	-14992	-2921	-12736	4900	9752	1331	1017	-785	-16588	3256	-3120	6765	4547	517	-15372	3556	-236	6848	13523	-1994	141	142	1
-14684	-3088	7884	-5190	-32768	-2644	-14732	696	-9024	6456	-32768	-9439	-12052	-2236	-9824	16802	-14200	-2023	-12752	4724	9768	715	973	-1220	-16148	2588	-3648	1913	4183	-313	-15704	4840	-328	7457	13903	-1743	149	128	1
-19108	-3456	9420	-9154	-32768	-5861	-12408	1928	-11544	4984	-32768	-10773	-10656	16	-8928	18503	-13496	-1006	-12768	4624	9932	153	1157	-1347	-16164	668	-4112	116	4110	-686	-15916	4680	-596	6799	14493	-1849	142	130	1
-24468	-6344	10640	-10496	-32768	-9800	-13384	1924	-11328	-6	-32768	-13178	-9064	1336	-7688	18002	-11959	22	-12808	4592	9724	38	1212	-1382	-16336	-252	-4288	2513	4410	-337	-15996	3744	-532	4977	14746	-1635	128	127	1
-25648	-8620	11036	-7828	-32768	-12839	-16732	124	-11380	-2610	-32768	-15799	-8132	2780	-5656	12774	-10063	157	-12932	4572	9696	180	1324	-1412	-16244	728	-3972	5318	5254	-114	-15500	2828	-68	2831	14511	-1772	135	130	1
-26752	-9332	11392	-4186	-32768	-15742	-18800	-812	-11760	1000	-32768	-18602	-7256	3740	-3844	7272	-5987	-41	-12844	4392	9668	430	1320	-1492	-16212	1304	-4072	5120	5676	-322	-15344	2240	-168	2849	14074	-2033	131	125	1
-32768	-9172	10508	-3803	-32768	-19554	-20468	-2124	-13036	10197	-32768	-20235	-7316	5624	-1680	3816	-2436	-514	-12964	4576	9604	151	1382	-1504	-15880	1812	-3124	3178	5931	-907	-15864	2680	-1192	5237	12962	-2098	99	123	1
-32768	-2624	7024	-4129	-32254	-24882	-20724	-2344	-13240	12304	-32768	-20315	-9972	4016	3844	4942	-4010	-1376	-13168	4804	9708	47	1896	-1850	-16264	1636	-1664	2328	7008	-1481	-17432	3136	-60	6283	11073	-1120	114	126	1
-32768	368	-84	-9852	-27201	-26811	-20896	-292	-15368	18649	-32713	-14511	-16232	48	9576	6621	-7901	-2068	-13140	4668	9876	276	2545	-2161	-16652	1832	-1376	2269	9081	-2095	-17756	4480	3192	5845	9450	-203	157	127	1
-32768	1104	-10604	-1234	-24480	-18766	-16220	1572	-18312	13931	-24192	-11729	-19672	-2444	16652	4365	-9650	-3228	-13164	5908	10268	1388	3625	-2675	-17040	3856	-2120	1360	11522	-2898	-16768	5824	3492	6970	8650	192	92	129	1
-32768	2956	-12508	961	-23650	-17122	-10800	4828	-16824	5802	-14428	-8762	-15092	-3644	21116	2424	-1286	-4308	-14296	4608	10368	-179	6876	-4498	-19100	512	-2880	470	12067	-3770	-18968	5384	1116	8078	7574	-301	95	127	1
-32768	19564	-28236	-1844	-7598	1	-7056	3256	-17672	-3576	-2021	-5784	-15924	-3728	16664	1	1461	-4049	-14036	4496	12024	-366	9385	-5622	-19012	-436	-3092	1290	14128	-4380	-19236	3928	188	8955	5032	-863	154	121	1
-32768	15352	-23716	-5849	3129	6202	-7132	336	-15748	-1406	11861	81	-14012	-1580	12652	-2600	1653	494	-14060	5108	12408	-523	12744	-6516	-19620	-204	-3744	1371	15121	-4892	-18428	2600	-116	9602	3623	-867	145	121	1
-21568	-9724	8664	9183	16258	14713	-12320	-2076	-6912	-7916	20323	5151	-12340	-2436	5860	-1512	3790	1819	-13928	5132	12216	-697	16698	-7861	-19892	-1864	-4604	2260	16113	-4947	-18292	2316	-76	9761	3547	-783	136	121	1
5280	-19100	32767	6429	8167	8132	-32768	1080	21320	-19571	11667	4219	-13432	-1080	-760	-1846	7554	1299	-12220	4100	13768	-299	22024	-8386	-21260	-2420	-3580	4210	16946	-5366	-19304	3640	1488	11696	2015	-789	139	120	1
-9520	-5960	6412	13492	30851	8157	-20164	-1864	-1132	68	11417	1052	-19976	8272	224	4948	8564	3330	-12416	5356	13044	375	27131	-8804	-22436	-2864	-900	4707	17665	-5955	-21816	3692	6196	14409	-4054	-1250	223	117	1
-16992	-12304	9788	15095	28454	-7261	-11636	-356	-1544	3949	15782	2775	-13228	-888	3800	9913	6986	785	-11700	5516	13700	2094	32767	-10909	-23384	-3636	1548	5785	18856	-5742	-21488	2772	13520	15597	-12570	-1877	253	111	1
-32272	32767	17536	5583	26650	74	-23320	-60	-5824	13526	16979	1177	-23004	-11088	12044	17356	5571	-8392	-15116	6896	12744	3386	32767	-11653	-25888	-3148	2504	8530	19077	-5673	-19248	-2008	12796	14567	-11073	-1915	159	119	1
-32768	-14972	24072	-3523	12604	-1728	-23412	5120	-16848	20816	18825	8625	-22604	10244	-4360	17184	12393	-644	-32172	8908	6860	4003	32767	-15426	-25656	4484	-2084	6101	22402	-5937	-20328	1544	3372	14185	-9394	-855	65	117	1
-11516	7992	11940	948	6059	2206	-16484	-36	-7748	5876	15582	3016	-16816	5152	-13332	-2627	16267	66	-30224	6368	8444	4133	32767	-22395	-23680	3476	-3516	-4211	22249	-6486	-23420	7308	-2512	12261	-13741	1695	97	108	1
-15824	-1512	11324	551	4178	1061	-14028	-2764	-8592	8591	12719	-412	-13040	328	-10476	-8860	12649	-5983	-28456	13044	10632	4427	32767	-23732	-26860	176	-5180	1487	19206	-5785	-23024	7340	-11344	466	-17574	4497	150	112	1
-13096	-684	11248	345	2842	393	-15640	4124	-8028	-1088	9444	-365	-13688	-1032	-7404	-8732	10537	-4345	-23672	13620	18848	3034	32767	-28038	-23220	2600	2016	8095	19620	-3961	-26280	4216	-8420	-7064	-21914	4590	61	113	1
-12336	-2344	10992	-432	2229	-241	-16664	676	-6520	-12907	6537	-1130	-15676	-1576	-4036	-5826	9290	-2184	-32356	436	14232	11285	32767	-28347	-15476	4476	-18552	-2884	13791	-1841	-26276	1256	-6220	-9270	-23961	5570	197	87	1
-12104	-2388	10900	-715	1824	-93	-17012	-3500	-5472	-15841	5028	-2554	-18380	-3648	-3400	-3232	10936	-471	-27648	11524	17352	8287	-15894	-6586	-15064	708	-15532	-7256	1721	-3236	-25268	444	-4676	-8802	-24375	7149	209	127	1
-12056	-1380	11164	-804	1293	-258	-16004	-6476	-3744	-5384	4993	-1997	-17900	-2516	-1140	135	9735	918	-9028	12760	15468	5931	-32768	5196	-13576	-3104	-1924	2884	-3810	-1080	-24436	-1616	-6304	-5569	-22253	7922	112	102	1
-11820	-2204	10796	-746	1315	-641	-14692	-6756	-3812	7021	5842	-317	-15680	-2696	-536	1313	11123	972	-2836	10792	10100	3450	-32768	7481	-10928	-2936	-4924	12005	-10057	2793	-24060	-1892	-6564	-4337	-21718	7992	95	90	1
-11476	-2824	10520	12	1171	-133	-14732	-6536	-3828	8391	5830	-85	-14972	-2176	-240	401	12302	-19	-8548	8700	8508	-135	-32768	10120	-7764	-1708	-7888	13773	-17954	5124	-19476	940	-5436	-3071	-19922	8801	93	116	1
-11620	-2820	10316	586	1008	355	-16448	-120	-4464	2880	3430	-380	-15412	-1304	36	-2985	12426	-498	-11912	6328	8488	-2100	-32768	15410	-9544	-720	-9616	6783	-24170	7379	-16508	932	-5692	-6330	-17978	7782	123	144	1
-11868	-2172	10676	574	1033	535	-15692	-592	-3248	-8013	2214	-1134	-15104	-1168	-304	-8442	13814	-879	-12900	3592	9204	-246	-32768	19526	-10328	-1740	-8228	820	-29116	7551	-15784	764	-6360	-12796	-17215	6543	134	131	1
-11788	-2288	10572	107	1079	809	-15536	-4740	-3116	-10500	2220	-1248	-15600	-1864	-52	-11335	14181	-507	-13204	2328	8648	2959	-32768	19782	-12088	-2428	-6552	-176	-32768	9677	-14512	132	-7492	-18600	-16715	5143	68	157	1
-11808	-2444	10536	283	1025	1226	-14636	-6464	-2724	-4560	2756	-364	-14616	-3412	176	-11143	14477	438	-14852	1528	10036	5928	-32768	17974	-12176	-2764	-8372	-905	-32768	11459	-12088	-352	-7588	-20116	-15255	3813	135	156	1
-11888	-1840	10804	510	1025	1297	-15012	-5120	-2632	1287	3459	753	-14008	-4124	492	-6563	14851	950	-19504	704	10596	9973	-32768	17308	-13336	-4664	-8504	743	-32768	12587	-9920	-1292	-7204	-19184	-12530	2733	149	141	1
-11904	-1952	10544	710	1073	1111	-15908	-2412	-2840	1893	3913	1290	-15096	-2316	156	-974	14488	617	-20620	3288	11196	11773	-32768	18580	-15364	-4944	-9084	1830	-32768	13898	-7328	-2596	-6504	-16048	-8593	1952	126	188	1
-11812	-2032	10532	606	1227	1149	-15732	-2320	-2584	-1340	4113	1001	-16272	-1704	-224	-575	14252	794	-24184	6756	12496	8651	-32668	21939	-17584	-5596	-10428	1176	-32768	14449	-6448	-3784	-5648	-11922	-3847	1661	102	178	1
-11564	-2280	10360	454	1359	1487	-15324	-3544	-1616	-3230	4691	841	-18780	-4364	-1544	-1545	11606	-209	-32768	5880	12632	3905	-29454	27978	-20884	-7332	-13688	-2741	-32768	15313	-6396	-5288	-2812	-6599	-879	1900	35	153	1
-11724	-1992	10648	711	1520	1952	-15496	-5616	-1752	-711	5807	1547	-18692	-3108	-3840	-2389	8815	590	-32768	-1900	10284	3595	-27169	32579	-22640	-5752	-14708	-3049	-32768	14317	-7288	-5344	972	-4735	-1595	2297	114	118	1
-12348	-1184	10648	785	2041	1940	-16392	-4112	-2008	1595	7143	2372	-18208	-1928	1568	5128	8133	699	-32768	-2292	3344	5438	-25171	31309	-22068	-2340	-17072	-4487	-32768	11210	-10404	-2152	6340	-2649	-4369	3535	116	111	1
-12288	-1492	10908	842	2311	1264	-16084	-3812	-124	1082	8681	3240	-17216	-2812	3492	3533	8524	-172	-32768	-680	-7328	-2357	-28210	26161	-19512	-2956	-17236	-9004	-32768	7620	-14788	-380	14124	3273	-6770	3170	135	86	1
-12504	-1728	11212	1361	2743	1034	-15468	-4184	-212	1520	10642	3818	-17148	-756	3708	355	8144	-534	-32768	-7188	-18904	-9218	-24301	19151	-14536	-4220	-18112	-8825	-24405	5516	-19276	1456	20400	9893	-4789	2961	110	71	1
-12612	-1744	11300	1466	2843	985	-16504	-3208	-1244	610	12127	4217	-17168	696	3052	-1295	7571	-715	-32768	-18576	-27296	-2357	-10661	10818	-9712	-6784	-20372	2851	-11182	5952	-20184	6224	19724	4973	-341	4388	128	81	1
-11276	-624	13736	-1459	5384	609	-16744	-3356	-3360	-1607	13205	4637	-16080	-220	508	-2749	7930	-460	-32768	-26792	-28308	16546	1653	8645	-6924	-3432	-19980	7743	2957	3462	-15908	6012	16416	5958	-1461	-545	139	140	1
-10616	-508	15480	599	10640	1959	-19824	-3220	-1972	-4451	13257	5142	-18468	-1904	-2336	-4150	7086	-735	-32768	-11428	-23068	18097	9551	978	-8576	-112	-18308	8207	16448	-1223	-13080	5764	11220	5053	2377	-1275	124	232	1
-12092	-180	13940	382	14953	1914	-19636	-1948	-3708	-4979	14332	5890	-21392	-3376	-2480	-4774	3654	-288	-12144	27336	21700	-12437	8186	-14031	-9044	56	-18704	7687	18385	-2007	-10616	7056	3588	1654	6681	-135	94	165	1
-11848	-884	14052	722	20260	1722	-19676	-548	-3776	-7010	15049	6533	-18836	-3284	-212	-6486	558	1126	20020	30360	32212	2253	1080	-11075	-32768	4408	32767	29667	11196	-1979	-12424	5900	-1044	4493	5590	845	113	135	1
-10356	-576	15084	-174	27415	515	-22012	-1300	-1456	-9018	15336	7263	-20792	-1532	2484	-5715	-1161	1853	-18136	1448	7788	-8598	20416	-19114	-8292	8308	-6520	-9984	14404	1416	-16364	-3992	-2752	5503	10874	1709	129	122	1
-9988	-2476	14416	-323	32767	-653	-23480	-1808	2048	-9382	15903	8586	-22244	-112	7376	-4562	-6303	3376	-12532	12092	7740	-11010	22884	-8366	-19984	976	-1596	-19736	13989	-4879	-20332	5056	12184	-13147	2978	2540	142	124	1
-9128	-3116	14148	-736	32767	-1087	-22852	-3340	5280	-10556	16891	9502	-20812	444	17016	-3462	-14374	3778	-29880	-12132	14640	-4470	22443	-12982	-24152	-1312	-7036	-27575	11354	-4942	-20588	11280	13864	-10902	9366	3721	148	108	1
-14868	-5540	11824	-2661	32767	1634	-22716	-5604	4480	-11705	18073	10280	-16876	1832	15296	-17967	-14964	2116	-25956	24108	10844	-9038	12552	-4325	-21176	-7160	-9040	-24114	12723	-5862	-22920	-8148	-3560	-13529	16881	440	164	108	1
-32768	-4272	6992	-1368	32767	9345	-21644	-6600	-8332	-7769	21559	10748	-18784	-964	4936	-12951	-10333	294	-13320	1184	11036	-3464	5747	-4486	-14832	-4040	-6872	-11999	13574	-796	-15812	-2180	-6076	-2964	16359	-1867	123	121	1
-32768	-13896	9856	1067	32767	14915	-27020	-2000	-6740	-11451	21934	9262	-23920	-8492	-14568	-15814	-10130	-5592	-14568	2580	10428	-2376	754	-4508	-15752	-3656	-8508	-396	13341	1302	-9668	3292	-6956	4282	15922	54	175	128	1
-23512	-10752	19000	-3473	32767	18213	-26836	-3516	-2136	-13379	18256	7852	-28088	668	-6668	599	-20681	-5491	-14064	4228	9964	-1386	-567	-3135	-16920	-2316	-7344	7886	10915	1702	-14284	1792	-5944	2581	12000	2949	169	100	1
-7032	-11040	21580	-6782	32767	21531	-20480	-6624	1292	-7297	10456	4174	-27932	2708	-3680	9533	-24315	-3711	-13192	4832	10056	-520	-415	-1693	-17300	712	-5768	9343	8962	1259	-15572	3668	-3788	2486	12867	3004	124	96	1
-32768	-15248	21100	3422	24201	12492	-10076	-4272	-26524	10484	7340	629	-26240	2628	-4820	1249	-23626	-5244	-12720	4744	10212	54	270	-952	-16936	2128	-3432	3231	6671	922	-17716	4652	-3604	3282	12524	-495	147	134	1
-27832	-4960	25216	6472	-20534	-990	-8888	2412	-14620	11363	6724	-1192	-23824	496	-6148	-198	-23207	-8328	-12432	4248	10212	522	503	-517	-16556	2316	-3028	-4361	5910	636	-17084	3888	-256	541	11233	-2715	0	134	1
-9132	-1396	17488	-680	-32768	-5400	-15800	4624	-3552	-1464	-4253	-3063	-23956	84	-5996	-49	-23007	-8568	-12516	5012	9704	1425	325	-383	-17228	1520	-4008	-6810	4792	95	-15620	3704	-368	-1455	11420	-2408	0	142	1
-4060	-628	11364	-8292	-32768	-7851	-9344	1100	-8440	-4584	-11544	-3857	-21844	-1472	-9088	-1985	-18027	-7990	-12532	5600	9544	1673	146	-561	-16612	-84	-4100	-1894	4467	149	-15080	3604	-1200	-172	12848	-1259	118	126	1
-8808	-3420	9188	-10691	-32768	-9932	-5560	-1364	-7268	3788	-19063	-7596	-17544	-1872	-9532	-1870	-16406	-7150	-12196	5480	9692	1459	170	-1036	-15716	-1352	-3628	7197	4472	1423	-15568	3472	-620	1614	13960	-678	133	116	1
-11684	-6148	9760	-4112	-32768	-9800	-5004	-1436	-8860	15062	-25206	-9825	-13948	-2068	-8816	-565	-14736	-6305	-12612	4784	10108	1799	410	-1154	-16876	1452	-2052	9524	5233	892	-16152	2676	704	3056	13412	-537	171	138	1
-12216	-4476	9832	3445	-32768	-8174	-8652	1052	-7748	13482	-30702	-10811	-13512	-2232	-8708	-263	-14582	-6182	-12456	4720	9996	1489	1018	-1107	-16320	2812	-1616	3941	5416	59	-16396	1596	1140	4696	12513	-984	143	133	1
-14048	-564	9248	2643	-32768	-7856	-13176	1976	-8220	12735	-32768	-8916	-10148	-2784	-9816	8367	-11393	-5412	-12560	4928	9876	845	1499	-1120	-16272	2004	-2284	-859	5292	-755	-15864	2288	1116	6504	12091	-1279	144	123	1
-15732	680	10208	-3264	-32768	-9172	-12616	2880	-9360	10324	-32768	-9278	-8416	-1200	-10324	16347	-10546	-4228	-12656	5104	9708	379	1587	-1119	-15972	596	-2888	-1172	5559	-1125	-15752	3080	196	7090	12236	-902	139	125	1
-22524	-1160	12092	-9943	-32768	-10201	-13560	2900	-12192	4567	-32768	-11503	-7080	696	-9468	20949	-9286	-2646	-12980	5012	9532	34	1535	-1253	-16292	56	-3840	2144	5942	-643	-15644	2768	-944	7001	12278	-670	142	120	1
-28296	-4992	12480	-12549	-32768	-10898	-15864	812	-11660	-893	-32768	-14665	-6836	2832	-6940	18780	-8976	-1070	-12888	5020	9760	57	1521	-1437	-16568	1012	-4016	4158	6533	-570	-15776	1956	-1956	5202	12106	-411	120	118	1
-31676	-8872	13356	-9937	-32768	-12422	-18756	288	-11784	-185	-32768	-17741	-6568	5064	-3912	11548	-6119	124	-13064	5104	9680	105	1646	-1555	-16912	1100	-4084	3462	6574	-938	-15572	876	-2256	4146	12644	-715	121	125	1
-32768	-10576	12476	-5729	-32768	-14019	-22380	80	-12260	3411	-32768	-21657	-6836	8044	-732	3970	-2370	615	-12908	4940	9852	-106	2010	-1594	-16996	128	-3292	2424	6622	-946	-16880	1072	-1720	5139	13128	-662	119	128	1
-32768	204	10840	-3305	-32768	-17808	-21668	-556	-15412	14275	-32768	-22423	-10004	6628	5740	3764	-2344	865	-13240	4924	9768	-147	2489	-1600	-16668	716	-2008	2903	7597	-1231	-17332	2120	-224	6166	12165	-12	132	131	1
-32768	8284	2352	-13429	-32768	-22631	-22620	-1484	-11696	12635	-32768	-17696	-15708	2272	13848	3072	-5591	-213	-12972	4776	9536	-39	3135	-1757	-15804	2676	-144	3634	9950	-1929	-17052	3820	3228	5347	10672	965	131	126	1
-32768	6092	-11496	-6731	-28356	-15830	-15584	-928	-15092	14451	-26100	-11962	-19712	-4112	19520	6396	-8138	-3354	-12860	5236	11072	1613	4354	-2137	-16716	3716	-296	1296	12255	-3200	-17196	4780	5152	5147	10203	1573	106	129	1
-32768	20808	-29580	3012	-19543	-5677	-10452	5968	-17592	9659	-12548	-7900	-18220	-11436	28748	6696	546	-5210	-13564	4888	11272	237	7279	-3944	-19012	884	-1108	-1231	13436	-4265	-18716	4244	3180	7395	8786	828	112	121	1
-32768	27364	-32768	-2392	-2460	-1256	-3148	5432	-12944	-4911	6328	-191	-17544	-6404	20564	2396	55	-1347	-13560	4692	12284	-142	10476	-4309	-19236	-664	-2800	-1474	15457	-5035	-19152	4208	264	9222	5919	-249	149	117	1
-32768	18460	-20916	892	11317	8275	-6156	288	-19700	-3612	21385	6205	-15756	-2164	10484	-931	3159	3302	-13820	5828	12504	-455	14448	-5384	-19296	-504	-2936	-1291	15754	-5126	-19480	3848	-368	9034	3799	-398	118	125	1
-30944	-4880	32400	-4897	14625	17562	-28312	-100	9444	-19456	20595	8650	-10504	-1116	-2900	-4498	8461	5950	-12824	5216	14344	-377	19600	-6775	-21692	-2096	-2712	2699	18367	-5471	-19768	3576	1420	8373	1557	41	119	123	1
15080	-28144	6364	9223	23241	20310	-32768	-1728	10672	-7081	7684	-1348	-17324	7452	160	1052	10684	6642	-10980	4688	15492	676	27406	-7358	-25072	-3036	1792	4794	19359	-6479	-22552	2976	5156	7464	-1100	278	147	121	1
-27988	-8676	4876	11016	28709	-2555	-7952	-144	-8088	-3953	12998	930	-18908	9368	92	1700	11465	6888	-10984	5868	15388	1498	32767	-8525	-24644	-6260	3828	4659	20859	-7038	-23120	1032	13148	9108	-12139	-1507	253	119	1
-22856	640	11692	13912	29113	-2559	-17380	-5956	-9328	-8189	15665	2318	-19228	-18512	4528	13316	5229	-6725	-12116	6376	14968	2554	32767	-8505	-25652	-6000	5188	5382	21833	-7592	-20400	-4448	18900	14181	-22864	-3181	195	135	1
-31360	17012	13596	-2648	24216	4619	-22612	-3948	-10816	21885	15279	4916	-26868	844	4548	11441	9342	-4680	-32004	7400	8152	4560	32767	-10782	-25620	240	-500	3448	22616	-7500	-17532	-3768	7008	20971	-10256	-1784	24	130	1
-17688	-10656	8752	5789	13641	5925	-23820	-2436	-15932	14442	17315	6193	-20520	12556	-10140	1988	11120	1114	-32768	16116	7392	1100	32767	-18355	-28820	8688	-6852	-1823	23101	-8284	-22124	9676	-9192	23354	-8283	1977	127	113	1
-15908	-5488	10924	2671	7574	3225	-13364	3564	-9496	11978	12868	1269	-15408	-1920	-10072	-11573	11127	-3135	-28972	13652	11084	-1751	32767	-24703	-27560	536	-3252	-246	21807	-8300	-25680	9680	-13584	7428	-17097	6997	126	65	1
-14560	-1852	11192	1348	4818	1644	-16456	4456	-10028	-2071	10413	-174	-12792	-3644	-9140	-5791	13047	-3605	-21884	16012	24052	2385	32767	-22932	-23460	2416	-1848	267	23142	-6954	-29000	3880	-7752	-12503	-25158	5739	143	88	1
-12856	-2000	11016	349	3258	314	-16164	1768	-7468	-18409	6552	-1521	-15704	268	-7152	-9016	10234	-174	-32768	7852	16380	8588	32767	-18819	-15040	2304	-21836	-11503	11816	-5481	-27612	3532	-8984	-13164	-26058	5704	173	168	1
-12572	-1940	11196	-445	2346	-230	-16456	-7016	-5604	-17319	4593	-2022	-15388	-2752	-5360	-6364	11015	-67	-23408	13340	16840	3554	-14330	-6630	-16300	2020	-10696	-8989	1028	-5809	-26104	1136	-5620	-10806	-26669	7076	209	114	1
-12324	-1448	11208	-1117	1693	-978	-15304	-8664	-3400	-12	5184	-919	-17604	-5632	-3264	-928	13022	266	-8220	10616	15980	1542	-30997	-1007	-11416	-1000	-3876	177	-4489	-3652	-25096	1596	-6388	-7066	-23356	8226	80	66	1
-11832	-2604	10768	-1301	1358	-1518	-14904	-6280	-3956	10753	5571	1067	-17120	-5404	-1652	2350	11992	940	-2852	9012	10492	2212	-32556	-117	-10304	-396	-5196	8553	-11650	-402	-21920	1920	-7476	-3710	-20994	8104	105	100	1
-11872	-3332	10528	-782	1131	-1142	-16004	-2508	-4180	6414	4288	685	-16716	-4876	-1276	2464	11945	1037	-8632	10216	7996	174	-32768	2466	-15348	15344	-19268	8849	-17960	8926	-18448	4136	-7404	-5059	-19738	8732	55	131	1
-11832	-2772	10548	-678	1007	-721	-14668	372	-2748	-9071	3165	-1308	-15188	-2212	1336	2	11642	1766	-11000	10512	7624	-3002	-32768	7263	-7392	5368	-8544	-1215	-29275	-2700	-15884	4004	-6516	-8639	-18400	9500	128	145	1
-11592	-2936	10496	-748	1084	-558	-15400	-4992	-2808	-12625	2655	-877	-12560	-1752	352	-7490	13398	663	-11756	10124	6744	-5856	-32768	11644	-7544	-3196	-6576	-1714	-32309	4110	-12468	1108	-8516	-12066	-15380	6178	0	144	1
-11548	-2740	10428	-644	1186	-16	-14728	-6140	-2128	-8803	2827	-252	-15776	-1040	-1236	-6806	14928	-1942	-13252	8444	5364	-6192	-32768	15083	-9848	-492	-7116	-647	-32768	3612	-12560	2208	-8100	-19161	-12430	4668	142	152	1
-11600	-2708	10464	-621	1482	250	-15028	-5856	-2196	-3760	3432	796	-13232	-2380	700	-3251	16568	-3841	-14832	7224	6336	-4015	-32768	17908	-10956	-724	-9028	-1328	-32768	5647	-10276	668	-9144	-24088	-12907	4370	170	140	1
-11604	-2776	10236	-518	1757	568	-14728	-4536	-2220	-987	4149	1357	-15024	-412	180	-2944	13794	-2646	-19176	7316	7376	-568	-32768	19051	-12140	-88	-9164	1935	-32768	6596	-8020	-1664	-8340	-24100	-11140	2616	156	168	1
-11492	-2868	10276	-336	1932	950	-15288	-2616	-2312	-2480	5101	1132	-16328	136	652	-6560	12942	-607	-22312	8800	8332	2158	-32768	19391	-15200	-536	-10564	2067	-32768	9916	-6740	-3496	-7280	-19246	-6460	1118	99	216	1
-11708	-2500	10232	-390	2166	999	-15684	-3160	-2356	-6787	4762	816	-19840	-4572	-696	-8388	11966	-1553	-26140	8352	10212	4609	-32768	20955	-17880	-1908	-12064	750	-32768	12156	-6520	-4080	-5392	-13292	-1087	250	75	154	1
-11576	-2792	10564	-518	2548	1160	-16004	-4760	-2160	-6786	5296	1272	-18264	-5012	-4188	-8433	9007	-1148	-32308	5200	11040	10403	-31878	23978	-21960	-5076	-14076	2105	-32768	13864	-7132	-4732	-2452	-6623	1039	339	111	129	1
-11852	-3016	10184	-188	2901	1284	-15232	-5660	-2404	-3372	6594	2210	-16848	-3748	-444	259	7467	224	-32768	4624	7360	16874	-29329	25724	-23824	-5104	-17180	7232	-32768	15140	-7784	-6524	504	-3832	364	1623	86	107	1
-12328	-2572	10232	443	3373	1223	-15308	-5024	-1896	-512	7742	2948	-15652	-4328	1240	884	8120	-219	-32768	5184	56	16483	-30101	24688	-22268	-4564	-19396	12684	-32768	16063	-11276	-4320	5304	-2062	-3190	2162	110	110	1
-12312	-2808	10480	973	3803	1058	-15632	-4292	-500	469	9190	3549	-16564	-2760	2104	-782	8045	-513	-32768	-3068	-8464	10956	-32248	24600	-18896	-1548	-18696	14910	-32768	16209	-18860	1468	14392	9858	-11618	2757	120	89	1
-13204	-2176	10732	1587	4194	451	-16000	-4476	-1516	1581	11025	4074	-18116	-728	2908	639	7180	-690	-32768	-6896	-19148	2978	-28323	19857	-15216	836	-17924	9253	-23742	12678	-22396	2968	20212	22234	-8143	6133	137	59	1
-13036	-1980	10916	2082	4035	-222	-17320	-3224	-1812	1757	12297	4651	-17736	440	2212	-400	7092	-883	-32768	-16776	-28480	982	-18314	11201	-9320	-1376	-17324	4024	-10696	8534	-16116	8516	18220	17319	1235	8816	111	89	1
-12708	-1364	12428	476	4067	-1006	-17296	-2912	-2152	586	13159	5158	-16856	-508	592	-2138	6839	-369	-32108	-22260	-30000	3296	-5617	4834	-7488	-1412	-15836	-1875	4725	2736	-13804	13972	15872	9966	3373	5107	132	107	1
-11948	-2876	13896	-1719	7284	-1582	-17676	-4496	-2908	-312	13954	5706	-17768	-2564	-1496	-5254	6067	-464	-32260	-16260	-24164	-674	10192	-3555	-8868	-2700	-16804	-8218	16547	-3634	-12192	12140	10052	920	2579	2297	138	226	1
-12584	-4880	12940	731	13948	-790	-19544	-3952	-3244	-822	14308	5491	-20328	-3536	-2840	-5148	2989	-317	-31188	30512	32767	-25373	12742	-16422	-18832	456	-2980	6971	24870	-5788	-11548	11380	8904	-1500	2706	2050	100	181	1
-11484	-2712	14004	1355	20332	-398	-20084	32	-3488	-6654	14755	5543	-19872	-3276	-776	-6279	400	802	22464	27920	21212	-4633	8722	-7954	-32768	2968	32767	11860	5942	-26	-13112	3928	-5368	-10383	14406	278	110	151	1
-9636	-424	15444	42	28740	-2110	-22512	-168	-656	-12446	14899	6312	-21460	-1604	2808	-7695	-2299	1851	-23252	-14344	12656	-9664	25502	-17658	-6132	3372	-3464	-16558	13999	682	-23256	-2236	3116	-3412	5568	820	119	134	1
-9304	-440	14692	-2020	32767	-4463	-24260	696	3644	-13856	15605	7566	-22448	2312	9856	-6608	-10768	3972	-11208	8308	8976	-9248	23187	-8884	-20324	-6092	1568	-21179	14097	-7717	-19404	4752	18592	-18217	-3993	464	143	112	1
-9936	-580	14004	-3513	32767	-7266	-23108	-988	7248	-16281	16270	9088	-19124	3308	22276	-18030	-17771	2812	-32768	-8740	10940	-3448	23283	-12654	-26552	-4584	-6960	-20750	12715	-3661	-21672	-800	15804	-15187	3778	-1590	169	95	1
-18700	-4816	10044	-7223	32767	-6728	-20712	-6712	2100	-14712	17839	11044	-12504	5072	9204	-8463	-7080	1728	-18604	14516	11656	-6165	14186	-4229	-20104	-2352	-7168	-16780	15168	-3714	-22452	-11056	-4696	-11567	19875	-2209	133	141	1
-32768	-8660	6256	-2656	32767	1085	-21944	-9664	-10544	-3303	22139	12205	-22080	-6468	-3676	-18082	-10547	-1798	-17048	4544	10236	-2207	6611	-4234	-14532	-604	-6628	-14386	14715	-1855	-13544	620	-10996	2477	16971	-182	206	106	1
-27412	-11720	15780	-3028	32767	8358	-32340	-1008	-3796	-6933	21479	9848	-26616	-10564	-15448	-16308	-12162	-6142	-15320	4544	9756	-2437	1183	-4509	-16180	-476	-9704	-6696	12870	-9	-8160	6592	-10092	8043	13753	2499	10	123	1
-21624	-9184	22744	-10284	32767	10758	-25312	-6340	1376	-12177	17736	9409	-28080	-3412	-4168	7520	-23343	-3245	-14984	5156	9428	-1966	1632	-3940	-16256	-6332	-9036	5471	10023	1060	-13980	-8	-5564	3776	9097	5220	206	87	1
-14904	-13500	28288	-15799	32767	12830	-16240	-8364	-15132	-6368	11647	5080	-27472	-2172	-4120	10806	-22348	-1765	-13332	3032	10856	-619	-424	-1354	-18816	-3660	-6328	15388	8497	2022	-17060	1356	-4164	5776	14081	3205	144	81	1
-32768	-16240	27732	-6436	-16660	-366	-11604	-1192	-23168	18034	8675	4995	-25372	-2584	-5412	8089	-23648	-6587	-12392	3376	10928	439	321	-139	-17456	1140	-3112	14148	7498	1931	-20188	3568	-1912	7747	12892	-2689	114	126	1
-692	-8756	23484	994	-32768	3161	-18736	-2284	1868	-5432	-432	1714	-26056	-1576	-7988	9134	-21654	-6426	-12396	3912	10456	988	557	199	-16464	4876	-1188	5750	7398	1562	-16484	5216	1560	5657	12261	-3614	5	150	1
-636	-2180	14320	-5244	-32768	6059	-12716	-3912	-4752	6467	-11418	-1204	-25112	1228	-9044	155	-19681	-4764	-12572	4656	10044	1040	856	281	-16104	6556	-1540	-7873	5668	-402	-13400	5892	1236	1462	10712	-2493	63	128	1
-10968	-9064	10484	-6296	-32768	3959	-6544	1344	-10720	12257	-16859	-4010	-18240	-132	-7768	-521	-19550	-4384	-12112	5532	9436	637	1033	-326	-16948	1224	-3460	-9766	4893	-1527	-15772	5860	-752	-1003	10743	-878	133	140	1
-9568	-11300	11376	3344	-32768	2750	-5408	3016	-8352	7814	-24283	-6965	-13784	420	-6488	-1413	-17881	-3947	-11876	5484	9380	748	841	-1223	-15648	-3156	-3532	2783	5474	21	-15300	3452	1688	509	12303	-704	154	108	1
-10500	-5000	9884	7439	-32768	1552	-9440	1728	-7444	2561	-30506	-8964	-12396	-632	-7864	629	-15393	-3429	-12360	4724	9760	1061	755	-1932	-16520	184	-2588	11583	6565	751	-15640	2584	1880	1619	11816	-617	142	127	1
-12736	-2292	8688	2442	-32768	-2141	-12872	2420	-7664	3040	-32768	-9238	-11532	-1632	-9644	4190	-13704	-3146	-12484	3428	10184	2119	1156	-2178	-16388	2416	-1888	10455	6910	545	-15412	828	2004	6080	11518	-1421	141	130	1
-13936	-1956	10300	-3227	-32768	-6654	-10756	2540	-8796	3321	-32768	-10790	-9796	-1024	-9632	10676	-12577	-1925	-12636	4416	9900	1890	1417	-2036	-16112	4044	-1752	1559	6678	-868	-14848	2624	1960	8410	13279	-2225	144	129	1
-20276	-2684	12396	-7091	-32768	-8143	-12760	1364	-11488	1673	-32768	-13288	-7868	932	-7984	14810	-11376	-608	-12752	4984	9728	1401	1253	-2155	-16004	2060	-2840	-4976	6549	-1962	-15148	4096	812	8142	15861	-1381	135	125	1
-26220	-3352	13164	-10323	-32768	-8201	-15672	140	-10900	1832	-32768	-15536	-7448	1984	-6772	14884	-11313	872	-12820	5016	9564	-22	1495	-2351	-16356	88	-4148	-4276	6375	-1748	-15464	3356	-480	7109	16463	-525	177	114	1
-29424	-5104	13480	-11233	-32768	-9270	-17816	856	-11128	2697	-32768	-16436	-6880	3308	-4648	10282	-9585	1128	-13408	4352	9804	-205	1546	-2411	-16548	-948	-4996	980	6860	-986	-15656	2036	-3108	5237	15853	-227	140	118	1
-32768	-9132	12920	-8750	-32768	-11623	-20172	2296	-11364	2442	-32768	-18535	-6388	4348	-2508	5039	-6615	968	-13328	3924	9964	21	1896	-1946	-16612	16	-4320	3973	7747	-936	-15916	1336	-4396	3123	14209	-576	125	127	1
-32768	-1564	10900	-5205	-32768	-16567	-21460	280	-14112	4969	-32768	-19207	-7376	3232	1544	1922	-6033	-39	-13448	3736	10124	228	2410	-1541	-16972	1040	-2176	2801	8198	-1520	-16860	3032	-1712	675	12861	-1067	79	137	1
-32768	1788	4684	-8828	-32768	-21857	-22140	-1908	-13864	2172	-32768	-16107	-11600	2192	6804	-360	-6284	-730	-13384	4220	10240	40	3312	-1214	-16580	1604	-1388	-617	9755	-2123	-17896	5828	1480	247	11366	-1028	135	131	1
-32768	-2784	-8020	-3163	-32768	-18343	-18944	-2988	-14580	10174	-30374	-12302	-18596	-2356	17432	-898	-10149	-2232	-13680	4440	10428	-523	4238	-958	-16876	2288	-1112	-2330	11320	-3094	-17384	6152	4296	-29	9763	-590	109	129	1
-32768	4276	-24364	5349	-23713	-11212	-11352	1468	-17328	14879	-18108	-8812	-19864	-7712	22664	-3451	-2067	-4055	-12808	5428	12524	1335	5873	-974	-17940	1788	-916	-2369	13131	-3916	-17704	4096	4104	777	9253	186	60	137	1
-32768	18408	-32768	-768	-10789	-6544	-7620	4596	-18532	6198	-3349	-4880	-17244	-7880	21092	544	2369	-2295	-14184	5268	12060	8	9802	-2952	-20112	32	-2024	-1298	15605	-4529	-19880	1748	2892	3116	7541	-175	127	123	1
-32768	14480	-31384	-6925	5687	-3733	-6380	2740	-15616	-2499	12423	1592	-15660	-5384	14452	2119	2492	998	-13968	4588	13212	-96	13941	-4490	-21188	-1056	-2204	-490	17580	-5020	-20356	2304	2232	6637	5257	-554	141	120	1
-32768	4984	-18272	5461	16682	5631	-8856	-1364	-20576	-1576	24121	6630	-13320	-5416	5888	2575	5271	2666	-13624	4776	13332	-125	18830	-5485	-20664	-2344	-1828	818	19299	-5304	-19612	2476	2208	10533	3157	-217	176	123	1
8900	-888	32767	2635	4600	10771	-31816	-3968	16728	-21144	17237	5966	-8504	-4872	-3232	3918	10409	1480	-11916	4080	15328	189	25349	-5990	-22604	-2772	-1048	3268	20750	-5664	-19928	2376	4184	13087	846	-452	183	116	1
20532	-9372	2328	12518	32767	18671	-26760	-2468	2940	5760	10875	-1429	-18024	6164	-4140	4921	14361	3704	-11432	7184	15176	373	32767	-7183	-23368	-2620	-740	3575	21034	-5885	-23332	1688	8028	12528	-4441	-855	204	124	1
-27156	-13788	3760	14325	28910	-6318	-5560	192	-6876	7852	15921	3158	-18736	-44	3996	20216	5501	1009	-10940	6676	14836	2360	32767	-9759	-24980	-6248	3568	6644	22530	-5852	-22260	-656	19788	20003	-21729	-2129	197	120	1
-29444	17876	17660	11275	28562	8872	-20472	-7152	-5776	6578	17722	1264	-21788	-16408	11636	26452	3640	-5472	-22052	7548	12380	3201	32767	-13498	-25656	-1080	460	8146	23637	-5832	-15740	-7932	12448	15771	-12287	-2013	139	124	1
-32768	-32768	6236	4576	15426	2329	-27344	2188	-18680	30238	19897	7733	-26236	12208	468	18467	12961	-3104	-31908	13720	9708	2754	32767	-19219	-27820	8240	-1072	3046	25639	-6354	-22004	5344	-4244	21377	-10589	664	47	121	1
-14140	1828	11160	1729	8387	5853	-17364	4944	-7728	14698	17151	4262	-18904	9912	-12556	-2790	13814	-160	-28208	14308	10868	440	32767	-24551	-29912	2176	-6820	-1682	23688	-7200	-25880	11772	-14276	15210	-13286	6771	98	113	1
-14912	1344	11540	1843	5353	3244	-14852	5020	-10560	5234	14371	-1308	-9820	1180	-6920	-12459	14416	-4489	-29328	13092	21048	2664	32767	-24502	-24540	348	-324	7489	24258	-5155	-29056	3408	-6544	-6655	-23042	5794	253	101	1
-12572	-1048	11576	1743	3879	1938	-14580	2024	-8368	-13549	10574	-241	-10788	-3284	-8788	-14925	11276	-3937	-8668	4532	23724	12384	32767	-22878	-18684	4060	-14884	-2777	16811	-3176	-28564	2636	-7128	-9985	-24651	4937	90	104	1
-12340	-1188	10996	1309	3100	1644	-16036	-3164	-6964	-21178	7634	-1506	-15748	-3544	-4992	-11319	8838	-4092	-25072	12992	16944	9606	-10868	-8107	-17040	1216	-14312	-8544	5355	-3476	-27668	-832	-6544	-8396	-26170	6893	253	105	1
-12436	-1096	11124	1177	3012	1566	-17396	-7404	-4372	-11033	6558	-874	-17964	-6320	-4196	-6496	13521	-349	-7512	12348	18532	6425	-31902	836	-13056	-1936	-4008	2053	-2690	684	-26456	-2060	-6068	-3179	-24099	7956	213	118	1
-11940	-1488	10916	25	2325	634	-14968	-8436	-4012	7293	7689	1130	-19136	-5508	-3020	-1134	11999	3087	-3436	10088	11768	5490	-31651	1687	-10576	-2704	-4660	11438	-10016	4258	-24052	-288	-6512	2184	-21831	8122	57	85	1
-11848	-1908	10648	484	1698	754	-15380	-5248	-5484	17533	7726	2411	-14632	-3604	-2000	3307	12438	1984	-10952	9020	8892	2623	-32768	6145	-7284	-1800	-9616	10274	-17918	6161	-19568	984	-5940	208	-21322	7847	0	90	1
-12092	-2732	10376	1860	516	1040	-15796	788	-5352	11864	6491	1526	-17888	1320	-4004	152	12553	3314	-12120	6764	10204	-1358	-32768	13064	-9740	-2656	-6296	5571	-27892	5579	-15948	876	-5148	-3514	-19018	6709	127	150	1
-11996	-1360	10352	2493	-747	1032	-16484	932	-5064	-3847	4002	-448	-12732	224	-3168	-7498	16276	2976	-11284	3408	8540	-1794	-32768	18571	-12140	-1388	-6544	-1011	-32768	1799	-15596	1448	-7136	-13211	-19910	8109	186	134	1
-12004	-1396	10848	1660	-1238	696	-15916	-3000	-3456	-9904	2919	-841	-20604	712	1312	-8248	17313	1264	-12056	1956	8016	460	-32768	20578	-10548	-3964	-6888	1717	-28605	11980	-14108	-280	-8072	-17376	-17102	4215	141	154	1
-11728	-1288	10820	1046	-1160	749	-14576	-5624	-2776	-7616	2746	-421	-20176	-252	1128	-6563	16360	444	-14112	1808	9968	2373	-32768	18300	-11416	-1764	-8284	818	-32768	10626	-12260	-320	-7876	-19229	-17404	3446	200	152	1
-11492	-1488	10996	693	-588	1224	-14180	-6048	-2744	-1554	3930	527	-14212	-2924	-672	513	15261	-1002	-18780	344	10732	6791	-32768	15610	-12804	-3172	-9184	788	-32768	11852	-9992	-1340	-7668	-17824	-14798	2413	116	153	1
-11564	-1416	11048	690	47	1575	-14884	-3676	-3316	1730	5198	1069	-15500	-2920	-864	1054	12643	712	-19832	2896	11348	10176	-32768	14549	-14784	-4108	-9868	1547	-32768	13253	-7816	-2236	-7084	-14462	-11204	1852	112	220	1
-11832	-1156	11100	597	739	1711	-16256	-1568	-3864	-570	5368	1043	-16912	-4596	-1272	-1989	12657	1244	-21828	4212	12792	11659	-32768	15964	-16364	-5384	-11192	2617	-32768	14525	-6148	-2836	-6824	-8949	-5135	1354	0	202	1
-11656	-1092	11308	354	1611	1421	-16500	-2500	-3432	-5343	5417	701	-17888	-3996	-3980	-3442	12176	39	-25960	6108	14300	11888	-28554	19892	-20228	-6236	-12908	2842	-32768	15388	-6752	-2716	-4756	-3133	-1567	1779	89	143	1
-11828	-984	11324	340	2410	1325	-16156	-3584	-2784	-4909	5934	1122	-17944	-2188	-3936	-178	8745	560	-32768	3408	12564	12878	-23280	23925	-23100	-7084	-15816	5523	-32768	16466	-6172	-4520	-2308	1402	1192	2835	94	118	1
-11732	-636	11516	562	3238	1123	-16160	-3912	-2360	-3138	7006	1851	-17616	-1684	588	3110	8223	1369	-32768	-408	3880	14158	-25291	30385	-22976	-3276	-21172	7231	-32768	15680	-8520	-4400	1284	2255	-1346	3544	92	90	1
-11796	-1056	11308	797	4050	896	-15804	-4356	-416	-1270	8521	2686	-17424	-1292	3740	1259	8679	745	-32768	1400	-7400	5087	-31899	28386	-21496	-616	-19732	4390	-32768	13061	-9168	-3844	2472	2385	-2613	3646	128	98	1
-11788	-1928	11844	116	4950	1298	-14568	-6020	-216	-490	10690	3125	-16584	-456	5424	-1439	8460	-265	-32768	-8196	-19952	-8584	-31209	20608	-15232	640	-19224	-6748	-29205	9797	-19108	6752	17760	10816	-9523	5929	139	55	1
-9656	-584	15140	1111	7571	3195	-16704	-4800	-704	-1479	12008	3416	-17144	560	4468	-3002	8650	-1482	-32768	-14272	-31112	-15211	-22658	13845	-10184	-5328	-21920	-16412	-15234	4641	-18052	8096	23916	7394	1716	6726	134	120	1
-12220	-340	13444	993	11054	3310	-19676	-1408	-3280	-5231	13046	4372	-19640	-608	280	-4242	8003	-1903	-32552	-29280	-32768	-8780	-5472	6485	-6704	-7544	-19284	-6375	-220	1703	-13280	12640	17876	-1826	3443	2553	129	92	1
-12376	1088	13184	704	14933	2365	-18532	-1816	-3276	-7715	14330	5257	-18736	-3060	-1128	-7081	5902	-348	-32768	-26408	-29312	3360	11028	2747	-6436	-2516	-21000	-6793	15112	-2478	-12932	9300	11992	-7080	4436	-1760	119	242	1
-11876	528	13704	374	19510	1535	-18620	-2852	-2660	-5861	15667	6612	-19036	-3992	-1488	-7571	2620	397	-32768	18296	28680	-706	12414	-15221	-19600	-1744	2556	12457	23371	-5660	-10508	7560	1724	-15040	8992	-1020	89	176	1
-11048	288	14248	-549	25244	807	-20348	-1148	-3104	-5995	16456	7220	-19704	-3332	720	-6457	-730	1420	14804	30548	14884	12185	14477	-14128	-32768	-56	24864	9890	3901	1800	-18024	-780	-848	-11127	12251	-1425	109	131	1
-10444	-1948	15148	-445	32767	-1034	-24676	-1916	636	-9602	16364	7896	-23364	-2068	5428	-4793	-4123	2748	-27676	6932	9476	-841	25166	-10426	-7420	-1052	-1276	1395	15496	1338	-23680	-8320	10188	-1949	-4410	-2337	138	125	1
-8572	-2628	15080	-470	32767	-1490	-25440	-1476	5784	-13317	16613	8301	-23284	332	16796	-6397	-15100	4083	-24656	1748	13172	-7167	27274	-13989	-25420	3708	-5828	-4857	14954	-2650	-16008	2948	19736	-12169	2638	-2319	174	128	1
-11896	-2272	13880	-1741	32767	-966	-23364	-2956	7812	-17494	17506	9869	-18036	3052	23212	-24016	-17543	1681	-27600	5908	11176	-1456	18880	-9414	-25896	-1872	-8396	-20901	13391	-5496	-23080	1416	5612	-5090	13589	4577	160	103	1
-29980	-6384	6676	-1985	32767	4254	-22048	-7992	-216	-13278	20223	11966	-16148	2948	8420	-11939	-7577	115	-20432	-7144	15472	-8163	2716	-10271	-15428	3852	-9440	-19793	15983	-3640	-20868	-1948	-9660	6249	16676	3429	168	107	1
-32768	-13892	8592	4001	32767	13504	-24608	-7920	-7932	-7993	22925	10118	-23872	-9980	-14232	-19247	-9290	-5342	-16048	9312	8576	-1877	1613	-4065	-15732	-4552	-8776	-16299	12758	-1357	-9444	4564	-9308	9266	15641	2568	100	145	1
-31444	-9892	18472	3240	32767	18537	-29272	-1760	-4720	-8395	20579	7367	-30480	-2888	-8328	-1161	-20190	-6163	-14572	6668	9100	220	845	-1489	-16216	-5672	-8808	4613	12780	1782	-10556	5416	-9348	6488	11416	1090	122	119	1
-11608	-7768	28328	-1869	32767	18587	-23984	-5700	1724	-7574	13263	5733	-27980	-1812	-4244	7805	-23505	-3335	-13748	4360	10128	906	-130	-131	-17276	-3332	-7184	17325	10543	2386	-15936	3712	-5080	-2355	11273	3083	149	91	1
-32768	-12812	20552	-3835	26849	9580	-12456	-4000	-26104	7187	8628	2664	-27600	72	-5984	4375	-23671	-4913	-12928	4500	10324	1279	-261	634	-18624	1652	-5136	16730	8587	1884	-18752	4188	-4020	394	13337	-628	126	81	1
-30232	-8964	25940	601	-22231	628	-9132	28	-15936	8396	8255	1421	-25612	-176	-6556	4345	-24247	-8298	-12512	4516	10476	1625	-30	1113	-16344	3868	-2524	7435	6582	1295	-17916	3416	-1244	-337	12188	-3462	18	119	1
-6856	-4648	18592	-1053	-32768	-1794	-16528	380	-1984	-5079	-3203	-1757	-25484	-2112	-8488	1070	-21168	-9092	-12228	5060	10132	2214	-28	1433	-16216	4012	-1908	-3146	5682	835	-15376	3120	-220	-2715	11304	-2089	0	153	1
-4040	-3556	11844	-4624	-32768	-3916	-9624	-1104	-8840	610	-11258	-2622	-22560	-1440	-9336	-101	-19641	-8103	-12728	5320	9816	2813	-10	1701	-16856	2412	-3176	-8844	4215	-612	-15100	1880	1020	-1446	11239	-764	30	143	1
-8148	-5036	9720	-5515	-32768	-6750	-5292	-156	-9120	7454	-18052	-5564	-17836	-1528	-9560	837	-18205	-7269	-12084	6248	9628	2450	64	1473	-17096	-2780	-4120	-1393	4337	18	-16020	2024	368	1870	13165	-931	155	110	1
-9640	-6220	10192	-1718	-32768	-9216	-4808	-804	-8636	15541	-25072	-8042	-14036	-1768	-8976	2688	-16260	-6614	-11816	5908	9592	2381	60	846	-16136	-864	-3692	12727	5547	1571	-15396	864	164	6496	13991	52	156	112	1
-11680	-5136	10312	2750	-32768	-9873	-7412	1676	-8728	12846	-30623	-9587	-13028	-2040	-9176	3132	-14600	-5557	-12116	5692	9760	2871	11	571	-16464	1796	-2112	16844	5826	1748	-15108	928	1164	11002	13978	645	160	135	1
-14408	-4388	8536	3394	-32768	-9212	-10096	-8	-8188	11987	-32768	-8616	-10848	-3456	-9908	9288	-13129	-4854	-11632	5748	9744	2786	622	130	-16136	5116	-784	10625	5834	1284	-15564	2944	1288	13077	13940	-338	140	129	1
-16068	-716	9036	-1920	-32768	-9977	-11108	740	-9948	11949	-32768	-9332	-8748	-1052	-9800	16733	-12260	-3214	-12048	5584	9748	2371	1043	-89	-15972	4144	-1032	976	5540	-666	-15296	4512	1116	12926	13862	-1064	143	123	1
-22392	-268	10960	-8359	-32768	-10124	-12368	1544	-12012	6378	-32768	-11027	-7108	432	-9868	22567	-11401	-2066	-11996	6312	9296	1690	1319	-569	-16020	852	-2388	-1633	5916	-1413	-15224	4720	1640	10304	13813	-864	154	128	1
-27812	-2608	11408	-13129	-32768	-10819	-15540	-208	-12484	2796	-32768	-13064	-6912	1264	-8064	23219	-10543	-1256	-11984	6844	9376	1394	1476	-1550	-15924	184	-3120	3151	6592	-777	-15096	3116	1704	7316	15658	298	148	118	1
-29932	-6476	11356	-12955	-32768	-12561	-18044	352	-13480	3508	-32768	-14731	-7228	2984	-4324	15437	-8894	-848	-12204	6188	9320	1380	1497	-2239	-16140	1320	-2732	6500	7535	-668	-15364	1588	680	4081	14837	139	139	119	1
-32768	-8912	11068	-9344	-32768	-13412	-19696	1844	-13064	1009	-32768	-18184	-6576	6264	-1920	6796	-5153	-247	-12244	6224	9196	1213	1680	-3051	-16108	2856	-1832	5146	8629	-1291	-16592	3160	-164	4462	13453	-732	115	132	1
-32768	-9076	10732	-8769	-32768	-13699	-18904	2544	-18200	10231	-32768	-20929	-7128	6872	3716	2103	-2662	-526	-12236	6676	9664	449	2328	-3466	-16220	3868	-1456	-507	9454	-2179	-17672	5168	-76	4318	11338	-122	112	132	1
-32768	6080	2660	-13127	-32768	-22956	-19824	-1144	-12584	3533	-32768	-18262	-10960	3700	9220	-1358	-3202	-1283	-13116	6092	9800	-424	3506	-3381	-17032	1412	-1640	-3697	10464	-3149	-17744	5276	1428	1972	8563	761	112	127	1
-32768	3228	-7452	-10265	-29158	-20055	-18484	-1128	-15752	10483	-28649	-13989	-18216	-2052	16300	-952	-6812	-3010	-13072	6592	10068	-477	4803	-3315	-17124	1616	-1836	-3900	11998	-3867	-16444	4356	3304	2193	8002	1129	109	128	1
-32768	6320	-21272	2141	-20826	-11901	-12872	1868	-17340	11752	-17351	-9569	-19900	-5836	21084	694	-2731	-4679	-13540	6004	10444	-395	6007	-3183	-17476	1872	-1904	-3817	13600	-4465	-16440	3096	3236	5701	7938	874	52	127	1
-32768	20740	-31800	2859	-9162	-4960	-8264	4372	-15940	3131	-2410	-5419	-19984	-8120	21516	2498	2110	-2810	-12860	5464	11928	144	7014	-3111	-17868	1184	-2484	-3382	15554	-5182	-16944	2900	2072	8781	6396	481	126	126	1
-32768	18384	-29008	-4275	5977	648	-5456	2272	-15400	216	13556	1057	-16048	-4476	14132	-832	3467	683	-13700	9148	14228	-1032	10280	-4359	-19864	1072	-4048	-1930	16913	-5433	-17256	2968	1788	9089	6018	462	159	125	1
-24984	5356	-6372	7515	16921	9838	-10564	76	-19228	4511	24322	6330	-12556	-5672	5352	6	6302	2821	-13976	6324	12796	-959	15381	-5787	-21064	-2372	-4400	-620	18514	-5475	-20672	3168	856	8593	2237	933	151	123	1
13696	11800	32767	1740	3516	13141	-32768	-1836	30808	-25111	13004	5822	-8164	-3504	-5660	2277	13084	3335	-12764	5580	15656	-1113	22079	-7101	-23576	-4536	-2272	4226	20062	-5119	-20980	3172	4760	11114	-853	-249	144	124	1
-11924	10384	2760	12364	32767	18639	-15172	-176	-9276	3578	12495	1841	-25908	6188	5448	4560	7438	4953	-8980	3680	17216	878	31801	-8263	-25136	-6996	2420	6754	21026	-5187	-23048	1360	10148	12419	-7937	-1961	215	122	1
-13868	-14528	11056	11967	27384	181	-10612	752	1492	-401	17127	2137	-17504	2316	9284	21431	2328	1699	-8632	3744	17968	2597	32767	-7320	-26776	-6164	5464	10004	22704	-6399	-22144	-1240	21056	15261	-23354	-3523	253	114	1
-32768	29320	14816	926	24691	3930	-28248	-4536	-9856	10578	20140	2818	-23008	-13796	13076	26176	2598	-7151	-18216	6216	15240	6254	32767	-7579	-28304	-2616	2968	8190	23655	-7711	-17648	-6848	13132	10008	-11950	-2153	77	136	1
-10100	-14704	10940	-793	18112	-126	-21552	3672	-8400	15534	19258	9235	-19408	10796	-15236	14591	16310	1170	-32768	14040	10256	7492	32767	-13134	-27972	8120	-2404	-1753	26942	-8335	-24764	6168	-3664	15919	-12581	-60	107	105	1
-19272	1728	11696	1875	7483	3852	-11868	-5208	-12788	6729	16579	3366	-16632	7684	-9204	-6917	13309	-52	-31720	15724	13220	3110	32767	-22995	-30164	2664	-4948	-4616	24526	-7353	-24688	9284	-8072	11651	-16631	4430	86	114	1
-15680	-28	10856	1767	4897	2790	-14736	-604	-12484	11423	13661	-261	-14716	3952	-11928	-9470	14164	-1031	-30196	13336	22312	9063	32767	-21272	-25032	220	-4516	1201	24490	-6823	-28920	7732	-6848	-4123	-23252	4942	114	87	1
-13844	-660	11336	992	2936	1333	-18316	3672	-9572	-2730	9308	942	-13944	-908	-9280	-9795	9040	-4967	-14104	14028	27356	16749	32767	-18214	-18860	5028	-16416	154	16439	-5951	-31276	7228	-7716	-7514	-24211	5273	82	148	1
-12704	-1580	11352	2	2053	-21	-17280	1592	-7256	-16688	6245	-1977	-16716	-3048	-3560	-6789	11139	-3667	-28584	14792	23488	3912	-17519	-4846	-17868	1928	-15608	-10141	4418	-6617	-29792	3980	-6224	-10950	-26519	7326	253	115	1
-12204	-1764	10852	-699	1517	-402	-17588	-4064	-5856	-21832	4229	-2548	-19272	-5232	-4616	-7006	13767	1022	1888	11108	21296	-1615	-32768	-1578	-13000	1372	1616	1071	-5713	-2632	-26660	100	-6484	-7445	-24091	7838	137	92	1
-12004	-1708	10916	-853	1322	-437	-14872	-7980	-3468	-11454	4430	-1058	-17652	-4044	-924	-2709	12148	3194	-2028	10808	12592	-1741	-29623	-4639	-11636	-896	-5664	3477	-13455	595	-22640	1228	-5860	-1074	-22105	7485	135	76	1
-11928	-2188	10628	-636	1122	-379	-13396	-8784	-1660	4820	5679	845	-16720	-3232	1928	-296	10979	2824	-12900	10724	10116	-5693	-32768	-156	-14060	13468	-22560	-853	-21800	7583	-17936	4408	-6080	-3252	-20759	7825	21	96	1
-11776	-2308	10524	-461	1038	-315	-14980	-4448	-3016	9861	5738	828	-10832	-1992	-420	-9163	10990	5687	-10812	8696	9616	-7200	-32768	6178	-10164	1448	-7712	-2143	-31984	-3542	-15072	2744	-5092	-7974	-20449	8272	246	132	1
-11400	-3184	10152	300	1182	1039	-16416	-2556	-3472	3960	5449	1039	-14256	-4576	2620	-4414	17150	-1471	-9832	5944	7276	-5880	-32768	9594	-7232	-5396	-4972	-154	-31715	5050	-14660	2492	-5544	-8896	-20045	8329	130	168	1
-11468	-2456	10164	691	1241	1782	-14992	-1484	-2536	-5086	4302	411	-15004	-1628	-1392	-6528	19039	-1900	-11024	4800	7360	-1890	-32768	11588	-9548	-1952	-7052	6121	-32768	4923	-12780	84	-7700	-18139	-13217	3206	103	147	1
-11636	-1840	10236	547	1510	2166	-14800	-2956	-2040	-11168	4368	520	-15144	-2276	2228	-3432	16540	-3162	-15840	5648	9076	1108	-32768	12817	-11168	-1584	-9508	6019	-32768	7305	-9508	-784	-8116	-20404	-13532	2644	112	134	1
-11244	-2312	10464	934	1674	2558	-14728	-6484	-1632	-7603	5321	1258	-15576	-3048	1296	-1615	12557	-1681	-18596	7008	9572	2603	-32768	13866	-12984	-1596	-9432	5663	-32768	8300	-7892	-1872	-7224	-19748	-11480	1478	98	158	1
-11564	-1204	10512	1203	1896	2174	-14060	-6180	-1852	2894	7056	1880	-16108	-1992	904	-4585	10703	1935	-21656	7464	11176	3677	-32768	15443	-14608	-2064	-10236	4439	-32768	10812	-5792	-3056	-7208	-15550	-6349	545	94	196	1
-11748	-1764	10756	1446	2329	2094	-16496	-2576	-3184	5004	7864	2455	-15700	-3108	212	-5017	13787	1192	-26380	7128	12308	5343	-32768	19536	-17260	-3088	-12020	818	-32768	12283	-5012	-2784	-5112	-9794	-801	-158	53	177	1
-11908	-1588	10968	1501	2935	2199	-16588	-2488	-3784	42	7745	2133	-16740	-3372	-844	-2627	14095	-833	-29684	5248	12612	9396	-30326	23840	-22228	-5584	-13260	817	-32768	12871	-5620	-2844	-2900	-6601	766	-63	91	140	1
-12768	-772	10956	1060	3260	1352	-16332	-2008	-4076	-3023	8244	2164	-16316	-2296	-2356	-1792	12555	-1523	-32768	5664	6076	11766	-25951	28375	-23232	-4776	-17920	641	-32768	11385	-6196	-4684	-388	-5043	537	1124	140	119	1
-13192	-688	10684	673	3669	1068	-16872	-3036	-2016	-5784	9063	2754	-19000	-1172	320	22	9524	431	-32768	8692	-3820	3150	-29034	28318	-22916	-2332	-20292	3312	-32768	10322	-9912	-3496	6876	-2250	-3126	1217	121	99	1
-13076	-1632	11016	1187	3852	344	-15676	-5280	132	-4759	10997	3635	-17556	-2708	3616	-389	8005	-102	-32768	1092	-16004	-9472	-32064	24326	-17472	2076	-19064	104	-32768	8914	-17836	2156	18908	5956	-11332	2534	98	70	1
-12992	-2300	11072	2250	4070	742	-15832	-6208	-1612	-1131	13287	4545	-17724	-2596	4928	-2789	7385	-651	-32768	-8056	-28412	-13788	-26997	14922	-10892	-404	-23288	-10347	-21073	6359	-23896	5400	22676	13440	-1581	6248	117	16	1
-12776	-2048	13340	-151	4568	1627	-17016	-4388	-3984	-1587	14527	4764	-15604	-288	2532	-3842	8517	-853	-32768	-23596	-32768	457	-12739	5556	-8328	-5860	-20588	-3301	-5332	4991	-15216	7052	18036	5265	4824	4648	117	93	1
-13996	-2672	12180	670	10917	1943	-20352	-804	-3516	-5937	14886	5314	-19220	-168	-100	-5436	6958	-668	-32768	-26316	-32768	18105	5662	5022	-5136	-2576	-20940	3153	10911	1444	-14316	7988	17732	4619	3854	2767	108	162	1
-12520	464	14268	912	16643	1755	-20336	-1068	-4184	-6811	14900	5338	-20924	-1560	384	-8363	2854	36	-9292	-9888	-8596	-9091	25077	-21030	-15220	-1512	-17512	10792	23140	-1477	-11844	9028	8364	-2850	6537	-754	123	242	1
-11044	192	15440	375	24115	721	-21416	-2044	-1180	-9226	17698	7297	-19648	-2948	3340	-9993	-525	1105	-5036	23784	10176	8924	32767	-9002	-32768	3076	14000	-3222	8669	-5459	-18088	5832	2796	-10102	13398	2550	114	146	1
-9864	-2184	16160	51	32767	-982	-25084	-3340	952	-9847	18162	8785	-23224	-3076	7320	-8216	-4868	2220	-26052	5388	17144	-6658	29242	-15233	-12392	7024	6760	-8632	18249	-1126	-21300	3724	4132	-9973	12725	2647	142	123	1
-8084	-5548	16632	289	32767	-746	-26508	-4112	5380	-12468	18919	9236	-23816	-3164	8448	-7795	-6116	2476	-32768	-15684	14024	-7866	26036	-21764	-28048	-5068	-12832	-29965	18827	-4452	-18880	9676	24496	-11843	-1741	1840	194	100	1
-9848	-8056	17536	-985	32767	1626	-28084	-9700	9480	-16580	19180	10624	-14892	-3524	11344	-27784	-10419	2282	-17340	-1372	11312	-10750	-27	-11882	-25460	-1472	-11756	-24216	21082	-7925	-23816	-3960	-9264	-14131	18100	681	178	129	1
-32768	-1552	9140	-2225	32767	11832	-25976	-10732	-6940	-7504	22752	12336	-26732	-1528	840	-8505	-10049	-2617	-15676	5184	9132	-4690	2560	-5189	-10948	-2832	-9520	-20146	17535	-3539	-16756	-8960	-20324	-12082	16306	1653	201	140	1
-32768	-2172	9592	-2318	32767	12613	-27912	-3268	-10740	-8533	23252	9558	-24832	-11432	-15428	-9128	-14936	-8382	-15084	5004	8984	-2111	884	-2188	-12212	-6264	-11832	-9156	12901	1204	-3076	-972	-9056	5887	7612	597	115	127	1
-26900	-11680	23376	-4884	32767	23216	-28828	-1344	-11228	-8893	23281	8530	-30948	1328	-4424	10311	-24676	-6508	-13792	4160	9888	-1202	-142	-1287	-17320	-5956	-9916	10712	13496	2224	-12976	1280	-3404	2574	8104	2468	154	60	1
-1096	-18220	22748	-5613	32767	21362	-22516	-5916	2852	-8741	9141	2148	-29892	6384	-3444	10826	-23845	-5077	-12720	4224	10256	-528	160	-454	-18556	-2356	-5704	18201	11032	2576	-18972	5360	-4332	4524	13786	3228	53	66	1
-32768	-11636	22844	7453	12914	3380	-7388	-3296	-32768	17695	8072	336	-27488	7468	-5320	1130	-25332	-6641	-12600	4552	10108	-479	77	-1119	-17500	2332	-5136	16331	9698	2587	-20608	2692	-2464	6873	12351	-1535	169	132	1
-21396	-4576	24516	8894	-29877	-9739	-11804	4420	-4896	3876	5163	-3445	-25428	2088	-5864	-1218	-24430	-9923	-12512	4240	10156	-361	467	-1141	-16236	6276	-1812	2275	7679	1005	-16276	5620	156	4067	12245	-2677	0	146	1
-3380	1024	15812	-262	-32768	-11024	-14012	7416	-2268	-10923	-6599	-6233	-24216	-920	-8428	-4643	-21154	-9335	-12508	4636	9948	-1077	657	-1589	-16240	5124	-3288	-12672	5573	-1228	-13224	6924	416	1549	12530	-1249	106	108	1
-3160	4388	10924	-8308	-32768	-11822	-7012	328	-8232	-4848	-13659	-7935	-20400	624	-9140	-3722	-20160	-6929	-12544	4964	9584	-1586	585	-2004	-17068	568	-4084	-15977	4250	-1913	-14976	5160	308	164	12257	10	116	164	1
-8704	2236	10216	-10063	-32768	-11650	-2428	1960	-5576	16222	-20008	-11950	-19576	644	-9344	-3581	-19786	-6565	-12828	3872	10160	-1280	686	-2086	-16564	-2856	-3908	-6328	4645	-753	-15248	3064	1052	-1350	15564	-792	145	103	1
-10700	-288	12552	-3694	-32768	-9312	-5432	4772	-9416	20272	-26042	-13797	-12848	404	-8652	-2671	-16590	-4552	-12360	3712	9944	-113	678	-1836	-16628	-2796	-3528	4924	5970	130	-15792	1056	928	-1362	14423	-1545	135	127	1
-13520	4628	11644	4	-32768	-7284	-10536	6864	-7576	13046	-32486	-12396	-10896	-1868	-9436	716	-14994	-4310	-12708	3868	10160	1342	438	-2090	-16500	312	-2428	9083	6939	716	-14996	-48	1572	2457	14091	-2402	136	143	1
-15140	6000	10536	-4107	-32768	-7078	-12548	5832	-7676	9846	-32768	-10121	-10648	-2008	-9380	1454	-14715	-4136	-12512	4072	10308	1373	466	-2478	-16092	2636	-2544	3554	7333	243	-15392	1404	1508	4371	14634	-2716	139	130	1
-17920	4616	11284	-9194	-32768	-7505	-11852	5836	-9592	6170	-32768	-11107	-7492	2140	-10296	13406	-11684	-890	-13240	4228	9888	670	327	-2801	-15876	1948	-2548	-3191	7665	-912	-15988	2888	1036	5430	16349	-2543	146	127	1
-24200	2272	12600	-11879	-32768	-7658	-13456	4316	-11584	488	-32768	-13173	-5596	3004	-9004	16545	-9850	475	-12956	3908	10204	-448	774	-2136	-16656	-1352	-4768	-3685	7600	-953	-16200	2740	-20	5603	18411	-1303	122	122	1
-28396	960	13384	-12392	-32768	-8768	-15572	2504	-11548	-1352	-32768	-15099	-5948	2776	-6616	15641	-8727	1258	-13016	3568	10248	-567	1435	-1546	-16556	-2656	-5028	652	7955	-380	-15824	904	-1612	3755	17605	-302	175	124	1
-32756	-2236	13756	-11503	-32768	-10807	-19320	2676	-10848	1873	-32768	-16438	-5920	3416	-3396	8555	-5872	1705	-13064	3464	10392	82	2100	-1612	-16512	-1024	-4796	4085	8903	-60	-15300	-456	-2536	2222	15839	-668	167	123	1
-32768	2552	13000	-8872	-32768	-14454	-20524	2076	-13512	4065	-32768	-17110	-5848	4080	284	2678	-4286	1904	-13172	3536	10168	326	3076	-1633	-16096	696	-4348	3272	9092	-476	-15696	744	-1264	1792	15573	-1140	122	126	1
-32768	5832	8008	-9667	-32768	-15978	-23736	-988	-14908	2181	-32768	-15453	-8280	3456	4712	1416	-3394	1223	-13236	3816	10492	218	4007	-2088	-16408	1312	-2500	1334	10058	-1258	-16860	4080	96	2389	14638	-569	76	135	1
-32768	2412	-4680	-5815	-32768	-13835	-23532	-1992	-15256	2130	-32768	-14687	-14656	-684	14576	-1212	-6021	-1122	-13000	3584	12024	352	5550	-2895	-17432	1768	-2048	-345	11401	-2144	-18372	6228	1988	2890	11923	-81	99	127	1
-32768	2088	-23052	7279	-28063	-9804	-10028	-316	-17592	19064	-22067	-6726	-18908	-7280	25460	-2964	-6304	-3111	-13708	4356	12120	91	8719	-3760	-18812	-928	-2192	880	13511	-3169	-20128	5332	3348	2677	9787	69	104	120	1
-32768	18644	-32768	5759	-12963	-8227	-8552	5780	-20080	13570	-6843	-3653	-17972	-12896	23240	6763	3444	1082	-13952	3184	12600	165	12008	-4621	-19060	-432	-1996	1671	16021	-3920	-18896	3040	5624	3573	7481	225	115	126	1
-32768	19612	-32768	-7956	5334	-6833	-6048	832	-17748	1405	10302	2387	-17068	-5624	17352	8173	3532	3961	-14112	4216	12904	-82	16426	-5602	-20188	896	-2268	-627	17904	-5182	-18588	1948	5648	6970	5760	-276	170	122	1
4108	3240	9136	-5507	18014	8048	-7760	-3512	-21464	-2424	23651	6779	-13996	-3388	5816	5074	8113	3634	-13256	5340	14252	-204	21657	-7121	-21896	-1264	-2476	-1483	19337	-6099	-18892	2024	5444	7743	5475	-322	148	119	1
