#Activity	walking 
#ActivityID	1 
#Date 08-20-12-49
acc_rf_x	acc_rf_y	acc_rf_z	gyro_rf_x	gyro_rf_y	gyro_rf_z	acc_rs_x	acc_rs_y	acc_rs_z	gyro_rs_x	gyro_rs_y	gyro_rs_z	acc_rt_x	acc_rt_y	acc_rt_z	gyro_rt_x	gyro_rt_y	gyro_rt_z	acc_lf_x	acc_lf_y	acc_lf_z	gyro_lf_x	gyro_lf_y	gyro_lf_z	acc_ls_x	acc_ls_y	acc_ls_z	gyro_ls_x	gyro_ls_y	gyro_ls_z	acc_lt_x	acc_lt_y	acc_lt_z	gyro_lt_x	gyro_lt_y	gyro_lt_z	EMG_r	EMG_l	act
-32768	-19564	32767	-14623	-21335	-32768	-32768	-1836	-11024	4269	-32768	21377	-4360	-488	-5524	9524	-361	1819	-8940	6280	13892	474	6641	-3802	-18288	2716	-1240	2696	11067	2311	-19348	3912	276	2816	10326	1566	139	123	1
-32768	-10828	32767	-18179	-25847	-32768	-32768	-17344	-14620	-1089	-32768	20416	-11392	-2184	5352	5071	-8547	-2311	-8916	6492	14204	578	9142	-4473	-17688	2984	636	560	13059	3103	-21136	4792	4524	829	9323	1735	109	129	1
-32768	5928	13464	-6283	-27634	-32768	-32768	-19176	-14428	1438	-32768	19249	-28912	-1780	16356	58	-20827	-11815	-9720	7692	14288	-352	12285	-5248	-19612	3236	644	-1368	15556	3396	-21712	-536	6928	856	8084	3022	121	119	1
-32768	32767	-2616	-10532	-16290	-15017	-21796	-10076	-32768	-4724	-24048	4543	-25524	1468	32767	5548	-10066	-6818	-9696	7444	15032	-1185	16306	-7281	-20996	1856	-504	-1002	17910	4376	-18784	-5088	4696	4931	6443	2164	131	113	1
-32768	32767	2228	-16742	-3707	-17	-6960	-15708	-32768	-8388	-828	-2290	-9708	27128	32767	18411	19787	243	-10380	6180	15700	-2436	21220	-8497	-20384	1616	-712	-1624	20148	4287	-18196	-16	4460	7970	7888	995	118	121	1
-32768	29004	100	8662	4380	8973	-12512	-17964	-32768	4092	18162	-10120	-21884	18984	19112	14413	12946	3928	-10672	7808	14548	-3095	27450	-10457	-23236	1496	140	-1156	22122	4688	-22128	3824	4360	10699	6967	-1149	137	123	1
-26676	-6328	23612	32767	20563	17854	-20740	-2736	-8256	22201	30068	-15125	-16860	-568	364	-16862	-1834	7874	-11348	9288	14008	-420	32767	-15642	-24644	220	2364	3057	23394	6460	-21740	960	7380	11844	3042	-2229	127	120	1
32767	-25068	26988	16918	32585	27294	-32768	32767	32767	30127	4569	1273	-10592	-11640	-19988	-7452	9017	-1157	-11204	10436	16692	1503	32767	-22008	-31332	932	3200	5949	23791	5544	-27500	132	14856	10276	-4165	-3992	105	133	1
-32768	14296	29848	19456	29496	20037	-11232	-31124	-32768	8664	15477	-15304	-32768	-7256	23560	32767	-6121	-8034	-15724	18516	15156	5773	32767	-31915	-32768	-3992	14832	24922	24437	4685	-30676	-484	14792	13508	-13387	-8388	131	130	1
5756	-32768	32767	12757	17325	4633	-32768	10328	4120	14758	22259	-27394	-27052	14348	-10812	11079	21765	1275	-32768	16100	17284	4968	32767	-32768	-28476	9296	-3432	14708	25077	5908	-21884	-8968	8808	3048	-16066	-9440	137	123	1
-26568	-16740	15128	9929	7271	3705	-8120	-16260	-7956	5327	16524	-11000	1620	3724	-9916	-32768	10385	-15622	-32768	16320	21356	20415	32767	-32768	-27884	14512	2704	21010	27443	1877	-24960	10436	-2388	23034	-20467	-4628	134	146	1
-6036	-6408	14816	12706	2116	3467	-21500	-2236	-6088	-2284	12992	-10907	-9576	-18072	-20960	-32404	-4873	-3819	-25064	21032	18844	12572	20391	-32768	-25376	19924	1752	-7463	20505	3961	-28376	17308	-17648	26744	-14832	-1577	97	142	1
-11444	-8320	14428	4827	-163	2284	-19296	-2644	-3976	-6574	10167	-5477	-23672	-32768	-12992	11537	23024	-2256	-32768	22196	7680	-8373	29217	-32768	-17476	5860	-13600	-25404	16433	2677	-30680	5204	-14744	5399	-22833	3872	106	153	1
-6384	-6688	14304	2683	709	848	-19896	-1856	-424	-6799	8702	-3812	-23512	5892	-4952	22833	14294	-7394	-19248	32767	21604	-6588	-8807	-9383	-17860	2672	-15368	422	9840	1427	-30248	1460	-12872	-9310	-29816	5052	94	146	1
-7076	-6628	13328	1499	1067	789	-17492	-1616	-2348	-2830	6579	-4535	-13776	9324	-2372	5648	12968	-7467	-9976	28408	14156	-12716	-18796	15799	-11260	892	-3428	13088	2408	-80	-28372	-3948	-6876	-7583	-32768	-58	109	128	1
-5732	-7128	12732	415	1809	616	-17680	-732	912	-1121	5321	-3297	-12332	1272	-2468	-2473	15251	-2090	-336	7376	6328	-11520	-22422	19945	-10216	1076	-2864	13718	1173	-113	-24716	-4440	-6248	-4881	-30440	1428	144	61	1
-6024	-8248	12192	-291	1637	1160	-17552	-344	2272	-3029	4316	-3526	-17072	-2424	-2344	-1462	14845	145	2540	1084	4508	1469	-20858	17149	-6444	5764	-1544	-1247	-12473	-797	-17788	-1492	-6144	-5129	-25095	3421	209	93	1
-6388	-8428	12264	-684	1189	1630	-16300	-804	2932	-10343	4675	-2036	-19112	-1468	56	-4513	15819	-4884	-3224	5404	7512	11726	-21581	15472	-5700	3292	-3956	-11653	-18562	-1458	-14116	-960	-8576	-5177	-20762	2233	89	117	1
-6904	-8820	11912	-362	708	2247	-16640	-2252	2852	-15766	5208	-1172	-14596	720	-464	-14058	17091	-6322	-6360	11792	10196	11920	-27414	17865	-4552	140	-4052	-7095	-23849	-2551	-11264	-2916	-9188	-5278	-19005	-175	129	119	1
-6592	-8144	12256	92	209	2524	-16364	-2260	1468	-15445	4808	-1239	-14432	-1852	-660	-19174	17160	-4524	-5972	7604	10352	9009	-30863	22409	-5128	-232	-4008	-6285	-24863	-2624	-8988	-1688	-8232	-6929	-17704	-942	115	129	1
-6108	-6224	12880	-231	581	2635	-17428	-2384	776	-6998	4179	-1008	-15124	-4388	1556	-16921	16458	-3050	-7688	3780	13144	11703	-30769	29392	-6544	-2948	-5652	-3072	-32442	-4558	-7112	-684	-8576	-8678	-15939	-829	118	130	1
-6840	-8316	12000	-168	1177	2567	-16124	-376	3456	-4881	4650	-279	-15452	-2696	1872	-13974	15671	-2074	-10868	5900	15680	12205	-32766	32767	-9372	-936	-5148	-2361	-32768	-6054	-6040	664	-8976	-11344	-12889	-2642	127	127	1
-7536	-8272	11420	545	-386	4422	-15344	-2296	3592	-9614	5705	-1435	-15520	-736	4252	-5980	17441	-4631	-11772	5624	17456	8461	-32768	32767	-9592	1432	-5520	-7788	-32768	-7939	-5300	1812	-10304	-13599	-9460	-4174	123	122	1
-7216	-7308	12248	998	-1049	5325	-15420	-2136	3760	-8737	7316	-1872	-16804	960	5064	1785	11627	-7471	-16040	3532	20012	8233	-32768	32767	-12592	1584	-7464	-14186	-32768	-10919	-4480	2292	-11464	-15228	-5214	-4226	135	130	1
-6848	-7564	12484	1830	-1359	5540	-13872	-184	3352	-3699	8960	-2569	-17444	-972	2936	-7352	2069	-6266	-19224	6280	22548	10446	-32768	32767	-16916	-52	-9216	-14982	-32768	-15551	-5756	3824	-13844	-14943	-1940	-3811	138	137	1
-6404	-7420	12736	1264	-1784	5491	-16660	-1340	1460	341	10725	-3528	-18228	-6524	6084	-3694	5458	-3328	-24680	11816	26532	9189	-32768	32767	-22328	-720	-12928	-13569	-32768	-19533	-5028	1756	-14344	-9363	2883	-1898	135	137	1
-6312	-7700	13068	430	-247	6176	-19032	-1384	1596	2433	11906	-4218	-18320	-5812	2844	1303	9274	-2089	-32768	8252	30540	7297	-32768	32767	-28180	784	-15188	-4351	-32768	-22484	-5408	-516	-10812	-3298	5492	-926	126	138	1
-5256	-9640	14396	-3487	1431	6848	-20964	-912	2204	-115	13686	-3887	-18468	-2236	460	1848	9369	-2471	-32768	2756	29400	5462	-32768	32767	-32768	13880	-16144	5205	-32768	-23890	-8284	4972	-844	-2342	564	1769	121	133	1
-6820	-11500	12844	-58	6172	7580	-18300	-60	404	782	14867	-4554	-17620	-324	2860	-69	8479	-2200	-32768	-3096	13944	1486	-32768	21406	-32768	18988	-20528	-6686	-32768	-15379	-21996	4964	16788	7217	-15166	7652	123	126	1
-6720	-7048	15628	1646	12182	9774	-21072	2720	-444	895	17275	-5058	-19556	3532	5824	-2133	7663	-1332	-32768	-26164	-12680	14811	-32768	5365	-18384	9652	-32240	1891	-27030	-6455	-32768	6632	32767	-8234	-379	6504	123	107	1
-7580	-7648	16176	2380	18259	11446	-22808	2664	-704	1333	19292	-5554	-19188	6780	6092	-3236	7835	-897	-32768	-32768	-22336	23426	-11291	-2580	-316	13332	-30932	16524	-4595	2078	-21432	-32076	32767	-31654	13108	2029	130	124	1
-7404	-6052	16812	6439	23598	12949	-22124	2040	172	1784	21954	-5736	-18656	952	6512	-3333	9180	2827	-32768	-19156	-22992	-11041	7185	-10415	-3452	20548	-28772	-1352	17624	8144	-19416	-32768	14988	-6357	10948	-201	136	121	1
-8848	-9504	14872	8594	30130	16739	-25212	1516	4420	2352	24507	-5815	-21124	-2920	10136	-6115	5936	5026	-24840	10024	19280	-11773	19992	-3933	-18192	-5360	7656	-15476	27665	7823	-12748	-7624	4992	22500	915	-7745	133	105	1
-10816	-11220	14424	10992	32767	25342	-31528	3804	8244	-6592	26347	-7560	-21188	-2540	11520	-6661	5041	5095	32767	19856	7776	-79	32767	-27267	-32768	3312	19364	-32768	12864	14914	-4980	-412	-15456	32767	8252	-2120	136	116	1
-13168	-13816	13168	15921	32767	32767	-32768	768	23772	-18928	29055	-4394	-27508	9216	25940	16475	-16046	9832	-32768	11424	30828	-16557	32767	-4818	-1680	516	-15800	-18376	25863	6275	-32768	24852	10748	-13613	-8947	9170	171	114	1
-24280	-16996	18204	6427	32767	32767	-32768	-2196	11320	-12421	26464	-7607	-30392	4612	11392	-7957	-13719	9529	-6832	14200	8908	-10316	11925	-15777	-26252	12592	-7620	-4382	18190	18377	-19840	-5816	-24972	-13329	14985	21073	133	157	1
-32768	-12740	32767	-13601	32767	32767	-30172	-5452	9156	-27944	29177	-27	-27928	-7268	-2364	-29995	-14745	8445	-19916	-2776	18916	-12113	97	-12862	-9408	6364	-11536	11772	14959	9742	10352	-3180	-21008	28249	5349	16122	118	107	1
-30732	-32768	28520	-13507	12131	32767	-27660	-17972	9236	-12870	20592	-2352	-26784	-10260	-16696	-26391	-14980	1339	-9044	15736	11436	-8302	809	-9158	-18292	11292	-4684	17584	10371	7410	-19528	28864	-15056	14895	9231	3145	106	156	1
-29028	-32768	28844	13334	-2216	32767	-16256	-6024	-12188	9160	9798	-5302	-29352	-44	-10936	-11584	-19642	-3238	-11636	4516	16272	-2975	1113	-4837	-20216	6180	-8696	8718	9668	5001	-25008	31876	-15060	7416	9816	2397	119	149	1
-22272	-32768	30580	-5636	-28579	1724	-19304	-6992	-5664	-12748	7929	-521	-29604	3184	-8932	701	-23223	-3562	-9456	2556	14792	-1504	1367	-2305	-16172	3624	-7412	3621	8327	3218	-14356	-7160	-7108	-12650	15274	3262	127	167	1
4372	-30432	-2940	5410	-23942	-22197	-11260	2108	5660	-5484	-132	186	-29588	492	-5280	457	-24687	-3047	-8332	6196	13624	-130	2263	-1476	-17520	3140	-5068	6378	6590	1860	-12576	-2336	-7296	667	16528	-1301	130	150	1
6988	-10440	-2148	2680	-14155	-24846	-10204	908	3556	-1571	-9566	2095	-25068	-5536	-6380	-945	-27000	-7202	-8020	7916	12932	586	2826	-1575	-16668	4068	-932	9246	4357	1942	-18180	6944	-5924	3632	16769	2295	122	150	1
1644	-9616	4164	-13770	-9693	-26291	-10532	-4808	944	5913	-18100	2681	-18088	-4720	-8060	4804	-20724	-7307	-8788	7280	12692	823	2610	-3111	-17116	3684	-2252	17020	3282	2382	-17076	4276	-3488	1279	19723	4959	118	113	1
-5772	-19192	10516	-16968	-14344	-30893	-9024	-3360	288	13557	-24850	2622	-15736	-1432	-8584	9184	-19443	-5272	-8456	6020	13252	1112	3089	-2921	-17204	5956	-2460	10209	2832	1224	-16108	276	-828	8800	20618	8135	124	101	1
-4672	-12668	11152	-11897	-19017	-32768	-9452	824	108	16390	-29736	3059	-13600	-1280	-8904	10884	-19203	-5340	-8832	6580	12556	758	3348	-2414	-16924	5624	-2216	8942	2876	1100	-14396	572	3524	15114	19363	8031	139	72	1
-4480	-7068	11808	-16154	-20576	-32768	-9516	3616	-2060	14968	-32768	5894	-11112	-2460	-10524	12994	-17559	-4929	-9420	7236	12044	806	2801	-2935	-15432	3040	604	11248	3353	1074	-14128	1332	2468	10110	15506	4867	137	114	1
-6032	-11112	14172	-19322	-21254	-32768	-10780	3456	-2488	11214	-32768	9535	-7384	-1968	-12696	15701	-14542	-2819	-9384	7420	11804	551	1142	-3833	-13084	5336	1440	10250	4404	1852	-13956	-200	2648	6205	14075	4055	138	128	1
-8872	-12640	16040	-17135	-21957	-32768	-12188	2872	-3540	11086	-32768	11336	-5288	-2324	-13196	21553	-12682	-402	-9136	7148	11804	744	909	-4069	-13972	3208	252	4966	5972	1526	-14552	-824	2884	2006	14364	3336	105	113	1
-11396	-12388	18512	-16456	-21808	-32768	-14976	2312	-4652	11166	-32768	13966	-1988	-1776	-16080	27721	-8256	921	-8756	5444	12524	-331	327	-3857	-15580	1136	-1116	5039	7241	1681	-18848	4384	372	4093	11774	4382	132	111	1
-15772	-14652	22724	-16878	-22617	-32768	-18692	84	-4856	10028	-32768	16445	-656	-1920	-17036	28005	-3379	-2163	-8260	5072	13160	215	1566	-4103	-17444	1964	-1676	3943	8143	1970	-17508	2252	-4688	2098	6162	4291	139	127	1
-19756	-19344	26640	-16663	-23762	-32768	-27160	-876	-5108	10094	-32768	17545	-2252	692	-17260	16322	1630	2820	-8548	6152	14188	-257	4332	-4364	-17504	916	-2160	3579	8955	2167	-16004	-2728	-3044	2856	7329	3246	145	124	1
-31076	-30932	32767	-14155	-23080	-32768	-32768	-5476	-7092	12017	-32768	21639	-4136	1828	-13884	8278	7038	2053	-8944	6184	14176	329	7136	-4220	-18636	2676	-1520	2309	10254	2119	-18740	1700	1940	3832	9478	1886	127	121	1
-32768	-16932	32767	-2278	-17149	-32768	-32768	-6856	-8460	4022	-32768	24375	-8660	2808	-2828	8695	3583	871	-9716	8020	14120	-239	10488	-4619	-20272	1248	1444	2385	12309	2509	-24200	4792	5360	3071	9844	1850	125	124	1
-32768	-3784	17836	-12573	-25462	-32768	-32768	-23792	-19240	15416	-32768	17367	-32768	1236	26888	9612	-28864	-4985	-9908	7792	14552	-882	13775	-6107	-19280	3364	2288	361	15370	3005	-22584	2280	9600	2241	9240	2788	113	122	1
-32768	28028	-8108	-6645	-12501	-28436	-21116	-10780	-26892	1739	-28721	9856	-32768	1744	32652	15683	-25693	-11692	-10332	8484	15268	-2121	18064	-8335	-22100	1920	1304	-963	18234	3717	-21228	-3184	8044	3418	7599	2534	120	114	1
-32768	32767	-2904	-19305	-4714	-4002	-8260	-22208	-32768	-13922	-4745	-4656	-4980	29764	32767	14429	16622	-5943	-9868	4628	15824	-3338	23459	-10125	-20364	-164	140	-1937	20956	3634	-18024	-1512	5056	5885	7467	482	113	120	1
-32768	32767	-1564	1072	1738	10878	-9316	-18220	-32444	4507	17319	-10676	-20676	27348	20460	15459	19078	5014	-10048	7848	15416	-3434	30248	-11857	-23680	452	1628	-3091	23258	3374	-22008	2664	4616	6949	7388	-1723	138	124	1
-22840	-4640	20736	32767	17829	15777	-19708	-5024	-9876	24117	31804	-15944	-21144	2636	3004	-15749	-5121	11844	-11128	10836	13976	-1039	32767	-17406	-25700	-1244	3808	940	24130	5738	-23384	160	8440	10972	3172	-2817	125	123	1
32767	-32768	23744	20359	27672	28667	-32768	32767	32767	27761	5639	-1996	-6364	1444	-9256	-2351	5070	-2137	-10700	11108	16120	1782	32767	-25127	-31932	-1904	5028	5722	24111	4941	-27732	-3128	14972	9684	-6461	-5162	110	126	1
-32768	20232	13436	20923	32767	24920	-11360	-27296	-32768	1816	15284	-17137	-28696	-6224	15576	26313	-4335	-6103	-24804	16512	17096	4863	32767	-32768	-32768	-2036	4736	6790	23778	4643	-27600	-4068	13188	8685	-18378	-9320	130	124	1
400	-24200	32767	22787	8256	7930	-32768	10728	2080	9874	24693	-24276	-27084	108	-12104	2594	13894	1143	-32768	18644	20916	3749	32767	-32768	-26480	14972	-3012	13337	26384	6800	-21500	-6608	5196	9941	-16334	-7716	149	131	1
-28440	-13648	14428	9323	9419	931	-11688	-18540	-9804	2880	16918	-11678	-3996	2252	-11180	-25133	12418	-16110	-32768	30604	23044	18066	32767	-32768	-28856	16480	1432	3296	24518	4158	-25620	14620	-5744	29539	-18359	-2343	139	151	1
-7576	-11716	12088	9348	2463	3534	-21528	676	-4196	-4277	13009	-7428	-8208	-17068	-26536	-28873	1623	-3215	-28804	15744	21612	15338	18515	-32768	-22528	16012	-8840	-12997	23218	5416	-25720	15948	-18324	25759	-13808	1089	86	154	1
-8832	-3772	17000	4913	1485	1300	-18536	-4476	-1996	-4740	10897	-7474	-21520	-32356	-5948	12832	15676	-2471	-32768	32767	28964	1092	-1532	-21844	-22116	6936	-10188	-82	15726	2278	-31212	1376	-14856	4390	-24958	2236	93	143	1
-6728	-8856	12892	2585	1713	508	-19096	-3012	-1092	-3822	8406	-4319	-22664	4280	-8260	23533	14799	-5705	-8372	32280	12900	-13733	-19580	-2589	-15508	2772	-600	12488	6175	4195	-31228	-4016	-11068	-7217	-31243	2122	91	135	1
-7180	-5764	14212	309	1776	1041	-18248	-240	-1320	-2116	6955	-5156	-14780	10468	-1976	7300	12405	-6788	4104	11504	6872	-10571	-19074	3576	-10216	1300	-716	9538	-1913	2569	-26712	-2872	-7984	-3171	-32709	-513	109	126	1
-6708	-7140	12900	-1351	2046	1215	-17876	-1640	192	-3116	5537	-3306	-13196	8596	-2176	4744	12644	-5922	6048	5728	4788	5612	-14480	7833	-7024	1172	-1360	7053	-8785	927	-20832	-136	-6436	-2998	-28532	5006	126	0	1
-6832	-8424	11964	-1483	1836	1348	-17208	-2080	1664	-4862	4747	-2968	-16116	-5016	-4672	-3993	15867	-1546	-1596	12936	7360	14018	-13872	13171	-5360	4780	-3596	-453	-15321	296	-15128	-1372	-8380	-3024	-22313	4812	191	87	1
-6640	-8432	11836	-1166	1087	2675	-16480	60	3212	-10492	4460	-2224	-18700	-1524	-2160	-2220	16059	-5813	-6504	16296	10636	10598	-19235	20469	-4944	3024	-4304	-5122	-21069	-125	-11796	-820	-8736	-3230	-19614	2362	163	117	1
-7032	-8620	11880	-762	978	3431	-17212	-2636	1708	-15262	4583	-1877	-15692	1640	360	-12730	17788	-6439	-5884	9808	10980	5830	-24487	27129	-6532	284	-3384	-7106	-26063	-481	-11224	812	-8668	-4885	-19001	1125	103	115	1
-7256	-7156	12136	-1045	858	2932	-17340	-3316	696	-8329	4102	-2560	-14292	-996	1468	-18307	18741	-5024	-5768	3996	12388	8467	-26069	31165	-7356	-512	-4120	-9253	-30184	-2181	-9044	1668	-8192	-6178	-16961	592	108	120	1
-7676	-7204	12088	-1623	696	2913	-16112	-84	2652	-8060	4746	-1566	-15032	-3380	3180	-14298	17198	-3919	-8800	5416	14768	11203	-28160	32767	-8484	92	-4320	-9806	-32768	-4662	-8128	1304	-9332	-9328	-14491	189	137	125	1
-7500	-8388	11436	-957	117	3967	-14364	-2468	3952	-10231	5850	-1723	-15048	-1776	1848	-8973	13913	-3374	-12920	6324	16916	8700	-32538	32767	-9808	844	-5500	-12479	-32768	-6399	-7228	2136	-10548	-13195	-11716	-607	140	128	1
-7092	-8420	11156	-741	-1178	4822	-14512	-5504	2332	-7936	7163	-2516	-15440	-1560	8664	-1193	14762	-4306	-15012	5012	18372	8093	-32768	32767	-11456	252	-7040	-15712	-32768	-9492	-4668	2732	-12420	-18214	-8202	-1152	130	139	1
-7520	-7064	12240	345	-1234	5154	-16636	-1004	2720	-3877	8808	-2407	-17432	-3624	4548	-761	10044	-6303	-16036	5400	19032	11940	-32768	32767	-14688	-880	-8192	-14644	-32768	-13234	-3940	2488	-14256	-20896	-4859	-2274	130	131	1
-7072	-7524	12252	-34	-1057	5335	-16088	-84	1352	-3223	9899	-3944	-17084	-436	-1572	-3582	3853	-6398	-20600	11300	24628	11585	-32768	32767	-20276	860	-10620	-12888	-32768	-16153	-3824	612	-15236	-15800	-747	-2328	126	140	1
-7048	-6876	12792	-1195	-313	5225	-17904	-1332	-460	-3242	11159	-3800	-16408	-3796	2084	-2050	8535	-3007	-29728	16900	30888	7908	-32768	32767	-28012	2040	-13344	-12286	-32768	-19937	-3236	-1528	-12732	-5066	3268	-1330	123	139	1
-8100	-8020	12664	-4168	637	4767	-19044	-2568	-8	-967	11528	-3707	-16140	-2472	-648	-293	9824	-1458	-32768	5472	32208	7498	-32768	32767	-32076	4264	-14104	1165	-32768	-22063	-7280	972	-6084	-3822	2202	476	116	136	1
-5832	-11184	12920	842	7189	7207	-20340	-244	484	-1697	12575	-3755	-19264	-888	-48	-945	8638	-3520	-32768	1760	25888	7981	-32768	32639	-32768	21100	-18068	-2053	-32768	-17798	-15428	6804	8432	-621	-9018	6540	124	138	1
-7220	-7544	13896	992	11408	8211	-18636	884	624	-1305	15106	-4257	-18460	-1528	5868	-2796	9621	-2085	-32768	-15892	628	8892	-32768	14723	-27220	8476	-30780	-7746	-32768	-10117	-32768	3336	28564	1383	-17575	7205	128	114	1
-7964	-8032	13896	307	16778	9612	-21452	1084	1100	1138	17545	-4301	-19720	3208	7800	-1680	8840	-1042	-32768	-32768	-19668	23360	-20368	1495	-4492	8448	-32768	17625	-14808	-1762	-27560	-13252	32767	-27044	3592	5720	129	116	1
-8428	-8344	15432	767	17050	9664	-21728	2700	1524	1298	20103	-5406	-19428	3548	7936	-2444	9286	66	-32768	-29504	-23564	5924	-460	-5604	3160	21112	-32768	4754	10321	7252	-24288	-32768	21492	-28415	15899	5949	126	96	1
-9004	-8400	14388	4629	27169	14319	-22724	2084	2868	1574	23236	-5363	-20528	-764	8564	-5009	7986	3107	-32768	-19856	-5612	-18114	26229	-11136	-12984	13132	-29372	-17110	28156	11544	-13152	-17828	9536	18814	4692	-10124	131	115	1
-9800	-10208	15612	5231	32767	21169	-28688	4480	5992	-3012	25431	-6831	-22148	3936	16372	-9526	1453	4149	32767	32767	32767	-8835	27573	15184	-32768	-32768	32767	-22272	13401	-224	980	-3160	-8240	6985	1650	-10272	129	112	1
-9104	-15800	17480	5707	32767	28432	-32768	8552	20144	-21778	30261	-5749	-31444	6328	30060	2266	-20647	9366	-32768	-16256	28504	-15083	32767	-32768	-15920	19408	-32768	-32768	22800	19565	-32768	23332	6268	-16686	-10082	11995	139	127	1
-23256	3212	7928	3521	32767	32767	-32768	-5040	17436	-16416	27567	-2012	-31428	5344	3560	-17438	-11249	8149	5852	19272	13956	-14642	9884	-13224	-28796	7736	-7044	-7278	20375	13757	-32768	16592	-11016	-8952	16434	9488	143	135	1
-32768	-8072	26628	-10252	32767	32767	-30592	-4516	5600	-20202	31269	-3616	-27208	-11644	6004	-27343	-14103	7635	-24532	3844	19984	-16845	6402	-16270	-8652	9404	-14196	4241	16103	13401	-3968	-16372	-15076	13457	8845	12944	135	128	1
-32128	-32768	28868	-14606	20935	32767	-32768	-16800	11628	-8522	24559	395	-30856	-15800	-18652	-24760	-11973	1608	-8504	12024	12368	-7904	912	-8523	-16208	6416	-6024	26953	12213	8297	-3048	14976	-8848	32767	11614	9844	114	137	1
-19924	-27472	28348	-7793	8020	32767	-20536	-5252	-1348	14940	12057	-4714	-28572	-1592	-10316	-5876	-20685	-1664	-11708	-768	16248	-2660	430	-6772	-22728	7756	-9004	10784	10276	7009	-29552	31472	-10920	-2423	11646	3239	126	169	1
-32768	-32768	32767	1571	-17205	22700	-20060	-7156	-9268	-6812	8231	-460	-32028	572	-10096	3136	-24011	-1248	-9536	4060	14308	-2027	1953	-3315	-16344	5952	-8152	2500	9432	3296	-18400	2640	-8628	-16159	14398	4411	136	173	1
508	-32768	5500	-720	-32768	-15963	-13488	780	7272	-4240	1957	216	-30372	6984	-7652	6450	-24695	-1215	-7952	6792	13624	-310	2491	-1449	-17888	4696	-4368	2719	7888	1484	-13932	-4592	-6488	-4828	15948	299	124	145	1
9716	-15664	-6324	9629	-30504	-19037	-10288	3800	4980	-3762	-8027	2913	-28440	1164	-6100	-1820	-26750	-3303	-8584	8548	12528	392	2838	-2159	-16116	3300	-1052	8825	5450	1567	-16104	4464	-3032	1890	17461	1773	131	136	1
5376	-3396	16	-9377	-21465	-19389	-8100	2176	108	-5306	-17121	4703	-20384	-2256	-7768	1212	-21757	-5939	-8528	7596	12416	271	2300	-3125	-16056	4972	-2080	14575	4432	2134	-17512	7092	-4492	1089	19728	5710	125	143	1
-1336	-15844	5584	-25655	-18632	-25551	-9808	-3152	-380	-1834	-23763	5290	-16776	-1700	-11012	5084	-20801	-2877	-8808	5912	13264	345	2476	-3114	-17260	5212	-2944	7401	3725	1457	-16592	-896	-2876	5106	19603	6658	132	96	1
-5088	-21448	7064	-17233	-19063	-32768	-8324	-1536	528	4044	-29860	4228	-12720	-1112	-10408	8364	-19475	-2555	-8640	5968	12940	113	3454	-2362	-16812	3416	-2532	3527	3573	203	-14960	-1228	1252	13516	19321	6415	136	35	1
-3320	-10060	9312	-12050	-18634	-32768	-10624	640	-1276	11990	-32768	4244	-10596	-1432	-10648	6970	-17548	-2560	-9252	6716	12184	497	3079	-2575	-16012	2708	-1024	8891	3272	903	-14188	1948	2800	14089	18227	5612	145	110	1
-7436	-10256	15072	-18946	-17817	-32768	-11724	1520	-3656	14728	-32768	7297	-7036	-2124	-12436	9151	-14302	-3392	-9180	6872	12124	890	1628	-3273	-14080	5004	-216	11086	3602	1240	-13784	840	1520	10842	18056	4612	136	115	1
-11540	-16016	19096	-18667	-20392	-32768	-14052	2076	-3424	14033	-32768	9133	-5636	-2240	-13376	14621	-12183	-1673	-9188	6192	11468	265	600	-3864	-13692	4248	200	7919	4587	1489	-12832	-1676	728	5110	17603	4301	118	110	1
-11644	-15664	19384	-17663	-20956	-32768	-16208	3352	-4500	15279	-32768	11989	-1952	-1900	-15056	22994	-9797	1000	-8884	6272	12160	-217	553	-4286	-15176	3212	180	6303	5893	1349	-15732	1036	-372	1687	13873	4941	107	117	1
-14792	-13844	23476	-16619	-20413	-32768	-20100	2428	-5676	13472	-32768	15444	-256	-2336	-16176	23839	-7612	936	-8404	4792	13200	-775	1308	-4509	-15392	1468	-1300	3399	7118	1867	-17652	4544	-3244	2052	6608	4213	133	127	1
-20776	-21552	29052	-14210	-20277	-32768	-27020	-832	-6208	13448	-32768	19585	-2260	-1444	-16684	17181	-1866	3266	-9060	3560	13448	-333	4168	-4213	-17724	428	-2196	2509	8505	1330	-18108	2076	-848	1321	6496	2634	144	127	1
-32768	-27572	32767	-9728	-22421	-32768	-32768	-2196	-6748	14343	-32768	24436	-3328	-2936	-10756	15852	1171	3534	-8508	6504	13612	183	6202	-3767	-17944	3104	-1420	3687	9645	2331	-18548	2280	1308	1306	9886	678	139	130	1
-32768	-17432	32767	-9449	-23443	-32768	-32768	-13536	-10116	3156	-32768	27080	-6176	-972	1796	18770	-4872	2096	-9136	6940	13732	-121	8343	-4240	-17732	2680	2316	1745	11929	2614	-22048	5152	6120	262	10743	1462	112	119	1
-32768	-12492	10704	5872	-26969	-32768	-32768	-23044	-16968	15449	-32768	19666	-28520	1852	19516	7377	-25293	-5797	-9716	8040	14548	-986	11243	-5423	-19160	3516	2260	-1431	15078	2806	-23108	128	9728	275	8854	3342	115	116	1
-32768	31876	-7524	-5582	-18876	-23916	-21708	-10332	-32716	2495	-28712	8584	-32768	3308	31444	12777	-12565	-13100	-10000	8736	15652	-1802	15278	-7625	-22324	1320	608	-49	17610	3887	-20268	-5776	6320	3916	7293	3063	138	113	1
-32768	32767	-2912	-20343	-4171	-3235	-10716	-17756	-32768	-13693	-6530	-451	-5888	23116	32767	18838	17689	6610	-9304	5556	16544	-3154	20992	-8628	-21128	648	-832	-1271	20089	3536	-19168	-724	3440	6343	8223	495	135	117	1
-32768	29824	-2508	2672	-1254	9900	-11544	-23876	-32604	-3165	15614	-8217	-21492	30916	23200	22884	15196	4747	-10004	6472	16072	-3640	27779	-10611	-24208	1044	1192	-2332	22368	3353	-23676	5248	4996	8082	8222	-1324	132	125	1
-32768	-2028	8580	32767	19847	21458	-13344	-22596	-31168	1128	18424	-9742	-20668	5628	3312	-20788	-1292	9167	-10360	8920	14320	-1476	32767	-15723	-25388	260	3488	1368	23926	5049	-23856	2252	7820	9487	4126	-2404	134	123	1
-32768	-6652	14920	32767	17435	20265	-32768	32767	32767	32767	17008	-12138	5184	-7940	-23672	-24990	9596	-3841	-10592	11156	15308	1725	32767	-23299	-29660	-508	6904	6687	24712	5144	-25608	-1212	13468	11124	-1863	-4151	114	127	1
-32768	23828	20404	15474	32767	21596	-20068	-20356	-27712	18344	8625	-8407	-32768	-14356	-412	30346	-944	-12694	-15484	12280	14740	7387	32767	-32768	-32768	-11684	15908	29695	24455	3130	-28900	-3928	15412	9018	-14536	-7730	117	127	1
-22916	-16796	32767	18940	13129	9705	-32768	-5164	-800	10314	20338	-27799	-27880	7556	-40	10064	15053	5633	-32768	22360	14292	2511	32767	-32768	-27940	15480	-3620	15576	25304	6587	-24200	-13616	15688	-4965	-19063	-11134	135	134	1
-25624	-22892	8612	9978	9222	4264	-15908	-17716	-6180	1949	15794	-7891	-5664	2416	-4548	-26097	13287	-13883	-32768	21792	18896	19108	32767	-32768	-29960	16996	2964	14773	27624	910	-22676	9816	-6308	25817	-19109	-3231	143	144	1
-6596	-4868	15944	9049	1920	4507	-16240	-1884	-4732	-6114	13027	-9717	-5836	-16392	-25836	-32768	-1334	-5702	-27640	22156	17696	11329	18247	-32768	-24704	20632	-3316	-16925	22751	7925	-27128	16824	-17020	27838	-12999	-38	105	152	1
-10344	-7452	15440	6783	798	1832	-19256	-6956	-3380	-7246	11000	-7274	-18692	-32768	-7684	4845	19568	-2362	-32768	21492	16232	-3663	20212	-32768	-20136	3364	-12124	-16136	18470	3301	-27688	14752	-17784	24315	-14592	1283	101	153	1
-5860	-9520	12252	3881	701	1340	-19684	-336	1096	-7460	9336	-3974	-23968	-1172	-7048	22915	14553	-7153	-10808	32767	17600	-5475	-16283	1488	-18360	792	-4032	10377	8044	5491	-32004	-3144	-13220	-6041	-32768	2658	90	142	1
-6928	-6000	14488	2596	432	1186	-17900	-3256	-2420	-326	7456	-5439	-15720	9316	-2584	9169	11768	-7649	-1108	21948	11760	-11232	-17879	10961	-10728	2104	700	12287	-1404	4710	-27800	-4060	-6712	-3015	-32768	-1321	81	111	1
-5828	-7852	12544	735	1181	774	-18220	-264	104	2328	5713	-4328	-13240	2860	-2900	433	14232	-1959	5028	5320	7640	1239	-17047	14083	-6624	2028	132	7498	-9004	3663	-22552	-2276	-6332	-247	-29725	3892	128	111	1
-6420	-6692	12816	-755	1069	1274	-17316	1408	480	-3350	5035	-3643	-14984	-1580	-5192	201	15585	-110	388	8504	8444	15014	-16997	16898	-5596	5408	-2700	-350	-15767	2302	-16856	-816	-8556	-1219	-23848	5411	155	90	1
-5548	-7412	13144	-1012	989	2361	-17156	772	2880	-10478	5036	-3048	-19580	-388	-2192	1383	15967	-4257	-7256	15628	11628	14969	-23703	21554	-5432	3584	-3816	-6821	-22174	1840	-12916	-288	-9996	-2026	-21179	3974	184	125	1
-7064	-8464	12048	-1488	529	3540	-16816	-2056	1728	-16776	5212	-2635	-16820	1064	1156	-8613	16921	-6620	-5948	11164	11932	8939	-29866	26449	-7040	-452	-3808	-7819	-27924	886	-11332	-852	-9372	-2523	-19954	1919	71	114	1
-7012	-6948	13036	-1599	602	3018	-17684	-4684	-516	-9122	4619	-2586	-14012	-1200	60	-16432	18666	-5681	-4524	2176	12392	11201	-28651	31591	-8588	-4060	-4232	-7600	-32285	-1437	-9104	804	-8568	-3235	-18212	1408	126	120	1
-6684	-6856	12800	-2173	737	2450	-16540	276	1428	-4247	4585	-2614	-14248	-3360	1272	-13441	18627	-4416	-8728	4288	16004	13840	-27524	32767	-8492	-4280	-4552	-7592	-32768	-2031	-7864	600	-9568	-6119	-14635	846	116	121	1
-6472	-7792	12012	-1759	265	3504	-16028	-1224	2500	-8103	5184	-1634	-15396	-1392	524	-9280	15933	-3339	-13420	5480	19744	9668	-31214	32767	-11520	352	-6400	-9974	-32768	-5403	-7096	688	-10432	-10042	-10744	-378	140	122	1
-6424	-7808	12160	-572	74	5079	-14688	-972	2992	-10466	6357	-2186	-15248	28	3360	-8140	15141	-2586	-15828	1788	22144	9671	-32768	32767	-12840	-980	-8260	-14441	-32768	-8716	-5500	1844	-11700	-13387	-7819	-1361	130	135	1
-6732	-8300	11944	-199	-904	5756	-16152	-3540	2436	-6090	7330	-2854	-15116	-516	7140	94	15267	-5058	-17724	4604	24636	12903	-32768	32767	-16276	-1100	-9316	-14022	-32768	-13214	-3884	4280	-14192	-16769	-4781	-2456	137	134	1
-7436	-7640	12672	-830	-1580	6080	-15884	-504	1264	-2448	8602	-2995	-18288	724	-944	-4786	5938	-7842	-22780	9972	28412	11414	-32768	32767	-20728	-136	-11588	-14028	-32768	-16956	-3396	3540	-15664	-15377	-1123	-2157	132	138	1
-6584	-7576	12712	-1750	-1168	5725	-17308	-948	276	-3418	9922	-3671	-15912	-4612	152	-5400	6445	-5461	-29736	12560	32000	7474	-32768	32767	-27620	-256	-13368	-12596	-32768	-21060	-2468	520	-13188	-10417	2698	-1537	128	143	1
-6220	-11604	12856	713	3098	7274	-19860	-1696	-552	-2616	10272	-3415	-19548	-7044	1148	-2596	9700	-2814	-32768	5528	32140	5614	-32768	32767	-32768	7324	-15572	-1330	-32768	-24387	-6208	2948	-4688	-10194	1928	830	124	141	1
-5648	-7128	13432	1547	4026	7423	-19820	1396	716	-2947	12481	-2783	-18964	-2720	1288	674	8890	-2644	-32768	88	18532	-1081	-32768	29796	-32768	19224	-18612	-3370	-32768	-20974	-17696	4576	16000	-2798	-15663	4112	121	127	1
-6468	-6176	14880	1707	12151	8234	-20828	-2224	1176	-568	15050	-3643	-19568	1264	7028	-1197	8867	-2143	-32768	-25164	-1604	5512	-32768	14206	-21316	10432	-31580	-2900	-31260	-11020	-32768	5704	25576	-391	-12052	5048	124	128	1
-7416	-8480	14488	2041	17791	9878	-21596	1364	2572	3152	18292	-4033	-21312	5672	10792	-573	8553	-1070	-32768	-32768	-23296	22784	-18483	499	-3176	10680	-32040	17439	-11364	-649	-20932	-21064	32767	-28348	9567	1434	125	119	1
-7776	-8276	16096	4828	22361	12394	-21380	2140	2816	1411	21429	-5418	-19464	4300	10608	-2071	8236	321	-32768	-24780	-22264	3182	1375	-7125	-120	21244	-32768	-283	12762	7032	-22644	-32768	16512	-27845	13549	3102	129	111	1
-9320	-9376	15336	7423	28122	16097	-24232	1784	4412	3224	24504	-5920	-21016	28	10084	-4649	7223	3037	-32768	-15420	-7176	-18092	23139	-9886	-12424	12048	-24312	-15681	29439	12419	-15092	-15700	7360	16704	2008	-11259	129	119	1
-10464	-12092	13592	9907	32767	23529	-29080	4588	6968	-1808	26408	-7901	-23120	2096	16652	-10050	881	5443	32767	32767	32767	-11081	22671	6848	-32768	-21040	32767	-27808	8583	4220	5688	-1700	-12376	32767	8371	-4883	131	100	1
-10272	-14792	19880	8871	32767	32767	-32768	8616	20952	-17639	30118	-6878	-32612	2584	25320	-673	-18860	9130	-32768	-9132	29376	-20843	32767	-32768	-5504	7424	-32768	-32768	25213	14111	-32768	29216	8912	-10404	-14269	17323	149	132	1
-24868	-25760	18876	8341	32767	32767	-32768	-10836	15512	-12188	28123	-2941	-30216	3052	5164	-15986	-12211	8654	8832	1656	24384	-18741	10428	-11161	-32768	6960	-11440	-11354	19768	19165	-25052	14228	-25600	-28051	20337	24716	140	137	1
-32768	-1812	32767	-5571	32767	32767	-32768	-1972	14260	-15785	31711	-5026	-31580	-15116	3860	-26457	-16155	6757	-23836	5128	16340	-10677	3292	-10417	-5588	8232	-15748	13380	15710	11333	7276	-16096	-26620	17430	5011	18116	120	121	1
-28700	-32768	29056	-7679	15250	32767	-31108	-19776	14164	-7780	21616	284	-27208	-15028	-19216	-24136	-15748	2227	-5120	7776	13944	-6055	1114	-5566	-18400	10544	-4556	17772	11090	7893	-13388	20516	-15484	20025	10753	3353	121	177	1
-29640	-32768	30532	9304	583	32767	-18848	-4916	-11988	18257	10900	-3868	-30084	-1476	-10536	-3067	-22070	-2707	-7672	2956	15404	-2995	1631	-4069	-22052	4116	-6412	3298	8873	5719	-27960	23208	-11728	-11055	14702	3335	128	151	1
-27288	-32768	32767	-10534	-32768	1859	-22120	-5952	-1412	-8207	8194	955	-32212	3792	-9332	7002	-25275	-1932	-9884	5500	14036	-859	2315	-1727	-16704	7248	-4704	77	7603	3813	-18264	-1860	-4128	-13595	15466	8059	132	159	1
7140	-32768	-4744	8587	-32768	-21722	-12160	6140	8052	-3435	-2115	1476	-31712	3408	-7268	6602	-25313	-1970	-7916	8516	12980	-46	2774	-1812	-17568	4176	-2032	6774	5974	3102	-12432	-1436	-4304	-850	16432	333	110	132	1
8208	-8788	-336	2943	-21841	-23189	-9052	4932	4068	-7807	-11376	6945	-24852	-2272	-7224	407	-27295	-5899	-8848	6980	13252	674	2632	-2389	-16572	6216	-992	11076	4508	2598	-16132	6608	-3020	4459	16499	1921	114	140	1
1968	-8220	3028	-20304	-16705	-25077	-10236	-3884	1560	-9049	-19525	7307	-18444	-4064	-10108	5572	-21371	-5781	-8868	7712	12560	606	2590	-3673	-16396	4696	-1188	15695	3521	2388	-18600	5848	-2424	3018	17938	6872	127	136	1
-52	-12072	4612	-22732	-16662	-25733	-9028	-7508	604	3513	-27014	5973	-15256	-2624	-10812	9153	-20139	-3341	-8560	5836	13292	593	2043	-3301	-16980	6724	-2660	10785	3212	1648	-16524	120	-2040	8917	18166	10364	125	84	1
-7152	-23936	8284	-19787	-20313	-32045	-9544	-4524	-160	14228	-32768	5157	-11924	-2792	-10728	8458	-19067	-4368	-8620	5312	13356	569	2288	-3178	-16928	2852	-1440	6564	3203	474	-14568	-192	2160	17057	18591	9291	136	0	1
-4684	-7900	8356	-13718	-21574	-32768	-11132	1420	-1896	19414	-32768	7304	-9456	-5032	-13408	11303	-16211	-5966	-8864	6516	12716	526	3366	-3030	-17104	2684	-2076	6769	3068	506	-13748	1672	3484	15342	18219	6398	145	130	1
-9892	-14912	13496	-19519	-20288	-32768	-11540	1168	-2236	18613	-32768	11717	-5472	-2708	-15804	18140	-12893	-4079	-8368	6736	12328	838	2084	-3508	-13648	5116	1004	12845	3824	1929	-12356	-1260	1660	7702	18808	5047	127	114	1
-15076	-17892	17888	-14198	-22407	-32768	-14376	-28	-3804	19038	-32768	11985	-2248	-1268	-16884	26569	-11430	-271	-24864	17268	4932	-10679	7630	1318	-12864	4648	1356	7324	5606	1673	-16624	-704	3048	1450	14280	5202	119	120	1
-15292	-10352	19108	-15262	-23676	-32768	-17404	1816	-4048	17888	-32768	15650	1296	-808	-17436	29435	-10222	2150	-7084	6124	11184	-838	721	-3494	-12820	2268	1532	3600	7891	2375	-17012	6312	672	1247	4038	4363	120	123	1
-19568	-17456	26360	-19246	-25564	-32768	-23688	-828	-4592	12444	-32768	18874	-1120	604	-17216	22675	-4808	3299	-8600	5664	12416	-96	474	-4260	-14980	1668	-632	3712	9489	2824	-17096	2288	3024	2068	3425	4592	138	129	1
-27176	-23988	31892	-16744	-26581	-32768	-32768	-4316	-5460	8233	-32768	22192	-3560	340	-14280	15534	582	4736	-9452	6316	12928	694	1631	-5176	-17960	3292	-2820	5214	9941	3403	-14240	1280	160	6053	9536	1764	136	119	1
-32768	-23780	32767	-16736	-26010	-32768	-32768	-5676	-7724	4919	-32768	25036	-5328	1052	-5116	15271	-372	3298	-8260	6280	14044	696	4273	-5683	-18452	2632	-1504	6923	10830	3481	-17516	4692	-2904	6585	11863	1667	126	118	1
-32768	-13740	30636	-15100	-27315	-32768	-32768	-23604	-14364	4637	-32768	20959	-16884	2128	8924	8177	-10033	-1659	-8328	5696	14572	661	7646	-4953	-17504	3028	228	3179	13207	3582	-20660	3492	4252	2881	9247	2729	109	121	1
-32768	17896	8248	-10194	-22369	-31437	-30880	-5880	-24648	2647	-32768	6542	-32768	328	29416	7349	-29556	-12409	-9472	7336	15292	108	11939	-5268	-21460	2356	288	-368	15822	3508	-21944	-2040	7176	2662	7288	2613	128	121	1
-32768	32767	3592	-20630	-6143	-11756	-13624	-14836	-32768	-14955	-17745	-84	-18640	15064	32767	7012	-8591	-394	-10328	6364	15592	-183	17386	-6865	-22024	2056	-636	496	18133	4443	-20700	-1208	5124	4778	8842	1639	132	120	1
-32768	32767	2492	-4712	-2655	2461	-8532	-24008	-32768	-8802	5300	-5009	-8472	29964	32767	20644	18563	-2952	-9832	8160	16672	-1495	23065	-7687	-21916	3108	-204	-236	20332	3998	-21380	5288	3836	7333	9257	142	135	123	1
-32768	32767	2500	10228	6874	15821	-14596	-17880	-32452	12844	22095	-12409	-23484	11880	18392	-615	1503	5829	-10136	10576	15716	-1825	29565	-10554	-25164	1732	860	474	21929	4659	-24060	3604	2984	7139	6289	-635	145	121	1
-22236	-14220	20764	32767	20611	18565	-26440	80	-5476	15298	31769	-15490	-18340	-4664	-2464	-16336	-6751	4102	-10496	8200	14744	1666	32767	-16395	-25580	-1016	1864	5166	22906	6253	-22676	-652	8588	10836	3760	-1066	120	123	1
32767	-25700	29744	15825	26392	16123	-32768	32767	32767	26182	8840	-2298	16144	-15160	-32768	-32768	28651	-19635	-10132	10252	15172	4656	32767	-22933	-32768	-1456	4236	8618	22974	5018	-27512	-5848	15808	12401	-3916	-3173	116	130	1
-32768	21036	2660	18554	32767	21308	-14380	-29540	-32768	8111	10304	-11249	-32768	-12724	14004	32767	-14174	-3289	-19384	16100	17096	11360	32767	-32374	-32768	-7296	15376	27551	23776	4501	-28240	-7660	14684	17086	-11508	-8705	136	123	1
-3932	-13476	32767	1550	9917	7691	-32768	-940	72	15700	18566	-25233	-32768	23408	-5044	19559	22108	-26	-32768	13556	14416	9670	32767	-32768	-26852	7700	-2944	18887	25598	7142	-22876	-8324	11120	7288	-17956	-9318	130	129	1
-18984	-16896	14784	6158	7195	2948	-11576	-9524	-2276	4880	16652	-11269	-2384	4764	-6484	-32768	19130	-14752	-32768	29260	25388	24207	32767	-32768	-30572	18364	2124	17538	25781	1277	-25676	16736	-4564	32228	-18223	-3051	120	151	1
-6756	-6440	15340	8967	2202	3344	-18316	-2664	-4300	-3288	11453	-8013	-7304	-16632	-19384	-32768	-3869	-6317	-27676	21512	20944	16483	20377	-32768	-24064	19196	-3524	-18134	22179	7819	-26968	17672	-17920	24573	-15123	-867	105	149	1
-9868	-8564	13776	4814	484	1814	-19064	-2976	-3516	-8568	9977	-6422	-19172	-32768	-10004	4591	21080	-3797	-32768	31292	23252	2177	16467	-32768	-19948	4728	-14324	-14892	17634	2399	-29872	888	-14004	2709	-27035	966	107	144	1
-6256	-7504	13248	2334	1052	635	-18984	-2940	-2100	-8703	9780	-5684	-24480	740	-6612	24619	16297	-5179	-11432	32767	17256	-8229	-20080	623	-18416	3460	-2972	11194	7618	3884	-32368	-1884	-11908	-7549	-32768	819	94	146	1
-6468	-7208	13256	1492	1116	377	-17888	-3060	-1268	-4942	6816	-4785	-15352	10116	-1640	8243	12636	-8366	-1372	18896	11176	-12875	-26792	10741	-10448	2288	-516	11205	-1275	3291	-28224	-3384	-6800	-3623	-32768	-209	78	114	1
-5424	-7300	12928	631	1722	130	-17996	-308	232	1000	5114	-3641	-12996	4088	-2436	-2409	15445	-3801	5536	4752	6600	1057	-25776	13588	-7088	1464	204	7505	-9225	1264	-23036	-3044	-6240	-1994	-29252	3799	149	21	1
-5584	-8156	12516	-618	1928	251	-17452	228	1780	-2024	4195	-3496	-15432	-712	-3768	-3194	15324	-1776	1636	7480	6428	14306	-25222	15630	-6020	3828	-1016	3193	-15985	-340	-16256	-1008	-7992	-3814	-23797	4381	181	110	1
-6320	-7956	12548	-1002	1562	1021	-16412	-108	2296	-9329	4017	-2777	-18500	-608	-1388	-5428	16404	-4840	-3728	15188	8720	11334	-27462	16661	-5424	3440	-2088	-5684	-22386	-178	-12920	-404	-9188	-4215	-21934	969	153	123	1
-6412	-9204	11856	-695	982	2152	-16260	-1156	3084	-18139	4481	-1571	-14500	868	-1388	-17448	18450	-7202	-4252	9960	9624	4506	-30541	20261	-6588	464	-3692	-8631	-27570	-1593	-10564	1060	-8832	-4616	-20804	-667	33	112	1
-6148	-8320	11776	148	405	2591	-16960	-3844	1368	-14481	3867	-1865	-14156	-4372	-876	-19688	19485	-5352	-2532	2732	10140	9134	-28832	26517	-7716	-3768	-3948	-6507	-31781	-3956	-8220	2336	-8752	-6177	-17903	-168	121	126	1
-6636	-6760	12828	0	646	2235	-17100	-2152	1748	-1883	3252	-2531	-14996	-6208	2280	-11415	16883	-3944	-6724	6208	13172	13339	-26395	31338	-7832	-3676	-4240	-5719	-32398	-4480	-7136	3112	-10188	-10450	-14845	203	136	117	1
-6220	-8120	12036	-517	687	2654	-15560	356	4784	-2454	4368	-2220	-16492	-1056	3440	-3302	15210	-2975	-13912	9600	17852	9395	-30161	32767	-9096	3188	-6768	-11414	-32768	-7461	-4988	3320	-11580	-16310	-10791	-879	135	124	1
-7292	-8528	11760	17	137	4100	-15756	-3760	6672	-8661	5089	-3038	-17224	816	9680	5453	13481	-6669	-14172	4912	18540	7963	-32768	32767	-11944	776	-6876	-15167	-32768	-10834	-3732	2068	-12532	-19856	-6936	-2162	137	122	1
-8068	-7456	12064	1121	-654	5189	-16640	-2988	4048	-6426	7609	-4483	-18720	-704	2544	-8278	4510	-8066	-16980	7244	20436	11172	-32768	32767	-14844	784	-8696	-15865	-32768	-14556	-4084	2904	-14268	-19086	-4009	-3066	128	131	1
-6624	-7340	13260	221	-1310	6051	-15516	-872	1836	-4846	9392	-3466	-16768	-1560	3036	-7626	3888	-6425	-24404	14180	27148	10812	-32768	32767	-22140	3160	-11484	-13904	-32768	-18481	-3856	1456	-14776	-12500	220	-2864	121	136	1
-6112	-7320	13256	-312	-725	6534	-18308	-1004	656	-3857	10871	-4017	-17424	-5384	3632	-5562	9553	-2897	-32148	15048	30444	6297	-32768	32767	-28744	-852	-13700	-11234	-32768	-23032	-3284	132	-12048	-3458	5502	-1085	126	136	1
-7176	-8084	13284	-4397	117	6831	-19284	-1404	1176	-3850	11885	-3944	-16860	-2256	-460	-4256	9750	-2480	-32768	2116	31156	8319	-32768	32767	-32316	9656	-14704	5746	-32768	-22826	-7168	2944	-4408	-2414	4029	1178	117	136	1
-4492	-8992	13404	1605	8030	9252	-19912	476	828	-3382	13017	-4277	-19732	-1652	1472	-4055	8821	-3891	-32768	7664	17228	1214	-30370	27079	-32768	23852	-19272	-5552	-32768	-18831	-21396	5308	14020	6735	-15066	7482	115	129	1
-6376	-7548	15100	581	12590	9249	-19292	2052	612	-2534	15971	-4382	-19372	-704	8468	-4120	9602	-2159	-32768	-21464	-17512	5396	-32768	11204	-22040	8772	-32376	-1682	-31077	-7883	-32768	10020	26144	-674	-13804	10073	126	139	1
-7100	-8008	15068	700	19115	10299	-22136	2060	1568	1502	18723	-5070	-19900	3816	8104	-1957	8580	-832	-32768	-32768	-27148	27162	-14348	261	-2232	11236	-32768	17590	-10200	982	-11552	-12476	32767	-19999	12646	2686	127	119	1
-6560	-8568	15772	2365	23989	11674	-20836	1668	1284	2177	21696	-6112	-18500	1188	8004	-1522	9031	806	-32768	-18328	-24992	-4437	10986	-5153	-956	20972	-32768	-1722	14669	9093	-27776	-32768	15252	-32768	18639	3821	141	116	1
-8732	-8644	15052	5342	29722	14804	-24140	1024	3640	2776	24438	-5792	-20112	-3640	8448	-3112	8090	3800	-24316	-8640	11968	-24774	23203	-3680	-18872	-1344	7264	-25236	27571	9286	-16840	-15268	4112	14806	2623	-9092	166	96	1
-9880	-13492	14448	7400	32767	21346	-30044	4124	6436	-2618	26075	-6807	-23840	-36	14708	-9488	2418	4557	32767	6524	22208	-3517	32767	-32768	-32768	11144	668	-32768	16420	17982	-32768	-3972	5540	2944	-9555	-4482	158	116	1
-10704	-20112	12428	6244	32767	28520	-32768	11368	20920	-17167	30126	-4982	-32768	-376	27796	-2043	-19876	8221	-32768	21464	27808	-7987	32767	5222	-2996	524	-12396	-17378	28422	5800	-9208	12132	7276	-19056	-3599	4145	133	126	1
-29920	23700	8356	-10540	32767	32767	-32768	-8712	18236	-18933	26883	-1184	-31816	6656	5272	-12242	-10051	9285	-10108	12360	7356	-11120	15951	-17413	-21276	8688	-6228	-2756	18492	19656	-16188	5028	-17760	4824	16281	22728	133	140	1
-32768	-11364	32767	-14875	32767	32767	-32696	-2220	7764	-17803	30872	-2869	-24592	-4624	2940	-25763	-16881	6350	-29476	2672	17508	-13333	-1149	-14142	-9412	10568	-16428	12016	14289	11412	5216	-6432	-18928	32767	1181	13979	125	127	1
-29156	-32768	29864	-9520	18427	32767	-32768	-21464	11964	-4374	23760	-2006	-27436	-14012	-15640	-26409	-15646	3222	-7568	11172	12712	-6635	224	-7577	-20468	8072	-4380	20967	10244	7387	-19128	32767	-17012	21223	14597	7853	115	124	1
-16372	-32728	25328	724	7439	32767	-20360	-1924	-1324	19457	10349	-6311	-29988	472	-9320	-7792	-20376	-1144	-9568	-44	16876	-3970	83	-6249	-20576	8572	-5660	9959	9368	5994	-29124	22024	-10112	-18100	15292	8780	117	170	1
-32768	-32768	32767	-2103	-17120	18283	-19100	-4212	-8472	-11322	7822	-1881	-29676	1208	-9632	-2331	-23370	-714	-9468	5608	13232	-3294	1799	-2345	-15932	7788	-5868	-6348	8816	2570	-15708	-4300	-4408	-17412	15448	3481	125	164	1
3124	-32768	5424	-2645	-32768	-19777	-12908	2084	9688	-5132	684	-1202	-30336	7008	-6936	4063	-24986	100	-8872	6512	13148	-1115	2544	-1540	-17936	-456	-3900	2662	7090	2069	-10992	-6196	-5900	-8369	18676	886	100	137	1
9988	-13648	-2808	8093	-27225	-20865	-10624	3700	5764	-4739	-9955	836	-25292	584	-5488	-2818	-27635	-3339	-8192	7288	13204	428	3038	-1779	-16872	3348	-344	10887	5465	2297	-18036	1700	-4420	-730	17535	1523	115	156	1
4484	-3892	3024	-14817	-22193	-22468	-8180	1628	948	-7971	-18407	3213	-19564	-3164	-9072	102	-23445	-4421	-9140	8084	12188	402	2717	-3365	-15952	4864	-1428	19151	4587	2782	-17604	3868	-2080	3314	18558	5319	132	152	1
-1192	-17772	7868	-27915	-21021	-28058	-11316	-2720	932	-1210	-25301	3703	-15944	-1884	-9564	3345	-21853	-2305	-8500	5836	13220	586	2710	-3109	-17160	7000	-2744	7895	4063	1795	-14720	480	-1340	10741	20385	7984	141	81	1
-3600	-19096	8720	-16856	-21562	-32768	-8908	-812	1020	4345	-30958	3920	-13224	-2052	-10348	5348	-20036	-2702	-8832	6296	12904	366	3378	-2432	-17008	1668	-2376	4712	4058	619	-14828	588	2036	14578	20439	8079	135	45	1
-3776	-7668	12020	-14865	-21782	-32768	-10900	920	-1872	10930	-32768	4740	-10076	-3772	-11332	5614	-16903	-4614	-9260	6976	12292	706	3215	-2923	-16248	2596	-392	11032	3878	1490	-15276	956	2700	12581	18121	6194	129	128	1
-7352	-11068	15996	-21731	-21749	-32768	-11692	2000	-3212	12855	-32768	7437	-6472	-4640	-13632	11216	-13539	-4044	-9420	6756	12072	970	2316	-3734	-14680	4860	996	11887	4731	2005	-14832	-1344	2800	9150	19258	5616	129	109	1
-10848	-15392	17632	-19190	-23488	-32768	-14536	1764	-3728	13011	-32768	9745	-4128	-3084	-14948	17900	-11214	-848	-9272	6008	12216	628	1502	-4375	-14152	3788	1152	8411	6326	1973	-14264	-2092	2492	3550	16043	4362	106	123	1
-11644	-12964	20476	-17556	-22272	-32768	-17136	2832	-5356	13441	-32768	13477	-572	-2320	-16472	23759	-8880	1439	-8648	6016	12212	219	1926	-4603	-14592	2496	484	5769	7887	2225	-18680	4432	-592	4758	8848	4690	113	126	1
-16744	-17716	25780	-18237	-21494	-32768	-21868	1304	-5792	11257	-32768	16048	-252	-2044	-16364	21576	-4114	-553	-8508	6568	13248	-1086	3429	-5495	-17020	2260	-2388	3687	9048	1984	-17444	4804	-2992	3375	4718	4062	133	126	1
-24160	-25576	31016	-14193	-22291	-32768	-32596	-2692	-6072	11426	-32768	20173	-3744	308	-15136	14472	-496	4147	-9092	5420	13468	-266	5391	-5240	-17296	888	-3592	4669	9668	2511	-14984	2116	-2404	3548	9529	2286	147	122	1
-32768	-16604	32767	-11572	-20646	-32768	-32768	-1440	-9348	7286	-32768	24338	-5664	-2020	-6920	15827	360	3114	-9420	6192	13716	-505	8085	-4612	-18392	3108	-1480	2690	10688	1900	-18564	3064	-692	3094	10929	1443	134	121	1
-32768	-16936	32716	-13565	-24772	-32768	-32768	-21704	-12408	5198	-32768	23382	-12668	-1500	7808	14871	-10064	-916	-10932	8264	13608	-544	11197	-5056	-15824	-1216	1876	-162	13643	3772	-21732	2668	6392	594	9581	2722	122	123	1
-32768	9728	6924	-293	-25155	-32768	-32048	-13764	-21460	15124	-32768	12884	-32768	-1912	20364	6983	-22284	-12946	-10072	7468	14692	-1818	14251	-6185	-21324	1640	1160	-2106	15909	3143	-22572	-3236	8424	385	8399	3242	123	123	1
-32768	32767	-7292	-15741	-8150	-14064	-15080	-14116	-32768	-4546	-19463	3614	-22492	13408	32767	13438	-614	1705	-10132	6384	15364	-2843	19331	-8215	-21956	356	544	-781	18571	3784	-19728	-3772	5928	3832	8133	1723	141	115	1
-32768	32204	888	-9345	-2197	-508	-7044	-22548	-32768	-8751	3594	-5594	-17044	18492	32767	13607	5676	3373	-9692	5308	15608	-3495	25380	-9342	-20664	1044	876	-2933	21305	3283	-19488	2740	5356	6534	9066	40	144	121	1
-32768	32672	-5424	25302	16595	18794	-12568	-20464	-30616	10108	20813	-12142	-24248	18628	17908	2941	7330	5041	-10736	7824	14368	-2402	31904	-12517	-24060	860	3544	-1897	23499	3721	-23888	3340	6888	8259	6699	-1108	131	127	1
-304	-18092	15004	32767	22647	14975	-23600	9740	18764	32767	30115	-17302	-18440	-3228	5960	-11697	-12543	3581	-12188	10976	13660	54	32767	-19128	-26092	-888	6132	2896	24804	5793	-23392	556	11500	11202	1481	-2026	117	126	1
22384	-20008	14904	-2828	25970	31972	-32768	21688	15752	26572	3720	3049	-10456	-11796	-27832	-32768	13860	-15021	-12180	12508	14004	4343	32767	-27483	-32768	-4504	6496	10390	24367	4483	-29944	-3696	20576	8778	-10627	-5157	121	124	1
-32768	-8824	32767	24997	32767	18172	-6044	-16272	-20760	5572	24226	-27768	-25396	-4064	9212	27230	-4524	-2105	-29648	21828	14024	4179	32767	-32768	-32768	9124	12064	26108	26230	4593	-28900	-6932	17608	5145	-17193	-10841	135	127	1
-7448	-7700	4664	17613	14088	13255	-28668	-3772	-10724	1733	16093	-12288	-24040	11980	-22808	6337	14983	-12649	-32768	-4428	23304	13387	32767	-32768	-27480	15488	3384	14696	28655	4973	-21724	92	-3248	21031	-17215	-3253	139	125	1
-21292	-10396	19268	10172	3805	3454	-11412	-9960	-8852	-1720	16012	-16090	3112	-8748	-26376	-32768	3281	-11291	-32768	32767	24776	15528	25034	-32768	-29224	21196	2316	-3196	24267	5698	-28576	16500	-15460	32230	-17236	-1727	116	169	1
-10408	-10888	13716	7586	345	1927	-22656	-4144	-3412	-5630	11598	-7871	-19852	-32768	-9416	-6770	8418	3078	-24120	32767	21640	-17312	18327	-32768	-20992	9996	-12152	-22374	21430	6125	-29752	5916	-16908	18374	-21447	2671	111	140	1
-7844	-6492	15100	4046	616	1211	-19272	-596	-1428	-7057	10285	-5774	-22516	-10828	-12312	24035	17879	-5476	-28048	32767	32708	-7094	-20968	-7696	-23856	5524	-9012	6518	11204	4710	-32768	-3744	-14992	-3113	-31550	2970	98	142	1
-7336	-6080	14256	1426	927	675	-18588	-2608	-2208	-3980	8366	-4434	-19680	11236	-4496	16023	14276	-8358	-2952	24572	14868	-9766	-25810	6401	-12124	-1140	-788	12354	1441	5519	-32348	-4312	-8476	-2112	-32768	1232	96	138	1
-6300	-6340	13440	-106	1502	800	-18248	284	-1068	-3034	6280	-4939	-12928	6064	-2704	2011	13878	-3540	6736	9152	7264	5186	-24552	14643	-7556	-324	368	15525	-7489	3122	-24600	-2880	-7884	-1291	-32768	1910	92	122	1
-6216	-8016	12288	-870	1584	938	-17504	-1600	708	-2501	4780	-3181	-14364	-2448	-4352	-3761	15313	-177	3976	10676	5872	17438	-22440	18455	-6920	5388	-812	10366	-15452	2961	-18364	-1784	-8172	-896	-25250	5700	130	66	1
-6540	-7808	12528	-1012	1323	1485	-17192	-948	1664	-5930	4189	-3216	-17664	-4040	-4664	114	16670	-3204	-924	14656	7836	16164	-23334	20759	-5356	3644	-1584	-3978	-22223	2662	-13192	-1396	-9384	-1702	-22770	3105	191	100	1
-6444	-8432	12168	-1024	948	2560	-16360	160	3124	-13130	4283	-2278	-17256	448	-108	-3679	18283	-6313	-1968	10248	10136	11355	-23011	25344	-6924	416	-3180	-11853	-27870	1045	-11352	92	-9960	-593	-21178	1162	38	106	1
-6696	-8344	12152	-754	990	3236	-17296	-3364	1040	-14554	4215	-1801	-16884	932	408	-5462	18241	-6285	-5948	4892	13608	12225	-22566	31135	-8236	-2156	-5016	-11505	-32125	-859	-8812	2148	-9292	-1006	-18734	781	145	99	1
-6656	-6316	12800	-472	875	3049	-17112	-2552	736	-5150	3640	-2179	-14580	-2292	2348	-14928	18808	-4849	-8592	5188	17296	13151	-26083	32767	-8388	-812	-5816	-9479	-32768	-3499	-7180	1500	-9788	-5342	-15575	1145	111	115	1
-7224	-7904	12040	-1249	868	3101	-15888	512	3732	-7053	4593	-1470	-14888	-2064	2904	-11168	16828	-3963	-11412	3444	19448	12148	-30947	32767	-10516	-340	-6024	-11636	-32768	-5539	-6144	1884	-10756	-11255	-11630	-508	127	130	1
-7476	-8136	11992	-1223	-434	4762	-14872	-3032	3868	-9613	5747	-2143	-15956	416	3924	-6116	15752	-3615	-15152	2336	21452	13099	-32768	32767	-12076	-1632	-8184	-14634	-32768	-9455	-4440	2928	-12516	-16084	-8244	-1672	134	131	1
-7368	-7904	12064	-298	-852	5833	-16360	-2028	2924	-6234	7484	-2601	-16112	-2424	8360	1379	14567	-6007	-17480	5876	24196	13939	-32768	32767	-15244	-1256	-9408	-12079	-32768	-13441	-3168	3512	-14832	-19475	-4470	-3029	140	127	1
-6692	-7152	12768	122	-1154	5913	-14476	-632	2292	-5534	8946	-3072	-18896	220	-1472	-8514	3309	-7817	-21088	9736	27204	12660	-32768	32767	-20328	-152	-10624	-10020	-32768	-16756	-2572	2536	-15340	-16460	-561	-3955	130	133	1
-6592	-7468	12760	-891	-1533	5744	-16544	-1004	864	-3655	10289	-3574	-15524	-1508	2580	-5233	5489	-5231	-28092	11372	32272	10098	-32768	32767	-27444	8	-13784	-7563	-32768	-19691	-2724	612	-12848	-11404	2394	-2952	121	139	1
-7344	-6268	13740	-3459	-237	5257	-20128	-832	-600	-697	10843	-3585	-18112	-5652	-172	-3333	9635	-2682	-32768	3856	32767	10842	-32768	32767	-32768	6788	-15848	2984	-32768	-22103	-6580	1308	-5108	-9482	451	-215	120	136	1
-6772	-10516	13848	1592	6629	7041	-19740	516	-1244	-3130	12116	-3223	-19556	-2140	44	-2677	9543	-2859	-32768	872	23436	8553	-32768	31198	-32768	19488	-19268	-2429	-32768	-18913	-17316	3696	13988	1400	-15208	3727	114	127	1
-6680	-7712	14380	1849	11356	8178	-19784	2960	876	-3344	12855	-3234	-19440	668	5752	-2390	8172	-3005	-32768	-13964	-2088	4107	-32768	15445	-24048	12264	-30620	-7461	-31818	-10396	-29944	8972	25332	5777	-15923	6695	124	132	1
-6920	-7652	14988	1002	17010	9227	-21576	2132	1684	2258	17576	-4212	-20992	3400	9088	-1449	8695	-1286	-32768	-32768	-22780	17101	-16626	3707	-5624	10040	-32768	8281	-12564	-2461	-25492	-11436	32767	-24968	8244	3816	127	131	1
-6860	-7832	16224	1309	22857	11642	-21368	2832	2212	1262	20780	-5451	-19996	2208	9780	-3046	9447	918	-32768	-24972	-23940	7126	2715	-2262	-440	22056	-32768	1607	10749	7064	-26516	-32768	15888	-32768	16966	5574	129	108	1
-8272	-8652	14688	4922	28552	14050	-23332	1936	3836	2563	23956	-5461	-21360	-1368	9548	-3459	7178	3006	-32768	-13500	-7756	-19024	27183	-5097	-11840	12560	-27660	-18185	28918	12302	-13652	-20444	7616	11328	3480	-8296	158	104	1
-8508	-7976	13832	5852	32767	22165	-28432	4640	7756	-665	26535	-6555	-23016	1440	15048	-7891	3379	4283	32767	22144	32767	-7799	31106	8068	-32768	-32768	32767	-31627	11707	449	-3652	-6776	-4028	6145	-241	-10788	137	112	1
-8260	-10360	14172	6713	32767	28068	-32768	10008	12564	-14409	29038	-6720	-29148	4448	24916	-9496	-11359	8196	-32768	-10016	32767	-15003	32767	-32768	-9904	12584	-32768	-32768	24781	16761	-32768	14692	12596	-12476	-8569	13824	128	123	1
-22132	-32768	5068	20871	32767	32767	-32768	-5348	21776	-24849	28167	326	-30612	9428	8020	-11606	-9229	11425	11940	26784	24640	-16515	12385	-13051	-32768	-340	-3588	-2558	18325	17747	-26320	14384	-21524	-7729	18734	12181	139	136	1
-32768	4344	24676	-14199	32767	32767	-28760	-8384	5128	-16306	31976	-3678	-26188	-10144	3536	-24687	-17321	7449	-26528	10376	16800	-17191	4588	-17760	-6448	13288	-14432	8773	14261	13342	1820	-9380	-21904	22310	5335	15431	130	117	1
-32768	-32768	32767	-9281	16361	32767	-32768	-23444	9132	-4401	24410	-242	-26916	-20668	-17420	-26877	-11515	2185	-5616	12828	11304	-9867	2696	-8422	-17960	8420	-4928	22261	10688	8323	-11768	23604	-12868	30399	11786	6973	114	127	1
-24296	-32768	29132	3421	-2698	32767	-21040	-6232	-2756	20016	15133	-6304	-30032	-860	-10708	-5362	-20800	-2413	-6460	13888	11316	-9528	1697	-9187	-22376	7168	-8036	9411	9484	5651	-28652	31404	-10232	-10309	15053	8321	119	153	1
-32768	-32768	32767	3365	-28367	16119	-20920	-2276	-2900	-4208	9761	-1048	-32632	-1452	-10972	2597	-24105	-1655	-9128	4808	13788	-2343	2120	-2522	-15788	6544	-6752	-23	8854	3141	-17368	-760	-7272	-19958	14242	5699	125	164	1
468	-32768	4724	2925	-32768	-14003	-13928	2588	6440	-884	2522	354	-30552	7280	-7512	5896	-24857	-982	-8956	7568	13016	-209	2516	-1373	-17340	1436	-4088	2909	7049	2110	-12568	-9284	-6608	-7438	16524	1557	117	156	1
10352	-18940	-5000	6029	-27925	-18197	-13616	5040	6504	-1172	875	831	-29132	236	-7176	708	-28648	-2876	-8516	7704	12792	1191	2971	-2026	-16780	2056	-692	12243	5131	2468	-15944	332	-2528	1970	16162	514	129	133	1
4980	-7776	-256	-10553	-20033	-21097	-8204	-8	932	-8620	-16158	5475	-19792	-900	-9144	4753	-23416	-5106	-8688	8184	12540	1246	2963	-2218	-16052	5548	-1348	18936	4360	3189	-17572	6268	-2548	3653	17341	4207	124	183	1
-724	-17656	4172	-21786	-17342	-26458	-9272	-3324	844	-1949	-23427	5507	-16588	-900	-10612	8301	-22332	-2435	-8928	6504	12780	1607	2502	-3220	-16540	7772	-2044	9019	3851	2013	-15880	2252	-564	7843	18176	7093	123	113	1
-3440	-18604	6452	-15586	-17712	-32088	-7936	-2708	308	4396	-29914	4558	-13592	-1064	-10724	9335	-20011	-3093	-9052	7216	12484	597	3110	-2820	-16508	3956	-1352	4459	3772	525	-15148	724	1640	15659	18213	8630	138	0	1
-3592	-17228	7100	-14305	-17940	-32768	-9792	-1280	-1672	11689	-32768	4719	-9908	-1924	-10656	6955	-17333	-3550	-9380	7420	11960	485	2845	-3235	-16336	3332	-796	9404	3507	1326	-15788	2400	2072	16515	17052	6800	144	123	1
-7280	-10896	13368	-19885	-19364	-32768	-10808	396	-2912	14212	-32768	6893	-7500	-1808	-12996	9219	-13174	-3631	-9092	7416	12044	940	1639	-4057	-15140	4008	76	11729	4027	1856	-14008	1740	2412	12780	18815	6690	133	107	1
-7788	-11716	13864	-20491	-19573	-32768	-12868	1296	-3676	15070	-32768	8840	-4484	-1896	-14028	13769	-10527	-1561	-8940	6552	11836	706	977	-3992	-13736	4052	916	10050	5247	2064	-12092	-1520	2988	5476	18613	5313	121	114	1
-13308	-14060	19252	-18787	-21179	-32768	-15472	1072	-4872	15082	-32768	11680	-1372	-2652	-16000	20906	-8793	-218	-8344	5564	12320	60	1143	-4131	-14212	3652	320	3785	6948	1868	-15952	1448	1192	1265	13019	5785	108	119	1
-16448	-16420	22260	-19259	-20630	-32768	-19480	-84	-5524	14035	-32768	14013	404	-3992	-17236	20926	-6866	-84	-8252	5772	12928	-1484	2843	-3968	-15740	644	-1216	567	8555	1773	-17788	5060	-3672	-737	4603	4071	128	125	1
-23284	-23004	29340	-18766	-21779	-32768	-27268	-2156	-6764	11637	-32768	19071	-1948	-976	-16748	16329	-2586	2319	-8824	4076	13544	-316	5070	-3133	-17132	-860	-3624	-140	9652	2195	-16676	2192	-1264	-2119	6557	2490	134	129	1
-32768	-26836	32767	-17494	-24636	-32768	-32768	-4836	-8384	10645	-32768	23328	-3788	-2364	-10936	16079	-1148	2982	-9432	5116	13708	328	7462	-2406	-17400	2884	-2320	821	10589	2443	-15588	2364	-488	-274	11031	211	137	123	1
-32768	-17680	31152	-13621	-22205	-32768	-32768	-16392	-9044	-1285	-32768	24438	-7152	-1172	1360	14237	-4596	118	-9752	8048	12964	518	9866	-3105	-18272	3600	988	1730	12144	2923	-21492	4392	4628	-1188	11620	1736	114	124	1
-32768	-3792	16616	-16283	-28714	-32768	-32768	-23812	-19856	10447	-32768	14774	-32452	460	25328	-617	-27338	-6912	-9928	9148	13452	-286	12325	-4588	-19540	4244	2364	58	14594	3327	-21604	84	8992	-882	9660	3727	110	128	1
-32768	32767	-4328	-14565	-17336	-18214	-20628	-9904	-30220	-8477	-27348	6167	-32768	-964	32767	5931	-20926	-9151	-9924	7976	14656	-585	16180	-6772	-21336	2240	932	802	16998	3991	-20756	-4632	6724	3306	8436	3593	119	117	1
-32768	32767	804	-21950	-3265	-1509	-7388	-19024	-32768	-15256	-5896	-4438	-4732	16772	32767	16679	17609	-2723	-9348	5696	15200	-1259	21368	-8116	-20904	676	344	24	19715	3878	-19220	-544	6124	7495	10043	1033	134	121	1
-32768	30388	-72	4177	2751	8467	-9344	-19768	-32768	-34	14917	-9483	-20136	27792	22268	22932	18497	3523	-10740	7104	14388	-1130	27762	-10119	-22560	1612	1764	-1094	22090	3966	-22472	2756	5016	9440	8173	-680	140	126	1
-32768	-5680	8940	32767	29467	16113	-20080	-9332	-24992	24390	26495	-17851	-17872	1936	1848	-11396	-1	7924	-11280	8372	13016	3967	32767	-15000	-24236	-584	3020	2549	23326	5593	-22700	-1384	6904	11665	4076	-1098	133	127	1
32767	-31460	32767	32767	32767	778	-32768	32767	32767	32767	16244	-10726	2460	-9980	-17364	52	6526	-2247	-10204	10596	14644	7474	32767	-22055	-28604	-3388	5016	9465	24243	6333	-23516	-3940	12884	16644	-1899	-3161	108	121	1
-32768	32767	26476	18287	32767	32767	-20328	-11112	-32768	32767	5552	-6552	-32768	-22124	2344	32767	893	-11189	-14292	9756	17420	14324	32767	-30929	-32768	-14372	16192	32767	24315	3194	-29968	-6608	13844	13328	-12200	-8324	128	119	1
-28720	-32768	32767	32767	16883	5468	-32364	-5792	1044	8110	22290	-23936	-30260	18000	5508	29746	13655	3270	-32768	27284	12092	4889	32767	-32768	-26836	17468	-860	21802	24911	7196	-22292	-9304	14272	3030	-18194	-11668	126	123	1
-16964	-25528	32767	2789	10719	12823	-20004	-17268	-8504	11015	17182	-11245	-5380	9576	-4904	-18496	11569	-15250	-32768	18824	13932	5004	32767	-32768	-31848	14232	420	2016	29844	1271	-27088	17108	-5656	22545	-18273	122	136	133	1
-11096	-11460	13712	8681	664	4005	-15164	-2124	-7500	-6855	14131	-9868	88	-11372	-32768	-32768	-3909	-8439	-32768	30100	21400	19984	19603	-32768	-27144	17888	-532	-14968	22706	6357	-29420	15756	-18204	23770	-15003	-164	96	155	1
-7948	-4076	16868	6127	-195	1608	-20120	-3076	-4392	-8087	10717	-7703	-19576	-32768	-5816	-2690	15151	-2462	-32768	32767	9376	-8214	23748	-32768	-21060	7364	-15500	-21453	18773	5222	-31372	-740	-15424	9027	-25894	1013	95	169	1
-6444	-8944	12756	3045	1007	401	-20704	-2484	-772	-8152	8866	-4631	-24140	-3432	-11260	24533	16869	-4998	-15976	32767	20772	-6537	-22703	-5591	-20056	2624	-7756	8080	8982	3071	-32768	-2184	-12584	-6891	-32768	1907	110	162	1
-6676	-5900	14176	1193	1225	270	-18052	-3280	-1728	662	6430	-5434	-17828	9668	-3192	11768	13266	-7562	-1180	22808	11372	-10460	-25385	4739	-10816	620	-824	18410	-1130	3464	-30196	-3596	-8224	-3059	-32768	-863	86	119	1
-5912	-6540	13276	19	1923	538	-18024	1172	236	1970	4882	-3335	-12260	6884	-2376	-1076	14543	-3097	5732	5696	5508	-392	-23047	6365	-6792	808	-208	14993	-8826	2648	-23316	-2816	-8136	-1498	-31608	2095	122	46	1
-5700	-7352	12708	-677	1956	1175	-16668	1340	1816	-7981	4512	-2967	-14628	320	-4336	-5746	16034	-856	1668	6948	6068	12873	-22028	8890	-4808	3408	-2364	6847	-15262	1705	-21884	-3036	-8136	-1563	-29697	2790	177	116	1
-6072	-8432	12132	-1103	1413	2563	-16592	-1864	3888	-14377	4223	-2305	-19500	-2656	-1880	-9198	16332	-4523	-4784	12800	9220	14976	-24850	12880	-4664	2596	-3376	-2333	-21503	1694	-11076	-336	-8080	-4501	-20172	1374	54	116	1
-6352	-8588	11860	-902	970	3882	-17368	-2552	2700	-18245	4349	-1923	-15556	-1568	1072	-19627	17540	-6722	-4348	10980	10488	11636	-28257	20649	-6316	-1260	-3928	-4386	-26645	821	-10300	-84	-8768	-3138	-19375	-1561	62	113	1
-7576	-6632	13048	-716	960	3394	-16596	-3884	-20	-8672	3719	-2035	-13944	-4372	756	-15908	17926	-5219	-5096	6052	11796	11182	-26933	29168	-8192	-3396	-4316	-5105	-30461	-1299	-8220	1316	-7988	-4391	-18032	-1466	120	122	1
-6860	-6900	12896	-1848	249	3181	-15052	932	3296	-4078	4235	-499	-14864	-2712	2668	-12278	15292	-4358	-9276	5540	15788	11480	-26751	32767	-7872	-716	-4952	-6570	-32768	-3343	-6916	2020	-9428	-8298	-14789	-1206	125	111	1
-7488	-7612	11736	-673	-329	4253	-13948	-2728	3756	-9105	5996	-1789	-14420	-1308	2916	-6674	13922	-3419	-13248	5508	18552	8664	-31122	32767	-9676	1224	-5492	-11257	-32768	-5577	-6084	3984	-9996	-12480	-11456	-2239	129	122	1
-7052	-7120	11808	410	-1039	4029	-14540	-2208	3740	-5493	7114	-2034	-14240	-1728	9136	3416	14910	-6145	-14676	3560	19212	7406	-32768	32767	-11172	1020	-6460	-17684	-32768	-9061	-5476	3768	-11628	-17471	-7828	-2976	134	124	1
-6468	-7480	12328	1837	-1618	4990	-15964	-2176	3468	-3939	8570	-3719	-19232	-328	2612	-6164	7264	-7270	-14876	3448	19192	7582	-32768	32767	-13916	-1148	-8008	-19526	-32768	-13630	-5260	3164	-14080	-20059	-4783	-4262	129	131	1
-6928	-6588	13156	1138	-1406	5616	-16320	548	1544	-2883	10165	-3714	-17668	28	688	-5219	2874	-6445	-21920	9484	24844	9881	-32768	32767	-18492	428	-11200	-16566	-32768	-17857	-3452	1116	-15436	-15770	-820	-3808	125	140	1
-7296	-6852	12896	-11	-893	5419	-17904	-1400	308	-3213	11224	-4257	-16492	-5468	3300	-2700	8682	-2650	-27096	14012	28000	6843	-32768	32767	-25400	-1068	-13160	-10952	-32768	-21762	-3052	-1760	-14372	-3342	3615	-3285	124	137	1
-6816	-7284	13120	-1686	570	5679	-18412	-1200	516	-1965	12122	-4330	-16356	-3112	-20	-1595	10655	-2084	-32768	4640	30052	6094	-32768	32767	-30132	4016	-15148	3063	-32768	-23782	-6288	1324	-5848	-728	1727	-1358	117	136	1
-8472	-7276	13400	-1731	3992	6853	-18576	-1208	1668	-2579	13699	-4877	-18364	-892	1216	-1882	8631	-3995	-32768	456	21776	8541	-32768	32608	-32768	21132	-18216	3714	-32768	-19089	-14276	8156	5736	-450	-9475	5456	115	130	1
-7564	-6192	15144	1162	9968	8511	-18892	1516	592	-1878	16013	-5410	-18660	-972	7368	-2931	9121	-2181	-32768	-11248	2256	7127	-32768	13220	-26252	11944	-28752	-7586	-32768	-10341	-30260	8412	24448	3703	-12548	9672	128	128	1
-7288	-7332	15772	808	15039	9907	-22044	968	524	-181	18408	-5560	-19424	2444	6840	-2421	8343	-1100	-32768	-32768	-16828	18418	-24135	3041	-8828	8224	-32440	7129	-16580	-5308	-27000	-9140	32767	-28839	6405	-1244	130	122	1
-6988	-7920	15276	2023	21301	11974	-24084	2200	756	410	21126	-6170	-18472	3056	7100	-3183	9110	-218	-32768	-22448	-29580	949	2038	-4942	1440	18724	-31428	6890	6223	5229	-22312	-32768	21348	-32768	10886	8176	127	125	1
-7712	-7076	15272	6157	26145	14517	-22052	1920	1496	1044	23824	-6615	-19336	340	6144	-5232	7274	3387	-32768	-22844	-14396	-15214	17179	-16717	-9012	15780	-27900	-15452	26068	11569	-17504	-24632	16268	15517	5245	-10769	129	123	1
-8932	-9868	14176	8181	32090	19561	-27040	2784	3916	-1014	25537	-7726	-20644	1080	12616	-9149	3165	4424	32767	32767	32767	-4327	29181	5426	-32768	-32768	32767	-21297	12148	2820	-17292	-17580	16056	17905	-692	-12543	131	107	1
-8844	-15192	18784	8094	32767	28177	-32768	4688	14356	-12967	29118	-6173	-31300	-3364	27068	-6216	-14848	8144	-32768	-1768	27328	-16055	28937	-23605	-3840	5196	-32768	-26702	30215	15106	-32768	9156	15740	-3184	-6865	7623	130	124	1
-24136	-21024	17092	11715	32767	32767	-32768	-5748	20888	-16285	27678	-1401	-32636	620	5444	-6817	-9677	8490	24748	11552	10628	-14487	15748	-19841	-27036	5264	-4652	-14442	20820	18459	-7920	26680	-32768	2622	18373	23084	149	139	1
-30568	1616	20948	-4892	32767	32767	-30792	4196	10388	-19570	29713	-8896	-27092	4172	7308	-9852	-17210	9795	-32768	11860	15612	-16522	2201	-16778	-1292	12240	-20280	9598	15466	12827	1272	-14576	-10936	22929	-2763	15994	144	122	1
-32768	-32768	29716	-8273	32216	32767	-31612	-18404	6624	-20655	23636	3455	-29692	-6304	-12488	-27421	-14263	4312	-32768	8264	15780	-14764	-1393	-15031	-25092	8644	-7608	22635	11264	9051	-19236	31668	-20192	24715	12532	267	121	137	1
-28752	-32768	32767	-10785	3440	32767	-23052	-13668	-1596	12429	13577	-8210	-27844	-7472	-15576	-27954	-14607	3458	-9648	6388	14304	-1822	554	-4985	-19876	10496	-5880	8084	10557	6028	-32320	20312	-10976	-15790	13833	6572	123	144	1
-26244	-32768	8808	3580	-11538	23538	-21444	1576	-3216	-8529	8420	-3765	-32768	264	-11336	-9720	-21519	-2740	-9456	5480	13952	-2254	2245	-2806	-15948	2992	-6632	-3562	8970	3233	-14716	-6084	-5996	-17871	14107	4255	110	157	1
7960	-32768	4460	-436	-32530	-11450	-13508	-888	5084	-7203	519	-692	-29960	5684	-8548	776	-22308	-3862	-7648	5184	14372	131	2123	-2337	-17532	2192	-4936	8832	7358	2538	-11420	-4104	-4560	-3950	15510	1958	114	155	1
8696	-14528	-1164	-1573	-20531	-17451	-10988	5352	3464	-7399	-9617	615	-25840	276	-6764	-1121	-26775	-3059	-8656	8664	12656	1169	2765	-2959	-16348	4052	-1640	14290	5417	1895	-19676	6304	-3276	129	16006	928	109	148	1
4448	-10936	2336	-18422	-13293	-23104	-9404	-128	632	-8449	-17856	1639	-20604	-1092	-9396	2031	-24410	-5771	-8780	7024	12720	706	2728	-3385	-16168	6372	-2964	14440	4869	2013	-16292	5648	-3184	-566	16660	3987	120	179	1
-2504	-19216	8772	-22977	-13480	-29541	-10236	-3328	-180	1590	-24890	928	-17112	-148	-9788	4933	-20986	-3029	-8320	6280	13380	523	3561	-3203	-16800	4456	-2504	6693	4549	626	-17044	540	-2240	1559	17121	5046	137	117	1
-4220	-15140	11608	-17510	-16587	-32768	-9720	-908	-316	9980	-30678	180	-13196	668	-9200	4184	-19511	-2814	-8364	6528	13248	660	4058	-2922	-16700	2944	-2420	5093	4128	344	-15620	-372	-308	8129	18587	5479	142	41	1
-2348	-6688	13648	-18329	-16871	-32768	-12272	4916	-1652	15634	-32768	1615	-11296	-1524	-10240	4813	-17232	-4518	-9280	6180	13092	1466	3223	-3087	-16272	2844	-2612	6630	3457	611	-15692	1016	2192	13145	20407	6348	134	63	1
-5640	-9116	19736	-21712	-17219	-32768	-12432	6104	-4336	13866	-32768	5656	-7516	-676	-11392	8619	-15054	-3329	-8720	5912	12700	2066	3203	-3119	-16040	2816	-1600	8149	3503	891	-15844	1392	2140	13806	20789	6684	141	127	1
-8280	-11632	23140	-19614	-19834	-32768	-14548	5504	-4440	10947	-32768	8258	-6100	-964	-11676	12603	-13433	-943	-9408	7204	12368	-205	4157	-4137	-14084	3756	-532	7702	4102	1258	-11964	-4320	2100	12099	21107	5065	113	111	1
-8744	-9236	24120	-16341	-20354	-32768	-16428	5840	-5032	11817	-32768	12916	-3072	-2460	-12468	17706	-11813	-647	-9392	6292	12196	-758	4160	-4857	-15216	3192	-624	6366	5164	1455	-14040	-3128	-1336	1672	16764	3769	121	122	1
-12836	-12060	27536	-13576	-21095	-32768	-19768	3012	-5896	10466	-32768	16389	652	-7852	-15316	18803	-8379	-3108	-9092	5260	12236	-9	4344	-5139	-14816	2436	-1512	5828	6390	1739	-16588	4496	-2648	1393	10793	3245	115	129	1
-13352	-12768	28128	-12868	-21414	-32768	-26120	1000	-5448	11367	-32768	21193	-2236	-4348	-15384	17719	-3837	794	-9400	5184	12828	-346	4753	-4646	-15396	2440	-2312	4638	7552	1608	-17444	6368	-3096	2552	6022	3213	138	128	1
-30028	-24052	32767	-7605	-25763	-32768	-32768	-3692	-6720	13141	-32768	25393	-3256	-3872	-13980	19609	-260	1160	-10016	5680	13348	-698	6325	-3929	-17516	3172	-2112	2467	8729	1049	-16868	7380	672	584	8848	641	146	125	1
-32768	-23592	32767	-6902	-28745	-32768	-32768	-14064	-11176	10072	-32768	26677	-5100	8	-3328	23677	-1675	1794	-9808	6320	13316	-1031	8097	-4086	-18232	2576	200	551	10390	1040	-21752	6020	3276	-499	10873	278	133	125	1
-32768	-10656	17344	-8654	-32169	-32768	-32768	-18236	-15716	10543	-32768	21828	-24660	3920	18020	11605	-18270	-1097	-8728	7256	14040	-924	11057	-5207	-18276	4516	4112	-991	13712	1021	-23232	372	9656	-2800	9955	2360	129	124	1
-32768	27004	-9836	-16150	-15287	-24747	-21044	-9856	-32664	-9239	-27697	4616	-32768	8688	32767	9123	-17215	-5602	-10564	7512	14940	-2933	14249	-7174	-21384	356	1440	-2922	16519	2460	-21380	-9040	8492	-1066	7253	3043	131	116	1
-32768	32767	4128	-25814	-2732	-6912	-9440	-18064	-31400	-20672	-8796	-979	-6748	22792	32767	18599	15403	5677	-9708	5872	15572	-3909	19781	-8678	-20976	272	304	-2819	19174	2664	-18916	-4052	6556	3819	9130	543	127	119	1
-32768	31192	-2012	-3893	-4607	7550	-9556	-26676	-31104	-6199	11547	-9126	-17928	25504	25284	15006	13446	2337	-10328	6668	15640	-4025	26196	-10595	-22712	936	1636	-3402	21784	2225	-23392	3584	5548	9142	9029	-1721	118	121	1
-32768	-128	-36	32767	17804	24090	-14224	-13660	-23720	20010	22577	-14674	-19828	2592	5120	-14271	-3275	5477	-11760	11228	13872	-2188	32535	-15248	-23640	252	4264	657	23544	3886	-22448	564	6144	10247	3330	-1641	115	120	1
17452	-18544	10748	32767	23924	4654	-29352	20292	26068	32767	26165	-16359	4260	4424	-10580	9734	6456	1186	-12140	11144	13152	128	32767	-22658	-26060	-1972	5424	6030	24331	5282	-21804	-2308	13060	13027	-2361	-3383	113	122	1
32767	-27248	29884	32767	31663	2335	-32768	17904	9196	32767	701	304	-12088	-20016	-30376	-10573	12131	-17014	-14020	13868	15772	2551	32767	-31724	-32768	-4680	13820	25727	24848	3384	-26736	-4388	16668	10853	-12804	-8307	114	127	1
-32768	-10112	32767	29818	32767	21125	-15248	-12740	-17688	4825	18999	-24666	-32276	5820	21484	32767	-582	9685	-32768	21736	17476	691	32767	-32768	-30208	15628	904	14525	26086	5924	-23792	-9024	15680	-4570	-18059	-10664	127	135	1
-19704	-16004	19716	14888	7802	4992	-27388	-6052	-10404	6360	19052	-13847	-24176	16440	-12528	6325	17844	-12743	-29112	4392	20324	14685	32767	-32768	-29124	15968	-3400	9912	26423	6247	-25432	10388	-4148	21146	-17673	-3578	126	130	1
-9912	-3952	17172	8777	2027	4238	-11400	-4680	-6504	1582	15211	-12897	3840	-10324	-32768	-32768	980	-12828	-32592	29444	14164	11558	22634	-32768	-27040	20172	2560	-3393	22865	3710	-28528	16692	-16552	29952	-13271	-691	112	146	1
-8484	-4868	16368	8632	496	1210	-18804	-4388	-4924	-8063	10852	-9062	2028	-10040	-32096	-32768	-4868	-12348	-32768	32767	16116	-14300	21186	-32768	-19920	7068	-14836	-21864	19231	3710	-30480	2412	-17588	13380	-22750	4105	109	149	1
-7220	-10448	11716	3627	657	1219	-20132	-1560	-120	-9742	9730	-3468	-25564	-14240	-14372	17652	19337	-2688	-14588	32767	16744	-6706	-6595	-1496	-21672	3356	-9892	3915	10831	2608	-32072	-412	-16576	6402	-26193	3410	99	158	1
-7308	-5248	15088	2081	731	746	-19476	-5124	-1872	-1989	7313	-4127	-20780	5276	-4392	15178	12618	-7757	-3940	25796	11260	-12848	-11642	18698	-12040	1244	-1356	11557	1173	2076	-32768	-2840	-10592	-11006	-32768	4034	81	143	1
-6400	-6820	13520	-38	1142	452	-18212	-1444	-708	2542	5412	-4963	-13220	4428	-2284	2501	13318	-5250	2572	6100	8040	-4157	-11267	21399	-6660	3272	32	8054	-6873	820	-24544	-2576	-9096	-1061	-30969	4052	92	99	1
-6040	-7760	12580	-466	1410	461	-16924	608	708	-1262	4458	-2719	-12860	-1584	-3928	-3184	15896	-1258	380	6084	8076	8483	-13928	19071	-5460	6760	-1544	966	-14213	326	-16972	536	-8964	-4247	-26377	6013	149	100	1
-6452	-7580	12924	-107	1495	1014	-17540	-1608	1508	-4897	3606	-2966	-18348	-4164	-6420	2941	16716	-2942	-7648	10660	10284	12069	-21254	17690	-4076	6156	-4016	-8807	-20801	805	-13532	-720	-9416	-7102	-21716	4330	175	96	1
-6580	-8272	12608	-477	1502	2278	-16568	1740	1968	-12227	3503	-2593	-18088	3476	-1376	-2211	16826	-7506	-9844	10944	11916	11357	-30704	21856	-4748	1932	-4636	-9990	-25791	365	-10004	-1492	-9736	-4503	-18394	1631	160	120	1
-6960	-7024	12772	-880	1529	2357	-17584	-2512	236	-14338	3612	-2568	-14460	3512	-1268	-16461	18733	-6685	-6780	7080	10520	10421	-32768	27027	-7332	-2156	-3684	-7096	-30503	-1320	-9540	-1136	-9824	-4457	-18183	1277	127	126	1
-6776	-6052	13204	-1624	1357	1625	-17048	-2568	464	-4228	2700	-2757	-13448	-116	1304	-17548	18749	-4705	-6872	5028	11792	11573	-32014	32046	-8456	-3268	-4556	-5538	-32768	-3492	-8052	1008	-9500	-8679	-15182	1633	147	124	1
-6844	-7348	12404	-1044	1427	2284	-14916	128	4104	-9422	3927	-1095	-14004	-3132	592	-11699	13887	-4100	-12144	7868	15776	10807	-31847	32767	-9216	212	-5624	-6427	-32768	-5835	-6780	2136	-10048	-12174	-11783	1049	117	131	1
-6440	-9012	11340	-766	164	4224	-14804	-2748	4780	-13764	5052	-1554	-17360	-1948	6964	-5514	13312	-3955	-15688	7720	17468	6786	-32768	32767	-11760	1832	-6216	-11453	-32768	-7401	-5128	2996	-11684	-17842	-9089	360	135	116	1
-6892	-7336	12684	463	-826	5742	-16724	-3696	3092	-8216	7320	-2906	-17936	-4820	7708	-3396	8783	-7924	-15972	5020	19212	8456	-32768	32767	-14548	1020	-7716	-17511	-32768	-11345	-3596	3300	-13428	-21321	-5238	176	141	120	1
-6108	-6456	13284	575	-945	5454	-14492	752	2456	-5891	8092	-3078	-19648	-1332	-2516	-9973	2980	-6985	-24116	11236	26236	10271	-32768	32767	-20284	2884	-11608	-17134	-32768	-15554	-3844	2848	-15216	-18517	-1258	4	120	132	1
-6524	-6640	13348	-1111	-593	5937	-18340	-568	976	-5616	9453	-3489	-15324	-1216	6432	-4343	9658	-3372	-32684	16852	29968	6529	-32768	32767	-27208	992	-14096	-15096	-32768	-18995	-4512	-376	-14184	-9507	4170	-779	132	137	1
-7308	-7280	13072	-2669	686	5663	-17732	-2068	2184	-3791	10762	-3804	-15924	-3084	1652	-5172	12378	-2531	-32768	1356	31220	6617	-32768	32767	-30712	-460	-15924	-1571	-32768	-21937	-7264	96	-5832	-5074	3418	-814	125	138	1
-6248	-7996	13740	613	5239	7853	-19164	-1616	1672	-2105	12100	-4615	-19168	-2616	2700	-2239	9809	-4176	-32768	-872	24948	7934	-32768	32767	-32768	18944	-19156	6503	-32768	-18381	-17316	3040	7688	5152	-9070	3371	116	130	1
-6968	-7252	14208	580	9696	8516	-18468	1932	1512	-3058	14643	-4341	-19768	-1432	6872	-1643	9716	-3808	-32768	-13048	2612	4910	-32768	14039	-26852	10172	-27512	-5838	-32768	-8231	-32768	7964	19804	9389	-11537	10143	123	143	1
-7492	-6824	15196	113	14586	9162	-20676	956	1304	-539	17487	-5025	-19744	4264	7680	-1399	7522	-2289	-32768	-32768	-18084	22599	-23755	1340	-10096	7864	-32768	11828	-18304	-3063	-18160	-5172	32767	-24333	5875	-891	131	122	1
-7016	-6864	16004	1617	19314	10715	-21040	1512	792	1784	20225	-6011	-18804	3900	7064	-1479	6079	-1822	-32768	-27496	-20856	10036	-5199	-2861	2320	18004	-32768	5132	6536	5065	-20928	-32768	23284	-32768	13810	1137	129	106	1
-8088	-7880	15904	6069	24207	12971	-22444	1904	1912	3370	22972	-6164	-19308	-4036	7456	-4121	7543	2520	-32768	-30720	-8992	-15338	13623	-10969	-10388	12928	-29792	-14072	24861	10024	-18168	-20420	11244	5446	5686	-6771	130	108	1
-9036	-10508	14564	6976	30780	18247	-26200	2804	3380	459	24968	-7453	-20964	1772	10012	-7994	1614	3585	-32768	-32768	-8376	-21147	27283	-11960	-32768	-30344	32767	-11296	20072	-1626	1152	-12736	-15256	6674	6846	-12202	131	117	1
-8616	-10800	14432	3200	32767	25387	-32768	7128	11988	-13759	28253	-6588	-27320	7508	20344	-10871	-13242	7570	-12600	-19312	10316	-15015	32767	-32768	-29340	29160	-31296	-32768	19546	20205	-32768	7632	7896	-3049	-8677	11360	132	140	1
-12160	-32768	17256	732	32767	32767	-32768	-1276	18784	-18299	27328	-3904	-30316	10656	3928	-17119	-8890	9385	-32768	32580	27944	-31106	11103	-1891	-19512	7156	-7316	-9009	23225	5117	-32148	17592	1716	-3570	15764	5222	143	144	1
-26640	-6308	25140	-9013	32767	32767	-31548	11248	6956	-17888	28485	-9171	-29676	1472	11116	-17312	-17823	10341	-11484	2092	19184	-18321	9751	-16641	-14728	3844	-12728	3786	17311	16705	-13948	-14272	-28748	13623	12595	13575	145	131	1
-32768	-32768	30704	-9446	32767	32767	-32768	-21012	7752	-29364	25893	5903	-29864	-13712	-12320	-32768	-13595	6843	-10308	7716	11344	-9339	1590	-7065	-12948	6248	-7992	25882	13944	8380	2220	12568	-18380	32767	11714	10462	123	134	1
-23888	-29868	25752	-11040	11660	32767	-24820	-14856	4732	12027	15907	-7520	-28756	-12468	-12900	-22462	-19857	-1314	-12212	4764	16208	-3043	-1239	-6847	-22168	10616	-8556	4261	10431	7474	-28272	32767	-9744	-5681	9416	-1627	127	140	1
-14320	-32768	4668	-14439	-13441	28040	-19264	-4636	-8344	1727	10191	-1181	-32336	-4540	-10116	334	-21346	-2824	-9540	5340	13876	-2347	2148	-2069	-17972	9076	-7012	-1828	9809	2642	-22656	5484	-9036	-22541	12229	6859	129	142	1
-7608	-32768	17024	-2997	-32768	-10135	-15288	-7796	5164	-7893	5489	2754	-29844	4228	-8400	8256	-23579	-2307	-9432	7504	12824	-794	2266	-1511	-16644	2632	-4540	297	7498	3140	-14280	-7912	-6412	-11931	14431	2660	122	177	1
1372	-32768	8644	1015	-32768	-13129	-11184	192	4488	3622	-5731	-310	-27504	4	-5664	724	-26354	-2385	-8548	6816	13180	678	2523	-2075	-17580	4280	-2324	10590	5415	2679	-15096	1492	-3320	-1154	15408	40	120	140	1
5528	-5408	-496	-1085	-22782	-17350	-7936	2700	340	1302	-13773	4169	-21388	-6192	-7604	4379	-22845	-6469	-8984	7884	12272	977	2001	-2976	-16940	4652	-1936	11330	5193	2551	-17576	6376	-2556	25	15446	4019	127	142	1
632	-12824	3900	-20033	-18485	-22960	-8928	-3140	-292	-408	-20060	6539	-17804	-3148	-9908	8583	-20321	-4069	-8868	6648	12848	796	2170	-2954	-16932	7012	-2376	9966	3809	2021	-17536	1856	-2804	2702	16118	5463	141	145	1
-5412	-21164	5432	-16494	-19997	-29827	-7464	-3572	204	3846	-25917	7151	-13720	-2332	-10572	12061	-18393	-3635	-8844	6424	12976	781	2806	-2504	-16804	3324	-2392	3298	3605	710	-15852	-1032	-364	9683	17618	6806	131	88	1
-5948	-13160	7628	-9300	-22189	-32768	-8056	-2724	-872	9381	-30899	6588	-10940	-2432	-10276	12343	-16593	-3839	-9236	6532	12548	780	3192	-2513	-16324	3000	-2620	7970	2791	1041	-14856	832	2200	18380	19700	7449	132	3	1
-6552	-7740	9456	-15333	-23113	-32768	-9924	388	-1168	10471	-32768	8843	-8944	-2356	-11796	14208	-14307	-4681	-9288	7088	12092	925	2326	-3173	-16160	3912	-1108	12017	2772	1586	-13728	1800	1872	17473	19496	7336	143	120	1
-9200	-12972	12152	-19410	-23543	-32768	-12348	-440	-1612	10048	-32768	11056	-5964	-1848	-12648	17408	-11721	-2679	-9124	6816	11672	1121	1451	-3966	-13952	4720	640	12829	3525	1575	-12068	-52	1928	13241	17769	5136	129	108	1
-12092	-15364	15456	-17697	-23965	-32768	-15004	-512	-3664	11854	-32768	11334	-4980	-3048	-14212	23536	-10295	-854	-10736	8432	12024	112	285	-4057	-14296	5096	924	8527	4757	1588	-14620	-680	1284	6313	15336	4487	119	98	1
-13592	-15048	18868	-18508	-22457	-32768	-18708	1432	-4440	12189	-32768	13792	-1768	-6040	-15304	25733	-8796	-2912	-8692	5428	12372	197	997	-4454	-14448	4740	748	7915	4999	1662	-17204	3020	1388	3329	11302	3836	121	119	1
-18052	-19756	23812	-17504	-20987	-32768	-23668	-956	-4588	11965	-32768	15467	-3412	16	-15424	20866	-4604	1073	-8352	5636	13176	-973	2789	-4515	-16628	1660	-1936	4127	7787	1851	-19112	4668	-2396	3187	6137	2973	128	117	1
-24668	-24792	29300	-14446	-20442	-32768	-32768	-1744	-5084	11454	-32768	18704	-4276	1692	-12972	13467	-440	2187	-8828	5224	13680	-61	5157	-3899	-17688	952	-3016	3078	8884	1868	-16892	4180	-1912	982	8071	524	135	130	1
-32768	-26212	32767	-13130	-21188	-32768	-32768	-5352	-7892	9965	-32768	21408	-5932	3372	-4108	8807	1140	1228	-9568	6860	13704	-54	7750	-3532	-18488	3788	-1180	2085	9888	1730	-19068	4312	-408	-216	10867	-642	129	129	1
-32768	-11860	29980	-16448	-21984	-32768	-32768	-16760	-12164	2218	-32768	19990	-15456	3016	7448	10215	-6732	-1080	-9768	6908	13520	-215	10325	-4431	-18164	2648	1260	746	11917	2481	-21560	2908	5652	-1701	10437	1201	127	138	1
-32768	10392	11972	-16496	-23470	-32768	-32768	-18428	-11232	3427	-32768	19166	-32768	1720	23248	6218	-22089	-8343	-9892	8096	14340	-868	13347	-5601	-19488	2608	1932	-1597	14827	2887	-21920	-3168	8144	-887	7464	3368	131	120	1
-32768	32767	-1068	-16398	-6523	-14607	-16112	-11684	-29368	-12336	-18718	1396	-32768	428	27452	8086	-20541	-10229	-9704	7148	15124	-2246	17615	-7269	-21092	936	116	-2410	17667	3432	-20188	-5212	7036	2088	6675	1858	132	113	1
-32768	32767	-744	-9754	-3589	1214	-6148	-24652	-32768	-10898	3229	-5087	-10380	32767	32604	19323	17030	-6929	-10148	5992	15152	-2287	23314	-8428	-21020	1468	832	-2879	20186	3235	-20336	1980	5576	5589	8415	-73	125	118	1
-32768	29180	1668	7545	4805	14587	-13328	-14856	-31180	11664	20266	-11675	-23892	14392	16996	-4805	4712	6492	-10312	5420	15068	-1689	29805	-10494	-23948	-956	-2632	5278	21544	3765	-23412	3200	5144	8811	6592	-1320	132	122	1
-20572	-20876	21828	32767	20099	18014	-23032	808	-5768	18157	29635	-15229	-13168	-4176	-8780	-28733	-1061	7309	-11572	10432	13172	2539	32767	-17484	-25556	-160	4200	3788	23186	6015	-22652	-1584	8752	12341	1204	-1864	141	116	1
32767	-20536	16424	14010	27289	17487	-32768	32767	32767	31132	6175	-2546	16220	-22612	-32768	-32768	25217	-18372	-10332	10112	14152	6238	32767	-25724	-32768	-3600	4908	11284	23148	5607	-25860	-6036	18536	12170	-9295	-4499	103	123	1
-32768	22852	30672	24139	32767	27217	-13920	-21056	-32768	12369	10223	-12980	-32768	-23376	20456	32767	-18938	-989	-23972	18328	17004	9145	32767	-32768	-32544	968	12916	30113	24652	4420	-26664	-13012	22596	-5324	-18409	-12449	116	116	1
-10084	-28684	19308	512	7034	13889	-32768	-2276	2164	6261	16927	-20097	-32768	28164	-5284	21879	21467	-5670	-32768	7860	22296	9247	32767	-32768	-24724	17008	-1216	19339	27255	6111	-22068	-2272	1900	24288	-15118	-5452	124	130	1
-12404	-3344	19604	12467	8890	-2744	-32768	-7148	-4284	5514	14899	-15345	-816	1572	-6208	-31460	19554	-12870	-32768	28312	25876	19776	32767	-32768	-30568	17068	1788	5905	24599	2027	-30052	22300	-8696	32767	-15761	-1894	119	157	1
-10592	-11900	9580	8745	1007	2726	-17124	-2532	-4688	-1520	12351	-5964	-3468	-13452	-25956	-22307	-2536	-7162	-17648	12436	14768	12544	19729	-32768	-23428	12280	-652	-11110	20244	4878	-27908	13864	-19220	20784	-16434	986	67	145	1
-8524	-1356	19104	5662	-219	1661	-19368	-480	-3708	-6508	9711	-7162	-19504	-26628	-2000	12249	16279	-4578	-32768	31504	29040	3113	10109	-32768	-20240	5876	-10628	-9163	13250	2296	-30712	-224	-16084	-2685	-28555	2702	106	147	1
-6688	-8312	12876	2298	929	575	-20032	-920	-440	-9993	8852	-4769	-24576	4524	-9220	16662	15796	-4472	-14480	32767	16488	-7162	-3738	-15661	-14332	4124	-11468	2692	6087	1842	-29536	-1272	-8840	-10372	-32768	2414	100	153	1
-6612	-6324	13668	815	1173	785	-18240	-2428	-1264	-4965	6583	-4980	-14236	6348	-2576	3584	11298	-6895	-12024	30956	16980	-7260	-6114	-9805	-10500	-780	-5372	16086	-1464	1206	-26796	-1156	-6248	-4459	-32768	2058	112	118	1
-6072	-7340	12848	-437	1521	741	-17556	-1696	1244	1244	4471	-3706	-12908	596	-2136	-5501	13583	-2991	-3816	12144	7088	-3699	-17932	18897	-5276	5704	-736	14299	-8399	227	-21836	-3360	-7344	-2214	-27231	4224	123	57	1
-6336	-7692	12420	-373	1575	978	-17400	1148	1612	-4856	4261	-3286	-15288	-2828	-4812	-4558	15031	-2871	-2916	6152	5652	-657	-18993	15362	-4204	8904	-1864	-5172	-15049	567	-14324	-116	-8556	-5295	-24084	2837	140	108	1
-6564	-8088	12120	-724	1391	1853	-16468	-1296	3088	-10972	3987	-2260	-18884	-1332	-2292	-8323	16068	-5659	-3744	5596	6296	146	-19602	14998	-2940	4912	-6772	-18475	-19035	921	-11752	1904	-8272	-6342	-19928	3383	146	115	1
-7072	-8396	11608	523	1264	3105	-16868	-1584	2264	-16504	4158	-2042	-14748	768	-916	-17686	17667	-6218	-9980	11124	11288	10938	-32768	25116	-4872	1688	-5096	-12864	-24239	-1716	-10656	1600	-8400	-6567	-18008	880	159	116	1
-6848	-6760	13276	-495	824	2705	-17236	-2544	1116	-11739	3850	-2136	-14144	-2420	1548	-18446	16417	-4213	-4992	6048	8944	10849	-32768	32351	-8492	-4964	-3380	-8289	-29331	-3458	-10004	-364	-8328	-9168	-17014	-696	121	119	1
-6932	-7700	12304	-670	1151	2556	-15576	-1128	3648	-7156	4436	-1444	-14252	-2940	1708	-17651	15835	-4164	-6676	4512	10612	11302	-32730	32767	-8048	-3008	-3788	-4912	-32768	-6438	-7964	1180	-9660	-12119	-15397	-765	121	117	1
-7736	-7444	11952	-208	342	3441	-14872	-2464	4004	-7577	5862	-2132	-15452	-2396	5644	-4437	11981	-4372	-14056	6776	15736	8768	-32768	32767	-9268	2332	-5964	-8715	-32768	-8110	-7092	2888	-10592	-16049	-11617	-1391	134	118	1
-7204	-7888	12084	-502	-91	3385	-15976	-504	4776	-6682	6699	-2003	-16680	-2156	8504	2171	11666	-7936	-16916	4952	17604	5913	-32768	32767	-11268	2728	-5756	-12648	-32768	-10609	-5536	2376	-11680	-19169	-8497	-2408	135	129	1
-7384	-7008	12408	400	-167	3816	-15576	-220	2604	-3342	8425	-4383	-18736	-1192	-64	-5550	4336	-7536	-15852	3916	17936	8256	-32768	32767	-14656	1868	-6580	-15515	-32768	-14102	-4180	2076	-12996	-18690	-5493	-1831	129	134	1
-7240	-7344	12664	-656	40	4096	-17272	-304	1456	-2697	9676	-3814	-17268	-3168	1788	-3730	4804	-4928	-21824	9668	23396	11405	-32768	32767	-20096	2604	-11092	-14020	-32768	-17450	-3744	2512	-15060	-14222	-559	-16	125	138	1
-7404	-6984	12752	-1941	488	4923	-18156	-1500	284	-1733	10204	-4240	-16492	-3852	488	-711	7926	-2930	-31088	17128	28664	9545	-32768	32767	-26436	2852	-13872	-11951	-32768	-20873	-4844	-540	-14016	-2752	6421	-31	115	139	1
-7076	-6936	12904	-2269	684	5048	-18724	-1324	364	-3899	10918	-4167	-16324	-992	-1516	-2452	8556	-2955	-32768	6668	29876	9376	-32768	32767	-32140	4188	-15144	-1562	-32768	-23696	-7520	3044	-6240	1431	5398	758	118	133	1
-6184	-7072	13844	-4352	5393	4955	-19352	292	556	-4469	12076	-3742	-18936	-156	1024	-4399	8866	-3122	-32768	7616	23416	9503	-32768	32767	-32768	21572	-18300	2981	-32768	-19363	-16548	5004	6860	2243	-5437	6263	124	128	1
-6804	-7100	14484	-1919	11758	7354	-19456	1484	1108	-4233	14274	-4035	-20148	-2320	7684	-5122	10155	-1400	-32768	-12248	-3656	8137	-32768	19604	-26548	13768	-26576	-4317	-32768	-7136	-32768	3812	26548	3015	-15242	10452	128	141	1
-7380	-7076	14764	-1242	16895	8895	-21244	1028	2064	-479	16909	-4654	-19888	3960	7752	-3126	7775	-1288	-32768	-32768	-24756	25716	-16679	3041	-5200	8252	-31096	11182	-13503	-1274	-21484	-10460	32767	-20667	4180	3190	135	126	1
-7724	-7772	15508	-646	23097	11285	-20880	1768	992	700	19605	-5844	-18296	3284	8116	-2330	8204	-253	-32768	-25856	-24056	7911	2015	-3378	4580	20608	-32768	3072	12217	8104	-25904	-32768	21580	-32768	18299	8297	115	117	1
-8044	-10376	14436	3793	27861	12840	-22256	1412	2948	1779	22369	-5280	-19812	-4248	8048	-5223	8973	3526	-32768	-6228	-8260	-23411	21573	-7935	648	20000	-31912	59	15429	8872	-25696	-32768	17808	-20482	16265	5663	100	125	1
-10268	-12164	11776	4028	32767	18030	-26500	2580	6052	-2643	24037	-6763	-22208	2208	11284	-10112	2714	4451	31484	32767	32767	-13820	14401	15784	-32768	-32768	32767	-15581	24778	2077	-3568	-10392	-444	-14326	-7465	-11174	102	121	1
-9400	-30564	16	-1791	32767	32535	-32768	8728	13316	-17930	26673	-5852	-27236	10952	21560	-12440	-12139	7883	19372	-32500	3972	-8055	32767	-32768	-29980	16912	-7536	-32768	13786	17193	-9832	17796	-32768	21481	15962	11792	142	110	1
-14972	-21084	9852	541	32767	32767	-32768	-3076	18576	-24141	26977	-2800	-25356	12660	5756	-22406	-9855	9220	-32768	23156	32328	-15550	16643	-8567	-18756	10984	-9120	-15307	20579	5262	-32768	25108	32767	-17404	9498	1797	149	134	1
-30836	32767	20860	-24382	32767	32767	-26184	1268	5748	-21984	29895	-5583	-25192	-8992	9112	-28108	-15400	8365	-14324	8296	16292	-20319	9850	-17784	-20040	13108	-8616	-5427	16129	16657	-19132	-27136	4596	1923	14341	9671	147	128	1
-32768	-32768	31652	-14385	25771	32767	-32768	-22988	9368	-15702	27452	2906	-29352	-23432	-16308	-31120	-9466	2770	-15728	12640	11024	-8994	3370	-8683	-12840	1348	-7100	17860	13479	8154	20180	3224	-9480	32767	8476	18438	128	129	1
-25480	-32768	25560	-15009	5211	32767	-24172	-11068	2440	18182	15612	-5945	-27920	-6940	-11512	-6692	-19122	-2214	-11988	2004	21072	-5552	-2389	-9253	-17932	12136	-7480	9202	9680	8601	9068	11728	-5560	32767	11858	16639	138	152	1
-14940	-32768	3072	-7471	-16071	27895	-20404	-3548	-6532	2910	10757	-2674	-32228	-2068	-8968	7391	-22089	-794	-11312	8620	13692	-3521	2796	-3142	-20764	5144	-6948	2584	9148	4255	-23996	11384	-12144	-19971	15505	4083	139	159	1
-1324	-32768	12560	644	-32768	-10829	-14504	-4464	6784	-3484	4204	1741	-31964	5820	-7196	11486	-24207	-920	-9768	7904	12708	-479	2951	-1292	-16556	4992	-4188	3805	7468	3190	-15500	-7160	-4952	-11837	16065	3235	114	161	1
7476	-19796	-1828	11698	-32768	-15920	-11900	4240	5228	599	-6533	1503	-29264	2020	-6080	1886	-26962	-2538	-8864	6128	13036	561	3083	-1922	-17124	5124	-4372	4244	7108	2821	-13440	-1912	-6040	565	17573	1466	123	151	1
6028	-6184	1076	-4385	-26446	-18882	-8580	3260	1408	-4546	-14859	5196	-22504	-2364	-6652	661	-23560	-5683	-8300	8260	12652	748	3511	-3199	-16052	1856	-520	14766	4129	3306	-16572	4464	-2932	2111	18976	5363	133	140	1
936	-14848	5580	-22239	-22744	-24202	-10944	-376	1496	-2581	-21904	7928	-17644	-408	-9620	6168	-20842	-2849	-9456	7464	12248	743	3443	-3511	-16988	7204	-1952	17113	3847	2851	-17588	2036	-1304	7889	18365	6879	140	95	1
-2940	-20576	6460	-17014	-22828	-29981	-9432	-1072	1464	-211	-28227	7162	-15196	-1368	-9672	8028	-20241	-2445	-9228	7152	12284	522	2894	-2981	-16240	6524	-1680	4997	3682	1430	-14976	2112	1128	16793	18802	8317	150	91	1
-3104	-11088	8884	-12876	-21647	-32768	-11224	-796	-320	6754	-32768	6694	-11452	-3124	-9764	8476	-18324	-3129	-9536	6808	12092	60	3577	-2845	-16316	2144	-780	7756	3798	1130	-14568	2620	1424	15059	16480	6607	124	111	1
-6336	-10676	12812	-18207	-20639	-32768	-12152	148	-2676	11028	-32768	8766	-8428	-4216	-11948	11809	-15124	-3207	-9716	6976	11868	422	2526	-3713	-14904	3952	-380	12310	3950	2332	-13712	2740	1004	6969	17727	5464	161	116	1
-12208	-18180	17848	-19100	-22681	-32768	-14260	-1232	-3340	13057	-32768	10570	-6228	-4088	-13260	17868	-11941	-2169	-9120	6600	11980	353	1627	-3583	-14668	4524	-28	8602	4797	2066	-13932	-1476	1172	1347	17835	5080	111	115	1
-12744	-18792	18016	-18326	-23110	-32768	-17184	1176	-3904	15868	-32768	12444	-2956	-2540	-14864	26390	-10032	-450	-8732	5920	12296	-35	1698	-3271	-14760	3056	-124	4870	6218	2007	-17140	3420	380	1887	12923	4656	113	128	1
-15560	-15592	20856	-16289	-21191	-32768	-19996	412	-4860	15737	-32768	15039	-260	-5240	-16112	26657	-7996	-1840	-8064	5620	12560	-1136	3658	-3843	-15728	1032	-1696	2303	7021	2326	-18552	4556	-4264	-984	5368	4381	133	121	1
-21876	-21248	25832	-15122	-20795	-32768	-26188	-1748	-5148	15151	-32768	18687	-3376	2492	-15344	17521	-2957	3440	-9220	4976	12916	102	5442	-3599	-16948	376	-2204	4654	8086	2573	-16836	-756	-1580	603	7330	2856	134	128	1
-32768	-27268	32160	-13560	-22367	-32768	-32768	-5280	-6304	12763	-32768	22350	-2864	3608	-11000	10759	33	4899	-9460	5444	13020	658	7305	-3566	-16904	2980	-1016	4365	9154	2936	-17080	92	1404	2812	9498	1378	136	124	1
-32768	-14176	32767	-12223	-22637	-32768	-32768	-7608	-9524	1358	-32768	22505	-6444	1728	56	11363	-3291	3493	-9760	7400	13060	498	9431	-3880	-18448	2980	1488	2531	11092	2942	-21540	1644	3916	1605	9011	2593	124	120	1
-32768	-8048	22416	-14742	-26594	-32768	-32768	-21680	-14776	4988	-32768	18486	-23128	-660	15024	6587	-17249	-3220	-10164	7212	13732	197	11927	-4899	-18268	3204	1868	1182	13791	3659	-21356	784	8492	3160	8529	3887	113	117	1
-32768	21348	4444	-11132	-20290	-23911	-25600	-11444	-29436	-591	-31145	8427	-32768	-88	32767	6530	-20449	-11524	-10620	8048	14108	-400	16214	-6589	-22640	2176	1084	799	16166	4007	-22140	-2424	6336	5341	7995	3412	125	113	1
-32768	32767	1448	-20124	-9487	-5769	-11776	-15576	-32768	-16508	-12010	-1457	-11476	21608	32767	9293	4916	-2116	-10064	6296	15244	-445	21502	-8547	-21540	1072	60	108	18500	4040	-20044	364	4092	7593	8474	1431	119	121	1
-32768	32767	-2132	-3199	-3572	8234	-9820	-21600	-32768	-3631	10375	-6914	-15292	24300	24952	18075	17844	-5136	-10544	6184	14964	1419	28539	-10149	-23256	-172	900	-350	20645	3371	-22924	4136	3984	9052	7835	-285	127	121	1
-32768	16484	3072	9969	9316	14720	-15916	-14688	-29792	14479	24139	-12242	-19880	3184	9904	-9349	-2237	8200	-10220	7108	12928	4908	32767	-13661	-24900	-2300	2672	3026	21947	4544	-23368	-192	6164	10918	4906	-1020	120	126	1
2276	-27416	12876	32767	27298	6675	-24344	3816	8940	25282	29254	-17130	-10096	-3616	14012	10573	-4798	2833	-9568	6980	12516	11810	32767	-18701	-26696	-8248	5888	12218	22400	5278	-22332	-5780	11020	17354	434	-2780	124	117	1
32767	-6344	7500	12495	31390	17326	-32768	32767	32767	32767	1159	1654	9316	-31056	-32768	-26311	25042	-23318	-15628	7872	17016	14393	32767	-25603	-32768	-11552	11980	25051	22238	1972	-25756	-11624	15044	16886	-9504	-6859	125	125	1
-32768	12004	32767	23028	32767	19701	-13324	-21768	-32768	8752	13909	-19112	-32768	-2224	21808	32767	-16063	7911	-32768	19308	4716	6919	32767	-32768	-26896	17720	1212	15229	24799	4244	-26056	-10908	25984	-5405	-22909	-13591	130	130	1
1236	-21824	128	12388	13422	6646	-32768	2856	-1028	4832	17734	-18971	-31852	32767	-6276	18965	19295	-12336	-32768	26048	18084	14052	32767	-32768	-32768	15328	4304	-5271	29080	-437	-23848	17688	-4704	29067	-14374	-637	136	140	1
-14516	1888	22800	7236	4555	3211	-9936	-5456	-3228	5424	16431	-12688	9844	1992	-17392	-32768	13234	-11531	-32768	31972	19428	11939	21129	-32768	-26292	15564	1468	-14601	22748	7635	-29356	19248	-15908	22227	-14428	-695	106	154	1
-9836	-16656	10720	10493	867	4221	-17472	-3936	-4640	-9996	12251	-10250	-4400	-11136	-23256	-31854	-8524	-160	-32768	27692	18492	11444	18873	-32768	-22028	8104	-8472	-15557	17389	5634	-25984	15260	-14416	19330	-15007	-809	82	145	1
-6308	-4168	16116	4939	95	3712	-19728	524	-2048	-14396	10792	-5868	-23004	-32768	-5412	2894	24025	-4517	-18608	32767	19912	5843	-21669	-13649	-20972	3852	-7620	7899	8859	5457	-31744	-4328	-12496	-2636	-31345	-1367	133	137	1
-6948	-7584	14224	2869	709	1758	-19788	-7460	-2324	-9575	8828	-4553	-25844	4876	-9680	18186	16080	-2693	-8464	32767	13564	-769	-31678	4065	-12888	4616	-500	18038	-905	5691	-29064	-4704	-9144	1815	-31770	-2053	95	140	1
-6512	-7552	13232	1177	1070	1379	-17660	-4276	-1088	2445	6161	-5323	-12364	4892	-1772	3496	11782	-7782	804	14964	7764	-1290	-32768	12086	-8248	2392	-304	16157	-8919	4859	-24572	-2368	-8524	4230	-30569	1427	124	125	1
-6352	-6340	13528	51	1314	1033	-18408	2796	-92	306	5556	-3270	-12008	1460	-2576	-3619	15753	-3347	2664	8164	5948	9576	-30453	18599	-5908	3476	-1160	9340	-15778	2165	-18340	1756	-8332	1141	-24821	4309	151	79	1
-5864	-7624	13100	-999	1643	1318	-16592	-776	2412	-7896	5521	-2838	-18164	-60	-3060	-3300	16665	-1999	-1152	11092	7312	15735	-27758	22840	-6792	3824	-1340	984	-22428	750	-13888	2316	-9656	-3343	-20433	4440	182	72	1
-6312	-9384	11972	-485	811	3384	-15560	-852	3624	-16734	5582	-2444	-18468	-432	856	-10582	15686	-5172	-5248	12412	10692	12147	-28628	26107	-7680	2444	-2708	-5130	-28182	-131	-12260	1672	-9328	-5294	-19053	941	90	107	1
-6380	-7628	13048	-840	398	3855	-18380	-3452	1048	-13722	5672	-3037	-14800	-2368	1536	-16084	17735	-5667	-8004	6804	13524	9097	-30730	29773	-8880	372	-4064	-8205	-32286	-2311	-8560	1816	-8652	-4847	-17312	-65	131	107	1
-6592	-6868	13360	-2419	524	2937	-16860	-2200	496	-1366	4907	-3743	-14664	-4092	2512	-10389	18758	-4070	-9588	4348	15632	10821	-31041	32767	-10544	-1400	-4476	-9032	-32768	-4588	-6604	1276	-8968	-6640	-13754	870	108	108	1
-7340	-7312	12448	-2217	505	3188	-15420	-792	2172	-5758	5775	-1822	-15644	-2696	2332	-8136	17518	-3012	-12632	5804	17440	10152	-32768	32767	-11468	124	-5596	-11060	-32768	-6875	-6348	2132	-10540	-10674	-10124	525	126	123	1
-6188	-8228	12104	-1495	-125	4446	-15716	-2296	2580	-6455	6485	-2952	-14436	-108	1636	-8237	15448	-4997	-15384	5928	19572	7719	-32768	32767	-14148	-404	-7764	-16174	-32768	-9814	-5156	2208	-12124	-14647	-7655	-729	130	129	1
-6708	-7816	12116	-1267	-902	5649	-16228	-2192	2420	-6569	7436	-3197	-14188	204	2036	-8025	15329	-5410	-19196	7748	23992	8408	-32768	32767	-17304	-1316	-10256	-16858	-32768	-14457	-3640	3196	-14064	-16585	-5420	-1544	127	133	1
-5716	-6796	13040	-1568	-1630	6365	-16144	-1964	2216	-6315	7575	-3367	-16584	1724	1996	-1725	8286	-7000	-23984	12912	28696	7828	-32768	32767	-24140	-240	-11244	-11167	-32768	-18760	-3032	2076	-13808	-14295	-2625	-2087	117	140	1
-6856	-6256	12832	-2453	-1076	6063	-16300	-1160	552	-5536	10023	-3615	-15692	-3564	588	-8817	4702	-5318	-32124	8432	30656	4024	-32768	32767	-28068	-508	-13152	-3684	-32768	-20644	-4236	1576	-9588	-14008	-2455	-2029	109	139	1
-6452	-6116	14036	1312	3560	7314	-19480	-1084	-912	-4154	11224	-3767	-19568	-8880	1888	-6055	8146	-2737	-32768	-604	29332	9308	-32768	32767	-30540	11560	-15956	4334	-32768	-21595	-7704	2972	-836	-14189	-6292	490	118	133	1
-6160	-6740	13964	1116	8093	7949	-20376	60	492	-2928	12457	-3532	-18740	-5924	3668	-2142	10662	-2278	-32768	6084	16324	4174	-32768	24738	-32412	17452	-18212	-6030	-32768	-16671	-21720	464	12788	4282	-20189	3359	131	136	1
-6560	-6064	15004	965	12149	8640	-19752	1364	1232	-1547	15268	-4733	-19624	4992	6388	-507	8987	-3148	-32768	-17596	-8568	7277	-32768	8751	-19488	10244	-31456	-4167	-30040	-6865	-31332	3164	25104	3398	-7608	3576	134	131	1
-7024	-7436	15596	1587	17586	10367	-21956	2156	1584	35	18042	-5693	-20112	5816	9228	-1520	8844	-1083	-32768	-32768	-19708	24728	-15353	2588	-5144	8452	-31856	12401	-10683	-1347	-16124	-18124	32767	-26224	6546	-2522	132	120	1
-7480	-5492	15692	3638	23097	12337	-22044	2068	636	77	21236	-6038	-19872	632	9360	-3928	9949	1858	-32768	-21020	-19948	2324	581	-2640	-2340	20192	-30640	4989	10216	7478	-22596	-32768	15460	-27815	12773	3119	135	103	1
-8860	-8024	15700	8645	28103	15334	-24568	1556	3664	839	24001	-6316	-20432	-992	9188	-5865	7949	3638	-32768	6396	-10252	-18686	28626	-8144	-9580	13776	-27144	-12773	26153	11186	-14636	-13884	6532	15827	2776	-7742	133	123	1
-9472	-7792	6976	4872	32767	23794	-28252	1904	6420	-2674	25593	-7197	-21956	3172	15972	-10879	1672	4755	23084	27036	32767	-12066	21970	9430	-32768	-29352	32767	-22481	21485	135	9500	-4844	-12232	14072	7309	-7978	137	117	1
-9900	-12104	13884	6017	32767	29723	-32768	11148	18664	-22050	29302	-7851	-26688	11716	22560	-518	-15842	11414	-1088	-7604	14656	-13846	32767	-32768	-32768	24368	-32768	-32768	19607	22415	-32768	20468	9040	-14787	-11748	20338	142	147	1
-20812	-21032	18052	4637	32767	32767	-32768	-7036	16012	-23152	27593	-3403	-31824	7704	6948	-24738	-14137	11239	-32768	27488	12304	-20875	16882	-402	-21616	11760	-11928	-4661	22960	8769	-32768	1900	-19520	-20856	17275	3506	149	141	1
-32768	8108	28752	-21491	32767	32767	-31232	-5448	9056	-24854	31522	-3306	-29396	-18496	5232	-32768	-13141	9683	-17244	-5448	24172	-14009	6921	-15970	-10556	1280	-12268	2077	16595	17869	1232	-10488	-32072	15940	9149	11711	134	125	1
-32768	-32768	31364	-10850	18026	32767	-32768	-23696	9268	-11013	23728	361	-26768	-18784	-18356	-23848	-13332	998	-9228	13028	12092	-8189	951	-7692	-12656	10404	-5084	29080	12872	9315	-1052	9320	-15052	32767	7618	9669	122	134	1
-22092	-32768	29036	5474	2870	32767	-19248	-6544	-6880	16245	12035	-5259	-29952	-3108	-11756	-266	-19352	-3719	-9388	8516	14280	-1899	1315	-6808	-24428	6540	-7584	6996	9990	7577	-31676	32767	-11580	2351	11838	1809	121	139	1
-32768	-32768	32767	-264	-21936	17745	-21564	-6500	-7568	-9175	9693	569	-31996	1824	-9408	7339	-24549	-2903	-9164	2612	14496	-1313	2548	-2512	-16676	8092	-7276	1268	9856	3680	-22692	6692	-8264	-17562	14094	8605	121	158	1
4928	-32768	-2272	1458	-32768	-13785	-13476	2304	5592	-3069	2610	1302	-30324	5168	-5488	4476	-22408	-1885	-8996	6824	13388	-530	2593	-1966	-17260	5168	-4888	1422	7466	3069	-14412	-3256	-7644	-7876	15258	2513	118	184	1
9184	-12896	-5144	8666	-20937	-17939	-9952	2264	2784	-5437	-7321	4369	-29016	-2108	-9056	134	-26383	-3463	-8364	7536	13092	462	2830	-2146	-16768	4372	-2128	7178	5239	1938	-14468	3456	-4024	-378	17047	1718	134	151	1
2800	-6248	1544	-10712	-14375	-21441	-7356	-1604	-676	-6555	-15215	5636	-19248	-4084	-9756	6179	-21870	-6740	-8932	7460	12512	719	2548	-2974	-15988	3856	-2164	13382	3940	2543	-18500	5292	-4464	-668	18319	5222	131	125	1
-4320	-18652	5388	-19191	-14774	-27278	-8368	-5604	-52	3308	-22753	4657	-15936	-804	-10724	10784	-20180	-4275	-8824	5924	13336	1339	2865	-3254	-17640	4308	-3012	9172	3129	2472	-16308	-3116	-3968	1292	17408	6801	149	97	1
-6060	-17928	7164	-11246	-17899	-32539	-7096	-3348	-60	10268	-28702	3201	-13164	80	-9692	11772	-18596	-4687	-8564	6140	13108	1242	4101	-2641	-16560	3108	-2672	7049	3155	1509	-15124	-3572	800	13345	17596	6954	141	87	1
-5144	-8964	9064	-11995	-19423	-32768	-9372	-1460	-1376	16790	-32768	3506	-11208	-1716	-10236	10079	-17376	-5407	-9340	6740	12020	1295	3562	-2523	-15676	4736	-1268	10649	2826	1640	-13764	2560	4124	19055	17299	6813	134	86	1
-6924	-12064	11476	-16942	-19403	-32768	-11340	380	-2180	17945	-32768	6551	-8996	-5328	-12208	12972	-15495	-6562	-9496	7856	11368	1257	1712	-3580	-13920	6244	420	13269	3070	2049	-13400	3848	2848	15632	17380	6428	133	104	1
-10936	-16300	14604	-14185	-19926	-32768	-12724	-904	-3604	20991	-32768	9919	-6068	-5568	-13636	18694	-13199	-5269	-10008	8064	11676	435	311	-4233	-13496	6732	524	9465	3909	1719	-10888	2276	1084	11763	16435	5472	92	118	1
-14788	-15292	17700	-12409	-20875	-32768	-13692	-404	-4712	22723	-32768	13945	-3160	-6000	-16812	29883	-11876	-4426	-8948	5892	12088	-154	485	-4953	-15316	2684	-544	5748	5123	1417	-15096	3168	1360	2785	17209	6485	110	112	1
-19012	-17232	20424	-12384	-22132	-32768	-17564	-1796	-5404	21744	-32768	17553	-120	-6472	-19660	32767	-9574	-8123	-7816	4544	12868	-789	2173	-5009	-15672	644	-808	6033	6726	2243	-20208	6620	-2148	1826	9206	4758	133	126	1
-25160	-22668	24380	-9579	-24125	-32768	-23728	-4216	-6200	23217	-32768	21873	-2076	-552	-18092	27038	-4395	-245	-8044	4936	13444	144	3618	-4675	-16100	1376	-628	5011	8474	2181	-18136	1372	1044	1843	5686	1481	144	132	1
-26568	-23884	25416	-8881	-24500	-32768	-32768	-6528	-6728	21907	-32768	25640	-2864	3916	-13432	18093	1205	4188	-9112	6132	13820	571	5926	-4322	-16560	1728	-776	4411	8722	2252	-20328	1096	4064	-158	8291	-1509	137	136	1
-32768	-12448	30956	-8784	-26341	-32768	-32768	-10928	-7928	9206	-32768	27600	-4944	4100	-1456	14643	-32	1737	-10140	7384	13136	515	8529	-4612	-18324	1552	872	3282	12062	3697	-21248	628	5936	772	10617	719	132	132	1
-32768	-5472	18772	-11922	-28998	-32768	-32768	-20412	-17364	11981	-32768	18739	-18268	4824	8176	6315	-7387	-4683	-9488	6708	14244	196	10815	-5335	-17056	3712	1340	647	14715	4207	-19284	-4480	7516	1165	8461	5126	115	121	1
-32768	21404	5160	-13870	-20157	-23867	-24356	-6744	-29028	-2086	-30600	7679	-32768	3740	32767	14657	-12590	-3399	-9776	7044	14200	-72	11366	-5446	-21776	968	-32	-343	17187	4935	-19572	-6192	7036	1164	7384	5654	116	100	1
-32768	32767	6988	-21836	-9734	-5939	-11988	-17932	-32768	-18916	-12333	-257	-17336	27736	32767	22939	9789	5931	-9812	5200	16144	-684	20582	-7643	-20824	228	-1316	-291	19820	5248	-18900	1352	6584	9462	8927	1986	118	118	1
-32768	32767	1304	-787	-7903	9558	-9256	-20836	-32768	-18000	-8744	-441	-15228	31596	27820	8377	9031	-4433	-10648	7096	15564	-630	26818	-8833	-22220	1280	1200	-549	22320	5390	-22020	8468	6512	10703	9162	-37	110	119	1
-32768	19112	1792	6608	3440	19919	-14100	-12060	-29056	6130	22847	-11160	-18004	9492	9472	-22548	2101	3952	-11616	11748	13708	1971	32767	-13895	-25344	1268	3508	1919	24115	7308	-23144	1764	7372	9566	4035	-1087	125	126	1
19424	-24844	20540	30462	19253	12815	-25928	11640	26800	22423	26934	-15455	-1252	16692	-2468	18979	4690	9009	-10560	9840	14516	6293	32767	-21615	-28784	-3184	2312	8445	24220	9512	-21992	-6056	14860	15865	-4475	-2917	117	127	1
24680	-14284	7792	-5426	32767	30734	-32768	21316	11588	28288	-773	3933	-18804	-15940	-32768	-16741	10923	-11169	-12024	11700	19512	12835	32767	-29419	-32768	-12192	14348	32746	25190	4833	-30952	-11152	15088	12123	-15309	-10995	176	128	1
-32768	-16124	32767	29283	32767	19049	-15368	-19296	-18680	4491	19881	-26348	-32768	6344	29696	22742	4319	6198	-32768	12696	9484	11502	32767	-32768	-28332	9436	-4108	23856	24445	5754	-22456	-8116	5656	19983	-13421	-9642	149	122	1
-28460	-11588	19256	15323	6502	11110	-21364	-5888	-7144	3791	16645	-9970	-12248	8388	-12640	-6359	16216	-14357	-32768	18940	20836	27583	32767	-32768	-30788	17536	2144	18872	29101	1237	-29536	20816	-2780	32767	-17631	-2707	130	135	1
-12380	-8448	13364	11751	3826	3359	-11140	-5128	-5756	-1833	15799	-13373	4348	-10248	-32768	-32768	-6147	-9348	-32768	28700	19712	23408	22159	-32768	-26600	21924	2840	-11048	20638	6644	-27216	17672	-19628	25795	-13481	-482	100	141	1
-8588	-9272	13964	8867	154	2813	-18268	-4976	-3484	-7731	11508	-8713	-16320	-32768	-1988	-6024	11865	4737	-32768	32767	13016	-4242	16528	-32768	-18976	10020	-11000	-20257	15982	5066	-31344	24	-15076	3923	-25213	672	82	135	1
-6696	-7524	14180	4865	168	2066	-21124	-1364	340	-10201	10597	-4603	-28368	-8636	-10344	23646	15941	-3574	-14824	32767	20144	-7237	-23587	-19353	-18984	4004	-10412	2960	7158	3801	-32652	1252	-10256	-9471	-32768	1488	114	166	1
-7512	-6344	14080	2198	87	1347	-19088	-4144	-1252	-43	8330	-5198	-18388	8084	-2560	13196	11669	-10765	-3408	24436	11800	-5887	-31822	3068	-10168	-2176	-1368	18582	-1558	2676	-28204	-4448	-7236	-5489	-32768	341	80	127	1
-7144	-5720	14468	1836	271	1409	-18100	-1276	-744	2144	6496	-4620	-11708	3384	-2540	1487	13188	-5270	3980	8968	4912	809	-28938	9811	-5728	844	520	17334	-9305	1025	-23284	-3232	-6636	-1397	-29817	3473	122	140	1
-6520	-7340	12956	-855	814	825	-17064	-8	40	-962	5839	-3297	-12676	-2240	-4832	-325	14141	-794	2692	8604	4200	10188	-25596	13276	-6304	5004	-1436	7472	-15688	540	-15196	-960	-8092	-2000	-24376	4052	180	33	1
-6784	-7524	12496	-379	1129	1567	-17000	-1668	2228	-4458	5369	-2817	-20316	-1912	-4428	2747	15082	-3975	-3024	12164	6696	12775	-24650	18503	-5104	3960	-3184	-4990	-21708	-498	-12780	2076	-8804	-3380	-20113	3249	145	113	1
-6492	-8472	11616	-170	612	3109	-16108	368	1808	-12004	5299	-3106	-16880	4368	-864	-7384	15616	-7184	-5044	12252	9160	9965	-24898	25247	-6292	628	-3720	-9965	-26767	-1504	-11156	2200	-8700	-4127	-17762	1631	125	116	1
-7164	-6412	12948	-1081	293	2321	-17416	-2760	-600	-10270	5456	-3391	-14012	1900	-2344	-16582	17328	-5515	-7212	8424	11996	8781	-26088	32429	-7636	64	-4132	-10389	-31297	-3379	-9240	1576	-8428	-6291	-16195	1029	135	107	1
-6164	-6492	13304	-1769	1071	1534	-17080	-1376	-496	-3181	4639	-3729	-14604	-2152	2576	-14308	17253	-3742	-9872	5396	15392	10296	-27890	32767	-9028	392	-4380	-11567	-32768	-5059	-7640	1900	-8988	-10998	-13085	1158	108	93	1
-6912	-7920	12044	-1994	875	1984	-15548	-2148	3204	-9073	5626	-2385	-15484	-4164	384	-12285	14259	-3736	-10528	5300	15780	10668	-28309	32767	-10320	1996	-5408	-14433	-32768	-7876	-6464	3512	-10900	-16662	-9569	233	133	121	1
-6840	-8576	12040	-1327	52	4556	-14788	-3840	3424	-7114	4863	-2229	-15972	-3740	2604	-9239	14156	-4998	-16640	5472	19044	7773	-32768	32767	-13088	1784	-6856	-19471	-32768	-10381	-4540	3004	-12928	-21490	-6526	-1730	136	130	1
-8516	-7028	12080	-1596	-1294	5816	-18356	-3908	3212	-7035	6153	-3013	-16000	-2084	3808	833	12559	-7773	-18964	5956	21760	9572	-32768	32767	-15872	-412	-8880	-20160	-32768	-15382	-4124	2896	-14708	-22502	-3777	-2898	141	135	1
-6748	-7272	12280	-1066	-642	6132	-15500	-704	548	-6311	7062	-2796	-16788	116	-2560	-7579	4938	-7435	-24920	11984	27440	10748	-32768	32767	-22276	548	-11584	-13969	-32768	-19700	-3736	1236	-14948	-16709	183	-2715	128	141	1
-7272	-7328	12584	-298	864	6548	-16908	-1376	100	-6872	8215	-3368	-16588	-4628	1904	-8549	5831	-4474	-31196	14848	29940	6454	-32768	32767	-30476	844	-13608	-9521	-32768	-23093	-4396	-672	-12104	-8594	4852	-2424	127	136	1
-6236	-5896	14140	2551	4889	7433	-16472	1696	-676	-5304	9249	-3862	-18736	-5024	2488	-4331	8096	-3038	-32768	3528	31792	8970	-32768	32767	-32768	7424	-15136	5321	-32768	-24136	-8612	1540	-3492	-9289	563	-1828	118	139	1
-6664	-7600	13928	1545	7706	7701	-19160	600	1192	-4069	10890	-3842	-18880	-1744	4832	-2454	10388	-3186	-32768	5828	19512	6876	-32768	32289	-32768	25336	-17564	-143	-32768	-16422	-17232	2408	8552	3439	-14292	4730	137	126	1
-7648	-6696	14708	1146	11385	8140	-18632	740	1972	-1915	13994	-4882	-20176	2064	8836	-2073	10380	-2214	-32768	-19848	-10352	8490	-32768	12225	-22696	9996	-30044	-11081	-32013	-6479	-32768	7072	27096	2044	-12377	7712	132	137	1
-7988	-8336	14460	1456	16428	9888	-21612	1340	2880	-518	17061	-5537	-21168	4964	10348	-2759	8244	-1516	-32768	-32768	-22560	25483	-12459	5259	-3936	8040	-32768	11854	-10504	-2301	-19440	-18460	32767	-30351	2290	-1688	131	130	1
-7732	-6180	15816	3029	21515	12399	-21024	2184	1284	-106	20169	-6808	-18984	1788	10408	-4002	8317	-36	-32768	-23024	-22584	-3009	2001	-2667	-112	21808	-32160	1655	13113	7771	-23752	-32768	13556	-32298	13966	7487	131	107	1
-8784	-7936	15388	5693	27583	15364	-23612	1920	3448	1170	23171	-6797	-19888	-2504	9060	-6108	7867	4064	-32768	-8988	-3940	-21232	22600	-8094	-12188	13312	-25616	-19608	28438	12373	-13268	-14980	7288	19908	2138	-8910	130	107	1
-9320	-11460	14340	7120	32767	22048	-28700	3448	6940	-2704	24822	-8103	-22760	1732	12696	-9742	2493	5082	32767	16516	32767	-7197	27962	3018	-32768	-32768	32767	-31138	12065	2334	-6352	-4796	-2736	2911	-4095	-10176	135	116	1
-9460	-9508	16824	3352	32767	28641	-32768	9064	12908	-15409	27328	-8325	-30452	4528	21968	-9926	-11749	8492	-32768	-9468	32767	-13392	32767	-32768	-11184	11720	-32768	-32768	25182	16587	-32768	18592	8624	-16705	-9221	12721	131	127	1
-19048	-32148	15740	5380	32767	32767	-32768	11000	19320	-19524	28298	-7133	-32768	4840	21584	-3862	-15445	9679	13404	20080	12460	-11262	9968	-11936	-29896	5928	-5732	-3976	18497	18480	-27484	10880	-19936	-10891	21237	18330	142	133	1
-32768	1972	27224	-17232	32767	32767	-27840	-4000	7760	-23680	30439	-4222	-29032	-7444	3596	-25146	-17022	8615	-29092	7044	17872	-11220	4099	-12549	-7872	7456	-15184	8853	14946	11718	5272	-9972	-22160	23065	3349	16461	133	126	1
-32768	-32768	28372	-14433	18977	32767	-32768	-21640	9636	-14968	22824	6	-28520	-13800	-16424	-27913	-14254	2897	-6612	10012	13004	-7300	86	-7119	-17588	10692	-4032	20856	10810	9208	-12880	23320	-11928	27686	11773	5984	121	129	1
-21664	-24452	28076	-1475	2552	32767	-21640	-4620	-3624	13485	11486	-7309	-30716	-1840	-11156	-12272	-19206	-2508	-10308	4112	16052	-4755	1169	-6890	-21432	7520	-5316	2582	9696	5844	-27156	28764	-9136	-11380	12882	6271	138	157	1
-32768	-32768	32767	-4122	-20692	18669	-19736	-4804	-7852	-13278	8183	-1161	-29536	2312	-10240	204	-23118	-3015	-9760	3892	16220	-4217	1129	-5969	-16468	4232	-5548	-1885	8528	3395	-18060	-2608	-4376	-18591	13985	5375	137	185	1
960	-32768	2764	-1570	-32768	-15635	-13340	1452	6268	-5889	1792	-1239	-29264	6052	-6324	2889	-23163	-1670	-8116	6328	13712	-947	2108	-2590	-16144	3768	-5812	-1090	8342	3505	-12152	-6172	-4620	-5159	15808	1823	109	161	1
8572	-13980	-2640	5613	-24160	-20053	-10124	2444	3696	-5657	-8217	1012	-26460	-712	-6916	-796	-26905	-2518	-8304	7540	13168	558	2488	-2858	-16296	3132	-988	11735	5674	2694	-15860	2876	-2932	1817	14777	1964	110	143	1
4308	-4416	1924	-14512	-16355	-22913	-8428	392	556	-6810	-16302	2913	-19888	-2684	-8004	3842	-21864	-6000	-8872	6916	12856	272	2604	-3593	-16576	4204	-1852	15109	5078	3150	-17140	3776	-2560	206	15032	4633	125	158	1
-1956	-17756	7084	-23440	-15286	-27349	-9976	-2732	372	1849	-23281	3702	-16836	-1148	-9640	6448	-21214	-3437	-8468	6168	13044	293	3015	-3405	-16476	6192	-2164	9121	5085	1984	-16328	-188	-1392	5430	16301	5923	146	92	1
-4828	-18316	10412	-14816	-18134	-32768	-8936	-2368	-288	9120	-29304	2224	-13252	-420	-9660	7445	-19498	-4110	-8888	6680	12816	40	3198	-2857	-16404	3744	-2372	3445	4791	1221	-14760	-144	1152	13523	17380	7764	142	83	1
-4288	-8400	12388	-13791	-20027	-32768	-10732	1784	-1744	14224	-32768	3771	-11868	-3292	-10428	6537	-17515	-5092	-8948	6160	12236	242	3405	-3052	-15864	2660	-2012	8927	4383	1451	-14624	2024	2696	17089	18583	6590	138	99	1
-5884	-9276	14884	-19040	-20391	-32768	-11948	3000	-3388	15488	-32768	6670	-8804	-3172	-11904	9864	-15012	-4630	-9312	6936	12136	324	2119	-3850	-15124	4948	-1160	10765	4263	1899	-13916	1300	1492	15828	19712	5682	125	99	1
-9420	-13680	18156	-18260	-21696	-32768	-13416	3912	-3460	14035	-32768	9498	-6556	-2056	-13184	15871	-12600	-2304	-9228	6920	12640	-122	1295	-4028	-14784	4200	-516	8972	5015	1931	-12568	-124	-180	9561	18663	4599	111	121	1
-11356	-11980	19660	-16117	-21915	-32768	-15932	3044	-4632	13589	-32768	12392	-3260	-2492	-14736	23233	-10389	-942	-8980	5540	12776	-91	1219	-4297	-15108	2380	-1000	6428	5865	1936	-14844	1616	-944	625	16281	4383	114	111	1
-15536	-14772	23492	-16895	-22390	-32768	-19288	824	-5216	12127	-32768	16436	-1260	-3704	-16552	25397	-7229	-3394	-8952	4908	12792	-61	2496	-4422	-15716	2024	-1808	5018	7016	1886	-17408	4960	-5380	75	8001	4092	121	123	1
-20224	-19376	27236	-16470	-23834	-32768	-26196	-400	-4980	9780	-32768	18371	-2508	-492	-16596	18878	-3505	2331	-9296	6072	13864	-360	4486	-4564	-16944	1724	-3000	3036	7754	2065	-16680	2040	-1820	99	6648	2585	146	125	1
-29616	-26720	32184	-14958	-25084	-32768	-32768	-5256	-6396	9871	-32768	21791	-3428	1204	-13376	14178	1521	3368	-9064	5172	13804	44	6950	-4283	-18452	2128	-2736	2554	8542	1886	-18228	3612	96	1305	10495	395	150	129	1
-32768	-16184	32767	-14039	-24331	-32768	-32768	-6588	-9208	1303	-32768	23309	-6680	596	-1468	13805	-58	2692	-9820	7208	13592	-180	9439	-4672	-19120	3124	308	3060	10170	2404	-22912	3612	4012	-175	11911	677	129	130	1
-32768	-12120	23472	-12718	-29103	-32768	-32768	-23676	-15744	7830	-32768	18327	-25128	-828	16736	4192	-15869	-2906	-9508	7392	14760	-1059	11757	-5454	-18620	6984	3056	418	13068	2637	-22412	-108	9296	-692	9135	3495	115	124	1
-32768	23904	188	-12650	-21883	-26891	-22400	-9176	-30792	2421	-29374	6534	-32768	-280	32767	13100	-14044	-15019	-10192	9076	15208	-1567	15694	-7170	-18272	4520	2336	474	13872	3155	-21416	-6856	8104	2782	7576	3809	139	111	1
-32768	32767	-968	-15140	-7840	-8110	-12060	-17684	-32768	-10564	-10503	-1482	-6968	20748	32767	19463	11423	1542	-9764	4984	15776	-2591	20511	-8813	-20464	664	-468	-458	18946	3617	-18400	-3168	5512	6359	7933	1451	150	115	1
-32768	32767	-3416	1776	124	7019	-9304	-21520	-32768	3814	11238	-6903	-16512	32767	24528	20788	13750	446	-9596	5528	15400	-3005	26813	-10150	-22512	1116	1128	-2146	21272	3417	-22132	3500	4812	8989	8283	-456	127	123	1
-32768	10064	1392	31637	25314	15296	-15752	-9816	-30244	19756	25684	-15136	-19964	29052	20784	16135	12445	2039	-12848	9148	13736	-840	32767	-14954	-24200	132	4032	871	23275	4703	-23556	1964	7480	10364	3966	-1303	130	125	1
32767	-32768	32767	32767	32767	10855	-32768	32767	32767	32767	17809	-12984	1092	-3368	-19220	-8607	7229	2718	-10380	10036	15176	1806	32767	-22020	-27940	-1472	6036	6652	24042	5578	-24512	-256	14264	12298	-2563	-3134	118	128	1
32767	-32768	32767	23005	32767	16350	-17916	-14940	-31432	17742	6178	-3431	-32768	-14092	-1684	12996	320	-9206	-16188	12948	16472	6646	32767	-31747	-32768	-9612	16036	27287	24576	3404	-28816	-3480	15772	9401	-13364	-7919	135	127	1
-18520	-20228	32767	16309	32767	15455	-32768	-9596	-2240	7705	19786	-24663	-28052	7632	4540	10948	13753	4905	-31544	23384	13376	2292	32767	-32768	-28488	13940	-2468	14147	25143	6577	-23048	-11812	16984	-7407	-18905	-12578	123	132	1
-27704	-23456	16876	13083	8203	7532	-16528	-15952	-8152	3866	16813	-7648	-8300	8004	-5592	-23314	10558	-16561	-32768	18252	19028	19124	32767	-32768	-29964	13840	2184	14958	28378	2204	-24332	7868	-3816	22783	-18606	-3181	128	134	1
-11588	-968	19048	13134	3364	4910	-16176	-10620	-7864	-1432	12838	-9735	-2148	-19372	-28188	-32768	-3359	-5939	-31688	24968	18908	12680	21068	-32768	-25788	18880	-116	-9750	21922	6408	-28352	17988	-16936	30536	-13614	-2057	101	144	1
-11364	-11304	13308	7570	955	1244	-20440	-2764	-3960	-3444	9472	-6931	-20012	-32768	-11380	9222	17227	656	-32768	31192	10508	-6867	23181	-32768	-20420	4436	-13096	-17765	18290	2723	-31812	4192	-16140	10460	-22856	3652	91	148	1
-7332	-7220	13788	3947	1070	500	-20756	-1492	-508	-4460	8632	-4294	-26836	-776	-10272	28295	15941	-5653	-16076	32767	18968	-4074	-12395	-6696	-20376	5844	-10528	6406	10014	2762	-32340	-1464	-14452	-8239	-31759	4613	91	143	1
-7108	-5868	14124	2591	1474	167	-17344	-876	-1456	-3228	6625	-4341	-15864	11884	-2800	11567	12647	-9160	-5628	25596	12484	-13011	-16072	10341	-11932	1896	-2564	11902	496	1531	-29732	-2068	-7448	-6006	-32768	404	100	135	1
-6808	-6412	13200	769	1765	147	-17524	836	-688	-4913	5283	-3340	-12676	5484	-2740	-828	14323	-4204	2456	6496	6664	-6754	-16184	15137	-7288	2164	-1396	9621	-6444	588	-24000	-204	-7904	-3823	-31261	2579	106	108	1
-6264	-7212	12616	-16	2241	303	-17640	-1312	1544	-5262	4337	-3003	-15012	316	-3608	-4054	14308	-1171	1640	4656	6072	7618	-15794	16334	-5684	4824	-2588	2108	-13273	-570	-18076	-732	-7704	-5369	-25188	4868	174	93	1
-6464	-7932	12084	-270	1754	939	-16520	-584	2884	-6769	3608	-2812	-17504	-800	-2104	-4832	15985	-3763	-7168	11616	9172	11400	-19680	17489	-3776	5712	-4576	-7720	-18955	-881	-12908	344	-9120	-6800	-21914	2979	172	103	1
-6428	-7908	12008	-273	1671	1126	-16032	-124	3024	-12483	3859	-1897	-15344	684	296	-14386	17403	-6479	-11420	14156	11836	5463	-30837	22066	-3748	4464	-4452	-8419	-24273	-563	-10180	-616	-9932	-7822	-19317	858	166	127	1
-6540	-8736	11512	-302	887	2112	-16912	-2964	3460	-14859	3982	-1365	-14288	-1716	796	-21322	18754	-5793	-5564	5020	9332	4925	-32768	25695	-6740	-1180	-3148	-7712	-29069	-1465	-8028	80	-8312	-6792	-17519	-507	126	114	1
-6764	-7436	12392	262	742	2917	-16696	-1528	2896	-11835	3691	-1218	-14428	-4192	2080	-17820	17869	-5168	-5112	992	9728	12019	-32768	29210	-8124	-4084	-3356	-6350	-32726	-3832	-6900	440	-8200	-8642	-15840	-745	126	126	1
-6676	-6976	12316	239	575	2689	-15460	-1244	4184	-7526	4505	-1770	-15176	-2584	1432	-9604	14670	-4392	-9872	6944	12904	12934	-32768	32216	-7916	436	-4696	-6001	-32768	-5373	-5828	1272	-9980	-11643	-12194	-2338	141	123	1
-7336	-8308	11724	467	-15	3634	-14660	-648	5060	-6562	5476	-2002	-16692	408	8692	3118	13687	-4595	-10656	7892	13484	12048	-32768	32539	-10396	972	-6000	-9950	-32768	-6585	-4276	1400	-11208	-15133	-8471	-3352	129	122	1
-7748	-7868	11788	423	-1260	4352	-14568	-636	2756	-6982	9155	-931	-18536	-3612	8456	-101	9371	-6571	-13972	3252	17684	12342	-32768	32767	-12140	-1300	-7596	-14021	-32768	-9837	-4296	2104	-12528	-18057	-5130	-4248	132	133	1
-5908	-7500	12368	1010	-743	4318	-15880	-1000	4564	-6712	9182	-1609	-19140	-540	3144	-4487	2121	-7331	-20476	8416	23512	13795	-32768	32767	-16496	1372	-9400	-13209	-32768	-12692	-3732	2052	-13664	-15698	-1925	-4155	120	138	1
-7460	-6868	12892	-701	-1361	5343	-18160	-1556	824	-748	10971	-4867	-16912	-3600	4528	-142	6620	-4113	-24580	11396	28776	11668	-32768	32767	-23716	2052	-11188	-13675	-32768	-16524	-3812	-888	-13036	-5465	2378	-2836	129	143	1
-6528	-6888	13116	-2420	94	5713	-18036	-32	328	-913	12029	-4954	-15328	-2500	52	-186	10345	-2568	-31892	6460	32767	11934	-32768	32767	-29348	-884	-13976	-6262	-32768	-21450	-5508	464	-8948	1655	3619	-886	113	141	1
-7140	-8032	12808	-4320	1318	6380	-18388	-2136	736	-2911	12871	-4720	-16852	-400	-3208	-1359	7808	-3664	-32768	676	32412	15787	-32768	32767	-32768	11468	-16168	7542	-32768	-22106	-12420	5700	516	-1581	190	4342	117	132	1
-7548	-6992	12652	-5468	3843	6125	-17804	-884	384	-1486	14261	-5216	-16536	-1220	2188	-3228	7448	-3384	-32768	840	17420	4567	-32768	25445	-32768	19000	-19876	-6113	-32768	-15420	-25688	6216	20608	9981	-22439	9920	119	131	1
-9412	-5720	15336	653	11909	8469	-19932	316	-64	-882	16618	-5099	-18896	-1892	6768	-4416	8978	-1229	-32768	-32768	-12000	11214	-32768	4134	-17296	11104	-31344	1826	-26523	-5666	-32768	9960	32767	-5887	-3087	8594	134	123	1
-7944	-7560	15008	-338	17662	9864	-21768	2020	432	618	18587	-5627	-19392	1808	4964	-3338	8322	-1119	-32768	-32768	-28452	28107	-13106	-5439	2868	11904	-32176	13928	-1928	3833	-19112	-28468	32767	-23622	13306	7633	134	121	1
-8528	-6420	16100	-45	23498	11517	-20828	1392	28	1371	21226	-6404	-18520	480	6288	-3012	8725	1529	-32768	-16280	-16556	-6503	7575	-9277	-5628	17288	-31364	-2027	20433	9162	-20208	-32768	11828	-14099	13806	-1767	128	104	1
-8668	-9280	15264	3917	28989	14169	-24520	1548	3612	1772	23855	-5929	-20948	-864	9124	-5391	7329	3053	-19744	-17208	8244	-13829	22077	-8279	-18628	8636	-17184	-10802	31642	12337	-10876	-8280	1724	22360	2943	-9562	129	107	1
