#Activity	walking 
#ActivityID	1 
#Date 10-20-15-35
acc_rf_x	acc_rf_y	acc_rf_z	gyro_rf_x	gyro_rf_y	gyro_rf_z	acc_rs_x	acc_rs_y	acc_rs_z	gyro_rs_x	gyro_rs_y	gyro_rs_z	acc_rt_x	acc_rt_y	acc_rt_z	gyro_rt_x	gyro_rt_y	gyro_rt_z	acc_lf_x	acc_lf_y	acc_lf_z	gyro_lf_x	gyro_lf_y	gyro_lf_z	acc_ls_x	acc_ls_y	acc_ls_z	gyro_ls_x	gyro_ls_y	gyro_ls_z	acc_lt_x	acc_lt_y	acc_lt_z	gyro_lt_x	gyro_lt_y	gyro_lt_z	EMG_r	EMG_l	act
-32768	-780	23984	-2983	10095	4931	-32768	-6992	-1720	-4407	4417	-139	-28616	-9400	-11072	-4737	-1018	1007	-23928	-17216	32160	-1386	1544	-1221	-21744	-952	-23176	-2755	2449	-156	-10128	-8032	-14928	2160	1270	-149	121	149	1
-32768	-32768	32767	-3077	8437	5303	-32768	-23248	1592	-2819	3003	-181	-30272	-1016	-12984	-3333	-2280	286	-15224	18240	9712	-416	872	-709	-13488	-9392	-21920	740	2360	507	-944	11744	-18960	1454	1545	-334	143	118	1
-4104	-32768	32767	670	3768	5494	-19016	-20920	-32160	1657	2309	-660	-32768	1736	-6928	-619	-2574	-1455	-8536	6784	13560	-171	511	-434	-16912	3840	-14968	2010	2031	318	-22584	12088	-17712	553	2108	574	126	105	1
-23628	-32768	32767	604	-4726	-1661	-14440	1560	-1600	1111	1466	25	-32768	-6008	-11128	495	-2226	-1698	-8896	5960	13320	-85	404	-330	-18376	9536	-12280	1279	1442	424	-19728	8136	-11976	-74	2164	972	82	105	1
20224	-18044	17236	1553	-5154	-2546	-17688	-7960	1968	828	-920	896	-32768	6200	-16608	1170	-2168	-2068	-7672	6048	13264	-53	297	-307	-18336	2632	-9176	-747	865	-211	-19776	4528	-9304	-840	2454	-200	97	96	1
15436	-8612	14164	307	-4501	-2836	-10224	-328	-3104	2145	-2277	-211	-26528	8136	-17664	474	-3097	-1650	-7176	6760	13224	22	401	-301	-19376	-2128	-6936	-1035	529	-133	-18240	-1696	-6288	-805	2476	-192	116	90	1
5988	-11240	16492	-476	-4744	-3078	-2408	4352	-5152	1363	-3565	386	-19704	6792	-15376	210	-3303	-1266	-7728	6872	13048	-26	552	-321	-18872	-2360	-5552	-16	415	132	-15144	-1024	-3888	-294	2852	489	106	83	1
-4888	-9268	17444	-434	-5362	-3198	-7232	416	-6200	432	-4472	214	-6872	7696	-14112	37	-3187	-1172	-8032	6744	12464	-52	654	-325	-18200	1936	-4600	908	365	142	-15152	-2032	-3968	226	3157	390	102	76	1
-8024	-6104	16716	-637	-6012	-3361	-6464	3248	-5904	195	-5350	90	-1576	3992	-12680	68	-2391	-1126	-7672	8192	11952	-107	688	-374	-16392	2240	-2800	1043	387	167	-15464	-3304	-1880	1347	3378	690	107	78	1
-10056	-4216	17136	-859	-6258	-3465	-6448	512	-6152	42	-5981	-20	-3728	3168	-14208	211	-2015	-980	-7984	6424	12560	-116	709	-438	-17728	1496	-2888	1108	527	147	-15760	-3864	576	1720	2804	611	113	95	1
-11668	-5416	18744	-1012	-6163	-3325	-11496	2952	-8456	131	-6384	-30	-968	5480	-14160	512	-1815	-655	-8320	6288	13088	-10	813	-515	-17184	128	-2144	842	542	120	-11544	-1456	3776	628	2236	448	126	110	1
-20116	-10220	23552	-1111	-6314	-3341	-17680	-776	-10880	223	-6721	-38	1688	3136	-13856	1024	-1582	-383	-9344	5080	11352	42	869	-502	-14416	544	-1632	734	745	53	-13560	-216	-720	440	2739	729	128	115	1
-25740	-13844	26740	-1084	-6446	-3777	-17112	-2704	-12768	1114	-7049	-54	1664	2584	-13344	2166	-1610	-197	-9624	6896	10672	46	840	-505	-13752	2248	-1160	666	911	-3	-20304	4056	-4960	1522	2710	874	128	107	1
-30284	-18296	27352	-929	-6312	-4508	-27760	-4320	-14152	1636	-7239	-31	-752	3216	-9352	2620	-1812	-166	-9880	6072	11240	-23	860	-565	-16552	1968	-1392	883	1195	-26	-22512	2392	-1312	530	1872	712	128	115	1
-32768	-16444	24744	-507	-5226	-5472	-29768	-1896	-18816	1690	-7100	316	-5464	2376	-1256	2467	-2111	-390	-9200	6464	12040	-49	955	-629	-17056	1616	136	908	1449	-154	-17992	864	5600	753	1817	357	127	119	1
-32768	-13688	22752	-119	-4236	-5992	-28736	-2192	-20064	1712	-6980	375	-9064	-272	688	1769	-1775	-485	-9384	5112	13432	-81	1226	-673	-17424	1888	1224	637	1754	-296	-17296	576	7264	796	2104	343	122	113	1
-32768	-2184	1712	669	-4048	-4785	-24400	-11280	-26344	1116	-4725	178	-28704	-920	32767	957	-4049	-1067	-8912	5904	15304	-97	1688	-734	-20696	2104	3944	154	2162	-563	-23872	-3992	6552	392	1729	477	126	122	1
-32768	16468	-21052	-453	-2402	-2268	-8584	-7480	-32768	2095	-2875	-15	-30896	19096	12136	201	-2095	-2034	-9128	6288	15536	-102	1780	-751	-22808	776	4168	-348	2645	-776	-28376	-632	8920	561	1137	162	117	121	1
-32768	15552	-26740	-1483	-1188	-496	4224	-264	-32768	-427	-403	-467	-11976	-56	32767	-910	456	-31	-8328	7552	17416	-172	3115	-1245	-24112	1432	4400	-550	3111	-939	-26544	3232	10552	308	648	-71	120	114	1
-32768	17720	-25260	-1172	153	1091	1624	-4720	-32768	-2339	1963	-740	-17432	2152	5344	-1164	2196	-252	-7048	12512	16832	-73	4108	-1887	-27216	2160	5352	-601	3527	-1047	-29264	88	12144	21	-144	-131	115	111	1
-32768	-3424	-7824	-1359	915	1794	-6264	-11816	-27040	-1081	3876	-1068	-10968	-2536	1480	-1714	2697	-447	-5536	14840	17160	140	5211	-3280	-29352	-2680	7584	-54	3845	-665	-26688	-3656	18808	55	-1130	-495	105	98	1
32767	-6100	32767	3993	4433	2157	-32768	-3928	32767	1120	1301	467	6792	-20488	-15128	-3418	3492	510	-14816	11704	23088	288	7120	-4587	-32768	-2128	12592	1802	3939	-419	-28880	-4000	21400	437	-3453	-298	96	76	1
-32768	26812	32767	1149	5343	2673	-6856	12608	-32768	10257	4371	366	-32768	-17816	1472	5866	-519	-1377	-21176	10960	23528	234	7474	-4694	-32768	5344	-1424	1943	4296	-676	-23192	-8400	5992	1809	-1670	-1091	1	10	1
-13000	-32768	12944	1035	3549	1568	-13144	2600	-13592	327	3981	393	-28864	32767	-10408	6018	1946	-1079	-32768	21672	32767	907	7860	-5087	-32768	14824	-1928	1816	4821	-1162	-32768	9400	-9032	4551	-2301	-529	60	48	1
-21068	23920	28612	611	1296	887	-19752	3176	-18032	1955	3220	-2206	3240	16784	-23880	-2150	59	178	-32768	32767	32767	79	5551	-5584	-32768	14496	-9832	284	3421	-949	-31032	7184	-25968	3512	-2870	342	105	93	1
-17068	-11692	16744	750	692	472	-10496	-4880	-22232	-2034	2495	-928	-13816	3704	-23008	-2185	1331	1323	-32768	29328	32767	-228	247	-2935	-18736	-960	-24920	-1665	2496	-108	-32768	1784	-8408	-208	-4019	1149	166	195	1
-8088	-10300	13532	217	318	230	-18640	-1128	-14336	-3656	1733	-1135	-24280	-6536	-16504	-2237	2022	-1460	6856	32767	24896	217	-4154	229	-18736	2104	-1088	471	646	-617	-32768	-1304	-14808	-897	-3260	556	199	205	1
-8740	-5336	13924	103	211	109	-21320	-11912	-10120	-3003	1127	-985	-20616	-13240	-12008	-935	2009	298	15144	20040	13504	304	-4489	1096	-12800	-440	1184	1378	-1248	236	-26224	-3952	-18016	92	-3040	637	172	192	1
-8364	-4132	14848	-35	292	112	-14504	-10648	-10288	1028	1003	-114	-20176	1848	-7376	611	2367	911	10344	20272	11160	443	-4497	1888	-7184	-280	-2752	1474	-2317	830	-22792	-968	-17368	48	-3176	770	166	192	1
-7824	-4160	14624	-206	387	47	-18744	2072	-6320	1094	873	-17	-16224	376	-3112	377	2446	446	3240	14440	11960	737	-4624	2756	-5552	1168	-4400	1118	-3638	1031	-16376	280	-16584	-672	-3202	183	189	174	1
-7340	-6796	13764	-197	418	89	-18224	-2400	-3936	-719	697	-275	-16288	-4056	-3616	337	2507	196	-4016	11352	12208	1366	-4955	3686	-7048	800	-5624	166	-4503	1416	-8656	-2936	-17408	-933	-2994	136	161	169	1
-7776	-6728	13440	-55	451	188	-13456	-4744	-3928	-1331	490	-351	-17264	1248	-4464	-48	2460	227	-7448	10864	13920	1523	-5419	4187	-6680	-944	-7256	-291	-5226	1664	-5376	-1960	-16272	-901	-2384	258	160	152	1
-8324	-5860	13196	-2	422	230	-14064	-7184	-4440	-1049	445	-316	-15504	536	-2456	-536	2294	311	-9808	5800	17560	1792	-5683	4298	-8784	-2640	-8032	-264	-5892	1868	-3184	112	-14824	-969	-1753	258	128	145	1
-8228	-4828	13708	1	403	248	-14808	-7016	-4128	-896	452	-274	-13640	-3192	-1512	-318	2324	469	-15392	5128	21464	2602	-5870	3941	-13288	-5616	-8904	-148	-6402	2138	-344	776	-14912	-1428	-1298	72	129	136	1
-8100	-4336	13880	-69	433	262	-15296	-3656	-3704	132	552	22	-13224	-2072	776	11	2301	450	-22712	7808	25632	2860	-6199	3474	-15504	-7152	-11392	283	-6591	2320	2168	1096	-15736	-2020	-981	-176	148	131	1
-7940	-5496	13776	-77	532	297	-15904	-1336	-3184	-292	612	-40	-15464	2616	4200	-222	2233	439	-24432	11704	26840	2737	-6185	3732	-18424	-5312	-12296	687	-6688	2207	1520	352	-13256	-1435	-866	-326	140	131	1
-8636	-6032	13072	-89	598	396	-16792	-1112	-3592	-1070	680	-230	-16400	4600	5664	-1154	2659	504	-30528	15384	29568	2394	-5437	4374	-30360	-2824	-16992	541	-6929	2406	-2072	1664	-5872	-786	-1296	-103	88	127	1
-8888	-5536	12672	-84	605	475	-15024	-1704	96	-1728	781	-286	-14712	856	4792	-1900	2633	404	-32768	16632	25440	2166	-4853	4802	-28712	512	-17176	-276	-6588	2469	-5496	1424	-2776	-603	-1198	181	94	129	1
-8508	-6904	12928	3	643	531	-12784	-6000	1952	-1580	1152	-282	-16688	-5232	3344	-1368	1977	515	-32768	3832	17968	1931	-3892	5157	-21168	2736	-20360	-2557	-5829	1814	-11160	1200	2840	-570	-1352	296	148	126	1
-9468	-4056	14208	24	864	564	-15888	-5976	-1128	-531	1557	-102	-21720	-6136	5608	-978	1993	364	-32768	-3552	5016	440	-2301	5518	-23200	-5240	-26632	-3381	-4327	507	-32768	3408	23328	-1628	-4204	577	173	127	1
-8708	-4100	15748	-74	1280	576	-20888	120	168	-509	1883	11	-22640	968	8472	-636	2195	102	-32768	-22568	-13544	-273	-823	4253	-6912	-3976	-32768	-2888	-2655	-130	-32768	-16800	16696	-1471	-2713	1410	119	133	1
-8424	-3796	16836	-145	1996	625	-20560	-1168	3848	-624	2358	-7	-23448	-1312	13000	-551	1717	399	-32768	-24000	-14368	838	151	1761	1496	1312	-32768	-2001	-193	172	-7000	1520	31520	-1908	195	-596	104	119	1
-8136	-5168	17908	-219	2841	795	-19792	-3824	4688	24	3007	64	-27912	-3536	15624	-182	576	343	-32768	-17968	-11696	249	1051	1	-4448	-6400	-32768	-337	2342	161	-18376	-10304	8136	-2605	1436	-610	85	76	1
-7668	-5312	18436	-218	3001	839	-27816	-3056	2632	440	3516	17	-26664	-3192	17424	140	-251	61	-32768	-1912	-2096	65	2020	-993	-12640	6536	-29456	515	4042	-89	-20904	-2152	5344	753	717	-129	79	50	1
-4752	-11036	19872	-349	5267	2106	-32768	160	7104	-179	3785	-252	-27688	-2912	25880	352	-1247	424	7152	32767	17672	-3791	3275	-252	-22400	1960	-3456	-720	3998	-579	20664	23464	-32768	3992	5847	671	103	72	1
-3268	-11280	23984	-787	6969	3554	-32768	2728	14088	-1637	3862	-586	-27040	-408	32767	2692	-731	175	19432	-21928	2864	-2811	6470	-1719	-32768	2008	13008	-1764	1215	-447	-5808	32767	10640	-2151	-1646	555	129	108	1
-17628	-13744	22564	-1263	9218	5094	-32768	-744	9944	-3113	3817	-793	-22112	25184	26552	-1107	-2517	1160	-32768	9464	31752	-2154	3601	-3500	-16568	-18072	-28888	-7485	2113	-494	-32768	-32768	-14832	-7308	2425	370	126	167	1
-32768	-7056	31064	-3256	10131	4464	-32768	-3456	-1736	-3873	4431	-267	-31488	-10704	-11712	-4967	-822	1015	-32768	13176	30008	-2420	2648	-1960	-15328	-6504	-24608	-1807	3550	-1350	-16744	-17512	-6640	806	885	-1024	135	168	1
-32768	-32768	32767	-2733	8839	5150	-32768	-20824	2248	-2307	3107	-362	-32768	-3416	-12992	-3650	-2340	326	-11360	17864	9640	-186	1268	-837	-15368	-22296	-18480	-300	2332	1047	8040	4496	-21448	3579	1361	-73	139	123	1
-6060	-32768	32767	280	3571	4804	-20672	-20968	-32768	1519	2487	-717	-32768	616	-6992	-674	-2730	-1459	-9712	1592	15224	-138	717	-426	-16704	7736	-18976	2302	2227	569	-20520	20504	-23640	2171	2208	174	129	99	1
-15872	-32768	32767	590	-5079	-1171	-16168	1816	1824	361	1370	-71	-32768	-4432	-9952	710	-2278	-1629	-9536	6576	13024	-50	538	-289	-19136	12712	-15216	1306	1453	549	-26208	17208	-16824	453	2234	1546	101	99	1
21676	-13468	16796	1025	-5047	-1679	-18216	-9408	2560	724	-1095	558	-32768	6096	-18088	913	-2154	-1951	-7984	7192	12816	-87	314	-243	-17640	5928	-9376	-637	813	-308	-19400	9960	-10896	-1136	2571	-86	93	92	1
14432	-10704	16276	-564	-4448	-2305	-8640	2128	-3336	2057	-2467	-142	-27232	11016	-17080	34	-3009	-1447	-7112	6880	13200	-37	393	-313	-22568	-5032	-5888	-668	401	-100	-19384	-6800	-7576	-1588	2531	-224	110	90	1
2392	-14880	18836	-878	-5076	-2888	-2728	4248	-5448	406	-3688	340	-19048	6184	-15480	-67	-3440	-1262	-7552	6008	13768	65	593	-357	-18592	-4520	-4304	553	408	359	-15096	-5776	-2840	-604	2874	565	109	77	1
-6460	-9788	17800	-641	-5917	-3268	-7504	-8	-5152	-258	-4810	60	-5072	6208	-14496	11	-3274	-1139	-7944	7472	12608	87	732	-388	-18472	1784	-2040	1041	373	94	-14760	-2544	-1656	121	3339	290	107	62	1
-7884	-4876	15920	-811	-6447	-3457	-7040	2896	-4648	4	-5534	-143	-256	4336	-12120	210	-2353	-988	-8304	7888	11952	-36	762	-464	-16968	3264	-2064	952	449	187	-16520	-3720	808	918	3162	556	113	78	1
-9744	-3896	16364	-1064	-6363	-3515	-8008	1200	-6952	217	-6121	-174	-3480	4536	-14200	163	-2098	-952	-8136	6032	12712	-19	862	-550	-16768	600	-832	683	569	54	-14536	-2504	-144	870	2573	479	118	88	1
-12440	-6356	20708	-1095	-6104	-3487	-13224	2608	-9616	603	-6489	-69	-2144	4560	-13128	525	-1882	-580	-9416	4760	11320	6	875	-558	-15088	328	-2048	557	704	124	-10832	-408	5472	-40	1914	745	130	110	1
-21292	-8428	26124	-1268	-6146	-3726	-18496	424	-12224	464	-6797	30	720	3320	-13544	978	-1610	-418	-9744	6512	10000	32	803	-477	-12544	1888	-232	540	910	41	-13872	-1792	312	386	2551	848	129	113	1
-25416	-11420	27464	-1276	-6184	-4212	-18016	-824	-12032	1093	-7128	109	576	2776	-13376	1958	-1637	-278	-9592	7416	10288	-51	684	-562	-13704	3096	-1864	333	1113	0	-19520	1880	-3768	1570	2410	829	130	109	1
-30596	-17032	29748	-854	-5802	-4745	-27096	-1504	-15984	1741	-7284	133	-840	2904	-9832	2133	-1896	-131	-9984	6456	10888	-119	633	-669	-17496	376	-2240	729	1353	17	-22248	0	-1024	952	2020	817	130	113	1
-32768	-13788	29948	-224	-5481	-5346	-27000	-624	-20432	1242	-7079	457	-3592	928	-2480	2032	-1962	-347	-9584	5392	12344	-138	801	-711	-17880	-160	64	1101	1522	0	-17688	1064	2504	897	2098	593	128	117	1
-32768	-4768	20820	121	-5050	-5373	-20384	-9760	-19136	1328	-6255	975	-7256	-24	-760	1484	-1645	-519	-9624	4144	13616	-108	1101	-730	-16552	336	1512	760	1817	-174	-16336	-1224	5104	887	2094	595	122	114	1
-32768	-2936	3152	397	-4089	-3873	-25480	-9024	-27696	1506	-4843	461	-6304	888	600	1271	-1600	-550	-9632	4768	14904	-78	1557	-657	-19096	616	1560	115	2161	-458	-21144	-5432	3288	551	1634	649	126	123	1
-32768	11152	-19160	-35	-2670	-2358	-9552	-5488	-32768	1855	-3047	264	-32768	18016	18904	791	-2415	-1418	-9064	6472	15848	-87	2189	-748	-22384	720	2160	-512	2539	-641	-25912	1560	4976	541	1165	309	132	124	1
-32768	15152	-26920	-677	-1106	-847	3168	-2584	-32768	-343	-571	-196	-8992	-7688	32767	-297	-116	183	-8592	7624	16760	-128	2907	-1036	-24152	2120	2408	-671	2911	-785	-26872	6656	8008	225	805	8	128	121	1
-32768	16628	-24968	-906	22	884	-312	-8072	-32768	-1908	1996	-833	-20632	2808	8648	-1181	2019	151	-7704	11984	15832	-105	3731	-1618	-23984	2904	2664	-666	2971	-812	-28472	3384	10968	-24	45	-80	111	113	1
-32768	-8	-10420	-712	1011	1770	-7616	-12672	-32392	-508	3822	-874	-13256	-1608	-7096	-1483	2259	-79	-4608	17928	14976	102	4661	-2858	-27784	408	6992	-71	3700	-643	-27352	-2872	18496	81	-816	-225	106	99	1
32767	-17940	32767	3005	3911	2399	-32768	12264	32767	1258	1596	205	9064	-12632	-32768	-3249	4300	642	-8024	13376	21880	274	6309	-4361	-32768	-2664	7616	1263	3879	-261	-28584	-3048	28448	985	-2559	-223	102	74	1
-32768	32767	32767	1372	6013	2586	-13096	-1424	-32624	7437	3831	-451	-32768	-28944	1720	3215	-498	-1144	-9384	12432	22872	212	6648	-4545	-32768	696	2272	2067	4105	-480	-28384	-16488	22320	-1679	-2374	-686	4	5	1
-15292	-19524	15868	534	3388	1910	-11240	10192	-13368	1525	4010	621	-29144	32767	-22720	4878	1409	-653	-32768	7688	32767	1720	8495	-4682	-32768	656	-8984	1474	4885	-684	-23488	2400	-4704	5016	-2013	-992	50	40	1
-32768	2156	32767	1169	3213	1554	-19048	-9528	-23960	1632	2901	-1364	-6368	17080	-9536	-969	68	-255	-32768	32767	32767	799	6778	-5455	-32768	14904	-7272	1417	4045	-748	-32376	9856	-26416	4578	-2795	77	76	61	1
-4680	-17832	11728	600	1211	886	-10856	11272	-20168	-107	2447	-1153	-9816	872	-21016	-1244	1599	1416	-1280	32767	32767	-862	2264	-4742	-24848	5024	-22760	-1208	2966	-133	-32560	4784	-12576	1489	-3681	1054	162	174	1
-9924	-8	16868	134	303	267	-20720	-2448	-15648	-2557	2038	-1086	-26736	-8	-18328	-961	1843	-985	3592	32767	32767	879	-2963	-299	-24568	-896	-4128	15	1846	-892	-32768	2952	-11272	-707	-3507	943	207	204	1
-9132	-5460	14268	56	191	95	-16632	-8976	-11328	-3306	1442	-984	-17152	-8768	-11384	-1316	1975	-102	14264	24872	17448	264	-3917	467	-15056	712	1624	1401	-325	9	-32768	-5368	-16944	-563	-3049	647	169	199	1
-6964	-6844	13304	32	193	71	-16024	-11736	-8080	-1262	1086	-456	-19192	-3416	-8432	28	2138	681	12144	21384	13176	294	-3991	1384	-9040	-528	-1104	1374	-1595	662	-25984	-4768	-14664	60	-3123	609	178	194	1
-6868	-6492	13500	31	205	73	-16608	-5928	-7136	962	1025	-152	-18944	-1680	-7864	123	2174	734	5040	20304	12800	165	-4248	2585	-5784	1048	-3664	1015	-2859	954	-21408	-2792	-16656	-230	-3515	557	164	182	1
-7848	-5204	13948	-71	323	40	-18856	-1032	-5704	424	898	-96	-16576	-2352	-3432	424	2400	367	-80	10992	12768	756	-4619	3687	-6168	360	-5176	198	-3936	1283	-13568	-3112	-16632	-520	-3097	315	180	170	1
-7916	-6376	13328	-29	323	86	-15816	-1280	-4352	-859	563	-291	-16872	1280	-2408	357	2270	137	-5496	10344	13632	1342	-4957	4366	-7304	-1192	-7040	-445	-4785	1550	-7576	-1832	-16104	-728	-2673	262	156	153	1
-8276	-6200	13240	22	328	139	-13560	-4392	-4000	-1264	586	-418	-15984	1216	-1832	-378	2401	66	-7992	5688	16784	1397	-5520	4436	-7232	-1512	-7888	-437	-5509	1721	-4800	-96	-16304	-888	-1981	321	155	151	1
-8436	-5388	13428	41	310	181	-16712	-6240	-3408	-654	615	-213	-15256	-552	-968	-473	2349	383	-13936	2568	19696	2281	-6063	3989	-10760	-4104	-8872	-193	-6068	1935	-2232	2080	-14592	-865	-1450	305	145	143	1
-8320	-5280	13408	33	339	203	-15928	-3936	-3664	55	677	-63	-13840	-880	-880	-186	2408	437	-18536	6576	22688	2678	-6542	3195	-13752	-7536	-10200	192	-6499	2202	1008	1312	-15416	-1821	-1069	13	151	135	1
-8352	-4876	13356	-13	365	192	-14848	-1704	-4216	-10	737	-44	-14200	344	392	-417	2356	473	-22856	8760	25064	2854	-6625	3103	-14728	-7872	-10400	885	-6532	2250	2320	-664	-16352	-2151	-772	-296	144	131	1
-8280	-5024	13724	-90	430	272	-16432	-1488	-4064	-541	721	-119	-15408	3480	1640	-675	2352	517	-23968	14288	27456	2572	-6149	3859	-23112	-5376	-15328	1088	-6748	2389	856	-184	-10208	-1344	-856	-381	114	128	1
-8004	-5300	13916	-61	529	399	-17080	-1488	-3504	-1163	736	-277	-16624	3696	4912	-1135	2538	505	-32768	16976	28832	2358	-5285	4546	-32624	-2656	-15176	710	-6925	2712	-2728	400	-5024	-451	-1174	-116	101	127	1
-8660	-5972	12912	-82	577	479	-15608	-1256	-1200	-1729	879	-317	-15856	-1984	208	-1558	2482	465	-32768	11136	23512	2162	-4471	4813	-23272	5768	-16480	-982	-6447	2430	-6064	920	-1208	-451	-992	160	191	127	1
-9512	-4488	13384	-111	727	488	-13992	-4144	608	-1347	1207	-296	-18136	-4336	5696	-1073	1894	423	-32768	6216	17400	1344	-3281	5732	-24632	-2112	-22000	-3559	-5225	1163	-16680	3648	13288	-609	-2371	414	147	127	1
-9260	-4432	14800	-136	1038	423	-17296	-4784	88	-565	1633	-31	-21968	-856	9352	-891	2086	356	-32768	-12360	-6760	-679	-1564	5648	-18528	-6112	-28616	-3591	-3760	-38	-32768	2128	25512	-2188	-4198	1043	142	125	1
-8584	-5272	15652	-97	1524	565	-19280	-3184	3504	-421	2094	-35	-23160	-464	12624	-805	2050	204	-32768	-30096	-14576	593	-25	3174	688	-1664	-32768	-2860	-1696	8	-18176	-4560	31224	-1719	-1278	172	113	130	1
-8104	-5972	16608	-101	2236	776	-19160	-2464	4008	-175	2676	2	-25800	-5344	14336	-512	1328	360	-32768	-22400	-13200	537	265	653	928	-4872	-32768	-1149	954	-43	-10808	1288	32767	-1548	-701	-586	96	117	1
-7936	-5624	18452	-123	3169	1031	-22808	-3088	2744	114	3237	54	-25984	-4624	14120	-98	437	111	-32768	-11656	-7936	247	950	-1394	-8920	-1208	-32768	1287	3508	235	-19192	-10544	-3920	-923	1398	-737	84	77	1
-6688	-9504	19168	-167	4397	1618	-32240	-1848	4680	37	3662	-90	-28840	-1960	20560	363	-890	109	-25224	27784	7312	-145	1706	-1887	-15152	9008	-22112	770	4247	-84	-3680	-8776	-10344	-1440	1316	-16	96	57	1
-4060	-13056	20936	-443	5916	2841	-32768	2056	6544	-470	3934	-456	-27400	-4048	32767	231	-2745	261	32767	-6792	11688	-1908	4669	-526	-32768	-1992	32767	1167	1761	-1581	10688	32767	-32768	2725	1920	1285	115	96	1
-3272	-16560	25284	-977	8161	4573	-32768	6136	16792	-2391	3803	-623	-23528	16880	-4424	-1222	-802	765	-32768	-24688	32767	-2367	5350	-3021	-19400	-11640	-32768	-7624	2017	810	-32768	3040	10544	-6093	286	1670	133	136	1
-32768	-9532	23544	-2151	10358	5201	-32768	-4448	-1456	-3874	4019	-557	-28952	4800	10656	-2839	-737	874	-31800	28920	20648	-1762	3474	-2090	-13928	-16104	-16784	-2193	3736	-2387	-32768	-32768	-10136	-2077	1262	599	124	160	1
-32768	-30328	32708	-4076	9657	4275	-32768	-17680	-4728	-4298	3963	-232	-29552	-5288	-21168	-4936	-1676	1141	-7368	-10864	21592	-327	1390	-1116	-17984	-15448	-17608	-1546	2217	916	5640	4360	-25112	4080	1562	-23	144	130	1
-31944	-32768	32767	-1515	6008	5331	-26904	-24336	-5000	140	2569	-452	-32768	4088	-6288	-1401	-2808	-1044	-13392	9192	13648	-523	946	-688	-13040	3848	-20240	2396	2451	381	-1832	20584	-18712	1873	1779	-550	129	91	1
-32768	-32768	32767	122	-42	1471	-12880	-9016	-26968	2523	2278	-470	-32768	-1384	-10496	126	-2481	-1363	-9088	11408	11664	-192	663	-461	-20776	9440	-14944	1694	1774	451	-31768	19640	-18608	294	2418	1868	110	102	1
12720	-32768	26584	936	-5242	-2176	-18808	-392	4224	208	21	469	-32768	2232	-14640	950	-2039	-1851	-9096	8184	12104	-193	455	-389	-17424	7528	-10664	-377	1044	-213	-20520	10944	-12536	-962	2375	241	71	94	1
18208	-11520	13092	860	-4485	-2545	-14232	-3840	-72	1313	-1661	-380	-30928	9456	-17080	293	-2375	-1857	-8256	6664	13968	-147	485	-354	-21224	-2296	-8536	-1151	513	-291	-20376	-3472	-9720	-1509	2554	-630	115	106	1
10032	-10456	15468	-226	-4389	-3045	-3760	3024	-4008	1820	-3111	-132	-21816	7248	-15880	-82	-3105	-1372	-7592	6000	13624	-12	625	-319	-17776	-6848	-5544	-103	380	134	-15472	-6136	-3712	-1108	2727	336	115	87	1
-1168	-10904	17524	-379	-4851	-3339	-5744	408	-5640	899	-4054	220	-12760	6056	-15360	64	-3351	-1249	-7656	6720	13440	98	774	-343	-19328	240	-3544	955	402	137	-15152	-1936	-3264	-507	3073	305	109	74	1
-7940	-7052	17684	-438	-5689	-3579	-7032	2992	-5576	571	-4989	38	-3000	6744	-13648	-5	-2956	-1225	-8520	7744	12096	76	786	-409	-17624	3232	-2608	923	371	107	-16088	-4104	-2104	458	3307	377	106	71	1
-8900	-2376	16696	-764	-6168	-3534	-6168	3368	-5048	152	-5572	-12	-3136	4376	-14352	4	-2192	-998	-7552	6576	13112	-29	802	-474	-16232	1712	-1800	697	492	30	-15608	-5376	1256	1239	3011	673	113	75	1
-10732	-2348	17884	-1096	-6234	-3263	-10008	816	-6392	290	-6184	-301	-2648	6312	-13048	65	-1910	-879	-8544	7312	11520	-39	899	-531	-16552	-144	-480	664	615	-36	-12376	-2560	3832	852	2456	584	129	105	1
-16320	-6316	22440	-1103	-6307	-2865	-13664	3408	-10072	-164	-6568	-32	672	5704	-12560	424	-1804	-480	-9656	5648	10896	-58	888	-571	-14624	640	-2128	487	780	17	-10904	-1760	2896	221	2328	732	128	114	1
-22184	-8144	26056	-1364	-6505	-3077	-15352	-480	-10920	-155	-6901	-329	960	3352	-13664	982	-1623	-316	-9976	6552	9664	-99	784	-566	-12792	2504	-2192	457	916	-62	-18408	184	-5248	1244	2965	720	129	110	1
-25416	-12148	28324	-1267	-6494	-3566	-15512	-848	-11080	0	-6921	-328	424	1880	-13544	1741	-1619	-208	-10240	7088	10352	-194	667	-684	-15136	2152	-3496	475	1181	-30	-19248	4376	-4768	1157	2285	926	131	109	1
-29964	-16760	31220	-1035	-6064	-4094	-32768	-2376	-17304	1365	-7292	-150	-3032	696	-5592	1820	-1858	-283	-10336	6288	10776	-248	670	-769	-17280	-216	-1344	1020	1406	-43	-18416	952	1504	882	1988	551	128	112	1
-32768	-10428	29596	-704	-5197	-5000	-27256	-824	-20048	1212	-6939	326	-7248	-1248	-392	1844	-1754	-608	-9984	6424	10992	-245	675	-780	-16032	616	1296	1211	1571	-113	-15688	1192	5256	881	2159	551	125	119	1
-32768	-5104	19032	244	-4510	-5216	-21600	-3736	-22720	1037	-5592	635	-12560	-1424	12736	955	-2076	-728	-9288	4464	14072	-198	1194	-717	-17712	1752	3016	455	1932	-432	-19792	-3416	4016	502	1854	464	120	116	1
-32768	7336	-5960	902	-3457	-3620	-20672	-11360	-29448	1894	-4172	245	-32768	2224	32392	1342	-3754	-1625	-9344	5768	15968	-209	1781	-755	-22016	528	2752	-442	2324	-682	-26664	-3632	4904	335	1298	426	130	123	1
-32768	18948	-27288	-393	-1814	-1731	-352	-4448	-32768	2339	-1774	192	-15168	296	24336	488	-1447	-833	-9224	7512	16936	-253	2509	-1029	-24432	-448	3416	-546	2745	-803	-28184	2816	8640	523	939	109	129	119	1
-32768	19328	-27716	-560	-1481	-1441	3416	4232	-32768	-1150	897	-298	-15456	8128	22696	-539	1400	487	-8672	8704	17312	-287	3338	-1438	-24592	3840	4496	-418	3220	-948	-27728	3048	12144	143	386	-7	125	115	1
-32768	14108	-16340	-586	663	1807	-4616	-11928	-32768	-2008	3034	-844	-18056	1368	-4440	-1075	2209	217	-7800	13816	16480	-159	4317	-2395	-27888	3544	6720	-484	3651	-981	-28536	-672	15904	94	-625	-154	105	99	1
8404	-12088	32767	3851	2984	3102	-32280	-3232	32767	-1561	2788	-739	808	5384	-5768	-764	3592	-240	-4864	14984	20800	72	5653	-3980	-32768	-2016	8576	265	3897	-550	-28536	-1272	30040	574	-2032	-443	95	80	1
-32020	32767	22252	2777	7251	3239	-32768	-23008	-32768	6775	3441	-1232	-32768	-32768	16256	-384	217	-1034	-24920	22592	23768	-211	7800	-5165	-32768	-1008	14136	2028	4037	-709	-29776	-6312	26448	-452	-2636	-262	54	45	1
-29988	6496	23068	634	3359	2074	-6080	20856	-26104	3600	4474	1318	-32768	-31560	4736	1217	-178	-1215	-32768	7752	31896	582	8264	-5243	-32768	-5584	-8992	633	4818	-624	-25200	1216	536	3483	-2020	-1176	39	29	1
-27408	-12192	21604	819	3668	1406	-18368	-7352	-21720	1312	2872	-605	-6304	19112	-9192	683	1237	-837	-32768	32767	31400	1317	7676	-5219	-32768	17544	-3048	1923	4340	-1284	-32768	9824	-25216	4585	-2954	-302	66	45	1
-6264	-7524	13568	487	1049	920	-11488	4640	-17888	407	2466	-1761	-5432	1104	-24144	-1613	1313	1591	-1704	32767	28632	-1365	3069	-5230	-27536	10616	-22600	-1311	3069	-457	-31952	5280	-15520	1803	-3301	939	116	111	1
-14728	3544	19248	312	356	371	-22064	-4528	-17712	-2516	2119	-876	-29640	-4392	-21064	-953	1872	-626	-5136	32767	32767	-173	-1844	-17	-24296	-4056	-10336	-974	2319	-886	-32768	6600	-11184	-588	-3655	1018	182	191	1
-9128	-7580	14188	146	255	160	-16760	-7688	-11488	-3235	1455	-903	-16392	-7240	-10344	-970	1894	-193	10840	23080	21016	-143	-3295	1123	-16032	1416	-272	790	-92	-535	-32768	-2664	-16952	-1077	-3087	723	200	209	1
-6764	-6332	13676	41	219	68	-15504	-10312	-6920	-1266	1071	-623	-17744	-2768	-7712	397	2183	300	11040	20024	15424	182	-4086	1708	-9272	728	-2200	974	-1435	228	-24048	-3424	-15992	-474	-3283	568	195	200	1
-8380	-4176	14440	-85	324	36	-16808	-6264	-7472	1392	1020	-16	-17848	2744	-4880	416	2387	837	7280	18504	13488	72	-4564	2249	-5872	1768	-3280	995	-2814	518	-23976	-800	-18408	-687	-3587	765	182	192	1
-7572	-5596	13664	-130	374	30	-19424	-136	-5328	551	915	-40	-15928	-2392	-2784	286	2402	392	384	12784	12080	524	-4973	2934	-6688	864	-3968	439	-3920	975	-15160	-3808	-17888	-755	-3245	366	186	175	1
-7444	-7244	13436	-72	381	104	-15336	-752	-3168	-1202	638	-245	-17592	-696	-3512	145	2336	125	-5032	11856	11616	1171	-5444	3644	-6664	-424	-6328	-262	-4722	1219	-8280	-1392	-17072	-1115	-2890	291	165	172	1
-8356	-6312	13200	25	365	195	-13816	-3840	-4040	-1886	565	-470	-16000	1824	-1528	-541	2402	55	-6520	9632	12536	1514	-5755	4024	-6808	-1648	-6656	-239	-5439	1415	-4240	-1136	-16464	-1066	-2175	326	154	155	1
-8612	-4764	13724	58	326	222	-15952	-7080	-2784	-1136	605	-272	-15144	-224	-744	-728	2321	292	-12808	9776	16512	1890	-5815	4141	-9712	-1752	-8880	46	-6078	1746	-1312	864	-15184	-1019	-1539	317	142	151	1
-8316	-4760	13612	40	330	216	-15520	-4744	-2640	16	660	-33	-13312	-128	-376	-416	2273	401	-19712	9560	21672	2305	-6274	4127	-12392	-3992	-12032	-31	-6534	2042	800	1376	-15440	-1682	-1164	74	155	140	1
-8436	-4500	13616	6	361	195	-14600	-1608	-4320	209	780	-10	-13400	320	696	-622	2216	500	-21480	8744	23336	2842	-6415	4115	-16136	-7248	-10768	333	-6806	2208	2688	1040	-15312	-2481	-902	-262	140	132	1
-7548	-6024	13912	-69	420	298	-16936	-2048	-3800	-461	760	-59	-16088	2496	1696	-776	2376	529	-25624	13088	25312	2886	-5926	4089	-21016	-4752	-13632	816	-6840	2322	696	-952	-12648	-2070	-1006	-398	120	129	1
-8428	-5148	13728	-55	496	460	-17256	-448	-3432	-1344	741	-302	-17248	2928	4952	-1130	2715	468	-32768	17216	28904	2366	-5382	4471	-29576	-1952	-17720	402	-6686	2700	-2728	-1904	-4776	-897	-1512	-312	117	124	1
-8652	-5420	12892	-75	545	520	-15336	-1104	-432	-1982	922	-330	-17080	-1152	-584	-1667	2261	450	-32768	13272	24792	2239	-4662	4903	-26488	1424	-18288	-989	-6283	2414	-5816	8	760	-522	-1522	-63	148	127	1
-9196	-4580	13768	-96	686	491	-12896	-5920	976	-1323	1287	-282	-19856	-3048	7488	-1145	1689	300	-32768	1744	16776	1865	-3472	5553	-21640	-1448	-22616	-2897	-5355	1414	-14040	2296	7608	-289	-1744	267	123	127	1
-8800	-4152	14884	-136	978	427	-17848	-4120	392	-483	1697	-41	-20272	416	9416	-1166	2092	76	-32768	-7488	-432	-114	-1816	5343	-18976	-2744	-27560	-3048	-3785	186	-32768	3240	23656	-1327	-4139	950	125	129	1
-8760	-5584	15808	-162	1455	541	-20424	-1864	1752	-528	2082	-33	-20904	-3008	9384	-1133	2260	310	-32768	-24136	-13456	-167	-347	3392	-3288	-232	-32768	-3085	-2082	-36	-25360	-11752	21184	-1053	-1713	927	100	129	1
-8264	-5440	16932	-161	2231	792	-20848	-2648	4256	-666	2619	-40	-27368	-6264	13480	-675	1334	488	-32768	-23488	-12816	249	280	972	248	-3952	-32768	-1842	437	-66	-13480	-1200	24848	-2129	688	-419	103	121	1
-7524	-5668	18644	-170	3186	1047	-21712	-4848	3920	-25	3243	39	-25888	-5984	15704	-134	340	173	-32768	-13176	-9776	158	1015	-1060	-6512	-1472	-32768	695	2892	296	-18648	-7600	2136	-1796	1172	-334	99	73	1
-6248	-8504	19740	-242	4462	1599	-31576	-1424	4128	374	3721	-27	-28224	-1848	19912	415	-862	103	-32768	3744	-552	203	1732	-1915	-12064	7432	-28400	815	4358	65	-20368	-3096	16960	185	37	190	86	49	1
-3808	-11692	24132	-398	5927	2668	-32768	2952	7184	-352	3973	-387	-27808	-3048	32767	247	-2690	366	32767	5416	23616	-2781	3822	-439	-32768	-3088	32767	2168	2182	-1214	10848	27952	-32768	4153	4371	1002	117	90	1
-1824	-15016	25384	-1137	8115	4316	-32768	6080	18080	-2430	3937	-695	-24888	16304	-1064	-1228	-1133	1146	-32768	-32768	32767	-2886	5991	-3354	-15416	2784	-32768	-6633	2202	807	-32768	18448	21624	-6031	-1967	1318	126	122	1
-32768	-9184	25368	-2167	10594	4967	-32768	-2136	-200	-3267	4092	-450	-28136	5696	17608	-2739	-1085	807	-13456	23416	13192	-1263	3544	-1943	-16552	-32768	-19288	-3842	4127	-2409	-32768	-32768	-23000	-5492	1725	1707	135	168	1
-32768	-32768	32767	-4840	10231	3978	-32768	-18128	-3424	-4715	3856	166	-29112	-7248	-23656	-4987	-1454	1034	-26272	-19592	31096	-522	1564	-1214	-18328	-5840	-24792	-1851	2532	848	4456	-7240	-19352	3490	1156	-155	152	155	1
-32768	-32768	32767	-1906	7083	5819	-32768	-19992	-1688	-4411	3510	163	-32768	2072	-7744	-1161	-2924	-867	-15384	14016	13032	-489	1237	-787	-10728	-1304	-23240	1962	2449	758	-384	14600	-18872	2762	1381	-474	135	123	1
-32768	-32768	32767	1067	90	1843	-8960	-12048	-30432	2659	2203	-158	-32768	-4768	-10184	846	-2610	-1241	-10264	12648	11904	-161	820	-522	-21760	4912	-16392	2458	2030	649	-30520	23608	-19584	1373	2306	2076	87	110	1
10536	-30156	27016	1184	-5650	-2323	-16696	1944	6168	744	-21	624	-32768	3424	-16400	1320	-1877	-1675	-9592	6944	12960	-92	586	-353	-16136	7336	-11320	547	1100	251	-19376	12488	-12920	-620	2345	531	44	98	1
15744	-8980	12460	903	-4937	-2375	-15384	-2504	-1384	1226	-1606	31	-30448	8552	-17576	585	-2477	-1487	-8384	6216	13512	6	569	-281	-16512	6448	-10992	184	1062	106	-21616	-2296	-11040	-1201	2509	-596	103	102	1
6828	-9004	16212	-207	-5022	-2627	-4296	2712	-4432	1411	-3250	73	-22936	6304	-15824	301	-3037	-1143	-7912	5864	13840	54	639	-236	-18488	-3968	-7376	-1018	373	134	-16352	-3800	-4184	-677	2664	297	133	88	1
-1060	-11076	15352	-529	-5515	-2866	-5824	1072	-4640	52	-4035	466	-13576	5392	-14784	206	-3401	-898	-8064	6664	12800	142	709	-235	-18440	-2568	-5904	360	357	276	-14168	-1376	-3672	-310	3099	369	110	65	1
-7080	-9340	14216	-346	-6038	-3057	-5952	56	-5352	128	-5017	94	-1904	6416	-14384	7	-3008	-1112	-8336	7544	12072	171	753	-263	-18032	2536	-4136	1225	359	304	-15984	-1064	-4096	551	3326	568	107	64	1
-7888	-6856	13140	-583	-6210	-3304	-5608	1672	-5792	-39	-5626	105	-2288	4336	-14488	-93	-1905	-1020	-8160	7680	11680	171	743	-313	-16624	2224	-3920	1417	424	305	-16104	-1112	-1424	1658	3524	746	115	74	1
-10768	-8016	15416	-620	-6071	-3431	-9128	-4488	-6792	649	-6323	-393	-3176	4168	-14344	-135	-1726	-986	-7864	7584	12120	80	765	-442	-16632	4016	-2416	1281	445	193	-13432	-1864	1512	1192	2681	602	123	88	1
-17484	-10848	21304	-890	-6047	-3426	-13736	440	-11040	51	-6342	174	240	2072	-13400	311	-1694	-445	-9496	6528	11088	81	777	-486	-14664	192	-1928	907	546	203	-11024	-992	4184	213	2161	671	129	109	1
-25120	-12640	24548	-1224	-6446	-3605	-16832	-4184	-11920	-4	-7030	20	1392	464	-13392	1267	-1617	-375	-9496	7264	10416	55	686	-484	-13168	1808	-1624	777	733	131	-14328	384	-1840	1328	2898	872	128	111	1
-27364	-15712	24604	-1225	-6335	-3868	-20232	-4808	-13416	791	-7142	-317	-664	3632	-10768	2186	-1820	-318	-9600	7552	10336	-40	636	-542	-15144	2144	-2656	738	898	98	-19344	3552	-4144	1397	2491	1003	132	111	1
-32768	-18788	26060	-1039	-5698	-4273	-29800	-2664	-16856	1406	-7135	-273	-3456	2608	-3560	1701	-1978	-291	-9280	7376	11312	-121	670	-642	-17584	1440	-368	1105	1161	83	-20872	2288	648	858	2082	721	131	114	1
-32768	-13088	25100	-849	-5006	-5009	-24792	-3808	-18536	1055	-6629	-247	-7552	-1848	1216	1427	-1796	-676	-10016	5720	12376	-139	881	-713	-16960	1344	984	1022	1444	-19	-18080	3024	5368	1038	2149	583	129	121	1
-32768	-5696	15932	-126	-4315	-4977	-26744	-7120	-21560	728	-5556	-112	-15304	-1864	12648	264	-1951	-751	-9304	4256	14336	-100	1213	-671	-17040	2336	3752	527	1867	-298	-20152	-1640	6968	479	1885	470	124	116	1
-32768	5212	-5148	248	-3304	-3526	-18184	-8944	-29872	1725	-4105	-142	-32768	-784	25440	639	-3207	-2006	-8760	7232	15208	-53	1787	-718	-21088	2560	3960	-248	2343	-577	-26704	-3528	7552	290	1419	420	131	122	1
-32768	18476	-22580	-616	-1819	-1678	-2328	-2888	-32768	1690	-2003	-211	-10216	-4384	23336	533	-1470	-1097	-8728	7736	16632	-59	2531	-969	-24056	840	3024	-643	2810	-718	-28024	2400	8184	436	1081	106	120	120	1
-32768	17432	-24516	-776	-455	-172	-280	3624	-32768	-844	755	-396	-17336	3680	23048	-344	1049	122	-8160	8880	17904	-14	3369	-1356	-25336	2400	3600	-563	3255	-834	-27224	2864	9808	204	520	111	123	114	1
-32768	13240	-17016	-865	755	1290	-4280	-9184	-32768	-1285	2825	-664	-20408	3256	-2032	-349	1634	-69	-6896	12840	17064	132	4287	-2099	-27304	2024	6192	-466	3677	-891	-29352	-472	14504	-37	-468	-23	106	104	1
48	19528	24064	5013	3635	2699	-25400	-5232	25248	-708	3134	-1113	-21952	-560	32767	-949	2075	-250	-4128	15440	20104	333	5625	-3420	-32296	-2240	9888	157	3989	-539	-25304	-2816	24256	323	-1395	-398	99	84	1
-32768	32767	31168	3005	6533	3795	-32768	-22656	-31648	7182	3524	-572	-32768	-32768	20064	-22	1025	-1100	-23984	14232	23488	190	7955	-4504	-32768	-3832	15680	1282	4043	-587	-32768	-4624	17040	485	-3080	-188	56	48	1
-31032	-8620	22144	335	3139	2232	-3400	27888	-22576	3015	4381	1225	-21760	32472	-25792	3844	1770	958	-32768	11712	30096	623	8810	-4945	-32768	-5416	-3552	658	4598	-492	-26232	-5712	1880	2048	-2121	-1417	41	28	1
-31948	-16092	23964	1417	3160	1723	-12088	-19624	-27040	446	3053	-648	-7496	22984	-13256	473	772	-659	-32768	32767	31016	1385	8382	-5070	-32768	-7952	-7888	502	4754	-504	-32472	4248	-19248	4661	-3091	-172	68	46	1
-6516	-10576	13812	572	1117	900	-14064	10088	-18344	489	2397	-1952	-4592	-3440	-23072	-2367	1422	1357	-17200	32767	32767	-15	4782	-4957	-30760	11288	-10944	-366	2945	-529	-31120	8800	-16104	3134	-3193	865	106	93	1
-12972	6488	19568	386	328	318	-21128	-2568	-17816	-2744	2083	-543	-31416	-9440	-22896	-812	2107	-718	-32768	32767	32767	-84	-1120	-799	-18752	-3624	-22208	-1341	2642	-547	-32768	7968	-11184	-117	-3629	1068	184	194	1
-8780	-6388	14084	240	231	152	-17760	-10736	-11264	-3492	1392	-854	-16928	-9024	-9992	-205	1899	-305	10648	24176	25400	309	-4145	971	-17352	-440	216	705	80	-612	-32768	-1200	-17904	-1374	-3091	459	197	208	1
-6964	-5068	14732	116	197	80	-15216	-13208	-7232	-172	1136	-273	-18296	2048	-5912	922	2293	667	13896	18320	15144	328	-4806	1086	-12136	-64	744	1479	-1513	87	-24600	-4880	-16272	-818	-3400	328	181	201	1
-8520	-3632	14600	-88	299	30	-16680	-672	-7712	2100	1071	86	-17912	5144	-3424	767	2390	701	9376	17776	12928	166	-5105	1235	-6168	840	-1744	1531	-2674	548	-23208	-1744	-15440	-649	-3807	305	189	190	1
-7812	-5120	13936	-165	354	25	-20312	3056	-4656	154	883	-99	-14704	-1080	-1344	400	2390	402	2608	12472	12288	504	-5366	1739	-5600	544	-3920	1127	-3843	999	-15360	-3656	-16552	-417	-3178	48	189	178	1
-7412	-6448	13636	-77	369	134	-13872	-3120	-2336	-1885	592	-378	-17824	1200	-2128	-43	2470	8	-4400	10992	12144	1359	-5681	2697	-6920	-512	-6568	518	-4594	1225	-8408	-1784	-16944	-672	-2868	118	164	166	1
-7992	-6524	13228	69	356	236	-13872	-7376	-3032	-1956	595	-532	-15640	904	-1112	-950	2339	158	-8224	11976	12464	1698	-6040	3507	-6136	-1784	-8336	399	-5326	1387	-1440	-1808	-16760	-797	-2081	222	132	160	1
-8228	-5652	13508	105	332	260	-15960	-9584	-2560	-521	709	-169	-14872	-2816	-1232	-894	2188	358	-10288	9376	15888	1850	-6112	4021	-8200	-1664	-7320	627	-6050	1761	-1344	1216	-15776	-882	-1547	205	138	153	1
-8224	-5184	13452	104	350	268	-15688	-3544	-3872	563	800	91	-13240	-1416	-952	-337	2190	462	-18232	7760	20536	2339	-6341	4151	-11920	-4152	-10624	461	-6496	2089	1616	1360	-15448	-1708	-1132	-76	144	143	1
-8400	-4156	13528	45	376	253	-15088	24	-4880	300	803	43	-14936	1176	-368	-153	2125	425	-21448	6200	22984	2966	-6369	3893	-15680	-6848	-10776	600	-6760	2296	2560	888	-14688	-2359	-924	-407	150	133	1
-7600	-5672	13972	-28	448	323	-15832	-2416	-4944	-594	720	-76	-15976	3312	680	-677	2433	646	-26672	12744	25432	3057	-6061	3772	-20144	-3664	-13368	658	-6721	2409	88	-1632	-11104	-1725	-1009	-545	126	127	1
-8272	-5452	13628	-72	563	430	-18040	-968	-4056	-1445	735	-262	-16600	2104	1784	-1379	2872	611	-32768	17312	28352	2398	-5353	4442	-29744	-2248	-17336	120	-6599	2507	-3712	-2408	-2696	-491	-1500	-348	112	131	1
-8656	-4964	13040	-96	587	514	-15448	-2448	-112	-1927	892	-315	-15680	-776	2256	-1584	2299	432	-32768	10560	22904	2061	-4591	5114	-26304	272	-18472	-919	-6179	2169	-4776	-1856	-1312	-296	-1549	-286	173	129	1
-9196	-5204	13292	-76	696	529	-12416	-5208	1776	-1367	1281	-282	-18528	-3808	8216	-905	1629	243	-32768	2520	13304	1480	-3279	5410	-19952	88	-22048	-2727	-5352	1275	-12424	4424	4232	-67	-1353	451	129	127	1
-9232	-4072	14432	-87	936	461	-16304	-4112	1320	-558	1764	-64	-21464	-1280	10616	-971	2015	170	-32768	-4632	-240	-186	-1948	5234	-18336	-336	-28264	-3308	-3697	149	-32768	4728	23408	-1205	-4078	1088	180	127	1
-8504	-4996	15812	-137	1429	571	-21088	-2152	2552	-450	2173	9	-22072	560	11520	-1027	2258	94	-32768	-23600	-15824	-166	-364	3703	-4328	-2320	-32768	-3154	-2159	-219	-23192	-8800	23144	-1325	-1345	579	90	131	1
-8144	-5396	17016	-101	2200	781	-21152	-3088	5384	-623	2743	11	-26720	-5576	14824	-782	1447	413	-32768	-19112	-14232	402	508	1388	160	-1352	-32768	-1584	420	-111	-18768	-240	21536	-2338	1108	-427	106	90	1
-7644	-6048	18960	-19	3144	1105	-20960	-4888	4296	29	3396	22	-26016	-7256	17192	-187	406	174	-32768	-12528	-11736	-59	1137	-625	-4536	2448	-32600	173	2764	200	-20448	-5880	-1152	-1503	1586	-440	101	64	1
-7184	-8164	19836	-64	4393	1690	-30224	-1920	4752	320	3910	-85	-27688	-2696	23056	434	-973	30	-19528	4632	-736	-3175	3446	-1940	-18328	5472	-10968	926	3963	-116	-14128	-2312	-2600	-1457	2820	34	99	58	1
-3484	-11072	23216	-265	6018	2888	-32768	1408	5040	-347	4174	-402	-26832	-6184	32767	545	-3583	334	1488	-7064	19576	-2315	7143	-2458	-32768	-13208	10152	-1754	2057	-1442	-22344	29216	2128	-319	-801	1197	127	103	1
-2176	-18428	26852	-747	8424	4743	-32768	2832	15920	-2454	3987	-755	-26336	17216	7008	-1542	-2085	1189	-31904	6856	25880	-1591	4339	-2719	-11360	-15464	-26824	-6380	3017	-472	-32768	-29312	-25048	-5632	1991	-335	118	158	1
-32768	-8468	24992	-1967	10675	5325	-32768	1528	-7480	-3149	4203	-513	-32656	1064	-816	-2947	-919	753	-32768	15344	29704	-1843	2756	-2073	-10672	-1256	-27872	-2201	3204	-1359	-20296	-25752	-9424	471	374	383	124	152	1
-32768	-32768	32767	-3326	9662	4898	-32768	-20000	-4272	-4552	3700	-77	-31152	-1304	-20608	-4433	-2082	664	-10312	9408	14064	-442	996	-894	-17848	-17088	-19936	-1537	2162	1026	-104	6576	-21584	2292	1121	-407	156	130	1
-32768	-32768	32767	-1016	5744	5550	-32768	-22464	-4616	-4012	3435	-94	-32768	7544	-6968	-1109	-2712	-1285	-8128	4832	14752	-173	624	-506	-19176	-4152	-16584	2107	2356	399	-20992	14016	-21192	1166	1887	440	149	120	1
-32768	-32768	32767	-162	-1913	180	-12368	-4328	-21896	2033	1769	-608	-32768	-4672	-11544	-72	-2139	-1302	-9608	6792	13392	-81	574	-419	-18688	11728	-14848	1935	1657	504	-21688	11568	-14424	233	2096	1168	99	113	1
22948	-31248	20256	753	-4913	-2814	-15520	2624	3840	292	-680	632	-32768	3928	-17720	936	-1989	-1766	-8704	6288	13456	-1	462	-327	-17280	4872	-12176	-509	956	96	-19472	6920	-12360	-747	2533	-15	56	97	1
16460	-9468	13708	431	-4103	-3224	-12088	-3976	-496	1121	-1809	-544	-25240	10256	-16032	215	-2445	-1698	-8136	6912	12528	56	471	-260	-20248	-1648	-9576	-1274	382	-135	-18480	-600	-9704	-950	2553	-404	122	91	1
8204	-8684	17220	-669	-4437	-3519	-3192	2296	-3352	1925	-3351	-335	-21392	7632	-13912	16	-3060	-1360	-7456	7168	13032	-21	630	-260	-18760	-5776	-6216	-88	190	253	-15904	-1816	-4912	-818	2808	296	130	84	1
-364	-7112	17232	-706	-4881	-3421	-8192	1720	-3752	1152	-4210	55	-9200	7024	-13376	-93	-3307	-1047	-7776	7360	12816	38	732	-301	-19344	-656	-3088	1498	260	329	-16232	-3192	-3136	-286	3036	450	103	72	1
-6356	-2528	17724	-879	-5529	-3414	-7376	3992	-6264	871	-5092	-187	-1480	5936	-13888	-385	-2736	-1172	-8128	7320	12448	30	713	-340	-16592	4016	-1832	1496	271	313	-15368	-4072	-1320	979	3246	705	108	71	1
-6068	-80	17636	-1230	-5758	-3260	-1384	-1352	-5488	403	-5759	-57	-2696	1936	-14616	-379	-1873	-1056	-7176	7680	12768	73	662	-418	-16016	504	-1824	1264	513	200	-15120	-4776	3424	1666	2845	715	127	92	1
-10848	-4304	20180	-1075	-5788	-2975	-10936	744	-9080	677	-6500	-493	-3184	3448	-14048	55	-1680	-809	-9632	5664	11168	42	745	-458	-16080	3000	-1440	1027	564	113	-11096	-2120	6056	461	2068	561	127	99	1
-19076	-7216	25852	-1188	-6030	-2854	-14160	1496	-11200	-488	-6486	266	1760	3904	-13520	454	-1669	-345	-10128	5648	10072	29	701	-464	-14216	16	-1048	529	707	59	-12624	-1448	936	381	2451	799	130	108	1
-24248	-9720	26824	-1360	-6479	-3244	-15216	-2248	-11736	-466	-7001	-44	1304	1360	-14232	1245	-1532	-261	-9344	7368	9720	-25	562	-475	-12280	1608	-864	348	966	24	-18944	2056	-3376	1520	2707	781	130	105	1
-27324	-14304	26172	-1293	-6306	-3663	-21520	-4080	-13432	460	-7222	-257	104	2400	-10704	1692	-1701	-196	-9688	7600	10080	-123	493	-562	-16176	1584	-1360	672	1244	30	-20296	1976	-1088	1113	2060	799	128	109	1
-32768	-16404	27084	-1012	-5547	-4179	-31664	-1992	-17152	1305	-7149	-154	-3760	2152	-1920	1747	-2032	-242	-9384	7320	11736	-222	537	-726	-18064	1872	-1704	926	1357	86	-18400	1896	2184	931	2032	450	125	111	1
-32768	-8492	26608	-831	-4770	-5045	-22576	-2368	-20504	1077	-6529	169	-7472	-1640	96	1358	-1831	-592	-9640	5144	13072	-211	764	-786	-18008	-248	552	856	1565	-90	-17264	1632	3248	885	2246	533	123	109	1
-32768	-5440	12788	321	-4384	-4892	-24672	-9392	-22424	640	-5302	252	-16816	-2040	20192	408	-2484	-586	-9152	3896	15216	-174	1180	-758	-18600	712	3208	493	1950	-286	-19584	-2312	5136	484	1912	619	124	118	1
-32768	-4764	8688	568	-4265	-4658	-16304	-12016	-30432	2098	-3642	175	-32768	7016	24240	559	-3104	-2060	-8720	5536	16672	-122	1854	-789	-21560	1040	4048	-401	2397	-574	-28448	-2128	7672	190	1306	370	125	120	1
-32768	18844	-27300	-650	-1543	-1369	2368	-1944	-32768	1708	-1232	26	-6392	-10184	32767	-125	-646	-499	-8752	6608	17232	-106	2630	-973	-23416	496	3200	-860	2865	-772	-27128	3928	8960	-115	1000	-67	114	116	1
-32768	17348	-28516	-541	-103	334	1928	-592	-32768	-1370	1638	-324	-16664	3096	12200	-250	1748	440	-7576	9304	17848	-48	3514	-1347	-25648	3144	4568	-893	3331	-941	-28472	2824	11000	-369	209	13	112	107	1
-32768	7880	-12432	-1035	720	1606	-4416	-13336	-32560	-1501	3432	-886	-16248	-736	-3752	-631	2026	-291	-7776	9776	17856	-13	3659	-1438	-28024	-240	6288	-594	3785	-867	-28320	-1472	17112	-305	-812	-258	107	93	1
32767	3844	32767	3258	4154	1733	-32768	7424	32767	696	2004	125	-1632	-5160	-26728	-1848	4012	-276	-2392	14112	23048	420	6023	-3686	-32768	-2120	9400	646	4008	-513	-29584	-2928	29320	492	-2163	-368	93	79	1
-32768	32767	32767	1198	6204	2021	-14240	3304	-32768	9065	3853	-323	-32768	-21400	5256	3387	-473	-402	-27112	19232	24392	198	8246	-4702	-32768	-904	11240	1764	4094	-766	-29368	-13688	28352	-2690	-2440	-704	11	10	1
-32768	27652	32767	778	5500	1942	-6168	13264	-18616	2039	4130	838	-23808	32767	-26312	4893	1345	-36	-32768	1512	32767	1674	8965	-4655	-32768	1168	-7656	1434	4903	-636	-20280	768	-1552	5078	-2129	-1180	52	35	1
-32768	-4060	32767	1467	2711	1593	-19616	-15896	-28120	943	2880	-1294	-8488	14768	-12312	-763	165	-129	-32768	32767	32720	140	7233	-5477	-32768	20768	-3072	1404	3973	-1105	-32768	12232	-26392	4684	-2986	198	103	81	1
-13140	-20308	16944	670	821	586	-11520	9928	-22424	-1592	2180	-1316	-16552	-3064	-21680	-1135	1782	1432	5584	32767	32767	-1687	3667	-5114	-22536	7832	-22128	-1935	2841	-320	-32768	11888	-13504	1786	-3326	1109	168	194	1
-9936	-3796	15660	75	241	137	-19008	-2632	-14080	-3168	1762	-1005	-23608	1104	-16112	-997	1863	-1136	-1536	32767	32767	598	-2304	202	-21240	-4952	-8120	-1385	2004	-1210	-32768	6752	-14936	-1437	-3225	791	190	203	1
-8812	-4860	13920	18	148	22	-17632	-10248	-10688	-3120	1269	-749	-14824	-11000	-9920	-836	2084	-171	15840	24520	19536	253	-3870	1235	-13736	-200	1136	1123	-447	-716	-32080	-5768	-17232	-1691	-2993	568	181	190	1
-6892	-4564	14672	-133	220	-14	-14848	-12008	-8664	435	1050	-298	-18312	3592	-6224	668	2346	853	11976	17984	13448	-24	-4347	1393	-8464	824	-416	1613	-1843	453	-23288	-9120	-16264	-534	-3153	353	176	189	1
-7704	-3820	14544	-316	326	-72	-19056	992	-5504	1363	1021	-182	-17976	3008	-4200	416	2468	659	4912	15688	13432	307	-4962	1796	-4304	832	-4232	1399	-3018	676	-19560	-3800	-15448	-279	-3407	92	189	174	1
-7636	-6860	13408	-319	388	14	-18520	-1752	-3560	-478	731	-216	-16176	-2872	-3544	112	2465	296	-1448	11568	11952	947	-5565	2477	-4680	-144	-5008	992	-3971	1181	-10568	-3080	-16664	-664	-3063	-51	171	172	1
-7692	-8344	12580	-85	392	178	-13032	-5424	-3216	-1659	494	-382	-16368	1208	-4208	-399	2518	-26	-4800	9656	11256	1589	-6020	3158	-6688	-2568	-5160	668	-4781	1523	-4656	-2968	-15152	-591	-2454	-14	144	151	1
-8640	-6624	12600	29	364	221	-14488	-8504	-4152	-1512	492	-441	-15848	-576	-3792	-1054	2457	211	-7184	8240	12904	1911	-6102	3558	-6952	-2432	-6576	1001	-5392	1849	-3184	936	-15248	-509	-1646	128	122	149	1
-8128	-6748	12752	63	339	237	-16736	-7016	-2952	-298	546	-74	-13520	-2480	-2480	-828	2337	366	-11832	7480	16160	2235	-6062	3620	-10184	-2008	-7240	980	-5899	2175	-936	2720	-13704	-549	-1234	157	154	142	1
-8416	-5236	13500	64	394	263	-15624	-3280	-3520	194	552	-22	-13432	-1208	1304	-538	2025	478	-17832	8232	20792	2447	-6009	3569	-12560	-4384	-9640	428	-6325	2424	1328	2368	-14504	-1644	-882	-86	145	134	1
-8204	-5220	13564	-55	422	321	-14864	-1232	-3200	-345	664	-83	-15208	392	4208	-485	1941	407	-23112	10824	22776	2596	-5936	3843	-16048	-3592	-9944	195	-6390	2358	2120	264	-15000	-1971	-721	-370	114	121	1
-8576	-6372	12864	-53	482	423	-16112	-1504	-2952	-1119	674	-271	-15296	-424	2024	-1006	2685	467	-24544	13600	27224	2267	-5342	4346	-25576	-3224	-15616	-267	-6691	2318	-128	528	-6736	-1284	-1218	-302	89	126	1
-9052	-6256	12092	-94	459	490	-15128	-2288	-496	-1711	841	-311	-19688	296	1616	-1606	2463	607	-32768	14240	27640	2319	-4811	4656	-31224	-3192	-16640	-262	-6425	2213	-4288	3184	-2456	-456	-1291	5	143	124	1
-9220	-6480	12396	-50	504	573	-13464	-5496	1168	-1618	1136	-312	-21176	-2968	4632	-916	1624	330	-32768	11936	19160	1513	-4146	4665	-22776	5912	-18568	-1277	-6003	1814	-10152	5192	1008	-332	-1181	502	137	124	1
-9444	-5216	13636	-57	704	580	-16448	-4424	1032	-812	1551	-131	-17840	-2280	9960	-744	1877	-56	-32768	5896	8440	604	-3089	4859	-21800	496	-24160	-2839	-4834	1127	-21280	4520	10168	-591	-2261	752	127	123	1
-9152	-5556	14456	-124	1081	602	-18752	-992	992	-492	1932	-30	-19936	1560	9864	-919	2257	19	-32768	-9568	-10896	273	-1501	4617	-12576	-2488	-29528	-3247	-3189	280	-32768	-6072	21000	-1923	-3508	1091	114	133	1
-8808	-4484	16344	-133	1700	661	-19648	-1360	3376	-454	2414	-2	-22552	-2544	11840	-882	1903	440	-32768	-20648	-13992	345	192	3288	-3360	-136	-32768	-2402	-1155	118	-7840	6592	30232	-1008	-637	-317	88	130	1
-8132	-5264	17656	-160	2563	822	-21240	-3904	3920	-42	2991	73	-27472	-4712	14232	-284	1042	298	-32768	-20784	-14040	412	303	2987	-1336	-1888	-32768	-1073	1073	202	-14736	-5248	14816	-2041	1541	-295	107	96	1
-7480	-7640	18856	-165	3667	1198	-25576	-3424	3848	485	3549	31	-27256	-4744	16168	318	9	151	-32768	32767	-360	-1798	2031	-537	-7488	3888	-27008	229	3275	245	-20584	-2256	-1240	-652	1453	-150	99	61	1
-5684	-10392	19512	-303	4984	1967	-32344	288	6720	178	3938	-215	-28408	-4464	23744	464	-1340	292	24192	-9312	32767	-3087	4905	-932	-32768	-3192	32767	2057	3498	-689	7936	18448	-21432	1745	3747	670	102	65	1
-1240	-13320	24856	-572	6814	3393	-32768	-352	12112	-1250	4030	-484	-32768	-3632	32767	3217	-761	142	-32768	-27760	32767	-2156	5145	-3064	-23608	-12616	-32768	-5807	3131	508	-26512	8328	64	-4342	-55	233	132	115	1
-9268	-17124	24084	-1111	9340	5122	-32768	1136	13256	-2457	3732	-697	-28624	26152	18712	-341	-2704	1194	-21704	22664	12184	-1310	3382	-1601	-3968	-13536	-28328	-2608	4067	-2083	-25872	-32768	-29504	-4288	1087	921	103	167	1
-32768	4640	26648	-3367	10478	4711	-32768	-4288	-3864	-4277	4489	-345	-30536	-2400	-8536	-4164	-1392	879	-13072	-13928	24112	-827	1364	-1003	-17544	-2080	-22968	-3667	2252	16	-2968	4048	-26304	2334	1266	-179	130	147	1
-32768	-32768	32767	-3360	8875	5191	-32768	-22584	-880	-3497	2942	-502	-31272	1152	-15680	-4265	-2372	284	-10576	6576	15224	-590	797	-564	-15440	-13728	-21800	438	2084	745	-6912	8584	-19928	73	1641	-352	154	125	1
-15592	-32768	32767	-956	4330	5068	-20376	-21200	-25976	1343	2086	-910	-32768	1440	-6960	-1569	-2579	-1280	-7920	10856	12064	-110	620	-398	-23472	-376	-13696	3358	2032	619	-27752	9336	-16320	608	2102	1732	142	114	1
-4720	-32768	32767	192	3806	5103	-13552	792	-10736	1217	1313	-280	-32768	-5576	-10408	80	-2196	-1554	-8504	5304	14024	-17	463	-362	-15168	9336	-9856	1018	1080	472	-16960	5744	-10072	-272	2332	648	88	102	1
18748	-16276	21588	1138	-5522	-2873	-14416	-1808	2624	283	-901	691	-32768	5416	-16288	1050	-2244	-1898	-7552	5120	14176	94	447	-316	-16888	3192	-8720	-1197	628	2	-19752	40	-9880	-571	2487	-519	73	105	1
16148	-6608	13352	-117	-4989	-2825	-11848	-960	-1072	1133	-2297	-621	-23992	10672	-14720	167	-3034	-1503	-7240	7016	12928	44	543	-277	-19664	-4696	-6624	-1111	363	75	-14736	3032	-4744	-658	2642	1	118	91	1
7628	-6968	15320	-1089	-4989	-2682	-1968	6232	-3128	851	-3490	-275	-19184	8232	-13888	-188	-3397	-1080	-7296	7760	13040	-83	689	-336	-20040	-904	-3704	729	363	243	-16624	-296	-3688	-582	2915	620	115	68	1
-1400	-7104	15836	-1330	-5324	-2734	-6736	2088	-3728	-135	-4311	-210	-6296	8472	-13640	-442	-3143	-1014	-7632	7096	12728	-48	801	-403	-16544	1784	-2160	1436	336	313	-16224	-5352	-2024	454	3064	685	120	66	1
-5516	-7144	16384	-1052	-5678	-3051	-6456	3368	-5848	69	-5203	-441	-2120	4568	-13280	-555	-2367	-983	-7888	7440	12448	-54	811	-446	-16088	2584	-1488	1137	494	218	-16160	-6000	2096	1609	2766	700	127	83	1
-8176	-4668	18352	-741	-5680	-3473	-7736	2480	-6768	222	-5877	-313	-3464	2320	-14576	-564	-2052	-891	-7176	6256	13088	-68	794	-492	-16592	1216	-792	809	623	125	-12768	-2696	3584	1282	2199	505	125	94	1
-12372	-3068	21736	-821	-5756	-3676	-11552	5032	-8616	127	-6160	-20	-1992	2080	-14048	21	-1837	-494	-8976	4480	11800	-40	819	-490	-15472	560	-3392	339	680	123	-10856	560	2064	-3	2187	587	124	101	1
-19208	-5392	26412	-1180	-6109	-3612	-11728	4208	-8488	38	-6176	46	1032	592	-12848	637	-1612	-443	-8952	6224	11096	-12	741	-407	-13320	2168	-2592	152	860	28	-16840	3176	-3216	732	3183	647	125	100	1
-24944	-9984	27992	-878	-6430	-3612	-16936	-1336	-11216	638	-6970	17	-384	416	-14432	1734	-1602	-249	-9368	7040	10672	-43	650	-505	-15440	2168	-3288	199	1077	26	-19216	3424	-6048	986	2713	979	127	100	1
-28024	-13236	27680	-542	-6375	-3836	-23200	-2104	-13744	1651	-7175	154	-1248	1952	-11568	2029	-1529	-105	-9856	6520	11744	-68	629	-632	-17968	-1512	-3240	952	1243	116	-20400	-1728	-1888	735	2000	626	125	103	1
-32768	-17612	28800	-144	-5753	-4451	-31440	-912	-18512	1723	-7016	529	-4464	2608	-1688	2155	-2005	-219	-9376	5216	12864	-53	785	-682	-16608	-560	-56	1544	1391	69	-16832	-248	3584	1018	1978	505	125	110	1
-32768	-10244	24080	254	-5106	-5201	-31408	-312	-19480	1560	-6959	615	-10864	1296	840	1829	-2030	-652	-9312	4600	13712	-104	1071	-718	-17104	2976	2816	1091	1715	-80	-17112	-1232	5744	926	1965	510	124	117	1
-32768	-4316	5968	648	-4095	-4561	-25624	-10432	-24832	827	-5181	514	-19400	1320	27152	1016	-3387	-365	-9008	5368	15160	-112	1524	-739	-19592	2024	2848	63	2111	-434	-23880	-4800	6032	588	1552	731	122	123	1
-32768	10684	-16376	239	-2763	-2908	-12576	-9440	-32768	1870	-3268	237	-32768	15024	18408	602	-3007	-1357	-8584	6496	16864	-99	2208	-864	-23304	24	3528	-421	2574	-657	-28080	1800	7856	762	1252	343	118	117	1
-32768	17876	-28580	-672	-1362	-981	3416	-4744	-32768	488	-864	67	-4096	-8992	32767	-283	-156	88	-8400	7616	17832	-130	2952	-1160	-24760	800	3240	-458	3012	-783	-27096	5824	9096	343	876	51	123	112	1
-32768	15068	-30268	-737	-162	1067	248	-5840	-32768	-1846	2000	-562	-17440	4920	11776	-539	2152	-31	-7392	11336	17864	-143	3863	-1653	-26832	4312	5096	-606	3431	-1008	-29560	3696	11032	-192	-52	-91	114	109	1
-32768	2364	-15800	-1162	951	2157	-5072	-14864	-29440	-1201	3721	-536	-12960	-1456	-5520	-1893	2392	-243	-2936	16952	16176	-18	4774	-2888	-28504	-48	6272	-614	3828	-834	-27240	-112	18976	-356	-983	-445	107	91	1
32767	-18340	32767	3222	4077	1682	-32768	8040	32767	1517	1726	332	4600	-17024	-31952	-3973	4194	455	-5560	12984	23752	71	6554	-4393	-32768	-2008	7008	699	3906	-461	-29888	-752	26704	661	-3166	-372	92	75	1
32767	-9876	30252	3538	4994	1825	-9520	2944	-32768	9087	3874	-261	-3696	-26512	8848	-3107	2853	226	-32768	20808	21696	-344	8300	-5519	-32768	3736	2376	2041	4127	-537	-28624	-12952	17488	-1649	-2069	-804	0	7	1
-12172	-21464	13276	347	3218	1724	-10992	15336	-11584	2092	4150	843	-28192	32767	-23440	6244	1684	-647	-32768	13952	32767	1126	8466	-5399	-32768	6808	-5248	1730	4913	-717	-25472	2256	-2488	4326	-2407	-903	56	39	1
-32768	9372	32360	1038	1684	1202	-20272	-15000	-26968	1519	3159	-1619	-6824	20920	-18184	-840	205	6	-32768	32767	32767	484	7175	-5810	-32768	16200	-6792	1200	3898	-863	-32768	10336	-27488	4473	-2737	137	101	86	1
-15860	-21116	15684	781	850	716	-9816	2696	-22864	-1696	2291	-1192	-13984	-192	-19224	-1606	1698	1570	-26448	32767	32767	-2012	2171	-4089	-23744	3632	-23936	-1662	2836	-201	-32768	4136	-12888	1456	-3698	1132	174	197	1
-9344	-5952	14860	134	264	228	-18216	336	-15008	-3182	1816	-1043	-23280	-2344	-15304	-1426	2017	-1333	6192	32767	32248	-542	-2732	1091	-21800	-1256	-2424	-399	1369	-1074	-32768	3816	-14952	-990	-3332	1039	195	203	1
-8752	-4440	14156	65	168	96	-19472	-10736	-12248	-3508	1285	-927	-17320	-12384	-11792	-1037	2215	15	14248	17568	18944	223	-3597	1838	-13224	-424	-144	554	-670	-180	-30048	-4888	-17880	-769	-3178	785	180	197	1
-6708	-5376	14568	0	217	70	-15184	-14328	-8328	94	1042	-358	-19392	-296	-7360	752	2396	497	10648	19376	15408	609	-4458	2165	-6856	392	-1648	991	-1954	541	-25392	-7760	-15528	93	-3150	734	168	191	1
-7460	-5576	14440	-90	296	22	-16456	-2832	-6672	1804	1043	46	-17760	2344	-4152	556	2558	842	6352	14928	13608	554	-5074	2502	-4832	200	-2968	883	-3253	982	-19168	-4152	-15888	-39	-3354	364	185	169	1
-7484	-6476	13748	-128	372	35	-20504	960	-4472	189	697	-163	-15040	-1576	-2728	617	2555	327	680	8336	12088	1242	-5310	3124	-6560	-2264	-3280	324	-4305	1440	-9848	-2368	-16696	-486	-3067	33	181	168	1
-7212	-7084	13604	-62	454	128	-13952	-1632	-2800	-1359	560	-387	-17328	3280	-2960	239	2562	-18	-3608	8784	12528	1675	-5430	3666	-6736	-2472	-3696	220	-4399	1485	-5800	-2216	-16272	-602	-2696	146	146	157	1
-7832	-6196	13288	-36	487	182	-14520	-6088	-3808	-1537	539	-500	-16664	2192	-2712	-695	2441	176	-9192	5144	17096	2026	-5741	3915	-6472	-3344	-7104	456	-5594	1818	-2384	528	-15416	-530	-1752	258	118	148	1
-8028	-5812	13728	-36	530	236	-17688	-8280	-4032	-376	598	-198	-14904	-1664	-2352	-796	2453	261	-12976	5840	20240	2520	-6207	3845	-10408	-2712	-9800	505	-6242	2099	600	2624	-15056	-872	-1233	276	165	141	1
-8560	-4884	13796	-89	568	272	-16248	-2216	-4480	133	570	-72	-13344	-800	-24	-700	2335	506	-18336	6200	23360	2843	-6364	3470	-11104	-3016	-9520	511	-6337	2141	2360	3040	-15056	-2131	-1000	-44	160	134	1
-8172	-4716	13988	-123	661	262	-15232	-1272	-5344	-278	602	-66	-14664	1448	-416	-441	2437	455	-25112	9280	25696	3196	-6323	3300	-17912	-5792	-10968	1264	-6669	2350	2624	2552	-14728	-2366	-944	-110	131	120	1
-8404	-5944	13024	-216	713	337	-17128	-200	-3888	-1248	561	-208	-15096	1560	2432	-799	2974	472	-29728	17440	26552	2802	-5876	3698	-26120	-656	-15600	1322	-6644	2629	-2600	768	-7688	-1233	-1349	-222	116	125	1
-8984	-6076	12564	-225	728	457	-15664	-2208	-1112	-2078	648	-378	-16096	-776	136	-1730	2579	583	-32768	20152	25472	2435	-4981	4364	-32768	2712	-18184	-169	-6494	2780	-7360	-296	-832	-495	-1736	39	158	125	1
-10224	-6028	12088	-196	741	510	-12576	-5616	696	-1783	968	-320	-19808	-3264	4568	-1078	1890	336	-32768	20712	24520	2408	-4837	4485	-21152	3832	-23632	-3044	-5839	2088	-10208	2056	1104	-39	-1478	351	136	125	1
-9292	-5140	13756	-142	901	507	-15272	-5576	2152	-906	1411	-114	-21720	-2736	9016	-908	1953	-3	-32768	2000	7064	1241	-2005	6383	-18056	-7384	-25616	-3577	-4779	971	-23088	4584	13936	-648	-2637	626	123	123	1
-8676	-5136	15108	-161	1295	611	-20016	-2128	3048	-469	1851	1	-22688	-376	11496	-870	2217	30	-32768	-16208	-5688	-125	-778	5670	-15816	208	-32400	-2604	-2758	203	-32768	-1728	21536	-1393	-3424	1391	100	127	1
-8816	-5488	16168	-178	1937	698	-19968	-1248	5296	-680	2413	37	-24656	-1824	13576	-660	1878	399	-32768	-26096	-12944	657	-83	2514	-576	824	-32768	-2842	-1206	220	-5488	5424	27272	-1587	-117	156	175	124	1
-8280	-6152	17372	-211	2775	904	-20128	-4080	5552	-200	3039	75	-28048	-1584	15184	-417	811	188	-32768	-19032	-11688	570	469	225	-16	-8416	-32768	-1182	1421	205	-16680	-7440	11544	-2609	1578	-134	94	75	1
-7432	-8132	20252	-210	3873	1257	-26376	-2888	4648	462	3602	115	-26648	-2280	17600	-121	-207	-6	-32768	-9232	-5536	235	1254	-1053	-6432	1224	-32768	1062	3649	184	-20176	-5328	6288	-558	1004	-151	82	55	1
-5496	-10948	19320	-459	5233	2071	-32768	3064	6192	171	3934	-97	-27960	-1824	24040	93	-1283	114	15768	14032	31032	-4873	3224	-1165	-29376	2720	14976	1488	3833	-247	19016	19752	-32768	3503	5537	-76	99	75	1
-2636	-10256	22604	-956	6958	3550	-32768	3920	14016	-1700	4018	-530	-24992	2536	32767	3820	-2502	-20	-23544	-32768	32767	-4281	6759	-4286	-32768	10208	-4288	-3843	2176	-143	-32768	32767	21016	-3778	-2761	1323	134	110	1
-15676	-14564	21464	-1393	9464	5091	-32768	-200	11120	-3124	3812	-712	-22760	26248	21440	-1570	-2723	1079	-10368	16352	8864	-2369	4776	-2975	-16504	-32768	-28816	-6963	3282	-1566	-32768	-32768	-15560	-7686	2215	328	114	181	1
-32768	1800	23396	-3405	10427	4560	-32768	-7272	-1424	-3901	4476	-144	-27384	-7768	-11776	-4980	-1214	1006	-32768	-23624	32767	-2057	1837	-1438	-16456	5656	-32352	-2900	2946	-338	-8976	-19664	-11216	1467	746	-539	141	163	1
-32768	-32768	32767	-2672	8707	5503	-32768	-23704	-448	-2333	3208	-481	-32768	-3208	-14336	-3653	-2450	481	-17096	18392	11808	-521	916	-601	-13856	-18720	-25840	217	2402	1081	7544	1304	-21808	2369	838	-389	134	107	1
-10852	-32768	32767	157	3918	5050	-32768	-25280	-1768	-1760	2986	-633	-32768	-968	-8360	-401	-2725	-1437	-7752	9824	12456	-48	563	-334	-20184	176	-15560	2593	2437	337	-26496	14736	-22240	2164	2032	964	118	99	1
-29288	-32768	32767	188	-5311	-1477	-15432	2800	-2832	846	1317	126	-32768	-3088	-12112	979	-2341	-1650	-10016	5192	13576	92	477	-223	-16520	10776	-15600	1186	1372	642	-23112	16600	-17528	246	2385	1544	93	105	1
19956	-13848	18024	1269	-6103	-2137	-15128	-6728	1536	173	-1125	774	-32768	7120	-18168	864	-2355	-1648	-8104	4848	13976	70	455	-138	-17200	4000	-13368	-1265	802	-113	-22208	3552	-12544	-1044	2649	-306	96	105	1
17040	-5880	11936	-86	-5094	-2319	-10072	1064	-1920	1405	-2558	-267	-25032	8288	-16608	-12	-3022	-1371	-7176	4952	14328	190	587	-151	-22048	-8096	-9520	-1100	340	123	-18320	-5776	-7160	-894	2614	-190	125	89	1
4332	-11340	14788	-916	-4921	-2569	-8400	2456	-2768	1454	-2833	-165	-17688	5896	-16000	-115	-3420	-952	-7432	7088	13400	321	781	-183	-18904	-5040	-5920	1782	274	625	-15416	80	-3608	2	2983	522	111	78	1
-6448	-11308	15880	-610	-5508	-2842	-6288	-1496	-6056	-217	-4639	198	-3976	4984	-14056	-86	-3070	-883	-8136	8096	12360	351	851	-208	-19016	6608	-3168	2531	249	529	-16304	944	-2472	832	3248	657	101	74	1
-8564	-7556	14580	-586	-6044	-3184	-6184	520	-6192	31	-5437	75	56	3520	-12640	-55	-2318	-918	-7992	7936	11936	255	807	-280	-16128	7544	-1616	1591	314	338	-16152	568	-2120	1036	3260	698	112	85	1
-9900	-7840	13972	-822	-6078	-3411	-7128	-1992	-5632	121	-6012	-96	-2904	3056	-14440	-194	-1882	-996	-8032	7752	12344	159	866	-445	-15752	3008	-624	874	441	101	-15200	-920	2072	1280	2743	604	118	83	1
-13724	-9208	16784	-993	-5925	-3537	-10896	192	-9504	510	-6294	-21	-1896	3352	-13424	202	-1720	-739	-8336	5968	12032	122	881	-561	-15496	824	-1328	642	529	99	-11096	-816	7840	80	2164	633	124	109	1
-21576	-12628	22228	-1079	-5999	-3685	-14888	-2632	-11992	350	-6584	-11	1624	2360	-13240	851	-1497	-417	-9416	7544	9696	16	855	-598	-13952	2520	-288	825	785	96	-13032	-1888	2888	656	2532	775	124	111	1
-26944	-14416	25028	-1113	-6212	-4079	-17768	-2928	-11840	850	-6929	-70	416	1256	-13200	2050	-1586	-339	-9936	7456	9472	-112	732	-706	-12912	4792	-1720	574	990	79	-19360	832	-1608	2004	2668	885	132	108	1
-31504	-17512	26840	-927	-6082	-4534	-24952	-3648	-14304	1253	-7116	-194	-2016	2064	-6552	2137	-1864	-268	-10064	6576	10392	-249	655	-767	-15640	3352	-2584	630	1275	-32	-19768	4936	-792	1217	2177	894	125	112	1
-32768	-14204	27308	-549	-5479	-4899	-30856	-2000	-17216	801	-6955	107	-6448	-696	-528	1701	-2074	-476	-10048	6280	11200	-295	700	-874	-16736	584	-1136	857	1521	-78	-17440	4144	2072	1066	2190	713	128	114	1
-32768	-5788	22024	-605	-4811	-5067	-21272	-13320	-18288	375	-6329	375	-10072	-5520	-320	1097	-1598	-866	-9968	4200	13096	-260	947	-816	-16800	-448	944	781	1761	-194	-16872	2064	3088	869	2041	536	124	114	1
-32768	-7588	4860	126	-4465	-3663	-23784	-11496	-23944	820	-4982	84	-23824	-536	30712	415	-3599	-1114	-9312	3952	15328	-191	1415	-761	-18888	1200	3864	174	2195	-443	-21424	-4688	6664	360	1438	466	129	122	1
-32768	12232	-18256	-617	-3223	-2150	-9664	-4720	-32768	1889	-3172	-274	-32768	14376	14368	652	-2505	-2209	-8888	5392	16904	-105	2117	-796	-21984	304	3344	-695	2681	-697	-27480	-3736	9248	294	1030	195	113	121	1
-32768	14700	-26700	-1073	-1349	-1075	2736	-624	-32768	-134	-645	-292	-7256	-7112	32767	-693	-183	203	-8264	8288	17480	-35	2932	-1091	-25320	-216	2392	-883	3123	-779	-27888	2160	9984	243	730	11	122	116	1
-32768	17872	-27092	-430	61	520	216	-8280	-32736	-1723	1926	-933	-18616	-1088	7048	-537	1792	-281	-7128	11008	18152	19	3842	-1691	-27576	1192	4568	-531	3565	-754	-28744	1112	12176	-125	-27	-92	124	111	1
-32768	5148	-7928	-1070	794	1172	-5208	-13576	-32768	402	3724	-430	-12664	-5288	-5224	-982	2127	-496	-5888	13704	17928	164	5029	-2828	-28808	-2248	8512	-43	3953	-491	-27056	-3168	18712	-103	-864	-246	106	96	1
32767	-5128	32767	4973	3867	1596	-32768	19520	32767	1087	1648	-282	12840	-11248	-32768	-2628	3935	780	-8048	12024	25184	407	6980	-4163	-32768	-2880	8936	1064	4084	-205	-28176	-7888	26496	8	-2764	-491	108	77	1
-32768	32767	32767	2031	6951	2776	-12728	-4496	-32768	9264	3417	-462	-32768	-28880	-584	4619	-508	-1479	-32768	14832	24152	561	9042	-4842	-32768	-3816	-792	1763	4420	-335	-26984	-17360	7112	1839	-1577	-1236	3	14	1
-22160	-22996	14916	838	4042	1942	-10488	15080	-18064	2803	4379	1179	-18864	32767	-20920	6470	863	-612	-32768	21232	32767	2548	9209	-4293	-32768	15704	-3480	2772	4908	-862	-30952	11288	-9160	6269	-2676	-710	54	50	1
-32768	29284	32767	945	1448	1041	-25704	-10440	-29072	1067	3432	-1869	-3800	18208	-21760	-1272	410	347	-32768	32767	32767	326	6073	-5571	-32768	21912	-10592	1300	3574	-650	-32768	17080	-25600	4842	-2588	362	119	110	1
-19068	-16000	14628	569	737	457	-8464	-4936	-24672	-1970	2496	-1290	-10256	2744	-24496	-2068	1496	1368	-32768	19512	32767	-501	867	-3345	-18064	-912	-23176	-2114	2444	-197	-32768	11232	-14640	-433	-3599	1345	163	199	1
-10924	-9348	13704	-43	243	103	-14272	-1944	-16720	-3515	1839	-1177	-22968	-6352	-18592	-2594	2082	-1457	13208	32767	26144	576	-4164	330	-19864	2288	2504	360	420	-1327	-32768	144	-16776	-2458	-3138	709	189	204	1
-8340	-6972	12852	-64	140	15	-20888	-13232	-12720	-3484	1197	-950	-19424	-20640	-15480	-1113	2301	194	15120	25656	13944	-531	-4497	911	-12168	136	720	1043	-1521	-278	-25808	-7440	-18216	-776	-3157	384	189	193	1
-6732	-5076	14576	-90	228	1	-21584	-14232	-11664	-3019	1057	-802	-20496	2376	-8320	1202	2489	1043	10208	17496	14144	-535	-4790	1895	-6144	200	-2608	1077	-2720	385	-22576	-2984	-17904	-395	-3170	586	155	189	1
-8000	-5128	14268	-198	316	-40	-17752	2192	-6416	1498	854	195	-17336	4536	-3968	740	2633	604	416	14472	14440	447	-5197	2924	-5184	224	-5320	821	-3989	567	-13520	2216	-17920	-945	-3163	-141	190	183	1
-7592	-5848	13816	-259	403	-22	-19056	1480	-4200	-517	607	-237	-14984	-416	-1776	585	2640	119	-5984	11824	13424	1044	-5975	3719	-7088	920	-7312	300	-4884	930	-7680	-928	-17104	-1538	-2881	-126	179	153	1
-7288	-6848	13660	-204	451	93	-13624	-2696	-2488	-1784	410	-485	-17040	3472	-2864	31	2622	-19	-7392	8672	12216	1286	-6415	3767	-7488	120	-6192	485	-5588	1220	-3848	-1720	-15640	-1548	-2175	81	160	153	1
-7740	-6564	13064	-106	458	183	-14432	-7408	-2560	-1745	451	-450	-16408	856	-1920	-969	2478	163	-12360	6832	13752	2018	-6466	3302	-9152	-1496	-7504	626	-6111	1653	-2184	608	-14264	-1366	-1456	219	134	143	1
-8020	-6436	13356	-57	466	243	-17832	-7600	-3032	-593	485	-110	-12576	-1440	712	-1043	2041	486	-19344	9864	18352	2652	-6494	2946	-12128	-3680	-11352	464	-6462	2060	1480	-128	-14608	-1958	-1031	-22	138	138	1
-8388	-4716	13712	-77	463	306	-15096	-2784	-3224	50	641	-100	-12728	-648	3384	-788	1964	582	-23424	13648	19896	2846	-6372	3298	-15272	-4728	-10328	805	-6463	2199	3176	-1512	-15304	-2180	-821	-361	142	126	1
-7740	-5288	13632	-86	547	322	-14000	-1928	-3328	-335	681	-84	-13992	-1032	3152	-415	2651	211	-26080	17280	24840	2651	-5637	4155	-23584	-104	-15544	668	-6700	2455	504	80	-8608	-1353	-1265	-481	117	123	1
-8784	-5876	12836	-146	568	423	-17288	-1568	-3328	-1259	726	-242	-18840	-464	-1184	-1551	3068	649	-32768	17616	26640	2640	-4958	4698	-30528	656	-16560	230	-6702	2496	-4000	1624	-4208	-406	-1507	-94	80	124	1
-8804	-6604	12688	-120	599	555	-16680	-2704	-432	-1964	855	-313	-21128	-824	1312	-1651	2245	669	-32768	19720	20056	2091	-4326	4748	-25704	7632	-19736	-1260	-6292	2372	-8920	160	-520	-31	-1232	306	130	125	1
-9260	-5516	13180	-135	672	587	-13400	-5416	1688	-1741	1210	-257	-19712	-3888	9368	-825	1786	98	-32768	10560	11872	1605	-3512	5134	-21832	-3920	-27048	-3466	-5365	1957	-14776	1592	7200	114	-1766	457	163	127	1
-8896	-4808	14472	-130	938	540	-15440	-5128	3432	-750	1732	3	-18408	-1128	12768	-839	2273	-146	-32768	-6528	-320	1547	-1693	5536	-17480	-4192	-28592	-2512	-3723	673	-32768	4824	25720	-1776	-4098	1045	128	129	1
-8636	-4268	16060	-132	1498	611	-20376	-2208	3856	-29	2263	87	-24520	2032	11808	-786	2214	44	-32768	-21992	-9808	493	-514	3810	-6480	1072	-32768	-1731	-1972	422	-22664	-2640	18544	-525	-1826	1332	112	127	1
-8176	-5208	17060	-194	2280	691	-20928	-1272	4496	102	2823	174	-27264	-4648	14440	-623	1314	504	-32768	-23256	-12800	1174	-27	1144	1032	-744	-32768	-1642	203	470	-12136	-1328	22704	-676	797	277	90	94	1
-7696	-6920	18260	-270	3264	993	-22792	-2880	4208	318	3421	31	-27528	-3768	15728	88	317	300	-32768	-13760	-8232	471	726	-462	-4408	-4744	-32768	143	2693	307	-20192	-5088	152	-1252	1109	-257	80	70	1
-6328	-8644	19708	-368	4510	1581	-30224	-1280	4568	405	3882	-106	-27456	-1152	20496	436	-1053	80	-26400	-28432	-104	-4896	3282	-2082	-5344	-3224	-32768	346	3017	284	-9696	768	-9320	-1678	2828	-66	80	46	1
-2472	-11844	22588	-691	6091	2681	-32768	4152	6320	-395	4141	-477	-29360	-2864	32767	264	-2991	157	3232	-17232	32767	-3706	6083	-3057	-32768	-14176	10360	-2288	2228	-2367	-19416	32767	-3896	-403	-397	753	123	101	1
-3492	-17652	25748	-1107	8573	4150	-32768	3936	18384	-2188	3926	-555	-29104	20072	-8408	-624	-247	1035	-27624	17248	19320	-1925	3791	-3054	-10944	-13832	-23112	-6075	3150	-593	-32768	-27520	-20616	-7145	1794	-677	126	158	1
-32768	-8840	21792	-2419	10817	4669	-32768	5304	-7376	-2077	4346	-376	-24176	8136	9200	-2589	-1238	845	-32768	11944	26960	-2547	3771	-2005	-9704	2192	-23704	-2794	2972	-1556	-19024	-29176	-10256	-863	264	-220	127	158	1
-32768	-32768	30000	-4024	9958	4543	-32768	-17088	-2568	-4532	3727	-109	-32520	-2136	-21920	-5093	-2028	965	-13744	10984	15200	-1045	1399	-1195	-20048	-20496	-20824	-2527	2129	983	808	1224	-22088	1472	1098	-152	147	130	1
-32768	-32768	32767	-1792	6264	5418	-24968	-25576	-4168	-76	2585	-1219	-31864	1728	-8840	-2536	-2746	-702	-13448	-1912	18848	-477	696	-538	-18392	-9976	-20200	2493	2402	305	-21560	7160	-19912	1764	1810	993	143	115	1
-32768	-32768	32767	-487	-775	1614	-13392	-7216	-28696	2045	1926	-678	-32768	-6104	-10560	-304	-2425	-1145	-10424	5072	14328	-95	561	-286	-20264	10088	-13056	2646	1674	594	-22056	12168	-13128	732	2205	1421	99	99	1
-32768	-32768	32767	-842	-2884	257	-14680	1224	6792	-460	-320	355	-32768	400	-16360	966	-2043	-1507	-8232	5640	13544	64	493	-196	-14720	6824	-10528	-433	1081	175	-19560	3936	-9960	-235	2321	-113	67	93	1
17940	-8236	11204	299	-5423	-1841	-14480	-3816	2272	320	-1945	-482	-27312	9328	-16816	369	-2854	-1512	-7880	6968	13080	158	561	-173	-19472	1336	-8632	-1583	680	-157	-17632	3680	-7504	-398	2398	-399	108	88	1
9708	-8476	13128	-805	-4975	-2132	-3936	3904	-2744	809	-3349	-336	-21016	7224	-16096	-294	-3357	-1129	-7936	7432	12784	135	598	-217	-19856	-5488	-6904	-23	484	245	-16256	2552	-4032	-668	2730	394	112	74	1
492	-11084	13996	-1066	-5180	-2473	-4616	560	-4048	-244	-4102	15	-7512	4392	-14472	-407	-3325	-870	-8328	6720	12248	102	623	-276	-17344	968	-4632	1609	473	352	-16600	-1616	-3848	-267	2847	585	101	69	1
-6636	-10656	14184	-1012	-5537	-2995	-6176	-1600	-6072	58	-5054	-280	-2504	3736	-14512	-431	-2606	-994	-8504	6552	12320	135	664	-292	-15880	3792	-3752	1480	428	378	-15232	-3360	-3288	787	3032	613	104	77	1
-9232	-9244	14596	-807	-5807	-3457	-7400	-608	-6296	406	-5841	-510	-2200	1936	-14296	-455	-1973	-1071	-8144	6264	12488	202	700	-323	-16976	1512	-3344	1214	606	250	-14272	-3552	-728	1960	3176	589	121	94	1
-11540	-8356	15632	-843	-5884	-3860	-8360	1552	-9144	605	-6109	-412	-3976	2552	-14256	-87	-1634	-848	-8512	5752	11944	187	718	-432	-16912	1568	-2016	693	520	86	-12960	-2784	2640	856	2654	419	127	103	1
-17192	-9036	20140	-1033	-5795	-4007	-12192	-2640	-9496	535	-6367	-152	192	1656	-13136	358	-1635	-333	-9064	5800	10768	138	705	-399	-14024	1752	-1928	433	629	147	-11600	352	2696	258	2650	615	132	109	1
-22580	-12388	23792	-1100	-5839	-4169	-16328	-3624	-11304	875	-6782	-46	1664	-248	-14104	1090	-1510	-296	-9704	6736	9944	30	560	-408	-13440	2544	-2464	353	803	36	-14856	2792	-3160	1397	3153	1091	128	113	1
-28980	-15656	27148	-942	-5815	-4465	-22672	-5904	-12816	1535	-7050	-126	-480	-1192	-11280	2095	-1595	-373	-9360	7552	10264	-110	412	-456	-14528	1240	-3336	765	1134	53	-18472	2072	-4200	989	2227	1212	126	114	1
-32768	-19404	29312	-683	-5620	-5218	-31296	-3984	-17824	1740	-6923	362	-6224	-3064	-2512	2030	-2040	-611	-9624	6744	11384	-232	439	-560	-14840	1416	-2824	848	1171	54	-18880	3256	568	1200	2052	718	126	115	1
-32768	-14540	22304	-202	-5083	-5830	-24112	-4040	-20912	673	-6527	588	-9792	-4392	-1144	1931	-1835	-1164	-9648	4904	12872	-211	665	-556	-17200	1536	840	1078	1471	23	-17136	6480	4424	1032	2112	468	128	120	1
-32768	-10692	6448	700	-4335	-4838	-23712	-10464	-21848	527	-5290	42	-18152	1440	14504	1040	-2454	-806	-8984	5040	14600	-143	1087	-548	-17832	3384	3488	306	1892	-287	-22616	-1776	7016	192	1673	462	125	123	1
-32768	3616	-15328	51	-3320	-2868	-15472	-10824	-32768	2412	-3604	-337	-32768	12192	25472	1416	-3900	-1583	-8640	6720	16288	-47	1711	-697	-22296	2392	2040	-349	2374	-551	-27632	-3776	7608	255	1438	416	124	123	1
-32768	14568	-25756	-1383	-1440	-1782	-960	2856	-32768	1093	-1446	-158	-3744	-5784	31832	-256	-945	-284	-8328	7568	17120	-8	2477	-994	-24680	192	1928	-328	2804	-641	-26656	1952	6592	536	1135	266	120	119	1
-32768	13904	-28460	-724	-78	-389	1288	-3976	-32768	-1790	1184	-900	-14896	3032	15088	-387	1883	-319	-7992	8344	18392	34	3345	-1424	-26048	2384	2528	-241	3271	-746	-28448	2656	8320	206	306	134	119	113	1
-32768	13124	-15848	-963	1055	1194	-4000	-14648	-32688	-458	3218	-1152	-16992	-2872	-4336	-395	2000	-549	-6408	12400	18304	156	4265	-2161	-28552	880	5560	-263	3645	-766	-28344	-1024	13848	41	-604	-139	109	103	1
31868	-32768	5784	3124	2425	91	-13816	-6128	-11864	759	3947	-319	9800	10656	-32768	-422	6188	-387	-4120	12968	20232	293	5604	-3404	-32416	-4224	8528	235	3954	-433	-25528	-5256	24936	553	-1466	-412	102	91	1
32767	18220	14236	5407	4870	1956	-32768	-29176	32767	2954	1116	-509	-23256	-32768	32767	1336	673	-143	-13920	15544	25344	244	7814	-4540	-32768	-4072	14024	1714	4078	-389	-25920	-14208	30432	-362	-2470	-346	64	51	1
-32768	11972	32767	1669	4660	3436	-5456	24784	-32768	11493	3660	1098	-32768	11936	2312	8489	-165	-816	-32768	9536	30088	821	9088	-4884	-32768	-3152	-2144	1669	4689	-373	-24824	-8480	7456	3705	-2414	-1137	19	22	1
-15408	-29112	14348	1639	4528	977	-26520	8920	-15136	1270	3502	24	-25896	32767	5208	8510	542	-280	-32768	32767	32767	1111	8569	-5070	-32768	17592	-2200	2332	4376	-1013	-32768	17040	-20328	5981	-2701	-395	72	54	1
-11872	14236	20728	-104	1118	831	-13752	12000	-16976	1500	2910	-2021	6216	23648	-22448	-1640	649	1184	-27352	32767	32767	-335	5525	-5037	-32768	13360	-6936	420	2960	-336	-32768	10496	-18456	2536	-3124	725	120	123	1
-18640	856	18460	394	566	343	-11176	-8504	-24168	-2486	2396	-1145	-19640	3768	-23568	-2971	1118	524	-32768	32767	32767	772	-1176	-1404	-17032	-2344	-25072	-1149	2658	-544	-32768	5192	-10816	-1090	-3796	1091	183	199	1
-9996	-9252	13432	-1	284	74	-20712	-7088	-14688	-3297	1600	-1558	-21112	-16432	-18344	-2987	2524	-1236	13848	27088	22984	563	-4612	566	-17656	1704	1200	818	130	-720	-32768	-3848	-15976	-1363	-3047	614	172	210	1
-8056	-8364	12488	40	166	42	-17984	-15264	-8840	-2314	993	-660	-19848	-19256	-12080	-16	2184	669	14656	21544	12280	522	-4703	964	-12088	-1072	488	1394	-1711	252	-25712	-6800	-16888	-201	-3147	454	180	196	1
-7636	-4940	14524	20	275	64	-15608	-7464	-8144	837	983	-15	-18024	9760	-5880	1390	2423	647	8936	20472	12216	115	-4835	1596	-5416	560	-2936	1323	-2784	671	-22216	-1680	-15640	69	-3410	368	188	188	1
-7560	-4076	14580	-120	367	15	-18880	2800	-5360	377	883	-139	-16416	6496	-1456	392	2523	291	168	14056	13856	608	-5125	2617	-5520	360	-5160	856	-3945	1053	-14096	-656	-17032	-536	-3164	-135	190	180	1
-7564	-5480	14136	-171	459	83	-16824	-2216	-2888	-1054	588	-278	-16600	-1256	-2608	-175	2455	6	-6408	12056	13104	1395	-5659	3737	-7600	328	-6688	108	-4766	1301	-7328	-200	-17320	-1067	-2783	17	156	156	1
-8064	-6980	13324	-77	498	198	-14072	-5840	-2632	-1335	569	-461	-17016	320	-2816	-681	2420	192	-7864	10776	13848	1568	-6064	4222	-6848	24	-8400	-128	-5573	1521	-4128	160	-16608	-1218	-2069	214	157	155	1
-8784	-6560	12680	10	470	268	-15232	-7696	-3184	-989	565	-271	-14832	-3560	-2408	-938	2375	246	-12072	5592	17040	1948	-6270	4124	-9888	-1112	-7128	137	-6189	1747	-2192	2552	-15104	-1226	-1465	238	140	145	1
-8400	-6188	13036	71	448	308	-15304	-6360	-3664	-265	625	-69	-12504	-4144	-1240	-234	2098	352	-18272	6704	20744	2779	-6449	3654	-13864	-5880	-10520	45	-6621	2046	640	1784	-14992	-2036	-1238	-5	156	142	1
-8644	-4520	13372	37	446	324	-14448	-1504	-4896	6	661	-126	-12704	1120	-1576	-51	1966	412	-23584	10456	23504	2979	-6406	3392	-16232	-6520	-10560	597	-6683	2122	3016	-376	-15136	-2520	-952	-353	144	127	1
-8792	-4348	13284	-9	485	316	-16064	-712	-4720	-558	656	-84	-15632	4064	2720	-458	2470	278	-26824	15184	26088	2656	-6008	3816	-20872	-2824	-14776	1048	-6726	2212	296	-248	-10648	-1568	-1131	-433	129	120	1
-8648	-5504	12940	-84	527	393	-17128	-504	-3248	-1334	677	-255	-16624	2496	2720	-1547	2838	619	-32768	18736	27832	2348	-5461	4390	-31784	640	-18504	468	-6745	2649	-3744	-808	-3392	-426	-1620	-152	106	121	1
-9112	-6084	12520	-129	594	520	-15688	-1232	1128	-2096	830	-422	-18536	456	3896	-1669	2090	508	-32768	18168	19360	2265	-4833	4898	-26880	7968	-18384	-1155	-6212	2346	-6584	1136	-912	-54	-1378	319	145	124	1
-9444	-5756	12692	-70	673	559	-11408	-6680	2208	-1674	1293	-366	-20568	-3816	9256	-1090	1816	87	-32768	1960	13520	1682	-3041	5739	-20072	-648	-24936	-3501	-5289	1446	-14016	4576	7520	-273	-2000	423	130	128	1
-9448	-4028	14660	-109	966	525	-17824	-4696	808	-438	1765	-83	-20008	-1592	10128	-1143	2315	-352	-32768	-8088	-1040	178	-1393	5970	-17824	-5400	-30224	-2964	-3496	-76	-32768	6360	25368	-1836	-4204	937	117	131	1
-8656	-4324	16244	-164	1532	607	-21112	-920	2600	-372	2205	-48	-23248	-624	10832	-1083	2195	218	-32768	-27352	-14032	193	-269	3406	-1816	2216	-32768	-2730	-2011	30	-17504	-8376	22520	-1315	-941	731	118	129	1
-8548	-4640	17212	-251	2361	721	-20240	-2584	4880	-454	2780	-31	-28480	-6368	14160	-515	1166	466	-32768	-20840	-12616	782	304	850	776	-5600	-32768	-1789	663	82	-17376	-4344	20640	-2048	1124	-147	81	87	1
-7716	-6612	18616	-284	3351	1020	-22512	-4896	4576	150	3407	-44	-26608	-4272	16832	101	51	128	-32768	-11600	-9568	141	1032	-910	-5344	-296	-32768	1043	3050	223	-19088	-7280	14784	-2211	1455	-264	90	68	1
-6608	-9836	20804	-284	4610	1647	-31608	-792	5320	421	3870	-216	-27264	-2584	22592	293	-1127	128	-32768	6392	-304	66	2040	-1311	-12888	6688	-30792	376	4195	9	-4256	-1624	-10936	-985	3261	92	93	57	1
-2524	-10852	21584	-666	6214	2827	-32768	4240	8144	-635	4119	-576	-24352	-2856	32767	1067	-4043	105	32767	14576	17640	-2899	4105	29	-32768	-4552	32767	2480	2378	-1083	15016	32767	-32768	2643	2379	204	118	95	1
-2716	-14472	23244	-1163	8430	4444	-32768	6696	14808	-2505	3960	-950	-18176	26368	5992	-1204	-2156	1207	-32768	-32768	32767	-3934	7361	-4272	-29872	1008	-32768	-7481	1467	1354	-32768	12016	11352	-9008	-295	2457	123	129	1
-32768	-7752	24204	-2467	10658	4587	-32768	-920	-3800	-3275	4156	-568	-27408	1392	8328	-4026	-885	794	-32768	32767	25424	-2752	4465	-3264	-12160	-29504	-26016	-3933	3868	-2307	-32768	-32768	-1352	-4931	1136	866	145	165	1
-32768	-32768	32767	-4279	10037	4245	-32768	-19840	-3112	-4361	3613	-143	-31184	-10264	-22608	-5571	-1609	1371	-8400	-22520	29104	-567	1178	-896	-25040	-21104	-17248	-3103	2291	666	6208	-6624	-27432	3162	1558	58	147	153	1
-32768	-32768	32767	-1290	6567	5314	-27256	-26144	-8360	43	2753	-1026	-32768	-440	-7928	-1196	-2838	-903	-13712	4696	14584	-192	681	-307	-10064	-1840	-22224	2303	2622	735	2368	7232	-22120	3063	1162	-403	135	111	1
-32768	-32768	32767	-686	5295	5014	-12704	-8920	-26600	1891	2092	-389	-32768	-5520	-12496	766	-2489	-1369	-9184	9704	12088	93	593	-220	-18272	8752	-17096	2213	2129	729	-27704	24712	-21992	2352	2178	1434	109	102	1
16740	-31084	23440	498	-6114	-1277	-16640	-176	4216	-192	-367	760	-32768	8168	-18168	1350	-2216	-1729	-9328	8184	11680	52	410	-180	-18496	9480	-12872	654	1173	253	-20416	18328	-15760	-552	2371	739	73	87	1
17144	-8668	10468	250	-5249	-1564	-13584	-2664	-816	822	-1930	-355	-27880	11832	-17656	-46	-2767	-1574	-7648	6480	13728	45	453	-224	-20288	-32	-9000	-971	545	-157	-22536	-2600	-11472	-1397	2676	-511	99	94	1
7800	-11192	13688	-985	-5015	-2210	-1848	5184	-4872	732	-3446	25	-22288	5088	-16808	-250	-3136	-1172	-7504	5592	14144	135	642	-209	-19448	-7392	-7176	-277	351	217	-17592	-6528	-4072	-792	2638	234	102	74	1
-3144	-14624	14716	-992	-5324	-2826	-4920	-1232	-5144	-377	-4297	141	-10328	5128	-15432	29	-3211	-900	-8032	6056	13312	293	806	-203	-19480	-1672	-4520	1284	288	395	-13352	-192	-2512	-294	3126	302	89	63	1
-9576	-11372	15056	-668	-5991	-3529	-6152	-208	-5936	29	-5217	-188	-960	5568	-14472	-17	-2750	-933	-7872	8344	12248	293	862	-260	-18376	4672	-1776	1619	296	290	-17264	-1272	-2744	546	3357	435	101	68	1
-8872	-7972	13644	-807	-6177	-4032	-8192	-456	-5248	231	-5813	-211	-2296	3496	-14344	-93	-1983	-947	-7424	7920	12536	171	857	-443	-16544	2984	-1200	1359	474	244	-17328	-2888	808	1273	2894	636	112	83	1
-9520	-7156	15164	-845	-5752	-4128	-10920	-1408	-7256	1290	-6446	-492	-4304	3776	-14472	197	-1769	-907	-9272	6120	11016	98	864	-552	-15048	4168	-1264	878	542	135	-11576	-856	4120	619	2363	589	124	101	1
-18936	-8932	22724	-990	-5698	-3934	-14072	-520	-10272	618	-6500	34	568	3936	-12528	395	-1660	-476	-9824	6920	9936	6	812	-562	-13928	1808	-1200	284	631	-3	-9296	-512	4472	38	2274	774	124	116	1
-24708	-9272	26176	-1000	-6014	-3941	-15128	-976	-11592	842	-6933	-162	2504	1328	-13472	1256	-1585	-316	-9992	7240	9872	-107	664	-604	-12920	1968	-1448	234	852	72	-16072	48	-1504	1241	2928	973	124	116	1
-28956	-10992	27856	-976	-6052	-4186	-20008	-760	-12448	1392	-7047	-72	1344	1064	-10800	2021	-1694	-195	-10144	6272	9576	-182	529	-647	-13520	1048	-3304	497	1107	74	-19808	1536	-3472	1245	2344	955	129	112	1
-32760	-12816	29624	-907	-5697	-4700	-30344	-336	-15896	1051	-7014	219	-2672	-992	-2672	1821	-2027	-292	-9960	6520	10808	-171	517	-689	-16232	-1144	-1992	1154	1406	91	-16888	1088	16	1190	2112	626	129	117	1
-32768	-12332	26968	-455	-5197	-5096	-26016	-4656	-17896	253	-6643	307	-7568	-2464	2400	1586	-2042	-743	-9832	4344	12520	-177	704	-692	-17624	1264	1120	1379	1534	37	-16240	3704	2488	1206	2188	600	126	121	1
-32768	-7868	10964	516	-4630	-4402	-24664	-8200	-21512	1004	-5379	270	-13776	1504	13440	570	-2221	-558	-9288	4800	14520	-161	1052	-665	-17352	2552	2976	572	1882	-250	-20168	-2064	4936	617	1795	626	127	122	1
-32768	2972	-10972	234	-3464	-3006	-16280	-6808	-31168	2494	-3820	70	-32768	7160	29912	1251	-3935	-1496	-9008	5576	15760	-110	1643	-720	-21216	528	3680	-434	2307	-531	-26656	-3928	6952	301	1331	428	120	125	1
-32768	13616	-24992	-902	-1730	-2008	-2008	-1464	-32768	1060	-1653	36	-10440	-1968	23952	-193	-878	-1048	-8672	6624	17104	-17	2414	-857	-24760	104	1984	-579	2789	-703	-28152	3064	8112	439	1070	58	117	120	1
-32768	14588	-26464	-575	-356	-294	-808	-3816	-32768	-1655	863	-598	-17536	1320	17072	-1155	1561	0	-8696	7152	17336	-10	2552	-895	-26888	2912	3608	-429	3199	-823	-29912	3680	10008	217	471	56	120	116	1
-32768	11948	-18464	-1251	575	1393	-3720	-13208	-32768	-901	2908	-896	-19376	-1680	-4144	-1272	2075	-5	-5768	13000	17264	290	4261	-2062	-28632	2280	6984	-331	3659	-874	-30776	656	15208	0	-553	-168	113	101	1
-2676	-15676	17256	4936	3538	2710	-23336	-1520	30192	-226	2926	-994	736	4280	-6984	-251	3586	-574	-3288	14752	21336	453	5685	-3395	-32768	-3320	10264	401	4027	-550	-28064	-2200	26248	374	-1526	-433	95	81	1
-26632	32767	26556	3895	6965	4207	-32768	-29056	-30472	6420	2920	-1076	-32768	-32768	30624	601	236	-981	-24384	10952	26304	510	8238	-4398	-32768	-6672	16624	1713	4028	-656	-32120	-10032	23888	-4	-2936	-414	59	48	1
-32768	-10652	22524	562	3641	2711	-6528	32767	-24768	4407	4444	1613	-20984	32767	-17416	4867	1664	780	-32768	1440	32248	1422	9360	-4567	-32768	-9560	-10328	923	4744	-651	-25328	-3208	840	3481	-1939	-1463	30	28	1
-32768	-14752	27896	1538	2916	1342	-18720	-20344	-29600	262	3143	-961	-12288	22776	-14984	1126	1020	-734	-32768	32767	26272	1630	8450	-5146	-32768	20792	-2208	2072	4070	-1317	-32768	11136	-25280	5226	-3185	-163	78	60	1
-6828	-13912	13156	127	1039	657	-10504	17808	-19040	191	2357	-1576	-3808	3304	-21008	-1139	1299	1533	-8752	32767	32767	-856	4562	-5576	-28144	14344	-11192	-760	2688	-512	-32768	10184	-16248	1664	-3206	915	140	142	1
-9172	3012	17768	23	336	184	-16896	-1136	-17672	-2590	1996	-913	-28000	1560	-21880	-1604	1899	-726	-32768	32767	32767	7	-1437	-520	-17704	-5104	-24400	-2256	2633	-880	-32768	8816	-11808	-1537	-3811	1028	202	202	1
-8304	-6892	13524	-107	176	8	-17664	-9264	-11344	-3956	1300	-1233	-16392	-11896	-12096	-1836	2031	-280	13904	26912	21584	55	-4665	1522	-15496	688	1224	460	85	-1120	-32768	-5656	-16760	-1801	-3020	558	188	197	1
-6700	-5188	14052	-71	180	49	-17968	-12800	-6624	-1069	888	-528	-18488	-5096	-8528	392	2351	544	15120	17544	12448	-259	-5084	1425	-11112	-8	1816	1357	-1674	132	-23608	-10304	-14432	-463	-3227	299	181	191	1
-7804	-4632	14212	-232	316	32	-16328	-4368	-6520	1183	947	-68	-19000	3712	-4592	364	2534	872	8928	15920	11184	-101	-5219	1477	-4904	1160	-1496	1161	-2814	677	-20464	-4208	-14904	-213	-3517	135	188	188	1
-7596	-6840	13604	-262	372	2	-18688	-1520	-3904	27	779	8	-14448	-4232	-1576	106	2491	444	2232	12944	10736	301	-5459	1968	-4728	176	-4056	689	-3918	1065	-12768	-2504	-16336	-463	-3237	-259	156	163	1
-7536	-8120	12896	-123	344	99	-14624	-3840	-1680	-1217	539	-259	-16208	-768	-2192	109	2533	37	-5160	10904	11792	1137	-5680	2948	-6312	-1360	-6872	195	-4695	1243	-6152	-2192	-15960	-680	-2735	-59	163	160	1
-7616	-7540	12696	27	312	204	-13384	-6200	-2040	-1379	536	-364	-16216	592	-2504	-633	2348	178	-8168	11064	13480	1545	-6010	3824	-6184	-1976	-8768	312	-5401	1431	-2616	-800	-16288	-612	-1992	93	116	155	1
-7820	-6740	13052	111	294	282	-16656	-8160	-2384	-556	622	-87	-13176	-3136	-760	-840	2220	279	-10872	7056	16296	1762	-6198	4147	-9152	-2104	-7912	717	-6022	1739	-1720	1832	-14368	-695	-1459	151	142	147	1
-8288	-5208	13356	87	311	272	-15632	-3856	-3296	285	684	61	-12648	-2784	1608	-561	1998	529	-17680	6616	20416	2425	-6271	3765	-13080	-4800	-10400	714	-6485	2028	16	1744	-15224	-1584	-1208	-82	150	140	1
-8244	-5116	13336	8	341	282	-15168	-984	-3912	104	738	9	-13152	1272	3168	-43	1944	526	-23808	7776	24304	2762	-6508	3336	-14648	-5304	-11440	981	-6649	2314	2016	504	-14720	-2182	-915	-338	144	124	1
-8108	-6420	13272	-63	383	404	-16000	184	-3568	-827	713	-145	-17336	1184	208	-884	2956	520	-25808	13432	24304	2695	-6354	3340	-20032	-4168	-11704	1204	-6593	2403	392	-720	-11984	-1355	-973	-446	150	126	1
-7992	-5572	13604	-108	444	463	-17016	-968	-1424	-1576	814	-307	-19464	2280	-144	-1667	2603	776	-32768	17616	27352	2337	-5506	3828	-31488	-712	-16784	433	-6621	2744	-4488	-1024	-3360	-418	-1569	-245	141	128	1
-7972	-6456	14056	-134	552	558	-16080	-2760	1784	-1657	1069	-340	-20464	1512	6248	-853	1500	220	-32768	15144	22280	2120	-4626	4627	-27560	1752	-17832	-904	-6218	2335	-7896	1424	648	-47	-1480	101	102	129	1
-9300	-4560	13700	-111	789	537	-15384	-5408	1640	-1031	1495	-204	-19176	-3352	10112	-876	1927	15	-32768	6528	15776	1439	-2988	5598	-21816	-488	-23840	-3199	-5310	1312	-13656	5464	4472	-302	-1636	422	132	128	1
-9456	-5156	14432	-145	1111	479	-16880	-3168	1200	-318	1902	32	-17040	-2520	9088	-997	2527	129	-32768	-3040	568	-404	-1674	5817	-20784	-56	-28248	-3503	-3792	56	-32768	4600	20376	-1512	-3762	1098	120	128	1
-8380	-5248	16028	-206	1648	519	-19472	-1808	2808	-246	2332	56	-22448	-1760	9688	-507	1992	378	-32768	-23264	-15208	-235	-209	3923	-5392	-856	-32768	-3508	-2437	-143	-26624	-8416	19600	-1217	-1773	903	108	131	1
-7652	-6572	17560	-164	2460	760	-21464	-3152	3728	-112	2865	57	-28288	-4600	12144	-328	1115	460	-32768	-20312	-14088	644	350	1227	1208	-3328	-32768	-1765	171	80	-12496	-728	24256	-2078	1015	-249	84	90	1
-7328	-7148	18560	-154	3448	1117	-24120	-4064	2736	253	3393	36	-27144	-4304	13016	37	240	202	-32768	-17088	-10568	614	777	-802	-2688	-2560	-32768	843	2620	528	-17536	-9624	2768	-1652	1577	-363	92	75	1
-7244	-7556	19564	-95	3627	1176	-30800	-1216	4760	267	3789	-96	-27000	-3056	19312	407	-763	203	-32768	1072	-640	432	1280	-1761	-10416	7720	-28024	1167	4353	87	-8888	-10712	7336	-1059	665	-109	115	51	1
-4344	-12768	21724	-498	6160	3023	-32768	2776	7864	-409	4012	-501	-26408	-1224	32767	467	-3637	264	5144	32767	19776	-3768	2897	-254	-26616	120	28512	1455	3179	-178	21088	26664	-32768	4877	4076	348	120	101	1
-2340	-14932	22660	-1123	8103	4767	-32768	8080	16408	-2419	3833	-887	-18328	22136	-9736	-1155	-953	1030	1496	-29968	21920	-4045	8177	-3610	-32768	8664	2464	-2740	1168	960	-32768	32767	32767	-5587	-3691	2000	136	126	1
-32768	-12264	21256	-1996	9947	5515	-32768	-4568	8	-4255	3885	-961	-19152	10616	13280	-2928	-654	703	-25736	1024	20240	-2361	4401	-3535	-23520	-32768	-31144	-7619	2842	-1421	-32768	-32768	-648	-6953	1282	567	145	169	1
-32768	-17252	32716	-4237	9856	4498	-32768	-15336	-1496	-4669	4042	-526	-29504	-9736	-22896	-6536	-1011	1368	-32768	-26880	32767	-1411	1712	-1220	-23176	-10800	-32768	-2294	3232	-308	-1856	-20136	-13320	2091	982	-794	136	162	1
-32768	-32768	32767	-2894	6624	5253	-31352	-21200	-4496	-1322	2762	-869	-32768	-144	-9768	-2426	-2453	-503	-14304	21496	6360	22	964	-402	-11168	-7792	-21080	1893	2573	1114	12888	6648	-24024	4023	628	-223	122	105	1
-32768	-6264	32767	558	264	3030	-13080	-11544	-27168	1147	1996	-622	-32768	-984	-12440	104	-2490	-1362	-9224	9152	12208	83	602	-274	-16624	12912	-16032	1874	2264	604	-27824	26320	-24664	2945	2142	853	111	88	1
11484	-32768	27476	813	-5670	-1785	-15080	-664	8312	-704	295	329	-32768	-312	-14024	1077	-2452	-1849	-10008	7304	12128	109	467	-219	-18248	9592	-15912	695	1309	362	-22440	22640	-21656	-124	2344	1271	107	93	1
17716	-9876	11828	659	-4853	-2374	-14888	-6216	-32	938	-1535	-206	-29816	8632	-17984	222	-2539	-1803	-8000	6288	13520	68	415	-194	-18824	8584	-15024	416	1174	228	-21680	2936	-12352	-1975	2875	-190	100	92	1
10116	-10944	13960	-487	-4598	-2878	-3856	-128	-3664	1902	-2998	-229	-21088	5952	-16216	-312	-3075	-1382	-7224	4880	14640	251	629	-196	-20680	-11608	-7904	-585	300	234	-20544	-14168	-7272	-1608	2608	85	100	79	1
-320	-13028	15816	-446	-5122	-3221	-3392	-1304	-5048	929	-3844	300	-13352	2376	-15016	69	-3041	-1083	-7888	6008	14048	472	890	-193	-18752	-4344	-4912	1501	260	497	-11904	-4632	-1456	-246	3138	505	95	72	1
-9064	-9464	15488	-377	-5889	-3538	-6424	-1016	-5992	985	-4801	32	-2736	2984	-14360	281	-2631	-1170	-8304	7712	12048	546	963	-199	-18640	4288	-1808	2107	298	443	-15952	128	80	678	3554	339	101	71	1
-8560	-7236	13336	-491	-6319	-3718	-7448	16	-5808	637	-5462	89	-2744	1544	-14568	421	-1928	-1124	-7432	8664	11904	461	987	-330	-17064	5616	992	1674	488	291	-18144	-2184	1408	956	2625	587	109	84	1
-10632	-6696	13276	-707	-6140	-3775	-10016	-3088	-6800	1184	-6198	-259	-5432	2096	-13688	743	-1640	-1063	-9112	7504	10864	316	1009	-492	-14968	5440	392	1154	698	118	-12872	1192	7336	699	1954	763	122	107	1
-14220	-10164	17808	-908	-5702	-3564	-13480	-696	-9208	313	-6043	507	-1832	4928	-13760	1146	-1614	-760	-9152	7624	9808	71	876	-610	-12416	3912	440	352	777	69	-10672	-1232	6896	239	2091	970	126	120	1
-24336	-14656	23832	-890	-5888	-3669	-15024	-4464	-12320	452	-6670	226	-584	4496	-14048	1482	-1592	-600	-9736	7704	9128	-155	663	-636	-11880	3648	-1368	250	1012	62	-15800	-1296	-1368	1376	2689	831	124	117	1
-28804	-16480	26088	-821	-6348	-4049	-18520	-5456	-13728	1109	-6999	-162	144	4480	-11032	1765	-1887	-299	-10248	8160	9744	-352	525	-746	-15240	3104	-3304	226	1336	7	-18224	3208	-3272	1514	2470	919	129	112	1
-30948	-18860	25200	-949	-5921	-4479	-31608	-2400	-16168	1472	-7070	-96	-2008	1752	-6872	1581	-1982	-340	-10368	5520	11256	-359	563	-859	-18032	-1112	-3912	633	1465	47	-19120	1040	-1368	1035	2361	808	125	110	1
-32768	-11564	25524	-1170	-4948	-5053	-23504	-3784	-19040	855	-6808	-38	-5664	-1376	-2144	1608	-1622	-644	-9976	4496	12288	-225	754	-794	-15792	-1928	392	1209	1641	-13	-14544	1416	2048	1069	2239	663	125	114	1
-32768	-9736	20932	-665	-4472	-4835	-28376	-6896	-21016	45	-5876	-34	-15208	-1872	12256	984	-1953	-720	-9568	4496	13952	-139	1160	-686	-16848	1248	2528	658	1991	-217	-17768	-2408	2792	648	1748	678	125	121	1
-32768	6456	-2240	-446	-3582	-3277	-23096	-10048	-26024	747	-4609	-274	-14856	-496	20016	1046	-2476	-927	-9016	4992	16112	-59	1801	-643	-21128	1520	1952	-667	2362	-558	-26736	-1056	3680	132	1195	330	132	123	1
-32768	16592	-19564	-1356	-2300	-1479	-2240	-3400	-32768	934	-2285	-625	-17480	1760	23992	449	-1530	-2263	-8672	7320	16848	42	2571	-832	-24784	472	1344	-966	2768	-709	-28792	5224	8176	-30	965	-164	115	120	1
-32768	18980	-24776	-838	-775	-248	584	1864	-32768	-904	442	-863	-16800	40	27424	-1194	997	-243	-8368	9120	16824	115	3354	-1245	-25024	2152	3520	-621	3154	-712	-27496	1352	10832	-297	549	20	118	116	1
-32768	15544	-14972	-432	724	955	-4488	-7712	-32688	-853	2814	-840	-19976	2256	168	-826	1794	-400	-6208	12624	16528	230	4313	-2016	-26608	2264	6448	-341	3588	-747	-28504	-3640	14200	-154	-448	8	112	112	1
-6148	-32768	3128	1857	1924	646	-10544	-5200	-20736	529	4046	-317	-17928	-2112	32767	-786	2851	-354	-5816	14624	18496	517	5595	-3133	-29872	-5328	9256	110	3973	-371	-25576	-5664	22528	459	-1124	-317	98	86	1
32767	2592	28960	4475	4417	1977	-32768	-4800	32767	1497	1473	43	12040	-22360	-5784	-2577	2039	931	-20736	7504	25504	676	7789	-3907	-32768	-6880	10416	1426	4066	-332	-26424	-12136	24864	-617	-2712	-472	83	62	1
-32768	19024	32767	1162	5087	3014	-11912	15424	-32768	8952	4021	483	-32768	-7168	360	5959	-208	-1112	-32768	14760	30080	1288	9193	-4124	-32768	-2016	2096	1403	4479	-659	-25624	-13912	3944	3224	-2045	-1118	4	10	1
-17676	-32768	14244	1446	3677	1344	-17664	-2240	-14600	587	3767	231	-28904	32767	-11248	4428	1888	-1062	-32768	32767	31944	1370	8526	-4460	-32768	17576	2296	1800	4248	-1076	-32768	18472	-18696	6921	-2626	-485	66	46	1
-16872	16968	23748	247	1112	803	-18872	9072	-16592	1962	2939	-1600	6328	5504	-22176	-1993	-50	703	-27456	32767	32767	18	5473	-4708	-32768	14232	-10816	-284	2974	-663	-32768	16688	-19904	3238	-3108	530	93	93	1
-17420	-3836	18368	549	640	363	-9336	-1648	-22312	-2117	2302	-881	-14168	1504	-23192	-1845	1574	416	-32768	32767	32767	594	-212	-1948	-18792	-1872	-27360	-1651	2646	-612	-32768	10336	-11304	-1445	-3791	1172	144	154	1
-8084	-10996	12992	182	346	185	-19216	-6872	-14120	-3534	1630	-1212	-23960	-9672	-17736	-2166	2180	-740	7032	27328	27384	228	-4550	-309	-18464	2912	-1384	698	232	-862	-32768	-1824	-17400	-2160	-3105	305	194	209	1
-7988	-6932	13032	133	200	80	-19696	-14024	-8432	-1890	1015	-801	-18448	-12864	-10992	-175	2191	204	12048	19600	14376	247	-5482	-75	-10704	368	-592	1542	-1472	-231	-27448	-8648	-17488	-840	-3349	107	195	200	1
-8616	-4480	15036	5	336	73	-15848	-5280	-9456	1339	907	41	-20464	7720	-5600	1177	2587	793	7528	19768	10944	178	-5834	378	-5080	160	-2232	1875	-2558	344	-21464	-1112	-16000	-564	-3691	-96	192	198	1
-7940	-3460	14796	-204	397	19	-19064	4984	-6544	377	789	-175	-15688	4712	-3248	250	2595	424	6480	20624	10792	211	-5851	475	-4456	-352	-5808	1979	-3737	739	-16288	776	-17552	-1106	-3292	-479	184	176	1
-7464	-6148	13888	-239	451	49	-16480	-4336	-3720	-1568	540	-356	-17184	-2560	-3496	-379	2596	41	-3296	12496	8288	1374	-6272	2646	-6136	1496	-4896	1581	-4584	1121	-6776	-1488	-16464	-1284	-2801	-206	176	171	1
-7616	-7824	12892	-159	470	140	-14552	-7832	-2688	-1712	436	-442	-17176	-2232	-2808	-816	2470	264	-6560	13944	8224	1727	-6141	3567	-6560	1808	-7832	1085	-5270	1489	-4256	840	-16984	-1090	-2037	-54	158	163	1
-7844	-7360	12904	-43	466	246	-15240	-10120	-1056	-1116	490	-216	-14840	-5008	-88	-888	2275	417	-10872	12688	13072	1715	-5868	3950	-8496	2192	-7328	614	-5930	1897	-2168	2184	-15000	-900	-1462	70	130	155	1
-7968	-6176	13348	33	500	340	-16224	-6368	-2192	-78	601	85	-13856	-4216	1528	-112	1907	445	-19960	10376	18976	2164	-6035	4115	-12704	-848	-11096	-194	-6387	2179	104	944	-14368	-1452	-1123	-56	156	146	1
-8256	-5244	13660	-79	536	365	-15328	-1640	-3112	-81	724	-22	-13928	-152	2456	-185	1661	324	-23488	10872	21248	2856	-6163	4216	-16848	-3104	-9984	-221	-6635	2249	192	648	-14064	-1601	-1101	-86	145	136	1
-8836	-5552	13332	-55	640	378	-15672	-2456	-3856	-649	778	-74	-15592	2088	4600	-728	2414	317	-25480	16232	23008	2614	-5691	4379	-21536	-1008	-14016	-252	-6707	2141	-1360	592	-10432	-1249	-1194	-219	147	128	1
-8764	-6348	12608	-55	650	451	-16600	-3656	-2992	-1059	856	-82	-19640	-472	-2408	-1853	3112	922	-32768	19240	26896	2224	-5014	4953	-30360	-640	-18720	-412	-6634	2184	-4384	688	-3624	-231	-1537	70	147	133	1
-8740	-6392	13000	-31	709	561	-15504	-2528	-2080	-1213	976	-120	-18192	-1056	792	-1225	2319	771	-32768	18712	20320	2099	-4514	5225	-26904	4696	-17936	-607	-6181	2092	-5816	2920	-2256	1	-1205	505	95	134	1
-9684	-5580	13256	-52	870	605	-14952	-2704	-48	-1243	1286	-212	-16568	1048	8224	-379	1844	40	-32768	2184	15016	2065	-3573	5136	-19216	384	-19456	-2224	-5591	2111	-9864	3936	1296	-354	-1273	465	137	127	1
-9276	-4332	14400	-105	1139	576	-15608	-2840	904	-886	1652	-102	-17896	-8	9312	-1167	2287	164	-32768	-2936	6160	1577	-2049	5385	-20696	-6584	-28120	-2285	-4188	981	-32768	5728	22896	-1942	-4347	695	139	126	1
-8916	-4516	15696	-169	1647	590	-19208	-2704	2784	-536	2086	27	-22216	-1912	10136	-1058	2125	382	-32768	-22056	-10192	107	-797	3742	-7976	-3168	-32768	-1747	-2285	357	-32768	4224	23624	-2007	-4333	702	115	109	1
-8552	-6008	16276	-191	2383	664	-20856	-4200	5352	-175	2706	71	-27592	-5528	14352	-417	1227	376	-32768	-24592	-11448	996	-127	1101	1232	-152	-32728	-1665	-71	397	-10944	-2496	29808	-1230	411	424	98	70	1
-7924	-7136	17316	-213	3275	988	-21056	-5688	3912	393	3293	106	-26704	-4904	15432	-90	420	353	-32768	-17160	-9664	97	839	-498	-3144	-7352	-32768	-64	2410	192	-20568	-8696	5904	-1777	1354	-281	61	66	1
-6508	-8804	17120	-302	4436	1573	-27624	-1400	4512	337	3712	-109	-26488	-1376	19864	95	-825	33	-32768	32767	-9200	-3278	2843	-1353	-12504	2632	-18264	1000	4040	-219	-12384	-7976	12552	-229	52	-306	70	58	1
-3208	-12480	20760	-571	5861	2749	-32768	3376	7112	-709	3978	-586	-25528	-2272	32767	352	-3614	165	32767	6312	32767	-2748	5108	-1699	-32768	-328	31584	463	2125	-1120	4304	30096	-25728	3437	2328	441	114	105	1
-3444	-13784	24808	-1169	8082	4294	-32768	5776	16784	-2612	3878	-743	-25200	19832	720	-1554	-1714	891	-32768	-8296	32767	-2500	4337	-3685	-14056	-8648	-32768	-6617	2706	150	-14064	32767	-7528	1153	260	672	133	152	1
-32768	-11368	23376	-2099	10455	4797	-32768	-1440	-1832	-3248	4019	-544	-29120	9864	13976	-3034	-1161	832	-19512	19952	13088	-1928	4009	-1557	-5000	-13152	-17576	-2878	3815	-2607	-30552	-32768	-22960	-3671	1032	712	141	177	1
-32768	-30244	32767	-4831	10102	3999	-32768	-14760	-3008	-4534	3945	-172	-31360	-4576	-21184	-5032	-1637	1288	-18768	-6072	22848	-769	1369	-1324	-20384	-12976	-24520	-2850	2448	552	-32	-328	-23480	2121	1051	71	136	148	1
-32768	-32768	32767	-2323	6920	5368	-30504	-26096	-4240	-1121	2563	-1136	-32768	5000	-8528	-2579	-2751	-672	-13832	-320	17720	-512	891	-677	-15424	-10904	-24344	1867	2519	534	-12056	6528	-22048	2046	1624	-80	135	129	1
-32768	-32768	32767	-116	-679	2006	-14016	-9904	-25584	1606	2148	-697	-32768	-1160	-9360	-621	-2572	-1086	-9912	10024	12624	-131	597	-427	-21280	5744	-14904	2994	1945	468	-24952	17208	-16664	1342	2189	1567	98	109	1
11592	-32428	27344	382	-6004	-1396	-18760	640	6136	-685	-98	188	-32768	-392	-13944	661	-2101	-1547	-8952	7520	12784	-10	423	-314	-14992	8472	-11768	673	1090	307	-18272	11184	-13232	-185	2363	251	66	96	1
17000	-9868	12520	-165	-5252	-1796	-14624	-4752	456	474	-1780	-619	-31368	8024	-17112	213	-2669	-1625	-7800	5584	13520	24	443	-271	-18752	1720	-9376	-1182	600	-257	-20664	976	-9864	-872	2500	-487	106	92	1
9392	-11516	14656	-1110	-4993	-2292	-4544	2752	-3112	949	-3214	-372	-21720	7744	-15824	-220	-3116	-1369	-7040	6456	13584	-31	535	-281	-19240	-4640	-6296	-1138	306	24	-15440	-1648	-4024	-1178	2693	140	103	79	1
-1532	-13172	15700	-1120	-5391	-2879	-4904	-320	-4968	185	-4048	-124	-12032	5992	-15096	-328	-3266	-1210	-7944	6000	13416	-25	674	-320	-18416	-3576	-4336	513	335	204	-15688	-3984	-2288	-763	2818	426	101	63	1
-8020	-9872	15712	-1016	-6026	-3566	-6104	904	-5984	200	-5068	-313	-4216	4392	-14792	-394	-2835	-1195	-8304	6760	12264	66	731	-341	-16696	1848	-2104	1295	434	274	-15696	-3696	-1888	411	2978	546	100	67	1
-8636	-7640	15076	-988	-6279	-3973	-8040	-176	-5808	81	-5735	-351	-3400	1888	-15192	-297	-2168	-1140	-8376	6432	11864	-9	678	-404	-16088	2752	-2448	1198	571	247	-14792	-3208	912	1776	3258	655	104	70	1
-9416	-6072	15964	-904	-6078	-4052	-10352	-1056	-6776	786	-6429	-782	-4120	1520	-13896	293	-1817	-974	-7800	7136	12088	-61	636	-504	-15864	4976	-2640	720	623	75	-13800	-1808	1976	1655	2790	502	117	89	1
-16308	-5812	22260	-1244	-5849	-3836	-13424	680	-9752	438	-6431	-27	-16	3144	-13160	551	-1766	-635	-9232	5456	11408	-102	659	-539	-16072	-600	-4144	242	638	4	-10288	496	2632	138	2502	536	126	111	1
-23120	-9712	26612	-1389	-6079	-3911	-16512	-608	-12128	710	-6904	-111	1296	1264	-13584	1343	-1696	-489	-9336	5648	11152	-81	611	-512	-14712	-896	-3712	345	730	29	-15368	712	-4312	718	3440	988	127	116	1
-27328	-13396	27620	-1163	-6077	-4256	-19784	-2056	-12552	1248	-7092	-75	1072	728	-12312	2105	-1886	-221	-10096	5576	10904	-94	557	-527	-14824	-1808	-2568	859	933	86	-21120	1184	-9920	1376	2561	811	131	116	1
-32768	-17692	28236	-523	-5518	-4930	-30736	-1192	-17976	1812	-7021	62	-2864	-504	-4720	2126	-2168	-302	-9696	5552	11936	-102	648	-546	-16952	-320	-912	1358	1194	88	-19400	-1328	3608	588	1765	366	129	117	1
-32768	-10828	27204	35	-4834	-5652	-26392	-1064	-20760	1512	-6579	576	-6496	-2264	-448	2213	-1993	-727	-9512	4640	12976	-95	867	-484	-15880	2368	2712	1079	1522	-103	-16008	320	9200	817	2127	486	127	118	1
-32768	-5980	15396	553	-4235	-5328	-24592	-592	-23696	1469	-5296	986	-10864	3640	9168	1495	-2107	-689	-9200	5848	13880	-151	1164	-554	-16992	4432	2656	355	1925	-376	-19952	-4104	5576	845	1931	540	125	124	1
-32768	1940	-8172	1003	-3156	-3644	-17752	-9552	-30360	2449	-3938	378	-32768	8456	32767	1754	-4302	-960	-8824	7336	15744	-200	1668	-757	-22000	1904	1816	-111	2335	-601	-26568	-1440	5848	949	1345	518	127	126	1
-32768	15820	-23424	-25	-1551	-2068	-3016	-3336	-32768	2093	-1731	277	-12472	-1208	24744	64	-893	-991	-8880	6840	17144	-211	2359	-1039	-24360	-888	1784	-130	2766	-707	-26344	5896	7184	891	1005	242	116	119	1
-32768	14676	-26676	-235	-411	-258	184	-496	-32768	-944	972	-383	-17496	2640	24616	26	899	21	-8360	8000	17976	-229	3156	-1376	-24736	2896	2376	-262	3149	-888	-26896	3488	7128	363	426	133	119	115	1
-32768	12176	-17100	-905	626	1499	-2232	-10400	-32768	-1175	3009	-879	-20576	4744	-40	-611	1497	285	-6960	12392	17576	-218	4056	-2128	-27672	2640	4056	-528	3471	-947	-28416	1472	10672	-8	-289	-144	112	112	1
-15936	-20872	2976	4141	3081	2792	-22432	-5624	16040	-929	3589	-990	12680	7272	-20488	-338	4298	-579	-2432	16672	19608	-66	5189	-3427	-32144	-1112	7752	-73	3750	-677	-27568	816	19504	-49	-1237	-517	94	85	1
-9860	29096	14516	3357	6441	3634	-32768	-26352	-7944	4410	2872	-667	-32096	-32768	32767	-1237	865	-634	-13544	16336	22904	-247	7225	-4798	-32768	-1128	19112	1269	3803	-686	-31400	848	20520	-72	-2899	-227	80	74	1
-32768	-11344	30876	844	3392	2657	-3168	23040	-32768	7139	4412	1216	-17248	6880	-17344	4513	777	-605	-32768	9616	26264	-319	8437	-5596	-32768	152	-1376	1033	4280	-448	-23680	-9344	11560	518	-2104	-1350	13	15	1
-16316	-12524	15684	809	3405	1073	-7944	27528	-32000	5265	4418	1368	-13696	25224	-14304	2261	2635	-810	-32768	5872	27200	-47	8460	-5509	-32768	17216	-704	2104	4673	-1254	-29624	5664	-10680	4106	-2843	-540	62	45	1
-23256	-4168	19400	637	1097	1149	-12240	-2952	-21088	517	2599	-1799	-10536	9728	-21200	-1554	909	454	-32768	32767	32767	-136	5987	-5424	-32768	11392	-6280	521	3218	-659	-30624	8592	-21736	3642	-2639	645	91	73	1
-11672	-11236	13232	626	1107	1004	-18848	-2368	-21952	-2148	2098	-940	-25976	-10184	-19768	-1437	2084	352	-32768	29400	32767	-717	724	-1742	-18208	-96	-23744	-1295	2412	-392	-32768	5360	-11160	308	-3524	1089	138	136	1
-9948	-8652	14260	140	248	141	-20608	-4256	-19488	-2335	2051	-948	-17752	-4600	-10128	-150	1834	-484	6248	27800	27336	-386	-3690	1445	-19040	1904	392	367	696	-1167	-32768	1440	-15696	-1090	-3128	904	149	156	1
-7240	-5824	13420	10	168	45	-15880	-9192	-8344	-1170	1139	-501	-18048	-4352	-8832	538	2313	111	14104	18000	14976	113	-4093	1812	-14376	-32	264	807	-1012	-127	-26392	-5328	-16880	-810	-3290	740	168	169	1
-6872	-5488	13672	31	335	92	-16624	-6576	-7208	960	919	-138	-18352	3648	-4408	672	2364	500	9656	20104	14352	302	-4570	2100	-6928	1016	-2088	798	-2269	375	-24712	-3960	-15504	-463	-3000	766	170	187	1
-7460	-5144	14048	-43	396	77	-19064	-176	-5696	882	839	-134	-16656	-432	-1640	441	2429	531	4904	14208	12112	241	-5049	2631	-5232	728	-4024	252	-3497	773	-17936	-3816	-16104	-428	-3332	338	191	192	1
-7552	-5744	13820	50	411	155	-17384	1672	-4408	-1298	547	-330	-17032	1608	-2536	317	2465	154	-1432	9816	11392	1096	-5181	3335	-7104	-832	-5584	-322	-4425	1091	-9312	-2048	-16472	-869	-3010	290	168	170	1
-7788	-7024	13652	103	405	251	-13088	-3872	-2704	-2110	460	-516	-16144	2384	-2032	-601	2514	31	-5728	9968	12784	1514	-5442	3781	-7000	-2384	-6856	-255	-5177	1304	-5232	-2240	-15760	-934	-2317	392	181	177	1
-8136	-5616	13588	94	418	269	-16304	-9312	-3048	-1286	484	-392	-16336	-1072	-1216	-1171	2429	226	-11232	6472	16544	1892	-5804	3829	-7672	-3408	-7848	385	-5779	1592	-2848	168	-14952	-983	-1680	338	167	163	1
-8000	-5508	13996	60	458	285	-17392	-5816	-3112	149	585	-19	-14648	-2440	-368	-825	2508	382	-14848	5256	19040	2563	-6241	3591	-10792	-5000	-9536	631	-6262	1969	224	40	-14352	-1466	-1267	126	159	155	1
-8296	-5312	13380	44	518	298	-15152	-1992	-4200	262	604	13	-14144	-520	1176	-651	2306	456	-18208	7040	21808	2970	-6210	3246	-13880	-7336	-10200	947	-6470	2294	2096	-360	-15136	-2337	-911	-228	157	142	1
-8716	-4472	13532	-83	524	364	-14400	-368	-3672	-568	655	-66	-15072	216	792	-761	2171	571	-23936	12016	24680	2898	-6063	3368	-17256	-4432	-10696	1254	-6450	2375	2272	-1120	-14752	-2184	-770	-489	155	137	1
-8588	-4436	13696	-64	602	434	-16368	-2920	-3672	-1262	695	-272	-15056	24	3976	-941	2403	594	-25840	14928	28368	2595	-5364	4004	-27240	-696	-14864	598	-6630	2693	-2048	352	-5568	-1158	-1250	-368	141	138	1
-9156	-5512	12976	-100	623	500	-16408	-2584	-1712	-1535	810	-263	-17064	-1048	744	-1522	2665	610	-32768	18144	29320	2451	-4623	4669	-32552	-1440	-16432	-751	-6644	2510	-5792	-600	-1392	-306	-1343	-2	125	139	1
-9204	-4952	13104	-62	662	539	-13296	-3664	360	-1406	1097	-249	-19024	-1272	4344	-980	1698	426	-32768	9240	20672	1671	-3732	5498	-21992	2608	-18896	-2531	-5952	1656	-10392	2872	2496	-136	-1219	430	148	137	1
-9644	-4348	13956	-96	866	492	-15400	-5256	152	-817	1504	-54	-19784	-2872	8592	-809	1882	192	-32768	2216	6720	295	-2445	5854	-22072	-3496	-24080	-3212	-4783	804	-27192	4704	19384	-1270	-3227	1034	129	135	1
-8676	-5880	14984	-96	1243	622	-20656	-1920	1504	-671	1845	-37	-22536	1536	10648	-1052	2206	177	-32768	-21760	-10880	57	-886	4669	-11544	-2960	-32304	-3293	-2912	143	-32768	-11552	15904	-1957	-2935	1605	123	133	1
-8408	-5052	16196	-140	1883	787	-20024	-1656	4352	-845	2336	-11	-24200	-1584	13536	-988	1780	383	-32768	-25248	-12832	739	50	2087	1128	-1600	-32768	-2061	-748	238	-6704	816	32536	-1153	-178	-570	114	103	1
-8216	-5068	17716	-110	2746	971	-20680	-3576	4616	-265	2964	67	-26040	-3504	15208	-624	914	287	-32768	-23120	-12024	374	602	-198	-640	-6568	-32768	238	1941	258	-17680	-9256	11032	-1918	1301	-480	104	84	1
-7596	-6744	18852	-106	3825	1353	-25448	-3136	2816	363	3509	55	-26568	-2624	15912	-170	-40	132	-32768	-21104	-11056	306	710	-541	-8920	4120	-31008	1137	3964	117	-16088	-2184	1056	699	820	-441	69	52	1
-5720	-10408	19388	-281	5106	2192	-32528	2848	5568	-42	3803	-237	-26696	-1240	23984	425	-1248	149	21400	10520	30560	-3056	2979	-2293	-32768	-2856	32767	2687	3675	-626	15432	16528	-32280	3209	5269	10	94	86	1
-2444	-10328	24412	-803	6837	3608	-32768	3720	11248	-1742	3873	-611	-27576	-1392	31776	1459	-939	464	-32768	-18992	32767	-3335	5747	-4604	-32768	6528	-32768	-3254	3049	702	-32768	27672	15088	-3008	-2073	1065	112	123	1
-16032	-12052	22788	-1506	9195	5000	-32768	776	10312	-3508	3597	-704	-27200	25480	24704	-802	-2201	920	-18800	12480	14056	-1814	3919	-1935	-9488	-23336	-27728	-4225	4221	-2016	-29392	-32768	-18928	-4920	1570	1361	119	184	1
-32768	3600	26576	-4106	10069	4157	-32768	-7424	-1752	-4864	4300	-338	-29840	-6912	-13448	-5201	-798	1124	-30576	-15328	32344	-1120	1669	-1303	-20472	-3728	-27520	-3060	2674	-108	-8032	-6440	-19824	1712	1253	-330	130	158	1
-32768	-32768	32767	-3277	8354	5328	-32768	-22736	-1408	-3229	2866	-513	-31064	2816	-11552	-3620	-2331	366	-16440	11888	14728	-535	972	-717	-11024	-11664	-23824	859	2428	793	648	2760	-19824	1265	1187	-296	149	132	1
-8660	-32768	32767	-493	4230	5597	-32768	-24864	-152	-2572	2596	-796	-32768	3288	-7736	-1311	-2449	-1097	-8736	9744	12656	-60	583	-406	-21312	2120	-15512	2518	2169	315	-26736	12384	-20928	1367	2135	1017	106	121	1
-32768	-32768	32767	-510	-3578	-1036	-14384	-744	-6936	559	1274	-437	-32768	-6920	-10288	-1	-2237	-1275	-9656	5680	13848	112	437	-308	-16464	8888	-14032	855	1224	516	-20624	11632	-14808	220	2333	876	95	101	1
9284	-22908	19956	478	-5062	-2757	-14928	-4384	2240	-430	-869	99	-32768	4368	-15144	684	-2110	-1519	-7968	5272	14056	157	400	-207	-17392	2416	-11520	-1022	778	-79	-19848	3560	-11512	-858	2637	-316	105	94	1
13572	-8440	11856	-776	-4677	-3294	-10072	-4376	-32	688	-2261	-1009	-23248	7112	-13976	-129	-2384	-1362	-7976	5416	13840	180	414	-196	-19704	-4304	-7936	-932	373	41	-16768	-1776	-6400	-877	2565	9	105	90	1
5148	-12076	13056	-1117	-4529	-3301	-2416	-888	-1872	1035	-3263	-474	-16336	4152	-12848	-169	-2777	-1343	-7256	7360	12904	149	700	-221	-19640	-3392	-5512	629	242	411	-15664	-1752	-3968	-475	2952	532	112	80	1
-7572	-12744	16464	-366	-5223	-3383	-6520	-4072	-5264	1315	-3920	-441	-6640	4072	-12056	-314	-2702	-1370	-7736	7232	12400	168	790	-253	-18192	2128	-3824	1536	298	372	-16576	-1784	-3456	346	3100	423	105	68	1
-9400	-7768	15520	-104	-6137	-3766	-8296	-392	-5416	1315	-4769	-408	-4648	-1720	-12392	-351	-2257	-1373	-8352	7320	11992	103	784	-279	-15936	4384	-2488	1319	358	348	-15800	-2272	640	1601	3330	776	108	77	1
-6552	-4440	11960	-293	-5924	-3938	-9664	-2304	-4576	1757	-5692	-492	-6032	-3472	-13544	203	-1862	-1499	-8248	7544	12288	48	812	-420	-17872	2816	-3288	1375	529	250	-13488	-2984	2272	1613	2834	650	124	102	1
-10804	-7252	15744	-256	-5315	-3688	-13064	2576	-8824	1279	-5462	606	-7856	304	-12752	1046	-1779	-1311	-9288	6120	11304	26	826	-528	-15904	2352	-2520	815	475	76	-9288	368	4288	361	2545	697	134	114	1
-18984	-10720	22752	-134	-5512	-3589	-13944	-2320	-11552	1213	-5949	499	-2720	2952	-13584	1552	-1891	-915	-9224	7008	10768	13	771	-526	-14136	1496	-472	518	609	99	-16072	3152	-4016	1194	3324	941	131	117	1
-23692	-11256	24872	-257	-5853	-3809	-16136	-1992	-12336	1538	-6474	386	-2008	2080	-14664	2237	-2119	-870	-9696	6872	10800	-54	732	-605	-14864	1392	-1528	485	947	33	-21752	6096	-5320	1358	2279	984	129	123	1
-25868	-14968	26272	-587	-5906	-4154	-23568	-3864	-15632	1151	-6825	326	-1584	2504	-11304	2574	-2257	-611	-9688	6000	11224	-102	760	-633	-16568	1120	-1176	909	1228	-7	-20768	1032	2592	557	1715	396	129	110	1
-32768	-16508	26912	-577	-5634	-4460	-30288	-2800	-19504	820	-6954	406	-4576	2488	-5912	2535	-2020	-578	-9288	5960	12448	-69	894	-692	-16088	1776	1760	885	1460	-106	-16960	1576	5880	649	2047	352	129	112	1
-32768	-13552	22096	-666	-4944	-4774	-24216	-7040	-21744	823	-6474	331	-9160	1552	-1008	2060	-1655	-704	-9320	6032	13936	-63	1202	-720	-18352	1008	2824	536	1820	-298	-19568	-3512	5800	558	2029	473	127	118	1
-32768	-9116	7096	-459	-4285	-4230	-23800	-3368	-25104	924	-5072	-143	-24928	5216	26320	1609	-3331	-629	-9064	6736	15608	-78	1738	-850	-21880	1120	3016	55	2248	-510	-27080	-7152	4680	456	1403	620	125	124	1
-32768	9900	-14304	-919	-2708	-3327	-12240	-6360	-32528	1470	-3392	-428	-32768	16168	18248	1228	-3032	-1422	-8624	6272	16720	-64	2480	-1049	-23720	-808	2168	-287	2655	-664	-24968	728	7080	689	1182	197	124	123	1
-32768	18008	-21616	-1020	-1183	-2001	392	-3368	-32768	365	-1041	-354	-2632	-2104	32767	-457	-101	-772	-8272	7056	17200	14	3339	-1253	-23736	1240	3776	-446	3059	-848	-25616	2976	7752	470	744	62	122	120	1
-32768	22556	-26884	-675	175	111	608	-4848	-32768	-630	1541	-914	-14256	4000	12480	-841	2105	-593	-7328	10848	16288	119	4181	-1811	-25648	3808	5888	-562	3458	-988	-26376	2488	12216	-9	-67	-126	115	110	1
-32768	-32768	-30344	4356	3763	1886	-8264	-2848	-29224	591	3545	-945	-19344	2936	1984	-1417	2440	-518	-5984	15360	16072	164	5313	-3020	-27960	-264	9888	-368	3800	-761	-28536	-56	18456	-321	-1091	-362	98	90	1
32767	-14868	32767	3623	5504	1812	-10904	-1088	-21096	371	3700	-916	-10424	-13144	-4416	-2930	3669	-735	-13976	14112	23248	7	7132	-4278	-32768	640	10208	881	3904	-500	-28192	704	24048	345	-2657	-312	84	75	1
-32768	19256	32767	352	4581	2647	-8816	25024	-24296	7592	4208	603	-28520	744	-10184	3208	580	615	-32768	19600	26056	-525	8416	-5098	-32768	2496	-1528	727	4300	-751	-29768	-13504	15352	-2264	-2240	-1045	0	5	1
-15476	-32768	8476	295	3706	2012	-8544	-5576	-16200	277	3731	487	-13168	29816	-19328	3302	729	-394	-30040	18520	32767	904	8507	-5030	-32768	9192	-2936	1190	4815	-814	-27776	-10704	6792	-187	-1974	-1294	48	36	1
-23528	16632	25340	1194	1553	1273	-18560	-19888	-21600	1725	2996	-2321	1288	7400	-24488	-2249	972	892	-32768	32767	32767	307	6417	-5105	-32768	13032	-8776	592	3592	-604	-30688	13320	-23584	4384	-2989	437	78	53	1
-15612	-12292	16760	1076	857	787	-19224	5136	-23544	-1569	2356	-703	-24056	-11880	-23392	-1278	2214	743	-32768	17808	32767	-464	889	-3563	-21128	336	-21632	-1459	2607	-273	-32768	10096	-12328	924	-3421	1021	141	142	1
-8408	-11208	13276	384	262	257	-18080	-4776	-12640	-3709	1698	-765	-22968	-4248	-13200	167	1942	-895	4792	32728	30008	554	-4421	-429	-22640	424	552	915	936	-1140	-32768	1344	-16304	-1144	-3261	691	174	209	1
-7828	-5348	13992	292	191	142	-18232	-10592	-7856	-2301	1200	-543	-16360	1496	-6496	440	2171	-1	14568	21656	15000	245	-4969	127	-14560	-136	1432	1703	-758	-274	-27160	-4856	-17432	-909	-3332	498	191	203	1
-8564	-3188	15044	7	348	77	-13256	-10584	-10056	1557	1160	-128	-18592	4312	-5000	420	2437	733	12208	21464	11512	42	-4890	1043	-7720	-816	-1384	1737	-1983	256	-25440	-3056	-15984	-376	-3387	548	168	188	1
-7952	-4340	14276	-203	395	19	-20368	2664	-6920	1440	1049	41	-15768	-2728	-3424	171	2453	719	4744	16344	11312	272	-4785	2293	-5456	896	-3848	1436	-3278	639	-18144	280	-18152	-647	-3520	194	182	188	1
-7752	-7176	13252	-121	418	116	-15992	-4192	-3512	-1145	693	-200	-16856	-4776	-3232	182	2589	79	-3288	13984	11456	941	-5144	3533	-6608	2752	-6368	388	-4250	931	-10912	-2416	-16696	-856	-2959	209	156	171	1
-8240	-7116	13140	23	402	226	-13088	-5936	-3656	-1739	639	-405	-16760	840	-3400	-460	2449	138	-4824	10616	11360	1320	-5585	4054	-6224	1768	-6936	-295	-5064	1180	-7608	-1576	-17408	-1105	-2376	198	165	166	1
-8712	-5472	13112	95	361	286	-15216	-7352	-3736	-1131	605	-184	-15376	64	-2384	-592	2394	334	-9096	9248	14208	1590	-5724	4155	-7104	792	-6000	-371	-5783	1398	-3344	2360	-17072	-1082	-1826	139	161	153	1
-8540	-4956	13712	95	391	312	-16760	-4160	-3640	1	682	34	-13328	240	-2096	-296	2380	555	-15792	8392	18112	1946	-6270	4105	-10248	-2072	-10280	-859	-6410	1611	736	1488	-15976	-1587	-1338	-3	145	148	1
-8660	-3844	14136	-40	457	291	-15824	-1936	-5024	327	713	15	-14432	1320	-728	-195	2326	535	-17960	6720	20624	2497	-6341	3878	-13944	-8880	-11272	-639	-6744	1675	3400	168	-15792	-2784	-1027	-342	151	138	1
-8528	-4076	14168	-101	630	305	-16248	-2456	-4520	-261	643	95	-16928	2904	224	-624	2402	689	-24392	10432	24080	2822	-6111	3841	-15984	-7944	-12904	704	-6763	1797	1648	-2736	-14800	-2957	-848	-653	155	127	1
-8700	-6132	13024	-168	713	392	-17464	-1440	-3464	-1235	707	-118	-17008	2880	4672	-1008	2503	512	-29600	16336	28736	2546	-5640	4206	-26160	-2432	-17544	1419	-6668	2143	-1928	-3120	-6032	-1359	-1276	-610	144	127	1
-9060	-6368	12436	-132	749	505	-14528	-2872	-680	-1740	832	-279	-12768	-1808	3688	-1524	2562	431	-32768	16016	28680	2380	-5363	4230	-30928	1176	-17376	699	-6653	2689	-4560	-3328	-576	120	-1308	-308	116	131	1
-9908	-6232	12212	-43	800	587	-12128	-5120	1568	-1506	1199	-276	-20208	-2688	5592	-1236	1915	337	-32768	5368	18592	2455	-4508	4415	-21464	4520	-19712	-1726	-5992	2096	-9200	-1512	2944	584	-1192	191	140	133	1
-9540	-4392	13608	-50	1018	591	-15424	-5448	912	-698	1649	-89	-21592	-2456	8456	-1082	1799	248	-32768	2152	8400	1115	-2778	5173	-20560	-6568	-26976	-2636	-4557	889	-27104	6888	17632	-630	-3306	724	122	127	1
-9160	-4976	15036	-60	1456	676	-20608	-2136	552	-593	2028	2	-17936	-2728	9256	-1188	2272	275	-32768	-16952	-11320	-227	-1111	4520	-11584	976	-32552	-2499	-2898	104	-32768	-3088	17440	-1268	-3249	1408	137	116	1
-9032	-4524	16220	-81	2122	825	-20200	-1960	3416	-704	2491	-15	-23808	-2656	12024	-778	1724	485	-32768	-22920	-13832	575	284	2328	1840	784	-32768	-3008	-750	-38	-4712	-2904	30784	-711	-179	38	95	66	1
-8388	-5068	17144	-130	2968	1004	-20184	-3704	5096	-210	3088	42	-27592	-4216	16448	-351	712	323	-32768	-17936	-12432	407	784	445	-320	-7408	-32768	-827	1853	23	-16256	-7328	9112	-1612	1930	-285	74	63	1
-7360	-7004	18792	-200	4106	1398	-25616	-2904	4344	357	3640	36	-26904	-4704	19984	257	-483	75	-32768	-24528	-19312	-2769	3422	-2463	-13856	6216	-28920	1071	3839	120	-17984	1232	25864	405	-432	-165	79	59	1
-4324	-10840	21916	-486	5641	2351	-32768	2320	7096	-80	3992	-278	-29760	-3416	32767	381	-2071	247	-29776	3872	32767	-2736	5857	-3975	-32768	-15256	-4984	-3024	2862	-2118	-22136	24328	7408	270	411	1101	122	116	1
-1280	-12520	27508	-1065	8004	3895	-32768	2264	16632	-2124	3870	-402	-30992	5992	4664	661	-345	788	-22568	15728	20896	-921	3428	-2120	-11832	-11464	-16080	-3605	4002	-290	-28536	-12344	-29768	-2863	2514	-1344	122	176	1
-32768	-13996	24044	-2147	10474	4817	-32768	-1960	-928	-3354	3942	-461	-32768	16392	12456	-1184	-1380	975	-32768	17064	22192	-1659	3279	-1884	-2656	9760	-31504	-2117	3325	-1841	-7968	-15816	-13416	681	-326	238	131	159	1
-32768	-28120	32356	-4689	9940	4055	-32768	-15280	-4432	-4948	3851	-153	-29912	3328	-20768	-4331	-2092	933	-6576	9088	14192	-1154	1099	-1242	-11768	-9712	-20568	-3099	1906	1095	2168	9832	-23440	821	1482	-140	134	132	1
-32768	-32768	32767	-2791	6807	5462	-29560	-27912	-5792	-1186	2500	-1151	-30688	7912	-8448	-3354	-2612	-447	-9840	1696	17728	-576	680	-720	-29944	-22608	-19384	1738	2425	98	-32768	8304	-22912	-105	2353	1240	131	142	1
-32768	-32768	32767	-499	-673	2206	-12976	-12072	-27616	1546	2015	-899	-32768	-3704	-12272	-1466	-2267	-902	-9144	5840	14608	-258	661	-480	-19712	11248	-13352	2259	1615	497	-21768	2136	-11968	19	2136	779	106	120	1
15740	-32768	25244	289	-6101	-1703	-17896	4984	7808	-957	-239	-5	-32768	-2432	-15424	508	-2013	-1557	-8520	5560	14216	-8	684	-347	-15576	4440	-11752	-413	977	394	-19648	312	-12528	66	2416	-245	94	113	1
17048	-8464	11136	12	-5175	-2033	-14816	-4600	2880	122	-1785	-805	-27072	6528	-16016	456	-2635	-1638	-8392	6432	13192	101	695	-225	-19752	712	-9760	-1457	300	-105	-15496	7560	-8536	-343	2565	-348	87	102	1
8544	-10084	13844	-1158	-4805	-2511	-3576	1880	-3096	1112	-3127	-585	-20864	9736	-15112	-55	-3050	-1525	-7680	8320	12608	112	712	-237	-18864	-3688	-6440	-192	202	218	-17368	3984	-4920	-1103	2854	191	123	93	1
-1608	-12132	15076	-1183	-5229	-2975	-5640	-1080	-5248	317	-3802	-333	-10848	6056	-14216	-421	-3127	-1136	-7824	7472	12648	36	725	-318	-18424	1920	-3968	1324	270	310	-17744	-2056	-4608	-436	2855	698	127	90	1
-7636	-9876	14640	-872	-5797	-3460	-6592	-408	-5560	421	-4810	-533	-1600	3264	-13928	-756	-2622	-1170	-8160	7096	12392	19	733	-383	-16096	2688	-2504	1316	237	310	-15136	-4288	-1416	1014	3208	688	118	74	1
-6692	-6432	12884	-893	-5827	-3811	-7952	776	-5272	365	-5448	-548	-4352	80	-13504	-425	-2051	-1106	-7808	6640	13392	-24	823	-493	-18368	504	-2416	996	340	231	-15392	-4392	4480	1734	3175	648	126	78	1
-8300	-6264	15128	-965	-5335	-3904	-10296	-2904	-6192	1243	-6004	-754	-3208	2256	-13368	307	-1805	-943	-8944	5200	12280	37	909	-542	-17536	-800	-1952	919	448	163	-11776	-3648	7776	692	2683	524	120	89	1
