#Activity	walking 
#ActivityID	1 
#Date 10-06-18-19
acc_rf_x	acc_rf_y	acc_rf_z	gyro_rf_x	gyro_rf_y	gyro_rf_z	acc_rs_x	acc_rs_y	acc_rs_z	gyro_rs_x	gyro_rs_y	gyro_rs_z	acc_rt_x	acc_rt_y	acc_rt_z	gyro_rt_x	gyro_rt_y	gyro_rt_z	acc_lf_x	acc_lf_y	acc_lf_z	gyro_lf_x	gyro_lf_y	gyro_lf_z	acc_ls_x	acc_ls_y	acc_ls_z	gyro_ls_x	gyro_ls_y	gyro_ls_z	acc_lt_x	acc_lt_y	acc_lt_z	gyro_lt_x	gyro_lt_y	gyro_lt_z	EMG_r	EMG_l	act
-10072	-3552	12272	285	1288	1572	-16176	3092	-1384	-925	7777	1062	-18424	-3276	-3600	1787	17611	-2833	-28780	-2632	21844	28196	-29472	22364	-24000	-7236	-11068	13253	-32768	-5448	-8540	-852	-3616	-12332	-11284	-4119	129	116	1
-10260	-3548	11980	253	1446	1849	-15556	3020	-1456	735	8036	1501	-17392	-2852	488	2772	12478	-2810	-32768	-7592	25448	25809	-31196	20579	-31772	-6432	-18220	18020	-32768	-5056	-12056	-4600	3096	-9549	-12793	-5529	129	118	1
-10428	-4172	12472	403	2142	2094	-16636	2628	-964	535	9340	2401	-17576	-2336	4548	-1586	12006	-2092	-32768	-12140	17832	27273	-32768	27381	-28340	-4712	-18000	25831	-32768	-5325	-12720	-2872	9836	6906	-7046	27	127	124	1
-10484	-4148	12980	843	3556	3273	-17908	2296	-396	779	10948	3476	-19752	-2528	4308	-2178	11545	-2700	-32768	-9204	6400	19633	-32768	25525	-25140	3744	-17464	18301	-32768	-3427	-16712	-3700	10736	16460	499	5071	125	125	1
-10496	-4416	14288	1522	7082	4377	-18920	3448	492	2763	12602	4968	-20796	-980	5220	-2723	8825	-2952	-32768	-18800	-9324	9817	-28101	18839	-21024	272	-20796	8759	-27997	-327	-15276	-6792	15696	6317	2737	3757	127	123	1
-10740	-4300	14892	2363	9855	6091	-18904	3448	1328	6294	14657	5930	-20356	-1248	6976	-4503	6660	-2029	-32768	-28868	-21284	9155	-13402	15641	-11332	-148	-24304	5176	-14167	3104	-15740	-7716	25836	-1286	749	3186	124	115	1
-11372	-4244	15440	3903	14229	8398	-19024	4608	-548	10321	16133	6935	-19284	-3836	4972	-5471	4443	-435	-32768	-32768	-22744	8455	-466	10655	-6764	4904	-22688	-1317	2325	3582	-15356	-8680	26916	-2680	849	2840	126	124	1
-10740	-5356	15248	5738	19137	10363	-20500	4396	-1940	10999	17721	7627	-19768	-6088	3340	-4918	2660	714	-31860	-22132	-14016	-7960	7365	4289	-9004	3260	-21228	-13051	14888	892	-15908	-388	17540	-3007	-3699	2309	126	128	1
-8220	-5136	15308	7287	23698	13709	-21504	5224	-1976	9127	19177	7684	-20392	-3840	3764	-4494	-715	1863	-1644	16504	32767	-8782	5854	-7439	-32092	-18404	32767	-12918	12633	-3917	-10252	1788	-3312	-5006	8846	4441	122	130	1
-9108	-4076	16960	7881	29793	19397	-23584	7652	-304	5455	20790	7675	-22916	-2724	12212	-5630	-9224	3761	-1472	20904	12012	-18405	17002	-32756	-12472	-1116	-1300	-24652	-193	10801	-19752	-7324	1892	-16115	20481	754	128	128	1
-6624	-5820	18484	10347	32767	23987	-29636	10096	8408	-1816	22468	9053	-17004	5864	13068	-2351	-20681	558	-5540	-17964	16976	-3002	20589	-528	-16412	-20932	-760	-11995	13333	-5724	-14224	-3244	5580	-14070	7571	-4076	125	128	1
-11408	-10508	15960	16084	32767	29419	-25408	6960	12612	-8002	26479	6090	-20968	14764	5720	-12419	-9069	6806	-31208	-5968	16456	-4599	16521	-19862	-26100	1588	-5624	-8871	16248	5700	-24768	-17536	5580	-7349	3925	-1664	122	127	1
-32768	-2884	9676	11150	32767	32084	-25236	2576	-6192	-12776	29117	4393	-22752	2468	3448	-29367	-12177	7781	-22540	27580	14888	-9213	12153	-7519	-21724	2656	1224	-7464	15970	6022	-16200	5088	-5268	15545	13358	2219	126	117	1
-32768	-5340	10424	9968	32767	32767	-29892	-568	-7844	-3787	28169	7856	-25528	-9580	-14372	-32768	-15396	6372	-11544	-4416	15540	-11887	7943	-10943	-16304	4688	-4964	-13779	12913	5076	-14312	25328	-8784	5106	10750	9205	128	129	1
-30368	-13860	22200	9378	32767	30818	-24344	2948	-7180	-1883	21041	6881	-25900	-14024	-13540	-15354	-20703	-2884	-14332	4316	11632	-10389	4190	-9745	-17536	1820	-5664	-12680	10327	3234	-16900	4048	-4264	-9747	6584	7498	128	136	1
7232	-16372	21832	1853	26269	23176	-17600	2732	-10156	1411	14296	6116	-25360	-11068	-10992	5994	-22113	-5238	-13912	216	14148	-5683	1206	-6463	-17472	-5892	-5504	-3616	10952	2207	-17624	-496	-4676	-5935	6570	5700	137	134	1
-30372	-15116	21744	-4743	-9253	-1919	-9544	-2244	-15648	-378	6237	5973	-25172	-3868	-5396	11499	-23604	-5099	-12528	952	13524	-3788	532	-4175	-17344	-3352	-4348	6406	12025	3518	-16920	-24	-3180	6	8296	5052	130	140	1
-7204	-17676	13368	-4652	-29936	-11601	-11508	1372	488	-5933	-483	2937	-22464	-3360	-5712	7269	-20938	-6171	-11200	2960	12412	-1972	419	-2719	-17160	-720	-2596	8619	11260	3252	-15344	952	-2628	2298	9852	4559	128	128	1
1252	-9352	8708	-176	-29867	-13865	-8284	-1196	1208	-3424	-9248	-1446	-19236	-4588	-6584	7349	-19370	-7479	-11276	2724	12076	-2026	637	-2360	-17324	-132	-2776	5132	8634	2788	-15388	1744	-2936	1585	9896	4243	122	124	1
-2268	-6504	6876	414	-26855	-14679	-6352	-1308	-1360	2705	-16856	-2576	-16448	-4336	-6724	10582	-17482	-7208	-11580	1956	12240	-1904	467	-1988	-17104	-1196	-3008	1181	6172	2164	-15604	292	-2444	-1652	11291	4086	125	130	1
-5004	-7112	7220	-772	-28155	-16579	-6376	-820	-3184	5730	-23591	-3422	-14172	-2540	-7568	14514	-14904	-7161	-11492	1528	12316	-666	931	-1031	-16348	-2872	-1720	865	5583	1858	-15988	-1912	-364	-2599	10617	4115	128	132	1
-8380	-7464	8220	-942	-31368	-19529	-7640	1604	-4572	4851	-29051	-4302	-13368	-2968	-7816	16751	-13868	-6279	-10472	3844	11988	-346	1149	-1146	-16176	-1696	856	2602	6090	2338	-15616	-2076	1808	2085	10566	5112	119	130	1
-11968	-7224	9828	-1083	-32768	-22694	-10888	2392	-6000	1534	-32768	-6085	-13260	-3280	-7572	18105	-13334	-5045	-11280	3480	11924	-750	1578	-1819	-16324	-1252	144	5409	6908	2801	-14936	-1980	2664	8340	10911	5577	123	129	1
-15028	-5156	10128	-3317	-32768	-25439	-13228	1672	-5184	2219	-32768	-6863	-12236	-3060	-8944	21245	-12283	-5023	-11788	3644	11784	-1353	1158	-1895	-16552	-92	-1388	4763	7158	2566	-15192	1324	492	15659	13691	6083	125	127	1
-16704	-4668	10988	-6435	-32768	-26651	-12896	3932	-5816	3476	-32768	-7732	-10720	-244	-10216	26363	-11318	-4865	-12536	1664	11640	-2114	416	-1706	-16672	144	-2836	3391	7295	2365	-15364	2916	-272	15120	17012	6959	124	131	1
-18696	-7016	11664	-7626	-32768	-26239	-15960	5436	-6184	-1685	-32768	-9357	-9820	2012	-10564	24606	-9502	-3887	-12160	1348	11836	-1858	559	-1676	-16252	-1832	-2368	3386	8197	1928	-18576	2368	1348	4686	19283	6947	123	131	1
-20520	-8192	14164	-5860	-32768	-26055	-20420	5720	-8120	-2888	-32768	-11157	-8612	3656	-7896	16544	-6561	-3175	-10880	2908	12672	-1018	788	-1148	-18456	-612	-2284	5736	8734	2668	-15044	1816	572	-1791	19951	6022	123	132	1
-25840	-3720	18860	-9476	-32268	-27323	-25272	9260	-9092	-4422	-32768	-11147	-8896	5656	-4836	6640	-2130	-2565	-11736	2168	12380	-635	1410	-1302	-17720	-2048	-2524	5571	9028	2408	-15956	2200	-2836	1418	19249	5324	124	131	1
-32768	-7328	21472	-14514	-32093	-28370	-29204	6720	-14900	-10602	-32768	-13144	-9132	8476	-2448	3912	243	-1801	-11960	1984	11844	-157	1713	-1467	-15200	-920	-1348	6356	9887	2843	-15884	1480	-1456	3422	14570	4582	127	134	1
-32768	-3968	14956	-15503	-32768	-26972	-30716	6908	-17100	-12821	-32768	-16186	-13524	3864	2892	1120	-2777	-1316	-11744	2648	11584	-645	1623	-1315	-15520	1344	600	3691	11020	2006	-16168	-1544	5672	2710	9856	4770	124	135	1
-32768	-1264	-852	-17902	-32768	-27227	-28780	10812	-19336	-10636	-32768	-17048	-20220	-4540	11360	1896	-3762	-3866	-11868	3804	12296	-1066	2399	-2487	-16728	1128	2164	1347	13417	960	-17788	-2076	8028	2729	7059	5541	129	136	1
-32768	13576	-5348	-19909	-25186	-28408	-18420	8452	-24740	-9652	-26281	-12011	-22344	2544	22676	5256	-11536	-8451	-12144	4228	14040	-2287	4470	-4941	-20308	-788	-748	-195	15253	446	-19200	-704	5004	4684	7642	5704	127	137	1
-32768	23396	-23396	-14876	-16688	-22099	-6364	9584	-26312	-10511	-11522	-10092	-12548	1892	31988	-8979	-3088	-8232	-12144	1608	14928	-3280	8777	-6153	-18980	-5340	-2964	-843	17454	451	-20524	708	2664	6750	7805	4331	121	134	1
-32768	30880	-27632	-15297	1995	-11218	-4540	3992	-22564	-5909	8552	-4141	-12336	2392	30916	-11779	-3450	-6126	-12416	908	15660	-4757	13066	-5922	-20240	-2576	-3680	-4945	18505	-10	-20696	932	536	8417	6055	986	119	130	1
-32768	-6636	-3516	16454	10762	-4690	-17812	5420	-2144	-869	15941	2821	-13452	-2096	21100	-9896	-8099	1311	-11228	3400	16320	-6648	17530	-6988	-22284	-3672	-2268	-7962	19259	-273	-21760	1124	2820	8466	1779	-815	122	129	1
9428	-3708	32767	21967	21146	7499	-29656	3212	32767	6502	9685	5457	-14508	-7512	-5848	-3237	14181	-4829	-9856	4544	17200	-7886	23961	-8587	-26408	-3792	-876	-7386	19948	390	-23844	768	7048	5743	-3998	-1146	123	127	1
-21644	17924	7460	11615	27896	7350	-3188	18924	-11624	32767	4600	630	-23144	-3372	5956	7386	6816	-424	-8588	6136	18048	-7727	32242	-12805	-27972	-8788	2344	-3410	21930	2006	-24412	-7312	13660	-745	-14186	-3555	129	128	1
-17752	8220	24024	379	26540	2477	-21832	16044	-1864	19162	14017	9948	-18772	4092	8108	32767	1741	3702	-8476	7216	19980	-10881	32767	-20173	-32232	-17432	10068	5626	25072	4370	-19744	-22364	13580	4156	-12488	-12156	124	125	1
-27804	-1664	18420	-1977	13203	18402	-27504	11952	-8820	6618	18513	-1792	-23024	17440	3100	19974	12101	3922	-15096	5572	20132	-14151	32767	-27377	-32756	-10420	9064	11415	28327	4915	-22232	-16632	14020	6510	-17578	-16144	129	126	1
-18036	-19352	9356	5321	12772	7688	-20132	-2500	-4752	8277	17910	-962	-16732	-5052	-6396	-13261	14475	159	-32768	-2468	10524	-7157	32767	-29078	-29036	1028	-9096	5018	30843	5122	-20268	2544	2488	30725	-10203	-15710	130	129	1
-11872	-6504	10696	9956	4152	8321	-14348	-2180	-6848	16669	10239	360	-12260	-17152	-11932	-9882	15502	-7617	-32768	6980	12128	-5559	32767	-30417	-26356	4456	-7824	-1183	23804	4291	-26072	5456	-10756	32767	-9505	-12162	133	133	1
-12904	-2760	12752	10153	1515	9038	-15036	5252	-7164	11339	8139	1098	-17512	-3248	-7340	1003	9029	-7185	-31304	15760	25860	3683	32767	-27935	-19956	2584	-4132	-5031	17197	4465	-31500	-1396	-15548	23008	-18292	-293	128	134	1
-12744	-948	14224	5812	1566	4862	-18060	11184	-5152	2950	8107	157	-15760	-472	-3216	-47	11080	-5129	-32768	-3844	16224	-82	17299	-23006	-14868	2000	-9192	-4182	9686	3393	-29472	832	-9840	11595	-30082	3166	141	130	1
-11452	-1664	13336	2358	350	1631	-16888	8344	-2696	-4913	9648	-1367	-16764	-1840	-684	135	14758	-749	-20184	12384	22356	9842	-24757	126	-7336	-888	-156	7833	3488	218	-25848	176	-2316	6547	-30395	1196	135	128	1
-10528	-3460	12180	951	816	326	-17256	1204	-1084	-2636	8494	-1948	-15764	-3672	84	1774	14278	1235	3972	15180	15860	9282	-29559	7114	-9656	-1276	3624	10156	-6013	838	-25000	2448	-6084	8796	-22769	2967	125	127	1
-9980	-4372	11624	1114	555	128	-16456	-112	-460	5596	5094	-1180	-16184	-3808	1560	2909	13333	414	2268	9944	11384	7790	-25194	7973	-5976	1140	772	7657	-14638	622	-18568	3712	-9332	7388	-18673	2345	125	126	1
-9996	-4400	11716	1009	365	132	-16164	2596	-624	8431	3643	-161	-16308	-2844	3072	4631	12981	-1736	-5364	6976	10084	8601	-26982	10450	-5992	2668	-1956	4949	-21545	-1500	-15796	3292	-9564	1778	-18064	2708	128	119	1
-9644	-4412	11640	803	425	182	-15520	3668	-976	2875	5583	4	-15124	-1284	2516	2167	14075	-2611	-7644	5688	9732	11207	-31253	13530	-7424	924	-2792	4082	-28243	-2856	-13148	3540	-9372	-3875	-17136	2288	127	118	1
-9148	-4720	11304	667	616	561	-14960	2800	-216	-4427	7938	-144	-14424	-1028	2884	-2672	14203	-1933	-12060	3648	10636	13277	-32768	17831	-8116	-348	-4608	4779	-32768	-3550	-10968	3608	-9324	-6527	-15904	1823	131	123	1
-8356	-4936	11328	891	863	1695	-16100	1460	124	-8026	9258	-506	-14616	-2252	2860	-5832	14572	-1874	-15376	1504	11516	15703	-32768	23248	-10272	-1632	-5124	6525	-32768	-4615	-10536	3560	-9376	-7170	-15412	1590	127	127	1
-9840	-3436	12104	833	689	2102	-16268	2884	-252	-2676	8612	-77	-15736	-1276	1796	-4776	15392	-1703	-12428	672	11820	18149	-32768	27151	-13312	-3112	-3888	5874	-32768	-5677	-8160	5020	-9556	-16561	-12921	-489	127	126	1
-9976	-3216	12312	562	525	1640	-15988	3332	-952	2955	8406	432	-15668	760	976	-2722	17205	-2861	-15496	184	13740	19518	-32768	29097	-17320	-2180	-6516	-413	-32768	-6462	-6968	6236	-9780	-22237	-12328	-1063	126	123	1
-10376	-3964	12128	243	584	1238	-15564	4168	-1588	374	10052	446	-14656	628	2324	473	18643	-4114	-25724	-572	15108	19842	-31946	30240	-20356	-2452	-11216	-807	-32768	-9439	-7792	2812	-8124	-24699	-12276	-1692	129	125	1
-10320	-4008	11648	451	657	1448	-15812	2092	-1908	-2402	10877	86	-15908	-3964	-1880	-1544	16635	-4617	-32368	52	18836	17740	-31495	28480	-26212	-5164	-12472	5098	-32768	-8756	-9252	-4212	-5212	-21390	-13511	-3615	132	115	1
-10276	-4328	12020	628	919	1981	-17000	1360	-1972	-1961	10362	746	-17332	-5144	-2520	-3832	12453	-3522	-32768	-4556	17424	17802	-32031	28573	-27628	-3560	-18832	11343	-32768	-8877	-12864	-7864	4956	-16497	-16901	-4003	124	120	1
-10616	-3888	12112	607	1372	2347	-16812	1576	-1264	108	10367	1709	-16428	-4216	3164	-1525	11116	-4029	-32768	-6960	8796	16569	-32768	31382	-25068	804	-18028	18583	-32768	-7114	-8940	-3800	7056	2402	-5083	2342	124	120	1
-10424	-3580	12516	440	2182	2482	-15944	1500	-120	1184	11746	2488	-17556	-672	7128	-2386	10551	-3741	-32768	-5224	-664	9703	-32768	27096	-24524	4288	-18632	9996	-32768	-4417	-13492	-4628	8876	8584	2491	5042	127	125	1
-10644	-4964	13116	732	3731	3511	-17372	-232	44	2822	13951	3149	-18388	-2764	6556	-5146	8371	-3191	-32768	-14436	-10856	5827	-26748	22849	-19528	2296	-20332	5681	-26451	-1155	-15904	-6320	11676	-1805	553	4043	126	128	1
-11232	-5168	14124	2067	6468	5590	-19172	2396	-1380	3883	16020	4245	-19972	-4448	4400	-7605	5357	-3665	-32768	-19312	-20472	5554	-12462	19415	-13612	3392	-22332	-26	-15141	2193	-19196	-5596	20152	-9090	-4262	4249	128	121	1
-11196	-5332	15760	2780	12288	7627	-21440	5448	-2176	4487	17309	4637	-21628	-3096	2488	-7489	3162	-3069	-32768	-23276	-21424	3515	836	15510	-9360	4548	-22516	-4885	-1928	3775	-13896	-8268	21452	-4765	-4019	3485	128	134	1
-11128	-4064	16820	3920	17683	10047	-21604	7216	-3080	5999	18747	4488	-20864	-2736	2412	-8064	1876	-552	-32768	-19936	-15076	-3009	8941	9964	-10312	4572	-20844	-11162	10103	4374	-12500	-3324	14976	-2580	-2072	3917	125	125	1
-7932	-3688	17208	5202	22914	10822	-21360	6944	-1972	6460	19584	4403	-20756	-1940	4288	-8237	103	964	28136	284	26672	-15963	15402	-9297	-28856	-18184	25116	-20917	7495	136	-4612	1236	1392	-24354	19808	6732	125	122	1
-8580	-3332	17636	5572	29037	14011	-24148	5800	-64	6063	20999	4649	-23196	-2968	10952	-8739	-6841	2067	-8484	-20464	13064	-14939	17173	-3792	-11040	-16780	-8008	-31237	352	3600	-24744	-2688	-2504	-4408	22730	6333	140	113	1
-6728	-4772	17668	7091	32767	19962	-28400	8820	3128	2020	22484	5042	-22776	-624	22120	-6879	-25808	1747	-15772	-16052	16584	-3142	32112	7908	-19228	-18488	-5308	-15858	11894	-1434	-17056	-14000	2944	-18987	4097	-3087	143	130	1
-7216	-11944	17180	9976	32767	22879	-29616	12760	13296	-11089	26483	2788	-21004	15928	12712	-12126	-14183	6988	-31960	-11592	19352	2583	19216	-9612	-24912	-9752	-10312	-8439	13755	6258	-19680	-21200	6428	-13009	8099	-1902	116	128	1
-31300	-5952	9788	3169	32767	22283	-24308	6164	-5800	-23172	31987	-325	-22576	13648	4724	-30127	-13631	7753	-14544	19712	7384	4080	16199	-1424	-19424	1924	468	-1048	15813	7900	-17512	4264	-5148	13990	13965	1866	118	119	1
-32768	-2132	6548	-1738	32767	28010	-26116	-3952	-11408	-17403	32765	2002	-24596	-1980	-19936	-32768	-14656	8972	-12844	4016	12292	-7955	5427	-7148	-18708	12236	-4204	-12672	10238	7114	-15476	23952	-5600	3693	10216	7678	139	126	1
-32768	-9880	21092	-8654	32767	24018	-23496	3968	-8900	-13136	24960	2698	-27768	-17968	-18388	-26127	-20103	-2272	-14120	9248	9668	-7436	2359	-6416	-18208	400	-3020	-11480	8668	3853	-17900	6516	-3576	-11933	8286	9241	119	139	1
-25708	-14924	22132	-19221	26544	16300	-17264	-808	-11932	-8213	19898	2882	-24452	-11240	-11520	3889	-24425	-4417	-11624	5112	11764	-8283	2417	-7381	-16528	-3176	-1380	-6099	8688	2959	-16648	1408	-1772	-8545	7212	6750	131	144	1
-31868	-21876	27776	-14884	-10063	8139	-8548	-4372	-10644	-8539	8570	-1832	-23932	-800	-3968	7314	-24598	-3620	-12316	4044	12728	-6381	1077	-7569	-17144	-2732	-2316	1085	9329	3388	-13108	628	-1128	-3064	9536	6069	132	134	1
-15208	-23720	25024	-14479	-17949	5107	-10464	-612	6500	-15941	516	-5216	-21032	-1352	-4368	1014	-21100	-5647	-11600	3440	12800	-3592	-429	-6027	-17556	-1360	-2368	2324	8994	2577	-15804	2020	-1072	-2059	10180	5220	127	124	1
4572	-12072	9340	-11623	-28150	-4420	-8264	104	5352	-8914	-9695	-10073	-17764	-2848	-5724	1808	-18501	-6193	-11252	4400	12088	-3855	-784	-5173	-17276	-968	-2792	-1374	7341	1865	-15532	668	-2280	-4420	9835	3599	122	124	1
-984	-7928	9580	-11834	-24881	-12105	-5256	752	204	-193	-17018	-11128	-15092	-220	-6068	5396	-16671	-5503	-11512	2240	12088	-3720	-862	-4151	-16044	-4084	-3828	-6814	4760	1625	-15348	-2596	-1844	-7844	10278	4048	119	128	1
-7136	-7296	11844	-12196	-28234	-22603	-6896	5100	-2804	1496	-24701	-11717	-13320	-288	-6004	9049	-15403	-5043	-10776	1724	12464	-2248	-540	-2378	-15552	-6948	-2392	-4321	5089	2140	-15592	-5048	-1092	-7719	10403	5396	125	127	1
-9976	-4904	13788	-10434	-32768	-29675	-10844	6256	-2864	-3751	-29608	-13276	-13172	-2724	-5228	12213	-14709	-4164	-10012	4764	12176	-1436	323	-1847	-15616	-3784	-232	-68	5572	3072	-15200	-3856	-1072	-1696	12629	5871	120	130	1
-13080	-216	14116	-10884	-32768	-31403	-13400	4980	-1936	-2555	-32768	-14855	-12880	-4140	-6064	17122	-13570	-3745	-10592	4264	11376	-2136	493	-2965	-15804	-3400	-68	337	5505	3194	-14904	1216	-1140	2459	13652	5519	123	127	1
-14164	956	14924	-12367	-32768	-26928	-13692	5492	-2704	1858	-32768	-15274	-11768	132	-7336	23319	-12938	-3482	-11932	2128	12092	-1941	574	-2971	-16736	-1908	-3088	1061	4764	2923	-15232	2060	-2044	849	14241	5467	122	124	1
-15464	-552	16152	-12187	-32768	-22157	-15572	9440	-5088	1602	-32768	-15490	-10604	2472	-8528	20122	-12536	-3939	-11728	2340	12180	-696	899	-2108	-17060	-3916	-2328	237	4766	2379	-17984	-664	-1860	-395	15248	6037	126	125	1
-16332	-1600	17200	-10860	-32768	-21087	-18236	10688	-5548	-3121	-32768	-14973	-8492	2768	-7032	9897	-9918	-2298	-10368	3672	12372	-926	1266	-2436	-16728	-2652	-176	647	5202	3201	-18028	-2340	908	-4595	15408	5582	124	139	1
-19260	-1044	20684	-12062	-30833	-23194	-21920	13164	-6984	-8056	-32768	-14606	-7332	2664	-4400	2517	-5610	-862	-12016	2784	12056	-1368	1452	-2756	-16384	-2000	-1324	738	6103	3265	-16120	-2544	1244	-661	14809	5982	121	130	1
-32768	-1396	26460	-15645	-31432	-25812	-25876	10640	-13340	-12041	-32768	-15388	-8532	5528	-2808	-2309	-2565	546	-12184	2860	11768	-1929	901	-3016	-16436	-508	-896	2487	7905	3330	-16256	-1620	2668	1449	12841	8061	126	133	1
-32768	4564	23920	-16955	-32768	-26264	-28992	10904	-15096	-12923	-32768	-14325	-12312	2124	2176	-2213	-3282	-896	-12204	2712	12120	-1873	1146	-2950	-17264	-1536	888	5168	10928	3239	-18264	-740	4844	1025	11619	9762	127	135	1
-32768	7464	12516	-16152	-32768	-24222	-25936	10228	-16124	-12841	-32768	-10849	-13264	-9268	6848	-10874	-3059	-6153	-12412	2952	12712	-1507	2210	-3236	-16728	-1912	1708	4684	13510	2889	-17840	-3912	6700	6678	12628	9497	125	135	1
-32768	6520	-2104	-7360	-32768	-18488	-22264	10660	-20348	-5747	-32226	-9990	-18428	-1552	16136	6077	-1980	-10210	-11980	2948	12784	-2321	3589	-4839	-17772	-40	1324	1039	15384	2194	-18040	-3928	5264	9286	12606	7487	126	132	1
-32768	21596	-15864	-6915	-21093	-14044	-11764	10804	-25464	-3173	-20024	-9507	-17572	5028	32308	5327	-221	-5485	-10600	2780	15576	-4078	6238	-5636	-18044	-4220	-428	-2004	17597	1331	-19600	-400	3164	8740	9321	5668	120	132	1
-32768	32767	-26944	-15964	-3300	-9823	-2148	6576	-23276	-1866	384	-3059	-15792	7868	32128	-6810	-4194	3642	-11956	1368	15768	-4948	10539	-6429	-19640	-4176	-3340	-5619	19031	511	-19080	1952	1200	4382	7016	3724	120	130	1
-32768	13004	-18184	5365	11045	-223	-7824	5016	-21540	5935	14738	3897	-15848	6392	30428	-8014	-5822	4113	-11268	2644	16124	-6601	15693	-6766	-21480	-3580	-3128	-8372	19222	-219	-20512	3144	84	2543	4374	1618	112	128	1
-23204	2908	32767	23727	1745	2233	-25680	5972	23988	-8679	20933	9982	-13356	-7448	36	-4561	1608	2054	-10736	5128	16720	-7310	20571	-9445	-21632	-3736	-2896	-8544	19285	-237	-20720	3828	2800	4633	-84	-420	118	129	1
14336	-16280	18016	9463	19954	17347	-28056	812	16272	21419	2612	-5636	-18524	-508	-588	2213	12714	2592	-10012	4568	16848	-9564	27513	-13137	-26156	-5036	248	-7744	20377	-30	-24612	188	7968	3508	-6649	-1433	122	129	1
-26604	23552	13772	8889	18399	10933	-152	20564	-12984	14804	11899	7660	-13108	-2268	244	11155	5258	2886	-6168	3696	19472	-10913	32767	-18554	-27368	-13184	5332	649	23119	1054	-20436	-11088	16404	-7320	-18055	-5883	121	130	1
-12848	-1972	16044	778	22526	2037	-30656	12888	-2840	5699	15324	6663	-20776	4668	3960	17385	8831	-181	-10348	11264	17536	-13319	32767	-22583	-29204	-16228	16320	12264	27243	2949	-17036	-22032	13588	6505	-12528	-13143	127	126	1
-16988	2620	16160	-3362	16188	11173	-19408	5576	-4508	5828	14875	3507	-18048	8700	1208	5823	11108	2405	-26664	5084	14296	-13999	32767	-31959	-28608	-2796	2424	10420	28701	4385	-18056	-11124	11988	6360	-17795	-14696	121	131	1
-17012	-18692	8660	2119	12679	7081	-21208	-44	-4732	7001	14437	-420	-20084	-3264	-3256	-7419	12340	1590	-32768	1820	5568	-7134	32767	-31636	-29820	5296	-10040	2197	32027	2517	-19056	7720	-2968	32767	-6967	-12529	126	134	1
-26668	-16944	17628	8243	8484	7264	-17544	-4180	-8024	9787	11353	-283	-15036	-11492	-3096	-6034	12493	-4050	-32768	10520	17732	-6173	32767	-32768	-25088	3796	-3500	-4063	21924	3122	-29420	5400	-12192	32767	-10413	-5335	142	135	1
-14844	2976	15872	7967	2265	7792	-17080	3948	-7068	8875	8376	674	-17284	-10960	-6300	-2611	12343	-4116	-21928	18344	25948	2418	29072	-30305	-23652	2248	-2732	-4077	20505	3027	-32768	2300	-15036	13738	-20162	5792	130	137	1
-12236	-3424	13012	5170	1887	4686	-17440	6436	-5744	-317	9045	1107	-16592	-2368	-4164	737	12383	-3559	-32768	3532	21344	-4498	7803	-16920	-13652	1256	-11836	-5713	7797	3248	-28936	2632	-7076	4602	-31590	3726	134	128	1
-11520	-2556	13364	2226	1269	2119	-17096	6564	-3312	-3906	8302	842	-15068	-2304	-3076	-177	15602	-284	-14208	15604	21256	4037	-25434	6883	-10160	-1880	1076	3372	-117	-1701	-26632	288	-2772	2095	-29642	2230	133	132	1
-10532	-4000	12140	971	806	597	-17592	3256	-1584	-3862	7623	82	-15272	-2992	108	-61	14662	1346	992	14592	14712	2839	-30105	14072	-8252	-1040	2652	5257	-8885	-580	-27068	916	-3616	2803	-27885	2942	126	125	1
-9968	-4488	11564	844	709	298	-16700	624	-176	1584	5741	-138	-16080	-4504	744	2553	13670	959	-732	8092	11340	2321	-28308	16516	-6972	1856	148	2560	-17393	-1179	-17952	2240	-9244	3836	-18871	3848	122	123	1
-9856	-4552	11448	985	453	447	-15744	1800	-480	6916	3654	390	-15024	-1312	1716	5106	14500	-1476	-6272	5228	10924	4600	-29390	16928	-6876	1664	-2524	1079	-24726	-2616	-15232	2780	-9284	-1676	-18082	4265	129	123	1
-9456	-4384	11496	1055	390	588	-15492	3900	-604	5084	4134	358	-15132	668	1968	3557	14725	-2507	-10424	2356	10644	10277	-32768	18717	-7636	936	-3676	2405	-30473	-3670	-12528	3240	-9052	-6038	-17451	3084	130	124	1
-9360	-4464	11560	1054	511	580	-15040	3532	-488	-1983	6692	-171	-14788	168	2628	-2101	15568	-2560	-13724	1652	10840	15134	-32768	19770	-9288	-892	-4516	5727	-32768	-3920	-10392	3708	-9368	-9745	-16013	2326	129	126	1
-9356	-4724	10972	1296	394	1833	-15548	1648	-916	-6990	8843	-579	-14380	-1764	2776	-6004	16699	-3458	-15932	-76	11512	19943	-32768	21645	-10860	-1912	-5100	9155	-32768	-4025	-8288	3420	-9972	-14478	-13463	965	130	125	1
-10308	-3980	11688	1429	148	1995	-16568	928	-1524	-2936	8177	379	-14844	-1664	688	-5358	19391	-3309	-15364	-252	11768	24273	-32768	24111	-13820	-3480	-3724	10303	-32768	-4028	-7704	4584	-10688	-18196	-11678	170	131	127	1
-10336	-3660	11936	1189	-149	1975	-16340	3548	-1712	515	7950	1062	-15704	268	-1456	-3088	18587	-3574	-14164	604	12200	27294	-32768	25404	-18612	-5104	-6360	7361	-32768	-2804	-6652	3944	-11784	-22211	-10682	-278	125	121	1
-10184	-3724	11848	975	-368	1808	-15820	3484	-1244	-1354	9311	906	-16164	792	-212	-2957	15803	-3481	-22616	2268	16080	23351	-27294	24556	-21692	-2216	-11460	7863	-32768	-4541	-7308	-588	-9356	-21220	-10547	-1688	129	122	1
-10232	-4464	11652	1070	-389	2197	-15480	812	516	-1753	10064	1016	-16924	-1628	2868	-5094	13800	-4125	-32768	1816	22060	18284	-28216	27198	-29252	-6980	-16968	4737	-32768	-4648	-10228	-5900	-2700	-18056	-15399	-4019	131	120	1
-10476	-4108	11792	1456	-715	3261	-16204	-992	-56	446	10523	2145	-17728	-5764	5284	-6317	10753	-4404	-32768	-10288	18520	17024	-32499	32767	-27532	-5036	-18024	12249	-32768	-5299	-9332	-5444	4728	-11885	-11212	-1174	125	122	1
-10304	-5376	11664	1885	-166	4251	-17028	-1560	196	2671	11733	3740	-18972	-6988	5272	-6435	7818	-4401	-32768	-6864	8060	8748	-32768	32767	-26716	4272	-19588	7988	-32768	-5880	-14076	-2908	6460	7372	-2168	5757	130	124	1
-10320	-4664	12632	2033	733	5286	-16000	-584	488	3356	13816	4816	-17152	-4996	9084	-5920	6819	-4200	-32768	-25260	-7952	-6713	-30313	27092	-22524	-820	-21992	-6829	-32768	-4342	-16648	-5748	13804	240	879	5161	128	125	1
-10768	-6372	13684	2695	3834	7511	-18976	520	-228	5119	15965	5314	-18332	-2604	5168	-7727	5996	-2368	-32768	-25072	-19028	3336	-20491	29598	-16192	1816	-24188	-4490	-21206	-300	-17648	-7052	17960	-8572	-1803	1994	127	119	1
-10728	-4448	15924	3497	8466	10265	-20144	6012	-2348	5054	17778	5633	-19512	-2472	2520	-9396	4306	-2162	-32768	-27808	-25976	5474	-3759	20507	-10868	3036	-24196	-2108	-7031	3447	-16136	-13600	23236	-9707	-2368	758	126	123	1
-10720	-3468	17760	5330	15063	10970	-23504	7984	-4380	4255	19059	5768	-21264	-1000	-796	-7476	3349	-2204	-32768	-12916	-21104	-7613	10374	7238	-12016	2836	-21104	-7499	6304	3885	-14432	-5480	17156	-345	-2882	2056	127	117	1
-10064	-3140	18428	6572	20125	12389	-22420	7944	-3724	4434	19741	5447	-21616	-2836	1404	-8049	-7	-146	-11176	-5784	30268	-11109	25019	-14612	-23912	-8780	23480	-21134	6600	156	-15784	2388	2848	-1598	5016	6146	125	123	1
-7580	-3332	18788	7042	25544	14837	-24740	6060	-2056	5787	20233	5513	-23916	-5572	10168	-7356	-7368	1299	-18864	-19968	10644	-8662	17276	-15646	-12464	-14560	-8360	-24108	6068	5372	-20000	-8092	9760	-13036	6614	6685	129	125	1
-9236	-5248	17688	8754	32767	22714	-27900	6884	4076	2806	21748	5610	-22116	-2284	12976	-3267	-17132	1563	-17980	-13236	21172	-1282	30981	-8494	-16700	-21492	-1760	-11412	15805	572	-18164	-9816	11336	-16445	5379	5304	119	123	1
-6768	-8776	19008	13154	32767	31038	-27640	9404	9736	-3703	25580	3095	-20896	11144	17196	-3149	-14232	5415	-27504	3200	14268	356	16935	-16454	-25740	-1332	-4412	-2268	18373	8400	-19604	-23252	-1620	-4671	10397	-2795	116	126	1
-14156	-3456	19468	15158	32767	28699	-29632	13572	5180	-11045	27174	1829	-23140	13960	14396	-8636	-16761	8028	-16964	19992	2008	-12986	3951	-12696	-24096	18724	-5404	-8941	16176	10639	-16204	14252	48	28176	14693	3542	122	124	1
-32768	72	15244	5474	32767	22496	-24620	7316	-7780	-20700	32767	2908	-22560	3488	-5796	-32768	-16604	9674	-19928	3560	10568	-8651	-914	-13355	-17656	7296	-5284	-17574	11536	5139	-16120	30604	-7660	5678	7113	12372	122	135	1
-32768	-6596	14984	-2944	32767	20182	-24344	268	-10576	-18104	30724	4999	-27244	-8316	-15172	-32768	-19133	5939	-13440	-456	13984	-10620	-3563	-8996	-15804	-2528	-6608	-16703	9852	3056	-18656	5568	-4180	-21864	3988	7062	136	140	1
-27276	-13960	26232	-6102	29346	18691	-21584	-2672	-7388	-7336	22593	4027	-28284	-10168	-14532	-11040	-22712	-4828	-12292	-1760	14592	-5906	-1155	-4136	-17588	-10744	-5564	-2838	13003	3208	-15960	-5616	-2904	-14916	6400	6274	139	127	1
-32768	-16776	27396	-1354	1731	3533	-12612	-508	-8916	-1687	9658	-108	-25904	-4408	-5000	8685	-27569	-3742	-12152	792	12852	-3404	-811	-2581	-17000	-2708	-5000	6992	13897	3929	-16000	-1060	-3720	-2092	9363	5528	132	131	1
-712	-15376	18864	-5569	-19253	-10591	-9292	-932	4692	-5747	593	49	-23156	-676	-3376	3543	-23744	-4618	-11404	1428	12300	-2545	-674	-2250	-17016	-1440	-5112	7421	11739	3226	-16568	2680	-4504	-673	10054	5898	111	128	1
4544	-11696	13252	-6058	-20296	-12736	-7236	-864	3940	-3182	-8900	-6361	-19180	-3296	-5440	-3474	-19696	-6603	-11252	892	12736	-1919	-603	-1257	-17648	-808	-4432	2073	8338	2147	-15916	504	-2544	-5014	10298	3690	124	129	1
-3876	-9208	13024	-7630	-21996	-15608	-6216	-1632	-2372	822	-17035	-8854	-16764	-3088	-7508	-1759	-17036	-6067	-11016	1308	12628	-1789	-497	-378	-16940	-2472	-3136	-4544	5775	1728	-16144	-952	-1704	-7573	10745	3860	126	129	1
-7720	-6352	12180	-10365	-31665	-18757	-6888	1560	-3736	249	-25492	-10626	-13864	-2192	-7996	4295	-15339	-5454	-10964	1728	12660	-1547	-428	-209	-16160	-4128	-2624	-4134	5829	2328	-16084	-2196	-1528	-6694	11649	4917	128	127	1
-6032	-2768	11524	-13920	-32768	-22400	-8164	5080	-2600	-5249	-31641	-12547	-11772	-3004	-7684	8736	-13311	-4191	-10644	2160	12500	-856	76	87	-15300	-4624	-2136	-622	5989	2977	-15664	-3776	-1064	-2929	12572	6072	120	126	1
-10512	-904	12324	-17726	-32768	-24445	-10460	4528	-2780	-9050	-32768	-13679	-10796	-3716	-8512	11917	-10959	-3970	-10628	2092	12348	-209	513	-36	-16020	-4708	-1844	5214	6786	3854	-14460	-3532	-144	4534	13838	6471	122	128	1
-15756	-2884	12984	-17479	-32768	-25040	-12524	4920	-4516	-6193	-32768	-14765	-9588	-2164	-8604	17529	-10284	-3021	-11136	1820	12444	-92	789	-464	-16536	-1656	-2660	7072	6795	3982	-14612	-600	-796	10534	15039	5752	125	128	1
-17044	-1664	14404	-15313	-32768	-25036	-14880	7748	-4440	-6100	-32768	-14968	-8480	-824	-9788	22108	-10289	-2848	-11224	1704	12592	179	962	-778	-16748	-1008	-2112	1658	5443	2994	-16616	1348	-1552	11314	16916	6427	120	127	1
-18336	-3172	16196	-13370	-32768	-26165	-17932	8440	-5888	-7001	-32768	-15391	-8228	396	-9912	18151	-8640	-3325	-10932	1728	12580	-153	1217	-809	-16576	-2112	-2288	-434	4896	2951	-16428	-372	-1664	7852	17662	5857	128	127	1
-18464	-3320	16588	-12866	-32768	-26500	-22216	9176	-7376	-5282	-32768	-14966	-7480	1176	-5828	9909	-5683	-3188	-11216	2156	12416	129	1432	-1249	-17296	-2116	-2812	1348	5238	2917	-17012	-796	-440	3841	19232	6211	123	127	1
-29380	-1924	24348	-12916	-32547	-30746	-26972	10888	-8692	-5920	-32768	-13687	-7552	3340	-2068	2492	-2523	-2542	-11260	2212	12504	490	1807	-1438	-17480	-1868	-2344	5156	6604	3356	-15472	916	4268	-5262	21143	9399	127	127	1
-32768	-2024	23868	-11912	-32768	-29264	-30568	10492	-12696	-7864	-32768	-13308	-8700	2660	1288	5046	-1243	-3081	-11216	1984	12544	414	2122	-2007	-16624	-1096	124	5303	7962	3161	-17132	1444	2964	-4638	20036	9541	127	127	1
-32768	1624	13908	-9240	-32768	-26949	-29508	7512	-15584	-3079	-32768	-10750	-13816	-3196	9316	3024	-3157	-4939	-11396	2404	12144	175	2309	-2667	-15012	-840	2840	2501	9983	2512	-19604	-88	5112	5488	11533	4708	126	131	1
-32768	3732	-3276	-3632	-32680	-23701	-20028	10272	-21936	492	-32768	-10895	-23096	-964	21556	11575	-2386	-7995	-11580	3736	13152	-993	3293	-4021	-17488	880	2176	-1050	12332	1781	-19192	-2268	8048	3058	6754	4031	125	134	1
-32768	27584	-17944	-11716	-23135	-21818	-10308	12096	-27036	-6207	-20473	-10750	-16680	11260	32767	8778	-914	-3286	-11944	3260	13920	-3069	5671	-5703	-18808	-1668	-924	-2610	14926	916	-18604	-2068	5716	981	7670	5639	119	134	1
-32768	32767	-30920	-22243	-3422	-17763	-1716	2952	-22832	-5855	4601	-2685	-18228	8016	31888	-9134	-8795	3362	-11472	1620	14584	-3036	6194	-6391	-19948	-4040	-3088	-3514	16922	122	-19996	772	524	4010	8709	4944	115	131	1
-32768	8616	-19656	7624	11973	2945	-9036	2272	-21264	5871	15908	3734	-15992	-2824	16652	-11431	-8703	2710	-11984	1152	16280	-6133	13346	-7923	-20624	-3884	-2308	-5982	18471	-444	-20288	1296	168	4858	8408	4409	122	130	1
-32768	19224	-3084	18232	18655	15786	-12392	9460	-22468	11318	23156	6360	-8744	-9776	972	-11190	176	-216	-10660	4188	17472	-8062	18311	-8969	-23420	-4212	-2204	-7594	19232	-466	-22024	1696	2960	5821	1163	-288	123	130	1
9532	-27400	32767	4968	24798	9824	-32768	-576	32767	-3060	9425	4342	-13360	-2744	-9280	921	10163	-1464	-10228	3528	18288	-10568	24609	-10704	-27572	-4268	364	-7880	20415	-517	-26152	636	7300	4915	-4726	-879	131	128	1
-22196	14764	-808	14778	21823	17470	11768	18188	-18388	32053	5837	1122	-27484	-4	5176	970	3891	3817	-9180	5276	17780	-11412	32767	-16240	-26424	-7940	3820	-4500	22039	481	-21960	-5976	19880	-3686	-17133	-2426	125	130	1
-16568	-4220	20868	250	27789	-1871	-27540	20816	-2604	11412	14000	12481	-17216	116	10820	31444	5390	-535	-8828	10544	20008	-13954	32767	-24947	-29728	-16596	13304	5437	25470	2148	-18824	-22284	14744	-438	-12677	-11748	121	130	1
-23744	5988	22368	-3193	19048	10324	-19392	10244	-5860	2575	16506	-1242	-19704	16616	3576	12823	14010	2577	-17588	4320	17240	-15789	32767	-29289	-29680	-10500	10768	16829	29417	4125	-21344	-15560	11628	9013	-16703	-15217	124	124	1
-15864	-19616	8988	-601	13165	5056	-20652	1600	-3040	2886	16505	51	-19292	8	-5372	-10412	14902	3786	-32768	-1840	5824	-5486	32767	-30644	-28432	8032	-10096	14131	32767	4091	-18680	3068	-716	28293	-10921	-14036	125	136	1
-28956	-14356	11264	6057	8497	6920	-18596	-8180	-11112	6203	13533	-2214	-13964	-14924	-3252	-11707	12574	-3093	-32768	10168	16040	-5254	32767	-32768	-30520	5032	-7204	-311	25251	2659	-28512	4732	-12844	32767	-8168	-6813	128	134	1
-12860	-2312	12352	6756	1796	7210	-16796	3056	-6920	9477	8381	1015	-16688	-11200	-8868	-5085	10421	-4535	-22696	17452	27136	-296	32767	-32768	-20556	1400	-2080	-9889	13542	3595	-32768	1804	-15292	17191	-19412	4749	138	137	1
-12324	-2788	13148	4998	1213	4729	-16856	7788	-5960	521	8585	1043	-18160	-1220	-1940	149	10228	-4922	-32768	664	16692	-5961	16320	-19567	-13644	2476	-15168	-7295	8194	3453	-27860	2620	-9964	3722	-30863	3559	134	137	1
-11508	-2724	12868	1632	1221	2042	-16956	7704	-3420	-6101	9177	220	-14008	-1124	-908	-1781	14997	-1417	-20792	13044	21420	3080	-30413	11346	-8572	-1144	-912	3427	2134	-783	-25664	-1392	-1688	3603	-31482	811	131	129	1
-10816	-4340	11868	1208	566	857	-17740	1984	-1152	-5032	8475	-302	-15980	-4396	876	-2076	14340	1370	2200	14108	15200	4520	-32768	20383	-9936	-1956	3672	6608	-7221	2020	-24392	788	-6652	8302	-22588	3539	125	124	1
-9796	-5372	11248	1192	574	645	-16408	480	388	2562	5949	-149	-15212	-5836	1792	2638	12792	1762	2972	9100	11080	4695	-29095	20265	-9120	-1320	3740	6479	-8489	2109	-17840	2188	-9760	7222	-18665	4043	121	124	1
-9392	-4688	11300	1097	664	513	-16144	2404	-452	7627	3859	8	-15380	-2496	1816	7371	13112	71	-3720	4772	10308	5935	-28333	18424	-6068	2276	-1424	-1928	-24942	-25	-15060	2528	-9988	1084	-17628	4138	125	121	1
-9700	-4316	11516	696	1030	507	-15936	4676	-1560	4792	4398	374	-15416	316	996	6562	15324	-2008	-6752	2124	10796	11684	-30281	17935	-7100	-620	-2928	-2516	-31800	-1375	-12436	3204	-10272	-3821	-16321	3321	125	122	1
-9364	-4792	11316	392	1121	940	-15140	3568	-1124	-4076	7178	207	-15080	908	1856	57	16335	-2925	-12800	1708	11916	15628	-32768	19091	-8600	-1892	-5080	2855	-32768	-2047	-9628	3920	-10272	-8581	-15692	2912	127	128	1
-10196	-5256	10952	608	868	1767	-16320	1080	-1420	-7741	8896	-227	-15012	-1236	1020	-5929	17808	-2983	-16672	-312	12724	19594	-32768	22159	-11528	-2036	-6024	7409	-32768	-2367	-7844	4540	-9892	-12842	-13560	1681	130	126	1
-10452	-3784	12004	965	479	1915	-16180	3104	-1524	-1387	7696	461	-15284	-356	340	-6226	21078	-2497	-14828	-580	12556	24032	-32768	26266	-14676	-3236	-4240	7305	-32768	-3088	-7520	5580	-10492	-19082	-11766	653	129	126	1
-10408	-3272	11932	767	345	1130	-16496	4668	-1924	858	7693	960	-15164	1008	584	-3732	20995	-2376	-14944	736	13012	26914	-32768	26768	-14972	-3468	-4300	6954	-32768	-3029	-7588	4156	-12340	-23378	-10518	-321	126	121	1
-10308	-4752	11720	568	892	682	-16288	2592	-1672	-1776	8509	983	-15636	-916	-356	-1449	19994	-3463	-23780	-1228	17436	26306	-27557	26119	-21836	-1540	-10992	7588	-32768	-3195	-8036	-1028	-10136	-20932	-9599	-1721	129	120	1
-10216	-4884	10996	654	662	1510	-15608	508	-764	-3198	8761	1389	-17684	-4548	16	-632	15123	-4922	-32768	664	22908	23224	-27896	25345	-29712	-6464	-14900	7205	-32768	-2833	-10340	-6172	-2776	-14986	-14345	-3562	128	120	1
-10320	-5144	11080	1202	313	2493	-15472	-76	236	-1881	9516	2018	-17640	-5040	4144	-3854	10669	-3792	-32768	-11428	21412	24178	-31435	28681	-29228	-6740	-15620	17181	-32768	-2446	-9304	-7848	3024	-10847	-12607	-2881	125	121	1
-10680	-4532	12092	1258	575	3121	-17312	1244	-240	1286	10468	3349	-18616	-4048	5692	-4777	10336	-2774	-32768	-11024	11376	22113	-31112	32429	-25488	580	-19412	19808	-32768	-1274	-13016	-3296	8780	12270	-4245	4297	125	126	1
-10800	-3824	12540	-37	2115	3000	-17288	3968	-900	227	12650	4477	-18676	-2364	4556	-3398	10492	-2848	-32768	-10044	10564	20455	-31037	31920	-25200	-668	-19320	7666	-32768	-604	-14256	-3272	7952	14247	-2268	5572	125	131	1
-10508	-5504	13800	424	5351	4237	-18608	1500	892	796	15225	4381	-18360	-2376	4900	-5511	8988	-1950	-32768	-23280	-14160	7244	-20212	21033	-16708	2752	-22836	3334	-23186	2586	-17172	-3376	17324	3686	-2135	3783	126	119	1
-10908	-4608	14056	1901	9895	5721	-19936	3316	-824	7077	15996	5750	-21088	-2064	2932	-5823	5509	-1555	-32768	-32768	-22460	7656	-5777	12431	-10956	836	-24484	-1200	-9346	4936	-16336	-7684	26360	-9113	-1653	2738	128	121	1
-10824	-4036	15976	2188	14012	7542	-19300	6572	-2568	9259	17413	6532	-19468	-3672	2032	-5496	3701	-631	-32768	-32408	-18244	3764	3536	6312	-6844	3176	-23980	-8086	6455	3636	-13796	-4508	22244	-4474	-4396	2208	127	123	1
-10612	-5048	15896	3413	19580	9156	-19660	7028	-2504	9333	17583	6556	-19292	-3488	892	-6449	2564	927	-32460	-23176	-9144	-12133	8623	-659	-10996	848	-22660	-15713	18045	1976	-16032	1288	12000	-5554	490	2847	125	122	1
-7784	-3780	15844	3280	24799	11398	-21028	6528	-2020	5569	20027	6505	-20348	-1296	4704	-9171	-1240	2707	32767	32692	32767	-4924	3564	-9259	-13524	384	-12408	-13804	19616	1894	-5632	-548	-7308	-23845	23440	5304	127	131	1
-8824	-6504	16500	4157	32012	13588	-26316	5612	1376	2576	21992	7133	-25076	-2640	16364	-8797	-12368	3707	-11444	-25084	-2856	-22253	17595	-22150	1512	-12524	-15656	-21901	4199	7638	-26668	-17452	-476	-1928	16457	-2346	125	119	1
-3836	-5604	18636	5163	32767	18165	-31988	11272	10868	-3978	23318	8532	-16764	7124	13280	-12140	-18663	2319	-21704	-3716	24276	-923	30952	9514	-32468	-11220	-2528	-5975	15617	-1196	-19172	-8872	9172	-9915	274	-5653	117	124	1
-9804	-10384	14628	7275	32767	23875	-26524	8732	15384	-15598	28211	5264	-21544	14800	9180	-14299	-12519	8332	-25756	-9348	16748	5098	21534	-12914	-21968	-5840	-6580	-3554	17206	3978	-18080	-13840	3300	4570	12104	-639	120	136	1
-32768	-3820	7480	145	32767	28707	-23332	332	-10268	-14550	31157	4431	-19416	3900	3600	-31070	-13263	8905	-19188	20796	1552	-13039	6329	-7964	-26684	22124	-10080	-2374	17834	9864	-21196	9180	-2232	22457	12344	2940	129	127	1
-32768	-8780	6004	1065	32767	30565	-30080	-1552	-10016	-2030	28569	8533	-27120	-12328	-17516	-32768	-13535	7106	-15136	8084	8788	-4238	5798	-4284	-16800	-380	-6232	-5917	13838	3974	-16296	22828	-11032	1074	13266	9805	134	123	1
-32768	-10352	19328	-3310	32767	28343	-23048	3500	-9032	-1280	21045	7849	-27056	-17208	-16608	-10771	-20018	-4889	-13404	1568	12432	-7576	3283	-5944	-16484	3836	-4304	-5124	10927	2715	-19732	4104	-6008	-8967	8720	4169	128	136	1
20104	-27056	23712	-2429	12994	19009	-18360	-516	-10192	760	15119	6771	-25492	-11044	-9616	12459	-23551	-5121	-13384	2748	12700	-5867	1323	-4439	-18252	-3120	-3276	1731	10666	2293	-16304	4200	-3628	-7974	7853	3116	134	130	1
-18836	-19236	20112	-1066	-18123	4180	-6072	-3776	-9144	971	5363	4711	-22696	-2552	-4660	12455	-23853	-4570	-10784	5832	11936	-3747	1641	-3352	-17312	-1052	-2144	5091	9733	2151	-17396	2444	-4636	-3156	9730	3265	140	130	1
-776	-15936	14404	-4358	-31145	-6093	-11428	-668	2328	-4888	-1823	2123	-21616	-5004	-5472	7634	-20747	-6551	-12840	2244	12940	-3035	778	-3527	-17720	316	-4320	-503	6610	1265	-16356	248	-3160	-5055	8428	2948	122	124	1
4628	-11104	8952	-2755	-28762	-6602	-9648	-1684	2436	-2086	-10903	-1504	-19168	-5484	-6740	10331	-18860	-7892	-12464	1808	12532	-817	997	-1468	-17048	-5040	-4164	-2530	4955	823	-16436	-2092	-2396	-7492	10810	3651	117	125	1
-2832	-10008	7272	302	-26302	-7985	-5352	-2024	-1924	3390	-18216	-2530	-16076	-3044	-7152	13092	-17314	-8158	-12044	2560	11984	529	1359	618	-16848	-5004	-4340	-2214	4896	968	-15832	-3408	-532	-2468	10461	5781	116	129	1
-8216	-10020	7840	2215	-31228	-12914	-5540	-180	-5100	5990	-25239	-3180	-14924	-1536	-7824	15167	-15068	-7964	-11184	4580	10948	1368	1257	841	-15460	-1980	1920	3770	6707	1442	-15960	-2948	4028	2285	9146	5565	118	132	1
-8268	-8512	8704	2496	-32768	-18769	-8844	2644	-5076	2071	-30957	-4244	-14560	-2704	-7348	16183	-13875	-6580	-9652	7500	10996	317	1771	-876	-17248	512	1900	4942	6737	1832	-14672	504	3084	5586	12350	5896	117	125	1
-9352	-5072	9588	-1033	-32768	-23232	-10608	3320	-4792	-2386	-32768	-5388	-13632	-3688	-8184	17734	-12829	-5835	-11388	5160	10780	-770	2128	-2888	-17016	-12	-2360	2714	5689	1578	-13488	1728	-2196	11752	17462	6546	123	127	1
-15176	-4860	10636	-6435	-32768	-25319	-11252	2048	-5408	-3030	-32768	-7376	-11772	-1620	-10148	22643	-11263	-5243	-12912	2940	11308	-223	1680	-3090	-17044	-960	-3228	770	4262	1069	-15304	2412	-4728	13960	20115	7193	125	127	1
-18896	-7000	11404	-8810	-32768	-24356	-13316	3216	-6060	-5503	-32768	-10141	-9284	2280	-10652	27879	-11220	-3302	-11916	4876	10548	679	575	-3743	-16780	328	-1436	239	3593	1176	-15480	3728	-4884	13813	19866	7258	120	130	1
-17944	-7736	11836	-8547	-32768	-22424	-17212	4296	-5332	-6274	-32768	-12922	-8588	3844	-10620	23380	-10007	-2727	-11340	4384	11172	-393	-225	-4776	-15708	-1844	1164	96	4451	1307	-18056	224	3328	109	11922	7590	123	128	1
-19368	-6688	14340	-9780	-32768	-23626	-21180	7480	-7592	-3402	-32768	-14311	-8348	4952	-7752	13517	-6368	-2042	-11508	4540	11444	-1069	110	-5214	-16428	-1148	2520	501	6212	2311	-14780	-5976	7052	-1527	13977	8271	121	128	1
-26696	-5848	20076	-14907	-30044	-26066	-27320	11756	-10196	-7100	-32768	-15762	-9160	8032	-4424	3839	-2769	-1388	-11908	4252	11712	-2991	242	-5754	-15820	-1400	752	715	8949	2803	-16000	-3948	7512	-343	15652	7410	129	130	1
-32768	-7188	21000	-14510	-27721	-27093	-32768	9160	-15292	-5878	-32768	-17741	-11524	8792	968	4111	-3829	-343	-12572	3304	12048	-3231	495	-4536	-18008	-1284	-340	1561	11571	2631	-20812	1976	84	-2964	13186	6454	124	130	1
-32768	3404	14600	-12177	-27032	-25423	-26632	8844	-20388	-6676	-32768	-14964	-14132	-4136	4300	-2505	-4359	-4370	-12588	3472	11980	-1669	1576	-4857	-17916	-940	-672	1250	13587	2886	-19252	3800	872	-2188	11227	5821	120	131	1
-32768	8692	4188	-9554	-30912	-25759	-22468	10892	-24676	-4313	-32768	-11833	-17220	-4272	12132	3744	-3446	-8744	-12016	2248	13764	-3009	3513	-3316	-17244	-2232	-840	-286	15373	1780	-18320	-268	4280	860	9840	5031	124	131	1
-32768	12436	-11360	-5229	-28578	-25286	-17844	7936	-24132	-7420	-24380	-10056	-18656	3372	23756	2804	-5754	-9266	-11992	1312	14140	-3567	6548	-3520	-18532	-2928	148	-3046	17348	543	-18808	-3532	3760	4602	7453	4181	118	133	1
-32768	28948	-25180	-9741	-16926	-17380	-6676	9072	-25336	-2537	-10188	-8270	-13308	5892	28224	-8240	2072	-4429	-12460	3008	13956	-4876	9878	-3873	-18200	-1440	-800	-7256	19039	48	-18188	-404	3860	5856	3660	1243	118	131	1
-32768	32288	-26640	-11752	-14092	-16001	-3976	5048	-21788	1089	8804	-2028	-13124	-2308	23496	-10049	-6238	2249	-12168	4416	14832	-6220	14166	-5631	-21588	-1204	-1924	-8772	20294	-614	-18808	3960	4064	4376	3145	395	118	127	1
-26988	-9824	3476	13626	11563	4195	-16424	4868	-6948	-2393	18199	4110	-12816	-8408	9568	-5393	-780	-1311	-10784	5976	15776	-7068	18905	-9130	-23148	-3708	-2500	-6905	20868	318	-20164	1284	2424	5951	2066	-176	124	126	1
15848	-18136	32767	9141	17163	10878	-32768	-1088	32767	810	8952	5043	-15316	-3032	-5060	-6125	13947	-1671	-9004	3132	17700	-7256	26804	-11319	-25716	-7924	-1388	-4002	22007	938	-24352	-2032	7704	5662	-6682	-1344	124	125	1
-11412	16656	744	11578	23582	18157	1728	21536	-9696	28170	7133	208	-25100	-3384	9892	3750	2012	3272	-8168	4024	19512	-7735	32767	-12315	-28448	-14676	6336	3214	24844	1473	-20776	-11948	10156	-3753	-15596	-5272	122	127	1
-23836	-2652	22476	-2108	30296	3114	-22544	13084	-1408	7151	18040	9628	-12312	5336	11240	32767	4074	4336	-11648	8908	19640	-10020	32767	-19115	-30032	-14540	13564	10333	27529	4406	-20868	-23200	13900	7410	-14012	-14972	120	127	1
-27588	-8924	15156	-2249	16318	15897	-26628	-144	-8572	3545	20394	747	-21732	12288	3660	15049	10535	3070	-27160	5908	16092	-9994	32767	-27418	-30272	-3904	3128	9151	29282	3517	-18888	-6600	14548	9706	-17584	-15313	119	130	1
-16696	-19176	8276	6021	12981	7515	-20072	-196	-4696	13849	16478	427	-19712	-7620	-8500	-13524	13563	555	-32768	6264	6172	-5780	32767	-28009	-31868	6248	-10076	-1495	30893	838	-21156	10732	-924	32418	-8446	-12630	123	135	1
-12772	-1076	11500	9776	2653	10405	-13648	-396	-9216	14883	11858	159	-11924	-14124	-9128	-6326	12169	-7690	-32768	11488	21060	-5648	32767	-32768	-26764	2116	-6484	-11379	18719	1398	-32124	6948	-14476	32110	-7742	-3617	126	135	1
-13424	-4296	12888	7562	2157	7748	-17100	6936	-7944	6584	11086	1951	-12588	-13548	-10428	-5357	11723	-7537	-24708	17356	28332	5414	31241	-26864	-20184	1128	-5496	-12917	15467	32	-32768	1500	-16012	9688	-25028	5597	125	137	1
-12420	-2236	13360	3898	1354	4224	-17532	9396	-6084	-3374	11590	884	-16664	732	-4792	-5665	8875	-5064	-32768	8120	25576	2406	5090	-14973	-14116	664	-9964	-4531	8280	1076	-27184	2232	-5324	981	-32768	-763	131	130	1
-11092	-2816	12892	2440	838	1588	-16612	6460	-4248	-6824	10988	-322	-16316	-4644	-3340	-5398	13861	-1402	-12800	16476	23124	5374	-31358	256	-8972	-80	1508	4019	-793	-1876	-27516	-952	-804	3052	-30297	-922	126	130	1
-10408	-3640	12272	1517	965	656	-17720	2356	-2992	-3362	8231	-708	-15748	-5948	-2480	-274	14384	1390	2600	13404	15624	5628	-32768	4680	-8152	-2196	3536	8199	-9606	-1430	-23112	220	-7608	7322	-20773	1283	122	121	1
-10232	-4216	11852	1237	657	280	-17116	1436	-1944	4645	4634	-573	-16468	-4740	-1316	4800	14794	356	-216	8004	11728	6775	-32625	7331	-6928	-588	680	9198	-17598	-2529	-18260	2940	-9452	5089	-18613	1896	124	121	1
-10012	-4244	11660	959	375	-122	-16128	3084	-1472	9052	2413	-390	-16192	-1524	632	6757	15701	-1412	-6860	5192	9872	9849	-32768	11065	-6936	128	312	9178	-18634	-2837	-14776	3396	-9208	-1476	-18145	1419	128	119	1
-8952	-4660	11472	723	434	-12	-15300	4024	-328	5523	3440	-730	-14928	736	2396	3814	16141	-2315	-11748	5128	10080	13198	-32768	15350	-7848	1360	-4060	7223	-30537	-4771	-11420	2992	-9004	-6362	-17313	638	126	119	1
-9204	-4472	11644	420	520	669	-14332	3688	-388	-2585	6703	-1084	-15064	1872	4644	-2361	14488	-2217	-13632	3964	10084	14869	-32768	19609	-10504	-1384	-4728	10092	-32768	-4635	-10548	4160	-9104	-9331	-15716	394	130	124	1
-9636	-3988	11388	174	524	1487	-16136	1616	-628	-7080	9065	-1167	-14548	36	3828	-9415	14973	-1324	-14904	952	11032	17551	-32768	22973	-12160	-1256	-4708	11326	-32768	-4925	-8792	4864	-10340	-14789	-13200	299	126	125	1
-9916	-4036	11816	187	624	1935	-16908	2032	-536	-3096	9210	-535	-15880	-2164	2552	-9566	18089	-1851	-16120	-660	11724	22413	-32768	25452	-14732	-2272	-4512	8704	-32768	-4877	-7376	4920	-10648	-20206	-12220	-1137	128	127	1
-10296	-3320	12012	381	305	1556	-16196	2744	-1784	1632	8273	169	-16180	-3656	-748	-4917	18088	-2150	-18180	812	14420	24903	-32768	25530	-18844	-3388	-8408	4550	-32768	-4135	-6192	3516	-10892	-21264	-11613	-1709	125	121	1
-10048	-4152	11940	408	338	1828	-16820	3612	-3028	290	7800	384	-15448	-2340	-2812	-2332	17187	-2416	-29316	352	16524	23916	-32304	26894	-21340	-3132	-12796	6461	-32768	-6667	-7656	-772	-7736	-17137	-11827	-3312	127	122	1
-10404	-3148	12012	65	944	1815	-16364	3436	-3792	-2687	8018	242	-15344	-2512	-484	-1127	16882	-3344	-32768	2276	19616	19758	-32386	27989	-27624	-6452	-15740	8308	-32768	-5335	-10120	-5516	-2416	-16471	-14743	-4524	129	120	1
-10348	-4224	11856	-51	1559	1463	-16200	1080	-60	-3573	8962	841	-16128	-3320	3552	-2025	16238	-3751	-32768	-7460	16876	17584	-32768	32767	-26680	-2344	-19000	13795	-32768	-6036	-9132	-2844	4196	-5018	-9941	-1876	128	120	1
-10224	-4488	12292	213	2049	2284	-16564	-880	1584	211	10200	1995	-19668	-3144	8092	-1481	12823	-4387	-32768	-5960	6780	10414	-32768	32767	-27844	3760	-19420	10264	-32768	-5255	-13312	-1452	6072	6634	-1928	4460	125	127	1
-10280	-4940	12616	714	2795	3133	-17228	392	268	2508	12682	3476	-19504	-3568	7648	-3622	9093	-4369	-32768	-14664	-5884	5188	-32183	29381	-24420	336	-20768	2288	-32768	-2944	-17072	-6504	12200	819	393	3866	125	119	1
-10680	-4560	14208	2013	5950	5899	-19380	1648	-416	2448	14967	4177	-19932	-3404	6140	-7928	6452	-3671	-32768	-20532	-18428	5867	-19238	23886	-16324	3432	-24412	-461	-22684	708	-18832	-4688	20472	-5163	-2347	2131	128	112	1
-10712	-5792	14856	2770	10735	7719	-19864	3744	-68	3415	17190	4884	-20544	-3540	5024	-9912	4056	-2674	-32768	-29856	-23884	6823	-3618	16380	-10424	2512	-25480	-1107	-7283	3338	-15764	-10856	25088	-7601	-1734	1444	128	106	1
-10728	-4116	17068	4192	15998	9392	-20668	5400	-1548	6298	18365	5336	-20096	-4728	3240	-7952	2721	-1214	-32768	-26180	-20496	3212	8046	9055	-8480	5668	-23348	-3617	8908	4323	-15316	-5160	19200	-1461	-3186	1464	128	128	1
-9676	-4844	16792	5565	20896	11048	-21856	6680	-2728	6916	19433	5177	-20120	-4620	1520	-7024	1528	231	976	2608	7828	-14291	14897	-16503	-20428	-6428	-3892	-14629	13279	3015	-15468	-3900	17404	-1287	-2678	2010	124	116	1
-8540	-3676	17256	5529	25874	13962	-23168	6016	-1268	5373	20526	4803	-20248	-4392	1832	-7134	1191	391	2000	4468	32044	-11689	16628	-10917	-29104	-16640	11504	-23942	1040	5807	-15180	-3892	2296	-14596	19130	6250	129	126	1
-7872	-5140	16916	7477	32767	20434	-26080	6696	2320	4337	21906	5421	-24100	-1408	16848	-7966	-13808	2716	-11884	-21156	9692	-10494	27254	-3795	-8560	-21092	-7116	-21958	10757	-1295	-16040	-8576	5280	-12996	12880	375	126	126	1
-4768	-4852	18156	9749	32767	22808	-29428	12796	9432	-4652	23948	5271	-14260	14244	14184	-5274	-17417	2967	-23236	-8756	20564	-1452	19564	-9316	-24288	-9376	-7176	-13552	14427	4553	-19672	-19200	1896	-14243	6737	29	123	122	1
-16772	-6956	13168	10507	32767	20861	-24452	8884	7436	-18027	28787	959	-20892	17804	6360	-17394	-12682	9226	-27052	14768	12060	2312	18894	-8952	-21268	-2032	-4028	-4410	16879	7467	-15732	-9440	-3128	8501	11967	1101	117	134	1
-32768	-6588	8368	1023	32767	25101	-22488	-1236	-12344	-20238	32767	739	-20288	4280	-4436	-32768	-14943	9100	-32768	26440	14204	-6805	12019	-4756	-20976	11460	-2992	-2533	15203	8554	-18636	18920	-3076	14594	8687	3684	128	117	1
-32768	-6708	15396	-1403	32767	25266	-26288	1428	-6100	-10737	27329	3919	-27520	-12116	-18212	-32768	-16169	4494	-13772	4128	12392	-7562	4315	-7183	-19736	2832	-3880	-13196	10338	5365	-18876	19052	-6860	-5830	9406	8744	129	134	1
-32768	-9008	17676	-2715	32767	25049	-20200	712	-5032	-9031	22455	4602	-26164	-17236	-16328	-7788	-21545	-4801	-13264	4440	12096	-8896	1724	-7936	-15744	300	-3864	-10944	8569	3572	-17024	3272	-4136	-12380	6902	7376	135	137	1
-32768	-4680	17364	-11839	11984	19089	-15556	-2104	-15276	-6730	14427	1434	-25096	-6744	-6368	8053	-24238	-3863	-12476	1068	12956	-6452	661	-6131	-16752	-5976	-2760	-2276	9649	2875	-14804	-964	-1116	-10659	8623	5040	132	133	1
-9888	-17380	20832	-13744	-29952	-916	-8636	-4116	2224	-12961	4311	795	-23308	-856	-3628	7504	-21992	-4663	-12736	1828	12788	-3720	450	-4896	-17616	-2472	-4240	4481	10265	3614	-16380	-572	-2860	-3392	9586	4656	135	120	1
1852	-15812	13048	-11495	-30432	-5725	-9840	-252	5024	-8712	-5663	-6402	-20116	-1368	-6140	2641	-19267	-7030	-11904	1992	12944	-2472	623	-2826	-17548	-2348	-4416	4069	9047	2749	-15760	928	-3028	-3181	9130	4182	120	125	1
-24	-11424	10544	-9670	-29050	-11053	-7548	-184	892	-4703	-13551	-8308	-17920	-1272	-6312	3712	-17345	-6856	-11544	1632	12584	-1474	925	-1438	-16748	-2768	-4152	417	6757	2323	-15968	-2672	-2904	-5331	10531	4445	116	130	1
-6056	-9864	10436	-8975	-31388	-18426	-7460	1120	-3000	206	-22092	-10273	-15292	-1404	-6172	6293	-16073	-6082	-12028	1660	12608	-151	969	-209	-16476	-4132	-3464	-1438	5137	2223	-14980	-2544	-2036	-2377	10078	4862	126	125	1
-6424	-9820	10232	-8672	-32098	-19516	-9604	4184	-3144	-1556	-29211	-11272	-13740	-3732	-6568	10714	-14663	-5595	-10428	3900	12040	580	1344	300	-16652	-3076	-368	1027	5198	2465	-15932	-956	-1036	-1568	11008	5568	125	127	1
-11264	-3096	10768	-10440	-32768	-27594	-11620	3584	-2796	-1823	-32725	-12860	-13260	-3768	-7420	17995	-13348	-5182	-10860	3816	11552	855	1404	-418	-15580	-2548	168	3088	5140	2535	-16060	-376	868	110	12126	5735	119	129	1
-13516	-1964	12080	-11835	-32768	-27787	-13116	4968	-3940	1960	-32768	-14131	-12056	-300	-7028	22965	-12970	-4706	-11016	4404	11308	644	1580	-1236	-16412	-1556	-808	4512	5251	2819	-14680	-868	48	2491	13163	5592	120	127	1
-15220	-2112	13756	-11516	-32768	-26656	-15680	7144	-5164	3721	-32768	-14149	-10380	1808	-8344	20930	-12555	-4475	-12164	3332	11500	354	1509	-1618	-16680	-1112	-2052	3201	5053	2474	-14568	-856	632	3161	13388	5504	121	127	1
-16528	-2004	16052	-9484	-32768	-25907	-16580	10224	-7232	1230	-32768	-13839	-9292	2188	-7084	14764	-10698	-3053	-11804	2756	11840	513	1545	-1222	-16432	-3020	-596	1158	5337	2032	-17116	-944	828	3479	13363	4532	121	126	1
-19560	1672	19316	-10280	-30627	-26055	-19560	12008	-7560	-3607	-32768	-12557	-7460	812	-5160	7821	-8509	-2467	-10564	5004	11276	486	2173	-1503	-16744	-1488	876	1219	5725	2402	-16740	112	1328	-126	14807	5601	122	129	1
-26740	-432	22912	-11382	-29157	-25350	-21924	9940	-9824	-10619	-32768	-11764	-7644	2512	-3000	2701	-5843	-2642	-11308	5060	11228	-682	2357	-3807	-17192	808	-604	93	5745	2526	-15136	196	1508	4485	16277	7131	122	129	1
-32768	-1740	24036	-10120	-32768	-23388	-26428	8940	-12044	-11659	-32768	-11867	-9512	3300	-72	-838	-3273	-3720	-11736	3804	11736	-1353	1944	-4565	-16596	-2460	-548	1889	7316	2489	-17024	-2220	3144	2879	15311	9104	120	131	1
-32768	-148	16388	-9572	-32768	-22474	-27760	7716	-12648	-8939	-32768	-11448	-12592	648	2848	-1406	-2724	-4852	-12168	2464	11828	-734	1652	-4954	-15368	-2200	1848	4323	10285	3011	-16056	-3476	7100	3882	12404	10202	124	132	1
-32768	1064	3860	-8294	-32768	-20923	-23812	8272	-16196	-1601	-32768	-11301	-17324	-4692	8164	551	-2259	-5185	-11564	4540	12384	-1175	2134	-5289	-16388	-700	3588	1802	12764	2361	-17776	-3280	7976	5229	11755	7874	127	134	1
-32768	11412	-4848	-8634	-24365	-21558	-18960	12152	-21868	-479	-29469	-10575	-17600	2160	17396	12711	-3943	-4487	-13040	2584	12712	-1707	3798	-7325	-19072	-536	-28	-1665	14732	1919	-18292	-800	4296	5015	11490	5889	123	133	1
-32768	22444	-13796	-12645	-13575	-21000	-10072	10220	-24020	-4703	-15636	-7317	-14172	5240	28628	5385	-2671	-1757	-13092	3000	13140	-2699	5630	-7932	-18088	-2000	-2584	-2827	16911	1448	-19440	1536	1928	2943	9161	5719	118	131	1
-32768	26844	-22176	-13564	-3130	-12476	-4716	4544	-21352	-6204	3517	-2324	-15756	2728	24384	-8137	-6660	2585	-13284	1896	14952	-5494	8937	-7096	-20392	-4504	-3096	-3800	18931	524	-20476	860	2356	4453	5649	3765	118	129	1
-32768	13924	-15896	1510	8797	2982	-9164	2428	-19148	1931	14803	2537	-13160	-3004	14372	-7292	-5610	2182	-12264	3652	16436	-7326	13452	-6743	-21788	-4764	-2504	-5957	20815	638	-20824	492	2916	6298	1831	372	127	128	1
13764	1380	31824	18275	11441	16300	-31488	-1808	24840	-4695	14980	6372	-14056	-6368	108	-6772	3378	526	-10648	3068	17968	-8778	19591	-7559	-22252	-4372	-2540	-6377	21081	767	-22940	720	6176	4066	-3535	-1803	118	128	1
-11264	6528	10928	11400	21836	22933	-12944	9524	-5552	27670	5632	-1981	-24868	-2204	8096	-2592	5764	1378	-7144	944	18472	-10687	27785	-6955	-27360	-9020	176	-4980	24011	744	-24416	-4140	13044	-1932	-13927	-3121	128	127	1
-15416	10000	19136	3896	25190	7523	-16204	15560	736	10608	15367	11687	-11368	-540	6384	20177	3847	1334	-7916	9100	18452	-9439	32767	-14021	-31252	-13476	9848	4959	27586	2022	-21740	-17092	12368	-795	-10829	-9069	116	126	1
-22980	5216	18004	-901	20328	10515	-25912	16356	-6304	5519	17830	1720	-24208	13908	3716	14980	9414	3003	-11580	10276	21420	-13391	32767	-26065	-32768	-12932	16800	12370	29287	2908	-25292	-16108	15772	3119	-17258	-15541	125	127	1
-20932	-15412	10268	937	13324	8143	-21000	452	-6108	3459	19369	1387	-18400	-1440	-4664	-6065	11551	2368	-32768	3992	11772	-12716	32767	-32768	-26244	4264	-8104	3824	27928	3076	-15960	-1196	5844	15265	-11265	-13196	128	134	1
-27820	-12608	11964	8331	5691	8462	-18576	-7900	-11244	8693	14473	-1592	-14332	-13496	-5484	-10591	12229	-3802	-32768	9356	2152	-9654	32767	-32768	-28672	3900	-12360	-4324	28180	677	-24432	6808	-5608	32767	-6281	-11669	129	133	1
-12152	-3692	12192	6738	1373	7464	-17340	3788	-7624	12867	8738	869	-15568	-12812	-10860	-2350	11722	-4459	-32768	10336	20568	-1777	32767	-32768	-22176	2636	-3616	-9451	17481	2775	-32644	4048	-14524	24452	-14858	-69	139	139	1
-12216	-1600	13864	4755	1222	4477	-16112	7636	-6316	5152	8088	1279	-18964	112	-5672	4207	10275	-4880	-2760	23052	23884	1098	21502	-26182	-17844	3588	-8852	-9596	12333	1520	-31248	3200	-14164	6087	-26558	6277	143	136	1
-11248	-2420	12912	2236	903	1702	-17284	7976	-3860	-2866	8734	223	-16708	-548	-1332	1428	13452	-3060	-26056	17204	21884	3058	-15727	-4424	-12756	968	-5544	-136	5435	230	-26340	572	-1836	948	-32768	-153	131	132	1
-10216	-3636	12556	1123	728	514	-16956	4556	-1900	-5521	8651	-891	-15684	-2424	300	-976	14041	9	-5420	14092	17996	5321	-32768	5843	-8624	-1804	2724	3541	-4499	-1372	-24708	1492	-4576	5081	-24310	1862	126	125	1
-10112	-4540	11756	433	699	0	-17180	220	-668	-1581	6868	-847	-15908	-4236	2028	6	13154	866	4180	11864	11452	5310	-32768	10527	-6092	-2068	2108	5730	-12076	-2610	-19756	2892	-8376	6748	-18504	2962	126	117	1
-10080	-4904	11484	390	361	155	-16672	328	-652	5266	4259	-201	-15708	-4368	2064	2344	13626	-474	-1896	7908	9048	5666	-30723	13154	-6308	1976	-1072	5484	-19278	-3641	-16168	3208	-9252	2255	-16900	3548	124	119	1
-9192	-4756	11764	144	266	118	-15700	3104	-800	6304	3294	92	-15736	-1632	2036	2426	14584	-1736	-2828	7956	8868	5675	-30649	13426	-6692	1984	-2640	3807	-25711	-4463	-12980	4384	-9536	-4097	-15998	2529	125	117	1
-9200	-4644	11716	-88	284	640	-15328	4200	-812	1	4991	-354	-14860	412	2332	-782	15068	-2068	-9964	5200	8928	10458	-32768	19009	-8268	1040	-3516	4894	-31375	-5244	-10976	4156	-8792	-7927	-15911	2367	127	119	1
-9428	-4752	11288	13	694	1310	-14920	3080	-432	-7562	7882	-1224	-14624	592	3712	-5886	13674	-1526	-14784	3608	9708	13475	-32768	21184	-10388	108	-4636	7175	-32768	-4738	-9764	4020	-9092	-12341	-14582	1644	129	123	1
-9708	-4404	11580	285	510	1646	-16580	960	-464	-5612	8257	-850	-15396	-1548	3416	-8734	13826	-875	-17768	2544	11296	16824	-32768	23701	-13140	768	-5592	7483	-32768	-4805	-8344	4464	-8856	-17496	-12729	920	125	125	1
-9932	-3700	11868	511	214	1533	-16004	1792	-1012	517	7746	225	-16148	-2824	1172	-7659	15478	-881	-17480	1328	11768	21087	-32768	25373	-16204	-1152	-4336	6657	-32768	-4569	-8396	4612	-10140	-22757	-12609	-339	127	124	1
-10236	-3500	12016	476	170	1091	-16140	3984	-1836	506	8639	514	-15680	-2192	-128	-3499	16120	-2229	-17300	2800	12384	24467	-32768	24519	-19568	-3424	-7248	6135	-32768	-3000	-8172	2568	-11068	-23216	-11497	-747	122	120	1
-10280	-3704	12024	98	472	867	-16008	3544	-2056	-2225	9388	171	-14536	-1344	-420	-1223	18012	-3517	-27640	3016	15508	23507	-27364	24490	-22112	-1120	-12332	5918	-32768	-3906	-9060	-3128	-7840	-18550	-9827	-2327	127	121	1
-10268	-4204	11896	39	981	1220	-17172	1792	-2612	-2521	8871	405	-15384	-1848	-380	-169	19235	-4310	-32768	2756	19828	19283	-28646	27683	-27588	-6316	-13324	9047	-32768	-3171	-9680	-7260	-4184	-13112	-10363	-2947	130	120	1
-10324	-4308	11848	58	1397	1565	-16820	1528	-1308	-1890	8798	932	-16764	-4200	1580	-1052	17234	-3860	-32768	-5048	18516	17317	-30773	32767	-28448	-3604	-16488	14885	-32768	-2302	-8972	-4956	5108	-385	-7510	-42	123	121	1
-10556	-4368	11812	-27	1487	1570	-15544	860	20	-453	10018	1760	-19132	-4560	3884	-1462	11918	-4267	-32768	-8164	11264	14429	-31716	32767	-28704	2304	-18080	11980	-32768	-2737	-14364	-756	9868	11750	-2261	6136	123	127	1
-10324	-4696	12544	-82	2716	1995	-17220	452	192	462	12020	2947	-19348	-3912	4556	-1563	11201	-4292	-32768	-15068	-2364	9352	-32077	32000	-24064	920	-18744	3107	-32768	-1808	-18324	-4028	14036	3740	-996	7046	123	127	1
-9976	-5952	13784	740	4710	3316	-19040	-236	-308	761	14354	3959	-19080	-2820	5932	-8059	7532	-3070	-32768	-21804	-17472	7784	-20976	24805	-16484	20	-22100	2158	-22652	2413	-16640	-5812	22316	-3627	-2213	5744	126	113	1
-10656	-5648	14284	1941	9008	5906	-19664	3212	-584	2847	15585	4643	-20120	-3696	4028	-8524	5674	-3164	-32768	-32768	-24892	13985	-3788	13920	-7632	1752	-22900	5902	-4596	6731	-14604	-13588	28120	-3157	-982	2007	127	107	1
-10396	-4588	16220	2681	13221	6625	-19456	4712	-496	5421	17257	5261	-19492	-4700	3044	-6711	3747	-1602	-32768	-24796	-19000	6787	6087	3645	-8560	5644	-21344	-1994	10628	4688	-15716	-3056	20460	2583	-5802	2022	126	113	1
-10800	-5012	15864	3605	18263	8823	-21276	5272	-3428	7953	18051	5520	-19924	-5192	828	-5689	2934	-176	-25784	372	12972	-21868	7725	-15609	-20148	-9440	40	-14494	13820	1192	-14852	3708	7276	669	977	5569	127	124	1
-7884	-5240	17000	4725	23313	10775	-22828	5356	-3068	6396	18642	5052	-21432	-4908	2040	-5813	1033	830	7948	18432	32767	-15703	18282	-13368	-28304	-10432	18108	-24554	287	4751	-19024	-1640	1328	-7827	9505	6298	125	115	1
-8852	-4688	16376	5104	29683	14914	-24412	6044	68	5218	19834	5530	-22420	-1912	6188	-6651	-4401	1228	-11068	-28536	4464	-18603	22568	-7847	-7052	-24668	-12552	-31474	8304	-1657	-21164	-8992	7060	-27007	8539	-31	125	123	1
-5328	-1312	15296	5916	32767	18238	-23548	11000	60	2064	21209	5363	-24692	2768	26044	-1198	-23013	4325	-9464	-25412	13648	-13373	27687	-1072	-22244	-18092	-7420	-12152	14478	3064	-15276	-20452	1448	-23235	14125	-4711	121	128	1
-6772	-9808	16104	6120	32767	15133	-29444	17012	12764	-11959	23957	5795	-20064	18508	13500	-7812	-11679	5360	-28056	-1716	16672	6184	22563	-8523	-23152	16	-4308	-490	18955	5376	-12828	-13784	864	5494	11301	-2589	127	119	1
-29108	-8800	11276	2493	32767	17260	-23080	4592	1948	-19758	30207	1834	-21264	14060	10636	-17972	-18380	10440	-32768	32767	2352	-6268	8893	-2580	-24688	18352	-4084	-2333	15811	8750	-22080	15856	-4576	18769	8713	1353	123	134	1
-32768	-2060	7652	609	32767	24771	-29256	-4564	-11356	-11280	31309	4001	-21772	-4620	-5504	-32768	-17982	8454	-15384	-2876	12572	-5248	3453	-6471	-18152	1252	-4380	-15601	10251	3784	-18572	24424	-9544	327	11479	10061	126	135	1
-32768	-10912	17820	-2014	32767	23718	-24168	3160	-8456	970	25245	6699	-27768	-14952	-17256	-32768	-15866	1897	-13212	4080	11820	-8328	853	-7393	-15812	772	-4052	-10235	8838	2666	-16760	1360	-4052	-11714	8502	8669	128	142	1
-17960	-18804	24080	-6609	30393	18228	-20240	3256	-9920	1771	19528	4863	-27540	-11296	-12356	-423	-23374	-4828	-13184	2916	11972	-6450	-69	-6226	-16724	-5768	-1768	-662	9773	2824	-15512	-900	-1436	-5628	7530	5549	133	143	1
-31948	-17772	29060	-8984	-2380	10617	-13372	2436	-9108	-4590	10904	2559	-25964	-4116	-5260	12384	-25908	-1783	-12496	3140	12168	-4327	-828	-5981	-17728	72	-1364	3842	9978	3493	-16708	2040	-408	-566	8345	4869	126	127	1
-5588	-15400	22360	-13148	-24290	-1577	-10052	-796	1596	-13382	3978	479	-23704	-432	-3332	6607	-23536	-3711	-10892	4948	11960	-4072	-1701	-6376	-17788	1392	-1152	-810	8077	2098	-16904	2356	224	-3304	9189	4609	122	124	1
440	-13712	13340	-11719	-30527	-3507	-8588	-1292	2684	-12157	-4914	-5177	-20068	-2680	-5568	-805	-20336	-5840	-11712	1944	12444	-4916	-1330	-5056	-16836	-2320	-2484	-7479	5606	1246	-14856	-292	-756	-7683	9482	3036	129	124	1
-2564	-12124	11408	-6587	-32768	-6717	-7136	-1588	184	-6129	-14358	-6962	-17504	-3368	-7228	1913	-18412	-5343	-11476	-228	12288	-3637	-974	-2946	-16392	-4504	-2812	-6992	5075	1292	-15576	-1480	-1128	-8367	8895	2929	125	133	1
-6084	-6980	10804	-3315	-32768	-12436	-7144	3076	-2880	225	-24268	-7409	-14560	-3016	-7396	7566	-17006	-5341	-10800	1528	12408	-1656	-161	-1920	-16120	-5040	-2524	-2251	5703	2129	-16424	-2800	-1068	-7773	8693	3991	130	127	1
-3704	-1636	10288	-5964	-32768	-19655	-8456	6708	-1880	-3145	-31101	-7135	-13144	-4088	-7632	12435	-15882	-4416	-10276	3168	12256	-673	509	-2253	-15800	-5080	-1844	-1338	5858	2158	-15416	-4824	-712	-3446	10797	5050	117	126	1
-8328	-1552	9404	-9889	-32768	-24265	-9548	5352	-2008	-5222	-32768	-8239	-12280	-3984	-8672	17328	-14260	-3641	-11396	2664	11960	-750	711	-1900	-16456	-2340	-1948	5504	6284	3299	-14128	-2456	-328	4516	12319	5387	121	127	1
-15344	-3944	11912	-8710	-32768	-25458	-11252	4492	-5704	-2517	-32768	-9636	-11096	-408	-8500	22871	-13738	-2663	-12064	2128	12028	-651	829	-1594	-16560	-592	-2236	2020	5409	2996	-15240	840	-200	6208	13198	5495	125	129	1
-15760	-3304	13080	-5358	-32768	-26562	-15344	6756	-5144	1693	-32768	-9483	-10268	840	-9020	21679	-13062	-2322	-10712	3448	12348	-673	929	-1645	-16628	-2328	80	-346	5093	2557	-16892	1268	-56	2004	14296	5352	125	132	1
-16100	-2012	15312	-4431	-32768	-27984	-16764	9656	-7440	1394	-32768	-8129	-8776	92	-7640	17188	-10886	-2037	-10944	4292	11776	-1687	915	-2670	-16776	-1972	420	-415	5093	2610	-15712	1796	-1156	1304	15442	5036	123	130	1
-23748	-348	18280	-7251	-32768	-30138	-19724	10356	-9912	-1840	-32768	-7021	-8148	556	-5848	12443	-7242	-1753	-11996	1252	11944	-1609	636	-2250	-17120	-2404	-4416	1742	5656	2843	-15048	1004	-2644	3898	16511	6440	122	131	1
-26676	-6864	18260	-5604	-32768	-27988	-24828	9492	-10984	-3657	-32768	-7194	-9508	4660	-2288	11370	-6119	-2097	-11716	2000	12492	-1202	830	-961	-17100	-3096	-2236	4650	7347	3345	-17160	-1872	-24	2787	15669	7724	125	130	1
-32768	-4432	17972	-2452	-30067	-26061	-27376	9736	-15792	-2158	-32768	-7300	-11164	5284	3024	9330	-6955	-849	-11664	3496	12340	-1154	1000	-921	-16304	140	1444	3935	8926	3529	-17612	-1116	4440	-372	12963	7618	127	136	1
-32768	-4528	8232	-3058	-27788	-29454	-22744	6192	-18564	-2799	-32768	-5393	-11732	-2148	6220	3053	-3662	-1754	-11536	2680	12004	-1832	1079	-1924	-16348	68	1756	1282	10208	2629	-16472	-656	5912	1588	10956	7812	128	138	1
-32768	-4980	-1616	-1213	-26041	-32558	-19404	5760	-21964	3454	-32768	-5528	-15544	-652	8984	8169	-1651	-1136	-11984	2800	12368	-1826	1720	-2931	-17148	-516	84	1577	12463	2119	-17100	-1952	3868	4668	10479	7268	127	139	1
-32768	3064	-10608	155	-20891	-32408	-19080	6380	-22072	3361	-27197	-5326	-13696	6180	15736	14224	-1695	-1334	-12044	3200	13560	-2068	3445	-3638	-18848	-912	340	700	14498	1496	-19204	-960	5180	6591	10932	7464	125	138	1
-32768	10084	-19228	-985	-10153	-26002	-11176	3748	-24296	4747	-15766	-4658	-12760	3888	21660	7110	870	-2670	-10612	2856	15432	-3935	5925	-5426	-19568	-2140	-304	-1392	15803	1008	-20308	-284	4072	7523	10460	5430	127	136	1
-32768	15972	-22880	-2765	512	-14296	-6628	3036	-22964	2552	-167	-2794	-14064	2684	21028	-3603	-1433	-171	-11880	2732	15240	-4305	10231	-6421	-19540	-3376	-1800	-3209	17384	788	-20864	-604	1552	6204	6662	3736	126	134	1
-32768	11808	-16992	-1527	10438	-1011	-8680	1156	-21132	3127	12925	-93	-14656	-3196	15616	-5485	-1565	860	-11756	2688	15508	-6284	13999	-8229	-19764	-3144	-1724	-4986	18928	464	-19124	1052	3252	6156	2260	1774	125	132	1
15704	-15716	20676	8800	6767	13749	-27948	7104	11616	-5660	17349	2201	-15148	-1960	10808	-2353	-1843	386	-11204	3928	16556	-7775	17859	-9730	-22248	-2216	-1332	-5876	19964	535	-19392	2156	5660	7025	-1024	167	122	130	1
9144	1724	11596	781	27162	15101	-24460	7200	15096	20319	6051	-1716	-18864	2172	7400	-4193	14252	2876	-11412	5084	16224	-10110	23842	-12749	-24672	-4144	-144	-6586	20683	821	-22440	-504	6968	6224	-4784	-488	122	128	1
-28276	10988	13552	1946	26203	11116	-6872	17640	-5676	15055	11564	4216	-15848	1656	7768	9959	6196	-394	-9088	3624	17084	-11688	31205	-18877	-25504	-6716	416	-1539	22181	2813	-19996	-7576	15848	321	-16227	-3952	132	127	1
-23324	-1292	16588	-3438	24314	10335	-26164	13668	-4296	2946	18644	1133	-20716	9496	7676	12487	9843	-529	-7852	7532	18928	-13748	32767	-23985	-30480	-15044	10932	7962	25131	3730	-19372	-14120	9908	9266	-13974	-9619	124	128	1
-23820	-10292	14036	-2979	15021	10627	-23228	4856	-6076	5362	18471	-516	-19392	5268	1004	-220	9421	374	-16492	7548	17360	-14856	32767	-30466	-29132	-7412	8712	16835	27090	6048	-24056	-11056	7100	13259	-17188	-13186	124	129	1
-26220	-20400	3596	4952	8007	7113	-20520	-7804	-10732	6207	17051	-1989	-17828	-10872	-5300	-10026	11805	-296	-32768	-1784	3068	-2137	32767	-29672	-26248	5676	-14256	14256	30078	7159	-18576	-3484	-1756	25876	-11141	-11386	126	132	1
-14012	-4200	11544	7875	2609	8307	-16792	4060	-7672	15486	8838	-364	-13808	-14116	-8864	-1350	10023	-4589	-32768	8088	14772	2520	32767	-29942	-26256	2568	-9504	1501	23585	6298	-27552	-872	-12096	32767	-10056	-5595	130	135	1
-11612	-1780	13376	7566	-97	7382	-14092	5868	-6900	11498	7145	76	-18564	-3952	-6940	8556	10610	-5526	-30136	16588	22028	8824	26899	-30065	-19272	1732	-5260	2633	18254	8242	-31556	-4980	-15588	25210	-19112	2490	133	136	1
-11304	-3036	12756	6524	-2602	6779	-16256	8140	-5520	5915	5819	-1458	-17784	-540	-2572	8358	11870	-4333	-31468	-2980	17472	4846	9985	-19336	-12720	-816	-9852	5346	10435	9851	-28024	-2996	-9100	15218	-27276	3347	131	133	1
-10704	-2604	12516	3226	-547	3049	-17804	8664	-3228	-1436	6871	-1227	-16700	-692	744	6840	12615	-2586	-12452	11644	17344	16914	-15925	3731	-7708	-4640	-2052	15386	5224	8090	-24372	-2984	-5892	14130	-25733	2391	144	127	1
-9908	-3432	12556	1842	-222	1721	-16236	4592	-916	-2357	7116	-1962	-16024	-2024	1248	5043	12657	-1389	2260	15864	11832	13716	-17051	15236	-6276	-2680	880	15440	-4053	9088	-20988	-2328	-8384	14855	-20470	3430	128	124	1
-10000	-3272	12184	1488	-164	1001	-16144	2364	-1016	6156	4649	-1612	-15760	-2072	820	7135	12181	-694	712	6736	11204	8991	-15811	20727	-4640	1368	-1080	4494	-14459	9469	-15480	-424	-9552	13466	-16507	3509	129	121	1
-9636	-3600	12276	1069	-449	832	-15280	4856	-936	9053	4139	-841	-15960	328	1940	10211	12488	-1736	-2388	1152	12852	9676	-16814	23714	-4960	-2844	-2684	-2669	-22826	7597	-13932	1920	-9052	8089	-15999	3641	128	122	1
-9472	-3944	11704	582	-260	723	-15396	6384	-1112	2706	6720	-1029	-16192	1832	2660	8841	12465	-2787	-5520	-3024	14756	13038	-21249	24000	-6420	-5476	-3424	-17	-28513	6191	-12360	2084	-8352	3868	-15247	3084	130	132	1
-9336	-4072	11820	623	-130	759	-15904	4492	-996	-978	7643	-1487	-16264	2016	1552	2435	14177	-2988	-8904	-7884	16248	18342	-26029	22545	-8192	-6792	-5112	4206	-32534	5268	-11236	3268	-7908	-1263	-14244	1598	132	134	1
-9832	-3132	12084	732	108	1472	-15892	3872	-1880	212	6509	-1302	-14624	1212	276	-4039	16252	-2146	-10464	-9688	16496	25456	-30757	20554	-11524	-7624	-5844	6178	-32768	3404	-10456	3164	-7852	-10807	-13473	-1041	132	141	1
-10296	-3084	12336	403	454	1177	-16548	4528	-3340	1139	5400	-846	-15056	-32	-732	-5472	17718	-1010	-9724	-7552	16572	29185	-31205	17135	-12960	-8896	-5448	7282	-32768	1651	-9968	2664	-8892	-17421	-14094	-2379	133	155	1
-10284	-3296	12112	-179	713	788	-16468	4884	-3404	895	5335	-789	-16592	-2316	-2036	-5115	18115	-1151	-13604	-3080	15932	26795	-29379	14529	-13932	-9512	-7484	10957	-32768	130	-10272	2568	-8904	-17022	-13522	-2873	131	165	1
-10008	-3808	12172	-342	1266	729	-16564	2932	-2124	-2726	5743	-433	-16932	-3792	-60	-933	17292	-2605	-20412	-2980	16760	23165	-27765	15542	-16032	-4752	-10428	14380	-32768	194	-8172	2004	-8028	-13094	-11582	-2597	132	149	1
-10140	-4004	12096	-433	1736	1075	-16028	3120	-1300	-1340	5696	111	-15556	-432	1904	3650	17288	-4783	-24192	-5480	20864	24290	-28241	20338	-22336	-7044	-11988	16017	-32768	-399	-8144	-1236	-2116	-8839	-11562	-3001	131	135	1
-10236	-3392	12036	-155	1917	1424	-15404	3852	-1836	-562	6539	268	-16072	788	2404	1378	17684	-4124	-32768	-3424	23208	24352	-28527	26673	-28124	-5784	-14792	15194	-32768	-1215	-10716	-1768	88	-5861	-8157	-592	127	129	1
-10348	-3684	12312	382	2347	1643	-16480	1936	-1352	1443	7524	876	-18844	-2908	1820	-728	14266	-2854	-32768	-8668	19200	20110	-31531	32767	-25476	-2376	-15428	11975	-32768	-3302	-11884	-448	6124	5243	-33	4127	125	116	1
-10488	-4292	12324	1054	3127	2605	-17044	1620	-528	2222	8871	1982	-20856	-5616	2716	-1550	9445	-3292	-32768	-10032	9416	9156	-32768	29985	-25508	788	-14956	1734	-32768	-5412	-15920	-192	9836	11337	3164	6783	124	114	1
-9908	-5016	13388	1102	4781	3712	-18528	2112	-588	2531	10118	3333	-19152	-2668	4684	-2029	7767	-3679	-32768	-17800	-4664	2269	-28224	24279	-20836	-4788	-17356	-3703	-31404	-3858	-16600	-7848	11416	-4187	3816	5121	128	107	1
-10644	-3936	13884	1524	7390	5740	-18768	5156	-28	1379	12028	3927	-19220	580	4964	-5994	7826	-2138	-32768	-25576	-14404	4615	-14550	19636	-14104	-1024	-22080	-666	-18827	1298	-14536	-10784	27516	-9945	-1519	1582	126	107	1
-11048	-3504	14292	2521	10948	6643	-17696	4040	768	3691	14422	4647	-19940	-1424	4960	-6821	4633	-952	-31596	-32768	-18008	10188	-3432	11312	-8284	1116	-19924	2557	-2128	2433	-13272	-15416	25636	-1130	-2110	-920	126	95	1
-11084	-4196	14556	4129	14260	7885	-18272	3652	-180	8640	15760	5823	-19680	-4160	7352	-5447	1293	-811	-27584	-15680	-9124	-7407	2603	-492	-13460	3596	-12616	-1916	10590	1481	-13912	-2512	16076	5141	-1287	-165	126	108	1
-9492	-4864	15368	5749	17792	9654	-20320	5300	-1176	8872	17945	6282	-19420	-3972	6664	-5425	-1407	86	-13524	6972	32767	-2877	14336	-19794	-24612	-10936	26780	-8227	8662	-2394	-18092	2044	1976	1241	6739	1925	128	109	1
-9536	-4772	16424	6411	22981	13463	-23948	5680	-996	6820	19920	6611	-21564	-3944	6648	-4515	-5005	1058	-7936	-3676	7808	-12163	8327	-21314	-11496	-10560	-4924	-15263	5351	4438	-20492	-4760	7432	-16683	14754	-634	128	104	1
-9120	-4424	16040	8356	31236	21161	-24712	9144	784	4840	21100	6184	-22820	-1848	15420	-1545	-14670	2901	-9904	-1400	17152	-3791	26263	-2772	-19920	-16716	388	-8217	12608	-841	-12952	-8956	-900	-13329	15898	-3993	123	114	1
-5668	-3820	18700	10237	32767	23265	-28024	13116	4384	-2684	21953	6362	-17900	10268	19664	5730	-16220	3674	-24120	-7568	16760	-3305	15698	-14265	-24928	3540	-5508	-4368	15129	4382	-20988	-13796	5200	-3453	2699	-2593	142	110	1
-13964	-7212	14048	14987	32767	21314	-25796	7524	12736	-11299	24950	7172	-17772	9656	17904	1731	-13936	4492	-32768	32767	12048	-7920	5903	-5729	-23936	2944	-6236	-5629	15060	4301	-20556	8152	-5608	13902	11490	2789	128	131	1
-32768	-4952	6788	9310	32767	26279	-21176	-1420	-10568	-10873	28358	5031	-22836	8148	5944	-12569	-10901	7209	-15392	-5548	15220	-6754	3495	-8625	-15720	1792	-4864	-13738	9359	3693	-14952	19260	-9340	4039	12703	8849	125	130	1
-31264	-6348	8700	8482	32767	28668	-24276	2168	-8076	37	24846	7648	-26112	-6304	-10840	-32768	-15851	3565	-15528	1348	12764	-5110	459	-6644	-17052	-1468	-5892	-8192	8028	2993	-16400	1048	-4760	-10526	7426	5884	130	135	1
-31364	-2988	14568	3542	32767	24313	-17324	2916	-8876	-462	17254	6964	-25228	-14412	-16000	-12512	-17438	-3344	-13884	620	13272	-2243	443	-3108	-17980	-5868	-3376	149	8989	3045	-17536	-2596	-1144	-4070	6026	4323	138	138	1
-5068	-15000	22812	-1578	11912	14069	-15656	508	-13016	-13	13071	5693	-22328	-10436	-9696	8338	-19663	-5082	-11860	3284	12552	-1044	575	-1836	-17576	-864	-888	5868	9801	3631	-16892	2156	68	1057	7892	4227	132	138	1
-18188	-19128	21444	-1478	-20194	-3101	-5576	-5672	-5668	-2329	4197	4951	-20916	-4504	-5328	11657	-20050	-5256	-11164	4320	12044	-1110	295	-1892	-17308	1544	-224	3075	8340	2590	-15028	4088	-224	1803	8985	3997	131	140	1
-1376	-13056	13488	-2825	-30702	-11589	-10616	-1244	3940	-3973	-3719	2034	-19504	-5548	-6100	7471	-16941	-6653	-11636	3548	12168	-1606	98	-1981	-17532	244	-2252	-1881	6013	1123	-16284	3452	-2656	93	9323	3155	121	125	1
4704	-9096	7944	-1193	-27912	-12468	-9944	-1296	2344	545	-12191	-678	-18132	-5744	-6336	9441	-16165	-7957	-11696	1680	12600	-630	149	-1174	-16636	-4152	-2952	-1533	4747	916	-16180	-1108	-2256	-4153	9449	3080	123	127	1
-3156	-9292	7048	939	-22373	-11717	-7244	-1660	-1820	6897	-19092	-1792	-16100	-2708	-6844	14032	-14547	-7822	-10876	2308	12368	451	491	-356	-16540	-4548	-2808	-841	4705	1011	-15596	-3884	-876	-1186	9751	3441	122	126	1
-11868	-8860	9604	362	-27532	-17154	-7888	1152	-7452	7158	-25876	-2271	-15184	-3344	-6184	18433	-13671	-6427	-11024	3384	11880	598	432	-130	-16076	-1716	212	5843	5610	2557	-15148	-3372	1452	4945	10078	3921	121	128	1
-13240	-8348	9468	-482	-32768	-23310	-12492	1656	-5916	1772	-29832	-3091	-15484	-5732	-6292	22807	-13629	-5904	-10588	4380	11584	124	305	-442	-16472	-192	1480	5206	5796	2422	-15372	-12	2540	8424	10162	4680	128	128	1
-12000	-6316	7564	-1652	-32768	-24255	-11628	2360	-3232	1507	-32768	-5147	-15028	-3308	-6788	28092	-13580	-6167	-11064	3428	11652	23	424	-1016	-16268	-972	272	3196	5662	1920	-15208	956	2596	8156	10219	4660	127	129	1
-13884	-5756	8496	-3758	-32768	-22544	-12488	2116	-4860	1940	-32768	-7342	-13004	2124	-6404	29243	-13335	-4891	-10932	3528	11948	-98	487	-1316	-16480	-1428	908	3779	6611	2010	-15688	648	2556	8253	10126	4573	127	126	1
-17140	-8284	9244	-4147	-32768	-22486	-15444	3144	-6672	1624	-32768	-8901	-11064	4652	-6324	22693	-11872	-3961	-10304	4652	11888	-499	955	-1562	-16752	-812	884	3795	7210	2367	-16304	428	2300	7793	10519	4115	124	131	1
-16848	-8244	10828	-3638	-32768	-24234	-17436	5264	-6888	1556	-32768	-10135	-9492	4212	-5100	12824	-8988	-2699	-11480	3312	11796	-1227	789	-2472	-16512	-388	-524	2533	7536	1819	-17272	584	1876	5364	11974	3499	123	131	1
-17944	-3928	14552	-7415	-30118	-26537	-22492	8416	-7296	-1679	-32768	-10698	-10196	4048	-3008	3948	-6462	-1410	-11456	3320	11964	-1680	977	-1801	-17080	-1444	-852	3314	8462	2111	-16816	1708	1708	3119	13959	3751	123	132	1
-24828	-2056	17872	-15106	-22673	-25181	-23728	8448	-9400	-8636	-32768	-12206	-11836	5756	-688	-247	-4349	-2313	-11400	3892	12292	-1898	735	-2072	-17300	-452	-1252	2943	9068	2197	-17120	1664	624	-37	16343	5121	123	135	1
-32768	-6508	17608	-14324	-23889	-18163	-26328	4300	-12160	-12624	-32768	-14964	-12188	3780	4308	-2798	-4740	-2675	-11632	1696	12368	-1846	522	-2139	-16860	-1320	-2404	2253	9736	1793	-15132	-192	-1392	-2627	13973	5088	123	135	1
-32768	3688	13280	-12886	-24462	-10634	-24852	7484	-12232	-12237	-32768	-14494	-12900	-1152	7340	-5929	-6205	-4114	-11748	3196	11784	-1934	734	-1524	-15892	-1092	-80	2897	10789	2190	-15568	-1372	340	-823	9606	5394	123	133	1
-32768	8112	7196	-16963	-24169	-11688	-19332	9760	-19056	-10975	-31092	-12703	-14008	-5128	9508	-2657	-5071	-7003	-11684	3800	11876	-2542	631	-2482	-16360	1496	-344	1184	11393	1985	-15360	296	3372	546	8018	5399	123	132	1
-32768	9640	-1892	-14881	-25987	-18222	-17144	10128	-19412	-13017	-21727	-10180	-14620	-1752	14072	3599	-5237	-8563	-12268	2996	12688	-2287	1622	-3196	-18316	-92	-1568	-589	12356	1046	-17140	-120	1884	2441	9087	6067	120	132	1
-30460	13684	-10804	-7399	-18332	-18090	-12384	6908	-16792	-7759	-13386	-8296	-12184	-468	17036	-3389	-1121	-3901	-12276	1904	12968	-2134	3543	-4529	-17972	-1908	-3592	106	13325	1034	-17432	-520	248	6036	10518	5826	121	130	1
-30056	20352	-14972	-3641	-6689	-12328	-8936	6128	-16496	3077	-4611	-4488	-12276	-676	17060	-4771	-578	-3017	-10508	2280	15440	-2556	5993	-4787	-19076	-3092	-2968	1037	14485	693	-18496	-132	-1292	6546	9283	4266	120	128	1
-27592	17444	-12160	4219	2988	-1749	-10284	6164	-16564	8968	4606	-1075	-14748	-7676	13276	2485	-4548	239	-11816	2048	14888	-3734	9584	-5581	-19112	-2240	-3492	-1863	15072	510	-20092	1536	-1500	6137	4965	2245	124	127	1
-29672	18384	-6076	10415	10186	5721	-9816	9424	-18264	12466	11909	2741	-14516	-4344	10620	6215	-2742	-1618	-11864	2048	15356	-4954	13535	-6763	-20080	-3072	-4188	-4978	15144	185	-19484	1796	388	6152	3321	952	119	126	1
23076	-4196	23068	11189	8944	6653	-28516	6052	8092	5991	12554	5486	-14732	536	9524	11640	714	133	-11168	2396	16044	-5883	17355	-7092	-22068	-3300	-3828	-3927	16051	214	-20540	1440	2212	6203	1981	489	116	126	1
340	-240	19324	4554	14287	10300	-17780	11640	7284	17614	4125	-1487	-16436	4988	-3252	4064	17662	5936	-10552	4208	15892	-6253	22209	-7688	-23668	-3880	-444	-3788	17333	273	-22640	84	6572	4956	-3328	273	115	127	1
-4764	5472	7480	3011	24492	1062	-10832	15860	-3480	9816	10839	5534	-18944	3704	3768	14269	6586	2469	-8700	2652	16588	-7361	28227	-10735	-23768	-6692	2008	-477	19789	1013	-20480	-5576	15032	-2581	-14887	-2864	129	126	1
-23100	212	17740	-33	21938	5616	-23076	8324	-2656	8052	11477	1009	-18700	4788	8060	14833	9416	1167	-8528	6616	17244	-8247	32767	-11269	-26836	-15624	8160	7460	23813	1897	-18512	-17564	11464	-289	-12200	-11166	116	125	1
-22388	-5208	15112	-1494	13082	9845	-23064	480	-5592	4593	12938	1108	-20968	4100	3584	-869	10228	2231	-13576	5272	16700	-10907	32767	-19168	-28828	-8960	9552	13739	26545	4138	-22152	-15868	10132	12207	-12475	-15256	119	123	1
-20436	-12620	4940	8568	6370	6310	-22368	-7168	-7636	8120	12184	-2579	-19532	-8908	-1612	-12792	12191	-3999	-32768	2248	10700	-8589	32767	-28133	-24904	4328	-9280	7001	26286	4244	-19324	-116	6240	19238	-11635	-12944	129	129	1
-13572	-3488	12348	4999	1411	6246	-14968	6512	-5240	10557	7698	765	-14556	-9092	-6520	-1703	14976	-6985	-32768	8504	5672	-7864	32767	-29332	-28176	4092	-10460	-1796	25458	943	-26132	9672	-8284	32767	-4623	-9088	130	129	1
-13612	776	13764	3282	1128	3658	-15260	7924	-5992	2328	8242	-153	-18176	-56	-4560	1950	12750	-2174	-32768	5180	16640	-2874	32767	-30198	-21732	2880	-8692	-9051	18583	3269	-28972	4244	-15728	22454	-13572	138	133	133	1
-11608	-2596	12620	372	1165	896	-18372	6652	-3184	-5684	9304	-1145	-17060	420	-2996	-1042	10187	-1022	-21876	9896	21188	4964	23288	-20880	-17512	1840	-10704	-7890	15263	1414	-28772	1512	-11032	8960	-28587	1962	138	135	1
-10836	-3896	11876	300	540	-57	-16996	1640	-1624	-4326	7896	-1768	-16896	-3360	-684	-1307	10230	-1967	-24868	11696	20436	5112	-8443	-7772	-13908	-1072	-3840	1411	8619	1743	-25016	-668	-1368	4897	-31052	153	130	131	1
-10512	-4644	11224	354	536	-178	-17016	8	-1168	3097	4384	-1274	-15504	-5516	-264	-260	11408	-1172	-3852	11820	17512	6476	-25804	-1186	-7608	-1152	1452	5382	430	1337	-24176	88	-3712	8805	-23121	877	126	128	1
-10268	-4580	11512	252	318	-73	-16572	2148	-1084	6007	2498	-1063	-15880	-5276	436	3499	11696	-969	5736	11732	11132	5102	-23905	3401	-6552	-3344	1780	6929	-7401	-771	-20728	2856	-7792	8916	-18388	2516	122	121	1
-9976	-4860	11256	316	132	232	-16176	2644	-1064	3830	2685	-923	-15696	-3512	1144	4539	12853	-1663	-1508	7304	10016	4047	-20915	7630	-5492	1676	-1740	3597	-14953	-2325	-17104	4440	-9172	2615	-17162	2501	124	119	1
-9536	-5072	10932	594	34	689	-15620	1840	-288	-689	4065	-829	-15820	-444	3544	922	13021	-2715	-2560	7160	10392	3714	-21325	8436	-6268	540	-3028	1805	-21172	-3880	-14548	4496	-8652	-3967	-17840	1211	127	118	1
-9936	-5044	10852	1165	-17	1272	-15848	1320	-192	-3000	5426	-792	-15280	132	4864	-3359	12080	-3232	-7956	4744	10220	5220	-28403	16289	-7508	28	-3272	3084	-26863	-4938	-12996	4068	-7968	-7751	-16780	743	127	119	1
-10260	-4436	11240	1578	-233	1622	-15544	1464	164	-1867	6057	-412	-15032	-356	4776	-6489	11440	-2241	-11856	2300	11208	7466	-32585	18887	-9040	292	-4972	3955	-31894	-5588	-11464	4600	-8548	-11620	-14614	171	127	126	1
-9952	-3900	11444	1462	-211	1398	-15804	2400	-208	-286	7072	-423	-15608	-1616	2248	-7945	11905	-1430	-15804	92	11956	12039	-32768	21794	-10688	612	-5796	2873	-32768	-6843	-9684	4412	-9280	-17653	-12568	-604	126	125	1
-10184	-3468	11944	1143	-74	895	-16064	2476	-648	85	7520	-88	-16592	-2300	332	-5511	11203	-2389	-14992	716	11436	17404	-32768	23573	-14392	-1896	-4352	2617	-32768	-7683	-9392	4648	-9560	-23868	-11742	-1560	128	121	1
-10184	-3804	11720	685	177	530	-16544	3192	-1020	-2193	7910	364	-15896	-2396	416	-2672	11884	-3976	-12712	168	11572	21015	-32768	24454	-18804	-3556	-7452	-945	-32768	-8089	-9960	3644	-9388	-24809	-10767	-1586	127	125	1
-10196	-3908	11904	373	500	566	-16512	2372	-1032	-2912	7947	488	-15344	-2256	1424	-1676	13592	-4226	-25016	5364	12884	18025	-24152	23593	-19540	-1820	-9960	2900	-32768	-10466	-10976	-600	-7056	-20563	-9809	-2440	128	125	1
-10352	-3892	11684	150	749	543	-16052	2088	-1268	-1648	7674	737	-15668	-2940	1696	-1715	14104	-3736	-29628	6616	14500	16791	-23855	23285	-28692	-3696	-13148	6963	-32768	-7786	-10120	-7252	-1520	-12802	-10104	-3506	130	124	1
-10180	-4116	11740	-76	919	640	-16080	2044	-1356	-1393	8086	795	-17660	-4016	-560	-1364	11390	-3041	-32768	-2124	14728	13826	-29456	30171	-28960	-2012	-16136	9547	-32768	-8292	-10912	-7320	492	-11531	-11151	-4085	129	123	1
-10748	-4128	11924	-224	1411	964	-17156	1124	-2496	-603	8500	1339	-17448	-5224	-412	-873	8798	-3096	-32768	-3788	8880	11042	-30375	32755	-24904	3776	-15572	10767	-32768	-7698	-11776	-2632	8964	3222	-3294	3180	127	122	1
-10696	-3984	11768	-415	1783	1273	-16528	2356	-2604	-1409	9304	2010	-16112	-3692	1376	-2783	8543	-3445	-32768	-3580	1288	6252	-30464	30828	-24248	1076	-14116	4303	-32768	-6738	-15896	-1684	10568	5405	1864	5234	127	120	1
-10492	-4052	12064	-209	2748	1468	-16364	1788	-1212	-1967	10695	2371	-16660	-1268	2972	-5453	8096	-2503	-32768	-9916	-9352	1126	-24964	24963	-18940	3256	-15852	3162	-26468	-2589	-16008	-5564	13680	-6234	-1137	4188	126	118	1
-10436	-4404	12512	222	4190	1855	-16860	1544	-640	-571	12269	2979	-18600	-1456	4140	-7669	5329	-2143	-32768	-18932	-17984	4877	-13350	19345	-12808	1184	-17632	1246	-15761	1590	-14584	-7292	20152	-12337	-2524	5209	125	111	1
-9604	-5200	14376	481	6664	2969	-19220	1400	-244	2623	13534	3687	-19256	-3368	3552	-7816	3671	-2541	-30656	-21704	-19620	10593	-1111	15941	-8952	4136	-16616	1796	-1649	5165	-11792	-10124	21356	-4865	-2720	2488	125	118	1
-10844	-5092	14404	1035	9890	4618	-20292	3672	-2556	3442	14350	4306	-18740	-4248	820	-9431	3687	-1953	-26588	-13108	-13876	256	6284	7143	-10832	5280	-15004	-5387	8346	4869	-13992	-2052	16056	916	-3275	2004	126	122	1
-11344	-3892	13844	1110	13960	5561	-18488	4752	-3136	2267	15582	4486	-18232	-3204	0	-10352	2421	-752	-17704	6160	7860	-18717	10283	-10335	-18064	-4632	-728	-20010	10314	2628	-14388	3104	11428	-3324	-2016	5609	127	116	1
-10648	-4812	14204	1189	17495	7683	-18532	4060	-2412	2423	16728	4558	-18192	-4116	2116	-10537	-348	384	204	15172	32767	-13232	14648	-4757	-26192	-16948	15704	-25207	1255	1692	-13368	1588	0	-18696	15866	8309	126	115	1
-9944	-4868	14056	2212	21310	10367	-20688	3124	-1656	3836	17473	5328	-19508	-4380	5204	-9416	-3331	431	-7236	-19544	5504	-16269	21405	-2861	-9184	-19192	-11984	-29134	5476	458	-20032	-6412	3216	-14807	12738	1773	125	123	1
-10480	-7112	13744	3199	26772	14145	-21716	4732	-516	3572	18510	4662	-20180	-480	9268	-10863	-7371	2043	-25996	-6604	22848	-5086	27088	2435	-20240	-13316	-4372	-12961	11190	2060	-18392	-17816	-1236	-20263	6643	-2805	128	128	1
-7504	-3764	15600	5146	32767	16790	-23980	8792	744	69	19881	3650	-20284	156	9932	-10861	-8422	2360	-25532	-13120	18068	4709	16375	-9461	-21860	-12724	-9980	-4429	14208	6719	-16716	-19632	1956	-12024	7234	-2676	121	120	1
-9564	-2660	14556	5275	32767	17501	-27804	12324	4680	-10708	21438	4088	-19812	10300	7808	-11013	-14561	4246	-18400	13748	4112	-2306	5251	-1976	-23120	14636	-3912	6312	16628	9230	-20844	9532	284	13956	12071	1024	125	123	1
-22160	-6460	9804	3556	32767	21215	-20156	3888	-1288	-16491	25008	-282	-20748	10120	2132	-22108	-13573	7136	-12608	8088	9040	-5198	2786	-5995	-19032	9840	-2440	-12879	9082	6366	-15368	21756	-7704	3687	11191	9189	122	133	1
-32768	-1904	4048	-5404	32767	21438	-22152	624	-12896	-13804	27163	1502	-21204	208	-3668	-32768	-15679	6453	-12188	4688	11564	-8071	59	-8487	-15108	-448	-2492	-16052	5690	3054	-15736	5092	-3100	-15919	6713	9233	127	144	1
-32768	-8152	10068	-9547	32767	19745	-23796	3988	-10592	-8493	24685	3009	-25020	-5120	-14964	-31235	-17526	2318	-12764	3036	13124	-6831	-1773	-6974	-17176	-6440	-3224	-7389	6881	2764	-18164	-1544	-3340	-11500	6970	6498	137	140	1
-27532	-10712	15608	-16952	28721	17446	-18680	3188	-10608	-9749	22940	2345	-24900	-6036	-10828	-8784	-21980	-3066	-12144	2156	12580	-6102	-2241	-5232	-17116	-3408	-2620	1272	8046	3465	-16700	-1324	-1352	-2741	7772	5701	127	137	1
-23344	-6400	17472	-17128	9462	18262	-12656	280	-10296	-11647	15185	-1609	-23444	-2244	-4444	341	-23768	-2218	-12032	1004	12840	-3802	-1455	-3901	-16972	-2872	-4120	2896	7990	3007	-15940	1276	644	-2211	7705	5448	128	132	1
-8048	-13828	15316	-19596	-17922	5361	-7372	-1752	-2676	-17151	8329	-4765	-21704	1760	-3156	-1111	-21996	-2696	-10788	2416	13004	-1300	9	-1019	-17340	-4592	-1556	3118	8182	2086	-15912	-1900	-268	-5492	7372	2815	122	128	1
-6764	-12308	14708	-20116	-21207	3391	-6964	-712	2540	-18001	1236	-9199	-18420	-1060	-4980	-6223	-17778	-4779	-10952	2068	12732	-1675	206	-985	-16448	-1328	-2236	-2163	6377	2155	-16084	-320	-1220	-7294	6827	1706	124	130	1
-92	-10264	8288	-16776	-23171	-4538	-5008	-1388	736	-11807	-5259	-11717	-15516	-2724	-6204	-3907	-14732	-4814	-11060	2472	12428	-1434	583	-791	-16576	-2864	-1584	-3476	5295	1954	-16236	64	-2252	-7956	8065	2590	125	127	1
-5256	-10140	8884	-12930	-26024	-10066	-6096	-796	-2144	-4371	-13878	-13633	-13460	-3000	-6424	1074	-13262	-4585	-11036	1980	11916	-1397	504	-915	-16288	-2988	-3076	-458	4874	1933	-16076	-672	-2448	-6658	9473	4562	129	127	1
-5044	-5492	10248	-10130	-29599	-16793	-8260	4332	-1516	-1644	-21495	-14265	-13256	-4084	-5980	4802	-12201	-4163	-11240	1980	12296	19	389	-929	-16248	-4388	-3408	3893	4647	2207	-15192	-3008	-1960	-2397	10415	6035	126	127	1
-5720	-2608	11980	-10897	-29305	-23113	-11180	6584	-2048	-2704	-27258	-14540	-13504	-4780	-5704	8671	-11458	-4439	-10972	1808	12640	830	793	-629	-16392	-3616	-2372	3904	4183	2472	-15392	-3668	-1004	3820	11665	5421	129	126	1
-13664	-1696	13468	-11831	-31281	-26221	-12352	5052	-3688	-26	-30905	-15285	-13512	-2804	-5840	17215	-11005	-3843	-11204	2744	12320	781	1287	-518	-16468	-1552	-864	1641	3938	2237	-16596	-492	1676	8024	11795	4941	124	129	1
-14280	296	14728	-12351	-32768	-25241	-13532	7116	-2828	1619	-32768	-15664	-12156	72	-5800	23633	-11787	-3301	-10532	4204	12144	-31	1017	-1241	-17060	-1004	140	-468	3928	1691	-16592	2224	1176	6320	12972	4182	127	133	1
-14472	220	14900	-13904	-32768	-23290	-15044	9304	-3892	-1604	-32768	-16054	-10400	852	-6012	17914	-11254	-2806	-11256	3436	11912	-467	760	-2213	-16808	-2332	-1288	535	4676	1668	-16844	908	772	6655	14703	4608	126	131	1
-15612	-1540	16232	-13380	-31898	-21842	-18704	9236	-5128	-5115	-32768	-15797	-9628	1004	-4480	7640	-8001	-2096	-11660	2680	12124	-766	474	-2123	-16600	-1908	-2144	2378	6081	2051	-16536	-616	720	4874	16658	6410	126	132	1
-19760	-1424	19932	-12827	-28085	-20884	-22000	10400	-5776	-7441	-32768	-15795	-10448	2108	-2660	-1527	-3613	-1893	-11544	1772	12356	-1248	460	-1780	-16040	-2840	-2072	2175	7121	2309	-16108	-1656	656	-3453	17073	7026	129	132	1
-29384	-1796	23360	-14475	-26870	-21826	-27212	11260	-10492	-7390	-32768	-15466	-10964	3256	1332	-3701	-2050	-2315	-11304	1572	12720	-920	1112	-1246	-16740	-2848	-1476	783	7528	1839	-16896	276	-1976	-5295	15354	6057	130	134	1
-32768	864	20508	-13065	-28598	-22477	-27640	11216	-12116	-8195	-32768	-14264	-13420	-340	6336	789	-4521	-4171	-11516	2484	12484	-1052	1663	-1474	-16512	-1320	-984	248	8113	1672	-17812	1448	-1324	-3714	10151	4028	129	132	1
-32768	2028	19636	-12741	-28584	-22431	-22872	8296	-12960	-6392	-32768	-11862	-13576	-4136	10084	3315	-1869	-7062	-11692	2996	11628	-1563	1859	-1213	-15776	164	464	-818	9371	1273	-16684	-1540	3236	-3231	8513	4662	128	132	1
-32768	8256	4256	-3577	-26687	-14720	-20488	9368	-15324	-2127	-29933	-8857	-14508	-948	13284	3118	-162	-9827	-11876	3344	12372	-1857	2110	-3364	-16616	-140	-80	-2995	10580	737	-16932	-2980	4196	-1009	8773	5163	129	132	1
-32556	14680	-7260	-867	-20437	-10929	-13224	10708	-18420	-150	-21564	-7270	-16252	4448	19308	5023	-503	-7524	-10896	3004	14120	-2594	3582	-5109	-18708	-3380	-2236	-3058	11997	338	-18596	-3356	1032	2612	9522	4993	127	133	1
-32520	25324	-14160	-7617	-10063	-8093	-8328	9840	-19288	-2704	-9010	-5228	-13944	6944	23040	-4286	-1684	-163	-11868	1216	14520	-3121	7089	-5384	-18796	-4604	-3620	-1893	13888	-115	-19920	-2256	-2192	4562	7273	3633	123	131	1
-30188	21868	-13896	-7215	-2026	-3149	-8148	7364	-17580	-2780	5766	-746	-15480	1492	18328	-6558	-7414	4469	-11828	2204	15020	-4635	10630	-6316	-19548	-3308	-3136	-4854	14561	-849	-20072	1080	-1280	5669	4084	1652	120	129	1
-32768	11200	-9496	-2683	-1095	-2155	-9636	6064	-15556	5635	13349	2894	-16452	-4700	11792	-6080	-5490	2758	-11308	2868	15412	-5543	14712	-6745	-20248	-4124	-2932	-6435	15487	-1392	-20116	2952	1276	4891	1814	-81	125	129	1
5688	-13036	32767	4535	18798	14815	-32768	7468	24152	4442	7170	4015	-20808	-2656	3944	-3388	4062	869	-10772	2808	15596	-5910	18840	-7899	-22768	-3064	-1948	-5541	16773	-1737	-22136	2268	3196	4384	-645	-1131	126	130	1
-10348	11376	7128	3155	17611	11427	-4952	12912	-3980	9285	11926	4210	-18784	1448	10908	6566	4420	3219	-9864	4340	16128	-7544	23947	-10606	-22868	-6212	-1100	-3990	17925	-1325	-21244	-1600	10064	-15	-8066	-2704	122	129	1
-20148	-3684	17588	-1751	19138	7968	-23544	9776	-1384	5004	15190	6064	-11064	4956	5940	12766	8583	6006	-8568	-480	17212	-9908	32767	-13473	-26684	-9328	5540	1852	21542	-3110	-19464	-6792	12244	-10372	-16330	-5752	123	130	1
-24412	-7092	12832	-808	11698	8768	-23100	-1480	-7152	-718	17599	897	-21352	4236	2296	1027	7681	4295	-11736	11592	16048	-14097	32767	-20844	-27492	-7712	11920	3637	23784	-2580	-19336	-9588	9152	1299	-12310	-9823	127	131	1
-32768	-20604	13172	6593	7744	4625	-20520	-5560	-8232	5486	13814	59	-17864	-8808	-6924	-17325	11657	-106	-20496	9744	14132	-17035	32767	-31158	-27988	-3860	5812	2269	23629	-1117	-19656	-9316	8396	4251	-15337	-14094	126	132	1
-15288	-352	14188	4843	2101	6294	-14788	3148	-6332	8557	8676	1774	-13112	-8860	-8464	-8827	12326	-5668	-32768	28	5620	-13644	32767	-32768	-25032	4476	-12784	-1850	25913	-349	-18032	1620	5444	11219	-13201	-12229	132	133	1
-12524	-1972	13424	3511	1484	4680	-16432	7212	-5736	1268	8837	1043	-17800	-3360	-4312	-2323	10020	-2764	-32768	8080	10424	-15502	32767	-32768	-26496	2912	-9164	-11664	20798	-1728	-24144	7196	-9196	25339	-7388	-5987	135	137	1
-11852	-2664	12512	839	983	1344	-17728	7536	-3520	-5144	9606	292	-17792	48	-2496	-2951	10274	-916	-29976	10912	20356	-10978	23653	-30882	-19288	3376	-6388	-15124	16334	-1204	-28020	2572	-11968	16362	-15962	2134	137	138	1
-10736	-4148	11768	202	651	193	-16772	1804	-2268	-4935	8581	-784	-15716	-4704	-812	-1888	11125	-768	-23996	2612	14320	-18482	8397	-17073	-15812	4	-6360	-12558	10492	-1914	-26496	2648	-7884	6163	-25911	4398	136	137	1
-10536	-4344	11616	-232	841	-605	-17024	516	-1948	2545	4786	-285	-15828	-6220	680	2206	10947	-63	-17004	9172	19116	-6560	-18711	493	-9548	-384	-2932	-5408	5344	-3831	-23500	4260	-2952	5072	-27504	2301	135	133	1
-10776	-4292	11780	-967	742	-1009	-16940	2672	-2068	4412	3102	158	-16244	-3772	1612	4101	10849	609	-1888	13400	14428	-2764	-23951	9463	-11544	-820	2016	-1099	-2756	-5422	-24236	4732	-5144	3118	-21481	3616	128	129	1
-10096	-4696	11304	-1235	809	-1204	-16772	2876	-1968	3987	3179	212	-15856	-2976	2348	2574	11802	-272	116	10104	10596	-4671	-21730	9163	-7784	2220	236	-3366	-11536	-6173	-19540	5608	-8248	-1115	-18862	4004	126	124	1
-9920	-5568	10984	-1183	828	-1020	-15612	1620	-1336	-4141	5249	287	-15244	-1784	2876	-1692	12718	-944	-6584	7508	9644	-4130	-24495	10721	-7184	3336	-2548	-3945	-18049	-7857	-16916	5276	-8520	-6735	-18267	3586	126	120	1
-9504	-5460	10756	-616	844	-572	-16176	884	-500	-7120	6170	611	-14800	-960	4008	-6811	12234	-1211	-9996	6060	9272	-430	-30055	12606	-9064	2840	-3412	-2248	-23689	-9029	-15376	5720	-8052	-11400	-18617	2821	127	116	1
-9600	-5148	10716	112	696	83	-16100	1320	104	-6252	6789	482	-14988	-1768	3468	-8104	11644	-587	-11780	5744	8520	3688	-32768	15308	-9060	2168	-4136	-1074	-28728	-10082	-13212	4636	-7976	-15136	-17332	2395	129	122	1
-9696	-4804	11192	851	626	470	-16004	980	172	-1159	6069	145	-15412	-1692	2360	-7694	11824	-338	-15380	5848	8500	6731	-32768	18576	-10328	2428	-4892	208	-32768	-10259	-10356	2592	-8916	-18635	-15015	1451	129	124	1
-9724	-4864	11272	1121	599	469	-15576	1896	-1168	1392	6341	513	-16152	-2544	1476	-5752	11439	-82	-16252	5404	8836	9774	-32768	21727	-12448	712	-4748	1271	-32768	-10665	-8732	1512	-9160	-21831	-13580	-108	130	126	1
-10548	-4940	11280	830	519	343	-15808	2584	-2652	-614	8093	625	-15812	-3776	-172	-3768	13053	-1654	-15628	3864	8304	15151	-32768	24686	-16528	-584	-3844	3641	-32768	-9389	-8932	2808	-9256	-23307	-12473	-1093	128	124	1
-10568	-4880	11456	467	518	126	-16588	2764	-3044	-2798	8452	612	-14984	-3552	-2256	-1956	15721	-2838	-19592	5940	9716	19003	-31430	25093	-19916	492	-6932	5198	-32768	-7081	-10444	1280	-8876	-22594	-10843	-1266	128	126	1
-10620	-4804	11520	403	544	120	-16928	3096	-2524	-1849	7594	626	-15516	-1660	-2308	-758	16302	-2513	-28832	8192	13284	16811	-27057	23494	-23456	2936	-9688	5715	-32768	-6047	-10364	-5212	-6308	-16807	-9142	-2033	129	127	1
-10504	-4176	11340	-435	965	-433	-16328	2992	-2628	-2127	6943	858	-15440	-764	224	-498	16151	-2327	-32768	5536	16104	15497	-28750	25352	-28916	-956	-13964	4766	-32768	-4760	-10796	-11136	-356	-10663	-10522	-4130	128	127	1
-10288	-5196	11020	-753	1326	-283	-15536	1416	-1204	-2741	7370	1079	-16320	-2744	2128	-176	14281	-3006	-32768	-5316	13284	16028	-30093	31738	-25312	-3156	-13604	11510	-32768	-3245	-9348	-6496	3776	-1965	-5478	-47	125	126	1
-10204	-5352	11384	-710	1714	211	-16320	-400	-260	-1423	8597	1660	-18896	-3860	4100	-1014	10133	-3914	-32768	-6584	8744	17272	-29993	32767	-25756	2040	-16148	15291	-32768	-242	-12112	-620	6652	10910	-912	5498	123	127	1
-10384	-5676	11576	-486	2262	1291	-16684	-168	-496	498	10185	2560	-17900	-2888	4948	-4854	7791	-3335	-32768	-16396	2344	16198	-27333	30012	-23112	-2228	-17128	11494	-32624	267	-16912	-852	12328	5418	-3102	7507	120	122	1
-10748	-5872	11772	-485	3275	2634	-17492	568	-2116	1113	11774	3428	-17548	-2536	3012	-8386	6509	-3130	-32768	-18180	-9340	12211	-20741	22802	-17956	2108	-18128	9298	-22380	2347	-17700	-2720	18940	665	-6288	8835	126	120	1
-11240	-5304	12316	-1297	5994	3038	-18356	2676	-2024	-909	14146	3861	-18756	-2700	1888	-9835	4993	-3269	-31508	-27240	-19640	7930	-10955	9671	-10572	2112	-20660	5112	-10408	5136	-13344	-8004	22932	-59	-1146	6641	128	115	1
-11120	-5144	13496	-235	10007	4557	-19048	4044	-2004	2253	15033	3983	-20348	-3728	2292	-10271	3200	-1766	-30452	-30584	-19208	11219	1772	572	-8880	2044	-20088	1810	4303	5553	-13300	-3980	21120	2907	-3628	2030	127	117	1
-10564	-4124	14936	-684	14508	3825	-19500	5460	-2844	5992	16093	5175	-19196	-4348	1020	-8451	1766	-446	-22220	2132	-5076	-2674	9777	-3494	-13952	2020	-11780	-2264	15635	3818	-14660	2204	13348	2105	-3583	2679	129	118	1
-11264	-5312	14512	-964	20433	4537	-20464	6168	-3804	5291	17074	5259	-19564	-3680	1800	-7808	869	701	1820	7440	32767	-13585	10383	-16953	-29416	-13348	29432	-12242	9429	-1099	-16016	1668	2984	-8351	4277	5747	127	129	1
-8388	-6088	15096	-919	26622	7434	-22932	5036	-2220	3780	17859	5318	-22040	-3364	4532	-8062	-1787	1612	-9688	-240	6224	-19542	11139	-8682	-14480	-6520	-1948	-32356	2277	4164	-18196	-84	628	-17940	16696	6264	129	123	1
-7192	-6276	14720	-888	32767	10670	-23732	6788	1252	2250	19171	5543	-22252	-240	12308	-10087	-9184	3111	-9488	-13584	15416	-12828	24080	3231	-14724	-17136	-6108	-30424	6900	-1872	-15620	-788	836	-28507	8209	-2394	131	132	1
-7744	-5576	15892	-1097	32767	13495	-25828	10896	5212	-3482	20804	5150	-19280	5424	18424	-9261	-22332	3189	-21448	-15448	18468	-5807	18722	-7840	-21272	-8264	-3472	-19408	8879	3250	-17804	-15780	476	-30172	8737	-664	126	122	1
-10860	-8804	12188	-2336	32767	16912	-26932	7400	13636	-14500	25265	5377	-19224	11072	7296	-19627	-11026	6181	-21808	7948	12052	1325	11629	-8509	-21336	-5800	-3364	-11457	11278	5699	-17140	-6932	-2824	-7680	11853	337	122	136	1
-32768	-9592	6196	-4253	32767	23440	-22536	-232	-7684	-10445	28183	2927	-19656	4748	3788	-29994	-14683	7548	-6712	-5684	16816	-13465	4292	-12166	-18628	8284	-3324	-16288	8941	8419	-18432	13632	-3480	5936	11059	7458	124	146	1
-32768	-8796	5464	-4304	32767	24755	-27604	1128	-13296	-2956	27452	5569	-25132	-6280	-13476	-32768	-16857	6554	-17436	10724	11856	-7408	803	-5976	-16220	-1180	-3960	-11168	8884	4569	-16476	6680	-3772	-7201	8636	11122	130	147	1
-32768	-10640	15364	-12498	32767	20992	-22552	7016	-7976	-4157	23068	6412	-27712	-12648	-15936	-18016	-19897	-2385	-13844	208	13508	-4680	-6	-3702	-17056	-5616	-4536	-2928	9886	4390	-16412	-3240	-2304	-2875	7711	7771	128	137	1
-15152	-12392	19596	-17269	27489	16292	-16988	1724	-9508	-3332	19754	5973	-25188	-9368	-10112	3487	-23692	-3511	-11492	1380	13320	-2029	318	-2403	-17448	-4132	-2576	6964	11340	5070	-16268	-168	-1708	5407	7562	6298	131	145	1
-32768	-18796	19912	-12932	-246	13392	-11380	2004	-8736	-7709	10860	3334	-24068	-1888	-3760	6679	-23518	-2120	-11500	2876	12500	-1484	390	-1840	-17448	364	-2604	7731	10493	4639	-16060	3404	-2352	7669	8963	4984	133	143	1
-4740	-15548	18680	-7852	-29394	-659	-6160	-3656	-1624	-11738	3147	262	-22692	-1832	-3140	3904	-22256	-3645	-11148	2572	12512	-1292	104	-1450	-17736	328	-2648	1382	7645	3181	-15996	4732	-2828	1760	8690	3912	122	128	1
952	-11700	12336	-6808	-32768	-2958	-8600	-2220	1796	-11676	-4542	-5491	-18728	-3288	-5804	679	-18390	-5550	-11028	2376	12300	-1310	107	-908	-16960	-1520	-2552	-2432	5538	2475	-16472	2672	-2408	-4814	8644	3076	121	131	1
1016	-8464	8768	-6709	-32768	-2574	-6740	-1408	1196	-6433	-13142	-7420	-16144	-4432	-6724	4463	-16034	-4943	-11200	1904	12288	-946	103	-773	-16648	-2884	-2428	-1134	4879	2497	-16156	-1500	-1808	-5040	9117	4074	131	129	1
-3500	-7056	7564	-6508	-32768	-4452	-5808	-272	-1696	-723	-21337	-8630	-14316	-3376	-7424	8541	-14638	-4755	-10692	2084	12580	-238	650	-441	-16024	-3944	-1312	3169	5385	2816	-15924	-3724	-224	-708	9227	4867	126	132	1
-4864	-6892	9016	-6550	-32768	-10344	-7940	4004	-3184	-1688	-27778	-8670	-13364	-3888	-7216	11950	-13270	-4323	-10464	2364	12576	97	855	-246	-15672	-4000	-704	9968	7203	3760	-14760	-3256	1552	5595	9202	4903	127	130	1
-10080	-7636	10420	-6114	-32768	-17173	-8396	4468	-3856	-2224	-28638	-8725	-13028	-4376	-6872	15333	-12400	-3793	-11068	1880	12136	159	845	-214	-16336	-1360	-1076	10224	7671	3600	-15192	-960	1340	10648	9887	4422	126	131	1
-15276	-6712	10664	-5331	-32768	-23029	-12500	4844	-4600	-4231	-32768	-10152	-12592	-2636	-7280	21792	-11952	-3580	-11220	2876	12324	128	1065	-217	-16864	100	-276	4823	7188	3049	-15876	1228	1496	13776	10863	5226	128	130	1
-14176	-3664	11060	-5638	-32768	-25115	-13356	6476	-3348	-4182	-32768	-11565	-11144	304	-7656	26750	-12244	-2820	-11000	3956	12016	-570	961	-638	-17008	-44	68	481	6939	2446	-15692	2116	1512	12456	12137	5944	125	132	1
-16544	-4628	12776	-6435	-32768	-24793	-16236	5976	-5392	-3805	-32768	-12469	-9792	1800	-7524	19855	-11054	-2173	-11040	3260	12180	-947	947	-1084	-16636	-1784	-1580	935	7585	2441	-15908	980	1036	6098	15066	7069	127	133	1
-18652	-6892	15476	-4848	-32768	-24498	-20812	6208	-6048	-1262	-32768	-12227	-8220	1996	-5732	9364	-7366	-2286	-11468	1656	12344	-1040	1118	-1196	-16532	-2772	-3672	3512	8276	3142	-14864	-772	-408	181	17718	8280	125	131	1
-27184	-5432	19696	-6802	-30639	-26417	-23212	10408	-8876	-1390	-32768	-11854	-8468	3628	-3032	2673	-2608	-2160	-11508	1556	12412	-816	1170	-1161	-16992	-1428	-3772	3058	8048	3270	-16032	2380	-3108	-1696	18143	6609	127	131	1
-32768	-7368	21168	-8776	-32068	-29072	-29324	10268	-11540	-3523	-32768	-12088	-9968	5428	1544	1719	-2544	-1045	-11020	2500	12596	-781	1459	-751	-16444	-1272	-1116	1890	8182	2661	-18688	4436	-1376	-239	12561	4812	128	131	1
-32768	-2204	16848	-7052	-31246	-29538	-27748	10960	-14984	-4139	-32768	-10494	-13364	-552	7152	5655	-5163	-1819	-11232	3292	12856	-935	2119	-1440	-16392	-712	-644	1775	8252	2580	-18740	3128	3632	-1746	8088	3608	125	132	1
-32768	-5076	4196	-2647	-29627	-25845	-25304	8072	-17716	-2683	-32768	-8490	-14992	-5908	10892	4104	-2177	-4767	-11644	2540	12952	-1098	3063	-1973	-17616	-824	-1312	386	10250	1700	-17736	188	4300	-821	9219	4340	125	132	1
-32768	3160	-4932	-132	-26566	-23344	-18500	6664	-19796	-1361	-29944	-6764	-17124	3312	14948	10246	-642	-6228	-11856	2844	13072	-1444	4060	-3586	-17784	-1172	-1152	870	12139	1375	-17260	-2412	3508	2262	9877	5038	123	131	1
-32768	9448	-16468	-2122	-17859	-17772	-13332	5928	-22176	-1293	-18177	-7754	-14436	5256	23396	5069	127	-3540	-11988	2616	14652	-2276	7142	-4983	-19496	-2724	-1892	-662	13297	1028	-18740	-3700	2128	5531	8309	4439	124	130	1
-32768	20616	-21744	-8385	-6922	-12351	-7364	4740	-21032	212	-2835	-4613	-15576	4252	24860	-5366	-4494	1656	-11436	2188	15136	-3828	10406	-5653	-19292	-2804	-2892	-2349	14926	833	-19172	276	904	7144	6067	3051	123	128	1
-32768	12984	-18384	-1698	5934	-5637	-7992	3640	-19744	4013	9943	239	-15552	-3944	17184	-4320	-7379	592	-11472	2376	15164	-5548	13924	-5776	-20060	-2428	-2800	-4702	15813	184	-19728	3884	1128	6430	4865	1969	118	128	1
3348	3464	-9012	16380	12725	11530	-17872	4464	-13756	7518	16845	1846	-14532	-5512	9504	-4650	-1938	-2072	-11088	3156	15708	-6503	17862	-7360	-22016	-1956	-3224	-5264	16393	295	-20112	4232	2228	6840	3934	341	123	128	1
6248	-13084	32767	9205	21010	12609	-32768	2864	25900	11444	8161	1599	-19492	-1516	4364	-2244	5565	-1738	-8892	3452	15736	-8279	22756	-9358	-24436	-3028	-1836	-4800	17060	264	-23656	1740	2616	6568	1285	-102	124	126	1
-20940	4924	8084	8552	21177	10470	-3028	14440	-8368	23553	9162	1770	-16200	-2824	11796	5469	5186	774	-9820	3744	15960	-8927	28338	-12973	-22856	-7220	700	-2756	18478	1270	-22196	-2392	10856	3494	-7439	-1637	123	128	1
-14300	-2284	16604	-468	24120	684	-20152	18532	-2260	11103	13400	6814	-10484	2740	-1496	17951	13445	1891	-9176	3080	16520	-9029	30210	-13361	-27740	-13240	7144	5028	21915	1272	-17960	-15892	12064	-903	-16078	-8293	118	129	1
-19884	4140	17852	-4327	18049	6828	-19316	9420	-3660	2254	15474	-343	-19660	12600	2312	15455	10616	2575	-14012	7620	16288	-10486	32767	-19946	-27856	-12508	13180	16080	25632	4939	-19840	-19192	12676	9711	-14270	-14506	132	128	1
-18288	-11300	11108	-3732	12410	6023	-20912	3580	-5084	2523	15399	50	-20892	-420	-816	799	10267	2008	-32768	2132	7528	-6851	32767	-28074	-25544	1776	-7956	12894	28559	5552	-19144	-17136	12076	11096	-15473	-14728	133	128	1
-27116	-22528	12144	5821	9432	5525	-19888	-7168	-7648	5581	13444	-1962	-16424	-7212	-1180	-8564	12210	-2800	-32768	6476	5216	-4466	32767	-28910	-30384	6324	-8340	2804	29335	2756	-22328	6448	-6204	32767	-7712	-10515	142	132	1
-14512	-2360	13100	7326	3185	7203	-16576	2336	-5548	13318	7496	614	-15956	-8464	-1364	-8820	11693	-3528	-32768	9788	19712	-1486	32767	-32395	-24136	524	-3212	-3450	18878	4544	-30256	916	-15256	31310	-10939	-1071	143	136	1
-12492	-4768	12380	6696	-541	7157	-15260	6744	-5492	6807	6916	-336	-17032	-2596	-4540	735	11358	-4960	-23964	12504	23228	7476	29734	-26382	-17596	60	-7684	-8234	14674	4340	-31100	-40	-14476	27243	-13966	1059	132	135	1
-12196	-2748	13228	3739	58	4536	-17000	7456	-3456	-198	7511	-690	-16608	-2708	-1364	1691	11757	-2808	-32768	4440	18464	5611	3122	-10603	-11996	-924	-9420	2460	8885	4757	-25768	1008	-4668	7888	-31198	1103	132	134	1
-11264	-3840	11740	1703	383	2100	-17348	4868	-2072	-1413	7382	-686	-16656	-3820	1604	3935	11883	-607	-12292	15504	19280	8232	-26905	5902	-9660	-264	-248	10138	1307	3090	-25756	32	-2964	9224	-26425	1290	139	130	1
-10416	-3920	12108	885	304	596	-16964	4052	-644	986	6365	-545	-15932	-2604	2500	6186	12109	408	2100	12260	12932	7703	-28914	12525	-8416	-720	2280	9367	-7243	3732	-22576	1060	-8440	10937	-20222	3659	126	122	1
-10292	-4156	11636	330	651	-8	-16084	2860	-1084	3865	5139	-450	-15768	-1396	2436	6812	12169	-221	368	6936	9968	7004	-25569	14493	-6704	2248	-516	3263	-16516	2631	-17216	1956	-9360	7344	-18046	4109	124	119	1
-9908	-4608	11368	187	592	-165	-15972	3560	-1024	3985	4666	-505	-15540	160	2004	5824	12480	-1662	-4396	4172	9968	8361	-24691	16023	-6724	2424	-940	2176	-18018	2382	-14576	2968	-9164	1246	-17729	3196	131	120	1
-9176	-5556	11080	82	609	401	-15544	3512	-800	276	5549	-281	-15040	-460	776	1422	14246	-2834	-8680	2324	10620	11658	-28141	18400	-7096	-1092	-3676	908	-29602	-18	-12488	2800	-8696	-3045	-17253	2781	129	127	1
-9120	-5272	10848	734	446	1618	-15388	3568	-928	-4373	7081	-1087	-14856	-268	984	-2022	14821	-3017	-13008	328	12304	14836	-32768	20173	-8812	-2340	-5328	4609	-32768	-105	-10664	3832	-8244	-6812	-16105	1949	126	127	1
-10392	-4444	11220	1394	533	1918	-15984	2392	-1964	-2361	6735	-974	-15308	-336	440	-4404	15047	-1738	-14284	-1692	12748	19560	-32768	22979	-10856	-2672	-5144	7894	-32768	-989	-8912	3988	-9000	-12683	-13466	832	126	129	1
-10720	-3344	11996	1309	427	1261	-15940	4792	-2272	621	6575	-386	-15996	-228	-588	-5835	16251	-694	-13180	-1676	12176	24148	-32768	23754	-13180	-3620	-3692	7889	-32768	-1260	-7844	3972	-9924	-18900	-11536	-614	126	124	1
-10408	-3796	11604	773	833	408	-16128	4464	-2048	-1031	8069	-274	-15908	-632	612	-5773	17961	-1167	-13212	-452	13520	25897	-32768	22794	-17292	-5224	-6020	5019	-32768	-1035	-7696	2896	-10608	-21372	-10431	-902	126	118	1
-9952	-4924	11436	455	988	464	-16572	2476	-1008	-3224	8552	-135	-14820	-1820	1372	-1679	19999	-4153	-23152	-1212	17052	24568	-26770	22707	-19708	-4008	-10828	7335	-32768	-3328	-7992	316	-7416	-17364	-9965	-1931	126	120	1
-10496	-4356	11588	383	1019	858	-16180	2004	-1680	-1665	7557	467	-15748	-972	1280	3818	20204	-6213	-32768	-1332	21936	23189	-27497	24242	-26480	-7768	-13080	11448	-32768	-2686	-10332	-4536	-552	-11411	-13724	-2810	125	121	1
-10760	-3740	11508	-323	1156	891	-15536	3564	-796	-1911	8131	1010	-17832	-2320	1740	125	15341	-4174	-32768	-7344	21812	22361	-31520	27980	-28344	-5120	-16360	16705	-32768	-2701	-10868	-5068	776	-11232	-14306	-2671	127	121	1
-10488	-4348	11912	-273	1694	653	-15984	1372	-168	-1444	9835	1412	-18568	-4632	3112	-3683	10890	-2492	-32768	-10320	14788	19988	-32768	32120	-25812	-416	-16592	17958	-32768	-3828	-10788	540	9236	11277	-2632	5765	126	124	1
-10336	-4932	11904	-457	2330	1376	-17536	1140	-576	1558	10766	2754	-18500	-2624	4160	-2072	9564	-3265	-32768	-9104	3864	10789	-32768	26977	-25388	664	-15712	4694	-32768	-4490	-16944	-2048	10568	10285	1554	7484	125	127	1
-10408	-5044	12120	-516	2515	1607	-17440	1720	-508	1848	12790	3760	-18228	-2528	4712	-4442	8900	-3170	-32768	-17668	-11136	5572	-25995	22101	-18272	-1040	-18700	1700	-26586	-9	-16020	-7964	13584	-1925	2732	4509	125	121	1
-9568	-6068	14644	-324	6401	3298	-19056	1784	768	2821	14805	4590	-20032	-2504	4740	-7031	6525	-2506	-32424	-27036	-19480	8192	-9226	16844	-11860	116	-21328	2519	-12998	4219	-15200	-9764	26040	-7544	312	672	124	113	1
-11492	-4208	14336	661	10115	6099	-18292	4740	-484	6557	16282	5401	-20264	-3124	5012	-7075	2808	-1985	-31452	-32732	-18292	7137	3105	9231	-7632	3064	-20712	-1266	1959	3580	-13672	-7936	24592	-1506	-4684	567	125	114	1
-11028	-4624	15568	1147	15934	6052	-19980	5536	-2536	9026	17838	6376	-19640	-4376	3416	-5560	1605	-573	-30800	-23212	-12232	-6188	8377	-1112	-7504	3064	-20788	-2225	4215	3160	-15984	-604	15532	-681	-3419	1885	124	126	1
-9872	-6584	15792	1537	22636	9355	-22044	7448	-3360	8354	18812	6292	-20376	-2640	1680	-7486	562	1636	5100	11264	32767	-4371	7730	-17090	-31448	-17504	32767	-8776	9784	-2700	-17164	-1528	3396	-4284	5233	3313	121	118	1
-8816	-4636	16444	1747	29043	12143	-23692	7652	-1392	4623	20135	6445	-22908	-1852	6240	-6688	-4773	2614	-15876	3596	7932	-16356	13834	-26979	-10852	-5500	-5228	-19012	4584	7984	-17524	-8140	712	-10972	19180	549	129	120	1
-7144	-6820	16032	2415	32767	15236	-26132	10264	3240	2210	20797	6200	-23000	1740	22252	402	-21022	3866	-1824	-12152	16764	-4388	17914	-2725	-19828	-18336	-1848	-12944	11998	-1654	-16256	-1436	2780	-11077	7192	-2021	131	127	1
-6612	-6932	16776	4787	32767	18494	-28916	10992	10868	-7002	24156	7269	-19248	12252	21908	-4092	-14669	5180	-32768	-2440	18160	-5361	17002	-14609	-26500	4772	-5392	-12655	13414	3858	-23200	-11052	6484	-10421	5561	-474	120	131	1
-20300	-13248	13144	7438	32767	24350	-27688	944	6428	-11342	27852	5269	-22132	7668	10228	-18233	-14225	7009	-18116	16700	9476	-2713	11018	-6446	-21412	-632	-2740	-14335	12779	5027	-18132	6780	-6372	7545	15007	3104	126	119	1
-32768	-7136	7408	4820	32767	32462	-28152	-2208	-13348	-3263	29680	6351	-22756	-5068	-8088	-32768	-17219	7843	-13676	-1220	11156	-9602	4716	-9088	-17076	9016	-6484	-15409	9983	5002	-15856	17600	-5740	-2166	11060	8676	131	134	1
-32768	-11700	14052	2939	32767	29519	-26168	6204	-6476	3188	22846	8446	-27992	-12524	-16664	-28059	-17591	-36	-14272	4328	12000	-5761	2971	-7391	-17476	-2644	-4640	-10736	8823	3277	-17308	1048	-4532	-11016	7143	5321	122	137	1
-25632	-12656	21276	-6846	32767	23595	-20332	2336	-4572	-3048	19554	7614	-27224	-13704	-13424	3083	-22170	-5119	-13228	0	13700	-3933	1938	-5578	-17256	-3844	-3504	-2206	9575	2999	-17004	-2016	-1348	-5326	5811	6374	136	137	1
-32768	-4924	15804	-3171	16663	18066	-12608	1348	-14372	1006	11404	6546	-25156	-4968	-6252	11085	-23571	-3958	-11996	3388	12440	-2379	1571	-4172	-17972	-1496	-2976	4526	10255	3631	-16400	1716	-3260	1974	9117	5893	132	142	1
-12360	-18072	18800	561	-29447	-6386	-5736	-3460	-3460	-2767	1909	5292	-23924	-2404	-2788	9218	-23338	-5135	-12324	3032	12352	-2316	1187	-3473	-17376	-376	-2652	3635	8463	2964	-15228	2320	-2404	1323	9043	4778	118	128	1
1080	-15332	13040	2758	-32205	-15757	-10620	-120	3720	-8320	-5231	-341	-23844	-2896	-3100	7982	-22834	-5804	-11596	2724	12340	-2000	855	-2487	-17668	-1092	-2400	430	6372	2244	-16796	1868	-1784	-1168	10224	3715	119	127	1
2636	-8668	8988	3792	-32196	-17228	-9128	-1920	1276	-1615	-14928	-2122	-18132	-5244	-6732	8196	-17794	-7241	-11924	2044	12500	-1444	625	-1708	-16900	-2184	-2292	-1219	4926	2198	-16536	-656	-1132	-2661	10173	3553	120	127	1
-2024	-7428	8024	3552	-29601	-17978	-6328	-3400	-1508	7416	-24744	-2489	-15300	-3640	-7968	13149	-15830	-7168	-11012	2944	12388	-519	657	-935	-16236	-3292	-732	1397	5235	2462	-15428	-2572	44	-1468	10092	4172	120	124	1
-7752	-8768	8876	3314	-32768	-19973	-7708	520	-6144	8347	-31980	-3219	-13800	-2164	-7648	16622	-14435	-5381	-10724	3516	11740	-219	962	-990	-15568	-2424	648	5406	6255	2886	-14832	-2704	1756	5044	10274	4584	121	129	1
-11156	-7072	10780	2098	-32768	-21807	-10092	2616	-6372	1084	-32768	-3343	-12884	-4576	-6952	18394	-13404	-4419	-10332	4164	11768	-583	1143	-1436	-16636	-880	512	8323	7018	3099	-15136	28	2100	9715	10094	4991	123	130	1
-13912	-4708	8972	-2407	-32768	-22042	-12052	2760	-3252	-1808	-32768	-4225	-12092	-4256	-8748	23700	-11397	-4502	-11284	3808	11552	-1392	1118	-1791	-16784	-876	136	6963	7136	2817	-16220	1500	1744	10925	10823	5254	123	130	1
-15380	-7788	8424	-5366	-32768	-19272	-11032	4492	-5024	-6112	-32768	-7191	-9204	1896	-9316	28989	-11095	-2158	-11144	3300	11596	-1347	1125	-1889	-16656	-1172	-44	4009	7188	2419	-15748	680	1224	9904	11739	5437	125	130	1
-18292	-10688	10332	-4015	-32768	-18342	-15396	4116	-6820	-9728	-32768	-9398	-8384	4808	-9576	23362	-9813	-1539	-11100	3560	12056	-2189	1409	-1764	-16756	-1236	-536	2922	7427	2388	-15404	-500	640	10744	13024	4996	123	131	1
-20920	-10016	13080	-2900	-32768	-21716	-18932	6624	-7580	-9164	-32768	-10461	-8664	3200	-7896	11488	-6104	-1514	-12492	2816	11720	-2405	1080	-1680	-16936	-1260	-2580	3783	7968	2559	-15316	444	-1108	9426	16943	6053	123	130	1
-23744	-7172	16444	-8016	-32768	-26304	-23324	9944	-7036	-12269	-32768	-11639	-8008	2924	-5660	2972	-2723	-2045	-11720	2400	11784	-1989	574	-1145	-16916	-1980	-2448	5978	8754	3130	-16608	-192	-620	2077	19775	8182	121	130	1
-32768	-10272	20320	-14017	-32768	-27797	-30860	7976	-12388	-12448	-32768	-15209	-9732	6412	328	3915	-2318	-798	-11748	2548	12028	-1898	521	-1198	-16952	-1820	-2292	6102	8914	3245	-15932	1016	1888	-2544	17616	8013	123	130	1
-32768	-9344	16916	-11096	-32768	-28655	-29208	8928	-15672	-5920	-32768	-14617	-11956	2780	5144	5078	-4230	-1336	-11784	2780	12156	-1826	946	-1535	-15316	-64	1516	3079	10748	2967	-18556	1872	4352	803	10468	5799	124	132	1
-32768	-1452	9072	-6216	-32768	-28031	-24984	9312	-16556	-3839	-32768	-10931	-15312	-5672	10992	-315	-3357	-3780	-11828	2576	11820	-2246	1309	-2263	-16120	1280	1576	-265	12112	1830	-18456	1976	6028	166	5291	3907	123	132	1
-32768	3172	-3136	448	-27483	-24083	-20888	10096	-21556	-3321	-31577	-9054	-20560	2040	16728	9879	-4789	-7330	-11796	4196	12552	-2403	2390	-3297	-18220	376	-840	132	14233	1325	-17016	1452	5152	1818	7472	4871	119	132	1
-32768	16492	-16248	-2184	-20499	-16835	-12148	7480	-23604	-4194	-19026	-8731	-15580	5748	27332	2001	-1443	-6065	-12552	3220	13472	-2751	4755	-4995	-19416	-972	-2668	624	15332	1178	-17688	48	1168	4978	10045	5356	121	130	1
-32768	27992	-25028	-12226	-7333	-8072	-4968	5776	-21540	-4060	-814	-4224	-14360	3208	27024	-8565	-4984	2706	-12256	768	14604	-3448	8677	-6085	-19144	-3028	-3080	-1480	16402	392	-19092	432	-668	7604	6339	3902	127	128	1
-32768	11624	-19176	-1559	7522	1901	-7748	4064	-20852	1924	13027	1766	-15628	-4544	19232	-6671	-9752	2270	-12240	2672	15552	-5160	12214	-6468	-20180	-2272	-3004	-5564	17063	-74	-19876	1788	1468	7020	2753	1549	118	127	1
-24548	9108	10096	18705	7732	16064	-19828	6424	356	-1603	20334	5888	-14728	-6400	6216	-6346	-2594	385	-11968	3508	16400	-6467	16408	-8429	-22380	-3064	-2976	-6761	17662	197	-20240	2216	2992	7181	1880	72	115	127	1
12164	-30096	32767	9287	20316	15125	-32768	496	32767	-267	10824	5574	-16556	-248	208	2094	2270	1447	-10968	4164	16932	-8135	21606	-10082	-24852	-3760	-1084	-6390	18668	586	-23728	728	5808	7638	-1625	-445	123	127	1
-15236	3980	2980	10428	23325	19303	-1460	12868	-10964	29184	6477	-1053	-16680	500	1208	3311	11125	3306	-9720	5472	16972	-9053	27821	-13243	-25248	-7824	1468	-4045	20290	2043	-22764	-4704	13200	4229	-9707	-2310	119	127	1
-13276	-7372	14400	2216	26361	-2468	-21572	12348	132	8173	14303	9127	-13944	-3000	2740	18847	6633	-2761	-6208	2772	19376	-11078	32767	-19099	-29392	-13696	5764	3331	22931	4004	-19436	-19928	13916	1198	-15515	-10846	134	130	1
-22044	8996	19944	1280	21391	5363	-19748	6756	-4656	13171	12984	-433	-17904	1576	5708	14472	11653	-1074	-10412	8440	20140	-11029	32767	-19801	-31120	-18512	15664	19386	27208	6051	-22652	-18152	10764	15382	-13835	-15769	129	127	1
-22404	7252	19680	441	19847	6632	-21276	6232	-5584	14907	11731	1767	-22060	2236	-2040	10574	13001	-562	-32768	412	9880	-9292	32767	-30322	-24580	1984	-8184	17253	28177	7991	-19020	-6312	6416	19689	-14193	-14825	121	131	1
-26276	-17060	10864	9893	6422	8616	-20904	-6052	-9256	13146	11294	-3100	-19268	-3924	-1616	2680	12489	-3533	-32768	752	4408	-4880	32767	-30507	-28716	5692	-11960	7404	29335	5146	-24076	5936	-8148	32767	-5747	-11477	123	130	1
-14992	-3672	13320	6978	939	8119	-15636	7072	-6900	13344	7030	-1274	-16156	-7148	-6200	3572	11776	-5473	-32768	8152	19144	4035	32767	-27195	-23552	2168	-6716	-1450	19632	5533	-32768	3704	-16620	31031	-12696	-121	134	136	1
-12456	-1464	13996	4551	832	5350	-16608	6856	-6228	952	8780	-787	-17428	-68	-3936	1996	11045	-4278	-14056	14336	24736	12667	23699	-22305	-18632	796	-8028	-2764	14396	3938	-31228	1032	-13652	12574	-26778	4542	136	139	1
-11596	-2996	13296	1825	319	2394	-17692	7368	-4132	-4702	8359	-741	-18640	-1952	-5196	-2410	12598	-2998	-31532	11096	19552	10946	-3551	-6268	-11264	-1932	-7412	6310	7259	4275	-27048	140	-3548	7484	-31656	292	133	132	1
-10368	-3524	12920	555	410	621	-17296	5284	-2092	-4637	7094	-1327	-15572	-1404	-668	-982	13510	-2603	-7400	14500	16792	11056	-22934	4655	-9008	-1288	188	11778	-1202	3737	-24960	1036	-4984	9364	-24256	1154	132	130	1
-9912	-4468	12140	-107	724	-176	-16804	2896	-488	-936	5274	-1814	-15860	-3404	-144	1517	13338	-150	2392	11712	10884	8795	-24976	10653	-6240	64	892	9192	-10170	3045	-19836	2724	-8668	9265	-19291	2669	123	124	1
-9896	-4276	12156	-569	608	-553	-16004	3268	-432	4073	3019	-1903	-15984	-1004	1272	4258	13513	-345	-2420	7364	8888	7965	-23409	14354	-5012	2916	-1176	3384	-18247	1977	-15252	3452	-9428	3766	-17267	3146	127	120	1
-9328	-4536	11896	-814	714	-897	-16624	3516	-724	4669	2562	-1401	-15472	-1016	1932	722	14744	-1266	-5540	4920	9348	8516	-25671	16623	-5016	1760	-2560	-306	-25035	877	-12564	2756	-9088	-1562	-16980	2912	131	119	1
-9104	-5216	11260	-655	670	-601	-15268	2156	-20	984	3695	-897	-14848	-1972	2768	-2158	15353	-3575	-10944	3296	10072	10013	-29609	18761	-7040	412	-4216	-466	-31074	81	-11800	3212	-8800	-4394	-15976	2958	131	122	1
