#Activity	walking 
#ActivityID	1 
#Date 09-07-16-18
acc_rf_x	acc_rf_y	acc_rf_z	gyro_rf_x	gyro_rf_y	gyro_rf_z	acc_rs_x	acc_rs_y	acc_rs_z	gyro_rs_x	gyro_rs_y	gyro_rs_z	acc_rt_x	acc_rt_y	acc_rt_z	gyro_rt_x	gyro_rt_y	gyro_rt_z	acc_lf_x	acc_lf_y	acc_lf_z	gyro_lf_x	gyro_lf_y	gyro_lf_z	acc_ls_x	acc_ls_y	acc_ls_z	gyro_ls_x	gyro_ls_y	gyro_ls_z	acc_lt_x	acc_lt_y	acc_lt_z	gyro_lt_x	gyro_lt_y	gyro_lt_z	EMG_r	EMG_l	act
-32768	23196	-29516	-1452	-195	423	-8080	4112	-30992	-1573	542	59	-20632	-5152	18152	-32	390	-354	-8744	3392	16048	103	1638	-511	-18632	5064	-2960	608	1675	-1205	-22120	968	2736	278	1134	86	62	239	1
-29224	-9396	-6500	1378	1672	286	-19800	-4456	-24960	-936	2522	810	-20664	-128	2360	-220	345	-120	-8104	4072	18680	-31	2224	-599	-20736	5000	-4032	605	1898	-1348	-19336	-1024	6632	192	664	-3	109	206	1
-528	-3376	9560	3909	3015	-644	-21016	-13096	19192	-71	3667	839	-15648	2504	-7000	-482	195	-23	-9176	5736	17392	-96	2881	-777	-23144	6864	-4208	806	2041	-1454	-25360	-24	10864	201	109	-72	122	203	1
-4012	7908	29728	2102	5770	255	-24328	-3976	13424	2439	4217	143	-21408	256	5768	-503	345	32	-11352	8248	18016	-232	3734	-1083	-26328	11824	-1656	1016	2237	-1614	-26712	-3080	13576	-303	-799	-198	160	219	1
-32768	22928	32767	1711	4140	1920	-29496	6288	-11632	1327	4455	883	-11568	-11000	8392	1344	-139	-518	-12176	14512	19400	-345	4828	-2028	-28656	14968	872	1295	2653	-1611	-25736	-10248	14808	-1123	-1216	-672	146	237	1
-14004	-1168	20636	-87	2135	2710	-32768	-3944	1240	-762	2938	778	-19656	4616	-1168	2300	1283	737	-15144	11200	24912	-425	6032	-3515	-32768	11576	3208	1690	2980	-1435	-23552	-18016	8024	-754	-1229	-1034	168	216	1
-32768	-32768	-780	1859	1734	873	-832	-27376	-15800	-1773	1993	186	-19456	15824	-12984	1122	839	296	-16392	6032	30096	349	7188	-4234	-32768	8248	6040	2658	2839	-1239	-25720	-13552	8912	1581	-913	-1068	133	0	1
-7180	4200	18940	449	402	861	-32768	8160	-1264	-405	2124	256	-11680	6824	-10432	-580	674	324	-22016	13864	26832	2157	8293	-3968	-32768	9400	4568	3700	2313	-1068	-30264	-2024	-8648	4214	-128	-1263	128	0	1
-9784	-420	17788	378	182	278	-15192	-10480	-5264	-1216	1611	340	-19720	11896	-12392	-1157	1426	572	-32768	13136	32767	3330	6499	-4007	-21784	11288	-4208	3437	1804	-1490	-26120	-3168	-12472	4147	-674	-1003	133	0	1
-6676	-5812	13584	125	198	-7	-18008	-8376	-1200	-1512	871	427	-20384	2544	-11776	-1872	1492	706	6848	28880	32767	1710	3396	-3993	-14840	3792	-14640	1888	1731	-643	-27712	-2952	-16464	3441	-993	-424	139	0	1
-8572	-5288	13704	47	129	36	-15064	-12040	136	-1361	441	253	-15304	-6504	-4416	-1252	1432	866	-17808	32767	32767	-577	-481	-282	-9776	4632	-4048	1180	720	222	-31176	2536	-13072	1995	-1397	42	132	2	1
-7852	-5400	13468	7	164	105	-12512	-12368	-384	-717	586	154	-16608	-728	-3640	-328	1394	670	10520	13120	18800	-386	-2445	1596	-8824	11992	7696	94	-257	981	-25944	4208	-16064	1001	-2001	380	140	27	1
-7880	-4872	13376	22	181	148	-14968	-10112	384	-163	817	95	-17008	568	-2808	-263	1445	789	12704	5592	10688	706	-1629	1905	-4952	6784	7848	-593	-565	1301	-19056	-632	-12440	401	-2354	642	136	45	1
-6240	-4192	12272	37	220	119	-15560	-7992	-120	54	814	55	-16552	-360	-1912	-208	1435	1206	5800	5944	13920	1248	-1467	2122	-4840	2616	3464	-1189	-971	1568	-12840	-2640	-12192	444	-2522	463	143	64	1
-9480	-4220	13308	-61	256	-7	-15184	-8552	-56	-216	581	134	-16000	160	-3208	-290	1653	1386	-3032	7272	19864	969	-2203	2388	-5968	-456	-224	-1541	-1597	1942	-12048	-1032	-11712	287	-2518	367	142	77	1
-8648	-5480	12732	-70	193	-15	-12808	-10504	64	-635	208	264	-15400	-1872	-2624	-475	1748	1417	-7488	3616	20824	469	-3596	2604	-7920	-1872	-880	-1620	-2267	2347	-9312	1128	-11712	-89	-2386	290	131	91	1
-8016	-4752	12668	-11	131	59	-12568	-10632	920	-692	11	355	-14952	-3192	-1512	-407	1743	1458	-5928	-1408	18296	659	-4558	2705	-10896	-2032	832	-1504	-2975	2575	-10584	1184	-12112	-339	-2339	232	129	179	1
-8424	-4948	12820	32	112	100	-11984	-9992	1184	-440	147	410	-14488	-1496	952	-81	1695	1460	-6952	-2376	17728	1029	-4929	2596	-13184	-1336	224	-1346	-3601	2678	-6944	1712	-12472	-652	-2382	75	133	203	1
-8332	-4572	12580	67	97	125	-12728	-8600	1096	-273	377	425	-14272	224	2176	147	1902	1328	-7176	-2072	17640	1049	-4963	2562	-15120	-1112	-1272	-1261	-4147	2738	-6352	3168	-11808	-955	-2145	-72	129	201	1
-8244	-5248	12736	82	85	155	-13152	-9120	864	-339	463	445	-13840	-864	3352	19	2281	1231	-14248	-1304	22992	990	-5453	1995	-17736	-1352	-3024	-1121	-4675	2825	-5096	3896	-11800	-1304	-1837	-228	128	186	1
-8256	-4988	12660	115	56	210	-13424	-9032	552	-559	413	495	-15496	-2312	3096	-584	2338	1210	-16760	-544	22312	1220	-5682	1613	-21056	-920	-3176	-732	-5186	2911	-3568	5144	-13736	-1477	-1379	-314	126	166	1
-8036	-4588	12936	150	56	262	-13536	-8872	712	-726	373	561	-17208	-872	-3296	-225	1950	1051	-17856	1768	21984	1489	-5263	1250	-24784	832	-3528	-476	-5494	3123	-2160	2616	-13824	-1268	-731	-254	125	150	1
-8088	-4388	13188	154	86	284	-13992	-8712	632	-736	430	604	-18376	-832	-4784	145	1602	955	-26968	5624	29176	1862	-4594	1234	-27768	1944	-5640	-605	-5508	3305	-3072	-656	-9248	-421	-515	-104	122	149	1
-8032	-4296	13492	122	154	305	-14816	-8896	-424	-646	543	612	-16376	328	-2952	62	1573	965	-32768	9888	30784	1934	-4553	1672	-32768	2584	-7600	-1020	-5260	3489	-10256	-6992	1448	-12	-1325	-511	119	151	1
-6600	-5324	12880	148	242	418	-15168	-9336	192	-683	564	642	-15864	-816	-2736	-284	1620	1051	-32768	12272	13408	94	-3684	1633	-32768	2992	-10120	-1303	-5005	3544	-21560	-11760	8936	-425	-2055	-1006	121	140	1
-8196	-5396	13688	151	392	476	-14488	-10448	1040	-881	561	745	-16896	-3224	-1360	-294	1580	979	-32768	-9056	15256	1039	-3636	2819	-26776	-2104	-16160	-1549	-4130	2590	-28728	-9976	4336	-256	-1663	-453	119	140	1
-9660	-3960	13616	183	611	619	-14856	-9176	1512	-929	785	890	-19048	-1240	512	-161	1308	807	-32768	-13584	7144	276	-4166	2801	-25168	-3984	-26080	-2356	-3019	1820	-10856	-6896	23352	-309	-2097	41	115	154	1
-7920	-4592	15508	249	859	689	-16144	-9008	3376	-1050	995	1071	-21224	864	2600	-504	944	727	-32768	-27952	-29392	7	-3621	934	-7968	-14984	-28240	-924	-1564	1393	-5320	-16728	32767	-391	26	-303	109	149	1
-9212	-4060	15412	236	1293	748	-17032	-9832	2056	-1101	1237	1232	-22128	-1400	2352	-773	694	696	-14752	-20936	-31960	277	-530	-146	-7504	-4656	-24056	647	805	-204	-20768	-19328	20824	-1224	289	48	107	133	1
-9196	-4984	16472	292	1785	870	-17880	-10744	1280	-1137	1497	1373	-19768	-5544	1024	-809	282	671	-32768	-23832	-18736	-1587	2264	-1333	-18152	-11616	-21280	398	2319	-1281	-23528	-14872	1120	-311	451	161	113	88	1
-9548	-7736	17364	469	2345	1098	-19352	-13600	2976	-1179	1737	1495	-22592	-6864	3152	-819	-357	643	-4600	6800	32767	-918	4448	-323	-32768	6536	32767	1654	1102	-1631	-21824	-5256	-7192	1391	-52	-242	114	98	1
-10028	-6772	17432	621	3168	1488	-22712	-15312	3312	-1277	2015	1677	-27296	-9360	5984	-630	-1129	421	-21328	-15296	22432	-764	3926	-2235	-32768	13464	27040	1537	1235	-1380	-15872	-17800	5464	-1359	-1323	-114	120	94	1
-10956	-12060	20312	760	3981	2203	-22592	-19312	4568	-1407	2296	1700	-27944	-11192	13264	-186	-2406	-16	-23352	10328	28192	-547	2862	-1409	-28368	5912	-1360	441	2820	-1264	-16376	4944	-1632	775	1001	530	123	103	1
-11412	-11376	20824	660	5094	3295	-26352	-25224	6832	-1430	2275	1740	-27896	-13000	16856	568	-4095	-561	-32768	17312	27392	-1411	1258	-705	-13080	15544	-15312	-330	3183	-748	-18472	8168	-10760	867	1322	719	126	98	1
-19732	-21292	21244	325	6009	4918	-29096	-27768	11240	-2141	1979	1553	-24016	2560	15248	559	-2103	-392	-11168	-520	17240	-763	504	-740	-20608	-7640	-8576	-658	2438	-950	-9664	7464	-10992	340	1158	897	124	120	1
-21816	-10784	22748	-152	7319	5284	-25720	-24616	9944	-2663	1426	1961	-23512	-4904	-5776	287	-1310	-44	-8488	2736	15296	-526	-30	-269	-16472	2816	-8992	466	1621	-679	-13952	2248	-11712	180	1163	846	105	121	1
-32768	-32328	25296	-1659	5506	4808	-11152	-24832	-2840	-3421	1132	2334	-21192	-8	-14408	641	-1727	-519	-8672	3256	15368	-216	-25	-100	-19320	416	-3968	783	1186	-458	-21024	8	-9016	904	1438	765	96	134	1
-7856	-32768	27892	1010	2464	4664	-10144	-26128	-2816	-3283	1251	2312	-23984	2504	-5344	279	-2558	-1097	-7880	4632	14264	-54	51	-37	-19792	896	-4096	855	1151	-424	-16520	2704	-4304	962	1522	715	103	126	1
-27704	-32768	28344	4625	542	643	-10032	-10280	-4784	448	2179	101	-25072	1656	-4880	413	-2183	-1556	-7560	4040	14680	4	120	-48	-15608	6848	-2048	1037	741	-223	-16208	4152	-3048	321	1518	608	104	123	1
6248	-19824	17064	1699	-880	-3094	-7264	-12784	9488	2315	1529	-230	-28984	-3536	-10608	1262	-1941	-1971	-7856	4080	14520	59	187	-55	-15704	6984	-2256	253	828	-184	-17232	264	-3112	-195	1587	651	118	123	1
10284	-11600	11228	684	-359	-3560	-920	-10800	7352	2616	813	-554	-22552	2800	-11296	1502	-1772	-1965	-7216	3568	13864	61	175	-89	-16536	4376	-2920	-153	804	-173	-15832	528	-1912	-195	1604	513	138	118	1
3720	-8332	12536	339	-707	-3077	-840	-7056	2360	2910	141	-936	-16800	5152	-10136	777	-1795	-1829	-8304	4448	14328	59	197	-86	-16352	3904	-3928	21	612	-125	-15808	-792	-1264	-81	1610	583	134	112	1
-3412	-7460	15112	333	-1789	-2611	-5280	-5048	-424	2659	-884	-1130	-12856	3640	-9152	354	-1480	-1720	-6320	4824	13048	81	184	-64	-15728	4536	-3336	526	364	-131	-14904	-1192	168	571	1714	632	132	31	1
-7192	-6028	15860	86	-3231	-2525	-7296	-4248	-1544	2469	-1792	-1273	-11920	552	-9256	488	-1336	-1820	-8000	4648	14336	22	141	-92	-15048	6200	-1928	965	247	-163	-14680	-456	1648	1002	1730	561	131	38	1
-7368	-7080	14012	-187	-4275	-2692	-8712	-5344	-376	2634	-2604	-1394	-11264	3008	-9296	651	-1332	-1851	-7696	4736	14128	6	166	-118	-14216	8080	72	901	378	-220	-14952	840	2392	1145	1801	432	128	59	1
-8672	-7904	12568	-203	-4694	-2929	-10496	-6032	360	2869	-3167	-1518	-12216	5568	-10392	875	-1342	-1692	-7648	4448	14152	5	194	-164	-13744	8424	56	361	680	-340	-14456	-760	3296	1064	1999	395	123	103	1
-12244	-9056	12868	-161	-4958	-3288	-11808	-7544	-792	2952	-3551	-1532	-10576	7184	-10136	767	-1254	-1494	-7920	4600	13864	-13	192	-204	-15120	5360	-1792	165	835	-440	-16656	-1576	3104	959	2107	543	122	249	1
-13792	-10164	13228	-39	-5065	-3601	-13616	-11424	-848	3156	-3905	-1637	-8352	5704	-10080	829	-1051	-1368	-8800	4328	14200	-13	185	-237	-15112	4648	-2176	526	831	-467	-16968	568	1520	846	1955	591	127	124	1
-15516	-10400	14060	-44	-4814	-3471	-17256	-13744	-1816	3258	-4365	-1893	-7088	5704	-9464	1432	-678	-1265	-8320	3568	13848	-58	169	-240	-14376	5304	-3176	720	874	-464	-16384	1608	-384	487	1557	566	129	61	1
-21696	-11572	17420	-591	-4560	-3070	-22208	-17184	-4224	3328	-4572	-2215	-7024	8760	-9552	2147	-47	-1157	-8640	4072	13896	-57	153	-266	-14736	4816	-3336	538	958	-516	-14856	824	-1976	237	1368	646	123	79	1
-29740	-14852	22112	-1186	-4413	-2985	-26440	-17992	-7296	3544	-4523	-2780	-6736	9496	-4016	2227	111	-845	-8472	3928	13920	-39	207	-254	-15600	4040	-4040	451	999	-528	-14320	1072	-2240	182	1495	623	119	100	1
-32768	-19220	24728	-1446	-4507	-3500	-32768	-21080	-8184	3727	-4091	-3091	-12288	6080	5032	2435	-838	-871	-9720	4600	13376	22	243	-280	-15976	4408	-4000	541	1028	-553	-15824	1192	-3216	270	1660	598	121	253	1
-32768	-12160	21392	-1263	-4289	-4598	-32768	-14736	-11568	3815	-4193	-2737	-16192	3208	5000	1632	-716	-963	-8016	4480	14752	37	380	-343	-16360	4624	-3728	547	1020	-557	-18784	368	-1960	406	1549	553	119	253	1
-32768	-2820	12132	-945	-3698	-4717	-28584	-13632	-16376	2863	-3987	-2314	-22848	2256	9672	644	298	-1716	-8312	4824	12488	236	593	-487	-17616	5080	-4016	825	1102	-674	-18488	-2248	1312	551	1490	603	104	252	1
-32768	2348	204	-463	-3482	-3298	-25456	-13664	-25656	2321	-2647	-2110	-19136	-4472	18592	-503	337	-2143	-6576	2528	16784	98	840	-496	-18472	3744	-1328	1118	1135	-763	-17920	-2240	4280	875	1453	615	53	253	1
-32768	27016	-15680	-1726	-2937	-1619	-21448	7192	-30184	581	-1952	-1560	-15472	-21256	27888	-71	-792	-913	-9184	3232	16104	177	1319	-509	-17488	5712	-1128	1040	1433	-927	-18496	-2128	6776	935	1222	449	67	253	1
-32768	30692	-27684	-1956	-1043	-195	-13080	11280	-31704	-1151	-351	-337	-18896	-10752	18736	145	134	-286	-8728	4632	17072	221	1933	-575	-19344	6224	-1736	795	1829	-1133	-20736	-896	7112	771	1132	355	82	180	1
-32768	-5588	-22064	1879	1793	632	-19240	-5408	-21560	-1162	1687	450	-21880	-1488	6824	13	337	32	-8336	6032	17528	79	2573	-730	-21848	6264	-2128	823	2082	-1275	-26304	-1088	7216	396	497	2	101	177	1
24560	12388	9640	3462	3005	62	-24288	-8672	9808	-342	3279	1121	-16776	632	-5832	51	360	193	-9032	5272	17712	79	3452	-929	-24544	7176	-2256	976	2329	-1382	-26800	-2448	13480	173	-257	-257	137	168	1
-6788	7624	32767	1931	5415	911	-24152	-12104	13664	2120	3665	341	-20368	1944	-1064	-24	574	264	-9824	8448	19272	72	4527	-1314	-29288	12888	120	1284	2522	-1519	-27592	-5032	18424	-583	-1290	-510	146	218	1
-29076	26244	27036	1418	3517	2709	-26968	4864	-9664	972	4266	946	-30552	-20200	25600	1017	-1909	-805	-13432	12968	21080	43	5892	-2351	-32768	18504	3248	1644	2875	-1601	-27016	-7920	15280	-1097	-1571	-786	154	238	1
-20616	-11732	15384	285	2578	2237	-32768	-8104	-488	-765	2991	833	-14128	5128	-3168	1534	1448	1336	-14704	10600	24128	325	7366	-3698	-32768	11992	4568	2037	3212	-1356	-22784	-22608	11856	258	-1252	-1046	177	208	1
-25004	-20940	13660	1981	1347	899	-3568	-27144	-7248	-1608	2500	339	-17904	14704	-15656	625	810	136	-18760	9608	29896	2291	8427	-4017	-32768	8864	7504	3194	2757	-1065	-28536	-8552	4272	2646	-393	-1087	140	0	1
-10828	-4308	14716	606	498	780	-24848	4872	-4120	-833	2100	704	-9264	9440	-11448	-814	437	374	-32768	13336	32767	3884	8460	-3953	-27080	14656	1160	4189	1804	-1065	-29648	-4672	-18080	5194	-293	-1478	127	0	1
-7592	-2380	14688	520	153	325	-13512	-6800	-4424	-1345	1576	489	-14576	8800	-11352	-1397	1208	538	-32216	27792	32767	4039	5281	-3945	-17576	7296	-8048	3738	1754	-1306	-26736	824	-16448	4792	-812	-703	133	0	1
-6644	-2832	14196	238	49	132	-20208	-6640	-1512	-1704	901	533	-22736	-1328	-12608	-1487	1648	735	-32768	32767	32767	26	2835	-3267	-10032	1568	-8672	1489	869	-99	-28880	4368	-13016	2878	-1264	-17	138	22	1
-9628	-4428	13828	77	77	79	-15504	-15104	-1624	-1369	537	354	-16488	-3624	-4752	-943	1232	653	1280	32056	25648	-624	-3549	871	-5976	7912	1584	629	-70	721	-28696	8928	-16664	1196	-1979	139	137	38	1
-8044	-5484	13368	50	164	160	-13296	-11776	-400	-607	826	242	-18888	-568	-4992	-280	1437	740	15848	8216	13504	-354	-3276	1347	-7536	11384	9976	-261	-942	1269	-21696	3096	-13720	71	-2290	550	137	138	1
-7712	-4476	13528	42	175	174	-13400	-10872	-816	-550	866	217	-17200	680	-2880	-317	1449	1000	9424	4520	11328	720	-2542	1615	-4736	3760	6120	-1032	-1250	1430	-14952	-1280	-12592	35	-2643	424	134	253	1
-7700	-5000	12964	43	223	132	-15712	-7672	-680	-23	877	117	-15296	-720	-2528	-312	1464	1401	-2352	9392	17840	975	-2877	2268	-6408	280	-1056	-1479	-1781	1705	-12016	-1208	-11952	-103	-2669	257	140	49	1
-9320	-3852	13636	-98	273	-15	-15336	-9280	-640	-462	483	246	-16936	672	-3448	-438	1723	1492	-7600	8032	19168	332	-4049	2709	-8088	464	-1624	-1653	-2483	2192	-12392	1288	-12136	-304	-2452	226	140	63	1
-8796	-5644	12492	-85	222	29	-12808	-10736	-16	-863	20	343	-15304	-1584	-3232	-703	1809	1552	-7552	416	17496	297	-4978	2783	-10200	-656	-632	-1746	-3205	2518	-9480	2624	-13072	-532	-2444	170	131	186	1
-8376	-5296	12516	-38	167	83	-11528	-11496	448	-842	-105	431	-14888	-3056	-2328	-576	1875	1595	-8808	-2440	16944	874	-5410	2491	-12920	-1264	-576	-1408	-3860	2693	-6720	1880	-13456	-990	-2408	76	130	196	1
-8596	-4920	12716	30	153	139	-11584	-10288	352	-398	245	457	-14320	-800	712	27	2020	1624	-10632	-1560	18672	1221	-5610	2049	-15368	-1400	-1432	-1020	-4439	2786	-5368	1784	-12832	-1270	-2195	-80	131	175	1
-8220	-4388	12924	87	144	163	-13152	-8872	368	-206	472	444	-13352	384	2888	285	2285	1471	-14256	96	20664	1349	-5698	1677	-17896	-1496	-2712	-661	-4967	2941	-5672	2072	-12480	-1270	-2120	-120	124	146	1
-8452	-4604	12672	111	125	189	-13536	-9048	1008	-447	413	472	-13576	-2128	5840	-50	2563	1277	-18000	2944	21200	1482	-5631	1526	-21424	-136	-3808	-299	-5323	3131	-1560	3536	-13656	-1011	-1341	-403	127	146	1
-5560	-4176	11048	184	63	278	-12152	-9024	848	-791	389	524	-16072	-2432	2608	-855	2273	1227	-18536	2880	21048	1520	-5580	1510	-24240	2616	-5256	-383	-5469	3360	-848	2488	-11792	-474	-598	-315	130	148	1
-8136	-4296	12700	163	81	298	-12288	-9336	744	-901	454	631	-17592	-1760	-4192	-204	1915	990	-28736	7856	28168	2070	-4724	1588	-29632	3872	-5304	-750	-5315	3613	-4392	-488	-5680	-98	-604	-190	129	146	1
-8076	-4392	13056	158	112	340	-13392	-8896	760	-856	593	685	-18032	-1576	-3736	41	1522	858	-32768	13184	29144	2020	-4495	2065	-32768	2096	-9592	-1385	-4991	3792	-11616	-5440	1472	-414	-1452	-556	123	143	1
-8356	-4784	13296	161	235	395	-15104	-10392	64	-809	735	708	-17808	-968	-3232	-293	1527	898	-32768	8672	26096	1477	-4391	3186	-32768	-368	-11504	-1911	-4588	3512	-21096	-8672	2296	-664	-1926	-746	125	127	1
-8312	-4648	14012	183	437	486	-16152	-10144	632	-916	777	801	-17200	-2392	-1408	-505	1556	956	-32768	-2928	14920	-66	-4137	3766	-26872	-1392	-13936	-2551	-3734	2626	-28600	-8264	4504	-1063	-1975	-298	124	132	1
-9124	-4876	13576	152	665	585	-14408	-10160	928	-1104	857	951	-18008	-1696	2136	-471	1345	813	-32768	-9920	1392	-240	-3617	3533	-27112	-6808	-28984	-3003	-2561	1876	-9112	-9088	27448	-1285	-2271	174	119	130	1
-8472	-4024	15696	195	966	659	-16552	-9096	3456	-1251	1044	1089	-20680	-1136	3680	-553	973	659	-32768	-32768	-32768	309	-2484	1283	-2416	-14080	-29856	-1168	-769	1197	-11384	-17984	32767	-1669	-79	-346	114	152	1
-8952	-4060	16048	184	1464	686	-16536	-10896	2216	-1197	1456	1291	-21424	-5136	1544	-815	521	697	-12200	-11168	-25184	-508	1127	600	-12240	-4592	-24624	-385	1753	-544	-20384	-19840	14184	-1609	311	305	116	137	1
-8424	-6208	17448	336	2092	855	-18904	-12712	680	-1179	1819	1458	-20608	-6752	1056	-750	-36	715	-32768	-17880	-15752	-1612	3301	65	-21696	-9336	-17928	-85	2702	-1312	-21568	-8520	-10360	-431	204	-52	119	108	1
-8476	-11152	18272	560	2740	1181	-21248	-15736	1904	-1330	1999	1514	-26144	-7440	5584	-743	-702	632	-8856	-3312	32767	-999	5526	35	-32768	6112	27232	738	1574	-1362	-19704	-1552	-8032	1569	-75	-155	115	109	1
-11616	-6368	18992	674	3700	1717	-24304	-17248	3808	-1475	2244	1681	-28632	-9176	11016	-463	-1541	246	-25552	-26760	25872	-1191	3940	-2051	-21016	-5208	-10824	-920	3215	-1137	-8368	-6552	672	-1142	-1296	114	109	111	1
-10668	-9988	22096	636	4646	2568	-24904	-21280	5544	-1652	2471	1718	-26600	-13648	18248	156	-3219	-277	-22608	8456	25072	-135	2859	-1775	-32768	-4528	-5472	6	3094	-1289	-17160	104	-2736	-209	1077	550	119	109	1
-20496	-17908	24944	533	5837	3738	-28192	-30512	9040	-2110	2401	1719	-25592	-9784	3632	-1425	-1845	-577	-22704	11368	10368	-1749	844	-907	-15512	19040	-13920	-25	3139	-520	-19440	2288	-14792	309	1018	526	107	130	1
-19372	-12364	24856	378	6730	5218	-30624	-26872	12648	-2529	2192	1650	-24416	1072	2312	-187	-1884	-22	-13136	1016	17792	-631	386	-654	-20296	-9568	-8824	-614	2677	-994	-9720	8360	-14464	624	1542	839	124	140	1
-27996	-17560	29104	-477	7408	5149	-20512	-25112	10544	-2997	1413	2004	-24760	-1888	-11384	1156	-1830	-329	-9720	-312	16592	-435	-87	-259	-15280	2280	-8832	476	1585	-598	-15120	880	-12248	93	1092	985	99	135	1
-32768	-32768	28024	-1449	4920	4775	-10728	-23504	640	-3245	1441	2002	-22952	784	-3400	41	-2422	-877	-8480	3064	15672	-149	0	-77	-19624	-232	-4472	964	1145	-413	-20768	1376	-10128	1012	1553	813	99	125	1
-10608	-30444	13284	4182	3172	5076	-9008	-15864	-6616	-627	1494	696	-28960	6768	-4240	195	-2356	-1532	-8600	5040	14648	-71	47	-51	-19136	5304	-4304	1497	771	-257	-17712	4872	-4616	1113	1535	507	94	125	1
-3816	-21148	23504	1976	-1173	-1979	-10616	-7104	4816	1138	992	-341	-28360	-2000	-8600	637	-2079	-1559	-7896	3952	15112	-30	108	-86	-15896	7360	-1896	878	719	-274	-16912	3656	-3408	165	1618	545	114	125	1
13444	-14312	13396	912	-1110	-3448	-4128	-14920	12224	2108	519	-628	-27680	3392	-10816	1436	-1975	-2086	-7336	4128	14720	19	183	-136	-16104	5528	-1304	94	854	-236	-16968	-1272	-2760	-340	1638	586	129	122	1
7768	-8140	10672	349	-1032	-3034	576	-6768	4944	2578	64	-1050	-19016	7792	-10208	947	-1917	-1835	-7376	4000	14368	34	217	-106	-16736	2768	-3016	-142	767	-201	-15376	-1616	-2480	-368	1638	508	130	114	1
260	-5836	15236	-105	-1836	-2532	-4456	-4856	632	2701	-780	-1367	-14080	6928	-8168	169	-1715	-1676	-8064	4440	14568	30	236	-75	-16336	3600	-3336	151	537	-185	-15024	-3448	-1200	3	1755	524	131	110	1
-5924	-5452	16780	-469	-3112	-2392	-8488	-2424	-376	2409	-1816	-1567	-11904	5056	-7632	-141	-1557	-1771	-7992	3800	14200	54	222	-86	-15000	4432	-2888	566	397	-154	-15160	-1240	696	889	1872	477	129	41	1
-7988	-4620	16340	-866	-4300	-2602	-9320	-2152	32	2138	-2871	-1724	-10160	4320	-8624	-94	-1412	-1640	-7600	5184	14072	27	206	-118	-15008	4920	-2560	648	380	-173	-15648	3376	1880	1137	1886	384	130	52	1
-8192	-4892	14384	-1060	-4956	-2901	-10560	-3816	1192	2266	-3615	-1877	-10176	6152	-10032	-10	-1337	-1535	-7968	4744	14200	-32	180	-177	-14264	7760	-664	650	494	-336	-14120	1536	1968	800	1933	460	126	102	1
-9748	-4756	13824	-979	-5122	-3104	-12480	-5720	1248	2439	-3942	-1954	-10104	6736	-10056	3	-1335	-1512	-7856	4128	14200	-52	152	-210	-14256	5896	-784	299	671	-449	-14544	-2224	2528	774	2162	449	125	169	1
-11744	-5516	15364	-863	-5133	-3245	-14352	-8168	8	2692	-4221	-2038	-9152	7128	-10928	-17	-1164	-1382	-8272	3824	14064	-88	146	-236	-15352	4608	-2064	358	747	-516	-16824	-880	2200	898	2382	437	127	184	1
-14600	-5872	17464	-916	-5021	-3144	-18608	-10888	-432	2791	-4664	-2182	-4672	5872	-9704	311	-683	-981	-8904	3816	13552	-116	78	-260	-14672	4416	-2832	600	791	-555	-16344	216	-280	680	2052	466	125	67	1
-20824	-6792	20768	-1308	-4813	-2849	-23064	-13512	-2880	2899	-5007	-2431	-4208	5312	-9224	1055	-49	-622	-8088	3936	14344	-152	60	-294	-14624	4480	-2576	600	838	-565	-14872	-832	-1128	109	1534	655	125	82	1
-28224	-11440	25636	-1611	-4559	-2699	-27536	-16840	-5104	3237	-4893	-2897	-4952	8104	-4584	1574	294	-672	-8448	3480	14288	-127	56	-314	-15568	2960	-2664	581	887	-559	-14368	96	-2008	42	1558	676	122	253	1
-32768	-17188	29164	-1502	-4709	-3340	-32768	-21408	-7672	3528	-4420	-3139	-11456	2480	4480	2147	-746	-875	-7952	3208	14408	-110	160	-306	-16208	4272	-3024	572	931	-567	-15944	1408	-2272	144	1719	456	131	253	1
-32768	-10408	22964	-962	-4750	-4456	-32768	-15208	-10128	3992	-4335	-2871	-19504	112	1248	2029	-885	-1199	-7992	4088	14784	-89	310	-349	-17304	5184	-2704	604	974	-627	-18752	176	-696	51	1588	442	120	234	1
-32768	2604	16764	-528	-3996	-4477	-30776	-14576	-16544	3505	-3756	-2313	-27368	2520	12984	1380	-166	-2006	-8248	4112	15288	-41	483	-407	-17096	5168	-2384	699	1044	-756	-21464	-1320	2832	283	1537	446	111	216	1
-32768	9172	136	388	-3503	-3451	-30168	-11520	-31360	3099	-1954	-1850	-27504	2848	14776	1333	-106	-2212	-9416	5384	14728	135	592	-556	-16712	5864	-1760	876	1223	-889	-21160	-1552	4632	608	1392	99	58	214	1
-32768	32767	-24508	-1067	-2611	-1315	-20072	10552	-32768	825	-1703	-1503	-15856	-20944	32767	538	-1193	-273	-7496	3104	16728	41	1223	-571	-20200	4400	-568	987	1461	-1115	-19176	-4024	5176	688	1058	4	59	136	1
-32768	32284	-32200	-2212	-237	-77	-13928	11488	-32768	-1660	47	3	-14144	-5280	22848	64	-84	104	-8104	3152	16952	181	1759	-659	-20240	4856	-2192	824	1776	-1291	-19464	-1784	4832	834	860	-264	91	224	1
-32768	-2924	-23240	2084	2301	1027	-12968	8736	-32768	-1812	395	209	-21760	40	6144	-898	547	153	-9496	4616	21400	98	2480	-764	-23616	5384	-3088	825	1967	-1419	-21880	-1280	6744	812	529	-418	113	232	1
-18368	-6892	32767	2870	4345	-115	-24696	-24080	32767	-287	3173	1629	-20288	1760	-7856	-410	905	-44	-10416	5424	18080	-33	3481	-975	-26064	7200	-3640	1013	2135	-1545	-25664	-2232	11216	301	-250	-215	128	253	1
-27524	14600	21076	1433	5201	315	-23408	-2896	-1840	1442	4724	620	-25176	-6664	16776	-598	-442	-95	-8648	10552	20312	-30	4481	-1539	-26712	7936	-3056	1033	2171	-1579	-21136	-6184	16952	-1005	-775	160	157	253	1
-29496	22332	32767	1286	3249	2495	-32768	1048	1312	285	4400	861	-6688	-6736	7760	1918	295	262	-14616	12144	19432	-24	5599	-2657	-31176	15864	2752	1465	2652	-1673	-30120	-13848	15088	-1995	-1211	18	165	161	1
-13812	-13452	9896	2	2584	1801	-25008	-7720	-112	-1093	2601	811	-20216	8560	-6456	1458	1257	977	-16808	11888	19752	234	6946	-3930	-32768	13176	6968	2046	2853	-1508	-29536	-15208	6424	-3	-1209	-928	160	1	1
-25304	32	18992	1434	766	1053	-8592	-20096	-11096	-1063	2379	-91	-15848	8528	-15760	114	936	412	-16608	10440	26616	1569	7860	-4392	-32768	11608	7208	3022	2525	-1351	-23800	-12904	5320	2124	-855	-1003	142	0	1
-16824	-8888	10556	188	408	422	-21552	-2936	-7384	-1144	1739	715	-10096	6704	-9856	-533	862	635	-31952	12336	31736	3231	7813	-4475	-25944	15368	1616	3751	1957	-1287	-27808	-3664	-14152	4691	-370	-1293	132	0	1
-7876	-3156	14808	262	233	216	-13832	-5784	-4400	-1255	1334	379	-18912	7720	-11136	-1108	1653	684	-32648	32767	32767	3228	4955	-4675	-18528	13136	-6104	3265	2008	-1214	-25480	168	-15504	4905	-495	-770	131	0	1
-8360	-4016	14036	82	214	86	-19448	-9696	-608	-1700	608	455	-21408	-304	-10888	-1177	1718	626	-24376	24664	29480	-413	2945	-4187	-11104	4144	-9472	1096	1086	-127	-28408	6624	-11160	3119	-1205	-193	138	5	1
-9208	-5568	13584	-10	246	55	-13336	-15320	-664	-1054	718	267	-13984	-4960	-4568	-794	1360	772	-2832	32767	26848	-785	-2568	1362	-8936	5992	1408	210	273	692	-29776	10312	-15656	1214	-1695	308	136	26	1
-8420	-5216	13236	6	280	140	-14128	-10432	-520	-471	876	144	-18488	216	-4520	-348	1545	849	16752	12168	15304	-360	-2659	2317	-8120	14192	10440	-448	-765	1135	-21856	3048	-13296	-233	-2306	692	135	40	1
-8468	-5176	12964	18	258	138	-14264	-10080	-504	-147	958	94	-17520	656	-2232	-330	1531	969	8648	5512	12688	726	-2127	2243	-3568	6344	6192	-1276	-1031	1471	-14464	-1208	-11592	-304	-2533	678	137	54	1
-9368	-4472	13160	-59	211	70	-15040	-9040	-584	-171	831	161	-15904	-112	-2296	-355	1675	1292	-1344	9640	18072	1092	-2606	2503	-6152	3064	-592	-1701	-1546	1793	-11720	-1744	-11104	-177	-2548	466	139	71	1
-7912	-5152	12636	-114	150	40	-14104	-9496	352	-723	349	227	-15960	160	-2872	-557	1802	1313	-2808	10104	18840	1040	-2783	2526	-8376	1616	-2440	-1708	-2266	2285	-10744	2088	-11224	-270	-2391	278	133	86	1
-8812	-5052	12688	-98	133	110	-12880	-11000	-240	-933	46	279	-15904	-968	-1808	-716	1853	1410	-9160	2480	18672	771	-4985	2731	-11024	-208	-1352	-1524	-3028	2651	-9920	3048	-12112	-610	-2280	294	133	187	1
-7992	-5496	11272	-26	150	157	-12368	-10872	288	-678	144	329	-15088	-2360	-1208	-520	1905	1458	-8792	1144	16632	1324	-5503	2723	-14200	16	-656	-1070	-3747	2832	-8216	3080	-13016	-848	-2171	241	132	207	1
-8624	-5252	12544	-13	207	177	-12496	-10408	-216	-447	330	359	-13560	-64	536	-235	2206	1506	-10680	2392	17440	1419	-5531	2536	-15920	1392	-1352	-816	-4224	2983	-6576	3608	-12728	-1173	-2002	76	130	198	1
-9116	-4888	12408	1	207	209	-13792	-8992	-328	-583	302	399	-13376	-840	2360	-236	2608	1163	-13640	2656	19152	1360	-5343	2261	-18504	1448	-2608	-765	-4704	3146	-5296	4600	-13160	-1246	-1807	-14	127	189	1
-8840	-5092	12244	24	164	231	-12400	-9856	232	-858	209	441	-15152	-2528	56	-956	2503	1159	-32768	136	21424	1740	-4918	2006	-22328	496	-6632	-695	-4859	3348	-2960	5760	-13064	-1241	-1316	-113	128	170	1
-8808	-4684	12364	80	135	284	-11944	-9632	64	-882	339	489	-18144	-2176	-4744	-391	1961	954	-25864	7768	20208	1970	-4761	1864	-22920	760	-8456	-711	-4811	3383	-4776	2488	-9760	-969	-1000	65	129	163	1
-10372	-3384	13160	72	150	326	-13936	-8352	-536	-802	424	514	-17160	-760	-2304	72	1782	816	-31160	7968	30400	2004	-4087	1927	-31616	408	-7264	-1328	-4752	3798	-7712	-2112	-5992	-752	-1167	-60	123	164	1
-8944	-3976	12668	98	164	299	-14008	-9136	-416	-818	456	545	-14840	-720	-3672	-318	1798	922	-32768	13192	28136	1923	-4156	2842	-32768	872	-10184	-1780	-4706	3798	-15048	-9000	488	-1048	-2092	-449	123	158	1
-8892	-4812	12908	91	270	335	-13504	-10032	32	-865	547	574	-15376	-3240	-1744	-476	1668	935	-32768	-9488	22896	187	-3870	3155	-32768	-3136	-12248	-2726	-4152	3440	-22616	-6920	2216	-882	-2363	-447	122	145	1
-9012	-5124	13364	96	403	425	-13592	-11176	1032	-970	721	713	-18664	-2864	-584	-300	1588	739	-32768	2536	9944	342	-3492	3870	-27624	-472	-17592	-2840	-3256	2391	-19584	-8768	-368	-878	-2073	131	123	135	1
-8560	-5260	14276	72	615	550	-15104	-10240	1832	-1086	906	845	-21904	288	1528	-513	1269	658	-32768	-12184	-3288	270	-3471	3631	-22112	-8816	-26848	-2758	-2185	2126	-8616	-12528	30072	-1832	-1964	-313	118	143	1
-8820	-4672	14948	116	1034	639	-16576	-9840	2232	-1305	1080	993	-21888	-1736	2352	-993	982	607	-32768	-23008	-28752	778	-1810	2461	-7416	-10464	-24368	-1134	-765	1285	-11616	-16536	28280	-1986	6	16	116	156	1
-8960	-3764	16176	106	1521	724	-17288	-10760	1704	-1368	1354	1169	-18136	-5504	464	-1106	649	608	-32768	-20440	-29456	-1733	1347	1136	-11096	-8440	-24496	-1509	1691	-196	-22072	-14192	12832	-2327	161	421	113	133	1
-8876	-6244	16416	106	2153	864	-18224	-12576	984	-1316	1669	1315	-19568	-6336	488	-1053	210	664	-28864	-18112	-25392	-1142	4065	1328	-25248	-14368	-17056	-1012	2769	-1371	-24808	-12416	40	-854	176	266	114	113	1
-9964	-8128	17916	288	2777	1107	-20416	-14688	1568	-1387	1912	1410	-24032	-8040	1960	-661	-461	532	-32768	-10976	32767	-1738	6168	-104	-30008	12264	9104	-508	2358	-1221	-23888	-3944	2304	496	-481	4	114	109	1
-10968	-7900	18372	217	3609	1617	-22072	-16800	3272	-1515	2182	1539	-27736	-8232	7208	-636	-1439	227	-29952	-31432	26160	-972	3286	-2695	-30912	-19280	-10968	-1534	3418	-1345	-13240	-11856	-10448	-1897	-1090	-134	114	105	1
-11128	-10556	21136	126	4561	2381	-24800	-21120	5568	-1701	2372	1618	-26944	-11648	14000	-216	-2893	-241	-32768	32767	8472	-1518	1907	-1192	-22224	10648	-16264	1186	3326	-904	-21416	-2296	-2672	60	1728	479	117	97	1
-22420	-20336	23164	-15	5894	3593	-28136	-28240	7872	-2301	2231	1617	-24880	-10064	14048	-2179	-2866	-460	-9288	-17080	25584	-1106	616	-727	-18432	-448	-3136	-973	2843	-877	-10464	5592	-16128	1246	1666	655	111	137	1
-21512	-16080	22436	-463	7035	4971	-28976	-27352	12592	-2550	2150	1480	-26768	976	4296	141	-2224	-544	-15784	12768	12080	-542	190	-264	-12304	704	-15104	290	2472	-748	-5848	11120	-13192	1017	1088	748	112	151	1
-27404	-14376	28024	-1077	7502	4843	-22072	-21928	8688	-2646	1609	1724	-25000	1168	-10968	567	-1699	-498	-9872	5264	14448	-437	-43	-262	-16432	320	-6752	728	1421	-559	-16840	2752	-12344	633	1237	1048	106	145	1
-32024	-32768	29932	-1679	4868	4878	-13104	-24368	-64	-3408	1364	1624	-21216	1200	-5368	-245	-2362	-844	-8248	2648	15496	-197	42	-155	-22488	1528	-4952	1102	945	-400	-21616	4256	-9760	1141	1514	673	99	150	1
25340	-32768	15652	2435	2698	4856	-10080	-14504	-4544	-1231	1303	638	-26200	5512	-4576	-117	-2493	-1363	-8312	4128	14648	-135	40	-98	-17432	7296	-2400	1081	727	-291	-16984	5728	-4096	564	1548	480	100	142	1
-4084	-18664	24684	1517	-1390	-932	-10432	-8280	5936	475	858	-380	-27208	312	-5896	448	-2315	-1511	-7872	4096	14904	-52	102	-114	-15480	6240	-1000	210	894	-297	-16328	-72	-2680	-573	1558	652	107	148	1
14112	-12888	16240	136	-1473	-2589	-5168	-12064	12928	1252	32	-643	-26392	4776	-9400	1261	-1974	-1885	-7168	3704	14800	-45	114	-113	-16880	2648	-2384	-166	852	-226	-15928	-3608	-2456	-625	1554	664	119	137	1
8792	-10880	12156	-614	-1273	-2634	-216	-6256	6784	1629	-540	-1175	-18032	8192	-9216	730	-2009	-1653	-7824	3920	14440	45	231	-59	-16640	3832	-3200	96	626	-201	-15152	-3664	-1120	-101	1587	539	127	121	1
-180	-9408	16560	-758	-2051	-2529	-3448	-5264	1568	1844	-1235	-1526	-13272	7288	-8072	-143	-1897	-1506	-8120	4224	14264	39	234	-89	-15136	4992	-2352	583	434	-196	-15096	-1048	728	822	1678	490	123	105	1
-6844	-7704	18052	-729	-3408	-2652	-7816	-4464	392	1927	-2031	-1855	-11632	4192	-8184	-635	-1567	-1616	-7816	5448	14088	18	229	-144	-14912	7856	-1528	1032	321	-256	-15856	3576	1200	1431	1898	412	131	22	1
-7812	-4992	16860	-940	-4563	-2985	-9888	-4136	1608	2104	-2895	-2012	-10968	2200	-9544	-568	-1429	-1559	-7728	5064	14216	0	220	-158	-14784	7912	-968	709	445	-346	-14536	4264	784	958	2053	454	129	57	1
-7940	-5116	14848	-1021	-5038	-3161	-10848	-5944	1904	2373	-3486	-2172	-10112	4216	-11208	-413	-1357	-1446	-8392	4344	14120	-63	199	-237	-14592	6136	-1128	304	620	-444	-13480	-1144	904	623	2275	398	125	83	1
-10956	-5436	14744	-875	-5228	-3268	-13112	-7528	1376	2741	-3674	-2265	-9480	5592	-11344	-254	-1221	-1420	-8288	3264	14336	-73	199	-222	-15920	4336	-2272	215	715	-490	-17016	-1464	1488	583	2491	366	123	215	1
-11668	-5872	15448	-732	-5168	-3287	-15952	-9592	1104	3029	-3990	-2207	-8040	5136	-10336	17	-1057	-1321	-8304	4080	14136	-75	181	-226	-15608	4680	-2256	373	746	-532	-17368	8	864	355	2164	401	121	80	1
-13980	-5812	16600	-791	-4686	-3041	-21312	-10880	-2176	3173	-4483	-2318	-6992	5496	-9104	639	-718	-1219	-8152	4048	13792	-94	183	-263	-14368	4896	-2936	594	762	-561	-15704	24	-208	-3	1614	528	121	88	1
-20088	-6144	21128	-1105	-4825	-2880	-24048	-14984	-2776	2841	-4683	-2404	-5808	5824	-6568	1170	-197	-941	-8776	3832	14056	-82	128	-302	-14592	4104	-2672	612	806	-583	-15040	424	-680	-75	1409	617	122	139	1
-27680	-10456	21184	-1249	-4135	-2370	-29232	-16856	-1456	3116	-4766	-2675	-7120	5808	-3320	1412	-78	-1058	-8384	3976	14416	-124	177	-302	-15320	4760	-2280	561	897	-624	-14648	1080	-584	48	1474	532	124	194	1
-26480	-5660	24748	-1247	-3990	-2415	-32768	-17232	-8032	3155	-4615	-2876	-12736	2424	2944	1898	-633	-1233	-8536	3824	14672	-111	255	-352	-16288	4792	-3216	523	1018	-715	-17368	1280	-2408	88	1700	397	128	212	1
-32768	-17728	18272	-282	-4115	-3097	-32000	-18640	-8992	2944	-4733	-2806	-16864	2752	2216	1525	-352	-1204	-8312	3656	14848	-18	406	-409	-17792	4384	-3504	543	1083	-806	-19816	-968	-640	70	1529	334	127	160	1
-32768	1416	13928	-1376	-3386	-3786	-31808	-9464	-21048	2560	-3972	-1913	-23816	1128	5776	951	238	-1897	-8344	3544	15424	95	635	-485	-18096	3464	-2400	727	1124	-890	-17736	-4128	2816	198	1514	514	92	156	1
-32768	-4020	-7920	-426	-3864	-3054	-23880	-10744	-24496	2613	-2463	-2005	-17632	-2384	16216	639	-102	-1456	-8672	2320	16056	114	1175	-499	-18544	4080	-896	871	1292	-1005	-19288	-6024	4984	522	1522	508	39	168	1
-32768	26472	-13532	-1457	-2720	-2143	-24984	7584	-29144	1254	-2166	-1631	-13232	-16808	27896	26	-769	-364	-8584	3000	15992	139	1626	-529	-18600	4920	-744	721	1613	-1192	-19688	-3632	6576	738	1221	376	52	168	1
-32768	29404	-19656	-594	-1103	-808	-10808	7096	-31200	-740	-19	-439	-17384	-11584	20264	27	169	143	-9144	4352	18368	-12	2137	-592	-20208	5656	-688	572	1947	-1395	-21832	-336	7352	619	984	96	82	253	1
-32768	32536	-24272	2297	1434	538	-18792	3368	-23752	-547	2108	571	-18368	-10528	18320	-83	325	200	-9528	5216	16936	-32	2908	-734	-21784	6472	-2280	637	2231	-1556	-24912	-2376	11240	203	258	-210	125	251	1
-12048	-11004	21692	2698	4962	232	-18584	-25592	32767	-442	3283	1870	-22080	2880	-5376	850	761	22	-10128	8176	18184	-26	3747	-1106	-26792	10192	-736	841	2455	-1663	-28304	-3240	16824	-318	-847	-577	147	246	1
-30320	24256	32767	1793	3838	2781	-31168	4024	-8840	1769	4733	504	-32768	-5976	18752	64	-579	108	-9256	8112	21848	-102	5028	-1868	-32768	14664	1296	1168	2656	-1826	-29184	-4328	18640	-1485	-2053	-852	151	254	1
-32704	-4532	29992	769	3037	2554	-32768	-7872	5056	-788	3240	919	-7384	2168	10616	1524	-93	148	-14528	18520	20840	-466	6489	-3221	-32768	17808	6120	1730	2968	-1862	-24840	-11080	5872	-1245	-1282	-987	174	253	1
-32768	-32768	16024	1218	1631	1056	-32768	-10224	2672	-1070	3065	841	-11392	10352	-10056	377	730	1117	-19752	7944	28984	438	7579	-4496	-32768	9272	4840	2105	2902	-1541	-25136	-14336	8040	766	-1032	-900	155	0	1
-7140	12684	23180	907	707	1120	-18800	-3480	-2240	-766	2483	361	-12056	13128	-18136	-468	266	260	-25376	18616	28792	2251	8433	-4367	-32768	11368	4192	3504	2182	-1366	-28912	-2184	-9368	3981	-75	-1277	113	0	1
-19264	-9656	12636	484	284	496	-11136	-8192	-9376	-1552	1581	702	-7128	1976	-14912	-1307	733	360	-32768	21640	32767	3659	6177	-4347	-18624	15984	-2880	3496	1824	-1771	-23632	-3384	-10632	4562	-718	-1068	120	0	1
-11896	-3084	14840	354	40	236	-16592	-6872	-6040	-1175	1174	401	-19064	2016	-11256	-1239	1714	473	28744	32767	32767	719	2984	-4319	-14704	6744	-12208	1002	1686	-635	-28056	-2376	-15344	3279	-1231	-314	129	0	1
-9244	-4748	13824	160	70	101	-20872	-13024	-1080	-1286	554	493	-18416	-1536	-7488	-922	1101	623	-10640	32767	32767	-1518	-1055	80	-9808	4784	-2488	376	641	219	-32016	7344	-13520	1658	-1562	149	130	4	1
-7784	-4864	14112	52	123	99	-19432	-13232	-1576	-1259	538	467	-20784	-248	-4920	-238	1551	746	12600	11608	18360	-862	-2836	2038	-8488	10152	8872	-269	-624	954	-24304	5000	-15544	506	-2167	319	130	26	1
-8008	-4584	13356	29	153	150	-13464	-9704	-528	-436	820	187	-16392	2392	-2880	-339	1513	904	11240	4160	13192	538	-2201	2181	-3832	7424	7960	-838	-903	1231	-17208	-712	-12760	16	-2423	574	135	40	1
-8076	-4956	13196	21	163	116	-13664	-9640	-504	3	908	91	-14368	-1584	-3048	-451	1443	1360	2616	7128	15896	955	-2397	2178	-4464	3440	1288	-1348	-1354	1559	-11920	-2904	-11824	-42	-2601	332	139	84	1
-8384	-4548	13008	-43	216	17	-15128	-9328	-496	-220	660	215	-16992	-624	-3464	-444	1726	1494	-5056	7048	19368	607	-3451	2174	-7264	712	-1064	-1618	-1995	1988	-10616	240	-11488	-148	-2464	251	143	105	1
-8556	-5376	12676	-64	186	17	-12728	-10920	368	-710	146	355	-15208	-1800	-2080	-616	1789	1485	-6464	3064	18016	697	-4518	2327	-9096	-1160	-920	-1478	-2821	2396	-10160	1816	-11344	-400	-2309	238	135	115	1
-8440	-5584	12576	-12	141	116	-11624	-10776	1456	-967	-91	436	-13968	-3048	-928	-526	1807	1507	-7664	1216	16720	1162	-5153	2460	-12544	-632	-656	-1107	-3502	2654	-9632	2576	-12360	-750	-2273	171	128	222	1
-8552	-4592	12872	38	135	157	-11176	-10776	1240	-732	129	473	-13984	-2984	1648	-156	1817	1457	-10080	1944	17352	1290	-5415	2392	-14528	192	-880	-882	-4101	2823	-7272	2064	-12504	-1019	-2205	42	134	223	1
-8028	-4832	13104	93	156	172	-11768	-10200	1392	-345	518	476	-14768	-2248	2712	130	2096	1421	-12848	1728	19744	1236	-5437	2223	-16952	312	-2424	-790	-4584	2978	-6072	3536	-12464	-1100	-1947	-147	131	188	1
-8388	-5016	12452	115	153	235	-13552	-9864	648	-469	582	529	-17408	-1880	568	-360	2013	1204	-17376	3504	21776	1362	-5488	2030	-19560	1064	-3984	-621	-4946	3126	-4352	4904	-12936	-1107	-1670	-273	126	167	1
-8828	-4416	12768	132	145	288	-12944	-9712	640	-810	494	598	-17080	-2416	-280	-625	1728	1128	-19320	5544	21248	1468	-5272	1856	-23616	3904	-4360	-679	-5125	3363	-2616	4056	-12392	-895	-1048	-232	127	162	1
-8636	-4580	12700	174	147	341	-13024	-9264	224	-988	436	642	-15280	248	96	-305	1778	924	-23520	8504	25128	1605	-4631	1719	-26408	4768	-4720	-1068	-5153	3540	-3600	2928	-9376	-317	-625	13	125	160	1
-9996	-3228	13612	136	172	386	-14208	-8176	-920	-938	496	646	-14352	504	-1576	-526	1905	1033	-32768	12928	31120	1891	-4389	2289	-32768	2856	-7400	-1690	-4878	3690	-9024	-3200	-2176	-229	-1223	-165	123	158	1
-8500	-4248	12984	146	256	375	-13728	-9432	-392	-903	566	660	-13816	-112	-960	-669	1774	1140	-32768	13400	30168	1402	-4398	3257	-32768	1728	-9848	-2199	-4748	3646	-16744	-7424	2936	-780	-1990	-504	118	149	1
-8692	-4620	13108	162	374	438	-13928	-10216	264	-943	668	735	-17664	-2296	-7584	-456	1454	1050	-32768	12056	29472	1277	-4379	3453	-30432	-648	-12336	-2763	-4411	3122	-23240	-7456	2704	-994	-1837	-363	121	144	1
-9584	-4724	13748	184	561	532	-15104	-10784	-768	-1027	783	854	-21184	-2504	-800	-322	1319	828	-32768	408	9136	142	-4244	4308	-25880	3024	-22280	-3287	-3056	2131	-19104	-6456	20896	-1327	-2210	475	119	135	1
-8460	-4608	15204	150	813	643	-17408	-9864	1504	-1207	844	974	-20088	-112	2072	-721	1153	766	-32768	-26432	-24944	-392	-3322	2704	-15440	-14040	-29056	-2592	-1950	1939	-8992	-16128	32767	-2541	-1164	-678	116	150	1
-9176	-3528	15028	140	1277	679	-15984	-9088	1688	-1323	1045	1112	-19216	-1808	3632	-1061	897	746	-32768	-28912	-32768	934	-418	1507	-984	-11328	-27952	-882	759	142	-18248	-17648	26480	-1916	-510	-147	110	165	1
-9312	-3708	14944	117	1328	693	-16560	-10832	1280	-1207	1454	1287	-17512	-6736	2576	-1032	420	669	-32768	-24736	-10400	-1636	2555	736	-18632	-7080	-23888	-664	2442	-952	-19328	-12968	4272	-1627	301	198	117	156	1
-9460	-6688	16636	235	2317	916	-18192	-13664	1008	-1223	1791	1423	-21400	-6656	376	-750	-385	696	3528	-7512	-112	-1456	3232	564	-23904	-4296	-8464	171	2712	-1403	-20424	-7288	-2592	122	146	88	116	127	1
-10108	-6208	17204	491	2962	1336	-21296	-14096	1224	-1485	1991	1508	-26008	-7576	3352	-585	-845	542	-6096	-11112	32767	-590	5181	-504	-27064	12088	13344	97	2140	-1124	-26248	-7424	12480	199	-1120	-103	113	129	1
-12336	-9488	19800	497	3816	1839	-23568	-19160	4440	-1605	2171	1647	-26512	-9528	9992	-144	-1579	135	-32768	-18528	28104	-835	4087	-2070	-26032	-9336	-10296	-971	3396	-1396	-8800	-4776	7216	-652	-550	231	115	114	1
-12280	-9440	22868	339	4729	2677	-24808	-23416	5720	-1708	2267	1763	-22072	-15176	23520	-1408	-3698	-304	-21640	8008	21848	-433	3101	-1711	-25392	-1304	-11904	163	3238	-1124	-19376	2408	-6112	135	1734	550	122	107	1
-24152	-21496	21544	258	5860	4180	-26296	-28664	7328	-2069	2239	1593	-23712	-96	12280	48	-2197	-604	-4024	-6640	24288	-1798	592	-1091	-23576	3544	-4976	-702	2879	-583	-14360	1072	-14504	526	1156	731	133	138	1
-18252	-13356	23328	36	7257	5410	-28288	-29120	13536	-2662	1954	1723	-25288	-6736	-3632	-785	-1459	74	-17752	11544	12800	-648	306	-250	-17056	-512	-12664	245	2595	-858	-10024	9040	-16888	788	1479	781	117	131	1
-32768	-19296	28648	-919	7249	5209	-19064	-27120	8784	-3198	1253	2025	-25184	1880	-15336	964	-2005	-583	-8264	2952	17040	-424	-56	-150	-15992	-1272	-5488	539	1475	-543	-17936	1536	-11112	516	1133	993	100	142	1
-32768	-32768	32324	-1263	3722	4756	-12952	-26336	-8896	-3016	1542	1865	-23280	1824	-6208	220	-2221	-1270	-8072	4704	14808	-136	26	-58	-20328	3272	-6112	1036	1284	-378	-19896	4712	-8320	959	1517	799	106	150	1
-26276	-32768	18348	5257	1768	3497	-8464	-10896	-6840	-161	1679	256	-27928	3912	-3776	541	-2107	-1569	-7592	4544	14912	-110	3	-108	-20168	4216	-6184	1092	1222	-366	-17520	6328	-3944	554	1495	557	104	114	1
6408	-21600	21312	1260	-1671	-2764	-10016	-9280	6408	1559	958	-501	-30712	-400	-10848	1124	-1872	-1738	-7440	4656	14976	-88	44	-157	-15504	6552	-2976	276	1013	-360	-17768	2496	-4488	-237	1496	633	131	127	1
12952	-15276	12072	268	-956	-3797	-3016	-13320	10952	2014	262	-728	-26344	6000	-9616	1553	-1988	-2121	-7776	3792	15016	-56	120	-119	-17288	2960	-3720	-228	906	-352	-16200	-640	-4336	-429	1531	594	136	121	1
5164	-10788	14220	61	-1162	-3435	-1008	-7488	3904	2466	-147	-1256	-17168	8456	-7920	822	-1900	-1842	-7360	3560	14944	-13	176	-107	-17184	2088	-3800	29	677	-233	-16176	-3256	-3456	-326	1649	582	131	103	1
-3380	-7404	19076	-252	-2506	-3101	-7248	-5168	1376	2562	-1114	-1631	-16552	8536	-7832	637	-1870	-1796	-7840	3160	15120	32	173	-118	-15536	2640	-3520	454	460	-79	-15248	-3840	-2056	337	1789	482	128	118	1
-6448	-4652	19280	-696	-4018	-3002	-10600	-3304	1832	2481	-2215	-1882	-12824	4112	-7720	-150	-1620	-1965	-7640	3504	14136	16	122	-107	-15144	5536	-3256	618	362	-74	-15416	-400	-552	973	1854	468	127	37	1
-6656	-3332	17132	-1098	-4951	-2961	-11232	-3040	2912	2257	-3235	-2029	-11752	5224	-9256	-89	-1589	-1800	-7256	3928	14376	-47	89	-136	-15184	6528	-1592	573	388	-149	-15352	2072	712	926	1875	433	111	42	1
-7312	-4304	15252	-1070	-5250	-2984	-13024	-6016	2536	2443	-3700	-2150	-11120	6472	-10856	-139	-1489	-1681	-7560	4064	14240	-96	78	-177	-14664	5736	-1520	439	481	-242	-13928	1560	1488	607	1976	420	119	62	1
-9052	-5196	15920	-793	-5092	-3106	-15032	-7232	1776	2781	-3969	-2136	-9792	7288	-10272	-31	-1447	-1540	-7816	3984	14248	-112	68	-184	-14992	4744	-2376	318	554	-320	-14352	-1312	1616	594	2203	446	120	92	1
-12356	-6628	18648	-603	-4872	-3247	-18712	-9536	320	3161	-4304	-2192	-6184	6800	-10328	53	-1195	-1384	-7816	4080	14824	-116	51	-210	-15824	3776	-2472	473	558	-365	-14800	-1584	2296	886	2348	542	119	253	1
-17760	-7556	21296	-801	-4777	-3312	-21800	-11632	-2224	3400	-4726	-2378	-5352	6568	-10680	745	-654	-1289	-7144	3920	14352	-176	66	-260	-14832	5768	-1736	699	600	-377	-15360	-992	4448	585	2238	680	120	253	1
-23508	-11112	25184	-937	-4612	-3230	-26104	-16112	-3592	3674	-4873	-2642	-3904	8136	-9496	1207	228	-717	-7912	4384	13992	-207	29	-330	-14608	5760	-2208	742	739	-465	-18384	920	72	174	1703	792	122	242	1
-32768	-16584	29776	-1009	-4747	-3520	-32768	-19344	-6824	4210	-4574	-3032	-5416	6592	-2536	2080	134	-831	-7320	4136	14888	-215	70	-406	-15248	4600	-2104	569	918	-554	-19416	56	-1024	328	1278	550	123	242	1
-32768	-13284	27744	-925	-4588	-4532	-32768	-18280	-9800	4720	-4310	-2851	-11696	3544	824	2462	-222	-821	-6760	2536	15376	-193	233	-462	-18064	3072	-2720	731	957	-575	-16688	-1976	2056	193	1343	498	126	253	1
-32768	-6016	21224	-467	-4145	-5066	-32768	-17496	-17728	4127	-4206	-2196	-21616	-3712	9720	1805	-510	-1504	-9296	3920	15792	-131	451	-530	-16768	5432	-1800	1023	1000	-663	-15776	-504	5496	665	1733	557	121	251	1
-32768	1692	4664	726	-4346	-3892	-29200	-13688	-26976	3942	-2710	-1868	-24120	-424	18600	1844	214	-2424	-8448	3848	14728	5	671	-641	-16048	6576	-1744	958	1270	-817	-17800	-2944	5968	540	1549	669	65	215	1
-32768	22468	-16328	-158	-3827	-1905	-19336	4440	-32768	2551	-1959	-1443	-17432	-16112	29616	1347	-1188	-930	-8720	-1208	17536	230	1027	-837	-20096	2192	88	964	1534	-984	-19512	-4472	3536	766	1536	602	34	216	1
-32768	32767	-31148	-2602	-1835	-182	-14800	12832	-32768	-1268	-1204	-331	-9776	-11912	28784	663	-931	344	-4120	1680	17544	-93	1711	-659	-22024	3800	304	919	1751	-1184	-22200	-1160	2664	911	1296	205	29	253	1
-32768	14836	-18020	-29	445	863	-12912	-608	-32768	-1962	932	737	-18616	312	11688	-393	255	260	-8552	3400	17136	-71	2507	-669	-21664	3976	-3584	632	2081	-1346	-22304	-2496	5600	375	887	-74	87	253	1
-32768	10792	-13416	2127	1732	1660	-22496	-9848	-13920	-1746	2107	1189	-20864	1800	-496	-902	9	290	-8952	5056	20616	-45	3256	-817	-23784	5368	-1608	717	2358	-1478	-22120	8032	12192	-248	252	-392	126	248	1
21640	-28040	31316	1267	4042	828	-20368	-32768	32767	-259	2005	1002	-19920	2840	-1472	-1142	178	200	-8784	7216	20248	-44	4257	-1017	-27936	10152	-424	889	2515	-1628	-26808	-856	16320	-664	-932	-318	153	253	1
-21740	12324	28904	1730	4705	1964	-24656	-3464	-8888	855	4105	784	-20736	-12560	20120	-711	-1320	-671	-7320	13624	21328	-219	5361	-1977	-31400	17768	2224	1193	2833	-1753	-24456	-6336	18168	-1637	-1355	-554	137	237	1
-24060	-2376	25860	933	2818	2419	-32768	-8512	-888	-864	3441	1029	-14280	-12072	-3920	693	923	551	-16232	11568	24464	36	6612	-3318	-32768	14648	5128	1481	3203	-1628	-23408	-17600	11616	-497	-1150	-1027	169	52	1
-32768	-32768	17892	1250	1848	1387	-8936	-19512	-11216	-1914	2391	901	-20608	15472	-8696	1578	427	318	-9848	13456	26128	-248	7918	-4138	-32768	11056	7688	2543	2905	-1348	-26688	-11616	10680	1382	-665	-881	174	0	1
1036	4440	23504	1153	974	732	-24712	-1944	1464	-551	2449	394	-8568	11656	-16688	-320	547	75	-29528	-3376	32767	3157	8145	-3619	-32768	11592	3232	3402	2291	-1202	-29416	-2672	-9224	4357	-320	-1345	136	0	1
-13784	-12316	11480	702	418	386	-12080	-10000	-5392	-1041	1873	501	-14256	4792	-8552	-803	1262	430	-31952	24288	32767	2931	6476	-3971	-19280	14168	-5864	3490	1671	-1722	-27448	-168	-12776	4174	-730	-1060	133	0	1
-8988	-6556	14468	269	305	170	-21472	-5224	-1616	-852	1475	448	-24992	2592	-9616	-784	1375	604	32767	32767	32767	325	3314	-3636	-15064	792	-15112	1175	1586	-763	-29888	800	-15792	3124	-1137	-379	148	0	1
-8288	-4784	14576	121	222	115	-19328	-11400	-1432	-1333	819	375	-16288	-352	-3840	-618	1327	508	-9600	32767	27392	-749	-2226	787	-10592	5248	-2712	775	404	121	-32768	6512	-15512	1359	-1509	73	147	0	1
-9564	-4480	14132	17	283	100	-14216	-11040	248	-1141	749	249	-18416	1984	-3840	-566	1361	620	12856	9536	14416	-719	-2730	1411	-7808	12536	7480	-193	-645	784	-32768	7200	-16320	1156	-1632	80	149	0	1
-7204	-5092	13324	-23	306	171	-13112	-9408	-1256	-752	804	48	-15288	560	-3848	-762	1238	880	10304	3680	9272	513	-2050	1527	-4208	4472	4656	-815	-899	1014	-18008	-1544	-13136	-106	-2521	485	134	26	1
-7636	-5016	13296	-27	269	173	-15008	-9760	-2440	-426	822	-13	-18968	56	-4744	-797	1501	1018	912	8240	14952	1080	-2304	1977	-5336	1808	-352	-1318	-1459	1295	-13848	-1264	-12816	-85	-2602	330	137	65	1
-8116	-5120	13404	-107	325	32	-15088	-10072	-1968	-342	672	55	-17128	-2264	-5208	-840	1678	1274	-3816	8792	15800	461	-3235	2297	-5816	976	-1672	-1560	-2086	1804	-11872	-320	-12184	-203	-2494	198	135	97	1
-7904	-5064	13316	-118	331	16	-13544	-11240	-1656	-543	343	137	-16088	-3464	-4408	-896	1786	1436	-4936	2592	15504	322	-4022	2538	-7760	-1336	-888	-1629	-2786	2169	-10056	1392	-12792	-258	-2423	113	123	198	1
-8540	-5468	12860	-36	265	95	-12568	-10936	-1136	-571	118	171	-15512	-2912	-2424	-784	1864	1463	-6400	1008	15768	710	-4554	2598	-10888	-80	-544	-1476	-3401	2389	-9552	2432	-13224	-615	-2481	139	128	227	1
-8104	-5052	12752	-25	247	157	-12592	-10304	-344	-505	68	217	-15016	-1608	-576	-608	1947	1517	-8304	1432	17040	843	-4876	2463	-12840	-72	-1384	-1450	-3926	2504	-7096	2424	-13080	-1031	-2425	28	130	206	1
-8020	-4904	12868	-11	237	183	-12920	-9680	656	-442	120	230	-14936	-496	-176	-385	2106	1537	-11672	1176	19112	934	-5101	2273	-15152	-936	-2960	-1289	-4457	2632	-5144	3008	-12616	-1341	-2236	-200	133	181	1
-8180	-5440	12672	36	267	211	-13136	-10328	72	-403	201	241	-14208	-1064	1312	-158	2423	1577	-15728	3128	20944	1151	-5373	2144	-17208	-976	-3808	-957	-4919	2776	-3376	3424	-12832	-1482	-1873	-374	127	170	1
-8448	-5276	12712	61	275	244	-13288	-10352	-368	-499	189	296	-12928	-2200	2416	253	2987	1412	-16912	5168	20072	1320	-5449	2153	-19440	1656	-4152	-798	-5214	3009	-440	4064	-13344	-1328	-1489	-514	125	161	1
-8436	-4596	12228	89	268	286	-12344	-9160	192	-618	214	339	-14688	-3288	2992	-538	2725	1414	-19384	7080	21312	1515	-4942	2134	-23064	3736	-4384	-915	-5359	3208	-744	2528	-11968	-967	-858	-357	126	152	1
-8472	-4868	12540	126	293	338	-10976	-10120	88	-718	362	375	-15344	-2792	-1120	-259	2190	1170	-28544	12504	28320	1816	-4506	2328	-29592	3992	-8360	-1406	-5254	3432	-4176	-808	-4592	-766	-922	-249	125	151	1
-8152	-5240	12860	198	317	418	-11784	-10232	544	-639	594	459	-17648	-3632	-3560	44	1811	871	-32768	17160	30144	1689	-4661	3197	-32768	3024	-13184	-1984	-5064	3549	-9728	-4232	-440	-646	-1331	-549	125	145	1
-9616	-4420	14144	172	363	530	-13920	-10504	-640	-707	632	544	-18568	-2640	-5088	-181	1667	792	-32768	9032	21280	916	-4720	4171	-30608	2432	-15560	-2297	-4818	3119	-19472	-1024	3432	-1078	-1506	-390	126	136	1
-6032	-4728	11148	179	509	740	-14032	-12480	-512	-1001	513	629	-19368	-4560	-1888	-735	1583	821	-32768	4560	6096	-11	-4169	4124	-24720	6008	-21472	-2792	-3683	2370	-26744	-12584	12824	-1074	-2392	151	127	136	1
-7444	-6056	14508	323	713	920	-13808	-12584	3272	-1346	437	775	-20736	-4664	4256	-951	1321	677	-32768	-12368	-16440	-692	-3247	2746	-19816	-10712	-32768	-2710	-2103	1910	-720	-20440	32767	-380	-1180	276	124	142	1
-7724	-4456	14276	340	947	1122	-12568	-9584	5136	-1613	741	964	-21056	-3616	9080	-890	1011	362	-32768	-31120	-32768	1778	-1165	1360	-224	-14104	-32392	139	-120	894	-17928	-12424	32767	-1179	418	151	118	131	1
-13860	-1688	14820	335	1258	891	-16496	-9592	6232	-1656	1440	1464	-19048	-6288	6096	-1197	475	342	-32768	-7960	-22240	399	1824	206	-10496	-2984	-28344	152	2492	-643	-25248	-12360	8952	-1849	581	926	117	122	1
-10672	-4160	15860	312	1997	1085	-16816	-12200	1896	-1519	2081	1423	-19232	-6896	5720	-1351	-514	489	-32768	-1632	5080	-774	2425	93	-18880	-7672	-23752	-134	3456	-961	-18376	-5496	-5008	-193	-238	450	123	121	1
-10956	-6160	16484	260	2686	1458	-19760	-13296	-232	-1932	2338	1469	-23112	-7024	8128	-1258	-1107	331	-5536	21624	31792	-2548	2763	953	-32768	9784	32767	1006	1517	-875	2024	3232	-24240	-402	-329	363	117	114	1
-8076	-9004	20244	599	3579	1968	-24240	-15048	1648	-2342	2467	1468	-23608	-9280	11824	-883	-2011	-42	24048	-32768	7616	405	5728	5	-22232	-3816	22256	-2037	1991	-1142	-18704	9288	13472	952	4	1066	116	117	1
-12168	-11640	26740	454	4685	2360	-25728	-23576	7672	-2375	2559	1667	-23024	-10360	15680	-366	-3220	-436	-32768	-17456	32767	-1895	4969	-2325	-24528	2680	-24392	-2914	3644	-1370	-27240	-2088	1832	-4450	-230	-756	122	117	1
-5884	-14960	23392	534	7133	3700	-31792	-27488	13344	-2533	2799	1487	-25432	-416	18416	-449	-2318	-339	-32768	32767	32767	-3270	3521	-1750	-32504	3568	-12568	-1676	3117	-738	-30184	-29968	3528	-4902	79	1691	131	188	1
-9092	-7768	18620	-646	9286	4575	-32768	-25224	13376	-2611	2360	1744	-29264	-2264	-5128	-395	-1639	177	-4792	-32768	32767	-846	883	-425	-32768	-19976	-4408	-1929	2858	-830	-3816	-7576	-18864	826	2180	825	117	115	1
-31252	-27528	32767	-2465	6602	4627	-21912	-32592	2248	-3612	1627	1809	-31424	3680	-20672	250	-2129	-134	-13584	4280	17488	-432	262	-191	-9328	4360	-13016	1160	2287	-235	-11008	-7456	-12184	1855	926	997	89	61	1
-5100	-32768	32767	311	3511	4809	-17480	-24848	-7200	-3287	1084	1200	-32768	4784	-9760	-97	-2469	-1256	-12576	8464	13040	119	306	-23	-16312	-2208	-10392	2678	1213	-160	-18208	8136	-15488	3779	1295	609	87	44	1
-29656	-27860	32120	1621	637	2073	-7736	-8872	-2280	-1097	988	101	-29704	312	-5120	-127	-2201	-1576	-8592	4112	14880	65	220	-78	-19304	9016	-7160	2444	673	6	-21392	18808	-10720	2830	1464	346	105	74	1
1540	-24168	20060	-823	-1638	-1908	-3216	-12528	8024	653	-24	-211	-29368	-1120	-12248	1080	-2005	-1903	-7768	5040	14616	69	218	-96	-18336	11872	-3584	852	776	-218	-19856	14048	-6648	-13	1373	523	124	187	1
10924	-18568	8212	-392	-1635	-2766	976	-11792	6856	1235	-568	-809	-23440	6720	-11808	802	-2072	-1857	-7368	4608	14672	82	272	-125	-16704	5448	-3336	-246	822	-288	-17928	840	-5104	-1081	1566	811	130	77	1
5992	-10524	9844	-51	-1576	-2790	-1688	-6464	3096	2045	-935	-1344	-16536	7632	-9320	84	-1724	-1717	-7984	3992	14488	100	312	-124	-17904	-192	-2608	-415	682	-151	-15736	-5816	-3848	-991	1633	854	131	72	1
-2772	-8052	13352	-325	-2251	-2846	-4744	-5344	-200	2192	-1613	-1623	-12008	6248	-8424	-375	-1581	-1858	-6064	4488	13128	181	346	-51	-17184	-224	-3664	279	368	-21	-14432	-7392	-1784	-179	1768	601	130	83	1
-7272	-7336	15028	-637	-3457	-2964	-6480	-4824	-1080	2498	-2193	-1957	-9624	3800	-7936	-338	-1480	-1903	-8328	4352	14168	181	303	-43	-14168	4080	-2328	1017	188	13	-14256	-4512	-544	1164	1931	457	129	92	1
-7848	-5688	14544	-857	-4303	-3101	-9352	-4800	536	2736	-2890	-2202	-9784	3816	-9224	31	-1405	-1844	-8288	5424	13592	157	266	-81	-14024	8120	-1288	1284	135	-43	-14648	3088	864	1757	2011	487	133	99	1
-8352	-4524	13700	-1005	-4655	-3220	-11992	-5408	848	2889	-3404	-2315	-9928	5704	-9912	110	-1248	-1688	-8720	4424	13512	74	198	-132	-13336	8984	-440	700	420	-149	-14120	5888	2448	1173	2192	416	116	111	1
-11532	-4440	15396	-1136	-4803	-3262	-14712	-5400	680	2801	-3870	-2278	-8272	6536	-8528	188	-1185	-1451	-8464	4656	14072	61	196	-122	-13848	6880	-1912	40	714	-320	-14064	1248	3640	486	2313	447	123	253	1
-13708	-4664	16920	-1115	-4780	-3291	-18328	-8416	0	2761	-4339	-2300	-4712	6912	-8544	624	-1156	-1267	-7768	4232	13808	-93	144	-214	-15056	5136	-2192	100	719	-390	-16680	-992	3168	211	2412	677	121	253	1
-17524	-3856	18424	-1037	-4468	-3142	-20984	-10064	-1432	2986	-4586	-2462	-4544	6288	-8136	1082	-863	-1115	-8176	4648	13848	-149	128	-281	-15544	4480	-2432	460	730	-416	-17728	-1272	1816	190	2039	693	120	253	1
-22792	-5520	23568	-1319	-4145	-2882	-25720	-12264	-2800	3096	-4522	-2598	-3496	7216	-6880	1018	-302	-883	-9920	4280	14264	-151	57	-332	-14296	3776	-1736	796	727	-443	-17656	-1048	-784	297	1486	596	121	253	1
-32124	-10432	28720	-1320	-4222	-3094	-32768	-16168	-5760	3418	-4454	-2736	-7288	3184	-1488	1615	10	-907	-8984	3056	14336	-108	110	-325	-14584	4544	-1864	591	924	-505	-14936	-1376	488	104	1306	606	124	253	1
-32768	-12024	29348	-956	-4443	-3549	-32768	-18648	-8952	3605	-4429	-2703	-14368	608	2504	1880	-557	-1282	-8032	4064	14536	-57	223	-321	-16200	5256	-2232	453	1088	-581	-14640	104	2128	326	1619	561	126	253	1
-32768	-2552	22824	-738	-4673	-4010	-30912	-11056	-12896	3455	-4363	-2229	-23704	4792	1136	1786	104	-1499	-8728	3848	14720	-82	428	-390	-16848	6136	-2320	585	1189	-702	-17696	120	2488	424	1531	613	126	253	1
-32768	628	14528	-763	-4599	-3485	-28936	-14368	-17032	2865	-3925	-2082	-21688	568	9312	904	155	-1648	-9336	4672	14728	102	527	-519	-16936	5320	-2184	792	1298	-817	-21576	-608	256	593	1371	558	102	241	1
-32768	6516	-2876	-537	-4284	-1983	-28688	-10512	-26840	2064	-2918	-1780	-14720	-4400	23144	-400	-458	-1039	-6944	2424	17072	60	938	-543	-16760	5128	-2120	835	1324	-829	-20560	-1416	2096	501	1176	271	82	221	1
-32768	32767	-20628	-2675	-2826	-514	-22264	11800	-32032	-502	-2825	-1095	-17440	-20856	32416	-581	-770	-250	-8768	2264	17832	269	1543	-542	-19720	4576	-1792	770	1693	-1139	-18328	-2744	4336	622	1110	231	85	170	1
-32768	24852	-28800	-1310	-517	527	-10024	6056	-32768	-2103	-375	193	-19312	-8640	21112	-632	200	13	-8176	3712	17072	277	2179	-595	-20024	4424	-2584	596	1939	-1289	-18496	-2152	4560	609	1077	181	117	183	1
-32768	14544	-14280	943	1443	894	-18104	-448	-26200	-1401	1814	1065	-20256	-1568	8040	-645	288	164	-9168	5880	16776	151	2858	-749	-22808	5184	-2760	735	2147	-1397	-23328	-4080	10224	163	308	-67	118	223	1
-4312	-18632	22308	3921	2261	-147	-14800	-24736	32767	-565	2969	1030	-12208	-1888	-10872	-639	809	416	-8480	5560	18536	287	3818	-995	-25864	7088	-544	1020	2322	-1510	-25160	-2968	14080	-140	-659	-365	129	170	1
6968	8524	26472	1780	4860	919	-23040	-160	12088	2038	4027	235	-19400	-3128	-80	-573	619	374	-11352	9832	18408	421	4991	-1610	-30920	13432	1600	1364	2575	-1675	-31080	-4192	11040	-1178	-1295	-823	131	253	1
-30768	14172	30708	1709	4156	2494	-24472	-2224	-4048	380	3768	1110	-21656	-14248	15200	1381	-973	-188	-11136	14288	19776	272	6532	-2934	-32768	15728	5320	1672	3000	-1630	-21224	-13544	12104	-1035	-1265	-1058	144	191	1
-24076	-7024	17748	694	2784	2491	-27840	-12728	-4016	-646	2779	911	-18472	96	3648	2085	1365	721	-18352	10560	26592	810	7905	-3948	-32768	7904	5728	2170	2941	-1444	-23928	-20368	14184	579	-877	-986	128	0	1
-32768	-32768	4992	1509	1631	1111	-11024	-23344	-11128	-1358	2008	564	-18152	15784	-9560	961	1047	123	-25464	11136	29712	2758	8457	-4094	-32768	10312	5752	3320	2408	-1288	-28024	400	-1464	4271	135	-1379	138	0	1
-3788	15944	21828	673	590	1155	-26288	2072	-1584	-638	2507	617	-9624	5616	-10560	-598	294	334	-32768	13616	32767	4390	7219	-4245	-22256	20056	-3568	3503	1743	-1732	-30760	2224	-18648	4680	-258	-1333	112	1	1
-13196	-5848	13880	554	275	462	-9656	-8504	-6536	-1503	1898	536	-14320	10048	-9384	-1261	1187	573	-18552	32767	32767	2740	4205	-4418	-16160	11744	-7360	2400	1660	-1231	-29944	2848	-14440	3333	-1005	-499	125	0	1
-11484	-6088	13160	124	207	128	-19968	-6888	-3344	-1919	892	632	-21592	3024	-9856	-1644	1681	582	-6832	32767	32767	2307	3603	-4467	-4784	48	-11200	101	976	-286	-28768	9480	-12352	1410	-1467	88	150	0	1
-8220	-4716	13868	17	190	107	-15320	-14984	-2208	-1648	541	384	-14928	-3864	-6328	-1500	1000	758	880	26736	22088	-1554	-3667	1399	-8888	9360	576	-626	-123	339	-28176	7224	-14176	-42	-2001	202	137	0	1
-7576	-5568	13184	-5	239	142	-12920	-12448	-2104	-927	649	265	-19736	-488	-6600	-688	1397	764	13200	7240	11864	-1104	-3531	1610	-8376	8640	6288	-780	-1084	675	-22288	1704	-13880	-394	-2178	563	134	3	1
-8124	-5104	13064	-14	229	198	-14384	-11256	-1176	-393	770	165	-16928	1144	-3968	-618	1386	919	8288	3664	8544	193	-2810	1490	-3896	3368	3968	-1175	-1562	1053	-14848	-2256	-12968	-426	-2704	321	139	23	1
-8300	-5020	13060	-10	188	190	-15280	-8424	-1184	-122	861	45	-16912	-248	-3488	-567	1480	1279	-2488	9880	13760	589	-2960	1800	-4040	1824	-1520	-1316	-2059	1374	-12160	-232	-12096	-382	-2678	183	138	43	1
-6824	-5216	12188	-158	265	-10	-15656	-9288	-1544	-579	518	149	-17264	560	-5528	-788	1677	1453	-8880	11800	16400	165	-3949	2272	-6424	1608	-3680	-1521	-2608	1849	-10440	1384	-11424	-537	-2469	97	133	48	1
-8368	-5864	12388	-142	212	-1	-12776	-11832	-920	-952	32	256	-14992	-2016	-4744	-1167	1797	1565	-9512	7336	15480	-7	-4969	2678	-9456	1224	-2784	-1538	-3304	2244	-10056	3168	-12424	-856	-2371	176	128	66	1
-8312	-5380	12272	-107	172	72	-11224	-12296	-440	-847	-111	344	-14632	-3640	-2712	-995	1861	1534	-10240	4584	14064	408	-5404	2867	-12312	1560	-2000	-1348	-3893	2434	-9224	3344	-13144	-1231	-2331	228	128	173	1
-8628	-5476	12564	-16	181	145	-11024	-11224	472	-543	114	408	-14568	-3144	-264	-504	2021	1592	-12328	4992	14968	796	-5479	2836	-13712	1856	-3272	-1161	-4348	2636	-6264	3040	-13520	-1720	-2159	35	129	183	1
-8604	-5328	12424	42	209	194	-12112	-10280	-208	-407	335	422	-12968	-2568	2312	-7	2300	1247	-15992	6592	17464	928	-5514	2648	-15608	2976	-4784	-1073	-4770	2924	-4456	3800	-13448	-1810	-1899	-158	128	183	1
-9644	-5544	13316	51	183	239	-13208	-9912	288	-563	335	453	-13088	-1736	4928	104	2960	1027	-19376	7680	17808	1113	-5495	2445	-19728	3496	-5968	-1039	-5008	3234	-704	5080	-14768	-1801	-1440	-298	129	178	1
-8712	-4944	12552	56	205	277	-12488	-9456	464	-827	269	483	-16440	-2000	920	-967	2403	1079	-22560	8984	20000	1516	-5135	2316	-24312	4368	-6800	-1103	-5168	3475	-656	1424	-13400	-1329	-713	-143	129	173	1
-8936	-4676	12168	90	183	300	-11312	-9464	648	-929	376	561	-18272	-2432	-9512	-302	1696	888	-28936	12856	26760	2056	-4590	2316	-31000	4184	-7360	-1413	-5162	3818	-5776	-2048	-6920	-663	-626	-180	128	165	1
-8900	-4552	12632	134	175	340	-12640	-10208	-1048	-732	561	611	-16688	-1936	-2184	-153	1469	732	-32768	17320	30712	2118	-4582	3084	-32768	2576	-12976	-1649	-4987	3915	-13728	-7208	-264	-283	-1371	-502	127	161	1
-9288	-4568	12820	125	270	354	-15536	-10328	-736	-715	657	659	-16896	-2104	-2288	-686	1476	820	-32768	11264	24184	1169	-4721	3858	-32320	4128	-16384	-1609	-4894	3501	-22776	-4232	2232	-137	-1662	-295	128	156	1
-9216	-5248	13128	89	437	431	-13712	-10816	848	-1008	604	703	-18016	-3592	1992	-831	1413	861	-32768	2056	9344	252	-4577	3470	-27400	6568	-16840	-2127	-3741	3014	-25032	-10360	6160	30	-1973	32	127	138	1
-9152	-5272	13712	2	633	552	-14192	-10648	2416	-1242	708	831	-20056	-3120	3776	-652	1212	640	-32768	-13656	-9464	46	-3535	2357	-26320	-12752	-30352	-2249	-2326	2498	-14528	-15168	32767	-1626	-2426	590	124	131	1
-9020	-3628	14752	86	1006	610	-15936	-9480	2560	-1317	1029	1002	-21104	-4568	1784	-704	923	575	-32768	-30576	-32768	1118	-1690	1595	-440	-13704	-29760	-621	-180	1215	-11536	-10216	32767	-1963	-478	534	122	148	1
-8564	-4324	15988	64	1447	630	-16512	-11232	1704	-1228	1454	1158	-18784	-5896	432	-849	476	699	-32768	-18472	-26456	-706	1663	744	-12872	-8416	-23768	-1055	2379	-389	-20032	-14432	8440	-1487	77	765	119	142	1
-9196	-5640	15844	49	2077	752	-17000	-11384	1264	-1203	1518	1185	-20376	-4488	2336	-852	-15	661	-32768	4984	11368	-2877	3624	1260	-22840	-4776	-18920	-1082	3250	-932	-17872	-7864	-6120	-392	431	288	114	123	1
-9144	-7916	16516	147	2690	1040	-19264	-13392	1328	-1464	2034	1337	-22352	-4800	5144	-768	-680	504	-12208	-19160	28352	-2664	2818	1440	-30648	-112	26552	-402	1856	-961	-19392	13704	-11344	249	56	246	112	114	1
-10032	-6740	18496	179	3516	1435	-22352	-15792	4024	-1722	2217	1458	-25184	-6512	10408	-896	-1570	175	-12840	-22288	21760	-140	5096	-303	-21208	776	3424	-1074	2338	-1135	-21784	632	8360	-600	-618	386	117	121	1
-11540	-9180	17876	164	4484	2186	-23168	-19312	3656	-2016	2360	1521	-24032	-11064	17184	-513	-2922	-174	-32768	-7104	32767	-595	3612	-2261	-26688	-5608	-9320	-1263	3089	-1368	-16416	-8016	9064	-3154	-889	-372	121	128	1
-13384	-12824	19132	-209	5832	3313	-26344	-27728	7232	-2497	2375	1443	-24944	-7888	12712	-1311	-2248	-484	-32768	32767	2008	-1692	2270	-1196	-22192	16776	-20496	-650	3479	-629	-26600	-12384	-760	-2005	1172	705	121	154	1
-22780	-16388	27152	-641	7210	4703	-32728	-28424	11072	-2873	2331	1414	-27168	3816	7376	-741	-2146	-27	-5808	-27384	24616	-1047	435	-930	-26352	-16320	-2816	-1939	2898	-1170	-7808	304	-13896	482	2024	915	126	57	1
-23316	-20488	25760	-747	8035	5034	-26032	-28528	9568	-3085	1574	1578	-28880	-4752	-10784	11	-1952	-104	-11120	4496	14176	-617	106	-273	-10424	5296	-12248	752	2284	-549	-8648	-2352	-14024	996	1150	1418	100	70	1
-32768	-20992	30804	-2025	5856	4601	-15280	-18864	1864	-3110	1176	1759	-24936	984	-8352	54	-2216	-838	-12832	3624	15312	-273	-3	-240	-15168	-5056	-8552	1773	1271	-348	-16800	848	-12080	2511	1200	736	94	49	1
19504	-32768	32767	-147	2584	4078	-11264	-17312	-3664	-1911	1013	885	-28400	3120	-5056	123	-2562	-1489	-9056	4848	14504	-76	75	-116	-21640	6592	-5664	2143	749	-211	-19992	10256	-8392	2643	1551	294	93	58	1
-8928	-28216	28724	687	-1564	-22	-4608	-12344	1120	-193	580	-80	-30128	-840	-6888	730	-2336	-1590	-7696	4600	15152	-65	72	-107	-16848	11640	-2520	943	837	-269	-19544	13440	-5000	589	1462	356	111	93	1
13068	-16540	16048	939	-2360	-1426	-4400	-14368	14024	1291	-30	-612	-29352	3880	-10784	1435	-2171	-1871	-7904	4024	14840	-7	156	-136	-16032	5808	-1944	-360	1070	-393	-17592	840	-5080	-1101	1472	656	127	77	1
11756	-8308	11008	240	-1805	-1622	-3336	-4608	7816	1869	-576	-1014	-19864	6344	-10000	997	-2028	-1608	-9072	2792	15248	99	231	-63	-16912	672	-3624	-667	928	-314	-15024	-4544	-3392	-1166	1423	670	136	77	1
100	-9288	16772	-691	-2434	-2143	-5576	-4568	1648	1874	-1411	-1210	-18224	6976	-9768	865	-2016	-1550	-8072	3600	14544	105	264	-25	-17216	288	-3680	-599	875	-287	-14680	-5240	-2008	-129	1600	566	143	84	1
-5312	-10468	17332	-547	-3750	-2657	-7056	-4304	1576	2053	-2281	-1620	-14216	7840	-7928	173	-1953	-1525	-7848	4608	14112	102	224	-37	-14624	5864	-3096	826	281	-90	-15976	-608	-40	1215	1806	448	129	91	1
-6248	-4920	16276	-451	-4626	-3051	-9104	-3248	2320	2334	-3056	-1858	-10624	3904	-9632	-376	-1650	-1517	-7936	5032	13920	26	176	-104	-14528	8544	-2136	926	236	-152	-15800	5144	1000	1347	1818	462	131	99	1
-8304	-3344	15104	-724	-5102	-3355	-10064	-4464	1536	2732	-3560	-1975	-8600	4800	-11760	-317	-1450	-1418	-7960	4568	14240	-46	130	-165	-14168	7200	-1264	571	408	-266	-14488	3328	1776	542	1710	400	126	143	1
-9416	-4060	14968	-745	-5386	-3450	-12168	-7392	1144	3220	-3776	-2065	-7752	4680	-12608	-21	-1288	-1334	-8112	4320	14152	-75	108	-184	-14128	7104	-776	490	442	-296	-14952	-1144	1912	259	1772	439	129	253	1
-9652	-4080	15960	-634	-5261	-3282	-16096	-9592	944	3494	-4163	-2070	-5688	6520	-12144	406	-1086	-1114	-11656	5384	12904	-106	10	-220	-15536	4464	-1696	180	709	-424	-15224	-2104	2024	445	1958	445	125	253	1
-17136	-4924	18360	-789	-4950	-3079	-21392	-9840	-2696	3633	-4677	-2089	-4928	7832	-11416	1093	-640	-918	-7928	3664	14280	-97	84	-186	-15256	4048	-2200	394	721	-445	-15448	-1728	1080	461	1957	544	123	216	1
-24728	-7768	23192	-1166	-4683	-2998	-25176	-12528	-4992	3634	-4993	-2324	-3512	9928	-7024	1293	154	-406	-7872	3968	14312	-106	87	-210	-14888	4680	-2456	533	755	-460	-15984	-2072	-104	261	1670	592	120	187	1
-32768	-13476	28616	-1463	-4788	-3151	-32768	-18312	-7576	3383	-5065	-2525	-5280	6752	192	1659	-113	-545	-8112	3528	14192	-114	121	-249	-15824	3928	-3064	536	801	-482	-15872	-88	-1728	354	1576	677	121	236	1
-32768	-16116	27628	-1468	-5185	-3659	-32768	-21464	-12904	3303	-5254	-2771	-10704	1424	5392	2158	-1132	-913	-10528	6288	13008	-57	79	-320	-16320	4880	-3008	579	845	-529	-16616	2560	-776	417	1701	551	122	225	1
-32768	-1112	18760	-1534	-5126	-4003	-32728	-12440	-14320	2872	-5189	-2605	-18776	-496	3832	1213	-543	-1005	-8312	3744	14720	-57	268	-340	-16232	5672	-2840	623	892	-602	-17272	1416	1248	307	1611	528	121	253	1
-32768	4548	6796	-1773	-4384	-3316	-26696	-11352	-19616	2199	-4029	-2068	-32768	7392	14408	684	393	-2295	152	-1080	11032	-64	395	-420	-16128	5168	-2272	639	1019	-704	-17464	-1400	3752	326	1527	582	115	208	1
-32768	12108	-6116	-877	-3459	-2299	-27640	-8232	-32432	1941	-2760	-1606	-7272	-18096	23608	135	-697	-1943	-8552	3936	15200	86	632	-458	-17048	4680	-1664	728	1201	-838	-18128	-3232	4776	544	1556	587	55	196	1
-32768	32516	-27720	-1518	-2256	-804	-17224	12608	-32768	-406	-2113	-994	-12488	-16856	30288	-26	-734	79	-5000	3064	17744	87	1009	-453	-18936	4088	-232	681	1434	-1014	-18632	-3232	4360	593	1553	590	48	189	1
-32768	28960	-28196	-1159	527	163	-12592	7456	-31312	-1481	830	371	-20920	-6408	21064	-457	-411	199	-8336	4448	16608	89	1528	-484	-18824	4848	-2800	560	1693	-1196	-21192	528	1496	489	893	-31	95	199	1
-23588	-6804	4704	2101	2214	143	-17064	-7608	-24048	-975	2639	1090	-19232	-2848	7808	15	-143	0	-8792	4528	16808	-17	2089	-571	-20768	4624	-3728	530	1831	-1284	-19608	-416	3416	328	770	-136	119	181	1
4392	-10800	30280	3339	3100	-453	-19632	-27160	32767	-285	3575	1257	-17928	2904	-5224	193	266	-288	-8752	6008	17216	-118	2750	-716	-22768	6352	-4176	693	1921	-1359	-23256	640	7168	292	273	-216	147	227	1
-488	18792	23036	1447	4755	795	-25632	4376	9376	1704	4610	459	-22248	-2368	10528	-1081	-230	-56	-9800	6080	18280	-51	3571	-913	-24224	8672	-3112	851	2059	-1506	-25448	1504	13112	-16	-46	-315	174	181	1
-28468	7940	29340	1608	3941	1791	-17960	-4224	-5192	-231	3831	1201	-8840	-3568	1064	657	309	289	-10752	11056	17880	-111	4327	-1597	-25168	13000	-648	1193	2321	-1550	-22288	-6792	14832	-798	-883	-529	140	203	1
-12948	-1840	19264	552	2555	2587	-23632	-7320	-3232	-628	2631	712	-13328	-488	-1992	1209	665	226	-11600	11264	18192	-333	5324	-2873	-28552	13600	1144	1541	2697	-1464	-21888	-15088	12960	-1420	-1375	-711	194	165	1
-32768	-32768	2716	1982	1367	1074	-7944	-21776	-18296	-984	1837	164	-19864	4576	-5944	607	1121	518	-15424	11656	21360	-129	6455	-4057	-32768	9424	2736	2176	2822	-1240	-23736	-16392	9992	614	-887	-1039	155	169	1
-7896	14696	24392	582	191	821	-32768	4648	64	-220	2530	377	-19576	4040	-8776	444	1132	424	-15488	7544	24144	1416	7184	-4224	-32768	8456	5600	3067	2548	-1104	-26176	-8856	2456	2681	-497	-994	152	139	1
-10588	-4584	14296	463	86	204	-12048	-12816	-4840	-1033	1837	591	-17408	11072	-9200	-54	1377	875	-29016	8728	30480	2915	7396	-4143	-27808	10440	328	3626	1934	-1031	-26688	-2648	-12352	4300	-319	-1201	128	0	1
-9840	-4368	13640	205	22	79	-17856	-4256	-944	-1255	1137	508	-20776	7320	-7184	-1131	1411	716	-32768	19384	31824	3310	5711	-4122	-18528	8832	-4848	3664	1500	-1289	-25208	-3544	-12648	4230	-706	-745	128	0	1
-8448	-4992	13680	26	110	29	-15984	-11560	-1560	-1420	566	331	-17176	-384	-4800	-1106	1653	555	25680	32767	32767	1013	3192	-3992	-12584	5648	-11256	1796	1172	-364	-27656	128	-13160	3021	-1224	-320	137	70	1
-7780	-4848	13468	-29	132	41	-12976	-11240	-1232	-995	563	203	-17776	-2848	-4424	-607	1414	841	-12776	32767	27000	-622	-1173	274	-9192	8208	-4520	676	528	432	-28312	4232	-11248	1306	-1710	115	136	104	1
-8252	-4916	13604	-10	151	76	-13856	-11560	-1608	-396	840	123	-16600	-744	-4256	-271	1391	946	8192	13360	14712	-826	-2750	1973	-9528	11912	7232	-158	-396	1046	-23600	1632	-13200	430	-2025	565	131	120	1
-7708	-4524	13204	-46	219	-10	-15208	-9128	-1672	-37	888	151	-17536	-808	-4120	-198	1497	1174	10112	3560	11008	326	-1952	2084	-5752	6752	6824	-1128	-641	1387	-17400	-1288	-11048	346	-2355	651	135	152	1
-7452	-5252	13148	-87	289	-47	-15848	-9904	-576	-179	511	184	-16944	480	-3808	-253	1623	1304	2384	5400	14280	1268	-1840	2300	-4792	2376	896	-1385	-1117	1668	-12216	-1896	-10848	370	-2420	434	133	0	1
-8180	-4724	13128	-101	284	28	-14624	-9512	-768	-575	-26	216	-16216	-1096	-2952	-517	1741	1423	-7744	8576	20968	1046	-2973	2546	-7144	0	-2688	-1664	-1687	2087	-14056	736	-11208	108	-2203	347	127	11	1
-8452	-4800	12784	-96	266	79	-14336	-9600	-680	-614	-81	220	-16168	-1304	-2416	-603	1777	1445	-8256	4000	19840	549	-4353	2736	-10016	-640	-1000	-1540	-2497	2500	-10976	1520	-11680	-320	-2260	336	127	136	1
-8516	-4968	12652	-57	230	123	-11696	-10672	544	-492	-58	314	-15672	-808	104	-434	1851	1439	-8104	-1176	17976	857	-5157	2778	-12104	-856	440	-1327	-3211	2670	-10400	1760	-12056	-602	-2285	317	123	162	1
-8324	-4932	12656	-19	215	139	-12024	-9384	1184	-250	226	356	-14696	-1864	936	-193	2009	1506	-8864	-1080	17392	1254	-5533	2665	-13240	-1224	224	-1015	-3782	2778	-7384	2448	-12784	-932	-2298	202	124	154	1
-8468	-5080	12748	-20	211	143	-12568	-8768	216	-394	291	399	-12424	-272	3592	145	2430	1187	-8616	-1504	18432	1265	-5560	2337	-13240	-880	-56	-999	-3875	2797	-5896	3664	-12528	-1270	-2119	45	122	144	1
-8564	-4360	12488	85	115	172	-12400	-9064	808	-605	254	421	-14376	-3304	3696	-18	2541	1148	-13784	-112	21568	1366	-5376	1985	-19048	-1184	-2328	-722	-4908	3024	-4016	5768	-13976	-1584	-1823	-121	124	140	1
-8384	-4532	12652	116	100	218	-12696	-9480	192	-641	382	490	-16848	-2400	-568	-497	1865	1125	-17720	3936	23160	1487	-5261	1798	-22888	1864	-3136	-620	-5211	3289	-2752	5368	-14040	-1664	-1219	-72	128	140	1
-8564	-4352	12736	135	107	263	-13768	-8536	-448	-631	464	540	-18752	-424	-5320	-19	1668	974	-22952	6952	27736	1639	-4856	1817	-27520	3304	-3872	-1066	-5391	3458	-3864	1176	-11024	-1150	-728	-2	120	135	1
-5880	-4580	11852	151	108	322	-14128	-9120	312	-712	422	568	-17112	456	-4216	-34	1625	839	-31272	11272	31312	1769	-4566	2285	-32768	4536	-5640	-1703	-5196	3606	-6480	-4720	-3744	-393	-812	-125	118	129	1
-8412	-4600	13196	105	214	315	-14728	-9792	-240	-731	465	603	-15560	-232	-3136	-346	1547	870	-32768	12720	29472	1209	-4122	3065	-32768	1968	-8128	-2436	-4930	3482	-15928	-8808	5184	-691	-1731	-629	118	131	1
-8856	-4584	13368	101	334	381	-14392	-9960	32	-846	467	678	-15976	-1624	-1280	-525	1444	879	-32768	5672	24224	-183	-3717	3662	-32352	-1944	-14760	-3063	-4321	3000	-23104	-11464	4712	-906	-1637	-576	119	134	1
-8872	-4832	13756	112	497	477	-13976	-10344	920	-910	632	801	-18624	-1624	968	-401	1320	708	-32768	1048	8856	-23	-4100	4147	-24120	2304	-21824	-3240	-3129	2095	-27800	-14168	16624	-1885	-2191	123	117	129	1
-6784	-4860	12620	249	817	657	-15688	-9792	2184	-1045	891	944	-21864	32	1176	-566	951	569	-32768	-25264	-19488	-353	-3227	2587	-19920	-16888	-30808	-2558	-2103	1822	-1424	-15960	32767	-1613	-1136	-625	111	148	1
-8788	-3620	15740	178	1187	642	-17160	-9776	2120	-1187	1103	1132	-23056	-2504	2192	-974	760	602	-32768	-32768	-32768	902	-1004	1202	-2304	-11672	-29648	-317	349	284	-18552	-19168	27112	-1961	-104	101	114	158	1
-8268	-4352	17208	232	1654	730	-17464	-11536	1944	-1112	1452	1322	-20112	-6952	1584	-919	288	595	-32768	-30752	-23088	-1468	2345	309	-17744	-6000	-23064	-118	2279	-1002	-24688	-15408	-4240	-1355	-203	380	119	116	1
-7936	-7432	16700	338	2261	893	-18152	-12984	1616	-1125	1758	1443	-20856	-5632	3784	-925	-297	662	-1272	-2728	9736	-1875	2889	250	-19976	-8496	-24056	13	2452	-1098	-21392	-6592	-7544	1334	336	-24	122	108	1
-10556	-6904	17312	625	2924	1325	-21568	-13912	1752	-1281	2013	1494	-25376	-7960	6064	-711	-970	459	-3080	-7768	32392	27	3975	-969	-26080	8304	17120	811	1600	-932	-12216	-6800	104	1185	-358	37	121	108	1
-12588	-8276	20464	578	3711	1779	-22952	-18880	4552	-1422	2183	1658	-26080	-8368	6584	-672	-1108	406	-26888	-16056	22152	-577	3754	-1994	-21056	-4928	-10368	-188	2813	-1157	-14328	848	2224	510	-397	118	129	125	1
-12216	-10984	22096	608	4608	2732	-23344	-21216	6440	-1455	2308	1698	-25344	-13312	17616	263	-3551	-439	-16408	11816	19152	-339	2543	-1610	-27688	4648	-5576	51	2709	-962	-20576	7664	-5408	-138	1172	611	135	103	1
-21900	-20300	20804	505	5792	4043	-27856	-27504	8280	-2000	2201	1646	-23448	-3960	11008	-503	-1672	-529	-23856	3400	26216	-1998	850	-872	-18936	12728	-10312	-812	2677	-470	-17808	4528	-10592	-532	699	661	118	114	1
-20932	-10172	24316	230	6719	5327	-28008	-25128	12560	-2501	1817	1655	-23232	-1048	1056	-320	-1884	51	-13864	-14824	20248	-1713	885	-1035	-19952	-7544	-10064	-456	2317	-899	-10624	3656	-13464	-178	1649	819	121	152	1
-32768	-17332	26908	-719	7035	4936	-19736	-23288	4384	-3115	1156	1978	-24808	-1216	-13464	833	-1875	-340	-7168	-5440	17536	-494	-99	-309	-16496	-1768	-6680	259	1315	-498	-15464	-2456	-8720	102	1156	980	98	140	1
-30312	-32768	28612	-1097	4094	4421	-13176	-27408	-5656	-2824	1630	2034	-22992	-464	-3456	94	-2611	-1049	-7664	4392	14912	-125	5	-60	-20240	1688	-3432	1143	952	-302	-19056	-144	-6864	1175	1432	733	101	82	1
-20356	-31692	16356	4686	2808	4132	-7384	-16408	-4800	3	1599	465	-28328	5768	-4312	358	-2416	-1599	-7968	4960	14736	-29	49	-29	-17296	5560	-3088	1314	727	-222	-16608	4560	-2960	1060	1563	544	99	65	1
-2492	-17428	20196	2732	-916	-1687	-9664	-7584	3144	1637	1343	-445	-28400	-2808	-9296	822	-1967	-1727	-7432	4440	14688	11	112	-41	-15768	7168	-1712	857	681	-217	-16560	3136	-2736	148	1530	553	116	66	1
11372	-11392	12568	834	-1044	-3442	-3688	-12120	8672	2209	741	-485	-26248	3592	-10728	1382	-1888	-2100	-6640	3336	14344	20	143	-81	-16264	5624	-1160	222	742	-189	-16328	-344	-2216	-221	1468	549	128	69	1
6916	-10572	9588	320	-897	-3171	-144	-8112	4072	2678	227	-1008	-18416	6272	-9872	953	-1844	-1924	-4192	3408	13320	14	132	-102	-16160	3904	-1584	-12	699	-174	-15776	-1304	-1448	-226	1508	487	131	75	1
-932	-6740	12988	168	-1619	-2703	-3520	-4680	72	2570	-592	-1219	-13832	6600	-8304	276	-1680	-1734	-7800	4392	14232	10	164	-70	-15440	4112	-2512	200	591	-174	-14856	-2736	280	177	1603	508	138	86	1
-5828	-5888	14816	-76	-2850	-2453	-5920	-3312	-920	2346	-1574	-1479	-11896	4968	-7840	14	-1472	-1891	-7624	4344	14176	5	149	-79	-15080	5040	-1544	594	466	-233	-14496	-2160	1648	851	1793	512	135	75	1
-7788	-5104	14788	-455	-3989	-2580	-8256	-3336	-792	2338	-2410	-1650	-9640	3024	-7720	109	-1388	-1823	-7696	4776	13984	-31	143	-122	-14296	6832	-872	862	454	-301	-14792	240	2800	1183	1968	443	135	85	1
-8096	-5420	13632	-692	-4631	-2863	-10376	-4200	768	2557	-3073	-1813	-11168	4880	-9064	175	-1382	-1654	-8112	4640	14320	-49	115	-141	-13992	7624	-64	678	597	-387	-14904	896	3112	1038	2021	391	134	98	1
-10396	-4692	13636	-708	-4847	-3115	-12616	-4928	1616	2592	-3532	-1851	-11496	7072	-9848	243	-1282	-1525	-7528	4464	14224	-68	122	-153	-14768	6864	-760	318	804	-473	-15944	40	2808	744	1999	388	122	116	1
-12096	-5264	14488	-684	-4935	-3243	-13536	-6944	64	2663	-3957	-1851	-8432	6936	-9080	180	-1174	-1367	-8552	5320	13960	-56	89	-240	-15288	5544	-1568	240	908	-535	-16536	-40	2160	587	1966	414	128	218	1
-13808	-5756	16696	-616	-4960	-3225	-16832	-10352	-64	2808	-4379	-1978	-6240	6312	-9184	484	-850	-1222	-2536	-1160	11984	-93	115	-287	-15536	4688	-2168	476	915	-569	-16392	224	136	422	1825	463	127	253	1
-17472	-6504	18608	-809	-4784	-2928	-21256	-14096	-808	2937	-4828	-2278	-5856	5984	-9184	1023	-420	-1014	-7168	4264	14304	-102	170	-346	-15160	5264	-2408	622	933	-572	-16536	64	72	362	1786	469	123	253	1
-24880	-8888	23152	-1260	-4509	-2534	-26600	-16480	-3648	3100	-4877	-2589	-5776	8304	-8296	1285	402	-589	-7448	3552	14704	-118	257	-400	-16208	3320	-2184	564	985	-580	-14648	-1064	-1808	129	1500	510	119	253	1
-32768	-12488	28324	-1680	-4560	-2773	-32768	-18056	-6208	3420	-4599	-2958	-9240	6688	72	1564	199	-636	-8304	4128	14432	-30	358	-332	-16616	3472	-3024	637	1003	-615	-14760	-456	-1744	85	1604	495	122	253	1
-32768	-13308	27676	-1722	-4678	-3459	-32768	-19856	-8008	3458	-4650	-2916	-16880	1992	3464	1548	-605	-950	-8480	3968	14528	41	474	-368	-16464	5152	-3720	606	1095	-684	-16336	1048	-904	77	1496	512	128	253	1
-32768	-1564	20528	-1635	-4424	-4199	-32768	-12992	-15480	3002	-4763	-2232	-25064	-184	9208	725	-166	-1627	-7312	4864	15328	33	660	-410	-17816	5496	-3704	648	1124	-808	-19648	1648	-1296	287	1459	498	124	253	1
-32768	8904	5544	-1088	-4209	-3610	-28888	-7656	-24712	2190	-3682	-1829	-21688	-824	17328	-13	701	-2430	-9808	5136	14904	259	776	-562	-18080	4408	-3664	870	1175	-889	-19440	-2352	1272	305	1378	447	87	246	1
-32768	19444	-15232	-1493	-3668	-1621	-19824	2920	-32768	647	-2639	-1810	-15432	-15528	29424	-1057	-586	-1027	-9544	4912	17328	178	1438	-502	-20400	3216	-1024	1045	1245	-1027	-18248	-3704	3392	553	1308	449	75	248	1
-32768	32767	-32536	-3358	-2040	32	-15072	12664	-31816	-2042	-1688	-460	-12312	-20256	26592	-325	-557	-276	-8104	3248	16816	242	1859	-547	-18704	4312	-856	812	1571	-1183	-18528	-2760	5560	526	1067	247	69	158	1
-29468	4152	-18260	-45	730	1031	-11448	-4312	-28448	-2067	1061	625	-18808	-3552	13104	-644	649	140	-8456	4768	17672	204	2457	-586	-21192	5496	-1200	678	1840	-1385	-23240	-3128	6704	397	796	-42	86	150	1
-32768	7416	-9512	4622	2123	1484	-18288	-4312	-20064	-926	2924	1032	-19136	-1288	-152	-456	-40	187	-8528	4976	16272	120	3176	-804	-21928	5840	-1840	828	2049	-1492	-25976	-1408	10560	191	64	-352	137	153	1
25308	-11644	32236	2760	4161	-372	-27880	-23536	32767	1594	2799	607	-16272	3144	-10448	269	941	323	-10048	8176	20520	294	4026	-1044	-27040	11272	160	996	2238	-1689	-27384	-2248	15344	-704	-975	-545	141	211	1
-26356	24136	24972	2132	4911	1370	-23000	5240	-14408	1585	4549	780	-30992	-11016	21704	351	-625	-251	-12152	16968	19200	196	5336	-2019	-29760	16136	3752	1325	2619	-1796	-23376	-9808	16792	-1973	-1337	-757	150	203	1
-24048	6952	28488	444	2077	2989	-31872	-8856	2192	29	3295	707	-8504	-1320	7536	2857	204	177	-17096	12312	26088	69	6564	-3378	-32768	12904	4616	1622	2897	-1646	-20880	-20360	15376	-239	-1467	-847	174	87	1
-32768	-32768	-6656	1497	1696	746	-9296	-26712	-14640	-1356	2449	432	-14728	13032	-5416	1188	1150	1154	-21456	8528	27968	1014	7633	-4138	-32768	10896	8248	2414	2830	-1542	-29376	-8168	9072	1906	-237	-923	149	0	1
-3236	30008	27508	1051	344	1310	-27640	3384	-4776	-174	2651	234	-14680	8040	-12216	-12	643	361	-23432	20072	28416	2459	8227	-4181	-32728	16280	4024	3218	2197	-1538	-30936	-3240	-8424	4180	-208	-1276	126	0	1
-15736	-7204	11004	542	149	365	-8792	-12016	-8312	-1518	1967	716	-7528	5936	-9680	-995	592	391	-32768	27144	32048	3812	6118	-4290	-18152	14816	-3576	2854	1979	-1872	-23944	-456	-10848	4114	-966	-984	120	0	1
-13724	-3668	14064	330	-77	203	-15864	-4920	-3944	-1571	1241	584	-22424	7680	-10544	-1877	1610	553	10624	27984	32767	1516	3050	-4414	-13136	8376	-11320	1170	1758	-683	-23744	8	-13328	4037	-995	-836	122	0	1
-7504	-3388	14080	50	72	5	-19080	-12040	-920	-1938	491	549	-14984	-3392	-7336	-1795	720	755	-20192	32767	32767	-782	-1280	-168	-9128	8496	-4864	195	742	126	-31680	7560	-12832	1453	-1577	26	130	0	1
-8304	-5512	13388	33	120	89	-12032	-14192	-2080	-1176	787	298	-18936	-4776	-5128	-870	1356	524	10672	14680	21000	-1415	-3677	1571	-10752	12824	7576	-369	-666	781	-26744	4728	-15768	76	-2123	395	140	19	1
-8152	-4728	13600	31	154	132	-14096	-11384	-1768	-483	1128	219	-18184	1880	-4192	-542	1262	688	11360	4344	12368	-256	-3003	1731	-5192	6248	8040	-910	-1128	1120	-19272	-1144	-12872	-189	-2599	528	133	48	1
-8316	-4908	13460	19	258	50	-14192	-10656	-2224	-10	1266	201	-15760	-1472	-5352	-537	1320	1074	2752	6752	14560	826	-3030	2000	-5904	2008	1256	-1362	-1637	1447	-12912	-2352	-11552	-150	-2716	298	133	67	1
-8352	-4492	13004	-48	281	-5	-15688	-9440	-2568	-124	788	290	-16440	-1368	-5536	-556	1596	1475	-5488	8672	18760	671	-3799	2266	-7728	384	-1776	-1398	-2354	1886	-11672	696	-12408	-255	-2518	161	138	88	1
-8556	-5600	12560	-67	234	48	-13568	-9792	-1728	-779	46	340	-16184	-1160	-4344	-695	1748	1528	-9224	5344	18456	371	-4878	2645	-9328	-912	-1920	-1385	-3061	2258	-11800	1448	-12848	-640	-2377	149	126	177	1
-8408	-4996	12660	-46	183	122	-12528	-11096	-528	-1068	-283	350	-15064	-2480	-3184	-841	1783	1608	-8536	1296	16376	533	-5544	2762	-12768	-704	-728	-1288	-3770	2507	-11304	3256	-13912	-953	-2322	79	128	184	1
-8452	-5020	12496	10	160	146	-11280	-11768	-400	-774	-66	417	-15440	-3928	-2096	-622	1846	1575	-9296	-16	15928	825	-5598	2566	-14872	264	-1040	-1104	-4320	2640	-6272	2488	-13328	-1299	-2402	-61	129	200	1
-8760	-5316	12416	22	162	154	-11128	-11144	-248	-350	331	446	-14544	-2224	184	-195	1982	1587	-13376	1936	19000	1015	-5475	2225	-16184	160	-2944	-910	-4854	2778	-5584	3944	-13680	-1385	-2104	-190	128	180	1
-8240	-4952	12560	113	148	222	-13272	-9280	-440	-293	491	476	-13440	-1512	1616	88	2198	1384	-17240	5768	20040	1148	-5493	2062	-19216	1752	-4640	-901	-5183	3013	-3128	4552	-14488	-1369	-1700	-258	130	171	1
-5660	-4340	11528	146	129	284	-13888	-9384	-88	-664	299	492	-14536	-1344	2232	32	2567	1302	-20736	7728	21528	1368	-5136	2043	-23696	2792	-5376	-1086	-5348	3256	-688	2216	-14504	-1049	-956	-171	131	159	1
-8388	-4944	12884	112	196	307	-12552	-9880	-200	-954	234	546	-17256	-2688	-472	-634	2278	1252	-28352	12304	27056	1739	-4703	2329	-28320	3192	-7416	-1402	-5328	3492	-1896	-816	-7600	-508	-698	-204	123	154	1
-8560	-4432	12864	115	248	384	-12496	-9896	-288	-962	344	629	-16504	-1344	-1920	-465	1716	1090	-32768	19248	31544	1640	-4759	3043	-32768	4016	-12704	-2042	-5073	3810	-9512	-5848	-1216	-354	-1082	-519	118	152	1
-8516	-4336	12980	164	274	421	-13032	-9344	-720	-865	535	683	-15920	-1824	-2288	-234	1551	865	-32768	15232	25152	975	-4830	4109	-32768	3656	-14656	-2273	-4919	3540	-17616	-4920	-784	-612	-1350	-638	118	142	1
-9008	-4632	13412	170	420	438	-14688	-10944	-880	-845	687	781	-17384	-4248	-1344	-635	1425	911	-32768	5056	11560	529	-4400	4229	-25336	7240	-17944	-2561	-4026	2935	-28816	-9296	6008	-906	-1970	-361	121	131	1
-9348	-5192	13400	118	615	547	-15024	-10736	352	-1052	776	878	-19648	-4088	3048	-586	1264	831	-32768	-2600	-7400	-174	-3477	3277	-24624	-2792	-28440	-2888	-2464	2345	-22168	-16432	32767	-1988	-2658	390	120	136	1
-8288	-4976	14796	206	936	629	-15752	-9352	2248	-1291	899	1017	-20832	-2928	2240	-485	1035	712	-32768	-31600	-32768	1459	-1893	2091	-6576	-16768	-30936	-677	-1108	1439	-6496	-8080	32767	-1795	-678	305	119	140	1
-8820	-3300	15812	147	1334	652	-16008	-10120	1368	-1274	1283	1191	-20088	-3880	1928	-523	698	778	-32768	-20008	-32112	708	988	894	-2928	-15800	-31360	-344	-597	1186	-18232	-15216	16360	-920	-36	612	116	144	1
-9280	-4068	16784	145	1955	711	-19016	-11896	720	-1172	1693	1329	-20984	-5296	2800	-740	36	832	-32768	-400	-2312	-78	2791	286	-19200	-8928	-24384	-148	2950	-894	-19088	-10272	552	-487	-406	292	115	114	1
-10272	-7092	16620	206	2574	982	-18704	-13448	1328	-1394	1920	1387	-23088	-4200	7200	-779	-550	645	-14752	-7376	11584	-2688	3384	707	-27872	-2544	12120	285	2365	-878	-11640	2016	-9736	832	186	182	111	125	1
-9824	-6804	18072	299	3377	1345	-21920	-15176	3552	-1650	2181	1524	-25144	-8632	11896	-489	-1417	196	8872	-18792	26032	-109	5362	308	-26312	5672	19928	-887	2357	-1052	-17944	744	-3032	482	-375	688	109	116	1
-12844	-10496	19212	402	4381	2062	-23120	-22464	4176	-1915	2370	1676	-23600	-16336	24024	-175	-3406	-446	-32768	-31448	32767	-1030	4320	-2344	-19216	-8016	-15752	-2151	3542	-1368	-21584	1336	4224	-2015	-1639	-418	125	125	1
-16608	-19388	20256	248	5638	3628	-26488	-30488	6944	-2336	2597	1496	-24016	-6592	21920	-684	-2224	-740	-32768	32767	6400	-3080	2290	-2164	-29912	4096	-18536	-652	3312	-804	-26768	-4544	-3352	-2731	1565	532	130	130	1
-22444	-18040	28260	-259	7029	5142	-32768	-31448	11632	-3045	2610	1459	-29328	-3736	3832	-351	-2014	2	-9168	-32768	32767	-2286	316	-1434	-25208	-3848	-3976	-2161	2921	-603	-12656	-2624	-12912	-353	1327	577	121	168	1
-21312	-21900	29304	-904	8576	5932	-28608	-32104	14616	-3307	1538	1811	-32768	-1288	-11912	688	-2509	-301	-15400	17176	13536	-683	146	-282	-16024	-1112	-13392	268	2675	-673	-7128	-4496	-13336	125	1116	1233	95	35	1
-32768	-32768	28644	-2181	6446	5564	-11800	-24576	-4048	-4068	947	1784	-28152	1536	-9888	-115	-2615	-1335	-13440	4720	16544	-629	-29	-320	-14960	-4728	-7024	1469	1484	-422	-15960	-5080	-8992	1846	1102	843	93	26	1
-2284	-32768	32767	920	2496	5190	-8048	-20536	-11808	-1575	1179	195	-28288	1440	-3944	-332	-2218	-1564	-8328	4608	14800	-33	93	-96	-16184	-4120	-6312	1635	1422	-367	-20064	7112	-5912	2528	1140	389	113	41	1
-11984	-28836	32368	1333	-1347	-1571	-2672	-9992	2824	321	545	-874	-32672	-416	-11192	972	-2175	-2027	-7672	4248	15120	-12	108	-67	-16192	11568	-2064	1468	1013	-313	-17960	10208	-4024	983	1366	318	126	75	1
15984	-23004	13880	666	-1623	-4327	-3776	-20152	16688	2071	364	-1042	-29704	5072	-10984	1138	-2334	-2347	-6848	2864	14696	15	182	-104	-15040	6680	-3032	-29	1358	-448	-16944	2056	-3808	-642	1435	704	140	65	1
8336	-10804	11832	388	-1270	-4094	-1552	-4824	5352	2890	-214	-1745	-18640	9208	-11064	519	-2041	-2131	-8040	3592	14792	63	240	-59	-16400	2160	-3432	-635	1244	-371	-15784	-1944	-3952	-693	1504	610	135	64	1
-3056	-4752	19180	-572	-2390	-3879	-7088	-3424	856	2828	-1296	-1976	-13968	9944	-9120	-389	-1853	-1991	-8152	3768	14360	93	256	-3	-17752	1072	-5936	-207	891	-285	-15408	-1952	-2408	-185	1545	600	129	78	1
-8452	-4200	20628	-751	-4064	-3578	-9224	-2240	832	2685	-2383	-2282	-10960	6440	-9440	-916	-1635	-1999	-7928	4568	14160	78	223	-14	-15544	4040	-5304	576	486	-178	-16064	-560	-832	719	1788	606	113	99	1
-10456	-32	19788	-910	-5327	-3420	-11808	312	1616	2568	-3496	-2436	-8592	5408	-10208	-920	-1474	-1759	-7864	5240	13904	16	173	-87	-14672	6616	-2984	961	362	-239	-15976	2088	824	1134	1824	437	127	105	1
-10980	40	17656	-1164	-5903	-3707	-14680	-2448	2576	2708	-4068	-2386	-8904	4944	-12016	-734	-1214	-1655	-8072	4704	14280	-39	124	-144	-15192	6680	-1512	862	368	-252	-15304	3584	2072	743	1759	403	123	108	1
-8072	-120	16740	-769	-5694	-3735	-16752	-6376	3488	3156	-4337	-2300	-6408	5320	-11952	-261	-958	-1422	-7584	4816	14336	-70	168	-204	-14768	7568	-1504	409	564	-359	-15728	984	1752	103	1694	433	134	108	1
-13460	-1764	19716	-545	-5179	-3325	-21104	-9128	88	3505	-4621	-2237	-5144	5832	-11224	211	-546	-928	-7768	4080	14296	-46	194	-260	-15368	4520	-1920	71	743	-452	-14800	-2064	1352	25	1883	408	129	110	1
-24064	-3248	24960	-923	-5029	-3036	-26744	-11960	-4400	3759	-5103	-2274	-4576	8216	-10072	1021	173	-665	-8448	3600	14352	-74	216	-283	-15384	4248	-2720	274	796	-489	-14928	-2800	1904	472	2170	405	134	115	1
-31012	-8472	29484	-1330	-5107	-2719	-30920	-15584	-5848	3649	-5317	-2330	-3096	8072	-5672	1491	650	-507	-624	3792	11456	-88	166	-343	-15048	4392	-3288	594	772	-494	-14672	-1216	1272	799	2206	442	130	128	1
-32768	-13228	28368	-1636	-5380	-2797	-32768	-19032	-10120	3374	-5270	-2559	-7352	3560	4096	2266	-320	-685	-10600	7272	16448	-98	174	-454	-15040	4872	-3544	707	864	-557	-15984	568	1344	766	2120	472	125	208	1
-32768	-8900	23180	-1776	-5340	-3513	-32768	-13944	-15376	2759	-5388	-2679	-16512	-1656	7384	2095	-1157	-810	-8520	4352	14736	-146	350	-470	-16600	5232	-3568	805	913	-638	-17080	2264	2832	464	1911	529	130	253	1
-32768	5364	7604	-1972	-4589	-3649	-26856	-12096	-20016	1990	-4807	-2319	-31424	-1000	19552	871	-616	-1700	-9136	3656	14984	-87	514	-509	-17384	4616	-2360	825	1042	-809	-17952	272	5064	-55	1720	582	127	253	1
-32768	11676	-8712	-1131	-3645	-2404	-22480	-3928	-30480	1313	-3216	-1555	-19840	-4112	19336	-686	301	-2257	-7824	3112	15072	154	715	-593	-17688	4120	-1880	777	1278	-944	-17064	-5160	6872	-241	1595	599	57	253	1
-32768	26908	-25184	-1035	-2802	-754	-15320	7856	-32768	-56	-1988	-1084	-6352	-25200	30288	-726	-941	-284	-9784	3112	16304	103	1414	-559	-19744	2880	-1296	843	1508	-1086	-20632	-6080	6280	322	1407	470	33	253	1
-32768	28664	-29388	-1147	-526	234	-15000	10088	-32768	-1212	852	78	-12256	-7256	19208	-479	52	355	-8664	3552	17744	179	1997	-572	-20120	4432	-2128	754	1830	-1248	-23576	-4280	8128	385	975	47	65	253	1
-32768	-13368	-22824	2793	1946	430	-18600	-7040	-23888	-1075	2449	761	-19648	-1872	2984	-239	669	451	-8112	6712	19344	78	2685	-706	-23368	5888	-1384	816	2093	-1419	-22960	-4336	15208	150	385	-203	131	224	1
-13536	-8732	32767	3025	3707	-568	-26424	-32768	32767	510	3559	1272	-17800	-1472	-12368	383	1175	125	-8192	7136	19792	156	3844	-1024	-28840	10984	-672	1084	2419	-1664	-28424	-3920	21200	-684	-795	-396	147	253	1
-4532	32767	31304	2382	4795	2327	-31680	5400	-1576	2385	5304	670	-32768	-11248	25800	-118	-644	-280	-10280	14736	20792	187	5304	-1875	-32768	18800	2712	1273	2857	-1841	-28792	-7544	18600	-1278	-1035	-776	126	253	1
-32768	-2456	28536	869	2887	2883	-32768	-7328	-376	-953	3176	1276	-13944	-576	15752	1987	112	721	-14088	11584	26576	97	6844	-3560	-32768	14496	4920	1703	3249	-1602	-27472	-19064	13712	-254	-767	-1023	113	253	1
-21744	-30452	22564	847	2578	1263	-14408	-22160	-7240	-2451	2383	960	-19432	19712	-7960	1426	861	382	-19432	10760	32767	1252	8067	-4364	-32768	12800	5664	1797	3242	-1587	-28952	-7656	8056	2549	10	-944	152	200	1
-8648	14000	26860	1602	1570	1081	-19864	-6408	-1680	-719	2245	31	-12792	14288	-19360	-1125	493	274	-27632	21096	30480	2923	8654	-4243	-29352	16984	3648	3927	2013	-1563	-26536	-4752	-11648	4330	-346	-1183	134	131	1
-17368	-26840	6092	544	565	454	-9168	-12480	-8984	-1706	1360	890	-6640	1856	-10368	-1791	806	543	-32768	24648	32767	3576	5657	-4281	-18272	10544	-7976	3117	1809	-1762	-26184	2120	-13808	4410	-755	-940	121	158	1
-20748	-26040	8072	599	488	391	-19312	-2960	-4592	-1152	1225	574	-27912	-3072	-8416	-1400	1855	789	-8008	32767	27184	132	2901	-3839	-11864	6656	-9968	1095	1308	-637	-28824	6608	-12120	2616	-1281	-271	128	177	1
-7772	-2976	14320	161	124	157	-17688	-14248	-2016	-1326	709	530	-16008	-3656	-5392	-663	985	688	-416	27704	20968	-1365	-2701	361	-8864	9712	832	78	277	163	-31240	8728	-14560	815	-1481	137	143	222	1
-8356	-5540	13704	60	201	172	-14240	-13256	-520	-918	852	349	-19960	1360	-5512	-283	1518	838	17208	9816	13344	-1143	-2676	1147	-7080	10640	10096	-725	-787	705	-22448	3640	-13072	-293	-2079	511	136	223	1
-8280	-4544	13356	7	236	212	-14096	-10272	-1944	-678	809	276	-16064	1856	-4280	-747	1371	1027	11864	6800	9760	301	-1884	1524	-3736	4368	5624	-1210	-1078	925	-15752	-1312	-11984	-522	-2480	417	139	53	1
-8292	-5612	12872	14	231	168	-13640	-9856	-2144	-355	827	169	-15640	-2344	-3736	-621	1473	1360	1656	12040	14824	687	-2144	2136	-4440	3360	-168	-1514	-1700	1293	-10856	-3104	-11544	-345	-2522	267	143	0	1
-7888	-4676	12740	-75	262	-14	-14392	-10216	-2344	-324	652	274	-18264	-832	-5464	-467	1733	1512	-5736	11928	16752	62	-3158	2517	-5152	3016	-2600	-1739	-2331	1838	-11416	-72	-11928	-391	-2358	165	134	0	1
-8696	-5540	12480	-27	221	20	-12968	-11224	-1520	-597	276	344	-15496	-2024	-4240	-658	1844	1635	-7400	6176	16360	8	-4247	2833	-7800	1400	-2520	-1898	-2969	2208	-9904	2984	-11832	-688	-2392	122	128	0	1
-8332	-5480	12452	-43	206	78	-12592	-11424	-992	-763	-5	415	-14848	-2288	-2872	-720	1828	1699	-7824	4312	13944	491	-4814	2937	-11224	1960	-1584	-1686	-3582	2431	-8296	4232	-12464	-1120	-2317	193	127	100	1
-8840	-5088	12544	6	195	133	-11776	-10904	-424	-613	60	449	-16032	-1096	-648	-475	1957	1639	-10328	4592	14616	809	-4934	2835	-13224	2416	-2112	-1521	-4062	2559	-6664	2640	-12664	-1665	-2220	143	132	124	1
-8460	-5348	12472	66	197	192	-11816	-10224	-136	-414	264	430	-14432	-368	384	-150	2145	1525	-14272	6000	17936	889	-4968	2603	-15552	2032	-4352	-1363	-4502	2759	-5992	2400	-12120	-1847	-2041	-22	127	125	1
-8816	-4928	12600	62	206	234	-13944	-9448	-352	-509	300	441	-14272	-56	2304	-124	2429	1345	-19336	6696	19520	1063	-5180	2499	-19280	1040	-6440	-1090	-4832	2981	-2584	3120	-12888	-1674	-1725	-276	128	116	1
-8864	-4836	12540	39	215	233	-13176	-9768	-488	-785	218	501	-15840	-2280	2552	-437	2616	1269	-21120	7920	19888	1285	-5115	2417	-22384	4368	-6192	-878	-5037	3228	-1496	2816	-11624	-1408	-1124	-214	129	121	1
-8820	-5372	12424	37	241	300	-12016	-10640	72	-938	267	575	-17760	-3560	-2064	-853	2114	1121	-23768	8976	23456	1648	-4632	2181	-26312	4864	-6520	-1098	-5154	3496	-5232	1264	-8784	-642	-715	122	126	125	1
-11428	-6560	13684	108	219	406	-12240	-9720	-856	-881	412	600	-16192	-1408	-2192	-277	1772	884	-32768	15160	29848	1983	-4499	2562	-32768	3200	-11280	-1576	-4861	3722	-10600	-5320	-840	-213	-1282	-222	124	112	1
-7160	-3388	10564	175	348	433	-13680	-9472	-832	-821	561	665	-15984	-3176	-1736	-492	1638	914	-32768	13848	26960	1440	-4641	3569	-32768	2384	-13064	-1668	-4906	3429	-18520	-3480	2176	-91	-1591	-356	123	104	1
-9040	-4968	13488	92	448	422	-13896	-11240	136	-933	669	790	-17704	-4840	1536	-646	1413	899	-32768	5984	16576	718	-4389	3897	-28512	5584	-16456	-1868	-4255	2916	-24936	-8344	7896	36	-1855	77	121	102	1
-8076	-5412	14516	153	669	535	-14240	-11248	1488	-1084	870	902	-21192	-2416	1824	-530	1150	657	-32768	-232	-2520	-247	-3927	3097	-24416	2368	-25536	-2511	-2780	2430	-15440	-12456	19080	158	-1465	740	118	105	1
-9140	-4592	14324	166	980	671	-15104	-9952	1720	-1317	1059	1049	-21744	-1200	2496	-758	884	561	-32768	-27368	-26200	725	-2464	1911	-14640	-18560	-32096	-1640	-1302	1856	-12536	-7832	32767	-1797	-659	105	113	108	1
-8676	-4152	16408	200	1474	736	-18336	-10720	1216	-1350	1382	1188	-18896	-4696	648	-926	518	541	-32768	-19312	-32768	752	234	1547	-4536	-9856	-28760	-637	1231	256	-18880	-9344	19624	-2164	-148	633	113	108	1
-9588	-3760	16140	196	1572	761	-18176	-12840	1328	-1319	1702	1309	-19688	-7120	4056	-1120	-102	642	-32768	-14160	-10256	-1255	2382	950	-16952	-11632	-26592	-1177	3055	-858	-16968	-12320	8336	-1972	332	401	110	95	1
-11552	-6224	16356	311	2801	1163	-19184	-13688	1168	-1440	2030	1356	-23024	-6256	8072	-636	-887	422	4784	-5216	7872	-3298	3036	891	-25600	-1808	2760	-549	2913	-992	-10648	768	-8272	-115	198	335	111	93	1
-10356	-7540	18932	211	3640	1542	-22472	-16432	4520	-1665	2268	1454	-26416	-10016	10920	-458	-1977	81	8688	-27536	27368	-96	4311	-415	-25760	2560	26888	-779	1891	-801	-13760	1600	-3688	202	651	610	118	114	1
-12600	-9948	22076	225	4830	2408	-22976	-17248	5272	-1735	2296	1474	-20808	-14904	25824	-1883	-3079	-511	-32768	-20288	32767	-623	4103	-2672	-23040	-11160	-15560	-1025	3121	-1291	-27376	-8504	5208	-2408	-933	-859	123	114	1
-18576	-16416	20816	-99	6300	3813	-30096	-26368	8304	-2499	2513	1435	-25488	2032	13432	-637	-2395	-570	-15416	26376	10928	-764	3076	-1699	-32768	4504	-4272	-324	2804	-1072	-22360	-11648	-2576	-2699	1333	693	136	115	1
-22436	-15088	25848	-562	7377	4815	-32768	-28136	15560	-2922	2180	1501	-30376	-424	-3960	-476	-2497	112	-18016	-32768	32767	-2264	999	-1264	-20424	-880	-6392	-1603	2879	-713	-10648	256	-8296	83	1488	828	121	43	1
-27904	-17792	32444	-1205	7904	4975	-21288	-26064	9392	-3103	1286	1669	-30408	-944	-12288	-488	-2082	-228	-17848	28360	9544	-588	714	-318	-16416	-472	-10568	639	2523	-847	-7976	-768	-14328	1114	1296	1101	105	66	1
-32768	-32768	32767	-1808	5256	4688	-15024	-21792	-8248	-3234	766	1663	-27552	-3264	-13536	-393	-1958	-1019	-9160	-7328	16400	-536	181	-450	-13320	-4120	-8896	1124	1587	-447	-15760	2488	-10440	2164	1228	999	106	54	1
24672	-32768	24544	1708	2151	3761	-6640	-13768	-4224	-1013	797	450	-26984	-5272	-4928	167	-2113	-1340	-7240	3768	15184	-190	152	-186	-21592	4464	-5224	1919	1005	-353	-20752	11064	-10000	1958	1266	373	125	63	1
440	-31348	27204	471	-2398	-1354	-3952	-10576	1336	1126	-16	-405	-29552	-1760	-10752	1594	-2207	-1625	-8040	4176	14960	-48	162	-109	-17456	9064	-3656	1003	938	-336	-18496	9064	-6808	239	1546	421	125	82	1
12388	-18376	11888	342	-2407	-2271	-4656	-14288	12728	2065	-352	-777	-24104	6200	-10096	1591	-2117	-1845	-8104	4280	14632	40	248	-131	-15976	5912	-2824	-132	1058	-329	-17560	120	-4904	-758	1574	734	125	83	1
4888	-11728	12100	-229	-2368	-2615	-3768	-4592	3968	2419	-811	-1185	-16728	8248	-9128	695	-1876	-1684	-7816	3600	14704	98	251	-133	-17096	1080	-2688	-368	965	-207	-15232	-2808	-3600	-810	1575	716	130	87	1
-2576	-12324	14444	-528	-3081	-3024	-5048	-5504	984	2134	-1827	-1420	-13408	8128	-7944	-163	-1783	-1640	-8144	4200	14288	96	259	-80	-16824	2104	-4272	179	617	-123	-15288	-4504	-1896	-100	1633	645	131	87	1
-8004	-10380	15468	-373	-4210	-3393	-7200	-6464	-72	2247	-2669	-1801	-10784	4712	-8240	-524	-1559	-1663	-8000	4848	14144	102	252	-72	-16528	2424	-4504	277	562	-110	-14976	-80	-912	1147	1881	567	127	96	1
-8968	-5652	14176	-526	-5043	-3674	-9240	-5056	1024	2562	-3394	-2021	-9968	3728	-10936	-295	-1302	-1625	-7992	5576	14000	31	248	-125	-14272	8864	-2880	1005	235	-174	-15072	5568	-872	1432	1961	539	131	101	1
-8896	-4932	13884	-574	-5126	-3699	-11760	-6712	1512	2780	-3730	-2123	-7976	4624	-11800	-110	-1144	-1469	-3952	2632	12032	-37	205	-187	-14096	7840	-1040	509	440	-293	-14376	3568	616	711	2026	421	110	104	1
-10908	-5312	13728	-751	-5132	-3196	-13736	-9568	184	3021	-3953	-2142	-7872	5024	-10072	174	-1033	-1369	-7920	4512	13992	-56	227	-215	-14488	5272	-1520	241	600	-373	-14136	-896	1960	405	2292	461	127	253	1
-15488	-5812	16936	-856	-5031	-2826	-19720	-10448	-2736	3111	-4398	-2228	-6248	5312	-9920	726	-756	-1197	-7960	4328	14208	-98	239	-216	-15544	5336	-1080	260	659	-398	-15576	-1760	3536	488	2544	547	124	253	1
-21972	-7320	19896	-1418	-4882	-2790	-22776	-11816	-3368	2957	-4912	-2405	-4056	8440	-9144	1030	-252	-939	-9544	3688	14008	-95	259	-273	-15008	6216	-2248	338	795	-504	-18312	-128	3736	169	2104	595	128	202	1
-27288	-11740	23912	-1744	-4697	-2905	-27432	-15440	-5344	2837	-5013	-2591	-3584	8776	-5464	955	55	-783	-8168	4728	13968	-125	268	-320	-14568	5416	-1688	532	886	-564	-17408	-808	1352	32	1562	607	125	253	1
-32768	-17012	27564	-1786	-4738	-3333	-32768	-19560	-8768	2987	-4975	-2944	-9896	5248	896	1348	-588	-891	-8536	3544	14472	-90	300	-379	-15512	4152	-1672	622	1005	-596	-15864	-888	1600	80	1423	692	122	253	1
-32768	-15824	24032	-1566	-4974	-4109	-32768	-19312	-11264	3020	-4983	-2990	-17408	3768	-1640	1052	-715	-1184	-8224	4320	14872	-51	464	-361	-17816	5216	-2904	575	1130	-693	-16672	1008	1136	352	1584	620	121	253	1
-32768	912	14716	-1989	-4406	-3961	-30840	-13912	-15424	2481	-4564	-2641	-23656	1568	6104	377	174	-1771	-8576	4256	14432	115	615	-427	-17360	4992	-2536	655	1254	-787	-18632	-1648	1400	316	1638	626	117	253	1
-32768	2348	3600	-1935	-3578	-3146	-29832	-11352	-24080	1891	-3218	-2306	-17064	-8088	22760	-53	151	-2022	-6136	4736	17136	90	959	-386	-18600	3544	-536	834	1376	-912	-20760	-4440	1576	388	1484	630	64	253	1
-32768	26700	-14324	-1859	-2597	-1976	-25008	7984	-32768	543	-2476	-1707	-12776	-26696	31648	-421	-267	-719	-8632	3128	16248	199	1339	-442	-18888	4128	-984	790	1588	-1023	-18288	-4840	4552	601	1327	449	70	204	1
-32768	32767	-31956	-1499	-838	-443	-9912	15120	-32768	-1154	-246	-329	-18168	-12376	24072	239	74	-111	-9072	4264	17176	280	1965	-469	-19688	4488	-1608	653	1889	-1202	-20096	-2568	6656	713	1148	205	92	110	1
-32768	11368	-15532	1057	1894	219	-17936	-800	-26968	-957	2251	862	-17944	-2280	8232	391	237	139	-8488	5704	17304	212	2575	-594	-20528	5936	-1256	777	2120	-1311	-22808	-3224	10216	345	529	-28	107	203	1
-1708	4688	8976	4777	2819	442	-12504	-18600	2880	-57	3805	1046	-13808	-1240	-9288	170	798	268	-9080	5704	18040	227	3381	-813	-23560	7480	-424	945	2414	-1426	-24360	-2960	15136	124	-301	-248	135	253	1
12444	9460	32767	2831	4572	1024	-24032	-4328	16920	3076	3939	-98	-16808	-96	-6896	91	486	402	-7944	7968	18696	339	4504	-1204	-30136	12848	1088	1103	2699	-1645	-30016	-6920	18728	-683	-1491	-596	128	168	1
-27088	20828	32767	1961	3836	2642	-32688	8240	-12144	1120	4439	1122	-24112	-15952	21448	1604	-1104	-256	-12000	14096	21216	179	6136	-2278	-32768	17608	5448	1283	3094	-1745	-24992	-14304	14016	-756	-1249	-990	141	202	1
-22628	-8912	18400	817	2662	2575	-29744	-10032	-1088	-887	2938	1015	-22232	7808	376	2769	1378	576	-13272	12424	28272	62	7572	-3714	-32768	10336	8768	1674	3324	-1347	-22960	-23088	11400	615	-881	-1002	147	0	1
-31608	-27256	7216	2009	1700	983	-9056	-26520	-11320	-1287	2392	387	-16024	16288	-12008	937	862	179	-19136	4080	31864	1756	8557	-3757	-32768	3976	8160	2436	2869	-1257	-28136	-7872	1448	3224	-283	-1044	130	0	1
-1360	13596	20720	780	437	1220	-27456	4848	-3104	-607	2511	625	-10328	9904	-14320	-775	434	659	-32768	7920	32767	3523	8870	-3253	-28224	13888	5096	3844	1718	-1629	-32400	2808	-5584	5668	-254	-1576	108	0	1
-8624	-1628	15880	606	150	477	-11024	-8520	-7432	-1287	1905	530	-13040	10760	-11200	-1496	1246	611	-32768	18184	32767	3381	5136	-3160	-17128	12440	-8256	2412	1598	-1289	-29304	4664	-18760	3922	-1180	-649	127	0	1
-9912	-4800	13788	216	66	98	-20392	-7368	-2176	-1767	881	630	-25184	-808	-14264	-1757	1756	1050	-32768	32767	32767	-1509	1303	-1274	-6008	8088	-7056	286	556	-373	-31288	9040	-14328	1291	-1593	-66	145	0	1
-10556	-4856	14004	56	101	56	-16256	-14576	-1944	-1689	325	431	-15376	-5128	-7344	-1073	1176	880	12720	21480	25104	-1943	-3793	1013	-5168	12488	7400	-856	-468	556	-25216	5264	-16352	-183	-2283	-46	132	5	1
-7960	-5880	13168	34	141	159	-12232	-13352	-1920	-897	558	317	-19656	680	-6560	-374	1524	805	16352	5064	16256	-996	-3379	992	-7776	6912	10944	-1435	-1198	940	-19528	-496	-14264	-480	-2414	288	143	42	1
-7756	-4564	13396	34	141	174	-13928	-10496	-440	-318	759	264	-15760	296	-3384	-513	1506	1129	4504	6368	17928	452	-3313	1407	-6656	-192	3144	-1402	-1926	1108	-11144	-3704	-12664	-367	-2742	34	134	101	1
-7936	-5152	13156	30	252	94	-14648	-8240	-728	-48	832	223	-16520	-1704	-3152	-329	1624	1503	-6616	12184	21528	501	-4579	2181	-6712	672	-2208	-1225	-2739	1576	-9832	-1920	-11672	-364	-2624	-123	134	53	1
-8020	-5108	13100	15	257	81	-14416	-10560	-368	-360	504	337	-16584	-272	-3656	-380	1914	1633	-7280	7896	18040	-38	-5784	2487	-8600	1688	-744	-1083	-3614	2184	-10136	1208	-12256	-435	-2537	-335	131	75	1
-8056	-5904	12568	-34	247	50	-12592	-11440	936	-815	64	451	-14744	-1560	-2608	-570	2022	1732	-9680	1000	16528	232	-6305	2330	-12688	536	-616	-920	-4260	2406	-6832	2864	-12856	-654	-2325	-327	124	200	1
-8432	-5436	12568	39	221	148	-11776	-11488	640	-848	-55	530	-14560	-2824	-872	-313	2088	1724	-11384	280	16560	864	-6420	2024	-14584	744	-1176	-598	-4813	2548	-5456	3608	-12912	-909	-2038	-297	124	223	1
-8248	-4856	12700	100	218	199	-11520	-10328	448	-404	290	524	-14048	-1040	1512	210	2376	1746	-14240	2280	19136	1063	-6290	1608	-17968	744	-2712	-325	-5279	2723	-4176	4272	-12264	-916	-1748	-316	128	207	1
-5512	-4812	11948	209	220	299	-13376	-8768	984	-324	478	487	-12904	-56	3808	273	2766	1487	-18624	3024	21296	1371	-6072	1204	-21808	928	-5008	52	-5704	2948	-2816	4992	-11512	-799	-1257	-355	125	183	1
-9272	-3904	12776	102	240	303	-13832	-9720	-256	-638	396	560	-16688	-1488	128	-956	2487	1471	-21184	6872	22808	1824	-5695	966	-25336	3496	-5400	254	-5854	3263	-2080	2288	-10264	-518	-684	-159	129	157	1
-8380	-5132	12452	135	229	360	-12224	-9848	1176	-969	359	658	-18296	-1000	-2080	-575	2092	1217	-28656	13096	28672	2234	-5165	1101	-30528	5024	-7408	-95	-5680	3534	-3424	1400	-8992	-400	-654	-143	125	145	1
-8340	-4320	13232	181	282	447	-13000	-9408	488	-1056	431	707	-18328	-2264	-1760	-84	1853	935	-32768	19008	28048	2059	-4986	1839	-32768	4936	-10808	-737	-5310	3856	-12232	-3936	144	193	-1453	-606	120	142	1
-8500	-4024	13644	152	381	455	-14288	-9408	696	-1028	566	776	-17960	-2456	-1504	-128	1852	941	-32768	8880	20328	1659	-4615	2754	-31408	2608	-13456	-1305	-4831	3564	-22288	-1056	2992	-77	-1864	-528	118	130	1
-8632	-4860	13684	116	532	459	-13904	-10464	1248	-1068	740	897	-17768	-5400	2320	-582	1452	973	-32768	6872	9616	897	-4003	3540	-28144	2632	-20480	-2362	-3500	2761	-32768	-10472	3272	-1125	-2965	150	119	129	1
-9056	-4768	13604	98	566	485	-15152	-10568	1904	-1182	942	1060	-19912	-3936	2360	-492	1314	847	-32768	-3536	-13704	-877	-3229	3321	-22104	-8344	-32552	-2806	-1986	2038	-5544	-11920	32616	-1046	-2816	260	115	155	1
-9060	-4472	15044	160	1164	690	-15528	-10512	1752	-1215	966	1081	-22952	-1304	752	-547	970	775	-32768	-31768	-32768	593	-1424	2243	-7056	-16264	-32384	-770	-730	1196	-8136	-8816	28384	-1193	105	215	106	180	1
-9100	-4364	16928	179	1667	800	-19568	-11032	1808	-1360	1419	1429	-20688	-3088	1176	-795	631	799	-32768	-17768	-27560	936	1066	1136	-8784	-6248	-29248	-170	1981	-178	-20328	-12680	9824	-1377	528	721	106	155	1
-8792	-4760	17204	164	1782	789	-18944	-13104	2096	-1344	1756	1607	-20192	-4792	2448	-979	-85	792	-32768	-5240	-10528	-1841	3642	298	-23008	-11824	-21032	-107	2797	-662	-17488	-8328	-128	-794	-742	331	110	112	1
-8172	-6684	17580	210	2490	954	-20392	-13808	1688	-1377	2104	1681	-25072	-8320	7184	-737	-950	573	6048	-16848	32767	-1513	4270	1464	-32768	-1224	32767	175	1205	-1413	-12448	2664	-10560	945	-225	196	111	113	1
-11372	-9752	20068	364	3883	1667	-22040	-18912	4800	-1567	2328	1803	-26032	-10768	14272	-312	-2090	89	-32768	-28392	30744	-1293	5748	-855	-18344	4136	-9832	-2108	2902	-1382	-21328	-8256	13656	-2071	-1199	177	120	109	1
-12224	-12140	22596	379	5053	2814	-24624	-25104	7432	-1667	2502	1937	-24280	-15016	25536	-314	-4586	-582	-28040	-3080	32504	-262	2710	-2735	-32768	-15048	-4488	-1811	3344	-1210	-15136	-6712	-1048	-3383	949	477	124	96	1
-13852	-13036	22332	388	5220	3074	-30608	-30336	9360	-2323	2431	1695	-25512	1720	13104	-297	-2121	-654	-32768	32767	4192	-930	2166	-835	-17488	20064	-22920	105	3575	-366	-19192	-14880	-6304	-1171	1048	809	119	157	1
-16364	-15792	25952	-339	7606	5418	-31112	-29528	8344	-2461	2394	1639	-27632	-5840	-6824	58	-1388	-16	-7088	-21248	24048	-738	546	-857	-24024	-16648	-5768	-943	2709	-847	-5912	7168	-12584	1821	2058	547	110	66	1
-32768	-30164	28772	-1461	6912	5144	-12568	-28336	5360	-3385	1476	2242	-25568	1464	-13440	716	-2042	-526	-14408	1904	17264	-676	136	-422	-10496	7168	-11840	1412	1973	-440	-14320	-1096	-11848	1717	1060	1015	96	39	1
-20380	-32768	32767	859	3065	5256	-12016	-26848	-6576	-2122	1610	1415	-26048	5376	-6656	158	-2499	-1389	-11336	8048	13832	-344	95	-238	-18752	-832	-8672	2066	1227	-413	-21288	9192	-12232	2883	1667	751	99	35	1
-32768	-29956	32767	5225	-59	862	-7384	-8984	-2496	581	2108	-192	-27936	-648	-4080	278	-2259	-1580	-9136	2832	15416	-188	101	-182	-19960	8432	-3264	1495	914	-300	-19184	11848	-7096	1262	1558	359	104	72	1
10916	-18396	21156	604	-1385	-3014	-9664	-10256	15456	2180	897	-360	-30480	-872	-10448	1266	-2140	-1900	-7880	4184	14984	-77	161	-181	-16240	8592	-2624	4	1192	-429	-18312	4384	-6104	-970	1574	604	116	87	1
11820	-14900	14280	-164	-962	-3496	-568	-8976	8784	1989	-72	-869	-22968	9376	-10088	1380	-2195	-2024	-7568	3128	14784	-4	248	-174	-17104	936	-2416	-740	1208	-353	-16312	-4032	-4952	-1409	1717	702	131	80	1
728	-9780	19504	-165	-1985	-3306	-3920	-4888	2368	2478	-788	-1355	-15712	9792	-7336	406	-2024	-1772	-9272	2648	15136	124	319	-80	-18144	880	-4648	-448	888	-249	-15048	-4240	-3384	-775	1779	586	132	85	1
-4140	-5412	20064	-308	-3474	-3201	-8760	-3784	3240	2389	-1965	-1705	-12968	7472	-6952	-401	-1786	-1693	-8400	4544	14256	117	304	-81	-15328	4168	-4464	475	540	-204	-15840	-1776	-1376	431	2029	545	131	95	1
-7364	-3112	18348	-709	-4625	-3106	-10632	-3000	2160	2231	-3019	-1893	-11896	5888	-8504	-781	-1599	-1795	-8152	5600	14152	2	261	-188	-14464	7456	-2912	1083	325	-231	-15280	3264	-792	1171	2192	503	126	99	1
-9064	-2720	16260	-1010	-5431	-3083	-11824	-3800	1984	2321	-3633	-2063	-10072	5568	-9504	-726	-1410	-1680	-7624	4496	14496	-85	215	-265	-15440	7112	-2016	792	405	-286	-14640	4968	-584	730	2275	499	124	122	1
-9108	-2580	15004	-1104	-5602	-3111	-14304	-5568	2936	2652	-3948	-2149	-8296	6600	-10688	-271	-1322	-1505	-8136	4240	14224	-101	202	-292	-14584	6064	-1584	305	598	-421	-14144	688	-496	119	2362	484	121	155	1
-10088	-4968	16020	-769	-5209	-3026	-16984	-8376	2608	2880	-4258	-2172	-8024	6800	-10224	-204	-1302	-1488	-8592	3592	14224	-99	175	-323	-16056	3448	-2576	151	684	-471	-14840	-3912	1096	231	2618	507	126	228	1
-14548	-4292	19096	-599	-4709	-2913	-20856	-10616	-512	3230	-4592	-2294	-5520	7344	-9832	412	-878	-1100	-8344	4304	13840	-109	189	-365	-15848	3800	-2216	509	656	-485	-15592	-3392	3488	218	2452	669	125	237	1
-20964	-7080	23276	-728	-4246	-2686	-25944	-13176	-2808	3432	-4822	-2443	-2688	8480	-8176	687	-177	-685	-8712	4256	13864	-188	197	-442	-14008	5112	-1648	946	671	-491	-18664	184	-488	231	1856	706	124	215	1
-29052	-12288	25808	-1091	-4389	-2722	-29328	-21568	-2256	3582	-4937	-2611	-4592	6576	-5696	1033	16	-750	-8376	3496	14672	-194	237	-481	-15072	3744	-1312	807	852	-574	-18232	-56	-968	-26	1317	722	125	228	1
-32768	-9712	32767	-1379	-4929	-3090	-32768	-15656	-8528	3664	-4955	-2777	-11016	-160	432	1569	-657	-1017	-8912	1936	14344	-81	393	-441	-17800	3288	-2112	638	977	-670	-15568	360	1160	116	1630	539	124	253	1
-32768	8152	29448	-2143	-5576	-3229	-32768	-12264	-11904	2907	-5282	-2173	-19480	160	2472	1373	-556	-1336	-9216	3824	14784	113	535	-450	-17240	5232	-2192	650	1136	-813	-17960	-168	3672	183	1728	429	119	253	1
-32768	4000	6544	-328	-5167	-2581	-32768	-15360	-17640	2990	-5290	-2117	-27888	4496	11984	1266	-128	-2028	-8912	4632	15224	22	1046	-476	-18568	5168	-1240	739	1274	-974	-20216	-4312	5096	287	1534	602	115	253	1
-32768	8492	-12292	-525	-4914	-1661	-25624	-7616	-32768	1756	-2997	-1768	-16608	-3472	19144	477	-921	-1695	-8504	3696	16480	139	1472	-616	-19288	3616	72	880	1540	-1108	-20064	-4928	5960	649	1610	585	76	244	1
-32768	31268	-29012	-3073	-2656	-501	-22664	9536	-32720	-602	-2619	-1156	-10184	-20968	29496	-840	-734	62	-7248	3104	17720	134	2061	-618	-20952	5080	112	749	1845	-1333	-23384	-2904	4248	705	1313	253	71	239	1
-32768	23276	-23972	-25	-125	398	-9752	-2336	-32768	-1852	87	-22	-16936	-6680	18128	-720	552	296	-8040	2080	19504	104	2139	-610	-23008	4656	-840	547	2156	-1520	-24496	-2904	7736	460	802	-70	83	209	1
-32768	25836	-23092	2538	3232	101	-23328	1432	-18984	-898	2437	1053	-24840	-1768	2224	-438	491	-37	-9080	5432	20584	88	3679	-845	-24624	6792	96	647	2400	-1658	-25824	-3336	14472	7	88	-388	127	138	1
2308	-5984	32767	2498	5955	-285	-27992	-32720	32767	1329	3638	1300	-22144	-56	-1344	713	914	-77	-10208	7984	19728	248	4714	-1304	-29000	10536	1056	862	2601	-1781	-29808	-2592	21464	-763	-1376	-638	136	240	1
-24364	31700	26664	1840	4429	2226	-31336	10656	-16768	2396	5416	540	-22920	-216	2632	792	875	-45	-13368	10832	21152	-87	6219	-2372	-32768	18208	3440	1378	2805	-1992	-26312	-7560	22048	-2144	-1788	-1096	139	122	1
-29236	-200	29600	111	2651	2497	-32768	-6408	-1248	-532	3681	674	-12864	3872	7512	1560	1045	979	-14784	16080	25856	-161	7600	-4083	-32768	17136	7000	1784	3084	-1710	-21112	-19312	9696	-377	-1486	-926	145	0	1
-32768	-32768	1900	321	1535	1059	-5488	-28744	-16848	-2113	2453	520	-16648	16112	-9984	417	669	611	-20472	11248	28016	1751	8481	-4403	-32768	10560	8992	2507	2692	-1574	-29448	-5080	3000	1841	-482	-1183	142	0	1
-4184	14556	23168	575	596	1095	-24360	2504	-3192	-846	2136	259	-8944	11624	-17064	-1251	309	539	-32768	14136	32767	3647	7773	-4487	-24104	19456	2256	3510	1957	-1811	-28848	-6480	-14736	4513	-595	-1490	123	0	1
-16184	-9560	11536	410	151	425	-8816	-9992	-8528	-2125	1080	747	-8344	3248	-12216	-1539	1076	547	-25808	32767	32767	2295	4575	-4230	-18568	10056	-7928	2229	2157	-1537	-25264	-864	-16216	4121	-1091	-711	123	0	1
-10308	-4428	13912	255	46	198	-18344	-7648	-4016	-1632	938	620	-20656	696	-13968	-1248	2087	805	-32768	32767	32767	-2862	137	-1360	-6848	-1096	-7488	-11	1020	-326	-29432	4296	-12264	2094	-1577	-142	134	1	1
-9448	-4440	13856	132	56	101	-18680	-14784	-1984	-1494	590	591	-17288	-3744	-5296	-906	1037	603	9944	18648	26088	-1593	-3546	1681	-11352	9016	8928	-147	-639	758	-31744	6488	-17608	602	-2078	42	133	13	1
-8280	-5808	13492	56	168	157	-13432	-12424	-1016	-602	1040	362	-20936	1696	-4744	-94	1583	788	14672	1648	17096	28	-2981	1745	-7152	7440	11648	-504	-1254	1064	-20640	-1024	-14464	-293	-2604	423	132	34	1
-7796	-4064	13552	29	190	176	-14832	-9280	-880	-145	1143	223	-16152	1792	-2368	-359	1520	1049	2336	6056	20056	1462	-3148	2005	-6424	152	3056	-1006	-1712	1386	-12712	-4440	-12200	-245	-2836	249	138	58	1
-8292	-4512	13260	19	172	134	-15456	-7904	-872	7	1142	202	-16280	-240	-2752	-379	1632	1527	-6624	10512	23512	891	-4569	2461	-7936	736	-672	-1068	-2508	1868	-10344	-2696	-11400	-154	-2672	52	145	102	1
-8560	-5180	12880	-62	207	50	-14808	-10120	-632	-540	590	337	-16440	-1008	-4472	-516	1921	1724	-7728	3944	19376	85	-5792	2531	-9032	288	1048	-1125	-3258	2386	-10144	624	-11952	-98	-2412	-93	138	113	1
-7620	-5864	12224	-85	176	112	-12712	-11440	-312	-1041	38	438	-14960	-2176	-2944	-592	1987	1745	-8328	-2592	17032	558	-6286	2384	-12568	-2104	920	-1044	-3900	2589	-9568	3784	-13920	-533	-2220	-80	121	219	1
-8368	-5108	12736	29	158	242	-11920	-11248	736	-1041	-24	458	-14552	-3008	-976	-346	1997	1824	-8712	-616	15984	1298	-6296	2218	-15920	-352	376	-747	-4499	2714	-6464	3048	-14040	-1022	-2222	-93	120	236	1
-8360	-4636	13080	123	206	288	-11824	-10320	472	-573	400	478	-14688	-224	720	168	2267	1717	-12272	2768	19056	1393	-5970	1923	-18024	-392	-2168	-531	-5075	2936	-5048	3176	-13400	-1217	-2083	-234	121	232	1
-8012	-3816	13024	120	225	308	-14256	-8472	-392	-358	655	499	-12984	400	4832	467	2664	1439	-17792	5632	21352	1375	-5762	1865	-21080	720	-3576	-501	-5375	3192	-2416	3088	-14120	-984	-1655	-390	120	210	1
-8300	-4912	12648	85	300	339	-13800	-9728	840	-695	560	520	-16024	-952	3368	-442	2905	1422	-18280	9248	20608	1386	-5254	1922	-24112	3912	-4024	-707	-5484	3445	-408	2656	-12408	-450	-908	-283	120	172	1
-8608	-5324	12676	157	340	467	-12296	-10536	416	-1087	536	618	-18896	-2728	-2664	-1055	2240	1274	-24160	14304	25560	1620	-4259	1963	-31760	5000	-6720	-1247	-5437	3837	-2336	-1216	-6456	-296	-880	-402	124	158	1
-8236	-5324	12852	215	347	624	-13544	-8368	-440	-1179	587	696	-19544	-1984	-1104	-426	1851	850	-32768	19240	29616	1755	-3649	2587	-32768	5568	-7416	-1346	-5430	3910	-8240	-2552	-3912	-353	-986	-664	117	159	1
-8836	-3444	13652	144	467	575	-13760	-8280	-488	-1191	597	720	-16536	-2008	-128	-623	1743	812	-32768	5544	28608	1695	-3950	4208	-32768	2880	-18832	-2841	-4480	3507	-21456	-1784	3912	-1059	-1932	-687	119	154	1
-8668	-4148	14228	223	686	592	-14728	-10712	984	-1178	800	879	-16584	-5792	2384	-860	1553	949	-32768	32552	16296	422	-3443	4554	-27744	3584	-23920	-4132	-3160	2675	-32768	-7832	-1104	-1931	-3002	-291	121	141	1
-9816	-4428	14224	174	959	733	-14632	-10760	1528	-1233	1087	1016	-19992	-6000	1976	-509	1340	893	-32768	-4448	-19408	-2199	-3211	4653	-20280	-5504	-32768	-4349	-1613	1821	-5040	-17472	32767	-3187	-2840	22	111	155	1
-8580	-4208	15696	304	1377	862	-16112	-10264	2144	-1388	1391	1205	-22592	-3864	3064	-686	898	847	-32768	-32768	-32768	275	-1458	3156	-8440	-18528	-32768	-1847	-413	1112	-9040	-16672	28000	-2650	36	338	106	170	1
-8952	-5140	17916	508	1973	980	-19344	-11944	3272	-1386	1763	1378	-20840	-6680	3432	-866	299	736	-32768	-13912	-32768	562	2061	1778	-12208	-7096	-30416	-171	1942	-185	-23256	-18272	7864	-1546	513	664	105	137	1
-10368	-5188	17528	607	2777	1172	-19632	-14272	1856	-1446	2195	1574	-21456	-9320	7448	-708	-567	611	-26224	-11112	-19496	-506	3751	976	-25992	-17744	-13800	-57	2744	-1167	-23096	-7544	-2840	939	239	139	103	115	1
-11720	-10952	19828	776	3641	1741	-21888	-20928	4816	-1556	2560	1652	-26568	-12688	22632	-316	-2227	195	-25768	-7880	32767	-909	6435	517	-32768	24120	16120	57	2506	-1425	-19952	-8648	4624	-808	-1260	-265	106	121	1
-12976	-12580	23472	714	4701	2753	-26360	-27456	6992	-1892	2717	1688	-25528	-16584	19392	-453	-3078	-630	-32768	-19288	32767	-71	3368	-2838	-27584	-28256	-16512	-2089	3832	-1176	-11416	-8720	7200	-1552	-870	225	111	129	1
-23240	-20856	26700	432	6402	4437	-31112	-32216	12792	-2574	2622	1512	-30240	-2536	4808	-218	-1904	-815	-32768	32767	2416	-1782	1948	-1123	-21856	15968	-20568	1261	3677	-621	-23168	-8096	-10384	-329	580	693	112	126	1
-15792	-19128	29336	153	7859	5623	-32768	-32176	18064	-3075	2355	1684	-28912	1776	288	134	-2483	-454	-11072	-32672	28120	-1060	826	-855	-22664	-7704	-7712	-1339	3013	-482	-9624	10264	-16496	1587	1716	680	100	30	1
-32660	-13684	28456	-1601	7624	5250	-20112	-21800	10216	-3630	1478	1788	-28328	6320	-8968	-63	-2080	-826	-10352	7072	13872	-663	33	-303	-12200	5424	-12256	707	2216	-499	-12160	3648	-12728	74	1122	997	96	61	1
-32768	-32768	32767	-1344	4110	4662	-12800	-17184	-8384	-3209	769	1235	-24368	5960	-9712	-697	-2184	-1109	-10960	8712	14544	-238	227	-165	-19632	-936	-7912	1370	1477	-317	-20536	6048	-11224	682	1269	947	110	46	1
-32768	-20016	32156	2215	50	-56	-5440	-16824	456	-939	691	-268	-29912	-1088	-6848	-88	-2386	-1428	-9936	2832	15936	-155	161	-192	-19584	7504	-4576	995	1152	-328	-18344	5784	-6552	471	1565	468	79	61	1
10592	-25888	21800	367	-1444	-3513	1152	-21968	15688	1148	244	-529	-30040	3248	-9544	972	-2196	-2006	-6552	3784	15472	-117	214	-217	-17080	5944	-1280	22	1221	-406	-17032	1168	-3088	-509	1599	567	103	68	1
13528	-14132	12108	478	-1098	-3419	2920	-9968	8744	2486	487	-1507	-21552	9928	-9568	1011	-2058	-2223	-7120	3600	14920	-20	343	-235	-17528	528	-2992	-125	1159	-324	-16872	-2536	-4728	-666	1575	597	121	77	1
3452	-5856	19376	-516	-1652	-3184	-7136	-3592	3472	3290	-106	-1986	-16264	9920	-7696	101	-1952	-2036	-7880	3024	15040	31	356	-186	-17248	2880	-3728	-19	914	-255	-15664	-2144	-3632	-404	1771	520	140	76	1
