#Activity	walking 
#ActivityID	1 
#Date 10-07-17-56
acc_rf_x	acc_rf_y	acc_rf_z	gyro_rf_x	gyro_rf_y	gyro_rf_z	acc_rs_x	acc_rs_y	acc_rs_z	gyro_rs_x	gyro_rs_y	gyro_rs_z	acc_rt_x	acc_rt_y	acc_rt_z	gyro_rt_x	gyro_rt_y	gyro_rt_z	acc_lf_x	acc_lf_y	acc_lf_z	gyro_lf_x	gyro_lf_y	gyro_lf_z	acc_ls_x	acc_ls_y	acc_ls_z	gyro_ls_x	gyro_ls_y	gyro_ls_z	acc_lt_x	acc_lt_y	acc_lt_z	gyro_lt_x	gyro_lt_y	gyro_lt_z	EMG_r	EMG_l	act
-10020	-10280	7756	877	-502	3368	-16700	-4188	408	1788	10187	2604	-16160	-1344	3908	-3647	7148	1673	-28828	4208	9480	17373	-32768	23623	-12212	2996	-13504	4112	-32768	-16272	-10304	-5172	-10304	-19434	3202	125	127	115	1
-9684	-10980	8128	1448	-1737	5473	-16800	-1056	-664	2311	10992	3351	-14576	6256	416	-6448	7742	216	-32768	3884	10076	15978	-30422	28454	-17256	2260	-15684	1084	-32768	-11982	-12700	-8416	-6760	-18581	5277	-2322	113	107	1
-9612	-10888	8852	749	-2704	8193	-16232	-1332	-2004	2049	12004	2300	-15188	6492	-1224	-4353	6569	189	-32768	188	7696	16088	-26201	32767	-20536	5088	-17280	-4647	-32768	-7173	-13364	-9200	536	-19012	714	-2406	101	101	1
-10544	-7688	10564	2370	-391	8729	-16504	2968	-2544	-233	13613	2462	-16856	36	488	-7467	4365	-3119	-32768	-16380	8208	20017	-18079	32767	-21984	4028	-13676	1069	-32768	-6255	-15228	-2372	11308	-13305	-229	25	122	112	1
-11468	-6384	12256	2764	4446	7815	-17980	3264	-1664	-1512	15349	3865	-18368	-2564	-1444	-9938	4856	-2218	-32768	-32024	11360	23440	-7919	32767	-18496	13060	-9320	-2550	-27976	-8611	-17700	-4528	18780	8933	3462	1752	135	119	1
-11248	-7520	11912	3484	8504	8617	-20084	-904	-712	1629	16748	4557	-18912	-6388	-568	-7815	6328	1704	-32768	-32768	-5668	-1688	-18328	22494	-16252	1356	-13096	-12419	-14798	-4250	-20476	-196	29000	1450	3960	12956	128	115	1
-11580	-9996	10768	2989	10744	10872	-18408	-1220	-1172	2281	18994	6935	-18304	-6088	804	-9569	3018	2020	-32768	-32768	-23816	960	-11203	-12802	-5900	164	-4840	10047	2774	4618	-21480	3504	25204	12315	6148	17429	116	109	1
-11744	-8896	12032	4513	13205	14937	-17912	3464	-1048	-2147	21446	6196	-18032	480	3840	-9024	-776	563	-6620	-1584	22760	-22015	-2300	-22486	-11520	10532	-5728	935	20858	14406	-11572	-10772	10488	25589	5749	-2039	119	111	1
-10740	-8236	14204	2006	17608	17866	-21340	7520	-1724	-6381	24055	6353	-18520	4532	10280	-7763	-5457	998	12852	12436	10732	-3257	7739	-20458	-32768	-32768	3028	-1607	9331	1967	-12000	-9788	-3908	21701	10878	-1551	116	109	1
-12036	-11904	12120	-2681	25791	19621	-26528	8592	6564	-15835	27020	6464	-20856	5240	11924	-18097	-9160	389	-25188	-936	25576	-6289	25200	-15507	-18212	-13624	-632	-7605	1377	5957	-31160	1224	10596	8812	-4364	1258	119	111	1
-12220	-15960	15512	-48	30627	30321	-26984	2724	3400	-18548	29257	5685	-20264	8588	10756	-12361	-8642	1976	-20144	-9644	23028	-1036	18278	-12970	-11920	-17764	2068	-4474	4048	6802	-22344	17660	12560	-7690	-1628	-2885	109	105	1
-31532	-20880	18796	-898	32767	32767	-29000	-5108	-6292	-16403	30591	6565	-22308	-12488	-1084	-25119	-14418	-2591	-32768	32767	29056	-9640	7789	-4076	-18192	12020	3096	-8697	19178	3775	-15936	-640	-6560	-15224	16795	5474	128	116	1
-32580	-28088	20472	937	31267	32767	-30224	-4948	-9976	-12126	29031	9042	-24376	-15116	-9188	-10020	-20929	-10391	448	-21308	16960	-5841	-2452	-6428	-20308	11276	-11636	-14633	12052	7091	-11296	13396	-13324	20082	7442	881	133	118	1
-14992	-28060	20932	3038	26084	32767	-28200	-4932	-5052	-2625	19691	13292	-31596	-9660	-11396	10350	-25083	-14783	-9536	-1304	16256	-3254	-1623	-4106	-13584	-2284	-8676	-1852	9296	3717	-15580	15072	-6932	-1474	9790	6124	118	110	1
-32768	-15604	22352	12420	17398	32767	-16624	2388	-23920	16212	10170	13483	-31328	1056	-7876	22281	-26839	-11232	-9068	1944	14540	-1818	-1182	-1788	-17880	-2892	-7976	7492	6563	5329	-20268	1312	-3492	-18590	12923	8207	109	105	1
-9788	-22020	19056	8430	-15860	7818	-14372	6836	-12564	3699	4029	9964	-28684	6964	-3360	19963	-26023	-6271	-9220	2072	14520	-620	-197	-435	-18632	7852	-6404	-767	7930	4916	-17144	-9896	-2056	-5926	11862	244	130	116	1
984	-13460	7532	6325	-16671	-213	-10804	9408	-6200	5765	-4239	5707	-25288	6200	-4604	7007	-22464	-7954	-9492	3352	13544	-402	17	-278	-17968	812	-2376	-7705	6012	2605	-13336	-2508	1724	8855	15023	-4220	138	121	1
1908	-9104	5568	8796	-13312	-5447	-6488	7384	-9056	-6736	-11071	1666	-20604	4932	-4808	663	-19752	-9355	-9644	3624	13208	-701	-225	-468	-14900	-2500	-292	-3075	4457	1862	-15776	7208	1820	9013	14275	818	103	102	1
-144	-6592	6100	6028	-10259	-14214	-4852	6528	-7964	-7008	-15181	848	-17132	3064	-5448	-2213	-17948	-9302	-9316	3820	12944	-855	-430	-970	-13416	-1544	1160	7239	3642	4213	-16536	7776	2420	248	14661	2660	105	104	1
-432	-6672	6120	5470	-10115	-15596	-5348	2988	-9116	-3907	-21649	-960	-12752	1744	-5576	-1180	-14943	-9077	-9288	4280	12728	-1646	-545	-1817	-14040	-1208	1404	8474	3679	3657	-16112	2500	3036	2975	13220	1142	111	106	1
-6700	-6624	8460	901	-15567	-25750	-4500	3000	-8864	1100	-26592	-1628	-11520	2236	-5272	346	-13467	-7782	-9184	2672	13744	-1666	-300	-1860	-17060	3084	-1084	4818	7083	3649	-15084	-436	3752	6270	14234	931	130	117	1
-8460	-4364	8608	-3266	-20999	-27441	-4708	3952	-7964	3845	-30987	-4383	-12092	1436	-5244	3296	-12249	-5065	-9124	2800	13576	-1097	128	-1467	-17028	-472	-764	-2442	5621	2834	-14280	-1112	2456	12148	15174	-79	125	114	1
-10472	-3964	8744	-8979	-26008	-26809	-5336	4408	-8260	5555	-32768	-6966	-11604	360	-5956	10191	-10471	-530	-9804	3564	13280	-810	-285	-1917	-15180	528	148	412	5270	3204	-13784	2756	4320	14044	17194	-759	117	110	1
-12460	-5168	9612	-13490	-30215	-25305	-6560	6008	-9564	4955	-32768	-8881	-9720	2884	-7376	16336	-9763	2939	-10040	3472	13196	-1073	-985	-2440	-14596	1688	-788	3358	6790	5396	-14880	4136	4308	12858	17477	-62	118	110	1
-15148	-6376	10644	-17342	-32768	-24347	-8080	9128	-10264	-224	-32768	-10449	-8084	5304	-8344	19685	-9153	5380	-9376	2984	13832	-1045	-1020	-3178	-17384	632	-2040	2035	7731	5211	-16020	8404	-4292	6900	12413	520	116	109	1
-17008	-7708	11764	-20702	-32768	-25695	-8516	9332	-10460	-8797	-32768	-12026	-6340	6964	-9036	18183	-5865	7156	-9396	2320	14256	-473	-440	-2933	-15988	468	-2480	-552	7126	3438	-15536	4972	-792	-1438	10226	372	118	110	1
-20632	-10956	14196	-21557	-31100	-28769	-12160	7632	-12848	-13435	-32768	-15251	-5728	9384	-8808	11775	-2978	8030	-9792	2836	13848	-899	83	-2966	-16296	728	-2276	-540	7441	3596	-15492	1164	2672	-1869	11161	58	125	114	1
-29124	-13176	15648	-18163	-26843	-32768	-17148	6080	-14284	-12497	-32768	-17442	-7040	9312	-5776	5194	-944	8186	-9360	2928	14176	-891	537	-3051	-16268	236	-1148	1876	8288	4024	-16368	2720	1296	-1862	10247	-713	127	115	1
-32768	-6844	16016	-14545	-20701	-32768	-21028	4336	-17208	-8449	-32768	-17455	-5616	-120	-2968	1119	-826	4332	-9588	2564	14376	-715	1309	-4360	-17584	1348	-504	1057	8980	4005	-17896	4480	972	-3030	9168	1044	115	108	1
-32768	808	12108	-17158	-17112	-32768	-23528	1928	-16972	-6778	-32768	-12220	-19020	-4868	4612	968	1162	-1808	-9204	2636	15592	-458	3052	-4664	-17668	848	-240	822	10946	3877	-16384	3484	5012	-341	7860	1262	119	109	1
-32768	8488	1220	-17405	-13736	-32768	-21796	920	-14720	-5784	-30730	-8955	-20380	-4844	6484	811	456	-2744	-9716	2748	15768	-3066	7054	-4768	-16536	-44	-680	610	11437	3870	-19296	-840	3996	3668	6845	1029	134	117	1
-32768	20748	-9308	-12285	-7164	-25874	-12656	1128	-12596	4920	-17312	-7363	-22256	1124	30980	-630	4650	-2748	-9452	2880	16112	-3251	7762	-5022	-18356	-908	-1236	1248	15443	4940	-17664	1884	2880	6551	6071	-1988	125	115	1
-32768	32767	-10752	-12886	1984	-10096	-6552	1656	-9428	-6897	3138	-3239	-17968	-1864	23492	-16275	6122	-1361	-9888	2076	16096	-6389	15967	-6058	-18324	-460	-764	2302	17996	4620	-17620	6408	3048	10546	7002	-2228	139	124	1
-31868	25456	-15784	21215	16135	21949	-11236	-1932	-1732	-10530	20233	-1192	-17152	-5412	12704	-12997	6287	-4449	-10792	2288	15876	-9442	21143	-8109	-21088	-748	896	4387	20449	5739	-20612	5596	5580	9935	5659	-2204	139	121	1
-2912	-17044	20556	7447	19139	21886	-32768	2816	21344	8887	9171	1292	-23088	-1036	3880	-10809	14608	-6971	-12232	5644	18108	-10835	27421	-10659	-24192	-6776	3956	9767	23383	7001	-23004	1864	10160	10534	3707	-2856	133	120	1
-21596	-6568	23604	4665	24649	14183	-18368	10452	3448	27763	10082	5393	-18092	-5368	11804	10516	1183	-2834	-13936	7580	17380	-13849	32030	-19191	-24624	-5284	5608	12964	25577	9565	-23612	-748	19228	15664	-12380	-4712	125	112	1
-15128	272	20124	-2815	16398	15811	-10212	15024	-5936	11360	16393	4985	-13004	-1152	-11532	22101	6743	9182	-17108	5900	21900	-18354	32767	-27961	-25852	168	2492	11226	28311	10693	-16480	-5000	9628	9044	-10379	-5980	95	99	1
-32768	-32768	500	-4920	7033	8560	-17872	-980	-15176	-10724	17395	2213	-12776	-44	-11096	22248	5623	10676	-32768	13432	27340	-12232	32767	-29643	-25124	2644	2860	11065	29853	9284	-20796	11320	-2928	21914	-16158	-3095	109	105	1
-18016	-1156	16240	8447	3996	10610	-23720	-17752	-12752	3552	12972	-2217	-15528	-3104	-8988	-6775	9554	-9374	-25532	8076	28604	-16727	32767	-32768	-29096	4760	-3180	7651	26691	8353	-25124	12824	-1224	6366	-21222	3618	108	107	1
-16332	-2600	12436	8794	3160	10606	-17264	5876	-7108	32767	4190	6485	-18000	-10364	-10972	-14888	20732	-6485	-3536	25316	19876	-20402	32767	-32768	-25436	2644	-5424	-111	19068	4634	-28912	6424	-7296	-9142	-25315	6494	155	131	1
-10732	-6792	11300	5097	-64	3977	-14548	15584	-3784	7053	5035	-417	-16656	-2088	-4216	7107	11107	-2690	-32768	9620	32767	-11761	12497	-32323	-16552	6960	-17364	6064	-8434	7191	-26944	-1984	-5296	-17670	-25950	6200	121	112	1
-10676	-6452	11036	2237	-119	1673	-14948	9376	-3764	-17519	11181	-3730	-16280	3992	-444	6835	9323	5538	-14156	14616	24344	10428	-15206	-7763	-14516	-4864	-8968	1077	13583	-4983	-27592	-2820	-2020	-12076	-27037	4098	113	108	1
-10132	-8148	9760	683	144	369	-19120	-4700	-2244	-13441	10923	-5140	-14776	1336	-796	3383	11968	7696	-1240	17444	9008	7792	-13807	2608	-11516	-1860	-10316	6278	519	-3768	-24508	436	-3200	-967	-26601	3889	139	122	1
-9916	-8688	9100	449	195	182	-18744	-8180	-608	13384	4166	5124	-15204	112	-840	-2627	14965	4428	-2008	14084	7872	-3104	-11503	11785	-8168	196	-11776	4862	-7840	-4244	-22456	1744	-4496	523	-25564	4565	141	123	1
-9668	-8916	8936	767	88	530	-16192	164	-1628	24191	1111	4467	-14820	-2264	472	-2080	15859	1727	-1756	6576	9976	-3871	-11132	22704	-6512	3152	-11888	-1736	-15058	-5301	-21588	2752	-4732	551	-25528	4612	133	119	1
-9560	-9080	8764	1357	-270	887	-14860	10984	-1432	3664	4244	1059	-14560	-2920	204	2091	16119	1559	-3088	2472	11536	2378	-10885	28947	-5740	1768	-11328	-7975	-19014	-9571	-15564	1644	-5452	-2559	-19143	5977	132	118	1
-9572	-8032	9640	1609	-588	1221	-13972	6020	-2028	-18374	9365	-2570	-16452	1956	1424	-1184	17007	2604	-5988	-348	12416	9795	-12712	29634	-5908	1024	-10556	-9618	-24958	-10555	-14236	1692	-5908	-7206	-18648	5947	123	113	1
-9920	-7708	9748	855	-128	684	-18064	-2776	-2020	-15765	9265	-1680	-16672	1900	236	-10285	17361	4223	-9452	104	13464	13218	-18809	26064	-4244	-2388	-10500	-7673	-30368	-9066	-12448	-1884	-6948	-10600	-15159	2870	121	112	1
-9956	-8180	9452	462	459	451	-19200	-3848	-632	1245	5709	979	-17656	-2876	-788	-9984	16871	3870	-10996	-3512	14456	16054	-25986	20022	-4184	-2828	-10712	-260	-32768	-9210	-10256	-2812	-6616	-11811	-12883	-1340	125	114	1
-9724	-8532	9256	304	738	467	-16388	1028	-396	6657	4311	3449	-16136	-1844	-3320	2253	13532	4059	-11516	-4972	13904	23703	-28680	16152	-5176	-2268	-10584	5781	-32768	-9306	-8696	-1680	-7080	-12212	-10279	-4445	130	117	1
-9728	-8596	9224	417	848	954	-14828	4024	-1056	-1510	6634	1440	-16496	-2648	-4188	9621	10404	3218	-13384	-2100	14004	26543	-28611	14596	-6660	-2276	-11804	11915	-32768	-9238	-7684	-1740	-7104	-11281	-7695	-5602	130	117	1
-9868	-8428	9312	193	1008	1203	-16368	40	532	-3273	8867	560	-16612	-3160	-1628	3331	10166	3710	-17176	-1252	15844	25816	-27367	15470	-8980	712	-12992	12901	-32768	-8213	-6572	-892	-7784	-8995	-4219	-5775	128	116	1
-9900	-8600	9252	372	889	1876	-17036	-3212	1244	2043	8997	1944	-15868	-444	1392	752	9058	4232	-22820	412	18720	23366	-26294	20048	-13468	3784	-14204	8738	-32768	-8659	-7188	-1072	-6940	-6883	-466	-3898	124	114	1
-9908	-9380	8860	903	479	3083	-16256	-2728	-412	8325	9552	2629	-15824	1648	2128	2336	7939	2490	-30344	1068	19888	17836	-26141	27012	-17416	4912	-15292	-2025	-32768	-10477	-10088	1128	-3540	-2999	1276	-1747	115	109	1
-10016	-9004	9784	1423	340	4487	-16368	776	-1544	7354	11396	2739	-16364	1424	536	2056	7910	794	-32768	-4960	20256	13133	-25927	32767	-19124	8000	-14368	-9718	-32768	-12913	-13628	6952	1400	803	-724	2928	112	107	1
-10392	-9072	9840	723	437	6167	-17480	1592	-2732	2948	13633	2647	-16164	996	-772	-2647	6506	-1152	-32768	-14004	15632	10441	-26342	32767	-19316	6768	-12540	-17663	-32768	-18176	-15772	7404	8028	4471	48	7078	126	114	1
-9928	-8432	11268	791	1455	7599	-17332	-84	-2076	226	14318	2996	-16752	-320	-1072	-5008	6912	538	-32768	-17492	-8	3159	-24942	32767	-21428	2364	-11216	-19451	-29519	-17795	-16840	-1332	18144	-43	6894	10107	115	109	1
-10752	-6604	12300	2625	6849	7503	-18004	4316	-980	-302	16371	5832	-18796	-1460	-976	-8849	6158	646	-32768	-31712	-18132	549	-14210	22519	-15716	-6672	-7848	-259	-19872	-5289	-22860	908	32767	-13163	8985	9724	132	118	1
-11064	-6468	13088	2398	10157	8699	-18172	1724	-3328	1368	17898	6295	-17020	-140	764	-8194	4723	2264	-32768	-32768	-14072	8835	6722	6214	-10744	8648	-1088	10547	2053	8478	-18872	-1620	28956	-8305	4995	-2137	139	121	1
-10944	-8488	13180	2138	13118	8910	-19440	1308	-4888	-687	18764	7849	-17672	-2824	-1272	-9171	4539	2556	2564	-24948	-17424	-22147	20871	-22201	-20368	14744	-1752	-11311	14654	11942	-16104	-5540	15268	-373	2199	-6720	128	116	1
-10780	-12696	11936	1106	16133	10726	-22976	284	-2588	-4357	19434	8937	-21952	-4520	-200	-10803	3379	1496	-3212	4532	10116	-5427	19798	-18229	-32768	-12264	-708	-12043	5830	9449	-25428	-52	10832	7597	6776	1720	116	109	1
-11780	-17020	13148	3892	19914	18487	-26188	1596	1344	-7896	21321	8301	-25256	-4844	7384	-6530	-4648	774	-28888	1740	26168	-10569	22422	-9837	-16076	-14116	-640	-12698	10792	7427	-15688	2848	19640	-284	-6479	4393	113	108	1
-16456	-17932	12376	4658	23913	28106	-26492	172	6764	-12174	23933	8832	-21264	-3128	7676	-7510	-7951	686	-32768	32767	32767	-15237	9455	-8247	-16024	2976	-1804	-5958	17350	10117	-13532	6084	-8808	-1286	12074	-216	125	114	1
-18372	-20652	13912	4242	28189	32767	-26820	-1672	300	-8038	25961	7993	-22336	7464	9784	-6957	-12492	-1514	-17052	-940	20868	-12423	1345	-10959	-18936	13936	-9576	-9400	15631	11408	-13692	-3336	-16464	2156	7288	7968	114	108	1
-25528	-27412	16948	5745	28437	32767	-26644	-1240	-4480	-7959	27513	8025	-22180	-276	-1524	-8422	-15975	-4377	-12828	3664	13888	-2583	-1214	-2832	-15444	-2824	-11324	-8554	13865	5918	-11400	8260	-12036	23731	7040	6193	124	114	1
-24236	-20788	20764	6106	23369	32767	-26912	3372	-3928	-6647	24465	7697	-21232	-484	-3852	-7850	-21535	-10421	-10876	2212	13792	-1673	-1247	-2250	-16072	-632	-8480	3912	7910	6609	-18624	11424	-8180	4961	9872	1420	133	118	1
196	-27648	14928	6885	26826	32767	-23488	5028	-1180	-1111	16679	6615	-26096	4640	-4052	132	-23786	-12415	-9872	2336	13784	-1205	-984	-1886	-18028	3852	-5940	4795	5493	7735	-19688	9644	-2168	-11406	13739	5777	100	100	1
-32768	-23260	27968	4525	9691	26805	-16384	9776	-26348	2010	13210	7642	-24912	6552	-4416	4286	-23054	-10761	-9504	3220	13396	-691	-448	-1116	-17704	10996	-2740	-10256	5724	2193	-14760	-1264	984	-7579	16413	672	91	95	1
-4588	-17152	16664	-2590	-8261	1462	-18400	8152	-6588	-6434	9029	823	-26236	1064	-2748	2713	-22111	-13226	-9664	3688	13232	-761	-175	-1487	-18004	-5548	632	-11357	4182	325	-14488	372	3224	1603	13600	-3112	90	95	1
236	-15116	8856	739	-5981	-3102	-14468	5028	-5404	-6889	27	1651	-24464	248	-4928	-249	-20111	-13430	-9740	3516	13128	-1235	-85	-1997	-13300	-4740	772	3920	4460	3107	-15932	6328	2992	923	13999	169	119	111	1
-712	-10468	9324	6379	-3068	-8354	-8896	3248	-8164	-2194	-6853	-1753	-20992	1100	-5828	329	-19539	-11139	-9788	3308	13484	-1723	-803	-2400	-16844	2004	-1328	8905	5966	6844	-15928	4936	2020	-4594	16506	5024	113	107	1
-2636	-7756	10204	6088	-4546	-16914	-6664	3916	-9172	8154	-12957	-2572	-19360	1108	-6092	1484	-19328	-10891	-9564	1624	14168	-1118	-441	-1835	-16672	2956	-1952	-3850	6011	3700	-16044	-2224	4504	-633	16168	1195	118	113	1
-3948	-6460	10256	3021	-9309	-23043	-6652	5868	-9076	10100	-21200	-2866	-16504	2096	-6832	3440	-18037	-9946	-9752	2812	13716	-649	274	-1417	-16292	-3288	160	-3725	4733	2540	-14680	-388	5688	3856	16826	-815	143	124	1
-5628	-5040	10124	-1069	-15118	-26749	-5244	6120	-9448	9790	-26063	-4432	-13980	3128	-7252	3053	-16757	-9598	-10008	3104	13248	-900	459	-1547	-14892	748	-120	664	6873	2720	-14780	3712	5788	3967	19156	3124	123	112	1
-6848	-4436	9812	-4728	-20768	-28948	-4180	6232	-8556	8411	-30069	-6640	-12160	4048	-7520	4630	-15071	-6941	-9764	3524	13524	-1501	-68	-2714	-16916	1628	-680	1478	6865	5416	-18664	4752	2852	5389	18977	3787	94	99	1
-9024	-3944	10136	-8922	-25045	-29286	-4728	6864	-9460	6912	-32768	-8733	-10780	4144	-7416	5835	-13009	-2085	-10000	2892	13668	-1662	-228	-3307	-16828	512	-1572	481	6154	6135	-16244	5360	-2248	9200	13180	-301	107	105	1
-11672	-4280	10416	-14611	-29155	-28910	-5520	8272	-8908	2718	-32768	-10606	-8892	5608	-8332	7874	-10943	1466	-10412	2616	13668	-1748	952	-4014	-17856	-252	-3580	2634	6924	4265	-17260	7816	-4080	3819	10659	-1772	119	111	1
-14476	-6540	11612	-18510	-31450	-28489	-6780	9648	-10844	-5443	-32768	-12433	-6684	5696	-8564	10874	-6890	4743	-9468	2072	15196	-1387	2765	-3927	-17384	1808	-4684	2653	6902	4832	-16540	4776	-2616	1184	12346	756	120	111	1
-16800	-7856	14092	-20931	-31148	-29468	-9052	8056	-12404	-11242	-32768	-14885	-4988	5672	-9764	10617	-2876	5177	-10072	1684	14036	-1581	4893	-4247	-17048	-80	-4044	3171	6586	4313	-16780	-584	-1668	2983	12117	537	124	113	1
-22916	-11696	17092	-22331	-29715	-31624	-14056	7384	-14140	-13333	-32768	-17553	-5100	8000	-9884	8761	1256	6100	-10344	1200	14052	-2187	6717	-4144	-16936	12	-2728	3175	7010	4491	-17384	-964	-1204	2810	11731	204	120	112	1
-32768	-13028	18188	-19446	-27187	-32768	-18356	6872	-14068	-9195	-32768	-19333	-6968	6348	-7604	7042	2599	5588	-10368	1576	13660	-2565	8059	-4328	-16200	188	-1192	2920	8067	4648	-16764	2352	3212	263	9457	482	105	103	1
-32768	-1624	18604	-20003	-22324	-32768	-22228	3740	-16728	-8818	-32768	-16901	-4620	-1152	-1788	8817	739	1660	-10492	1220	13768	-3109	9442	-4607	-15884	-156	236	2387	9773	5071	-15980	4660	5572	4084	8039	-78	98	99	1
-32768	6424	10288	-20329	-20032	-32768	-22804	3860	-15044	-8982	-32768	-10418	-21224	-3384	12312	5544	-3931	-4116	-10588	1460	13832	-4056	11164	-4921	-16112	-68	1660	1233	12365	5720	-15688	2816	6988	4928	6757	438	120	110	1
-32768	19544	-5080	-12941	-12996	-32768	-16180	976	-12168	3352	-24340	-7665	-24240	-6324	32767	-757	1630	-4846	-10840	768	13804	-4858	14025	-5584	-16864	-848	92	2073	15181	6885	-16128	-668	6564	6739	5771	308	135	120	1
-32768	32767	-10200	-14888	-442	-17651	-5544	3824	-9856	-9688	-3351	-4087	-23784	-556	30992	-8160	3757	2773	-10468	-636	13900	-4547	18465	-4753	-16644	-2260	-1740	4949	18526	7035	-15688	1808	3028	11131	4909	-1291	134	116	1
-32768	32767	-18524	7585	9907	14121	-7892	-3776	-4056	-6184	17559	2113	-16984	-4216	14556	-11417	3907	1140	-10476	-496	13940	-4479	19538	-4440	-19164	-9304	-2116	12898	22238	7802	-19420	2300	3984	17046	5526	-3247	118	111	1
-5764	-32768	32767	14087	4485	25016	-27904	-5808	30160	-16492	19960	-38	-17740	-5284	984	-8386	11850	-3111	-13580	5624	16400	-3179	32767	-3607	-22168	-9544	3520	20882	25766	8766	-23284	-4164	10284	18578	2447	-4831	127	115	1
-9224	-3852	11152	13319	25685	26585	-29536	8064	-208	13983	11757	-1705	-26064	2004	21928	-1584	-2810	-2015	-17836	8864	16000	-10595	32767	-15280	-28776	1544	6676	14082	27299	10546	-26748	-3796	20976	12185	-18008	-6659	147	125	1
-19968	4820	22600	1151	18429	17074	-10952	9996	-9616	17349	16801	8126	-15948	-10932	-9412	27208	4046	2811	-19560	5556	15928	-11993	32767	-23771	-29012	1936	2880	6748	28711	9685	-22488	7024	10772	23219	-11902	-6494	118	108	1
-32768	-30520	-6380	-754	10225	10284	-16464	-212	-16836	-3948	23902	4069	-15152	17108	-10660	9639	3656	-1030	-22708	7236	20160	-11486	32767	-29499	-29012	704	1544	6369	28864	7931	-23112	20032	-3888	18257	-17934	-130	99	101	1
-17820	-616	14792	9376	4514	12383	-17244	-12976	-16936	7616	16277	-1946	-8308	404	-15580	-10797	12939	-6035	-25540	3916	18244	-9137	32767	-30642	-31020	5828	-1548	8489	26766	6403	-26392	13912	-460	-7420	-24126	6127	112	108	1
-12704	-4356	12884	7335	1179	6642	-18092	4532	-11040	28440	7437	8439	-14260	-15544	-13104	-16126	15749	-2395	-4040	13448	19404	-13009	32767	-32768	-24056	1792	-4368	6203	16026	840	-30404	7100	-7524	-18114	-26739	7784	145	126	1
-10712	-7640	10524	3540	262	2696	-14620	14032	-6688	5057	7823	1481	-20720	-3388	-6624	9050	9310	-2993	-32768	8872	32767	1048	12781	-32768	-15464	14040	-23292	8471	597	2119	-30116	5340	-7984	-19283	-26802	7404	92	95	1
-10476	-7500	10628	3340	139	2682	-15532	8672	-5420	-14416	10814	-1376	-17324	6768	-1736	14591	8503	3178	-20220	11104	26564	15314	-24092	-22964	-16496	-1724	-10580	-1896	12473	-3042	-27780	-2288	-1188	-15756	-29530	1536	120	113	1
-10040	-7724	9956	43	1061	328	-17068	-3808	-3248	-11146	11511	-2466	-14896	7232	-356	-1390	9913	7039	-3520	12136	6884	22490	-23404	-12936	-9636	-3436	-9764	6827	-2783	-8533	-24952	2864	-3268	-4798	-25651	4489	135	119	1
-10116	-9152	8524	-118	873	403	-18684	-7080	-2740	10559	5557	2584	-15160	484	-1488	-12085	13717	5008	-8436	21776	3340	4965	-22696	-957	-6760	2228	-12368	6043	-8837	-6479	-22016	1404	-5080	-3624	-24540	5469	135	120	1
-9956	-8900	8600	1142	-477	899	-16400	4460	-2984	9329	4423	3336	-15320	-4124	-1732	-13003	14604	1509	-7064	14768	4592	-6046	-23499	16096	-6064	1040	-11512	4323	-19509	-6549	-17456	312	-5416	-1981	-22221	3940	127	116	1
-9976	-9052	8648	1167	-414	1152	-14932	5932	-4132	-9889	5784	769	-15196	-3652	-2036	-7138	14524	855	-3972	6612	6628	-1717	-20196	29613	-4212	6156	-11204	-4169	-19988	-10238	-14896	456	-5732	-70	-18493	4843	115	109	1
-10164	-8508	9088	910	-74	1373	-15144	1300	-3072	-16341	8810	-1085	-16388	196	-1796	-5472	15536	2647	-7460	4476	8192	3916	-17636	32767	-4692	3156	-10820	-13183	-24189	-11029	-12956	2600	-6588	-1829	-17871	6007	117	110	1
-10244	-8080	9476	307	325	1197	-18660	-4860	-2764	-4562	6973	-12	-16828	1380	-892	-9598	17674	4420	-11424	2312	10892	6053	-21237	32767	-4068	664	-9744	-13580	-31823	-11024	-10880	1080	-7800	-5515	-13665	4350	122	113	1
-9944	-8744	9060	28	523	1528	-17540	-1004	-2772	4647	3961	2453	-15764	-2828	1540	-11803	20216	5936	-12656	-1832	12264	11449	-26321	31085	-3952	-1416	-10284	-10345	-32768	-10587	-8440	-808	-8064	-10823	-10070	864	136	120	1
-10284	-8524	8976	242	236	2225	-15972	3340	-3176	1847	4215	2145	-15232	-4348	1836	-6632	19110	5914	-15028	-3932	13512	20560	-30208	26502	-4244	-1644	-10340	-4074	-32768	-11710	-6948	-2576	-8808	-13980	-8090	-2283	139	122	1
-10224	-8320	9300	-153	421	2378	-14904	4276	-2364	-4535	6670	397	-16828	-1960	-6124	3250	15355	5093	-16592	-2240	14088	25779	-32455	22870	-5604	-1316	-11556	4868	-32768	-12115	-6384	-3644	-9520	-14336	-5850	-4134	135	120	1
-10300	-8084	9564	-896	1013	2572	-17356	368	-864	-4093	7947	-329	-16920	-1340	-6472	3271	9513	5933	-19732	-1000	15784	27234	-32228	21929	-8892	636	-13424	10168	-32768	-10569	-5908	-2976	-10752	-8962	-1509	-5868	136	120	1
-10612	-8564	9252	-2202	1173	3192	-17664	-820	-1564	1143	7273	1370	-15748	-1004	-656	3618	8939	6223	-27252	332	18720	26767	-30187	25285	-14364	1820	-15752	11925	-32768	-9930	-7320	-2460	-9468	-2860	5124	-5740	127	115	1
-10584	-8424	9572	-1794	2063	3801	-16164	252	-1256	2784	8255	2459	-16136	652	3892	4911	10457	4252	-32768	-3164	21716	26561	-27802	32306	-19460	4636	-16632	12381	-32768	-10075	-7852	-2248	-8796	-2221	6130	-5397	120	111	1
-10724	-8092	9860	471	5070	4524	-16984	2324	-28	2564	10656	3001	-17764	2908	3700	3963	8434	2370	-32768	-14792	21620	27399	-27341	32767	-25284	10272	-15616	10175	-32768	-10574	-14976	9852	2988	1466	685	3921	119	111	1
-10760	-7160	10952	471	7223	4977	-17376	112	-288	2993	13086	3828	-18904	1596	2612	-761	5696	1633	-32768	-21420	9316	23962	-28117	32767	-26856	11044	-11128	-258	-32768	-12975	-21892	6488	23312	13620	-5571	10422	113	107	1
-11044	-8140	11120	-325	9732	5588	-18996	-228	-1040	2773	15146	5844	-17452	-268	3236	-6971	6593	1442	-32768	-32768	-22600	6907	-21747	22017	-13668	-2576	-8212	-5879	-21872	-9208	-22952	-2564	32767	3872	9031	15029	112	106	1
-11420	-8808	10348	-419	12747	7787	-18960	1256	-28	-925	17419	6982	-18656	-3440	2136	-11529	5619	2502	-32768	-32768	-32768	-448	2828	435	-6504	5400	-3936	513	2084	6281	-20312	3320	32767	203	7139	4506	119	111	1
-10700	-11276	11336	-428	14884	8430	-19152	-3972	1540	-3361	20790	8737	-18408	-4324	2100	-12075	5305	2656	-12276	6916	31048	-28723	14185	-18304	-13468	356	15020	-16331	22531	13743	-11072	-676	4236	-7513	10845	-3331	122	112	1
-11256	-14180	11128	753	19108	14321	-23740	-808	-148	-3004	23247	9432	-25424	-6596	4984	-14674	-3892	727	7664	-2720	624	-20363	22168	-19528	-32768	15520	-1120	-21384	1567	12063	-11984	-1672	1628	-5776	14101	-3405	117	111	1
-13432	-18288	11552	2556	23804	24631	-29164	4468	3632	-14588	25588	8674	-21064	-3284	9200	-9791	-7870	86	-24364	-16124	29732	-9145	22097	-11970	-13652	-14036	-4688	-14133	13890	3268	-32768	7752	25860	-10076	-15328	4106	121	112	1
-15368	-24492	13688	4338	26107	32767	-29976	-4760	5192	-17304	29299	8808	-24616	3024	17036	-11583	-11484	-2405	-32768	11388	8124	-7391	5886	-7376	-21620	11096	-3280	1882	20395	9279	-17892	3804	-4428	-12144	4759	580	116	109	1
-30308	-19788	18764	2775	29797	32767	-29884	-6084	-3260	-8510	29073	9534	-25128	-6636	-3268	-9671	-14724	-4466	-10904	-7440	15100	-11988	460	-9433	-14788	16664	-12796	-9005	18196	11306	-11304	-6188	-21304	-2997	16757	5414	114	107	1
-31500	-21492	20060	3018	23783	32767	-29864	3024	-5224	-3516	27192	10627	-23396	-3268	-4808	-6193	-22651	-11661	-11916	-2536	17396	-3564	-1043	-3300	-19268	-4944	-10452	-11841	13736	1623	-7864	8224	-16104	24695	11049	5355	112	107	1
-7700	-23540	19360	-1450	24315	32767	-26128	2728	656	-422	19211	9067	-27132	3364	-4340	8445	-26246	-12787	-10692	2632	13612	-1717	-758	-1807	-15076	380	-8612	-40	6679	3201	-16540	19156	-7408	6804	7675	4301	101	101	1
-32768	-19332	18316	2887	18520	32767	-17776	13168	-21776	8253	12675	9180	-27340	8860	-4452	8713	-26279	-12160	-10244	2212	13800	-561	-288	-968	-17308	608	-6160	1557	5445	6549	-26224	5436	-3392	-21208	13752	5795	104	102	1
-11172	-23924	17120	4044	-7501	3890	-15768	8464	-8620	-7042	10210	2954	-27420	8184	-1512	4093	-25332	-9948	-10032	3056	13316	262	530	-252	-18432	5576	-2848	-4795	6965	3630	-14668	-4648	300	-11385	18676	-2450	113	107	1
996	-12760	9048	2613	-8289	-1663	-13920	8360	-5576	-7848	2457	-756	-24724	1016	-4484	-3907	-21093	-10673	-9964	4076	13020	258	684	-576	-17316	-1412	412	-6084	7710	1302	-12596	-2860	1228	1251	15978	-4055	121	112	1
408	-8312	8004	3263	-5725	-4987	-9156	2996	-8772	-11287	-5620	-3063	-21496	828	-5796	-4591	-19505	-10059	-9776	4480	12252	-339	-169	-1588	-13836	-2224	1736	4192	3214	2651	-15644	4200	2336	5702	15965	411	142	123	1
-1712	-7764	8480	3283	-5814	-12095	-5412	1604	-9284	-168	-12125	-3445	-18240	-608	-6504	-1923	-18413	-11182	-10320	4148	12596	-1648	-1395	-3069	-17232	3580	-1232	7374	3847	3127	-16468	5028	1508	2823	21124	5510	117	110	1
-3272	-8084	8668	3981	-9210	-18913	-5612	2676	-9244	9103	-20485	-3549	-16196	444	-7172	976	-17252	-11419	-10384	2252	13564	-1775	-1403	-2907	-16496	3740	-2332	-1172	5246	2533	-14904	3256	4292	3614	23252	4107	130	120	1
-5788	-6944	8820	3912	-14632	-24238	-5060	4252	-10080	12283	-26443	-4343	-14388	1376	-7772	2765	-16254	-11556	-10324	2520	13360	-1069	-426	-1841	-16192	-2488	-44	-1833	4511	1519	-15236	2088	3668	7107	18147	-1694	140	122	1
-7472	-5500	9004	2027	-20274	-28343	-3896	5360	-9332	11856	-30649	-5090	-12324	1092	-7848	4456	-14102	-8664	-10112	3012	12952	-1447	-549	-2069	-15448	32	2448	741	5478	1028	-17768	2564	1624	4613	18498	949	119	111	1
-9384	-3956	8988	-2707	-25393	-30182	-4132	5908	-9180	10516	-32768	-6569	-11384	2496	-7924	8350	-12995	-4721	-10076	3320	13040	-1733	-961	-2464	-15312	-728	4076	1029	8267	4021	-18340	4864	4412	4093	10298	2514	123	113	1
-11692	-3836	9620	-9475	-29634	-30040	-4976	7556	-9700	7878	-32768	-8119	-9364	4232	-7816	12668	-11605	303	-9836	3536	13324	-1714	-1264	-3081	-15092	-312	3504	227	9755	4743	-17388	7228	4864	564	5916	-176	119	111	1
-14456	-5132	10876	-15745	-32739	-29251	-6424	10448	-10844	-493	-32768	-9766	-7880	5968	-8288	15522	-10669	4028	-9812	4584	13336	-2571	-1065	-3369	-16900	2484	1140	-1285	11270	4352	-15416	5552	2956	2509	7890	659	127	115	1
-17380	-7200	12668	-20115	-32768	-29119	-7784	10404	-11828	-11964	-32768	-12062	-6984	6492	-9788	16925	-6566	6292	-10164	3996	13276	-2504	-1175	-5221	-17132	908	-2144	-591	10878	4801	-15268	252	-216	6781	8280	2216	115	109	1
-21476	-10796	15236	-22622	-32768	-30500	-11276	7812	-13756	-16055	-32768	-16513	-4880	9724	-9852	13769	-1090	6932	-10252	2784	13996	-1001	-365	-6920	-18828	2612	-6100	1467	10533	7341	-15972	-2156	-3696	6443	8394	1291	120	111	1
-30968	-12852	17036	-19537	-30877	-32768	-16848	7520	-13524	-14101	-32768	-19462	-5604	9004	-7900	9496	843	7343	-9040	540	16840	-1610	3634	-6929	-17984	-1068	-7288	2662	9826	5699	-17572	936	-4864	4369	8375	140	127	115	1
-32768	-5520	17856	-17523	-25289	-32768	-21444	5112	-18028	-10674	-32768	-18323	-8852	-124	-3764	9345	2561	2624	-9168	-56	16020	-2133	7411	-5351	-17356	-2644	-4524	2628	10289	4233	-18020	4528	-628	3855	8667	-170	118	111	1
-32768	2432	12124	-18008	-20606	-32768	-24060	3940	-17448	-8157	-32768	-12014	-17640	-1616	7332	6689	1650	-2430	-9940	920	14704	-3867	10918	-3410	-17968	-1016	-1332	-121	12587	4287	-16256	3100	5488	2893	7517	-1147	113	106	1
-32768	14980	-2500	-15691	-16229	-32768	-21408	2452	-13368	-4743	-28781	-8882	-27128	-3480	29916	4812	1426	-4864	-10744	1436	14328	-3853	15201	-3474	-17976	-220	1012	463	14699	5333	-16324	2928	6116	2991	7320	-1281	136	112	1
-32768	32767	-9416	-15061	-4768	-22325	-10172	5048	-15700	1491	-11243	-6884	-24316	5160	32767	-10591	7134	262	-11560	1796	14176	-4687	19191	-4653	-17500	2080	1664	2699	17798	5396	-15112	4848	4488	6704	7323	-1318	116	111	1
-32768	32767	-11948	-11017	2494	-5837	-2136	-1048	-10472	-6084	13518	1738	-17540	-2108	21432	-17942	8247	269	-11768	3076	14432	-5885	23052	-6912	-19304	-1944	1812	5015	20442	6122	-19236	5116	5672	11093	5690	-1458	165	139	1
14764	-32768	17792	32767	-395	14559	-10512	-5496	-9484	-14427	31056	3568	-11456	-6160	844	-12926	16263	-5742	-11888	4256	14876	-7704	27693	-10911	-19776	-3608	2036	5744	20805	6390	-20460	84	9760	12893	3461	-3172	106	106	1
19960	-26476	-4052	10124	11319	30847	-32768	-5044	15952	816	7718	-6561	-6748	1768	-6408	-25442	26041	-3489	-15112	7740	14844	-11665	32767	-18028	-24360	-6932	6504	12586	26667	9450	-22116	-1504	18876	17923	-7283	-3802	114	107	1
-32768	-4664	17272	10740	28409	23556	-16132	9396	44	27198	1029	3827	-30756	-4768	-2408	12105	-1523	6728	-23284	5816	18668	-13311	32767	-26821	-23920	624	4592	12063	29106	10368	-14484	-8432	11732	9407	-11320	-5730	182	147	1
-25416	3388	23980	-3733	16717	17780	-22044	10996	-9884	12980	18380	6375	-28228	-8228	9224	32767	-7409	-979	-26340	-2636	21904	-11291	32767	-31401	-24668	2960	5112	11109	29716	10623	-27488	15524	2672	28439	-15098	-4530	135	118	1
-15916	-27120	-5552	3876	11558	6002	-25880	-5040	-14764	-10132	22904	-183	-12892	10920	-12820	3540	19795	1976	-32768	2656	32767	-13939	32439	-32768	-32768	6396	-3196	4468	30011	8395	-25112	18848	-2572	9534	-21641	2916	95	98	1
-15156	-13676	4268	7739	3526	7522	-12904	-11380	-9832	19705	13592	759	-7676	4764	-16568	-13408	21232	1739	-7992	28764	21120	-17051	32767	-32768	-27608	572	-5576	635	21682	3693	-31152	8336	-7412	-12345	-26270	8824	104	104	1
-12700	-6752	10444	5468	1683	4830	-17544	9064	-9764	23868	5719	7247	-11188	-10548	-8388	-2545	11357	-5742	-32768	11816	32767	-17466	19827	-32768	-16904	5888	-17984	5800	-12601	7858	-29292	-3280	-6632	-23052	-29194	4948	163	135	1
-10660	-7928	10316	4180	679	3360	-14828	9428	-6288	-4335	7443	-1796	-22612	-2660	-6772	6484	10260	-5374	-18868	12908	29852	8226	-16091	-13304	-15716	-188	-12520	69	15847	-4032	-31104	-5672	-2356	-16129	-29283	2268	135	118	1
-10200	-7624	10704	1407	902	1509	-16776	3740	-4416	-17121	13098	-2986	-17256	7796	-1656	-325	12573	3296	-3524	14924	10136	11131	-16452	-1824	-11064	-1880	-11852	5511	883	-4762	-25696	-1080	-2808	-1192	-28188	3714	100	101	1
-9628	-9228	8796	-130	1594	624	-19988	-8108	-2892	-1604	8581	952	-14748	2076	-2416	-9753	15837	6711	-4116	15172	7696	707	-16159	9929	-7904	632	-12288	5953	-8307	-5818	-23148	1224	-4412	959	-27559	3348	135	120	1
-9636	-10020	7888	844	715	1259	-15816	-1672	-4016	8685	3695	2200	-12584	-5148	-3460	-11470	17219	3022	-2548	8112	8376	-2564	-16050	22146	-5844	3496	-11516	1774	-14640	-6069	-17388	3152	-4916	1610	-23939	6582	146	126	1
-9620	-10424	7560	1910	-232	1794	-16432	3360	-2684	-3795	3827	1954	-15352	-6056	-2236	-7057	17368	1565	-3564	3892	9672	1433	-14814	28774	-5636	4396	-11508	613	-15157	-6261	-15856	2760	-5088	725	-20154	6061	132	118	1
-9892	-8448	9368	1781	-360	2110	-15124	1244	-2456	-9210	6108	-644	-16708	-1160	-2268	-2281	17044	2993	-7072	576	11324	7277	-16186	30390	-5612	3012	-10852	-13099	-26084	-11607	-14972	2940	-6640	-4270	-19003	7533	123	113	1
-10332	-8344	9288	343	398	1462	-17584	800	-1804	-6722	6218	-548	-16640	2064	-2268	-4868	13627	5250	-10524	280	12964	12224	-21055	28727	-4540	1300	-10724	-10949	-30996	-11209	-12888	2108	-8176	-8343	-15744	6939	120	112	1
-10296	-8640	8828	-403	764	958	-17792	-1384	-72	-3966	4450	1432	-16692	-152	-1976	-2024	12308	2850	-13480	164	13276	15638	-28335	25425	-4076	1620	-10484	-6898	-32768	-11865	-10344	1940	-8860	-11935	-12544	3628	126	115	1
-9996	-9192	8428	-333	851	874	-15728	-1180	664	-1904	6093	2632	-16228	-1700	-692	2096	11661	1967	-13660	856	12124	17764	-32768	22035	-4444	2348	-11420	-2977	-32768	-13935	-8988	856	-9952	-14141	-10164	1047	133	119	1
-8992	-11272	9456	-840	781	2614	-15756	-860	256	-2298	6609	2423	-17416	-4304	136	1783	8968	2460	-15852	-5188	12560	17260	-32768	19755	-5724	3100	-11756	-39	-32768	-16153	-8220	588	-10520	-13942	-7424	-574	122	113	1
-10472	-6316	10224	-89	2138	2295	-15452	-4576	-728	1620	10759	2505	-16444	-4188	-1292	-1111	8588	2744	-19764	2164	13492	24281	-32768	22276	-7364	4988	-13732	3186	-32768	-16286	-6636	-20	-12132	-13292	-2470	-807	129	116	1
-9932	-9840	8788	-1104	436	2038	-17704	340	-1016	-1563	8970	3590	-15684	468	-2504	-1565	7984	2053	-29376	6336	15236	23501	-32493	25279	-12204	5564	-15476	6661	-32768	-14729	-6504	-2628	-13688	-11600	4392	-1122	129	117	1
-9612	-9524	9136	-1732	447	3974	-16228	-800	-1160	1408	10168	2958	-15428	3788	-772	-1589	7624	2008	-32768	4588	18356	23512	-32183	30746	-17892	5940	-17072	4153	-32768	-12968	-7296	-1820	-10408	-9524	9098	-978	130	117	1
-10380	-8228	9824	392	3379	5299	-17036	3160	-1036	997	11186	3143	-16972	3428	1060	-2299	6631	770	-32768	4312	18400	23817	-32149	31781	-24744	4720	-13984	11783	-32768	-10567	-11060	3192	-1288	-7651	6509	1081	125	114	1
-10420	-7628	10252	-208	4918	5157	-16740	980	-180	2660	12301	3873	-16932	1276	1880	-4759	6363	1182	-32768	-21700	16692	32767	-21723	32767	-26064	8900	-10616	8291	-32768	-12563	-19208	6220	19880	4032	-3620	3680	128	116	1
-10724	-8672	9892	-49	6805	5862	-17428	-1276	-1424	4152	14563	5394	-16028	-2916	1468	-6585	5882	1557	-32768	-32768	-8	20834	-18510	32767	-20000	16588	-5484	-872	-28084	-9756	-26456	1944	32767	4986	-2730	13314	128	115	1
-10616	-10656	9664	495	8637	7408	-18148	-2372	-768	2064	16129	6587	-17116	-6880	544	-7159	6228	1823	-32768	-32768	-32768	6997	-13846	4808	-496	-568	1700	7517	-5639	3106	-24780	-288	32767	-4194	9437	17649	115	108	1
-11236	-10548	9560	391	11004	9021	-18312	-808	272	664	18159	7989	-19072	-5544	636	-10358	4549	1575	-32768	-32768	-23272	3647	10118	-12108	-6120	16884	-12552	-7872	18565	13987	-15872	-5084	24304	7018	3028	-5294	95	98	1
-11580	-11440	10860	-38	13833	11595	-19160	1668	992	-2005	21406	9090	-20264	900	4448	-11336	-603	1114	-10324	32767	32767	-32768	-393	-9965	-17756	-7400	10284	-19578	24215	15588	-1736	-656	-7972	4220	12710	-6316	104	103	1
-11272	-11204	12456	-519	18216	17031	-22608	5784	832	-8472	24304	7900	-20756	3728	11984	-9670	-8631	1273	24668	12164	-17860	-28828	14112	-20139	-32768	24396	-2768	-15398	839	8869	-6348	-328	-13840	11979	18702	-386	134	118	1
-13260	-18756	11796	302	24534	22888	-22560	5432	1204	-10047	25044	8037	-18960	7084	14176	-16764	-9184	132	-28520	-18876	28732	-16562	18634	-10449	-11072	-25764	1436	-18958	-6416	4081	-32768	24860	12084	-18057	-20421	15248	111	106	1
-14416	-17444	15200	688	30887	32767	-27464	-8	2272	-14602	30651	8305	-20140	6456	7412	-18032	-5298	492	-16928	-16864	28336	-4709	17367	-8528	-24896	-9800	-6504	-9566	13926	3569	-32768	-14372	23072	-23349	-5109	9125	103	102	1
-28308	-26680	19520	-1302	32767	32767	-31228	-5100	-4876	-10815	30473	10938	-21060	4096	5844	-18194	-5459	278	-15720	8408	12344	-1119	14734	-10596	-12968	2336	-5020	1470	14400	8803	-3244	-25908	-8896	-18265	23888	-1490	131	116	1
-31828	-24872	18060	-593	31298	32767	-28896	416	-6948	-2340	28180	12164	-23928	-12080	-4336	185	-23773	-11661	-11344	2500	13512	-13003	5539	-7271	-21720	16544	-4588	-3157	14129	11964	-9508	10864	-14036	32767	8635	-8465	142	124	1
-10692	-26152	21480	-1719	26431	32767	-28260	-2716	-4944	-381	20440	14373	-28424	-4608	-8420	14423	-27179	-14291	-15412	4544	13196	-7818	543	-5523	-16668	9404	-5952	-7647	10616	2230	-15136	32767	-7180	20426	-362	2237	115	109	1
-32768	-29216	24140	6516	15479	32767	-16776	4724	-26168	16901	11534	14948	-31232	3528	-6436	18546	-26779	-11667	-11892	5624	12136	-2990	-1257	-2902	-16052	-3036	-6728	-2199	6790	5168	-20032	10672	-4656	-23164	14739	18141	98	99	1
-8120	-21684	17128	10597	-14800	7350	-16972	7060	-9112	5079	3813	9883	-30916	5428	-3724	13614	-25941	-6630	-10712	1580	14280	-1396	-564	-1757	-17532	-312	-4812	1750	7988	3985	-20888	-14020	-732	-10155	12714	1311	96	98	1
516	-12768	8124	8207	-16165	3586	-12092	7420	-7900	3158	-3297	6387	-24816	2276	-4784	6071	-22351	-8255	-10092	2624	13568	-262	388	-1006	-16332	1112	-2864	771	8502	5474	-13252	-6824	3764	8650	10480	-3927	112	106	1
-948	-10880	5528	8687	-15994	122	-7112	4824	-11012	-8192	-10719	1834	-21720	1844	-5904	3555	-20007	-8765	-10156	3672	12820	-66	553	-1022	-17048	2348	-440	245	7023	4133	-14504	7016	2240	16327	13757	-1430	111	107	1
-1948	-9864	4904	8293	-17029	-7403	-5324	2064	-10656	-5242	-16158	254	-17796	80	-6704	3678	-17133	-9296	-10124	4220	12556	-563	122	-1649	-15448	2260	608	2016	5479	2724	-15044	13040	36	8631	14568	2007	98	99	1
-3316	-9580	4700	6490	-18083	-14953	-5436	188	-10784	-552	-23169	-259	-15428	288	-6912	3372	-15177	-10162	-10116	4120	12412	-1357	-753	-2797	-15416	1392	-540	4931	8077	3136	-15420	9408	-484	-123	12597	1671	117	110	1
-3808	-9552	4776	6033	-18353	-16206	-4520	1552	-10244	4958	-28734	-1156	-13124	1156	-6972	3751	-14575	-10364	-10364	2836	13032	-2009	-1720	-2812	-16580	2668	-3132	2985	6207	2579	-16944	2692	-256	-6518	13001	2857	127	115	1
-8620	-8972	4828	613	-22865	-26777	-4344	2416	-9652	6710	-32768	-2674	-11668	1492	-6672	6231	-11039	-7192	-10000	2764	13256	-1379	-1571	-2200	-17064	1340	-3680	-2665	4962	1876	-15616	-4436	1480	3355	16801	1063	119	111	1
-10500	-7836	5084	-3077	-26105	-28659	-4600	2652	-9584	7019	-32768	-5398	-10328	1848	-7268	10771	-9241	-3358	-10188	2636	13308	-1033	-522	-1568	-16296	276	-2716	-2291	4441	1803	-13392	-1236	2132	14057	20875	504	117	110	1
-12456	-7460	5988	-8625	-29054	-29063	-5316	4456	-9488	5522	-32768	-7523	-8364	3308	-8212	14771	-8530	-43	-10060	3180	13024	-737	-612	-1714	-15236	-572	-1116	1604	4939	2594	-15752	4128	1296	11775	21169	-89	124	113	1
-15204	-9084	7296	-13987	-30723	-29220	-6564	6360	-10276	955	-32768	-9507	-7152	5372	-8768	16986	-7588	2762	-9956	2776	13276	-518	-645	-2164	-16708	120	-184	2819	5640	3694	-18148	9024	-180	6315	15397	-883	116	109	1
-17624	-10568	9468	-17769	-31148	-30623	-8108	7804	-12248	-4457	-32768	-12227	-5432	6976	-9488	16178	-4604	5832	-10068	2888	13632	-96	-788	-2632	-17268	1760	92	238	5639	5099	-16752	5416	880	1951	9206	729	119	111	1
-22136	-12216	12400	-22111	-30210	-32768	-11628	7992	-13824	-11640	-32768	-15678	-4804	10036	-10144	11155	-3145	7499	-9684	3620	13076	-536	742	-3082	-14760	-360	-524	956	7684	4065	-16536	2252	3456	1695	9163	2204	122	112	1
-32768	-16448	13928	-22557	-28551	-32768	-16688	6584	-15428	-14262	-32768	-20040	-5568	9628	-7300	6497	825	7769	-10568	2912	13584	-29	1353	-4170	-17500	796	-1776	3837	8154	5149	-17052	3664	1264	1255	7924	342	123	114	1
-32768	-9004	14964	-19865	-22851	-32768	-21704	4328	-18384	-11287	-32768	-21270	-12964	1428	-4844	7009	1911	3545	-8608	1128	15560	-783	3261	-4338	-16860	-24	-2048	2827	9169	5263	-17656	3872	1816	571	7077	426	111	109	1
-32768	1832	12924	-21755	-16031	-32768	-24852	3832	-18232	-10853	-32768	-14925	-21392	-2804	6736	7576	-928	-2027	-9864	1676	14780	-1541	6617	-3541	-18620	-856	-984	1154	10991	5139	-17244	-52	5136	2890	6675	1726	111	105	1
-32768	10636	1580	-18977	-12006	-32768	-22104	196	-15220	-10153	-28371	-11368	-26716	-3328	24964	-3695	-1524	-8228	-10384	2676	14720	-2658	10981	-4016	-19632	-836	432	1873	14190	5971	-17600	-1280	6960	6865	5748	137	126	117	1
-32768	12600	-1212	-17206	-11376	-32768	-11100	1204	-15416	275	-12419	-9218	-21796	-5044	32767	-3782	8835	-2878	-10632	2364	14460	-3890	14723	-5384	-17388	776	788	3953	16369	6298	-16672	7160	3164	13037	5997	-1699	110	105	1
-32768	32767	-10880	-7736	-168	-2484	-5144	-1308	-7292	467	9871	-1336	-17228	-5400	21896	-10199	8365	-1916	-11832	1720	14864	-4153	20388	-5810	-18516	-1152	-472	6411	19060	7103	-18496	8464	3152	13712	5986	-2160	140	124	1
-15512	-2176	21232	25581	4340	27571	-16788	1124	4556	-7093	22919	2474	-15752	-6060	3692	-3859	9702	-5085	-10924	2536	14896	-3247	27879	-6038	-20660	-5648	-420	13161	22250	8013	-19436	864	7144	13876	4591	-3101	108	106	1
3188	-2440	4780	11123	17087	27146	-32768	6212	4032	18191	9677	-2745	-20720	6312	1292	-12744	14320	-1690	-12168	6888	15900	-4155	32767	-8870	-23908	-11312	2832	20596	25470	9470	-23768	-3880	12936	17192	1396	-3816	148	127	1
-24984	-3276	20388	2018	23121	14531	-16484	16084	-700	20416	9965	7642	-23672	684	16084	16411	-6083	2837	-14228	7448	16408	-8845	32767	-17052	-25384	-5228	5132	19428	27960	10657	-21240	-10544	18780	8993	-17180	-5784	139	121	1
-18088	-2600	17904	-4621	15029	15805	-16108	10328	-8368	1700	19022	4443	-15312	-4980	-5080	24249	2903	-44	-17176	916	17000	-10271	32767	-23162	-28460	852	3624	13849	30593	10404	-25164	5764	11324	24839	-14165	-7548	101	101	1
-9104	-14944	4432	5326	8930	7815	-24864	-12012	-13420	-14549	22856	-876	-9248	3308	-12248	-5019	10708	-4766	-23676	2092	23556	-7841	32767	-28701	-32768	3020	-2340	7027	32095	8809	-22608	20264	-952	18035	-20153	262	88	95	1
-15168	-13496	4232	9175	2590	7110	-16980	-12384	-11352	21883	12428	2068	-12756	-420	-15972	-14136	17426	-4978	-25304	13968	23908	-4149	32767	-32768	-30624	5296	-3760	7732	28282	3730	-28940	12120	-3164	-7597	-27098	5278	127	117	1
-11868	-7760	9836	6681	546	4739	-14296	11516	-9124	27432	4455	7342	-14228	-13784	-9760	-2659	11200	-3720	9248	11720	11004	-11959	32767	-32768	-24788	1064	-4264	29	16256	233	-30864	3912	-6552	-19865	-28004	5630	158	133	1
-10492	-6388	11200	4112	-198	2753	-15964	12348	-6228	-3505	7341	-626	-19696	688	-2608	10679	10128	-431	-32768	6804	32767	-2954	32767	-32768	-12464	7792	-23756	5110	-14028	3026	-25588	-2000	-5468	-18463	-27485	3532	111	107	1
-10376	-7220	10880	3762	-272	2461	-15528	6504	-4252	-18513	12810	-3262	-16236	8752	-668	7925	9315	6133	-30508	19300	30556	6297	-16606	-2958	-12324	2508	-17368	-121	25142	-3795	-25496	-5236	-1448	-11653	-28564	2428	115	110	1
-9652	-8628	9576	61	558	-138	-18116	-6720	-3828	-7569	8903	-607	-14076	4808	-1048	-1520	12140	6846	-6644	12564	12576	4019	-30633	5128	-9444	-3952	-8792	8060	1674	-9485	-24772	2120	-2728	-705	-25586	3634	140	122	1
-9452	-9496	8856	-8	459	-114	-18236	-6760	-2944	15365	3623	4019	-14844	364	-412	-10697	15258	2468	-1468	8444	6748	996	-32640	6410	-7832	5944	-11668	4230	-7392	-8901	-23644	5360	-3824	504	-25924	2728	144	125	1
-9416	-9636	8592	497	-7	357	-16724	5284	-1920	11731	2750	2369	-15888	-3604	-592	-10922	16197	-55	-1356	5944	4812	722	-30892	10442	-5360	5832	-10832	-5132	-17207	-7202	-18464	3760	-5900	-2368	-23647	5557	133	119	1
-9304	-9764	8492	804	-74	862	-13852	5840	-1208	-13406	7427	247	-16352	-4464	-1232	-7294	16528	53	-232	6220	5532	1086	-28442	13463	-3512	2316	-10068	-11435	-23140	-10685	-14772	536	-6068	-2567	-17310	6154	114	108	1
-9300	-9016	9196	722	-47	1123	-15972	296	-2436	-21913	10148	-2302	-17228	-1140	-996	-10533	16169	2026	-3616	4612	7932	5551	-25002	18250	-3404	-52	-10480	-9913	-29202	-12512	-12980	2700	-6284	-3737	-16494	5864	110	106	1
-9696	-8748	9312	362	357	976	-18696	-5132	-2268	-7524	7246	282	-16188	-1332	16	-13187	14316	4482	-8560	4004	10008	10638	-25051	22974	-2840	-700	-10616	-5000	-30844	-12853	-12032	3224	-8168	-7337	-12910	5054	121	113	1
-9640	-9056	8812	295	532	1002	-16952	-1936	-1688	5627	3753	3710	-14044	-2756	-1156	-10505	13390	5417	-12320	2568	12216	14363	-27890	25622	-3616	-528	-11200	960	-32768	-13314	-9916	1820	-8488	-13577	-9021	1501	132	118	1
-9660	-9072	8824	619	302	1267	-14768	3848	-1548	1403	4636	3048	-15840	-2312	-5852	2745	11202	4861	-15656	-508	13856	19600	-30906	25616	-5248	584	-10992	5637	-32768	-13463	-8264	-888	-9552	-17864	-7099	-1927	138	122	1
-9376	-9156	9072	742	160	1596	-15392	2188	84	-5445	7411	1179	-16916	-2576	-4420	3744	8185	4160	-19632	-328	13860	24098	-32768	24001	-6264	980	-11504	7287	-32768	-13276	-7852	-1612	-9444	-18085	-6537	-2256	139	122	1
-9304	-9432	8688	945	162	2270	-17628	-2800	-724	-3146	8009	855	-15720	-1616	-264	1514	7999	3531	-21888	1088	14184	23095	-32768	22409	-10520	2816	-13764	8976	-32768	-12577	-6724	-2764	-9812	-15472	-1261	-3997	135	120	1
-9372	-9544	8788	977	405	2948	-16744	-1868	-840	3413	7103	2884	-16024	640	2216	1924	8684	3283	-29276	1616	16020	20802	-32219	23708	-14332	4588	-14660	3979	-32768	-11497	-6872	-3032	-9720	-13893	-288	-4083	123	113	1
-9788	-8964	9112	540	588	3701	-16428	664	-308	5088	8028	3446	-16604	1888	1212	2773	8016	2540	-32768	2300	16372	17927	-29704	29342	-19012	5800	-15880	-3745	-32768	-11881	-10480	-2052	-3764	-8184	4085	-1858	118	110	1
-10024	-9456	9692	-140	854	4780	-16704	1728	-2140	2882	10685	2722	-17304	1000	-92	187	7273	1936	-32768	-4840	13776	14988	-26851	32767	-21460	4892	-15516	-7558	-32768	-12707	-14212	5088	3300	-10652	23	3338	109	105	1
-10068	-8752	10652	-1589	1105	6088	-17312	212	-1832	-356	12359	2789	-18920	-824	-2752	-3963	2835	533	-32768	-15636	9100	12461	-20858	32767	-21028	3956	-12988	-6943	-32768	-14718	-15984	4180	13204	-2882	2233	5366	111	106	1
-9268	-7864	12292	1300	5130	6381	-18092	520	-284	713	13552	5043	-17404	-2460	412	-5252	6043	1032	-32768	-20204	-8456	3398	-15112	32767	-21640	4168	-10932	-6957	-26456	-9536	-22824	-3744	28180	-2550	8121	8340	104	103	1
-10096	-9044	11856	724	7869	7491	-18548	268	-1004	2950	15009	6436	-18392	-1304	56	-8807	4948	2309	-32768	-32768	-24372	4322	-5069	10867	-11136	2856	-2172	3258	-8766	-2407	-26788	-1960	32767	-7165	5109	11156	130	117	1
-10292	-8448	11972	1606	10621	9054	-17760	368	-2256	2035	16792	7728	-17032	-2884	1128	-8386	3287	3233	-32768	-32768	-27976	-8498	10026	-15226	-8580	13208	-8124	-217	8027	14426	-18780	-8516	31636	7821	3245	-723	125	114	1
-11480	-10524	11116	1007	13460	10236	-19960	232	-3300	-1413	18537	9354	-19456	-3896	-888	-10661	2490	2254	-11064	20692	32767	-4875	6712	-15701	-28004	-30472	13388	-14945	9491	10027	-15492	-2996	5656	8172	7933	800	118	111	1
-11400	-12672	12460	1467	16986	14245	-25436	856	-1168	-5147	19172	8277	-25416	-3236	3564	-8326	-2094	1287	-14612	14528	8596	-5301	19713	-13662	-19980	-2792	2188	-17913	7898	7016	-23624	-5704	23720	21901	-7755	4411	117	110	1
-10820	-16252	12860	3096	21342	23068	-26676	3672	4452	-11493	21274	8504	-21740	-3128	7804	-5000	-6587	1049	-15060	-5672	18792	-2718	15485	-9193	-14564	368	-6196	-5205	13313	12067	-15196	7904	-2476	3978	7666	1573	110	106	1
-11964	-18576	11496	2964	24954	31451	-26172	284	2840	-10649	24467	8934	-22816	2868	15180	-11688	-12107	-699	-14328	5572	13988	943	13944	-8981	-17184	3548	-6268	-3330	18961	8354	-17632	3168	-15816	-707	10056	3502	115	109	1
-19548	-16376	15148	1678	29122	32767	-24708	-912	-1864	-7156	25836	8583	-23196	5360	4320	-4966	-12779	308	-13428	14360	2232	-9405	3350	-6398	-21400	16928	-6628	-4425	10969	11883	-10688	308	-3056	4339	614	6386	109	105	1
-27996	-26720	14248	2469	26523	32767	-25968	1368	-6100	-7683	26628	8502	-19292	-5864	-1820	-12414	-17108	-6331	-14120	4480	12904	-7080	-80	-5208	-16920	4072	-6764	-10830	8512	5120	-15952	19104	-9144	22897	12319	706	117	110	1
-17308	-22192	15264	1148	23749	32767	-25592	1124	-3428	-4675	21290	7116	-24708	-3168	-5072	-2625	-20980	-11436	-11344	2484	14204	-5631	-412	-4256	-16200	-1180	-4928	-4671	4238	3489	-18740	12304	-3136	-12181	13071	6586	129	116	1
11104	-24244	14252	7542	26093	32767	-21908	3364	-6176	3594	13257	10148	-25520	2392	-6064	7738	-22414	-11572	-10044	1352	14644	-4195	-109	-2923	-16280	632	-4628	-3817	4162	4945	-17660	-912	872	-19310	13861	5734	107	104	1
-22256	-27948	25432	10558	2595	15836	-14448	7292	-21868	3119	10324	9455	-23812	4072	-3364	9763	-21678	-10944	-9632	2012	14488	-1858	598	-1339	-17372	-2360	-1536	-3589	5927	4838	-15092	-9884	3540	-7030	12781	-2287	108	105	1
-2104	-16136	13472	4568	-7819	-2304	-17572	7388	-3676	2303	4321	1986	-26164	-884	-3604	7187	-21897	-10511	-10056	3936	12932	-1223	1173	-1064	-15696	-644	996	886	5115	4489	-14388	504	3912	4809	12070	-958	139	121	1
500	-12232	8764	4016	-6800	-5868	-12096	3160	-6808	-2792	-5458	2986	-22444	-648	-4884	3668	-18790	-10924	-9780	4716	12404	-1639	777	-1708	-15460	1260	1904	5044	4646	4102	-15424	6212	2724	8438	13142	5103	125	113	1
-1644	-9968	8452	4881	-6365	-10570	-8596	2492	-8444	365	-11428	130	-19040	-376	-5444	2440	-17501	-9054	-10084	3740	12880	-1952	-67	-2476	-16072	1356	680	6328	5532	5027	-14928	5560	3152	8522	13059	4086	107	104	1
-4404	-9640	9020	5796	-9370	-16785	-7320	1836	-9480	7535	-17436	-717	-16940	16	-6332	2490	-17139	-9441	-10576	2736	13736	-1836	-177	-2306	-16840	1740	-788	1733	6454	4172	-14920	4416	3452	6593	14025	1255	120	109	1
-6356	-8404	9224	5373	-15089	-22058	-6932	3368	-10576	9561	-24084	-1096	-14120	212	-5984	5195	-15056	-8502	-10084	3012	13416	-991	666	-1419	-16280	-1580	-392	-434	5845	3517	-14956	4184	3636	6078	14449	601	107	105	1
-7864	-6328	8628	1897	-20502	-25883	-6516	4508	-9160	8645	-28358	-1733	-18640	14268	-19812	-2202	-28264	-16375	-10468	3536	12892	-326	851	-1051	-15640	756	-368	2393	5957	3930	-15372	3044	5072	4121	19551	1836	121	111	1
-9076	-6208	7712	-1938	-24649	-27802	-6260	4500	-8976	6754	-32436	-3408	-13280	1176	-6664	10194	-11994	-5136	-10320	3716	12792	-131	671	-1317	-16264	2140	-568	1939	7054	4160	-14724	5792	1144	3918	16385	1084	105	103	1
-10416	-7532	7544	-3841	-27170	-27925	-6420	4808	-8792	6266	-32768	-5237	-10012	3356	-7296	13410	-10221	-3273	-10200	3396	13028	-181	514	-1586	-16632	1176	-1220	580	8701	4272	-16156	7648	-3092	1637	12823	-75	102	102	1
-13384	-7836	8084	-6658	-28431	-27734	-7344	6464	-9628	3670	-32768	-6904	-8124	5688	-7444	15034	-8658	265	-10312	3308	13116	138	940	-1399	-17124	404	-2740	-127	6415	3831	-16396	6352	-2908	-1693	10442	-139	105	103	1
-16336	-8740	9436	-11435	-29331	-29044	-8468	7948	-10552	-1712	-32768	-8457	-6616	7404	-6996	15652	-5281	2798	-10416	3136	12992	446	1381	-1201	-16232	-396	-3220	1513	6398	4324	-16284	964	-432	-162	11798	1474	116	110	1
-19404	-10020	11100	-16812	-29418	-30553	-10648	8240	-11632	-7286	-32768	-11423	-6256	8536	-7300	12286	-2773	5283	-10244	3156	13176	584	2062	-1137	-16252	-404	-1640	3472	6788	4947	-15328	-3396	856	3299	11019	1008	142	122	1
-24776	-12944	13764	-21039	-28518	-32205	-14708	7796	-13128	-12607	-32768	-16403	-6604	10184	-6104	8767	-1793	6060	-10220	3704	13324	884	2868	-1822	-17204	512	-584	3685	7346	5825	-17316	-1120	1912	3714	8862	1208	119	111	1
-32768	-14888	13596	-20508	-26889	-32768	-19208	7100	-12328	-12045	-32768	-20111	-8600	7800	-3300	4435	-710	6667	-10012	4244	13548	724	3856	-3433	-16488	920	372	4604	8225	7135	-17556	4372	3456	7010	7662	1581	110	106	1
-32768	-1020	16068	-22495	-19646	-32768	-21328	2092	-15268	-12334	-32768	-17607	-9168	-1920	1420	5779	-1211	3067	-11172	2716	13488	-457	6326	-4696	-17340	-868	-300	4342	9818	6332	-17540	6644	2856	8445	6592	1787	117	111	1
-32768	6332	10932	-22757	-15581	-32768	-22380	4912	-14504	-12577	-32768	-11138	-20840	-3092	11804	3125	-3022	-2679	-10140	2796	14404	-1156	9970	-4414	-17468	-768	-360	2583	13665	6240	-16524	4092	5732	6963	6343	735	102	105	1
-32768	13464	-2632	-9381	-11480	-31325	-17088	-292	-12352	-2756	-21287	-7051	-22640	-4552	27940	-5167	3653	-6910	-10952	2480	14196	-973	14168	-4773	-17280	-1048	-208	2129	14507	6766	-17244	1876	5096	7075	6098	-705	118	110	1
-32768	32767	-11740	-8529	-3963	-11633	-7084	1620	-9084	-5852	-2435	-4846	-23380	-2292	28576	-11502	6733	-916	-10984	3316	14232	-1630	18402	-5125	-18692	332	108	3237	17072	7142	-17104	3068	4032	8193	5813	-670	117	109	1
-32768	26824	-8928	-2917	2263	2222	-7156	-3732	-10204	-897	16514	3135	-18408	-4120	14772	-11748	5979	253	-11232	3376	13984	-3102	23592	-6396	-19592	-3996	840	6354	20078	7737	-19608	3324	6132	11995	5005	-433	119	110	1
-22184	-32768	26144	20270	10626	17605	-26372	3824	20072	-11903	18968	1917	-14592	-3180	-4112	-7944	14560	-3569	-11876	4320	14572	-4077	32425	-8220	-22852	-8192	3000	14013	23276	9293	-21924	-8	10908	15187	2668	-1261	115	111	1
-6640	-8840	4412	15334	27649	22852	-28952	5012	-7932	9867	8616	-4482	-22904	5084	2076	-8915	12850	580	-13484	10152	16496	-6036	32767	-13149	-23876	-11008	4860	19627	26953	11650	-25560	-3780	23384	21389	-17075	-4513	122	114	1
-19572	6228	23464	794	19270	13945	-16028	12884	-8336	18917	12197	7852	-19932	-8332	-428	22277	-742	-744	-23916	9728	22148	-8761	32767	-19231	-26212	-120	2336	15281	29279	12552	-17856	-10700	12144	12399	-12642	-7281	131	113	1
-13460	-10472	8800	-6404	11592	14727	-16104	8960	-8988	2893	18821	6744	-15380	8988	-5116	12961	3368	2694	-30244	11044	22688	-5412	32767	-21944	-28372	4976	1300	8220	30340	11070	-26576	11688	-2492	31402	-17497	-5293	104	103	1
-8996	-17028	1236	3527	8287	6880	-22800	-9500	-12984	-9913	18595	-2227	-10744	7596	-15124	-8068	14892	2284	-31420	-64	19628	1916	32767	-26370	-27484	6008	188	6595	30680	10811	-24180	15224	968	11285	-22688	1529	100	100	1
-13608	-13444	5220	7171	2989	7691	-18080	-7460	-9552	22717	9744	3126	-16064	-12764	-16076	-13023	17719	-2737	-12232	20860	24668	-7236	32767	-32768	-27388	3648	-4520	709	22006	3168	-30696	8324	-7820	-8309	-25164	6836	140	123	1
-11996	-8912	8976	5617	-57	5990	-14556	8608	-7048	16074	5029	5529	-15640	-10228	-6464	7558	10691	-3801	-32768	9904	32767	-9989	29822	-32768	-25320	18160	-14056	-6445	-9095	13421	-27288	3804	-5948	-17385	-27030	5701	134	121	1
-10868	-7560	10056	5539	-1515	5566	-15640	6096	-4512	-2692	6235	-1526	-17592	9140	-1652	9695	12005	-210	-24160	15124	32767	6341	-21187	-14087	-8692	988	-8836	-6970	24361	-6411	-27016	-2228	-1412	-17100	-27625	3586	113	108	1
-10248	-6656	11364	3111	-1738	2820	-17132	2352	-2668	-1674	9528	-544	-16236	6740	516	7220	10808	5738	-1220	9388	14544	16659	-25732	-7410	-11888	-2796	-9120	7171	-729	-5709	-24592	292	-2496	-5607	-26684	2631	114	109	1
-9692	-8620	9448	1552	-566	2080	-18280	-2572	-2980	7791	5770	2137	-15776	2472	36	-958	13577	5117	-3232	12828	9632	12872	-25468	-3464	-8856	2068	-11008	7211	-8924	-7781	-23220	1124	-3376	-4643	-27108	2014	135	119	1
-9700	-9344	8828	1457	-65	2016	-16436	-824	-2856	14176	2779	3115	-14364	-1892	-564	-5541	17213	3817	-2560	10464	9048	2630	-26941	4629	-5972	448	-10996	6009	-16591	-6528	-18888	820	-4292	-2158	-24916	2044	128	116	1
-9380	-9308	8448	2101	-345	2509	-15568	4744	-1668	3758	3830	1251	-14356	-4208	-916	-2049	17018	2914	-340	5188	9360	2445	-24199	13890	-5188	-120	-10660	4670	-21528	-10410	-14120	-144	-5032	58	-20454	2629	120	112	1
-9680	-8596	9100	2529	-783	2913	-15104	3408	-1236	-8048	7241	-967	-16380	-396	-764	2441	15827	1966	-3752	2088	10800	9277	-20482	20863	-5408	1092	-11076	1582	-26189	-12004	-13340	1180	-5848	-1213	-18324	2040	120	111	1
-10124	-7572	9728	2229	-736	2282	-17608	-1368	-948	-3942	7430	-151	-18372	2104	100	-3049	14563	2847	-8140	1908	11936	13423	-20895	24107	-4312	-296	-10752	1782	-30318	-12496	-12704	20	-7520	-6529	-15091	1779	120	111	1
-10116	-7852	9684	1865	-568	1654	-17160	-552	-1520	5305	5872	1518	-16664	64	1296	-8692	14114	3192	-12552	1292	13820	14806	-25311	23857	-4284	-72	-11224	2912	-32768	-11190	-10336	-1212	-8100	-9319	-11917	-744	126	115	1
-9992	-8480	9424	1486	-146	1363	-16228	2908	-480	2974	6656	2088	-15464	-432	-456	-1860	13028	3856	-15540	52	14768	17380	-30686	22008	-5300	872	-11280	3803	-32768	-11566	-7732	-1308	-8280	-9661	-8307	-4705	130	117	1
-9808	-8960	9328	1512	-71	1986	-15560	1420	-1100	-1949	8806	611	-16324	-2160	-4240	6730	10303	3209	-17680	560	15660	19580	-32768	21261	-7504	2308	-12736	2881	-32768	-14350	-7620	-1024	-8696	-9940	-4619	-5570	129	117	1
-10012	-8516	9648	1618	167	2504	-17504	-240	-1996	-1537	9375	432	-15924	-3396	-4056	2982	10161	3174	-22484	2600	16996	19238	-32768	23259	-9760	3268	-13540	2470	-32768	-15380	-7568	-912	-8788	-9931	-3910	-5352	126	115	1
-9948	-8456	9840	1372	524	2859	-17348	-456	-1852	1674	8458	1738	-15736	-44	-2480	-769	9170	3350	-30228	3176	18092	16638	-32768	27873	-14024	2668	-14228	1306	-32768	-17538	-7016	332	-9264	-8294	2806	-2894	125	114	1
-10028	-8348	10300	1347	1162	3620	-16672	976	-1260	2674	9004	2117	-16156	3468	-484	1517	7948	2581	-32768	708	16880	13233	-32768	32767	-18840	5052	-14784	-1317	-32768	-19281	-8768	4896	-4896	-10134	3290	354	124	113	1
-10568	-7800	9872	-176	1443	4334	-16448	1132	-668	300	10876	2069	-16320	1444	1644	2191	6459	1610	-32768	-7408	12720	10384	-29310	32767	-23528	7708	-14504	-2675	-32768	-18968	-13760	9120	4104	-8336	-219	5305	121	111	1
-9712	-6828	12460	1312	3621	4947	-16684	356	-1112	248	13357	2774	-16832	-632	2584	-2427	6098	655	-32768	-12980	376	7590	-27741	32767	-23720	6744	-10984	-5869	-32768	-18354	-20024	1220	20976	-3329	-1687	7548	123	113	1
-10380	-7964	11576	1830	5499	5745	-18472	-272	-468	45	15203	5007	-17716	276	1252	-7977	6131	482	-32768	-22080	-19008	6006	-22880	20069	-16688	-1088	-12268	2597	-23092	-6827	-24476	-10076	31240	-9629	10050	8734	122	112	1
-10976	-7856	11104	2192	7853	7074	-17476	188	-2180	-161	17301	5802	-17792	-1556	1200	-11468	4827	1816	-32768	-32768	-24628	20048	-4574	7154	-7016	5084	-2844	12451	-1758	4987	-18536	-2680	32767	-1910	2781	-2723	113	108	1
-11048	-9100	12036	3673	9775	9049	-18136	-584	-3028	-4854	18775	6938	-17220	-4412	-1500	-14226	4226	1785	-32768	-26296	-20684	9646	6679	-6105	-9740	13052	-9136	5125	15285	11109	-14556	-6952	22960	3019	3497	-5266	116	110	1
-11996	-11856	10996	2685	11937	10224	-21604	-92	-1780	-6503	19279	7996	-21068	-3932	-1444	-15673	3645	1776	-31280	-8368	-2428	-6875	5535	-7180	-19380	-7776	8916	-9597	14612	13264	-11120	2652	3168	13889	7550	2763	129	116	1
-11052	-12176	12444	3727	15036	15707	-22340	3332	928	-8107	21019	8021	-22024	-328	7172	-12030	-3916	1532	8044	14704	5124	-15509	19729	-13477	-26956	-924	1336	-27183	5981	6245	-6296	3268	492	20587	8969	7612	113	108	1
-12364	-13124	13152	3413	19699	22807	-24220	3636	1504	-13257	23585	7540	-19796	-1120	10768	-7867	-6391	1361	-27316	-9480	26352	-11293	25189	-5842	-13492	-11748	-4496	-19296	4428	4752	-30116	11168	7052	-14911	-1251	7879	117	110	1
-14228	-17624	12200	4542	23517	31889	-26620	-2008	2584	-12984	26241	7927	-21272	448	13280	-16481	-7917	-2120	-15256	-11492	23208	199	17832	-10631	-16920	-6636	-10376	-6609	14974	8744	-30104	-11080	1872	-21412	6270	9358	111	106	1
-18584	-17600	13056	3380	27489	32767	-26692	-4764	872	-6266	26015	7505	-22324	-3856	1376	-11681	-12239	-3096	-32768	32767	25928	-8904	7309	-7614	-17136	7040	-3340	3261	14223	10586	-5600	-14980	-4568	2180	17793	1705	119	110	1
-23232	-14740	14292	6920	24519	32767	-27380	508	-3024	-5258	24790	8978	-20124	-8272	-724	-5445	-20273	-8830	-11124	-9680	22468	-9010	1969	-8724	-21200	17428	-6352	-5168	7775	10425	-12524	17580	-15288	32767	6801	-7994	121	112	1
-23040	-26516	14748	8007	23754	32767	-28708	3416	-5632	-4776	21434	7961	-26660	-1756	-6264	1319	-23495	-13437	-11396	4536	13016	-7384	207	-5063	-15448	5168	-4636	-11691	8811	2045	-17816	31016	-5056	2306	12843	11861	110	106	1
12348	-18140	18140	12580	25121	32767	-21352	3372	-4208	2658	12036	7666	-28564	7740	-6264	6805	-24483	-11673	-12312	548	15692	-4955	-1819	-4003	-15148	3980	-4180	-11028	7141	1871	-18924	7184	-2496	-28062	15406	10987	107	104	1
-23192	-20444	22680	-974	-2886	16464	-11824	9440	-26572	567	12180	6854	-27236	8768	-2360	9011	-24500	-7391	-10064	2876	13656	-1896	-1220	-2481	-16628	-4892	-3672	-6445	5861	4343	-17616	-12868	648	-17865	13150	-146	99	100	1
-1824	-17140	9308	-6605	-9753	-1671	-16312	15380	-2764	-10694	5312	-1549	-25652	5808	-3268	2588	-23082	-9163	-10136	3476	13140	-1219	-382	-1654	-15804	-888	-1504	-1466	6557	5745	-13960	-6356	4276	-1111	12233	-4080	110	106	1
1120	-12704	6216	2565	-4351	-6922	-8016	5668	-6708	-16065	-3646	-4035	-21488	6264	-3852	-2943	-19702	-10381	-9868	3828	12648	-1189	-98	-1772	-16148	1152	840	-356	5811	4407	-14708	4624	3096	5198	13577	1875	127	115	1
-260	-6060	7908	2922	-268	-15927	-6748	4300	-7712	-7461	-7749	-5862	-17348	4220	-4572	-6961	-17549	-10664	-9768	4680	12344	-1865	-590	-2943	-15472	596	1772	2310	4706	3614	-15008	8152	3060	1790	13825	5241	130	115	1
-2336	-6656	9904	-257	-1891	-23177	-5972	3624	-8516	4590	-15607	-6166	-15412	2692	-4896	-6753	-15160	-12141	-9812	3592	12980	-2685	-707	-3571	-15896	988	-400	2109	6303	4408	-15492	4920	2432	10	12768	3541	98	98	1
-5268	-5628	11320	-2136	-7120	-27413	-6244	5536	-8468	9546	-23005	-6955	-15136	2356	-5916	-5006	-13356	-11277	-10124	2308	13584	-2323	-854	-2902	-16580	-308	-2276	-642	7253	4233	-16976	436	2044	400	14066	2349	140	123	1
-7828	-3712	12116	-5608	-13433	-30304	-5604	6484	-7900	11141	-26740	-9560	-14408	812	-5644	-1720	-11175	-9464	-10468	2544	13576	-1325	-232	-2115	-16028	-304	-2276	31	6610	3775	-17040	-652	1872	1304	14194	1858	121	112	1
-9884	-3208	11788	-9827	-20407	-31585	-5964	7568	-7668	10695	-31322	-10997	-12708	484	-5876	4316	-10587	-5735	-10192	2852	13436	-1031	-150	-1913	-15948	640	-2660	1889	7090	3855	-14472	1336	2416	11169	17265	1649	113	108	1
-10848	-3280	11788	-13588	-25033	-30898	-6596	8956	-7220	9475	-32768	-12210	-9940	3112	-5712	10910	-10577	-1220	-10292	3048	13180	-1245	-288	-2093	-16220	1916	-3332	1190	6823	4368	-16312	5612	-3932	7793	15374	-508	111	106	1
-12744	-3676	12756	-17405	-26896	-29452	-7756	11120	-7868	2939	-32768	-13109	-7732	5648	-7208	15515	-11554	2572	-10316	2700	13232	-1231	-384	-2114	-16668	1392	-3592	-461	5867	3900	-16244	9264	-7032	1623	12100	67	118	110	1
-15100	-4768	14920	-20160	-27624	-29353	-8580	11176	-9760	-6959	-32768	-14018	-6768	5848	-7772	16557	-9094	5556	-10332	2780	13200	-1323	-78	-2796	-16500	680	-3732	-219	4939	3375	-15868	5108	-3896	-3044	9970	2058	116	109	1
-17632	-7000	17292	-21350	-27530	-30658	-11152	9004	-10896	-11409	-32768	-15954	-5168	6824	-7828	12274	-4223	5947	-9856	2004	13700	-815	640	-2593	-16288	292	-3080	1179	5378	4191	-14952	864	892	-3549	11558	2272	115	109	1
-23460	-10988	19884	-19638	-26543	-32768	-15636	7980	-13472	-13648	-32768	-17620	-6604	6728	-6388	7775	-3070	6701	-10064	1896	13860	127	1739	-2675	-16780	-472	-1692	1116	6138	5121	-17300	332	2560	-2674	10224	1171	124	113	1
-32768	-8816	20856	-14552	-24482	-32768	-19740	7148	-14684	-9903	-32768	-16932	-3404	2328	-3936	2969	120	3628	-9004	2524	15064	32	3435	-2838	-17228	176	32	1031	7545	5701	-18552	2400	4308	-865	8769	842	107	105	1
-32768	-1048	16796	-14985	-23126	-32768	-22420	2284	-16108	-8714	-32768	-13345	-15116	-4172	580	2339	2272	-1784	-9976	2068	14388	-635	6389	-2914	-17632	-2496	412	1753	10033	5685	-18992	2240	5180	2255	7397	1831	108	106	1
-32768	4876	3716	-14028	-22526	-32768	-22552	5004	-13548	-4061	-32768	-9701	-20776	-1788	14420	2596	1495	-5245	-9796	784	14968	380	11173	-2197	-17472	-3996	-1112	4826	13931	6891	-18184	-3008	7208	7360	6084	1238	109	105	1
-32768	6380	1792	-13532	-21627	-32768	-16492	504	-10572	3538	-21623	-6195	-26764	-476	30560	3895	2862	-1888	-10148	552	15272	959	17921	-1096	-17868	-2824	-1856	9985	17677	6749	-16472	-4324	5196	13457	4755	-1018	121	112	1
-32768	32767	-9228	-16282	723	-13194	-7964	7048	-12144	-8335	-2069	-4221	-21048	168	27440	-14849	5501	4213	-10904	3320	15008	-111	23428	-1202	-18856	-248	-156	9643	19742	6524	-18028	2980	2700	18386	4847	-3292	115	108	1
-32768	20428	-8236	-5916	5258	395	-4912	-720	-8868	-11165	17227	1721	-16124	-5172	14088	-10508	8737	619	-11340	4728	13860	-2748	27660	-5264	-20700	-876	1752	8446	20647	7179	-19864	9076	3652	18970	4385	-3532	138	119	1
-17772	-15856	20156	20535	3096	17884	-23140	-6740	12340	-21393	24038	-2165	-11160	-5744	-1812	-12771	12180	-4462	-13048	5704	13884	-5746	32488	-10227	-21956	-2904	3704	12110	23358	7984	-19580	6336	10244	15168	2432	-2969	101	103	1
-3356	-10000	5128	20545	25115	27182	-32768	-8	776	26166	4701	-3085	-24400	-1204	-960	-10315	19747	-2236	-12924	9624	13644	-9849	32767	-18215	-25872	-2060	5512	10641	25840	9442	-24816	1048	21856	12310	-15096	-2984	123	112	1
-21000	5216	25068	3977	22599	11044	-14900	15596	-5872	32767	6069	12354	-27492	-12520	2804	32767	-8881	-487	-22536	8248	17928	-13742	32767	-26446	-24436	-192	2852	5826	27753	9749	-15524	-2688	11040	8200	-11369	-5571	147	127	1
-15500	-3704	15768	-5870	12200	15360	-14700	15484	-8564	10628	19518	7401	-15616	9280	1608	18753	5035	7219	-32768	6812	29636	-9420	32767	-28450	-27112	5844	1692	4869	29834	8906	-25140	10592	-1920	17069	-16758	-2454	105	102	1
-5792	-15472	3644	5311	8243	6854	-23436	-10096	-11420	-18005	21815	-4404	-8716	14600	-19448	-4517	19059	4684	-32768	20344	24560	-8227	32767	-31217	-28132	6232	-4460	3593	28574	8507	-24088	12716	-1336	4468	-20966	3502	79	89	1
-13696	-13668	5864	8954	1642	8036	-18304	-10616	-8800	20350	10486	2187	-11880	-7204	-15352	-10257	14614	-6377	-7472	19236	22868	-18287	32767	-32768	-26516	2776	-5492	-2718	19690	3521	-30520	5356	-6376	-9887	-25391	6780	139	123	1
-11992	-8888	9220	6655	-904	6652	-14488	8528	-8176	18663	4039	6066	-16500	-14140	-6272	-2994	13039	-7545	-32768	14252	32767	-13629	28918	-32768	-14896	3212	-13696	-3690	-18182	7709	-27068	160	-5828	-16098	-26513	6597	143	123	1
-11748	-8944	9324	6497	-1177	6356	-15628	12244	-4700	-2966	7018	-1183	-20824	4012	-3252	8878	10914	191	-24136	16636	32644	3455	-16832	-6147	-11840	600	-11196	-5842	21547	-6912	-27624	-3212	-1580	-14145	-26818	4120	100	101	1
-10188	-6504	11416	1303	211	1339	-17504	3008	-3828	-12236	12040	-2091	-16140	6868	-52	3105	10093	8703	-1504	10380	11936	9059	-20371	452	-12780	-1420	-9800	4300	-897	-5542	-25056	-412	-1920	-2883	-25912	4320	124	117	1
-9496	-8676	9536	-157	889	256	-17312	-5668	-1324	2412	6787	-255	-14556	2624	-1448	-817	12767	9394	-4900	12672	9444	4200	-20126	6558	-9132	3600	-12192	2919	-7548	-7572	-23072	1436	-3816	-2039	-25659	3863	138	121	1
-9572	-9200	9040	137	677	577	-16128	-5800	572	17469	3120	6380	-13592	-5292	260	-3510	14263	4548	-3540	8460	9616	-1592	-22011	15032	-6120	480	-10876	1686	-15476	-7251	-19144	1240	-4600	-880	-24048	4833	131	118	1
-9356	-9588	8424	1102	173	1290	-15368	5000	-1244	9473	3652	2659	-14992	-4636	-164	735	14622	1897	-1816	3164	10544	111	-20770	21211	-6776	1792	-11248	-189	-20727	-11121	-15472	2156	-5056	-547	-20814	4661	127	116	1
-9140	-9032	8992	2139	-415	2301	-14500	6488	-1952	-11066	7408	-791	-17016	-76	-600	1793	14552	506	-5260	-252	12088	6952	-19448	24270	-6264	1232	-11232	-3931	-26452	-12551	-15268	464	-5604	-5175	-19033	5653	121	113	1
-9468	-8152	9636	1686	98	2237	-16456	-276	-1664	-14987	9686	-842	-16948	3524	100	-6893	13841	2766	-9224	-428	13844	12242	-22019	24009	-4944	-1224	-11156	-1479	-30066	-12691	-13132	12	-7340	-9694	-15815	3609	124	114	1
-9620	-8176	9804	1005	840	1893	-18900	-4728	-544	1106	6668	1126	-15912	288	1420	-11834	14010	4366	-12780	-324	14864	15045	-28347	20741	-4572	-1388	-10884	3060	-32768	-12310	-9896	-1364	-7328	-11840	-12515	-382	124	114	1
-9744	-8860	8984	1204	526	1909	-15588	1008	-1356	7306	4979	2442	-16668	-1888	-1156	-4677	14057	4566	-15064	-2488	15156	18946	-32768	16964	-6148	64	-11648	6927	-32768	-12749	-8352	-1184	-7720	-12419	-10096	-3521	129	117	1
-9872	-8744	9336	1955	58	2449	-14968	3764	-668	-1410	7192	3090	-16476	-2512	-4708	6179	11828	2665	-16788	-1224	14940	23414	-32768	16137	-7412	616	-11988	8494	-32768	-13801	-7784	-1092	-8236	-11976	-6880	-4358	137	120	1
-10024	-7900	9916	1655	-79	2572	-16592	980	-864	-3731	9432	762	-16336	-2604	-4168	2452	9827	2909	-20228	1920	15560	23610	-32768	17332	-9524	2200	-13700	8925	-32768	-13941	-7000	-776	-9224	-10366	-3293	-4626	130	117	1
-10052	-8468	10148	892	341	2462	-17320	-472	-1464	-323	9401	1660	-15384	-44	-1632	-962	8788	4138	-27804	4068	17212	20329	-32768	21516	-14120	3752	-13924	5153	-32768	-14804	-6820	-1676	-9020	-8647	1480	-3753	128	116	1
-9976	-8436	9812	624	683	2982	-16392	-132	-1740	2230	9127	2748	-15396	2308	-172	1215	8293	3969	-32768	1896	17148	15617	-30725	27756	-18568	4752	-14212	2186	-32768	-16231	-8556	1228	-5112	-7949	3114	-1783	125	114	1
-9928	-9160	9640	234	966	4384	-16560	600	-1184	2224	10934	2885	-17228	924	-92	1900	7378	2352	-32768	-6220	15772	14157	-27961	32767	-20592	7396	-13928	-1854	-32768	-15879	-11668	6500	2864	-4359	531	2706	116	109	1
-9244	-7172	12428	1447	2173	5336	-16772	496	-648	148	12610	2749	-16588	-120	992	-818	6570	1432	-32768	-13008	7328	12208	-27530	32767	-23236	5528	-12096	-4634	-32768	-17855	-12512	6992	4856	-3574	-201	3647	116	109	1
-10216	-7252	11816	2323	4938	5688	-18144	700	-552	-351	14413	5208	-17708	-500	544	-5907	5654	-228	-32768	-21968	-10572	8162	-24329	28675	-17980	2060	-11256	-3228	-26280	-11188	-21196	-7020	26928	-1963	7031	9098	118	110	1
-10464	-7616	11392	2718	7792	6956	-18260	828	-2320	2585	16173	6335	-17424	392	2300	-8663	5676	2429	-32768	-32768	-23596	15112	-10786	14473	-8212	2716	-2580	10650	-7037	558	-22312	-704	32767	-3491	3281	5278	101	100	1
-11156	-7724	11976	2893	9714	8490	-17576	228	-3464	-1368	18089	7289	-16824	-3024	576	-10808	4445	2755	-32768	-32768	-23424	14960	2913	-1039	-8220	11648	-6692	8267	9876	9970	-16020	-4792	21664	4656	2455	-4159	117	110	1
-11484	-10980	11480	3103	11935	8612	-20604	-152	-1700	-5678	19693	8489	-20328	-4260	-1516	-14657	3555	1526	-2704	22416	14504	-28343	3486	-16634	-13444	8044	1772	-3442	20358	12716	-10520	-664	4704	11113	5936	-2260	133	118	1
-11340	-11832	12520	3228	14273	14467	-21724	3116	-672	-6796	21296	7785	-21852	-420	5416	-13395	-2829	1663	11568	15500	-4180	-10488	7748	-18645	-32768	-8180	4912	-6353	6568	10994	-6432	100	-244	19839	11229	2633	99	100	1
-11928	-12528	12692	3720	18443	21264	-24804	4476	1172	-13545	24114	7552	-19172	-828	10760	-8582	-5661	1763	-24140	3916	22292	-14298	28475	-14147	-32768	-16176	168	-23206	-10159	8613	-21492	7388	3296	10786	1009	5708	102	102	1
-14284	-18340	14052	3492	22718	28778	-26392	-384	3792	-15572	26073	7627	-21244	184	14660	-16750	-7157	-661	-18204	-20876	32688	-4487	22271	-7851	-22064	-11016	-7868	-4718	10898	10957	-32768	10516	14524	-26980	-11435	9502	117	109	1
-17244	-20688	15940	6176	27299	32767	-29408	-4000	3472	-8453	26199	8458	-24972	-4948	1684	-11477	-9071	-1614	-17596	9156	12808	2945	16675	-8736	-16124	-2392	-6988	4925	19416	10125	-12096	-21628	-4192	-23097	18368	4129	132	118	1
-22036	-27228	19236	11258	25482	32767	-28040	-2576	-5664	-2915	26363	10880	-21600	-11608	-2084	-5599	-19554	-8070	-12920	-3500	24784	-9911	5489	-8715	-19872	16264	-7492	480	12813	12639	-6652	6484	-16068	32767	14584	-7239	132	118	1
-22560	-25936	20316	11211	23097	32767	-28232	40	-4068	-3886	22947	9746	-26140	-3400	-6396	5847	-24291	-12458	-11680	4836	12600	-5222	2611	-3017	-16556	4932	-5868	-4363	12885	3043	-12384	27504	-12432	30221	875	-1711	123	113	1
13540	-24588	18128	20620	25559	32767	-21708	1584	-9612	7518	13505	10299	-29296	6420	-5652	12623	-25756	-11652	-12336	4164	12716	-4436	733	-3125	-15956	2172	-5104	592	5134	4401	-20308	19828	-2308	-14672	15397	15251	96	97	1
-23556	-20924	26076	5240	-2071	16083	-15452	11324	-25980	7886	11735	11186	-27432	9208	-2888	11884	-25121	-7996	-11128	1312	14460	-2018	633	-1637	-18240	1192	-4996	-1437	6633	3098	-21212	-5524	-1584	-18585	13493	4735	90	94	1
-2480	-15184	9760	-3490	-10735	73	-16044	13108	-4344	-3638	4554	1592	-26392	5668	-3228	4188	-22565	-9168	-10128	3348	13252	-242	1469	-375	-16420	-1928	-2240	-1712	7642	4922	-13924	-10316	2552	-3234	12144	-6042	124	114	1
952	-13244	5468	4534	-6884	-3396	-8340	5436	-7352	-13199	-3738	-796	-25532	5308	-3708	2808	-21933	-9175	-10496	4244	12336	267	1775	-460	-15496	-1020	-260	3298	5858	3598	-14080	2072	2492	6273	12971	-4370	133	120	1
376	-6604	6240	6009	-2588	-11139	-7360	4280	-8576	-8201	-7836	-2919	-17856	1876	-5420	-4351	-17646	-10698	-10300	4232	12404	260	1792	-466	-15808	2492	700	7756	5211	3275	-16024	7676	1808	6419	14516	1402	128	115	1
-2152	-7860	7564	2482	-3417	-19485	-5816	312	-9824	1029	-15031	-2870	-16224	48	-6384	-3864	-15106	-12767	-10468	4840	12204	-368	565	-2255	-17356	3972	-888	5500	5948	3367	-15856	5664	832	5033	15319	1826	105	103	1
-5208	-7836	8256	1995	-8398	-24429	-5732	1720	-10432	8451	-22887	-3300	-15480	-444	-7532	-2029	-13656	-13518	-10748	3180	12888	-343	580	-1937	-16656	-16	-2356	1468	5749	2596	-16244	2120	1240	2524	15914	2382	117	110	1
-7708	-6592	8428	732	-14587	-28242	-5164	2260	-10092	13267	-28113	-4817	-14360	24	-7820	923	-10747	-12426	-11036	3260	12712	262	1211	-1112	-16236	-220	-2612	3846	5094	1830	-15832	1156	1900	4804	17989	332	130	117	1
-9264	-5672	8084	-2256	-20162	-30478	-5164	3260	-9868	15310	-32763	-6057	-12880	-712	-7824	5250	-10001	-9121	-10928	3584	12500	663	1549	-766	-16372	864	-2336	6208	5664	2021	-15308	0	3776	11342	21206	2085	121	112	1
-11352	-5732	7848	-6364	-24227	-31246	-5688	4416	-9964	15525	-32768	-6761	-10980	1148	-7576	12356	-9395	-4632	-11300	3992	12612	1074	2140	-741	-16776	740	-528	7255	7610	1983	-15124	1820	2592	15295	20019	-158	116	109	1
-14540	-6188	7140	-10970	-27610	-30805	-6316	8320	-8428	11488	-32768	-7858	-9600	5724	-7896	18844	-10660	-76	-10768	4280	12412	1557	2735	-995	-15772	-1628	444	7611	7010	2220	-18236	5832	-1812	12274	13785	-2824	116	109	1
-15708	-6556	8328	-15611	-28033	-30294	-7152	11380	-9952	683	-32768	-10587	-7056	8204	-7580	21498	-10029	5234	-10780	4372	12200	2371	3408	-1751	-15656	604	824	6431	8391	2901	-18076	6936	-2424	10451	12460	-3154	119	111	1
-17080	-7144	11856	-20787	-26140	-31119	-8800	10140	-11900	-8660	-32768	-14528	-5492	9316	-7372	16601	-8308	7303	-11152	4444	11492	2704	3339	-2763	-15652	1244	256	4514	8749	3731	-15524	3576	2636	629	8800	702	123	113	1
-21636	-9416	16632	-24920	-24793	-32768	-13196	8220	-14220	-15850	-32768	-18203	-5360	9360	-7656	15898	-7781	7730	-11248	5148	12040	1629	3090	-3511	-17412	2812	-1340	3246	9285	4944	-14724	724	3500	3813	10285	1277	117	109	1
-29920	-9624	20148	-25261	-24901	-32768	-16792	6444	-12060	-17828	-32768	-20867	-6920	6116	-3808	3136	-2760	6663	-11040	4176	12492	260	3978	-4833	-17316	172	-2876	969	9975	3935	-17092	548	1060	4027	9947	237	126	114	1
-32768	656	22668	-27891	-23039	-32768	-20280	2764	-15952	-17508	-32768	-18969	-12148	-4288	-2204	1482	2463	-107	-11440	3204	12520	70	5940	-4528	-16396	-748	-2152	-1095	10318	3195	-17308	3380	216	501	8777	-1452	127	114	1
-32768	3248	15760	-24065	-24036	-32768	-22776	2148	-15396	-12873	-32768	-12670	-17048	-3900	6960	-1272	3353	-5698	-11780	3596	13032	-791	8508	-3985	-17092	-1532	-1256	-2600	13972	2062	-16288	3820	2196	-413	7917	-603	122	113	1
-32768	12504	-80	-11175	-19365	-29560	-19076	2320	-9304	-4000	-26826	-10124	-23728	-2700	26916	-1779	4873	-7903	-11144	3928	12696	-1147	12078	-4408	-17184	-1080	-864	-1348	13890	4071	-17240	112	4416	4226	6471	-1018	133	119	1
-32768	32767	-6644	-11016	-6926	-11558	-10120	4764	-15212	2093	-9476	-8208	-25536	1332	32260	-10943	3647	-1400	-12532	3812	12324	-2218	15931	-4898	-17564	1456	84	-573	16633	4076	-15672	780	3580	6712	5406	-2129	107	106	1
-32768	32767	-4656	-9207	-2272	2520	-5840	-2428	-9020	-2678	11548	1367	-16688	-5752	19412	-14398	6599	1151	-13508	5996	12716	-3239	19009	-7072	-19296	-604	2228	584	18968	4332	-19404	6236	3904	9979	5317	-2465	127	115	1
-2268	-26452	12556	19094	-6062	24808	-13808	4516	1288	-12300	25793	5165	-14244	-5644	2852	-8490	10636	-4062	-11896	4740	12868	-4972	23607	-10713	-19952	-2340	3860	5070	21571	5152	-20260	5592	8212	11913	2507	-1742	114	107	1
7660	-14072	9016	16661	9494	32767	-32768	1440	5692	-9013	12393	-5506	-12840	2536	2272	-18632	15364	-2577	-15880	7128	13884	-6691	30237	-15028	-24628	-7308	4328	6337	25301	7542	-22976	2048	14096	12744	-5989	-1331	142	122	1
-23492	3544	19972	5545	23547	15033	-17180	10740	200	13479	6952	3166	-27396	-136	5116	10799	2444	5464	-16768	6004	15032	-10105	32767	-21766	-25464	-4900	2760	5500	27311	7999	-19276	-10948	13972	-2131	-16504	-4230	146	125	1
-22300	1948	22980	-335	15634	17975	-21136	6084	-11616	6395	18671	5112	-23384	-9696	3600	28421	-1851	2766	-19852	-912	19808	-9163	32767	-25306	-29456	-768	-1272	3810	29961	8575	-26668	1952	10904	16288	-13250	-6471	117	109	1
-30900	-32768	-13900	2950	11719	4274	-20948	-9248	-14060	-3415	20842	3011	-11488	10424	-13252	7010	12769	2803	-26528	3500	21964	-8843	32767	-30002	-29996	1320	-4108	-145	29929	7810	-22112	14620	-5504	18718	-17798	-1682	81	90	1
-15972	-5260	8100	8080	3566	9663	-15668	-11336	-12424	24332	14432	1953	-8740	1912	-13024	-9971	15116	-2404	-23280	14776	26796	-9588	32767	-32768	-28220	4208	-2984	-2411	25966	4207	-26876	9800	-3132	-4416	-22940	3175	104	104	1
-15144	-3648	13868	6195	277	6076	-16256	12748	-11152	25661	5516	7297	-12940	-9136	-8572	-8628	13194	-7133	7460	5208	13612	-21981	32767	-32768	-22896	2604	-6808	-10359	13867	-334	-27932	5076	-6380	-15924	-26545	4567	168	136	1
-9896	-4356	12520	3235	-237	3164	-15416	13632	-6380	-7738	8640	-775	-22112	152	-6256	3445	10311	-4969	-32768	10192	32767	-10025	-536	-28515	-13756	12844	-23056	754	3994	-1492	-25828	2740	-4764	-16102	-27027	4155	118	111	1
-10336	-6596	10924	1479	391	1116	-15512	4728	-5656	-24901	13362	-3234	-17764	6536	-3420	1768	11919	3787	-8840	8776	22396	12643	-25221	-11714	-13876	-5336	-6200	-479	13544	-9355	-27112	1144	-1296	-9351	-28520	4902	110	108	1
-9852	-8388	9400	17	988	308	-19140	-11620	-3644	-4112	9147	-1157	-13940	2116	-3280	-6866	12781	7220	-4088	13028	8880	15739	-23232	-5954	-10664	2776	-10328	4287	-1618	-11505	-24636	4592	-3192	-8657	-25281	4894	130	117	1
-10184	-9340	8288	939	252	806	-16332	-5464	-5024	19853	2388	3115	-14212	-4036	-5128	-11870	14556	3423	-7728	16256	6372	3433	-25570	163	-8256	6392	-11468	4140	-9855	-10036	-21592	4852	-4576	-9407	-25306	5085	146	126	1
-9884	-9380	8640	1938	-661	1130	-17472	6540	-3472	8957	1206	4133	-15416	-6752	-3344	-7040	15305	1176	-7696	15352	6192	1710	-26054	1437	-6028	5180	-10552	3226	-17402	-12301	-16784	3684	-5824	-8022	-21704	5503	131	117	1
-9820	-8944	8976	2172	-737	1757	-13840	5916	-3284	-14864	5180	-523	-17316	-2764	-2744	273	15193	1402	-5792	10488	6464	-1718	-27086	11559	-5940	6992	-10132	-395	-21529	-15405	-14952	3976	-6064	-6785	-17829	6255	113	108	1
-10144	-7592	9892	1145	-309	1471	-16788	-1860	-2480	-16445	7456	-2960	-15892	1764	-1408	-2360	16014	4095	-9240	7708	6760	8569	-23693	24653	-6272	6768	-9492	-3209	-27173	-16317	-13108	4868	-7392	-9651	-15246	6782	111	106	1
-10280	-7740	9756	-40	686	672	-17564	-3396	-2488	-14257	7099	-2712	-14944	1512	1692	-8360	15278	5900	-12960	7684	7932	9700	-25042	26977	-5560	6112	-9524	-5180	-31947	-15719	-11620	3860	-8512	-13967	-11434	6574	114	108	1
-10132	-8476	9028	-322	947	593	-16756	-116	-744	-1157	2793	3118	-15540	-1824	604	-8868	16017	4105	-16912	6816	9532	10750	-28569	27607	-5928	5132	-9860	-4671	-32768	-15839	-8200	2228	-8616	-15276	-7697	3807	134	120	1
-10060	-8404	9232	-201	910	911	-14916	1732	428	-5485	5233	1624	-17512	-3124	-3116	78	14114	2133	-19940	6052	9992	12785	-32008	27144	-6788	4852	-10228	-3693	-32768	-16935	-7876	816	-9560	-16201	-4955	1999	136	121	1
-9944	-8380	9388	-247	1241	1142	-15724	-1176	2292	-5039	8452	334	-18140	-4024	-864	986	7399	2966	-21428	6160	9508	14672	-32768	26235	-8820	4300	-11380	-3205	-32768	-18267	-7796	-312	-10056	-16094	-2291	1522	136	120	1
-10072	-8892	8972	-386	1206	1762	-17472	-4524	744	101	9054	1681	-16832	-4080	1864	-929	6679	3181	-26356	6844	11256	16261	-30165	26353	-12192	3924	-13252	-2379	-32768	-16848	-7704	-2992	-10104	-14201	1244	561	129	117	1
-10424	-8748	8932	-438	1102	2595	-16456	-696	-1272	3219	9380	3125	-15744	320	1332	-2468	7877	1903	-32768	7420	13596	17400	-28278	31308	-16560	3356	-14016	486	-32768	-15081	-9176	-4948	-7600	-14298	2786	-1386	133	118	1
-9896	-9156	9844	-1065	979	3788	-15984	1436	-2200	1816	10576	2525	-15636	4280	-728	-2927	7526	1129	-32768	6504	11824	15235	-27931	32767	-20980	5840	-15844	-3045	-32768	-12417	-11280	-3408	-2324	-15751	1171	-990	130	117	1
-10012	-7548	11148	950	3703	5019	-16808	2532	-1852	1164	12630	2634	-16052	3500	-16	-3194	6169	348	-32768	-12672	11596	19133	-23800	32767	-20472	4056	-14036	8341	-32768	-11490	-14604	3116	8596	-10741	-1722	1449	118	110	1
-10500	-6860	11064	132	5813	4775	-17132	368	-1928	1473	14023	3468	-16096	1564	1524	-6009	6564	-179	-32768	-22828	5516	21910	-17508	32767	-20716	6172	-9604	9625	-32241	-8850	-19068	-2604	21888	4425	-774	4060	123	112	1
-10944	-7960	10736	-353	8153	5380	-17888	-528	-3432	2455	15268	4521	-15120	-2460	76	-9317	7156	1364	-32768	-30572	-10856	11997	-15403	23383	-15540	13896	-3924	9401	-16951	953	-22260	-3872	25040	6710	-129	5217	110	106	1
-11268	-8672	10540	-55	10178	7271	-18344	-448	-2412	-1509	16503	5461	-17828	-6816	-2952	-11557	6063	2148	-32768	-32768	-29772	15108	-9061	-1909	-4908	7968	-1952	7349	-188	7753	-20340	104	30152	12281	4511	9480	117	110	1
-11408	-9532	10036	-207	12514	9727	-18572	-1516	-2296	-3616	18688	6671	-18680	-5660	-1300	-11732	4555	2024	-32768	-24424	-20532	6429	8386	-17060	-9680	7112	-11248	-7592	18584	12924	-11272	-2272	16240	10311	-406	1409	127	115	1
-11696	-12636	10816	-599	14928	11504	-20860	1176	-188	-4939	20016	6933	-20352	300	4636	-10840	79	2292	6044	30796	32767	-27585	857	-13545	-18356	-17680	12320	-15069	16356	13398	-3820	2384	-3004	13011	9728	3055	100	101	1
-11640	-10192	11860	-662	19277	16094	-21436	4200	132	-9343	22548	7464	-18952	2644	11104	-9315	-4821	1966	10344	5968	2364	-25855	25022	-8451	-29560	10696	948	-32768	4685	5952	-10052	8284	-2108	12376	13775	8757	94	97	1
-12988	-15268	13188	238	24015	21265	-23972	4200	5232	-14603	25567	6566	-19608	4132	11828	-17068	-6295	972	-32372	-29268	32767	-14626	25079	-8559	-16964	-16156	-8064	-28232	1989	5932	-32768	21756	17844	-32768	-13843	14317	105	103	1
-15444	-18900	13976	716	29723	31057	-24248	3692	4464	-14988	26049	6434	-22676	3172	4780	-16621	-5026	-140	-16424	-10588	24152	1886	17318	-13457	-15976	-11808	-7624	-5203	17217	7651	-31456	-21772	10932	-30633	9638	2159	115	109	1
-24784	-21216	19180	-254	32304	32767	-29456	-1772	-6004	-9617	28673	7778	-23684	-10256	-3700	-20426	-14675	-3767	-6588	6896	18500	-16079	6493	-10995	-18348	21172	-4352	-2809	19593	15324	-64	-12956	-12348	3068	22692	-5633	125	115	1
-32768	-20532	19512	-1484	29444	32767	-29020	576	-7932	-5984	28067	9429	-24000	-9600	-3952	-3195	-22363	-9241	-16184	8876	10300	-9773	355	-6525	-17120	7312	-6244	-8584	13782	7250	-11752	17440	-19104	32767	-2478	-8000	140	121	1
-10528	-24732	20612	-1540	26228	32767	-26456	2280	-3376	-4326	21062	10295	-28196	1524	-6336	8062	-26748	-12323	-12880	-1780	15640	-3999	-1679	-4552	-15564	2272	-8928	-371	6834	5725	-16960	27480	888	3314	9545	17981	104	102	1
-32768	-23320	22968	2423	17172	32767	-16876	4512	-21220	8124	12576	10411	-29276	8056	-4424	12258	-27075	-9989	-10688	1976	14236	-2299	-830	-3096	-18868	2036	-8580	100	7279	5389	-23528	4004	-7428	-12845	16869	12772	95	97	1
-9164	-21720	18260	3894	-11872	8449	-15772	8756	-10476	-4350	7724	6890	-29104	8856	-2524	7461	-26440	-7178	-9376	3236	13960	-499	710	-1179	-18912	3208	-5500	-10268	7578	3556	-18400	-11944	260	-5257	10921	-2618	95	97	1
664	-12728	8740	2429	-12191	2676	-12424	8888	-6428	-3418	650	1874	-25016	4340	-3856	-1604	-22555	-8677	-10568	3392	12880	386	1716	-804	-14024	-4192	-1916	-2198	5044	2481	-12820	1564	2196	8197	13065	-6159	124	113	1
-184	-9748	6592	3760	-10359	-821	-7648	5572	-9840	-12435	-7229	-2226	-22628	3372	-5024	-3907	-19213	-9684	-10432	5176	12036	392	1602	-1192	-15152	928	80	8530	4748	3142	-15812	10800	-12	4476	14475	-172	141	123	1
-1512	-8192	6804	3055	-10961	-7691	-5260	2624	-9736	-7688	-12768	-3772	-18000	708	-6080	-4858	-16767	-10494	-10496	3856	12748	-482	367	-1958	-17572	5248	-2280	7855	6034	4228	-16280	8472	-16	-2043	12887	4135	106	106	1
-3052	-8104	7140	1137	-13412	-15091	-5600	1044	-10292	1162	-20029	-4634	-16996	260	-7668	-2432	-15671	-9902	-10416	3144	13316	-57	691	-1427	-15960	144	-3460	1274	5243	4100	-16372	2280	1408	-7036	12146	1089	136	119	1
-5808	-8016	7424	-945	-17301	-21466	-5108	2936	-10392	6766	-26780	-5387	-14488	1216	-7800	-1596	-13659	-9779	-10524	2996	13140	343	1578	-926	-16012	-2080	-3008	2087	3914	2595	-16668	-3596	1480	378	13383	-1149	109	106	1
-7796	-7164	7596	-2784	-21261	-26403	-4756	3568	-9500	9196	-31341	-6593	-12716	464	-8148	2223	-12727	-8015	-10832	3652	12672	459	1787	-765	-15788	1588	-2472	4392	4494	2684	-15384	-1588	2012	8669	18669	3081	121	111	1
-9504	-6164	7932	-5237	-24466	-28909	-5136	4000	-9480	9789	-32768	-8073	-11188	-184	-8208	8273	-10887	-4201	-10660	4000	12448	248	1513	-941	-17684	2524	-2952	4737	7489	3600	-14328	552	3412	16630	22993	3939	109	106	1
-12396	-5860	8716	-8976	-27032	-30376	-5896	5796	-10288	9312	-32768	-8671	-9188	2168	-8848	14303	-10557	-934	-10804	3868	12308	101	1372	-1502	-16380	1324	-1044	5378	4918	2870	-15040	5104	4012	19067	19066	-771	102	101	1
-15292	-6496	10164	-13010	-28947	-31003	-7320	7724	-10836	3006	-32768	-8771	-6948	4664	-9016	17831	-8932	1290	-10756	4016	12332	133	1444	-1937	-16000	788	-304	4821	5106	3462	-17332	11472	-4592	13400	11673	-3156	94	97	1
-18252	-7616	11824	-16126	-30133	-31588	-8656	7808	-11876	-4853	-32768	-9769	-5752	7656	-9024	16275	-6654	1774	-10824	4096	12432	284	1524	-2757	-16492	2960	-896	3520	5660	4255	-16964	9172	-2552	1521	8433	725	126	114	1
-21880	-10304	13868	-18251	-30484	-32548	-11216	7184	-13956	-9653	-32768	-12946	-5404	7000	-8760	14990	-3412	5256	-10128	4196	12852	126	1694	-3678	-14308	76	-1664	1845	7223	4162	-14804	3344	2980	1198	9360	418	120	111	1
-30872	-14480	15120	-16620	-29825	-32768	-15984	7292	-13528	-12211	-32768	-16401	-3076	8116	-7120	11073	-1123	7062	-10772	2796	12880	-181	3061	-3126	-15920	-460	-2388	1755	7489	3514	-15612	1272	2484	14	9459	343	110	106	1
-32768	-8084	15360	-13800	-25713	-32768	-20056	6644	-16828	-10043	-32768	-18140	-7992	2572	-3248	8249	-670	4413	-10472	3040	13308	-223	4662	-2901	-16692	-988	-952	1188	8694	3958	-18520	-592	3588	-1830	8038	-600	131	117	1
-32768	1524	12388	-18521	-20159	-32768	-22684	1120	-14780	-9649	-32768	-12608	-17248	-3740	5612	9881	-3164	-347	-10772	3356	13284	-560	6624	-3298	-17096	-176	20	629	10592	4606	-16544	-460	5464	275	6599	289	129	117	1
-32768	7448	2308	-17345	-16089	-32768	-22152	5020	-12600	-5584	-31889	-10616	-24356	-3504	21456	6965	-2306	-4275	-11408	3124	12976	-908	9372	-3829	-17120	-100	-428	464	13221	4694	-16580	-884	5312	5879	5455	930	138	123	1
-32768	21760	-5968	-9103	-8503	-24849	-13168	1216	-14260	6022	-18609	-7409	-22280	400	32280	5348	2745	-510	-11680	3052	13140	-1617	11923	-4779	-16836	668	-1000	971	14592	5548	-15816	4536	2100	11195	4744	-1644	121	111	1
-32768	32767	-9292	-8739	-835	-8320	-6088	2504	-8792	-3899	1177	-2031	-20564	508	32767	2365	3697	426	-11460	4560	13424	-2656	15050	-5867	-18420	1500	-832	958	16388	5836	-16864	9144	636	10552	5600	-2059	90	96	1
-32768	23304	-5588	701	396	10488	-6232	-2972	-10208	-239	18464	3622	-17072	-1092	13188	-9678	4431	-1332	-12164	4280	12756	-3988	18478	-8104	-18996	-216	-884	3196	17760	6165	-18256	6288	2572	9959	5309	-1783	115	108	1
8392	-13564	32276	13067	-3136	27261	-27236	-288	23880	-15083	22441	3036	-12412	592	1336	-12795	9310	-3745	-13144	4608	13540	-5250	23347	-10762	-20752	-572	444	6671	20073	7197	-19064	1412	7816	9066	4746	-1510	125	114	1
7892	-10420	2284	15168	16443	32767	-30976	8648	-5488	2268	6965	-4300	-17356	9664	3028	-20388	10617	-2071	-14136	7812	14872	-7885	27618	-15137	-24568	-5876	2624	8676	22084	8508	-22864	1480	12380	12940	492	-665	120	111	1
-20408	-7440	13904	2011	24592	11065	-13268	11372	-248	6357	11569	5663	-27620	2216	4864	12979	3336	3498	-17096	9668	15668	-10300	32767	-21764	-23008	-5020	4792	9878	24896	9957	-19240	-6064	15660	6572	-13158	-2998	183	149	1
-22284	1592	21824	-3685	15272	16406	-20088	8584	-5272	-5377	21106	4037	-19980	-7380	5160	17612	4049	-957	-18676	5528	14132	-10128	32767	-26099	-26136	-532	1720	5796	27914	12065	-22668	108	10628	13859	-12225	-5035	85	92	1
-32768	-32768	-12940	2039	11794	5446	-20744	-8580	-14236	-9413	20114	572	-13692	11604	-11740	-2876	11771	1941	-20548	6624	19488	-6876	32767	-28821	-29020	660	1140	5842	29142	11439	-21860	11220	460	15824	-18438	-2367	90	95	1
-16488	-2064	10592	7003	3335	10180	-15264	-14340	-13084	18520	13996	2068	-12336	-8896	-11908	-14395	16548	-3073	-29840	11740	25792	-8882	32767	-32768	-29664	5188	-4652	7580	27508	10100	-26584	9308	-2476	2559	-22931	1281	101	102	1
-13296	-4668	12764	6536	428	6335	-17412	3896	-10268	32767	5777	8566	-14508	-17804	-8892	-730	12106	-4449	2520	16692	19848	-14489	32767	-32768	-23896	476	-5360	4200	18474	2172	-30292	4804	-6524	-8055	-26725	4115	139	123	1
-11264	-6052	11168	4800	-639	3639	-15748	13164	-5992	13921	4234	3130	-19600	68	-5272	17322	8809	-2432	-32768	11104	32767	-10996	20777	-32768	-24028	356	-5620	2549	17025	1191	-28568	-1280	-5892	-12572	-27761	5003	113	108	1
-10464	-6824	10652	3116	-704	2424	-14904	9940	-3684	-10327	10871	-1415	-17520	9736	-680	10130	8597	2590	-21388	7724	31788	7703	-18570	-19801	-15768	-3256	-12728	237	10772	-1064	-28264	-3536	-1804	-6280	-29489	3084	121	112	1
-10004	-7744	9776	1645	-483	1482	-16396	0	-4204	-18088	12326	-2220	-13892	5028	-1144	-3469	11135	6067	-3832	9864	10848	20075	-21456	-8142	-10548	-2672	-10072	6425	-261	-7202	-25596	1140	-2524	603	-26334	5214	137	120	1
-10104	-8732	8856	1394	-432	1532	-17104	-1940	-3744	-16274	11554	-1867	-14812	-1672	-2604	-10619	12927	1871	-5872	15780	7308	12002	-21430	1865	-7772	3028	-13288	8057	-8912	-6662	-23204	608	-4028	780	-26969	5093	140	123	1
-10260	-8768	8668	1997	-1031	1901	-16688	-1452	-4240	18139	2187	3113	-15920	-5192	-2216	-8587	13176	1680	-4236	10980	7148	2285	-22495	13704	-5744	1716	-12536	4366	-18273	-5568	-19192	1044	-5836	1244	-23269	5208	141	123	1
-10256	-8168	9184	2456	-1297	2094	-15988	8096	-2664	5302	3089	3044	-15808	-3660	-2452	-1181	11395	1975	-3512	4388	9792	5571	-20138	24521	-5088	3440	-12012	-2272	-22912	-8589	-15840	2144	-5964	1415	-18691	5140	110	106	1
-10076	-7748	9648	2164	-996	1787	-14088	6268	-3312	-10738	7100	-725	-16804	2048	-1624	2873	11001	2863	-7944	2052	11704	11084	-19775	30692	-4572	428	-11948	-6107	-25501	-11095	-14476	1904	-6616	-2901	-17612	5862	115	109	1
-10260	-7220	10052	1150	-113	1193	-17824	-532	-3604	-11727	7670	-1077	-16180	5552	-1444	-3210	13736	3562	-10812	-816	14156	16472	-23213	31465	-4972	504	-10624	-4926	-32768	-10755	-11768	1592	-7984	-6979	-14314	4522	115	109	1
-10320	-7644	9860	310	615	854	-18316	-3420	-3620	2322	4977	1516	-15192	1856	-1652	-11564	18621	4755	-13132	-2112	14832	20897	-28432	29157	-4916	-92	-11108	-1901	-32768	-10260	-8468	908	-8176	-11671	-10152	148	125	114	1
-10320	-8052	9388	33	848	942	-16616	2936	-4408	3546	3430	2028	-14784	-3616	428	-10004	20988	6043	-16008	-2172	15196	24882	-32220	25744	-5004	-92	-11160	-1252	-32768	-10389	-7496	-248	-9592	-14852	-7306	-2426	126	114	1
-10380	-7792	9508	-179	823	1093	-15832	4460	-4396	-5245	4568	814	-16348	-3840	-4424	-343	17198	4275	-18740	-876	16012	25831	-32768	23288	-6704	936	-12664	5267	-32768	-13894	-6476	-708	-9824	-14894	-3817	-3102	125	114	1
-10316	-7556	9792	-520	1164	1076	-16104	2468	-1964	-8321	5828	-508	-16324	-1308	-8652	3058	11580	4623	-23780	1792	16992	23775	-32768	24047	-10060	2360	-13804	6697	-32768	-13966	-5724	-960	-10644	-13108	-115	-2907	120	111	1
-10428	-7324	9632	-1028	1407	1033	-16780	-1828	-144	-2579	6023	810	-16408	-1392	-2168	5734	7184	5748	-30772	2028	18392	19780	-32768	28505	-15704	2708	-14960	4783	-32768	-14751	-6024	-1484	-8984	-13168	4313	-2915	119	111	1
-10472	-7636	9504	-1626	1443	1159	-16340	-1392	168	2751	6692	2617	-16584	-1964	4428	7526	7943	5183	-32768	-2832	19056	18733	-30360	32767	-16984	2740	-14472	5155	-32768	-14840	-8660	4008	-3032	-10255	3173	454	114	108	1
-10412	-7948	9564	-1735	1707	1695	-15916	-48	552	2374	8549	3185	-17628	1684	5368	5091	6558	2640	-32768	-10260	14844	17616	-27893	32767	-24768	7448	-13460	-838	-32768	-14985	-14020	6860	8396	-3095	-305	5904	114	108	1
-10036	-9144	9944	-1070	2027	3086	-16648	-2020	1164	2160	11692	4002	-17264	2688	4276	-1545	6207	1027	-32768	-16508	336	13163	-25824	31620	-24676	5864	-10528	-5516	-32768	-14164	-20484	-2496	23660	2678	2469	8565	118	110	1
-10468	-8756	10392	458	4495	4839	-18416	128	268	1034	14688	5360	-19464	1412	1500	-9023	5531	-756	-32768	-32768	-18448	13528	-15032	18170	-10856	2976	-4228	8007	-20171	-2186	-26848	-3508	32767	-8035	4200	10397	114	108	1
-10924	-7488	11312	1153	6675	6172	-16972	600	-1424	553	16436	6152	-16236	-1148	1716	-13873	4550	828	-32768	-32768	-27300	18194	2082	6013	-8296	2984	-2648	8276	-16179	-2525	-19652	-4124	31320	541	604	-2176	121	112	1
-11288	-8508	11564	1881	9194	6803	-18132	-512	-3724	462	17917	8352	-17436	-5128	-4076	-15768	3186	2229	-32768	-23332	-16712	-4875	11366	-15010	-12556	10716	-8716	-1772	21311	11135	-13820	-6572	11908	11675	2589	-4817	139	123	1
-11356	-11480	11400	1046	11609	8741	-21948	1676	-3884	-2612	18785	9327	-21248	-4564	-3552	-13961	1948	2651	-32716	32767	32767	-31457	-1839	-20391	-14680	-1568	11864	-11532	23675	15034	-7240	460	3856	18912	2459	-1472	127	114	1
-11556	-11016	11756	2649	15148	14474	-21592	4608	-2332	-8813	20216	8335	-20712	-816	8600	-8141	-4868	3223	32767	6112	-20064	-19505	12925	-9914	-32768	7028	-2168	-23738	394	6753	-476	3504	-13656	17430	18602	5330	104	103	1
-11924	-16432	11820	3101	19354	19082	-24460	3240	4716	-15332	23129	8682	-18868	780	10632	-9350	-5662	2344	-32768	-18444	32767	-17354	26113	-9079	-15104	-27884	-2968	-26588	-7446	4281	-32768	17580	11108	-21468	-4354	15156	107	104	1
-14096	-15600	13328	4168	23988	28961	-24964	304	2972	-12329	24497	9458	-20080	4684	12024	-12073	-6570	1234	-15136	-14024	27656	-3711	16971	-11352	-21472	-9952	-8972	-9429	14114	9986	-32768	-11112	16324	-25894	3569	8973	111	106	1
-17324	-14484	15792	4232	30027	32767	-27264	-2848	-1232	-3360	24203	11687	-23516	-9520	648	-11948	-8499	-799	-32768	32767	-3332	-6553	5906	-2204	-18996	11872	-2692	958	16861	12330	-6136	-23172	-2144	-16327	20916	1687	121	111	1
-30260	-24824	14604	4950	28586	32767	-29136	-788	-4572	-2694	25124	14198	-21968	-14892	-2804	-2475	-18257	-7905	-11428	-6056	13976	-10016	227	-7621	-16900	14960	-6576	-9635	10297	8496	-10652	12956	-18460	32767	10784	-7971	123	112	1
-23108	-20024	21008	14277	21939	32767	-28428	-3156	-3732	1247	20317	12875	-26012	-6120	-5804	12594	-24881	-11997	-11388	2592	13744	-3916	-1546	-4158	-15708	1588	-6364	-7121	8096	2403	-13824	31648	-4488	12575	4918	8738	125	114	1
6224	-27200	13800	21484	25314	32767	-22980	512	-7864	15650	12158	15100	-29904	4868	-6620	17392	-26208	-11692	-10008	1944	14208	-3490	-2030	-4212	-17968	1224	-5368	-2162	2900	5099	-20584	11708	-5368	-22420	16942	15638	119	110	1
-23656	-21872	24940	15271	-255	16150	-14896	9724	-24232	14716	9813	15686	-28292	8364	-4184	17469	-25635	-7241	-9536	1688	14412	-1833	-555	-2392	-18432	1336	-4824	-6111	6368	3763	-19848	-13504	-84	-14635	12348	2952	96	92	1
-3212	-13444	11084	4315	-10788	1078	-15316	10156	-6660	5593	3074	7038	-26480	5204	-3584	8905	-22637	-8432	-10156	2880	13484	-406	1300	-1424	-16900	-2844	-1492	-5495	5635	3696	-13748	-5860	4636	3888	11479	-5549	102	101	1
-1408	-12276	5928	5291	-10052	-1992	-9364	3880	-9996	-7139	-5386	5884	-22584	1492	-5784	907	-19565	-11683	-10428	4092	12644	-273	1466	-1453	-16376	-2804	-880	-4100	5135	3421	-14476	7324	2248	11129	13720	16	104	101	1
-3056	-10856	5436	9130	-10544	-7899	-7820	2812	-10304	-4418	-9991	1441	-20464	48	-6020	-1455	-17011	-11964	-10224	4772	12644	-1030	506	-2419	-16628	4916	-320	7760	5595	4883	-16468	10284	232	8290	13287	4850	107	103	1
-4260	-9724	5736	10114	-12905	-15296	-6532	36	-11572	1083	-17517	899	-17396	-528	-7120	-1047	-15225	-12498	-10492	2168	13724	-1256	176	-2135	-17748	1880	-2396	945	5369	3662	-17604	4548	4	2660	12193	1230	126	115	1
-6288	-8168	5564	6728	-16958	-21686	-5788	384	-11224	6673	-23865	1267	-15440	-1040	-7252	1161	-13109	-12680	-10364	2596	13552	-861	471	-1629	-17588	-796	-2544	-96	3701	2227	-16612	668	364	1635	13648	658	132	118	1
-8448	-7516	4868	2198	-21405	-25987	-5332	1672	-11628	8931	-28008	-121	-13796	-2064	-7512	6712	-10611	-12595	-10560	3048	13208	-731	837	-1513	-16912	2720	-2344	1037	4134	1389	-15316	20	2124	6025	18716	3028	132	117	1
-10144	-7688	3900	-1142	-24985	-27532	-5280	1044	-9916	8140	-32284	-2174	-13884	-3052	-8932	14387	-11448	-8811	-10588	3532	12788	-914	944	-2023	-16608	1008	-1764	3884	4163	3119	-15688	1332	3672	11583	18808	3935	114	108	1
-12120	-8552	3264	-2500	-27122	-27677	-5332	980	-9940	8404	-32768	-2436	-11892	-704	-9156	21941	-11227	-4564	-10172	2628	13236	-806	1326	-2203	-16084	-1260	-704	5856	4222	3600	-16512	4724	-300	11564	12102	965	113	107	1
-14300	-8532	3048	-4488	-27959	-28271	-5964	2756	-11164	9739	-32768	-4935	-8072	2756	-9508	27901	-10446	-821	-10400	2428	13264	-3	1962	-2229	-15368	672	412	4521	5795	3572	-18396	10444	-1796	3451	8943	-981	112	107	1
-15828	-9204	3388	-8283	-27478	-29710	-6652	5464	-12000	6588	-32768	-6405	-6848	6500	-9176	25782	-9493	1906	-10228	3084	13340	32	2371	-2348	-16324	964	396	2671	6528	4284	-16500	7392	2980	838	8144	1312	113	107	1
-17656	-9112	5000	-14052	-25094	-30924	-7836	7912	-12680	-949	-32768	-9594	-5476	9416	-8340	20648	-5643	4742	-10840	2840	13008	-797	3619	-2969	-15980	-1192	-744	2997	6929	4890	-16140	1056	3440	3981	8654	1398	116	109	1
-22768	-10512	7668	-21251	-22863	-31929	-9828	8920	-14512	-9564	-32768	-14903	-6140	12788	-7500	12054	-2664	7087	-10628	2188	13116	-784	4606	-3010	-15644	-108	-1456	2752	8085	5987	-15968	-3224	2364	4909	7717	650	124	113	1
-30584	-12120	10292	-24267	-20131	-32768	-13600	7084	-15364	-14833	-32768	-21183	-6948	13492	-4572	3732	-1178	8365	-10608	2256	12964	-657	5797	-3408	-16152	-308	-2312	3038	8865	6552	-17108	-1848	1504	4857	6837	613	112	107	1
-32768	-4424	14080	-23304	-15502	-32768	-17780	4516	-17912	-13078	-32768	-24119	-9068	3900	-112	-450	1074	5523	-10636	2132	13280	-959	7400	-3636	-16864	-56	-2644	3394	9300	6676	-16408	728	1360	7524	5578	1826	124	113	1
-32768	7520	16976	-28192	-9660	-32768	-20528	2048	-15876	-12712	-32768	-16293	-15736	-7048	3612	-2844	6355	-660	-10996	1496	13224	-998	9475	-3615	-16416	772	-2080	3169	10467	7236	-14456	3088	1864	9126	5021	1718	104	102	1
-32768	7960	9784	-20713	-10045	-32768	-21200	2416	-13008	-10784	-28210	-10393	-18420	-4064	17776	-9189	3244	-8753	-10968	1496	13240	-1075	9831	-3590	-17664	888	-1668	2538	11657	7799	-16060	6860	1368	10891	5700	-56	133	114	1
-32768	17472	-7124	119	-8166	-25356	-12328	-696	-7484	4574	-14669	-6397	-22552	-6132	25380	-4213	9293	-10463	-11900	2124	12784	-1187	14881	-4258	-16556	864	-1112	3146	13181	7975	-15740	6020	1344	8496	5645	-877	157	132	1
-32768	20796	-7540	9134	5427	-3162	-7788	3060	-10292	5436	2422	-4586	-23204	-3688	23628	-9208	5468	-1309	-11908	1256	12588	-969	18715	-3898	-16232	248	-2224	5319	15448	8560	-14672	3584	2608	7265	5933	-127	120	112	1
-5596	23520	-1244	25377	9043	27394	-12016	172	-9824	3467	17767	1138	-18528	-7224	13456	-5125	6075	-1024	-11440	1308	13064	851	26198	-2115	-18124	-7516	-3656	12653	18422	8858	-18148	-392	3788	13524	5813	-836	118	108	1
13328	-27772	24776	-2238	10902	18540	-32768	9920	32767	9715	7429	6428	-21112	2432	3488	-1617	12369	-3349	-13076	3332	15652	298	32767	-2539	-22172	-6624	1172	21583	22343	9706	-23540	-4668	9956	16292	2818	-2643	112	112	1
-32768	-9096	25580	6319	20992	23884	-19452	5796	116	5930	10623	-631	-32228	1476	22964	5824	-9795	1593	-14772	7644	15100	-4141	32767	-9217	-27464	-1888	5104	19139	24189	11038	-26684	-2116	19280	16648	-14929	-4907	132	117	1
-24628	-8704	11692	-227	11782	10912	-9604	3856	-13684	6982	26045	2237	-14952	-11364	-8084	25042	13903	7588	-30512	7352	20616	-5295	32767	-15852	-27600	-1288	5396	17710	24334	10832	-22748	1996	10020	22512	-12688	-6221	93	96	1
-17216	-16948	4524	3585	7506	8644	-16436	-10572	-13220	-8088	23122	1355	-5216	9664	-23632	-1362	11962	-2091	-26468	13260	17448	-1919	32767	-20129	-28640	288	844	6906	26851	10791	-24180	11808	-3572	23944	-18451	-3803	68	83	1
-13224	-5004	11436	6627	2653	6265	-17704	-5132	-14748	23354	9658	4582	-5392	5236	-12376	-3833	6069	-9320	-25900	4776	18504	5413	32767	-23295	-26284	-688	-6100	8409	25278	9939	-23100	6544	-156	6212	-23571	899	123	112	1
-10160	-7532	10928	3830	1382	2559	-17800	14040	-7804	25669	2979	7372	-21300	-13384	-11780	-17350	15103	-833	-17632	18668	20584	4352	32767	-29541	-22108	472	-7084	9788	20994	6252	-27064	2256	-5964	-1516	-25611	3055	160	133	1
-10412	-7196	10924	1254	1155	1253	-13604	15176	-6068	-12071	8094	-488	-21776	2148	-5356	10301	11035	505	-32768	10488	32767	6732	13809	-32768	-16760	9952	-16860	16179	-7512	11546	-25492	-2724	-4452	-5308	-25983	3680	118	110	1
-9844	-7748	10116	-561	1631	-469	-16720	212	-4980	-20110	11226	-1949	-14864	6672	-2376	8239	10150	5953	-13840	7920	25116	17334	-26075	-22219	-12212	-6064	-6348	5293	21105	-3203	-27068	200	-2468	-4088	-27087	2981	117	111	1
-9628	-9992	8452	10	750	-256	-19148	-11584	-2652	3482	4963	-2347	-13548	1104	-1152	-107	10448	9386	-4072	8800	11004	25408	-26831	-18830	-10240	-696	-10692	13898	-3729	223	-23476	1080	-3284	1918	-23977	3656	129	116	1
-9636	-10044	8452	231	609	-132	-17544	732	-1520	14204	2086	4196	-15048	-3236	128	-7069	12301	4528	-5136	14776	7228	15369	-28379	-12952	-7980	2108	-11780	11610	-9321	-2841	-21728	1524	-5036	1020	-25645	3088	135	120	1
-9556	-10240	8240	1072	-147	617	-16696	6108	-1072	-3035	3420	2222	-18236	-4512	1208	-2222	13377	-8	-456	10740	6220	5419	-26688	-2448	-5980	-932	-11400	8404	-15546	-2751	-18496	1880	-5024	1873	-22759	2986	125	114	1
-9644	-9172	9048	1352	-451	1218	-15788	5472	-1324	-6346	3834	1520	-16152	-1828	8	-1518	14279	980	600	5308	7296	7981	-19443	10355	-6216	924	-12148	2427	-20299	-6100	-16440	2924	-4756	-1161	-18801	3079	111	107	1
-9564	-8448	9624	584	80	980	-17876	-3208	-892	-8485	8448	-552	-14756	848	872	-6683	12812	5076	-4456	5120	9308	12498	-14510	21706	-5516	-492	-11404	-2625	-23729	-7029	-14808	3012	-5808	-5398	-17825	3720	110	106	1
-9628	-9308	8728	339	360	1077	-17680	-2464	-1964	533	5165	2219	-16504	-1324	1328	-8553	12218	5534	-8176	3332	12008	11024	-15868	27762	-4496	-1104	-11128	-3073	-28389	-7807	-11748	860	-6640	-9543	-14968	2392	121	112	1
-9724	-9256	8736	798	16	1543	-16020	188	-3516	2180	3701	2774	-16472	-2404	-488	-10336	14883	2709	-10240	-1516	13996	12224	-19247	29161	-5472	-368	-10928	-2153	-32362	-8972	-10120	-312	-5924	-10336	-12981	-340	129	117	1
-9748	-8632	9228	777	-8	1616	-16084	3436	-3108	-2710	5543	2455	-16712	380	-1852	-5868	16486	2268	-13088	-3740	15076	15805	-23150	26518	-6272	312	-11100	-1416	-32768	-10654	-9112	204	-6024	-10334	-10740	-2909	141	124	1
-9780	-8184	9728	354	468	1624	-16588	2884	-2112	-5380	6731	1090	-16616	1656	-3156	-153	12875	3871	-16284	-3360	15644	17523	-27861	21775	-7044	380	-11420	2066	-32768	-12398	-8456	260	-6368	-11234	-7305	-3301	137	121	1
-9916	-8412	9388	-108	973	1347	-16508	2664	-2208	-5612	6802	957	-15524	-2400	-5060	3018	9732	5976	-18284	-2624	16076	17731	-30713	17681	-9280	656	-11680	5614	-32768	-12753	-7596	848	-6868	-11989	-3437	-3670	134	120	1
-9864	-8516	9068	-58	1152	1413	-16692	-500	-1628	-1162	6010	2802	-15324	-4192	-4108	1032	8656	6199	-21280	-508	17232	18857	-30842	17365	-12276	1256	-13244	6867	-32768	-13071	-7760	-324	-6060	-11422	240	-2813	119	110	1
-9828	-8572	8916	265	989	1877	-15700	340	-1068	1312	6510	3202	-15424	-1412	-928	1169	7416	5456	-26812	3348	17048	16204	-29313	20223	-16868	2536	-12476	4030	-32768	-13626	-9064	-1032	-3140	-8645	2456	-2202	116	109	1
-10000	-9632	8384	996	175	3192	-15780	-1928	-1284	5833	7665	3181	-16672	1608	-812	4186	4480	3319	-32768	2364	16232	10101	-25755	24874	-21024	3380	-11216	-1957	-32768	-13705	-12420	1108	1880	-5221	590	-1186	109	106	1
-10228	-8896	9076	1241	62	4238	-16212	-916	4	8091	9231	3781	-16200	1588	1652	7479	6612	2657	-32768	-6436	14516	8796	-22593	31601	-21076	7692	-9952	-9138	-32768	-14160	-15624	3552	9432	-327	1	1480	111	105	1
-10456	-8660	9556	813	250	5005	-16768	-368	-1196	8003	10663	4822	-16588	92	2228	2341	6765	1758	-32768	-12284	5372	6475	-21225	32767	-21404	2408	-9272	-13839	-29517	-16794	-17644	864	18208	-1289	804	5716	126	115	1
-9964	-8648	10688	1898	1564	5563	-16716	708	-1784	6211	12625	5149	-17452	-1212	1120	-3331	4065	189	-32768	-20452	-11676	16	-17640	29475	-15640	996	-10276	-6038	-19145	-6510	-19368	-3096	28028	-12961	6328	10233	137	120	1
-10364	-8188	11064	2743	4488	6730	-17404	2240	-1656	2356	14268	6474	-17940	-348	-780	-6013	3551	1255	-32768	-32768	-17352	9199	-4326	15874	-7676	2752	-2788	3885	-4226	3380	-19932	-5592	28020	-1891	3112	2204	115	109	1
-10552	-8072	11960	3230	6921	8000	-17228	-1292	-2688	1930	16377	7698	-17780	-2172	456	-7022	2307	1733	-32768	-26968	-5116	-214	5365	-1363	-10488	9100	-4040	724	11549	8550	-13944	-4432	17852	5564	840	-5580	105	104	1
-11452	-9452	12240	3721	9221	10089	-20340	168	-2920	1489	17699	9041	-19752	-2368	792	-10427	417	1148	-25572	7644	26860	-11246	10251	-17730	-14172	-2548	6480	-9027	15542	12606	-14316	396	13308	7245	-586	-1379	105	104	1
-11188	-13296	13296	4690	11702	12613	-21740	3124	-1824	-3749	19510	8734	-22084	-1968	4724	-9653	-4749	1071	6380	14148	3204	-3968	15352	-13654	-32128	-3192	-176	-5175	7712	8422	-11924	-3572	-1228	17892	9405	2068	115	108	1
-11644	-13472	13340	6412	15956	19823	-25468	3964	2344	-10054	22264	7578	-20920	-2024	7016	-7927	-6288	-242	-27368	2792	22584	-6275	22423	-7753	-15144	-6680	-1328	-5202	5915	6918	-28844	1220	3912	5607	991	395	119	111	1
-12564	-14140	13164	4531	19956	27709	-26092	2824	-752	-11347	23641	8010	-21236	2520	13600	-11680	-9994	-1558	-13792	-5056	20296	-1218	16953	-8705	-17372	-3280	-8268	-3218	12916	9136	-19492	7188	2064	-7735	4159	5746	122	112	1
-13644	-15940	13660	3256	25819	32767	-26748	936	2140	-9213	23792	8693	-21120	-980	2964	-7243	-10982	-1494	-13080	7840	12300	1890	15607	-6841	-15772	-932	-5716	-1068	13210	7172	-10068	-5820	-7612	-2959	14054	6323	122	112	1
-31608	-21252	15000	4758	26643	32767	-24264	-4212	-5796	-6342	24516	11282	-18564	-6220	1224	-7090	-19147	-7537	-32768	12604	6820	-4482	6138	-3576	-21188	12180	-3600	-861	10400	8234	-13792	2588	1080	17099	1842	-4891	116	108	1
-21780	-21608	13832	6980	23102	32767	-25976	-68	-9432	-6874	24325	9503	-23544	-4840	-4784	1308	-21717	-11622	-11652	-1436	13620	-7006	2070	-5381	-16456	7360	-4920	-7263	7680	4779	-21672	22876	-5636	9551	13155	5297	121	112	1
-12200	-26200	12640	11024	19360	32767	-21896	852	-9580	-305	17216	10538	-24228	-4448	-6036	1511	-21559	-12268	-11584	3096	13144	-5057	330	-3970	-16000	464	-2840	-4933	6096	2778	-15044	11936	-608	-16732	11338	8694	116	109	1
-32768	-18688	18628	16176	7124	32767	-13404	5268	-18244	5384	9712	5204	-29164	4064	-7468	5956	-21738	-12123	-11168	2684	13328	-4731	-660	-3998	-16280	824	-2364	-3122	6111	3687	-14688	-2964	2180	-14490	9604	1480	115	109	1
-6976	-11756	12764	-328	-12263	11368	-10684	9900	-12196	-1278	7852	3265	-25652	5228	-3836	6571	-21383	-7380	-10752	3312	13356	-2437	-684	-2809	-16000	-956	-1260	-2417	8331	4432	-15588	-4088	3964	-5318	8833	-3814	113	107	1
1232	-14232	4424	-4881	-9789	1171	-8880	10660	-5072	-11117	427	-1062	-21588	5384	-4312	2353	-19561	-8290	-10520	4604	12188	-2453	-880	-3424	-16480	1300	-788	-2016	6922	4140	-15972	-3228	3924	-3372	8966	-3484	102	100	1
2044	-11232	3948	1406	-3320	-6027	-6020	5020	-7396	-12697	-5256	-5898	-18892	6304	-4384	-3044	-17415	-8380	-10612	3644	12348	-2803	-988	-4126	-16568	1616	-1716	-2891	5418	2758	-14696	3840	2032	-193	10876	3828	133	119	1
-580	-7736	6100	-105	-192	-17047	-4664	3308	-7668	-1910	-9826	-6704	-15860	4624	-5064	-6368	-15631	-9038	-10672	2928	12732	-2795	-1043	-3789	-15640	-436	-2960	-475	5905	2868	-15172	3872	1168	844	11132	1213	111	106	1
-2968	-7532	8224	-2948	-2008	-24385	-5244	4620	-8712	3265	-17297	-7477	-13464	3016	-4724	-7487	-11792	-9516	-10804	2556	13068	-2208	-1148	-2817	-15820	-1016	-3932	1525	6168	3107	-16888	1692	432	22	11579	379	109	105	1
-5872	-4156	9720	-6698	-7482	-28445	-5080	5136	-8156	7643	-21931	-9826	-13740	1360	-5416	-5964	-9811	-9236	-10600	2516	12988	-1156	-382	-1750	-16296	300	-3972	1416	5752	2798	-16676	-348	684	2542	12014	390	119	111	1
-8704	-2412	10208	-13141	-14048	-29316	-5376	5092	-7424	9862	-26795	-12267	-13620	64	-4924	38	-8145	-6550	-10768	2844	12932	-264	289	-1175	-16744	632	-3140	483	5491	2385	-15828	228	1260	7092	14679	1078	121	112	1
-10388	-2860	10280	-17971	-19732	-28062	-7296	6880	-7376	11429	-30477	-14143	-12260	3680	-4760	6090	-7990	-3192	-10720	3156	12840	-705	281	-1486	-16792	1136	-3220	846	7413	2362	-14952	3736	412	10035	17207	351	121	112	1
-11652	-3384	10732	-19631	-22280	-25527	-8540	11488	-7200	5819	-32741	-15871	-10272	5300	-5764	10752	-8562	7	-10732	3472	12580	-1359	-27	-2040	-16416	1816	-2632	785	5408	2270	-15784	6740	-704	8259	18616	-967	118	111	1
-12940	-3724	12032	-20694	-21707	-24766	-8116	11804	-9236	-3062	-32768	-16752	-8236	5876	-5744	12386	-7232	1938	-10676	3256	12892	-1446	-137	-2525	-16628	1260	-2444	727	4947	2300	-16696	6032	-1108	1575	18033	-561	117	110	1
-14528	-4628	14152	-22320	-19427	-26259	-9972	10132	-10036	-9319	-32768	-18420	-7864	6504	-5672	9566	-5148	3320	-10852	2664	12884	-1672	139	-3269	-16512	120	-2436	733	4515	2453	-17128	4128	408	-2588	16099	-166	109	105	1
-17584	-6072	17040	-24255	-17763	-28074	-12788	9088	-11048	-13555	-32768	-20505	-7864	7112	-4904	2296	-2510	4577	-10720	2220	13380	-1073	944	-3087	-15624	-676	-2116	1199	5533	2759	-15452	2120	1692	-3675	12700	1075	107	104	1
-22888	-7848	20496	-26148	-18325	-29063	-13120	8992	-11272	-14179	-32768	-20684	-9584	5560	-3880	-4586	-451	4404	-10892	1884	12896	22	1830	-2621	-16192	-184	-1680	64	6774	3226	-16352	280	2736	-3972	10567	722	109	105	1
-29116	-8268	21788	-26413	-20982	-29290	-19980	4956	-12656	-16503	-32768	-23685	-8408	2404	-3384	-9470	2666	2302	-9700	2408	14376	141	2808	-2425	-12536	-2280	-1180	-876	9262	3389	-16416	272	3836	-4642	9174	442	102	101	1
-32068	1648	23156	-27821	-20890	-29895	-21844	3788	-12148	-16254	-32768	-21570	-15396	-2872	-1900	-13182	5356	-92	-10820	1872	13560	-781	5266	-2359	-14288	-2028	-1548	-729	8829	2788	-17664	476	2764	-206	9249	61	127	116	1
-32768	7148	18452	-30273	-21613	-29071	-21512	6556	-11084	-16116	-32264	-14923	-18576	-4332	8304	-9767	3831	-5993	-10264	1540	13776	-49	8618	-1565	-17324	-1932	-2464	667	12334	3372	-17076	1100	1908	3221	8436	-812	124	115	1
-32768	14624	8400	-18390	-17363	-24792	-17208	6696	-8328	-9852	-22161	-11017	-22760	-8912	22432	-11097	5497	-7948	-10704	1368	14108	1208	13344	-611	-15812	-4216	-2200	4745	15969	4412	-16900	-44	3012	5499	7340	-1445	124	114	1
-32768	32767	-2112	-19076	-8474	-12177	-5532	2308	-3920	-20076	-3189	-5339	-21860	-13964	30440	-12400	4674	-2179	-11316	3808	13996	-395	16705	-1234	-16796	-460	312	6178	17404	4362	-17580	-1036	5292	8220	4305	-3076	136	120	1
-32768	28396	-1580	-11559	-5586	737	-4596	-6500	-6500	-10772	14505	3672	-15996	-6192	15220	-10667	8936	2781	-11740	4200	13064	-3276	18801	-4744	-19696	1088	544	2259	18728	5162	-18352	4684	4936	9418	1065	-3567	137	120	1
-25708	-22164	18352	19294	-7596	20703	-23076	4192	12224	-11127	17376	1445	-11408	-1844	-2952	-9819	11837	3663	-11984	5480	13568	-5483	22465	-8448	-21128	-1748	1924	5803	20722	5257	-19792	7428	7684	11947	-5995	-1643	136	118	1
4620	-3988	10376	24833	493	32767	-32768	-7612	1172	7443	2601	-4701	-18360	1468	-7572	-9848	12347	7350	-13484	7056	14980	-8603	26004	-14043	-22816	-3144	1852	6708	22901	6580	-19544	-2224	8212	2241	-8106	-2763	131	117	1
-19564	-9364	13912	6836	17564	10284	-17088	22496	1576	27635	64	11686	-32768	-1000	-1072	32767	4151	6798	-15676	4968	14656	-12314	31605	-19704	-24344	-2680	1048	5115	25138	7181	-21172	-1760	11220	4955	-11580	-6151	125	119	1
-18528	364	20448	1466	10806	14759	-20900	4924	-6304	9796	14457	6757	-31024	3196	3800	32767	-14816	-591	-16624	4040	14736	-14761	32767	-24039	-28116	-1144	-236	3036	26709	6013	-24276	6612	7284	12311	-13328	-5547	117	110	1
-30588	-32768	516	-2306	5481	9516	-17504	-2636	-8568	2897	14414	3727	-5640	11720	6544	-2708	4361	-434	-24044	7404	15624	-15079	32767	-26416	-26948	3980	-2432	-1664	27851	4763	-21844	13568	1028	8836	-16323	-1627	96	99	1
-11564	-6332	13324	6854	5008	7456	-15268	-15748	-9300	13926	12370	2865	2532	380	-13352	-13741	27802	2141	-32768	7176	23760	-18512	29019	-30016	-26964	8648	-6788	-4185	24344	3015	-23380	12592	-3536	-2186	-20066	2611	74	87	1
-11260	-9804	8808	7637	1896	5861	-16356	8396	-4668	11273	5385	5758	-14828	-4468	-14456	-11179	16712	-8682	-6036	17628	20712	-23456	30099	-32768	-21016	4364	-7808	-14440	16857	-1912	-26084	6492	-5528	-14671	-23783	4570	117	110	1
-10548	-7044	10456	5700	881	4708	-16256	7040	-3836	-8485	7777	-1363	-21428	-3528	-5940	-2368	6022	-8624	-32768	8792	32767	-14006	5643	-22059	-11708	6280	-16936	-5296	-9658	661	-24452	2860	-4200	-18372	-24460	4013	162	135	1
-11612	-6736	11024	3195	510	3290	-15428	-232	-4320	-11350	11097	-1579	-17564	-3424	-1716	-1315	7659	3890	-8076	9652	20236	-2034	-20002	-4569	-12964	-3720	-6980	-7666	17301	-12545	-25408	892	-1084	-12106	-25301	4124	113	107	1
-10288	-8668	9344	1605	469	1800	-20100	-6540	-4112	5493	7420	1288	-15416	-1616	-2840	-4396	10222	5972	-2320	11452	9536	-199	-18830	-1342	-10572	4096	-9316	-2000	-972	-10264	-22332	3972	-2208	-7142	-22476	4649	112	109	1
-10132	-9668	8328	1751	317	1733	-16392	-5116	-4200	17688	2008	2722	-13908	-3284	-4256	-1939	12804	3566	-5360	11336	8608	-7397	-20873	4105	-7484	4256	-10300	-1266	-7267	-13590	-19928	6176	-3520	-6846	-20936	4395	127	114	1
-9628	-9872	7988	2604	-276	2376	-15632	4764	-1584	7363	2462	2767	-15128	-2516	-2396	2457	9939	2332	-4040	8172	8220	-8536	-22726	11594	-6148	5076	-9704	-548	-11457	-15200	-16796	6428	-4436	-7117	-18301	5150	136	121	1
-9816	-8784	8832	3233	-767	2973	-14476	3712	-860	-13586	7909	-1285	-17632	-1504	68	1669	7341	62	-5328	5528	8288	-3835	-22421	16426	-7372	6556	-9664	-3134	-16279	-18468	-16148	6052	-4840	-11724	-14697	6426	122	113	1
-10032	-8088	9492	2799	-627	2680	-17640	-4756	-528	-10600	8666	-694	-17716	-1240	220	834	7302	-112	-8552	5536	8680	709	-22935	18831	-6588	6720	-9444	-5923	-19114	-20876	-15052	6932	-5804	-16578	-12652	7438	121	111	1
-10156	-8136	9252	2345	-293	2371	-18060	-5092	-476	3240	5704	2011	-15616	-80	1592	-11337	8217	805	-11828	7028	9116	2112	-25057	20835	-6896	6108	-9856	-7073	-25241	-20680	-15008	6700	-6344	-17604	-12112	7397	123	113	1
-10716	-8548	8968	2379	-614	2514	-16136	-856	-1172	5235	4955	3557	-15788	-1568	28	-8770	9036	-993	-15800	7604	9672	2799	-28207	23066	-6720	5824	-10184	-7226	-28608	-21993	-12624	5184	-6900	-20639	-8873	5877	127	115	1
-10204	-7844	9240	2287	-631	2528	-15900	1960	-524	-1641	7827	2096	-16984	-2652	-1532	-5734	7779	-1857	-19476	7776	9184	3519	-31663	25510	-7052	5748	-9876	-7426	-31700	-23235	-10720	2084	-7904	-22547	-5528	2172	129	116	1
-10128	-8340	9240	2356	-760	2705	-16248	-1880	-792	-2852	9763	1553	-16324	-4164	-2304	-6718	5926	-77	-21396	10444	7384	1330	-32768	28058	-8624	5760	-10580	-9462	-32768	-25122	-9840	380	-8428	-22873	-2019	1377	126	115	1
-10344	-7816	9356	2464	-679	2860	-16340	-2972	-2012	1278	9316	1994	-15244	-3904	-2512	-5025	4759	-54	-24604	11688	8120	-1563	-32069	32539	-9984	5604	-11528	-10800	-32768	-25426	-8880	-1372	-8216	-22854	690	127	128	116	1
-10224	-8272	9284	2616	-266	2924	-16164	-1360	-2340	5468	8680	3184	-15068	-1168	-2112	-3857	4249	164	-30520	13028	9472	-3022	-30971	32767	-13556	5732	-12284	-13573	-32768	-25282	-9452	-3060	-7328	-22654	3064	-6	130	117	1
-10444	-7372	9588	2835	86	3327	-15132	1780	-3444	4435	9439	2401	-15156	548	-2244	-3271	4216	641	-32768	13772	8024	-6277	-30142	32767	-16692	6420	-11700	-19891	-32768	-25514	-11260	-2868	-4656	-23847	4482	259	127	115	1
-10828	-6780	9736	2527	649	3145	-15072	1956	-3768	730	10755	1501	-14500	1380	-2352	-2920	4115	685	-32768	14508	3300	-11966	-28060	32767	-19768	6500	-12760	-29286	-32768	-23764	-13604	-2672	-708	-28419	5392	2331	115	108	1
-10468	-6892	9976	2543	1307	3059	-15424	-268	-4168	93	11576	1233	-14604	1132	-1248	-3712	3797	-98	-32768	3988	-1636	-11337	-22753	32767	-22096	-872	-9696	-25103	-32768	-21704	-15936	-4896	6580	-32768	5612	3733	108	104	1
-10468	-7076	9920	2669	1772	3386	-15712	-1400	-3368	507	12408	1723	-16308	-988	752	-5975	4402	-1058	-32768	-9172	-6340	2696	-10928	32767	-19348	-680	-7124	-12731	-28456	-15316	-22440	-10932	22992	-32768	128	2848	109	105	1
-10816	-8156	10100	3113	1945	4429	-15992	-1856	-3176	-1075	14180	2178	-15812	-3976	652	-9831	2902	-1729	-32768	-20176	-11724	8941	-3154	29579	-11600	7056	-2712	2360	-14540	-3617	-22512	-14964	28272	-20999	391	1926	119	112	1
-10864	-8192	12304	3576	2738	6251	-17684	-1236	-3776	-3472	16006	2272	-17252	-5496	-716	-12285	1673	-1339	-32768	-21048	-15476	5019	-1410	7626	-9732	9744	-644	3281	549	6412	-16424	-10916	24496	5198	-1980	-277	137	120	1
-11300	-8644	12300	4403	5906	8967	-19688	932	-2856	-5246	17462	2714	-18944	-3996	-180	-13369	-2141	-347	-32768	-16480	-26100	188	18241	-6476	-13752	8644	-11396	-13476	12861	14178	-17388	-5768	32767	16461	-18587	2064	126	113	1
-11928	-8196	13760	5413	9203	12391	-19704	1768	-4456	-5052	19547	2524	-19140	-1356	4328	-12387	-6077	749	-2904	16556	22388	-1453	15400	145	-32768	-21848	3648	-11862	10990	9724	-4508	-400	-10680	32767	7215	3227	104	102	1
-11936	-8488	15332	4857	13575	15465	-22728	4124	-4064	-9135	21836	1591	-20944	664	11128	-11913	-9005	-625	-24312	1960	18976	-7896	26807	-5410	-20692	-3884	-6224	-16960	6330	8330	-27752	7712	-7328	22615	9359	6482	108	106	1
-11212	-9788	13796	-2585	18868	19270	-26632	9724	-3520	-16423	23265	164	-22892	8756	8740	-10533	-14520	-814	-14612	-7996	19684	-132	17672	-6602	-12040	-2812	-12392	-7461	8744	8928	-20220	15300	-4780	-10813	3316	12644	114	109	1
-15280	-15404	14148	-7966	25851	25072	-25584	5832	116	-27497	23951	-1052	-22624	14244	4448	-15595	-15902	-157	-20280	13472	15052	2093	12454	-7248	-17928	-2192	-9656	961	8681	9597	-13100	-3428	-3292	-13957	2910	3553	112	107	1
-16808	-19476	9588	-11153	28814	32767	-24564	1328	-6460	-30848	25016	-4038	-21284	6636	-1952	-25343	-15640	-1580	-12504	3352	20324	-5012	2164	-6652	-20720	9664	-7924	-2185	5812	8349	-19468	-2092	-4704	-5147	9026	1102	121	112	1
-21392	-22732	9960	-9624	21228	32767	-22332	-1820	-11216	-28531	24066	-6582	-25028	616	-6976	-27925	-16380	-6853	-11416	6688	11760	-2656	1828	-2475	-16416	2072	-4340	-7595	6885	4120	-18740	11996	-4416	5203	9555	3433	131	117	1
-24176	-13424	6004	-16854	17431	32767	-16088	1824	-9936	-24126	18722	-7089	-23972	2060	-9764	-22058	-16149	-8558	-11800	4624	12568	-4068	816	-3945	-16572	2332	-4332	-5401	2212	4104	-13364	11352	88	-8613	7577	5320	107	104	1
620	-13188	13324	-23286	5414	32767	-9624	5876	-16924	-19552	14499	-8484	-22432	5724	-7820	-10020	-17518	-5865	-10992	4648	12448	-4884	-492	-4600	-17156	504	-3456	-4982	2619	3154	-17140	5076	548	-15682	9724	3118	108	105	1
