#Activity	walking 
#ActivityID	1 
#Date 10-07-17-57
acc_rf_x	acc_rf_y	acc_rf_z	gyro_rf_x	gyro_rf_y	gyro_rf_z	acc_rs_x	acc_rs_y	acc_rs_z	gyro_rs_x	gyro_rs_y	gyro_rs_z	acc_rt_x	acc_rt_y	acc_rt_z	gyro_rt_x	gyro_rt_y	gyro_rt_z	acc_lf_x	acc_lf_y	acc_lf_z	gyro_lf_x	gyro_lf_y	gyro_lf_z	acc_ls_x	acc_ls_y	acc_ls_z	gyro_ls_x	gyro_ls_y	gyro_ls_z	acc_lt_x	acc_lt_y	acc_lt_z	gyro_lt_x	gyro_lt_y	gyro_lt_z	EMG_r	EMG_l	act
-29644	-22944	15432	221	30933	32767	-28240	-5552	-2220	-7465	27310	6712	-25756	-9980	288	-13791	-13840	-3028	-32768	32767	3176	-3158	9897	-6106	-16384	16592	-1280	3484	18238	8975	-6424	-13344	-12420	3005	21556	-5331	133	119	1
-9988	-8104	9592	-1325	1711	2088	-15296	1512	-1900	1055	6853	1690	-16176	1920	1124	6806	7649	3543	-32768	500	17716	11816	-29094	30949	-20156	5820	-13912	-3384	-32768	-15309	-10088	5108	-2804	-907	3462	-151	133	118	1
-9920	-8068	9916	-460	3122	2589	-16724	1296	-768	-353	8502	1882	-17444	2360	1888	4163	6433	1915	-32768	-7040	14080	12668	-25989	32767	-23572	4612	-12752	-3773	-32768	-16818	-13700	8704	7340	-267	599	3489	119	110	1
-9932	-8300	10000	-194	3986	3206	-16892	-1512	-548	1753	10570	3308	-17188	964	2620	-326	6435	835	-32768	-12808	2052	12291	-22486	32767	-22908	2800	-10364	-172	-32768	-16479	-19624	2368	22044	270	142	6726	100	100	1
-10124	-9212	10096	482	5136	4508	-17636	-844	-852	2737	12522	4332	-17576	-84	1756	-5471	5911	581	-32768	-26180	-14348	12137	-17387	22851	-13580	-3280	-6740	15649	-21460	-844	-22048	-2084	32767	-5599	7338	9761	110	104	1
-10384	-9016	10312	1272	6649	6341	-17620	852	-2356	-754	14361	5282	-16080	-2180	-204	-10924	4811	1292	-32768	-32768	-23832	25223	-6201	8321	-9072	8932	-152	18424	-459	6845	-19752	-2676	32767	7948	1670	-303	103	102	1
-10964	-8744	10612	1948	8456	8126	-17732	-1120	-3844	-2498	15736	6538	-16636	-4460	-2676	-13477	4387	2032	-32768	-7084	-9924	-14784	1879	-11363	-11492	10220	-3360	2788	16551	11185	-14476	-1708	16568	6978	177	-5339	103	102	1
-11064	-10540	10476	895	10084	8657	-19720	588	-4188	-3453	16479	7903	-19888	-2844	-2836	-15090	3843	2237	-10540	22352	32767	-15072	737	-19378	-18732	-15312	5264	-10191	11143	7882	-11804	3236	3056	10748	8712	-168	148	125	1
-10884	-11436	11012	2061	12478	12837	-21384	1948	-656	-6733	17083	7761	-21468	1392	3908	-10793	-1018	1882	4048	12644	7972	-11381	24925	-6778	-25512	-14340	2312	-22948	3906	10698	-12712	1760	8328	10608	5863	2891	124	114	1
-11316	-11936	12120	2246	15913	18109	-21704	2608	-424	-9980	20151	7830	-19436	-1272	9420	-6423	-4924	893	-23896	-9228	26236	-6230	27717	-5574	-18828	-5508	-2560	-9691	12089	11119	-22380	10188	6980	-28419	-4346	2724	100	101	1
-15644	-16972	12424	2909	19114	24447	-24332	1616	1888	-11600	22098	8403	-20540	-304	7532	-12942	-5362	-1351	-15324	-3248	19220	3142	19033	-10840	-17640	-4964	-6176	-2881	14808	6797	-26748	-11932	-272	-24120	9051	4199	119	111	1
-14668	-15084	10796	2891	23334	32767	-26288	-480	-632	-5878	23742	8941	-20744	2188	5164	-10151	-9070	-1595	-32768	32767	17812	-8367	9134	-6523	-18136	11216	-4212	4595	14120	8265	-11328	-18496	-3456	6007	9843	1222	121	111	1
-17076	-16084	11700	1937	23959	32767	-23944	-2360	-4052	-5401	24323	9797	-19552	-6652	-1308	-5529	-13604	-3850	-12376	-8768	19804	-9734	2953	-9207	-18788	10572	-8064	-684	9738	9466	-14060	15332	-12136	32767	5523	-2808	112	107	1
-20808	-21024	15020	7415	20897	32767	-27948	888	-6656	-4249	24010	9660	-23116	-5484	-2996	-1801	-20564	-10026	-11924	2712	13424	-6103	1921	-4356	-14984	1300	-6760	-2578	9507	3834	-16872	28556	-5784	18315	11626	10844	122	112	1
-19580	-18828	17404	7356	20271	32767	-24240	3680	-4628	187	18001	10523	-25948	2716	-5952	5501	-23447	-10377	-12028	3628	13176	-4559	197	-3454	-17080	4956	-5928	-2928	5770	3687	-17848	11472	-4176	-17566	15843	5958	119	110	1
-20032	-6312	14708	13738	21537	32767	-19212	4668	-9368	5244	10847	9053	-25828	7572	-5556	8624	-23305	-8946	-11008	3140	13392	-2015	316	-1663	-18296	-236	-4472	-9309	5965	1964	-17236	-6288	-836	-19733	12066	-1623	111	106	1
-15812	-18632	20336	5695	-4381	13923	-11608	8348	-18440	-2577	11142	7613	-24484	7400	-3716	6238	-21985	-7638	-10952	4252	12632	-524	711	-807	-14476	-3476	-976	-2258	5129	3799	-15752	-5884	3320	-8800	11494	-4100	88	94	1
-1876	-13132	8800	-2372	-10015	-262	-13536	10824	-4644	-7767	4741	1163	-24264	3508	-4192	815	-20429	-9487	-10476	5656	11512	-571	622	-1160	-16056	1368	920	3820	4991	2691	-15836	1884	2936	1093	11611	1308	114	109	1
1500	-10940	5916	1542	-7344	-3746	-9080	4104	-7904	-12657	-4504	-1104	-20572	2752	-5180	-4675	-17500	-11199	-10516	6108	11276	-998	-359	-2411	-16100	3780	1684	4630	5530	3397	-15616	6044	2764	5151	11136	3308	106	105	1
-364	-8184	7048	4076	-4492	-10195	-7484	2496	-9580	-2826	-10302	-2501	-19344	1292	-6856	-6300	-15118	-11988	-10728	4984	11916	-1513	-1575	-3536	-17352	4116	152	-1651	4824	1947	-15372	7348	2780	1731	10889	3414	146	128	1
-3640	-7588	8536	2731	-5418	-18281	-6636	2860	-9640	6292	-17688	-2945	-16980	-488	-6864	-4055	-13307	-12269	-11032	3932	12620	-1801	-1250	-3124	-16480	-1336	-1440	-6324	4276	1488	-15416	4452	3104	-2951	10486	533	113	110	1
-7704	-7104	8752	491	-10682	-24132	-6660	4780	-10516	10261	-24039	-3627	-16096	-1984	-6424	1744	-13673	-12428	-11144	3644	12596	-1254	-704	-2368	-15084	-1600	-1644	-625	4697	2086	-16448	832	2412	-2646	13585	1190	120	114	1
-9844	-5552	8440	-2518	-17234	-27883	-5800	5300	-10004	10764	-27620	-5664	-14912	-584	-6552	9688	-11491	-9514	-10708	4508	12224	-1065	-459	-2151	-16304	1872	-1712	1117	5803	2583	-15724	-1264	2960	6021	17133	2645	115	110	1
-10600	-4784	7684	-5769	-21974	-28784	-6076	5716	-8936	8814	-30940	-7295	-13064	944	-7792	14936	-11629	-5861	-10860	4624	12204	-1073	-455	-2196	-15808	1492	-2136	7	6313	1636	-14544	1008	3980	12749	17860	2599	115	111	1
-12536	-5272	7224	-7659	-24463	-28436	-7096	6108	-9572	8302	-32768	-8443	-10692	3804	-7348	18767	-11679	-2159	-10884	3880	12424	-1064	-114	-2303	-16668	616	-3104	-465	5092	1846	-16500	4856	-1092	10606	14348	-1003	113	110	1
-13924	-6516	7000	-8410	-25703	-28822	-6776	7436	-9596	5786	-32768	-9332	-8784	6544	-7400	18956	-10722	1107	-11028	3528	12796	-294	876	-1836	-16472	-764	-4008	1499	5066	2154	-18000	8064	-7332	1785	13291	-1151	103	102	1
-14724	-7848	7864	-9534	-24585	-30186	-7520	8340	-10564	1781	-32768	-12192	-6452	7492	-7392	15982	-7235	4674	-10992	3952	12440	113	1424	-1635	-16748	404	-3692	2564	4759	2134	-16476	5100	-4780	1005	11844	-671	107	104	1
-17204	-8700	10188	-13317	-21779	-31923	-10164	8776	-12232	-2904	-32768	-14220	-5124	8736	-7404	9890	-3323	5800	-10968	4000	12396	486	1837	-1628	-16300	392	-2380	2523	4717	2327	-16024	1648	-120	-850	11009	-337	111	105	1
-22144	-9968	14128	-20204	-20855	-32768	-13656	8776	-14888	-9281	-32768	-17126	-6452	9776	-7508	3923	1393	6585	-10904	4024	12364	596	1876	-1687	-15736	-368	-1144	3656	5334	2740	-16184	456	2536	-3292	10137	322	110	105	1
-31988	-13492	16924	-25250	-21122	-32768	-18548	7192	-15540	-15058	-32768	-20707	-7792	9148	-4964	-2784	5590	6605	-10728	3884	12984	1412	3040	-2077	-15836	-628	636	3682	6865	3732	-17408	668	5072	-2322	9206	945	102	101	1
-32768	-5480	20016	-25944	-20897	-32768	-23560	7848	-16968	-18913	-32768	-23296	-12992	1320	-1920	-5519	6845	4305	-10092	3804	12892	677	4380	-2175	-16024	-1308	2468	1219	8813	4515	-18156	2952	7092	622	7950	366	97	98	1
-32768	5504	16724	-31717	-18786	-32768	-22384	2936	-13936	-21160	-32768	-15482	-20468	-6604	7636	-3304	151	-1649	-11104	4152	12600	83	5872	-2526	-16284	936	1892	-1358	11196	5079	-16388	2164	7224	3353	6032	461	99	99	1
-32768	12064	4228	-20001	-16030	-32768	-19124	2012	-10428	-11896	-24143	-13050	-25972	-6744	24680	-3183	-97	-13518	-11288	5060	12764	-573	8110	-3637	-17648	396	4	-852	13689	3987	-16276	636	3752	6386	5401	-281	135	120	1
-32768	32767	-10244	-14065	-8694	-16992	-5424	2468	-5316	-16026	-2828	-7109	-26752	-11624	32767	-11284	6111	-8207	-11588	3332	12872	-1460	10678	-4692	-17128	864	-1936	-1744	14620	4716	-16268	4264	964	7865	5517	-1837	135	121	1
-32768	32368	-9312	-8343	-2740	3438	-5688	-6460	-7004	-4169	17097	3106	-20140	-2436	18024	-17211	10315	731	-11616	3016	13172	-1685	14600	-4572	-17748	-1756	-2520	-867	16495	4721	-17772	5772	-776	7667	5207	-1684	128	114	1
-15520	-29572	22088	18413	-1144	19173	-27756	3968	15452	-1111	16352	3239	-9268	-3908	-5132	-14210	16113	-810	-12012	4188	13168	-1952	20265	-5270	-20428	-1920	-1440	4802	18682	5564	-20136	2484	2256	7172	3396	-1256	92	95	1
3092	-8220	6468	21303	2723	28888	-24800	-4636	1148	7577	7237	-4514	-9964	-1980	-8712	-14537	15734	3344	-12416	4936	12956	-2026	26900	-7358	-19916	-7316	444	12968	21135	6771	-19596	-904	9040	9265	-263	-1799	118	108	1
-7056	4140	15140	8047	17084	14908	-14412	14660	3160	20650	5326	3729	-19204	-1876	-2792	28479	6112	5405	-13536	7272	14256	-3112	32202	-10588	-20912	-5520	1712	15958	23669	7589	-20160	-7284	17932	9996	-15202	-3275	130	118	1
-17424	-1524	21972	-27	15114	16570	-22056	11208	-940	6499	12843	7524	-32768	3496	5376	23580	-14282	-790	-14788	5112	14160	-6834	32767	-16496	-25104	-1268	484	9560	25406	8459	-20780	-7568	10040	10252	-9323	-6405	154	130	1
-32768	-32768	-6720	-995	8112	9693	-19968	-760	-11796	-9092	16002	-1071	-18840	13344	7684	-2765	-4060	4861	-18284	5292	16256	-8210	32767	-21318	-24872	492	-132	6509	26704	7164	-21192	8452	2928	23354	-13130	-4933	114	109	1
-16004	192	17132	7216	3333	9234	-16836	-17644	-8212	8531	15294	-1398	-4808	-7540	-1884	-6677	25744	2413	-26080	3600	20384	-7380	32767	-25143	-27464	5564	-4516	2402	27656	6434	-24552	16084	4	13813	-16395	-186	88	93	1
-10264	-7660	11856	7153	1208	5217	-16636	5152	-5116	20849	7723	8039	-10528	-5840	-18008	-8863	22032	-4714	-29052	16560	15112	-3387	32767	-25552	-25424	2840	-8300	2067	25299	2507	-25500	12264	-5228	-4837	-22427	1785	110	105	1
-9984	-7588	10720	5619	68	3327	-13948	7800	-4616	-27	7285	1750	-13332	648	-10120	1977	5980	-6143	-9824	16908	17264	-13787	32767	-32685	-22528	4868	-6524	-1694	17673	-737	-26808	3820	-5072	-20084	-24251	2918	135	119	1
-9912	-7328	11108	2584	610	1961	-16424	6288	-3304	-12046	11361	-1842	-20124	880	-3112	2313	3697	2814	-32768	4892	32767	-4791	10918	-32768	-13680	8896	-15528	1286	-5460	3866	-23864	-52	-3756	-17022	-25048	2060	85	93	1
-9504	-7780	9752	291	1522	707	-19776	-4816	-5248	-2122	8270	170	-18000	1932	-3404	-236	8822	3175	-19332	6972	27000	9522	-22636	-28495	-9792	-3352	-9260	-3848	14604	-9025	-23012	-1068	-2400	-9131	-25082	1401	118	110	1
-9660	-9680	8880	29	1432	684	-17168	-3532	-3616	12887	2751	2293	-13992	1236	-1704	-8899	14420	3498	-7916	9548	11928	18313	-30325	-21147	-7696	-396	-9124	6994	2168	-7495	-21384	2148	-2928	-1784	-21904	2338	136	120	1
-9724	-9888	8500	616	879	1114	-16236	5236	-3068	-880	4078	2562	-13700	560	-1844	-9882	14933	3745	-5688	16328	4816	11239	-32054	-15303	-7760	3476	-10136	9302	-5701	-9723	-21640	3076	-3064	-1166	-21909	2791	138	125	1
-9764	-9160	9020	741	646	1296	-15244	908	-2168	-14063	6687	-570	-16712	-3628	-4432	-3527	11250	596	-3860	14188	2752	-2569	-30837	-5964	-6836	2540	-10384	7006	-13326	-10048	-17824	5424	-4916	-2148	-19861	4700	115	111	1
-9988	-8416	9660	-119	1121	830	-17256	-2100	-1788	-9487	6282	-641	-17040	-3112	-4428	-3699	10736	483	-2348	8508	3592	-332	-24086	7751	-5712	4960	-10836	3513	-17345	-12819	-15240	6548	-4688	-4132	-15787	5520	105	103	1
-9740	-8912	8968	-584	1480	447	-17796	-1632	-1120	-3421	4511	2001	-16340	-1864	-148	-8974	8470	3093	-2464	7880	3804	1043	-22751	9929	-6996	4804	-10508	-2453	-20207	-12740	-14636	7124	-5320	-10137	-13538	6697	114	108	1
-9832	-9116	8780	-628	1473	591	-16224	-660	-1760	-2689	4505	2135	-15024	-824	-580	-8004	9379	1882	-11564	9240	6376	5588	-16136	25941	-6492	5216	-10660	-6540	-24750	-13936	-13904	4732	-6696	-16168	-11370	6853	119	111	1
-9812	-9072	8752	-522	1340	684	-15816	960	-1656	-5784	6123	1624	-15804	1232	-1296	-5164	9624	1455	-15992	6080	8872	4395	-19356	29025	-6916	3680	-11292	-8672	-29925	-13650	-12648	2024	-6916	-18238	-9838	3749	121	112	1
-9804	-9004	8916	-509	1362	685	-16356	32	-1180	-6822	6906	1371	-16800	-888	-2068	-5715	7740	2413	-18296	3156	9380	6473	-23236	30101	-7232	2876	-10704	-8074	-32768	-14832	-11544	516	-6160	-19085	-8391	1439	126	115	1
-10004	-8880	8848	-195	1653	605	-16796	-1516	-1684	-4761	7139	2239	-16956	-4956	-2608	-5217	6780	2976	-20544	1704	8840	8565	-26045	28580	-7236	2952	-10712	-7806	-32768	-15003	-10332	-1124	-5832	-19856	-5590	100	123	113	1
-9812	-9452	8584	-164	1536	791	-16500	-544	-2124	-1755	6986	2882	-15920	-3104	-3540	-3766	7057	3000	-21700	808	8708	9649	-27739	25421	-9624	-432	-11676	-4125	-32768	-13628	-9968	-1768	-5864	-19911	-5059	74	131	117	1
-9892	-8968	8388	-396	1010	1204	-15368	1168	-3040	-1879	7263	2842	-14368	1416	-3624	-4773	6386	3391	-21852	-1144	10732	13536	-25878	23705	-11480	-1732	-11688	2875	-32768	-11025	-9476	-6084	-4268	-17584	-531	-3911	127	115	1
-9800	-9500	8152	-684	-58	1949	-15408	-316	-3348	-745	7366	2432	-13712	2644	-2880	-4356	6224	3147	-24468	296	13692	17555	-22100	24900	-15276	536	-12396	4141	-32768	-8726	-10792	-6220	-1332	-11372	1292	-4325	121	112	1
-10004	-9852	7768	-642	-901	3362	-16144	-728	-5076	406	7081	1718	-14200	1984	-3304	-2692	6455	1977	-29548	2824	14428	13683	-20105	27190	-19244	2996	-11372	-3335	-32768	-8433	-11316	-4320	1772	-8124	1507	-2563	121	111	1
-9944	-9044	8488	-192	-1058	3790	-16012	396	-3908	784	6799	2105	-15196	-724	-4616	-1545	6961	1293	-31192	-1100	13352	5556	-18024	29188	-19844	3460	-9344	-8527	-32768	-9837	-13024	1860	5520	-5212	2362	-572	124	113	1
-10088	-9128	9304	390	-119	3898	-16852	168	-2656	1373	7470	2751	-16964	-3660	-3292	-1630	7046	1636	-32768	-10120	12804	1654	-14800	32767	-17324	2988	-9392	-14237	-32768	-13419	-15344	2876	9696	-1711	2937	3549	113	106	1
-9928	-8992	9908	1107	1660	4586	-16892	100	-2452	1463	7715	2838	-17976	-4200	-1740	-573	5448	2904	-32768	-14476	2928	-3290	-15530	32767	-18884	-288	-7668	-15238	-23363	-13757	-20892	-1828	15572	-6036	2306	8427	85	91	1
-10200	-9160	10008	969	3372	5268	-17644	-704	-1612	2266	9700	4313	-17220	-2944	-952	-377	4116	3517	-32768	-22884	-9812	-5421	-13706	24885	-15992	-2568	-7236	-6049	-12325	-7281	-23232	-5352	27408	-8660	1109	10162	106	103	1
-10216	-9056	9964	1165	4942	6344	-17336	-1028	-2172	3069	11264	5290	-17096	-1296	592	-453	3890	3117	-30824	-32768	-12552	12341	-1948	10207	-10296	1836	-3400	8722	502	5342	-20044	-6436	23252	6686	81	127	119	111	1
-10884	-8896	10404	909	7102	7461	-17792	-356	-3736	3406	12550	6478	-17508	-564	-152	-2483	3846	2261	-30328	-19720	-8072	14832	3866	-3589	-13164	9472	-6548	6001	12656	9247	-15356	-5536	13664	15529	-977	-5595	115	109	1
-10996	-8968	10108	923	9177	8397	-19028	2340	-4000	989	13621	7374	-18796	-940	-1080	-6793	3112	2416	-23644	2024	24384	-6320	1841	-20736	-19300	-212	1616	-85	15122	12445	-14812	-3088	2792	20228	3115	-1037	115	108	1
-10712	-9792	11360	-312	11792	9496	-20036	2260	-3492	-3562	15077	7643	-19808	-184	116	-7638	1889	2719	-3072	6472	5492	1626	1667	-14790	-20736	-6708	-2704	-154	10463	7913	-12096	-1084	5468	23189	2479	3658	114	108	1
-11128	-10364	11088	176	14625	13009	-21844	2076	-1416	-7712	16551	7419	-21212	568	4064	-7409	-1275	2702	-10100	16536	8932	26	18646	-4932	-21128	-11976	532	-3926	7031	6809	-12020	4680	-2452	14761	7698	3874	116	109	1
-11484	-12512	11484	397	18429	17621	-22144	2688	76	-8783	18237	7970	-20252	-804	7724	-8351	-4751	2392	-12520	-2504	18156	-3217	19663	-6122	-18444	2364	-1068	-5383	5224	9191	-22164	11216	6444	-10282	2084	4637	115	108	1
-15440	-13980	10348	669	21424	23913	-21168	1144	3156	-11557	20922	8807	-17992	-2052	6836	-13072	-6348	1121	-12824	-2188	15844	2525	15169	-8923	-16064	-1948	-2708	-8033	9724	5883	-17316	432	4664	-15325	8794	5061	117	109	1
-18264	-16372	9008	1171	24226	30720	-21968	-564	-24	-6955	23017	8305	-17036	3860	6788	-10808	-10043	345	-28264	28376	-3564	-5209	6609	-1784	-23060	9876	1084	-1924	11150	8961	-16332	-5376	7552	-3785	6958	-652	117	109	1
-22900	-15040	12044	-585	23281	32767	-22420	-2588	-3760	-7406	24322	8860	-19508	-4304	616	-7307	-12484	-1616	-10384	-5860	14896	-9384	479	-7399	-16424	8108	-4000	-8630	8141	8258	-16572	10996	-4064	14455	11810	2467	106	103	1
-20584	-18660	15352	2984	20936	32767	-27448	164	-4856	-6030	24399	8689	-20316	-5960	164	-7956	-13411	-2766	-13028	-2960	17860	-4081	-1024	-4940	-13444	-2780	-4176	-4320	9518	5703	-13988	11376	-3128	3398	10518	9002	119	111	1
-18280	-19616	14224	-355	20803	32767	-23904	3024	-6248	-4305	20348	9919	-23796	-656	-5580	1720	-22064	-9379	-10828	4320	12576	-2653	-1733	-3819	-17072	3276	-4904	-2228	7002	5699	-14116	5088	44	-8734	9393	7384	128	115	1
4524	-22064	9464	1681	23981	32767	-19800	4164	-6968	860	13703	10109	-24752	4768	-4708	8425	-22725	-9592	-10512	3940	12716	-2164	-1708	-3144	-17676	5172	-4220	-11129	6011	4550	-17480	-672	-656	-5765	11888	2257	118	110	1
-24320	-25428	21472	6083	-332	18426	-12912	8484	-22024	1179	10873	9124	-24056	7624	-3328	9367	-21804	-8115	-10652	4156	12580	-2092	-1331	-2996	-16380	-1088	-1372	-11375	4807	3097	-16124	3452	1572	-3009	11844	1618	112	106	1
-3228	-14168	11696	1568	-11366	2510	-15600	8688	-5232	-2282	5270	1251	-24740	4936	-2896	4106	-20905	-9312	-10548	4416	12448	-2599	-1495	-3121	-15520	632	-788	-4130	4546	3109	-14324	7776	1764	-3232	11924	4474	121	113	1
480	-10188	7280	966	-9232	-492	-10736	5556	-7112	-5892	-3176	1264	-22304	4204	-3724	-1969	-17697	-10201	-10692	4028	12500	-3266	-2417	-3240	-15320	476	-1252	347	5891	4246	-16372	5312	1804	-4041	11163	3067	123	115	1
-1396	-8760	8044	1893	-7473	-5438	-7884	6360	-8200	-2782	-8681	-2149	-20384	3836	-4676	-2886	-16649	-9607	-10340	2860	13216	-2934	-2580	-2638	-17216	1424	-3152	-3156	6147	3854	-16452	1852	2432	-6151	9744	927	106	107	1
-3456	-8104	9392	1242	-8915	-13099	-7648	6388	-8436	-1650	-9526	-2409	-18240	3332	-4792	-1754	-15931	-8687	-10368	2868	13176	-1916	-1395	-2050	-16388	-304	-3084	-6138	5234	2348	-16188	-304	2520	-5410	10028	1414	103	103	1
-5644	-6632	9808	-1520	-13315	-20117	-6628	6804	-9660	1625	-20420	-5271	-16476	1980	-4840	-1092	-15094	-8325	-10456	3320	13088	-1362	-614	-1972	-15752	-60	-3580	-2732	5262	2733	-15520	360	676	-88	12215	2412	115	111	1
-7384	-4700	9876	-6198	-18060	-24549	-6128	6488	-9224	1023	-24556	-7562	-15380	444	-5856	3194	-13992	-7477	-10344	2932	13116	-1127	-342	-1989	-15788	772	-4364	237	5666	3462	-16168	712	-832	6556	16095	3733	116	111	1
-8408	-4296	9564	-11251	-22610	-26492	-6148	5472	-9048	1172	-28797	-9961	-13008	920	-6072	7982	-11742	-5350	-10372	2748	13192	-895	109	-1957	-16752	1444	-5248	-120	4903	3447	-15916	1112	-1916	10636	17038	3370	109	106	1
-10232	-5232	9224	-15027	-26457	-26075	-6824	5356	-9120	2248	-32768	-11684	-11420	3348	-7464	10746	-10468	-2081	-10080	3000	13228	-933	728	-1942	-16940	592	-4720	-89	3549	3014	-16836	3524	-3392	8446	14407	-67	103	103	1
-12948	-6340	9072	-17951	-29405	-24939	-6708	7712	-9164	-327	-32768	-13956	-9136	5208	-7980	11368	-8723	475	-10268	2664	13360	-845	1301	-1748	-16792	1304	-4404	491	3257	3316	-16768	6740	-3460	2282	13552	453	103	102	1
-15000	-7680	8872	-20227	-29987	-25511	-6772	8416	-8900	-7337	-32768	-15983	-6992	6192	-8788	9301	-5811	2189	-10608	2780	12824	-599	1421	-1973	-16316	640	-4420	768	3062	4215	-15932	4716	-1800	1158	12554	501	106	105	1
-16692	-11084	10200	-19499	-26990	-27821	-6736	8188	-9080	-7554	-32768	-16482	-5508	7276	-8572	6048	-1942	4318	-10444	1980	13148	194	2303	-1709	-15496	-1044	-4064	2251	3140	4365	-15940	1740	-1620	-133	10377	-160	108	106	1
-23616	-12764	12696	-16929	-21177	-32622	-14772	7776	-13096	-7750	-32768	-21647	-6132	8252	-7016	3061	492	5811	-10444	2564	13328	-102	3956	-1759	-16880	-452	-2372	3376	3878	4667	-17728	652	884	-2033	9730	639	102	101	1
-31580	-12348	14424	-14612	-15206	-32768	-18984	4792	-12852	-4789	-32768	-20692	-8652	4272	-5580	2604	1253	4881	-10400	2624	13548	-328	5044	-2090	-16412	676	-376	2918	5552	4920	-17700	1692	4504	-562	8316	1273	96	97	1
-32768	-2876	17616	-13301	-8333	-32768	-22524	1868	-14276	1177	-32768	-17598	-15160	-7576	-196	6878	216	-432	-11068	2720	13032	-904	6383	-2369	-15928	80	1184	2526	7235	5038	-16748	2256	6832	1875	6784	1759	102	101	1
-32768	1780	11488	-9956	-8759	-32768	-24640	3124	-15552	5028	-32768	-8995	-20336	-7648	11852	8560	-36	-8070	-11116	3520	13212	-1781	7243	-3385	-16876	1048	2236	1540	9621	5836	-15752	1468	6844	4696	4935	1960	107	104	1
-32768	11084	-3096	-1210	-8787	-32768	-17248	1656	-8492	12652	-25692	-5598	-22112	-4600	22228	9282	5235	-6074	-11108	3464	12952	-2700	8994	-5004	-16504	444	1300	1398	11881	6551	-16724	2876	5156	10025	3547	587	116	109	1
-32768	32767	-8588	-5476	-286	-22029	-8248	8328	-12120	8738	-7485	-6061	-25828	-4204	28068	6491	4134	4223	-11452	2484	13384	-3673	11233	-6156	-16032	1912	-1716	1417	14902	6118	-15568	6344	1980	10648	2844	102	125	117	1
-32768	26756	-5340	-11177	5379	-5764	-6796	-120	-8208	-6832	11753	-666	-14928	-924	21756	1200	2315	4707	-11892	2596	13772	-4817	14512	-7000	-18932	888	-2872	1691	15675	6630	-17384	7280	-720	10167	3873	440	121	114	1
-12044	-1324	12892	19967	4381	21921	-16900	-936	-5568	-10346	22336	2486	-15196	-1112	6240	-3425	6096	127	-12352	2944	14032	-6291	17917	-8608	-19948	444	-2056	3099	16675	7032	-19732	4952	2448	8729	3937	247	127	117	1
7120	-9612	9208	9592	4946	20238	-32768	2108	15780	-299	10224	-145	-17180	5560	-32	-18861	11379	-394	-12444	3916	14676	-6981	22853	-10674	-22844	-3488	-124	5935	18290	8166	-22040	2196	7712	6533	1823	517	129	117	1
-12064	-8296	13388	6857	22737	17994	-18928	9992	4636	13298	7631	4296	-19696	7792	7352	-6824	4974	1832	-13080	3912	14076	-7073	30220	-14484	-21540	-10784	584	11856	20686	10017	-22084	-3980	19776	9274	-13118	-758	109	106	1
-14252	832	20016	-825	17929	12003	-11648	11300	-3924	7108	14965	5243	-13852	-808	-2496	18713	1568	-14	-16432	3784	16252	-7750	32767	-17613	-21196	-7756	624	16116	24043	11552	-15704	-14084	11332	6545	-9261	-3650	143	126	1
-32768	-32768	4040	-6125	6639	9240	-18972	5224	-14988	-1922	14356	1978	-14548	10248	1396	2141	2201	-1295	-22424	1364	22620	-5675	32767	-20561	-24580	-3412	256	14289	26729	12375	-22148	396	4808	23928	-15165	-5029	95	98	1
-15820	-2500	17852	5089	4393	7733	-23072	-13388	-10232	1274	13944	-740	-18320	-5032	-9064	-13907	17900	-617	-29524	13904	21152	-5496	32767	-23067	-28368	1156	-3372	10859	28060	10677	-24044	13004	1068	21624	-19143	-222	92	96	1
-8880	-9304	9784	5654	1289	4241	-16724	-280	-4504	23243	9875	5349	-14884	-10976	-17344	-13536	18460	-1453	-28384	12800	27272	-6829	32767	-24483	-27868	3912	-6868	8243	22362	8522	-28916	10948	-4872	3324	-23898	3166	118	111	1
-10088	-10508	8288	6212	-72	4076	-14692	7088	-4688	3981	6590	2504	-12776	-11116	-4400	12042	7326	-231	3444	6412	14672	-11225	32767	-32768	-29696	4364	-8596	1347	9954	5088	-29280	3556	-5868	-10030	-25628	4059	144	124	1
-10644	-7696	10888	4675	-566	3282	-16264	4812	-4124	-5968	9802	519	-17868	936	-1708	15745	5426	3352	-32768	9748	32767	-4020	5690	-29018	-11252	8852	-23412	9861	4709	370	-25896	-2472	-4460	-12762	-26771	1458	107	105	1
-9812	-8224	10012	2242	-403	1607	-17756	-1304	-2116	419	9288	-57	-18872	7116	-396	10450	8409	6505	-11332	5856	23124	17288	-19277	-15975	-9836	11224	-20704	6908	9659	-2108	-26012	-3220	-1244	-3720	-28554	492	104	102	1
-9520	-9144	9252	1765	-399	1518	-17240	-3420	-2080	13466	5443	4116	-18692	6972	-448	9307	8837	6420	-2008	9904	8668	20797	-17598	-8767	-10940	-1824	-10100	10863	-2158	-5509	-24072	172	-2732	3515	-25643	2500	121	111	1
-9184	-9628	8716	2015	-553	1924	-16316	3288	-2824	11625	4482	3466	-13480	-2728	-1204	-1594	12439	3105	-4492	13776	8192	9569	-17076	-1338	-10752	-1136	-10804	10975	-3689	-5537	-21196	336	-3424	4342	-24955	3717	129	117	1
-9496	-9296	8856	2588	-675	2425	-14796	5336	-3184	-3537	6534	1662	-15176	-2040	-1412	1276	11991	1814	-4472	8640	9548	2584	-18012	9187	-6480	-220	-11832	4336	-18965	-3950	-17032	1560	-4536	4385	-22386	3054	130	117	1
-9568	-8408	9492	2540	-606	2229	-15732	2432	-2356	-9194	8150	58	-17640	1424	-1344	722	13513	1817	-5440	3548	10876	8024	-16765	19113	-6244	-468	-11528	-824	-22731	-6147	-15308	-20	-3428	1562	-19951	2871	117	110	1
-9656	-7868	10040	1893	-24	1841	-17580	-1580	-2040	-821	6926	1523	-16960	3152	-536	-4125	14467	3253	-7872	1824	11024	14756	-16245	24561	-6708	-3576	-10112	-53	-26064	-4999	-13776	-1376	-3792	-2245	-19073	545	116	110	1
-9672	-7928	9932	906	639	1391	-16656	1224	-3024	6834	5470	2742	-14800	1216	252	-8017	15328	4834	-9328	-248	12708	19142	-17254	25365	-5724	-1376	-10268	2495	-27914	-3938	-12020	-2268	-4576	-4078	-16067	-2364	121	111	1
-9680	-8920	9360	759	555	1740	-15660	4456	-4712	2954	6005	2421	-14604	-904	32	-6222	15814	5394	-11548	-1512	14632	23565	-19503	24860	-6680	-1320	-10648	3688	-32768	-2085	-10108	-2160	-5336	-5010	-13495	-5706	114	107	1
-9844	-8388	9640	714	537	1953	-15824	3220	-4296	-2619	7022	1129	-16476	-756	-5448	694	14912	3971	-11952	-1596	14848	24165	-20031	24733	-7016	-680	-10928	4663	-32768	-3325	-9056	-1904	-6324	-5565	-10746	-6418	114	108	1
-9852	-8540	9660	473	293	2378	-17452	556	-4200	573	6938	1143	-15828	-764	-9308	3838	12277	4533	-16040	-1040	17772	25317	-25249	24243	-7888	500	-11404	5042	-32768	-5822	-7592	-468	-7044	-5321	-6899	-6331	118	110	1
-9808	-8440	9744	328	336	2865	-17188	1672	-4468	2705	5601	1703	-15448	-1328	-7472	4978	10272	5577	-18692	-1272	19956	24588	-27265	25362	-9440	1340	-12424	5416	-32768	-7592	-6440	1192	-7912	-3291	-3537	-5077	116	109	1
-10012	-7904	10164	-363	1186	3046	-16800	3432	-3364	1893	5334	2112	-15136	744	-3692	5904	9907	5792	-25100	-2148	21688	23870	-29019	28316	-11940	2324	-12960	5173	-32768	-10036	-6840	2804	-7612	-924	199	-2090	111	106	1
-10016	-8380	9924	-1579	1769	3335	-16300	2276	-1064	498	7374	2471	-16940	1840	1188	7234	9142	5576	-32768	-5928	22276	21878	-31498	32767	-17168	5340	-13856	5664	-32768	-13152	-8176	5500	-3904	3383	1310	782	114	107	1
-9216	-7088	12088	270	3794	3929	-16940	4	608	1009	8749	2752	-18764	856	3948	7774	6934	4563	-32768	-16616	18872	20954	-31953	32767	-21040	8288	-13548	5271	-32768	-15510	-10828	11920	5300	11725	-922	4336	113	107	1
-9960	-8496	10724	420	5278	4155	-17836	-1108	1556	2607	10877	5490	-18584	-132	4004	3158	6101	2746	-32768	-21076	10188	17343	-31557	32767	-22672	9952	-12480	-256	-32768	-18478	-15808	10176	19360	17446	-3150	8720	115	108	1
-10488	-9496	10764	1099	7031	5362	-18340	-1096	-1028	4297	12981	6283	-17840	1604	3672	-2358	6013	2172	-32768	-21204	-13104	5286	-32768	17216	-17208	1788	-10412	-2945	-23401	-13649	-20392	-544	23392	5493	14817	14743	117	109	1
-10884	-8944	11164	1773	9348	7867	-19276	1776	-1856	259	14836	7607	-19500	2132	1644	-9106	4986	2347	-32768	-32768	-30668	16850	-17892	-3017	-6608	-896	-5792	14780	-8209	6078	-19336	5796	32108	-4649	9712	5098	114	108	1
-10848	-9784	11908	2180	11377	9794	-18704	1000	-496	-3859	17418	8635	-18000	-948	1084	-13923	3206	2002	-32768	-15788	3500	-2140	4934	-4193	-9736	10624	-2832	4954	12907	11625	-10804	480	17764	-741	8063	-9045	111	106	1
-11000	-9584	11892	2426	14418	12238	-19556	-412	-1376	-2456	19362	9549	-20192	-5128	748	-12606	921	1838	-18388	32767	32767	-14066	7499	-10395	-27464	-20140	20604	-3617	13121	6207	-14580	-2008	908	-7254	13156	-6458	105	103	1
-11360	-14108	12360	3439	17826	18267	-24368	1436	-1272	-6939	20628	10539	-22640	-6452	5228	-10991	-6140	1320	-12	10276	12212	-20305	19613	-24055	-30624	8300	3764	-28832	-2197	8708	-27192	272	10012	6880	7907	1553	119	111	1
-15448	-18672	10592	4975	20605	26926	-25684	1572	4912	-11419	22661	10091	-19880	-2608	6176	-8108	-8019	765	-16820	5976	19356	-20629	22155	-23044	-25696	-5064	3796	-27991	-7504	9598	-25116	12860	20700	-20091	-11932	3101	133	118	1
-15356	-17180	12916	6255	24404	32767	-25168	592	4216	-12227	23650	10339	-23992	1028	9416	-2754	-9023	-663	-17504	756	17916	-2211	15411	-11284	-17896	-1896	-4080	-1815	17183	6745	-19344	-16464	-3340	-29035	14463	3642	121	112	1
-27160	-20368	12120	8681	26279	32767	-26532	-4848	-5580	-2656	24208	13198	-22348	-9384	-4476	-8548	-15636	-5388	-12748	11092	6532	-14237	6845	-8347	-19672	18820	-4600	-3548	15976	13620	-7556	-11908	-5500	14663	9759	5248	124	113	1
-19652	-25936	16744	12837	21028	32767	-29152	20	-6172	-1801	21186	13922	-21888	-5508	-3480	4577	-21833	-9889	-15884	6172	12452	-8522	989	-6460	-15472	2640	-6044	-9111	13622	4707	-11244	16776	-13556	32767	3235	629	115	108	1
-7000	-29192	15040	19042	21620	32767	-25908	564	-3012	5747	13948	13198	-27900	-376	-6920	12214	-24800	-12488	-11196	956	13748	-3473	-1244	-3435	-16024	-184	-7236	229	8245	3275	-16500	26848	-2948	6740	7576	10244	108	105	1
-31836	-20936	20564	27606	19101	32767	-18308	4776	-14672	19517	7842	14691	-27176	5396	-6384	14572	-23976	-11453	-10540	1428	14472	-1645	-666	-2323	-16800	764	-5008	694	7136	5748	-23612	4812	-2268	-20125	11780	8257	97	98	1
-15628	-15868	21632	6895	-6129	3471	-15012	9792	-19236	6600	8901	9058	-27056	4800	-3312	12517	-24152	-9716	-10064	2960	13632	-475	249	-1047	-17052	2616	-3224	-2289	9724	5659	-14356	-7832	2308	-10216	11592	-3779	91	94	1
-2612	-15944	8448	1840	-9204	-8773	-14000	8408	-5284	-3333	-536	7220	-26068	1176	-5476	6466	-21132	-11413	-10208	4256	12844	14	781	-861	-17336	992	-448	-3485	8155	3579	-13252	436	2896	3847	10433	-6258	115	108	1
-664	-13264	5208	10882	-7022	-9933	-8988	2524	-9524	-7100	-8518	3241	-22056	1348	-5932	4195	-18486	-12255	-10120	4760	12304	-191	637	-1320	-14688	76	552	2411	6406	3119	-16320	6816	2244	6518	12013	246	130	113	1
-2668	-8232	5656	13803	-5592	-14989	-7896	220	-10036	2993	-14053	1097	-20340	964	-7420	1715	-17481	-12334	-9948	4692	12244	-578	391	-2065	-15788	1124	-516	7890	6920	3920	-15328	6676	1508	3115	11519	2723	124	113	1
-5292	-8336	6688	10278	-8028	-21380	-6092	1332	-10988	10873	-21755	1344	-16380	196	-8216	1853	-16173	-12691	-9980	4704	12200	-532	347	-2162	-18016	3560	-3336	3788	7585	3087	-15760	1072	1728	1266	11232	3155	104	103	1
-8124	-8532	7132	6429	-14087	-26029	-5964	3192	-12012	12214	-28043	512	-14624	756	-8296	3556	-14273	-12402	-10324	2744	13280	335	896	-908	-16528	-1112	-3272	-1373	6320	2304	-16680	-2824	1672	5208	11831	-1014	114	107	1
-10764	-7476	6860	2295	-20985	-29803	-4968	3772	-11400	10082	-31577	-1636	-12344	-40	-8188	7103	-12904	-10063	-10416	3440	12864	1010	1449	-315	-15556	-1012	-2492	2753	5597	2210	-15624	-1032	2064	12540	16668	205	114	107	1
-12464	-7284	5632	-1817	-26996	-31574	-4900	2932	-9516	7862	-32768	-4537	-11132	-668	-7996	12215	-11908	-6493	-10632	4000	12504	1102	1493	-396	-15536	-616	-2524	3449	5736	2298	-14632	2932	68	16846	19545	1668	111	106	1
-14560	-8120	4488	-4778	-30069	-31356	-5900	2832	-10264	8269	-32768	-6388	-10872	-260	-7972	13345	-11586	-5835	-10656	4052	12520	955	1466	-538	-16740	2896	-2404	4845	6509	3535	-16412	7100	176	12857	20819	173	104	102	1
-16740	-8808	4104	-7565	-31446	-31375	-6784	4556	-9756	6764	-32768	-8047	-7776	5444	-8652	21312	-11037	1198	-10628	3936	12684	908	1642	-860	-16492	-252	-2892	3977	5462	2997	-16196	8376	-1620	6239	15614	-2523	110	106	1
-17844	-9392	5376	-11153	-29940	-32544	-8536	6992	-11220	2999	-32768	-9640	-6188	7856	-8132	21337	-8514	5360	-10728	3840	12780	873	1929	-1138	-16616	424	-3172	4896	5152	3594	-17144	7376	-3248	2827	13686	-1284	110	105	1
-20760	-9688	8860	-17324	-26146	-32768	-11156	8824	-12404	-4068	-32768	-13057	-4832	9508	-7092	16553	-4601	6339	-10708	4160	12520	1312	2517	-1711	-16208	1168	-2880	4770	5877	5279	-16192	788	-736	2527	12824	-335	111	106	1
-26696	-12232	13132	-23151	-23912	-32768	-14668	8156	-14392	-11807	-32768	-17443	-6108	10424	-5264	10066	-3053	8031	-10656	3796	12776	1576	3569	-2221	-15512	424	-2024	5414	5861	4380	-16376	-1448	1228	-709	10590	223	111	106	1
-32768	-14264	14764	-24683	-23600	-32768	-19304	6368	-14276	-15398	-32768	-21929	-7388	8864	-948	1736	-348	6987	-10456	3384	13144	1068	5714	-2216	-16676	-1780	-1176	5603	7405	4311	-17368	484	4244	1065	9703	1038	116	108	1
-32768	3276	18168	-28886	-16813	-32768	-21940	1464	-15520	-22796	-32768	-20431	-14032	-2596	2416	-1210	1875	2577	-10512	3452	13020	1013	7852	-1956	-16304	-580	1904	4680	9723	4531	-17492	1976	7560	6415	7619	88	114	107	1
-32768	8060	11380	-29196	-14480	-32768	-20448	2316	-14684	-20210	-31100	-13038	-22316	-5636	12804	-10541	-1590	-5264	-10716	5232	13088	102	9572	-2926	-17096	1268	3972	2137	13576	3866	-16812	4412	7872	8967	6082	-663	111	107	1
-32768	9616	-4052	-8866	-12492	-31075	-17356	-4132	-11084	-5310	-19097	-10267	-23464	-7140	26772	-10461	5559	-12910	-11488	5444	12844	-1199	12286	-5328	-18144	936	1744	1895	14843	5684	-17804	5316	4884	10411	5060	-1424	96	97	1
-32768	32767	-11456	-4901	-6147	-6919	-15604	-3920	-9812	-2125	-16081	-10099	-23960	-7180	26556	-10832	7568	-5001	-12092	3960	12956	-2203	15494	-6780	-17520	824	-540	1873	17454	5819	-15624	4968	2664	10117	5030	-1144	137	126	1
-32768	26772	-4764	-5442	633	7976	-8860	-2448	-12776	5367	17428	2846	-16512	-6480	14452	-7103	3511	-3146	-11648	5096	13880	-3810	19129	-8546	-20200	-900	108	2538	19063	6366	-19268	3276	3620	10498	5443	-731	150	127	1
-28064	-32768	21768	22902	-5280	7878	-15844	6120	-308	-6713	26062	5363	-9640	-6324	-3396	-3354	10839	-4517	-12460	4832	14108	-5058	25008	-11464	-21056	-2832	2452	6662	21725	6917	-19916	2088	9244	10379	3085	-1269	97	100	1
22236	-17264	-2336	15184	13395	30516	-32768	2584	12284	-2183	5750	-4544	-11792	8032	-6612	-17736	19944	2008	-15268	10704	17460	-7956	30099	-16894	-26068	-6636	5348	8170	24155	9297	-24732	3588	15508	15433	-5815	-718	124	113	1
-27900	9396	19484	5871	25375	20427	-15564	17716	-3892	10916	6120	833	-31860	8376	9568	17524	-5995	11244	-17420	8056	15236	-10748	32767	-24201	-24192	-5592	4580	8443	26669	10589	-16268	-8868	13632	2362	-14676	-3330	133	121	1
-23000	-956	21660	-8781	17520	17806	-20952	14652	-2572	-336	20748	9555	-28200	60	10876	26484	-9580	3344	-19244	6136	18316	-9059	32767	-27821	-28340	-3832	1884	6258	29322	12034	-25916	2340	11624	15351	-14572	-4926	144	124	1
-13860	-17476	-1948	4688	9849	4188	-26552	-11280	-13780	-27786	25968	-3227	-11840	5500	-2864	-4634	18188	4047	-23564	6176	23428	-7018	32767	-30643	-31780	1232	-2140	5150	30508	10348	-23968	15708	-44	15713	-19759	-129	68	71	1
-12240	-16700	1360	4910	3690	4292	-12840	-22268	-9392	24984	14207	5036	-10848	608	-21772	-23562	28786	197	-25004	13148	29640	-10401	32767	-32768	-31652	3568	-5256	4909	26085	6809	-30172	11808	-4880	-1158	-25387	3367	87	90	1
-11604	-10140	8572	5254	1736	4471	-14604	12072	-8684	30014	5081	8671	-8288	-11116	-11704	-10045	14240	-6348	11488	2500	9604	-14129	32767	-32768	-32768	5996	-6096	-4462	7728	3046	-31736	5960	-6752	-16220	-29401	4841	111	109	1
-10184	-8240	9868	5404	743	4097	-13544	11892	-6928	-13421	9429	-895	-18380	-8428	-6272	8946	7172	-4996	-32768	13156	32767	-18840	15527	-31907	-9408	19760	-24624	5652	1819	-4524	-26420	-948	-4980	-17730	-28554	2477	132	117	1
-10448	-7224	11152	1826	1183	1608	-18256	1064	-4280	-17268	12829	-1085	-23252	9056	-2180	8963	9094	3843	-18444	3176	26476	7057	-22494	-8782	-15024	-5804	-11836	-1582	13057	-2347	-25856	-1224	-1384	-4578	-29990	2615	64	83	1
-10316	-8516	9740	-100	1626	653	-18864	-5676	-4432	5205	7573	702	-13512	8020	-296	-2033	13418	8760	-3724	9680	9092	17846	-24919	1349	-7780	-1432	-8244	5177	2794	-12951	-25172	3832	-3208	-833	-25407	4931	134	119	1
-9744	-9624	8620	-1071	1804	84	-17516	784	-3760	15163	2291	6055	-13176	-1404	-2796	-9045	16162	5842	-4676	12936	4788	6767	-26827	4050	-8316	8244	-11036	3741	-7218	-10585	-21992	3216	-4688	-2179	-26227	5843	134	123	1
-9572	-10836	7392	-435	1181	770	-14956	4816	-3844	-1857	5370	1770	-14812	-6796	-3644	-8446	17340	2651	-4064	8548	5124	-3550	-29287	7008	-5176	5500	-10432	-1188	-18641	-9182	-16616	3028	-6148	-2025	-21717	5950	115	111	1
-9748	-9832	8048	749	573	1271	-15500	804	-3860	-12379	7496	-1050	-16356	-2760	-4708	-2721	17254	2725	-3004	3108	7092	302	-27266	12204	-3696	5040	-10292	-4770	-24054	-13450	-13368	3096	-5464	132	-18157	7275	117	110	1
-9892	-9280	8432	959	586	1116	-17644	-1520	-3448	-7756	5939	-354	-16916	1864	-3144	-3295	16051	3640	-7948	2688	8412	10781	-25583	16985	-4572	4312	-9592	-4663	-26222	-14451	-12372	6088	-6680	-4753	-15079	7762	118	110	1
-9876	-9508	8372	609	635	968	-17444	-1780	-3748	748	3232	2269	-14836	416	-1628	-6875	15556	2850	-11476	4496	8472	14780	-28154	18202	-4272	3832	-8836	-1157	-30180	-14576	-11516	5332	-8256	-11761	-11013	7880	117	110	1
-9860	-9644	8172	404	494	1079	-16528	1116	-3296	2400	2695	2614	-14916	-840	-960	-6041	16495	2916	-13672	4212	8428	15763	-30867	17882	-4804	4784	-9632	288	-32768	-14672	-9404	3328	-9188	-17851	-7963	4970	125	114	1
-10056	-8968	8116	345	175	1093	-14920	2264	-1408	-3179	4398	1287	-15276	-1228	-2880	-1665	14239	4215	-17360	3572	8996	18916	-31870	18986	-5148	4304	-10268	359	-32768	-15637	-7820	948	-9620	-20453	-6797	1673	132	118	1
-9692	-9432	7892	772	-118	1332	-15328	-1916	1328	-5630	6424	1434	-17548	-5992	-2276	1332	8675	5641	-20984	4716	9708	21861	-32157	22289	-6280	4408	-11352	2148	-32768	-16136	-6620	-456	-10064	-21482	-3099	539	130	116	1
-9288	-10332	7436	1642	-405	1983	-16652	-5328	2184	270	7209	2567	-17844	-6984	-2076	1981	8139	5713	-26000	6340	10644	22212	-32138	26879	-9000	4884	-12420	1373	-32768	-14883	-5784	-1588	-10340	-17001	1665	-625	130	117	1
-9116	-10588	7732	2562	-1126	3866	-16836	-5560	1888	1565	7309	2745	-15388	144	1960	5472	6296	1675	-32768	7504	12768	19139	-31849	32767	-14600	5188	-13988	-224	-32768	-13952	-6660	-3572	-9984	-13621	5960	-2131	125	114	1
-9588	-10456	8288	1240	-2120	5933	-15992	164	-1300	9646	8447	3452	-15904	5648	2572	4614	7007	1033	-32768	6664	13608	15485	-32018	32767	-21016	6056	-16332	-6845	-32768	-12083	-9496	-4144	-5772	-12215	7702	-2020	119	111	1
-10252	-8884	9636	10	-1815	6720	-16208	3024	-3028	4256	11244	2921	-17508	4704	1868	1385	6694	296	-32768	-10828	13152	19238	-28173	32767	-23172	2168	-13144	2972	-32768	-10344	-15248	2856	5028	-10356	4072	553	115	108	1
-9572	-8416	11160	1912	2140	7162	-18328	4084	-1344	-1022	14131	3280	-16664	2008	476	-5416	5262	-1415	-32768	-24680	9096	24442	-20589	32767	-22732	6136	-9712	2019	-32768	-11726	-22100	1968	22028	2422	-1628	4173	120	111	1
-10316	-7416	11844	1198	5902	6831	-17748	-600	-1364	1024	15196	4910	-16872	-1012	-508	-8232	6247	-51	-32768	-32768	-3380	15667	-18468	30293	-17192	9268	-5276	-972	-23441	-1504	-20912	-1728	32767	-2828	2817	13787	121	110	1
-10680	-8896	11180	549	9244	7448	-19116	-1928	-2476	6122	16079	6637	-17868	-5192	-260	-8527	5464	3153	-32768	-32768	-31952	10706	-19188	-4768	-12492	3420	-4492	-1376	-20803	-1181	-19472	-1388	32767	2916	7570	13530	106	102	1
-11688	-8588	10960	993	12332	10160	-19144	632	-3112	3807	17207	7855	-18964	-5056	-2768	-9832	3643	2459	-32768	-32324	-19356	6908	1104	-22208	-7496	10872	-12880	-3158	20079	12563	-13312	-5940	21848	8713	730	-2944	80	89	1
-10760	-11176	11204	-107	14391	12100	-19240	3316	-2056	-1992	19872	7674	-19620	572	180	-11258	3731	1193	3944	27120	32767	-18210	329	-17060	-32132	-23536	12612	-8316	13597	10823	-5756	-4416	-3264	16947	8572	-4255	113	106	1
-11300	-11184	12480	-644	18084	16939	-22492	4160	-1844	-11013	22323	6898	-22776	3832	9744	-7687	-5987	259	-14680	8440	8316	-17875	25683	-18792	-32024	5180	-3256	-17725	1034	7656	-26600	-1408	7048	23260	4017	1591	111	107	1
-12572	-16828	12136	-503	24197	22678	-27392	4884	6780	-15092	24088	6513	-20980	3604	9736	-12890	-7748	-492	-19800	-15252	26220	-5511	20212	-9463	-14840	-4352	-7756	-6087	11434	7956	-28528	17308	5712	-15635	-9390	1963	111	106	1
-12796	-16984	16408	-181	30146	32541	-27608	-420	4484	-15383	27222	7773	-23760	3356	13380	-18384	-9795	-1761	-13624	1676	15780	1885	17307	-11249	-18212	-1004	-6904	731	17412	7453	-16732	-10624	-5424	-21344	12428	8133	106	104	1
-29240	-24712	15020	-1183	32767	32767	-26148	-1192	-7224	-7914	27155	7962	-22428	-5864	-632	-16224	-15388	-1910	-31964	32767	-7844	-6909	7774	-1536	-21676	19248	-2508	2230	15423	11038	-10864	-4248	-4404	19526	10095	-4572	123	112	1
-27196	-19688	19452	-664	29165	32767	-28596	-280	-7456	-8526	27145	7703	-21104	-9488	-3680	-8352	-19898	-7542	-14500	380	13404	-7250	1291	-5149	-17312	5604	-8864	-5207	10369	4464	-18268	22000	-10956	27979	4944	-4477	119	110	1
-11396	-24920	18712	-3012	27255	32767	-29056	-904	-3480	-5359	20260	10740	-28480	-6480	-7984	1018	-24469	-13204	-12392	1248	14664	-3272	485	-2380	-16080	-344	-6296	-123	5693	3333	-18812	19200	-4428	-13251	15181	13057	121	112	1
-23924	-7340	17872	7486	27439	32767	-20028	-132	-4492	12143	9295	12661	-27920	1716	-7484	10650	-25164	-11916	-10336	1916	14140	-872	304	-943	-17492	1180	-6016	-1418	6311	3241	-16280	-5572	-2624	-18529	16239	5367	102	101	1
-21988	-21756	24760	7703	-13313	18064	-12472	5588	-26208	-854	9481	8402	-25604	2936	-3472	13346	-24631	-7828	-10180	3168	13560	685	1169	196	-17452	-960	-1864	-1863	6310	4518	-15672	-11260	1188	-3111	11618	-6145	114	109	1
-896	-12352	9820	118	-20459	4438	-13692	6108	-18828	-1134	7305	6482	-24592	392	-4044	6537	-22842	-9259	-10384	4676	12216	938	1575	311	-15320	160	636	2202	6010	4110	-15748	1904	3068	8336	12738	-1001	134	118	1
1040	-12316	4520	3095	-16886	-274	-9040	4348	-10100	-8372	-8112	4893	-23776	-1000	-6252	2390	-18806	-11033	-10260	5384	11856	544	1039	-364	-15132	2532	2392	7584	5086	2806	-15764	8164	2924	10145	14996	5460	111	105	1
-336	-10624	4232	9386	-12316	-7477	-7328	1100	-9444	-3961	-12731	2114	-19284	-2552	-7272	938	-16260	-11466	-10136	5372	11864	-257	303	-1620	-16156	1896	1620	9102	6506	4057	-14664	7528	3084	8381	13386	2133	91	93	1
-2932	-9484	5224	11034	-10291	-16920	-6328	-620	-10548	5540	-19824	2207	-15736	-2492	-8140	3858	-14439	-11173	-9868	4336	12412	-950	151	-2035	-17300	2860	-208	2916	6701	3011	-15256	5536	1460	4098	13310	-265	114	110	1
-7024	-9964	5808	9734	-12363	-24461	-5756	160	-11720	11321	-26651	3545	-13448	-1972	-8000	7846	-13615	-10794	-10476	4004	12532	-1390	464	-2069	-16092	540	-576	-489	5093	2184	-15788	2288	1628	3735	17233	-1118	134	123	1
-10216	-9452	5344	9076	-18334	-28627	-5596	668	-10484	12907	-31242	2692	-12992	-1120	-8160	13067	-12752	-8971	-10756	4796	12012	-1676	-7	-2493	-15328	2528	-808	1743	5325	1048	-14208	1568	4548	8658	22178	2478	108	106	1
-10500	-8076	5260	5837	-24637	-29448	-5372	540	-10180	14322	-32768	236	-12004	272	-7988	17727	-12300	-5614	-12268	2720	12312	-1605	-789	-2774	-16328	1040	-604	1252	5597	2224	-14904	3064	1920	11766	19207	1316	107	104	1
-13072	-8240	4284	1409	-27589	-30492	-6064	2708	-10016	14532	-32768	-1153	-10216	3588	-8032	21450	-11284	-1363	-8684	4796	12672	-2372	-1316	-3403	-15668	-1836	764	1572	5482	2371	-18948	7948	-3836	3583	10777	-280	108	104	1
-15164	-9172	4516	-6091	-31522	-28645	-6412	5952	-10028	9784	-32768	-3330	-9652	7956	-8660	22088	-11851	2824	-10868	3268	12964	-1246	374	-2102	-15992	-212	96	-298	8115	3429	-17192	7904	980	-2258	7158	-178	111	106	1
-17144	-10680	5728	-13664	-32768	-29211	-7592	9280	-11212	-902	-32768	-7461	-7704	10572	-8264	20322	-9551	7445	-10624	3440	12992	-678	1039	-2081	-16296	-440	-84	-320	9141	4185	-15868	1544	4372	1097	8701	1977	114	108	1
-18272	-11480	8856	-20745	-31696	-30782	-9720	9880	-13640	-11920	-32768	-12921	-5548	12012	-7820	13363	-5215	8363	-10752	5140	12584	-609	1390	-3008	-16296	1252	-884	1481	9727	4341	-15124	-3004	2932	3890	9082	1054	117	109	1
-26272	-13180	13676	-27623	-28443	-32768	-14212	7552	-15200	-21407	-32768	-18449	-5528	13104	-6796	4833	-1074	9025	-10760	5044	12548	-585	1363	-3261	-16552	1500	-980	1563	9747	4438	-16856	-1332	-176	2521	7566	469	110	106	1
-32768	-8912	16228	-30588	-26776	-32768	-17884	6880	-16884	-25046	-32768	-23098	-7340	6808	-4432	753	1377	5928	-9128	3644	14932	-959	3606	-5402	-17636	-400	-3300	1370	10203	5711	-17972	3708	-344	3847	7298	1688	107	105	1
-32768	1228	18260	-32768	-19869	-32768	-18360	5300	-16572	-25483	-32768	-23002	-13608	-5780	-484	1370	4259	-175	-10896	1312	13976	-1124	7288	-4606	-16440	-1480	-3072	268	11275	5077	-16680	4476	1756	4454	6371	1472	110	105	1
-32768	6276	10996	-25290	-15395	-32768	-23584	2596	-15328	-20858	-32287	-14027	-20892	-2756	15272	-6127	292	-7428	-10960	2696	13748	-875	11457	-3276	-17864	-104	-1604	-552	13216	5581	-15720	2860	4028	4868	6650	-961	115	107	1
-32768	15072	-6596	-6243	-12836	-30278	-14416	-4256	-11628	-3155	-17680	-9339	-24060	-7232	27504	-10003	6705	-10785	-11472	3852	13536	-1028	15153	-4327	-17824	1652	864	678	14879	6128	-16760	3932	3100	5697	7124	-1458	179	141	1
-32768	32767	-12588	-6574	-2933	-10096	-6528	300	-12320	4898	-33	-4144	-25008	-1200	27180	-17521	9671	-3896	-11944	3504	13040	-2452	17917	-5910	-17392	1600	800	1037	17230	6955	-16508	5484	4268	6960	6262	147	166	138	1
-32768	32767	-14076	17016	15751	18336	-12384	1068	-4680	8825	16307	3466	-15208	-7452	14432	-10300	8267	-2186	-12004	3864	13220	-3473	22863	-7626	-19492	-1796	1344	4864	20312	7366	-18816	5208	6924	10854	5317	-567	94	96	1
-1256	-23156	25836	5272	11777	20559	-32768	7268	27668	3774	8005	2716	-17952	-5044	-2136	-5417	17724	-4070	-12600	5844	14876	-5168	29868	-10832	-24916	-6592	3308	10788	23680	8552	-23744	3164	9968	11577	3478	-1011	123	113	1
-17244	-4084	20800	5227	21267	23220	-21516	9892	7104	5037	12706	-201	-30680	1672	15336	7521	1579	5898	-14956	8232	15116	-7218	32767	-17639	-25100	-7524	5348	15764	26428	10229	-24984	-3412	21564	16314	-14144	-3423	99	97	1
-15720	-3244	17932	-4315	16081	16339	-11796	8832	-3000	3667	19194	8233	-17540	-4900	-2264	22864	898	9083	-27852	8824	24012	-9115	32767	-23872	-27632	32	2736	11032	29233	11762	-19088	-11324	11904	7393	-12884	-5842	79	89	1
-32768	-31916	-7092	-3001	9327	9652	-18888	-5056	-16308	-8831	19167	1078	-10512	10104	-6136	7269	3683	4513	-25372	8376	22196	-8890	32767	-27839	-28220	4828	120	6319	30760	10857	-23432	9692	-3384	28621	-17481	-4529	87	94	1
-16304	-6112	12152	7899	4207	10833	-19672	-17792	-13912	11212	13030	-153	-14952	1876	-13908	-5826	16246	-1944	-32768	23884	23396	-3957	32767	-28605	-26940	4268	-4244	6686	28304	9035	-25888	12164	-2568	14971	-22455	918	94	97	1
-10268	-7896	10332	7987	911	6807	-16860	6360	-8168	32767	6498	8514	-13332	-8456	-14420	-10562	17968	-4543	-6068	17176	21664	-11440	32767	-32768	-27184	-148	-5284	4614	19615	4212	-29484	6272	-5548	-5120	-27028	3591	135	120	1
-11556	-7512	10332	6706	52	5335	-13092	14120	-5548	3440	6796	1960	-15984	-4372	-5124	4766	9440	-2360	-32768	11776	32767	-10345	28951	-32768	-15408	2084	-8988	5605	-16812	9096	-27588	768	-5696	-14674	-27624	4142	104	101	1
-10120	-6536	10372	3464	-297	2379	-13520	13540	-5816	-1489	7795	610	-19044	6284	-1512	6810	10620	1941	-27868	8456	32767	5465	-16552	-25090	-12052	3740	-15352	865	13726	-2638	-26700	-3036	-1952	-10720	-28864	1827	119	110	1
-10120	-8736	9260	1478	-175	1058	-17708	-6668	-2936	-8780	9741	-1517	-16532	3236	-268	1401	12243	6740	-4208	7768	14632	20688	-23894	-12686	-10836	-5208	-8968	8427	4081	-5496	-25176	1640	-2316	-729	-27010	2497	122	113	1
-9664	-9416	8648	1009	-140	820	-17868	-7436	-952	13326	5144	4180	-14052	-1972	-676	-5541	13896	5196	-3900	14848	8900	13733	-22809	-3322	-9404	1696	-12092	8261	-4119	-7948	-24076	2388	-3620	-1095	-26575	3848	144	124	1
-9636	-10116	7924	1577	-505	1350	-16948	1568	-1276	18095	2426	4308	-14748	-5888	-876	-3684	13998	3026	-2792	11764	8312	-2225	-23437	7997	-6984	424	-12304	2427	-15340	-7059	-19732	2212	-5016	-1878	-26568	4108	126	114	1
-9576	-9912	8096	2566	-1188	2143	-14608	6260	-2260	-2382	6425	2181	-15564	-4772	-1672	2596	12918	2131	-1264	4352	10376	-2665	-20977	19851	-5124	1932	-12160	-3424	-20265	-11380	-16304	1608	-5500	-2884	-21159	3813	115	109	1
-9420	-9536	8664	2918	-1169	2466	-15176	3056	-2260	-13722	8855	-334	-17200	1080	-2184	31	13885	2792	-5272	1616	11072	4262	-19200	27396	-5496	124	-11192	-7799	-24659	-13118	-14788	1504	-5620	-5381	-19146	4095	120	112	1
-10036	-8300	9504	2233	-636	2248	-18024	-2376	-2896	-7893	7698	474	-16580	2564	-652	-4758	15169	3689	-7180	-676	11692	9505	-20557	28269	-4260	-552	-10076	-5571	-27443	-14672	-12560	900	-6960	-9080	-16576	2194	116	109	1
-9904	-8376	9364	1447	52	1568	-17556	-1592	-2952	5220	5151	3118	-14588	1016	500	-10289	16435	3939	-11156	-828	12976	13537	-23747	25861	-4468	-292	-10640	-2777	-32768	-12753	-9392	-808	-7568	-12405	-12859	-1538	115	109	1
-9760	-8664	9152	1063	441	1646	-16248	4116	-3324	7066	4110	3114	-14940	-40	-3240	-1665	15168	4851	-15244	-464	13876	17202	-29147	23117	-4220	756	-10984	837	-32768	-13777	-8012	-2068	-8384	-13112	-10168	-5188	125	114	1
-10044	-8220	9344	423	759	1544	-14996	5808	-3180	-2132	5991	1558	-17708	-1464	-8600	8396	11286	5049	-17764	744	13940	19700	-32768	21369	-5272	1056	-11432	4778	-32768	-15277	-6360	-2412	-9508	-13022	-6762	-6589	133	119	1
-9900	-8244	9308	-211	1101	1385	-16944	1264	-1308	-5970	7592	801	-15600	-2420	-5468	3855	8599	4561	-21048	2552	14888	20942	-32768	21801	-7732	3956	-13476	7915	-32768	-15805	-5788	-2004	-10040	-10273	-2439	-6820	123	113	1
-10160	-8016	9388	-764	1486	1264	-16528	-2172	288	362	7406	2059	-15580	1140	1532	3488	8426	5187	-28652	3736	15980	20426	-32768	25041	-12632	4048	-14356	5548	-32768	-15609	-6380	-1712	-10276	-6852	2375	-5761	117	110	1
-9928	-9124	9056	-1034	1346	1588	-15888	-1460	76	5052	8472	3436	-16944	2228	4328	6079	7334	3406	-32768	156	16932	20130	-32768	30547	-17364	6660	-15440	6263	-32768	-16614	-8220	1412	-7296	-5054	4974	-3307	114	107	1
-9868	-9964	9080	-891	1018	3442	-16664	-208	-444	5710	10805	3316	-17552	1876	2720	2387	6307	1555	-32768	-8980	14852	20872	-32768	32767	-22784	6248	-16040	8092	-32768	-15982	-11572	9412	564	-4408	3846	2776	109	105	1
-10148	-9488	9696	-618	1225	5203	-17264	40	-1308	1230	13696	3696	-16592	740	556	-3886	6157	557	-32768	-16356	7304	20783	-29484	32767	-23788	9468	-12068	6033	-32768	-16020	-18528	5544	17184	5794	-1627	6934	114	107	1
-10104	-8708	11664	1065	4875	6235	-18644	1500	-2080	-2141	14816	5590	-17668	-420	-36	-9352	6789	871	-32768	-20068	-10816	12817	-26638	24054	-21132	8060	-13708	3081	-25865	-10227	-27068	-6040	30812	11019	6565	9205	113	106	1
-9904	-9392	11276	590	7483	6831	-18920	724	-1880	-3571	15869	7183	-18540	-1416	600	-14901	5691	2550	-32768	-32768	-28024	15829	-14711	5193	-6352	192	-3664	13335	-8596	5261	-20024	1908	32767	545	7394	8151	121	111	1
-10660	-9852	11428	1625	9872	8207	-18640	-432	-2136	-3595	17567	8462	-17484	-4128	-128	-16009	4438	3538	-32768	-32768	-27228	18190	4015	-7133	-8232	12136	-6456	7649	11912	11509	-14452	-3432	27256	6187	3779	-4983	108	104	1
-10920	-10768	11228	2360	12847	10644	-20200	-608	-2572	-3739	18505	9565	-20128	-4212	-1244	-15033	4053	3356	-1344	18892	32767	-16666	1946	-19782	-18516	-12892	12800	-7578	17296	13134	-10296	1088	3456	5488	8826	-2812	135	119	1
-11388	-13356	11204	3789	15372	16533	-23168	1500	-956	-5626	19482	9611	-22484	-1624	3920	-10653	-1885	3685	10848	13440	-2628	-16497	19786	-14609	-25624	5816	4764	-21648	6626	7038	-15336	-2828	6212	13640	9806	1731	133	118	1
-12284	-13500	11420	4188	19649	22723	-23016	1608	-740	-5884	19772	9644	-19664	-3996	8028	-5095	-4686	1905	-31820	-9188	26884	-11910	28575	-6628	-13680	-11068	-2476	-19401	4117	8159	-22332	10508	16796	-15315	-7035	6164	109	106	1
-15064	-19628	11688	3842	23299	30977	-24580	-1096	3868	-10844	24959	10503	-20320	-1280	10896	-7955	-7152	-190	-16008	-10184	25132	-1106	20697	-11506	-14032	-9576	-4432	-17891	10139	7783	-22724	13464	14592	-19428	-6596	5506	111	106	1
-17400	-18968	13212	5157	26504	32767	-25664	-2916	3328	-9670	25172	10665	-22860	-2264	4540	-2308	-10878	-911	-21712	31724	-9436	-8975	8331	-2966	-22972	19184	-5560	-1206	17648	11730	-15164	-22992	-7228	-2768	9403	2048	121	111	1
-26260	-27748	18688	7167	24006	32767	-28420	-2712	-3248	-2581	25389	12622	-21992	-10100	-3084	-1861	-19195	-8192	-16920	736	13172	-9086	1075	-6864	-15012	8260	-9028	-6729	13529	8387	-9520	17172	-17012	32767	8126	-2883	116	109	1
-21900	-22972	18240	11743	20217	32767	-27612	1760	-5056	525	21061	11154	-26384	-1056	-6328	7235	-24934	-11604	-12072	3476	13172	-4778	-346	-4182	-14476	3016	-7536	-746	10024	2421	-13140	29164	-6044	14408	9776	8898	104	102	1
9216	-25556	15436	21049	23717	32767	-22796	1436	-4628	9962	12327	11036	-29164	7312	-5940	11318	-25947	-11482	-10748	1624	14636	-2499	-1116	-2351	-17456	4200	-6504	-2766	6963	3847	-22956	9192	-6136	-21088	17454	10914	99	99	1
-24260	-21204	24704	8804	-1461	22236	-14040	10180	-27364	6279	12169	10998	-28136	10128	-3760	9304	-25343	-9451	-10388	2420	14172	-886	-167	-1067	-17536	-2308	-4148	-5844	7895	3864	-17676	-11480	900	-18456	13287	-1869	102	101	1
-3952	-16584	9732	-6917	-11982	754	-14792	10276	-25304	3177	11457	10077	-26148	6988	-3148	1199	-22217	-10670	-10048	4000	12848	49	727	-541	-15456	-1972	-1012	-2294	6608	4599	-13336	-4480	3388	-2072	12179	-5414	88	93	1
-60	-16032	4196	425	-9574	-3265	-8444	5516	-8008	-15082	-4133	-1044	-22844	5836	-4036	-3269	-19484	-11137	-9880	4952	12312	-121	573	-997	-15320	384	984	2610	6882	3595	-15180	4320	2704	4808	11857	-1061	154	129	1
-396	-9740	4372	5920	-5473	-9520	-7424	3904	-8148	-9414	-7632	-5146	-19608	3868	-4836	-6443	-17425	-11724	-10048	5588	11632	-829	65	-2316	-15532	2420	1568	6163	6897	3496	-15932	7676	3024	3557	11381	2122	154	129	1
-2692	-7532	6716	1684	-4000	-19380	-5896	1916	-9564	599	-14788	-5761	-18924	1984	-8048	-6005	-19617	-12556	-10320	4440	12300	-2005	-895	-3526	-17488	4064	-960	1813	6992	2316	-15032	5708	2276	-178	11571	3740	78	87	1
-5480	-9300	7864	-745	-7791	-25767	-5648	2848	-9644	8301	-22115	-6395	-14580	1736	-6100	-3237	-13205	-13344	-10512	3404	13380	-2337	-1080	-3367	-16212	-224	-2572	-5160	6750	2140	-16240	504	2480	-603	12598	908	131	116	1
-7936	-7592	8604	-1975	-13743	-30133	-5468	4836	-9136	11373	-27238	-8842	-14948	2124	-8100	301	-13515	-11349	-10640	2876	13324	-1514	-629	-2375	-15664	-1784	-3004	-2518	6296	1678	-16132	-628	2556	5001	16718	874	113	107	1
-9744	-5572	9716	-5968	-19402	-32768	-5172	4892	-8976	11692	-27938	-9271	-13088	1696	-7224	4181	-12238	-8113	-10736	3408	12956	-1266	-332	-1989	-15476	208	-3136	1426	7010	2450	-13624	-392	3540	12502	22467	3049	120	111	1
-10648	-4528	9932	-12394	-24475	-32768	-5944	6536	-8884	12050	-32768	-12938	-10244	2496	-7284	10182	-11342	-3244	-10372	3784	12812	-983	-175	-2061	-16548	1092	-2788	1907	7535	3229	-15620	1744	2876	15836	20150	244	119	110	1
-12976	-4976	11120	-19648	-27709	-32768	-6936	8904	-9088	7552	-32768	-14146	-8112	4792	-8280	14726	-10678	803	-10088	4032	13116	-980	340	-2488	-16744	-764	-2756	1724	6853	3474	-16972	5700	-3332	9873	13327	-2002	114	108	1
-16028	-6796	12832	-24633	-30980	-32481	-7408	11548	-9892	-4897	-32768	-16326	-5656	6484	-9596	16728	-7619	4775	-10372	3556	13024	-1049	521	-3326	-16360	816	-3220	1161	6516	4125	-17304	7868	-6312	-1120	11351	-3	113	107	1
-18032	-9172	15544	-27239	-31451	-31911	-8884	9840	-11604	-12649	-32768	-20156	-4988	8348	-10756	13363	-4964	6177	-10468	3780	13052	-203	1251	-4129	-16100	316	-4044	1909	7129	4452	-15304	3072	-1312	-2236	11245	1683	116	109	1
-23812	-12472	20192	-28315	-29587	-32768	-15308	8740	-14088	-17703	-32768	-23104	-4328	8900	-10644	12687	-4187	6361	-9824	2864	14196	2	2564	-4457	-16356	-492	-3960	2785	6627	4209	-15580	560	788	-592	11297	94	121	112	1
-32768	-11280	23548	-27277	-25696	-32768	-20692	9208	-14832	-17390	-32768	-24227	-7000	7176	-4920	-20	816	4801	-10376	2032	13772	-785	5264	-3754	-17136	-1732	-2924	1699	7922	4039	-18668	520	2480	-3516	10107	-53	86	92	1
-32768	-764	24100	-27692	-19711	-32768	-24400	3308	-17300	-19001	-32768	-20340	-14020	-5380	2360	-3505	-717	-1829	-10240	2204	13820	-808	5603	-3662	-16736	-1816	-132	-359	9885	4126	-17600	692	7184	-2520	8759	-88	130	114	1
-32768	7968	13360	-22394	-18703	-32768	-22672	2328	-14936	-14114	-32768	-13836	-24160	-6228	17356	-8530	-1551	-10936	-10532	3664	13992	-1264	11064	-3214	-17300	-856	1040	-671	13544	4086	-17048	-2364	8352	3073	6786	86	128	116	1
-32768	26420	-3148	-10058	-11015	-28438	-14084	1724	-12592	7751	-19325	-9211	-26936	-9936	32767	-7236	5984	-5194	-10928	4076	14152	-2278	14382	-5089	-18164	-212	1000	773	15099	5502	-17636	340	4904	9147	5781	-1184	130	115	1
-32768	32767	-7524	-9513	-1834	-7189	-2144	28	-7428	1124	3463	1801	-22468	-5904	30948	-7243	4547	-1450	-11612	3384	13860	-3444	18026	-6663	-18456	8	556	1053	17812	5666	-17132	8228	2824	11474	5687	-1828	87	93	1
-32768	27352	-3644	5119	4015	10838	-4972	2796	-11692	2743	23404	7058	-15668	-5248	13820	-1845	1948	1106	-11992	3524	13664	-4659	22917	-8647	-19084	-2880	228	4020	20330	6468	-18596	7968	4100	11315	4410	-1904	114	105	1
-8016	-32768	11884	14074	-2277	14935	-32768	5904	24788	-16365	16198	1606	-13864	-692	-948	-8066	8565	-861	-12844	5664	15548	-7623	28280	-11709	-23516	-2752	3004	7450	23178	7451	-21300	4092	9704	8416	3261	-1153	113	111	1
2344	-6800	11392	21910	18940	32767	-19456	-2228	-388	2720	8181	-4883	-15000	6192	6256	-11725	12147	2817	-14224	8388	14204	-10564	32767	-19071	-25916	-4644	4640	6776	24767	8714	-25096	-2520	20920	11518	-13946	-2822	118	111	1
-16348	-1124	17756	3250	24811	12886	-12972	13368	-5800	11037	11309	9635	-25808	-2432	-3844	19207	-2980	5736	-21120	4832	19864	-14531	32767	-25682	-24956	-2696	2140	5178	27364	9760	-18112	-8340	14148	5043	-10135	-5108	135	120	1
-17004	-1132	17688	-2151	15570	19858	-26368	9884	-8444	321	18301	5423	-21424	4560	5240	15391	-922	-955	-28540	1708	26824	-12301	32767	-28037	-28420	1768	592	4173	29766	10539	-24448	9704	1284	23162	-16150	-3762	120	108	1
-7952	-9668	10932	8005	8978	8803	-21860	-11496	-14656	-5657	18494	709	-14628	6164	-14992	-6732	17319	-450	-32768	9264	29984	-13949	32767	-32002	-28452	4644	-4604	4246	29156	8722	-23772	13676	-600	9646	-19756	231	81	89	1
-13792	-14120	3432	7339	2566	5625	-15864	-4000	-10656	21807	12507	5839	-12452	-9144	-18804	-24019	21257	-1765	-13028	17292	25560	-21248	32767	-32768	-26640	1440	-4492	2217	21841	2150	-29420	9664	-5580	-7282	-25037	3418	102	102	1
-12372	-9608	8004	6652	53	4779	-15956	8964	-9796	9069	6583	6127	-11060	-13852	-7768	34	11113	-3344	-32768	5948	32767	-24111	28854	-32768	-19012	3904	-6412	1023	-18156	8680	-28636	3432	-5664	-17720	-27539	3979	141	123	1
-10620	-8008	9772	4647	-400	3033	-15744	6416	-5968	-6665	8993	1008	-19696	-632	-4240	11256	9162	1539	-25568	6540	32767	1729	-14974	-20735	-14736	4688	-14744	-6321	17868	-7177	-29500	-620	-2476	-16045	-28360	2297	69	84	1
-11064	-7956	9888	2444	84	1462	-17052	1216	-3516	-8042	10263	1029	-19968	8876	1664	8395	8757	5642	-4180	9280	14632	17168	-20250	-10544	-11828	-1156	-9424	3486	5557	-8611	-27820	1404	-2532	-6312	-28203	2661	116	108	1
-9828	-8876	8856	832	634	788	-17932	-5072	-2892	5302	7297	2359	-14912	5116	108	-1584	10655	6204	-6300	15240	8776	8751	-21325	-4595	-9276	2244	-11468	5960	-4740	-10617	-24352	660	-3756	-4742	-27402	3661	152	128	1
-9608	-9664	8160	1012	419	1073	-17220	-284	-3120	11172	3985	3257	-13660	-1764	-1396	-9306	12868	4681	-5752	12176	7552	-2927	-24259	3866	-6984	2548	-11756	4649	-15008	-9543	-19620	2520	-4796	-2507	-25961	3750	157	132	1
-9596	-9908	8264	1417	-72	1510	-15248	4528	-2836	-3271	6383	3207	-14856	-4480	-1780	-8345	12126	2429	-4316	5556	8720	553	-23580	14340	-5740	4632	-11836	2017	-19120	-12334	-16228	4028	-4988	-1660	-20798	5516	129	117	1
-9712	-9520	8460	1717	-368	1881	-15164	1892	-3516	-14272	8319	583	-16340	-2800	-2248	-4131	12903	1481	-8220	4532	9420	9611	-22455	22360	-6088	4580	-10748	-3503	-23268	-13583	-15152	3496	-6280	-4525	-18238	7341	111	106	1
-9956	-8944	8932	1593	-313	1834	-17432	-3180	-3668	-10445	7322	868	-17076	1068	-2268	-5726	15071	2437	-8700	4628	9464	10481	-22701	23191	-5748	3624	-9700	-4104	-26833	-15202	-12956	3424	-7148	-8356	-16356	5826	100	100	1
-10084	-8452	9268	1032	126	1288	-17264	-1972	-4140	2475	4368	2614	-15140	1236	-2116	-12234	17903	3414	-12876	3144	10028	15795	-27128	26109	-5552	3116	-9792	-3254	-32768	-13241	-10152	2232	-7556	-12427	-12229	3391	124	113	1
-9876	-8744	9020	556	361	1004	-16112	3120	-4856	3446	3634	3376	-13980	-1816	-308	-13325	20294	5845	-15324	2620	10152	19055	-28797	26170	-5524	2928	-9988	-1967	-32768	-13573	-8364	1588	-8096	-16320	-9781	629	128	115	1
-10116	-8616	8948	562	368	964	-15096	4516	-4584	-4067	5048	1829	-15252	-1380	-4500	-4204	17136	5986	-18304	4260	10372	20601	-29439	26742	-5780	3124	-10308	-1172	-32768	-15154	-7080	176	-9200	-17269	-8223	-1528	132	118	1
-10004	-8396	9252	-88	586	942	-16040	2320	-2552	-7590	5968	665	-15896	-2692	-9848	2097	11415	6594	-21396	6372	11580	18979	-29811	28654	-7556	3428	-12052	-144	-32768	-15604	-6076	-1200	-9656	-17673	-3027	-2326	146	125	1
-9924	-8548	9068	-401	890	908	-17068	-1896	-1420	-3081	5885	1356	-15744	-3320	-4240	3091	7873	6320	-27376	8080	14448	16204	-29556	32469	-11932	4376	-13248	-686	-32768	-15355	-5912	-2676	-10172	-14958	1687	-3372	129	117	1
-9768	-9184	8568	-64	834	1385	-16028	-2144	788	4484	6206	2934	-15612	-976	2508	5537	8723	5738	-32768	9520	16476	12422	-30238	32767	-18072	5716	-14752	-6241	-32768	-15544	-7636	-3404	-7004	-12593	4187	-3603	126	115	1
-9760	-10224	8256	189	92	3022	-16136	-2232	-452	6808	8206	3044	-17268	1304	4940	7253	8500	3854	-32768	-2276	14712	10944	-29972	32767	-21320	7736	-13080	-4341	-32768	-14777	-10984	3324	-28	-8146	690	-422	125	114	1
-10112	-9788	8612	51	-263	4979	-16696	-1368	492	4372	10764	3365	-18192	388	4460	3660	6378	1729	-32768	-13404	9500	12957	-26248	32767	-24512	6664	-12896	-5525	-32768	-15854	-18052	8324	12704	-4490	-2543	6376	120	111	1
-9732	-9364	10384	689	859	6599	-17448	-2128	-560	2954	13305	4543	-17476	-868	3752	-2129	6207	323	-32768	-21324	-3444	8471	-23210	32767	-21536	8176	-13556	-3067	-29217	-14745	-28552	276	28736	-5278	-291	14134	127	115	1
-10196	-9268	11532	2037	5807	8004	-19864	1940	-1076	846	15375	6799	-19912	-680	1772	-8438	5348	907	-32768	-32768	-21992	6287	-18536	16182	-10916	2048	-5864	1597	-13534	-3219	-20472	-4416	32628	-7809	4264	13005	113	107	1
-11356	-7420	12360	1634	9496	8421	-18560	-1300	-624	-436	17354	8378	-19016	-3584	1320	-13354	4469	3326	-32768	-32768	-28008	18258	-4824	-6103	-8528	10868	-5696	7764	4200	10271	-15696	-4312	27368	6907	3131	480	97	99	1
-11368	-10212	12104	2063	12027	10923	-20628	-832	-2500	406	19297	9481	-20368	-3364	-748	-14572	2449	2609	-32768	-17656	-16304	3196	9384	-16336	-10084	6676	-13480	-3250	20398	14076	-10896	-4924	12636	7950	1343	-3956	115	109	1
-10768	-11732	12012	2210	14728	14500	-22376	4316	-660	-4435	20859	8995	-20808	-1320	3380	-15392	-1110	2123	20148	10316	32767	-10977	2957	-7222	-31616	-26808	9180	-2759	10662	10680	1536	1296	-6948	17774	7809	2165	143	124	1
-10580	-12748	13960	2778	19217	20347	-23164	3468	784	-12540	24017	8916	-19452	28	9188	-7899	-4733	1634	-2600	10468	11132	-18756	32485	-13649	-20068	-8244	-1044	-31600	4616	423	-18224	4488	-10408	23929	18499	5843	117	110	1
-16016	-17444	12440	2002	24217	28944	-25500	2336	3836	-14095	26013	8451	-20456	2324	12112	-12775	-8957	962	-21908	-14608	29516	-7852	22833	-7684	-18736	-10880	-8900	-15070	8266	8771	-32768	16804	20080	-26725	-12998	6947	118	109	1
-16160	-20180	13928	3719	30800	32767	-27940	-1368	940	-10588	27916	9161	-20800	644	6956	-6993	-9534	481	-16688	-1392	20588	4162	16964	-10635	-16284	-10092	-9308	-3140	17106	7020	-21328	-15952	288	-32768	16339	12479	106	103	1
-22072	-19692	14100	4605	31964	32767	-27144	-3692	-7184	-4709	27969	10080	-21704	-12324	-3180	-13775	-18085	-6820	-32768	27420	776	-2247	7466	-2733	-17228	16268	-3448	4130	13525	11700	-16232	-17232	-4680	-28193	21052	9420	126	115	1
-23216	-23420	21968	7483	26335	32767	-30100	-844	-8128	-5153	24267	11704	-24372	-6764	-7356	5061	-23944	-11243	-11876	-3736	13696	-6952	1290	-6219	-19388	14288	-6796	-5931	7199	6659	-12608	24544	-9488	32767	3375	-5391	115	108	1
-3328	-29220	15432	9299	29124	32767	-25132	2416	-4312	4961	14080	13860	-31536	772	-9364	12493	-25607	-14906	-11600	2680	14068	-4617	139	-4138	-14088	3688	-4388	-6564	6322	2434	-19796	28208	-3688	-7194	16086	18845	110	105	1
-32768	-26040	26736	12447	10321	32767	-12720	7456	-25896	10542	10527	13508	-30672	8924	-7032	13783	-26243	-9673	-10652	2228	14568	-4107	-1044	-3466	-17864	736	-3792	-5854	4851	3620	-19936	-2900	-416	-20270	14420	8589	114	108	1
-7272	-15816	16576	-328	-15833	5174	-11316	7844	-29244	9812	11604	13113	-28664	7256	-3364	8211	-26150	-5867	-10192	2548	14412	-1533	-200	-1693	-15680	-5284	-2648	-2397	7180	5661	-14784	-11948	4556	-6933	10549	-3899	118	111	1
1040	-13744	5020	-3540	-16322	-2585	-9264	9732	-6808	-13464	-5818	2318	-23748	6256	-4780	675	-20946	-9136	-10120	4272	12712	-264	810	-863	-15708	-580	-712	1708	8022	6690	-14552	-892	4268	4856	11318	-4023	137	120	1
1104	-10588	3284	1977	-12483	-7090	-5184	4288	-8688	-14982	-9525	-4056	-19980	6008	-5308	-4936	-18960	-9462	-9824	5340	12016	-444	1030	-1174	-16348	2244	868	2657	6792	4614	-14972	7064	2308	6431	12157	1206	136	118	1
-1400	-7764	4720	2004	-9783	-15440	-4776	2196	-7836	-4994	-15597	-6281	-15936	3628	-6144	-7325	-16280	-9769	-9828	5620	11728	-1177	667	-2202	-15120	1524	1232	3753	6115	3638	-14188	9700	2772	613	11236	4344	116	112	1
-4192	-8352	6564	-1789	-11110	-23431	-3784	1864	-9624	4228	-22718	-7262	-12460	2744	-6156	-6391	-14071	-10029	-9900	4608	12132	-1865	447	-2979	-16248	1552	-1564	2704	8144	4396	-16200	3564	2816	100	10726	2642	117	113	1
-7808	-8068	7772	-3664	-16377	-28737	-4812	3612	-9380	7520	-27647	-9208	-11944	804	-6920	-4805	-11956	-10064	-10380	3780	13044	-2209	765	-3121	-16832	172	-3424	185	6849	3863	-16584	-1368	1332	3142	13680	2550	115	111	1
-9272	-5824	8620	-6518	-21577	-31982	-4928	4012	-8624	9421	-32047	-11304	-11616	584	-7564	167	-8990	-6814	-11120	2872	13160	-1158	1145	-1983	-16144	-164	-4796	1765	6575	3303	-14400	-1984	1252	10603	17300	1307	107	105	1
-10420	-4784	9008	-11786	-25339	-32768	-5952	3780	-9208	10967	-32768	-12463	-10472	-468	-8000	6527	-7304	-2908	-10956	3364	13020	211	1767	-1102	-16060	712	-4736	3914	6601	3560	-14568	2684	-1064	15495	20557	-593	111	108	1
-12780	-5936	9888	-17390	-27665	-32768	-7080	6020	-9260	9839	-32768	-12796	-7820	2424	-8672	14631	-7168	-356	-10692	3836	12528	725	1932	-689	-16080	544	-3724	4873	6031	3879	-16168	6472	-3140	9169	20452	-1018	109	108	1
-17416	-7896	11416	-21311	-30063	-31952	-8540	9252	-10344	930	-32768	-13366	-6280	5036	-10252	18760	-6187	1936	-10492	3792	12700	979	2559	-558	-16980	892	-3332	3576	5444	3905	-16728	7088	-3448	2129	15876	-1014	106	106	1
-20024	-9688	13380	-24560	-31476	-32246	-9232	9784	-12784	-8390	-32768	-16130	-5580	7372	-11124	17232	-4448	4665	-10640	3852	12844	1465	3360	-583	-15192	124	-2680	3422	5915	4361	-15348	2484	-244	-3091	12137	896	108	107	1
-25596	-12280	16544	-27876	-29772	-32768	-14744	8544	-14948	-17723	-32768	-20664	-6024	9656	-10400	11728	-2028	7879	-10708	3504	12576	2072	4296	-559	-15608	8	-1792	4390	7095	5460	-15000	952	2688	-2399	12136	1577	109	106	1
-32768	-14568	17476	-28740	-26938	-32768	-19988	7212	-15908	-21154	-32768	-24948	-5856	10740	-4704	-861	-154	5492	-10344	3576	13124	2760	5936	-736	-15700	48	-1640	4514	7225	5481	-17368	3268	3768	-1290	10654	780	100	100	1
-32768	592	17636	-30992	-19650	-32768	-23520	548	-18876	-26174	-32768	-24779	-14100	-2796	1064	-8248	-2408	146	-10336	4056	13212	2126	9104	-666	-17248	-2244	576	4819	10460	5576	-19116	2744	5664	59	8838	796	111	105	1
-32768	10240	11388	-32768	-15850	-32768	-21540	1144	-16336	-24286	-30381	-18446	-25348	-9624	15324	-16245	-3509	-9869	-10448	4196	13360	1683	13569	-545	-18712	-1124	628	3745	13415	6084	-17420	-2244	8756	3219	7345	1019	121	113	1
-32768	20188	-972	-23251	-10731	-31134	-16352	-1416	-14348	-5909	-18042	-12748	-24036	-12636	32767	-20742	6729	-7822	-11428	5108	12908	1413	17615	-1962	-18004	-1632	260	6627	16286	5954	-18356	-4072	5812	12679	5405	-1293	163	130	1
-32768	32767	-8868	-13567	-5051	-7830	-3296	4332	-6308	-11809	5388	-6459	-20828	-8464	28164	-16412	11418	-4892	-11880	5256	12396	-508	21650	-3316	-18344	24	520	7439	18867	6049	-17404	4760	1884	17474	4471	-3509	93	96	1
-32768	26044	-5404	-230	-290	13614	-8300	-2784	-9360	-2904	22462	3026	-14872	-11112	12200	-6911	6113	-3571	-12144	5732	12372	-1310	26166	-5425	-18836	-2268	928	8580	20995	6599	-18020	7600	3232	17527	4210	-2694	136	121	1
26204	-32768	32767	29535	-1501	8536	-30252	4056	32767	-6618	20158	2205	-10104	-14988	-2636	234	13041	-4436	-12640	7304	12612	-1958	30914	-8551	-21124	-2284	4108	11183	23668	7385	-19072	2124	11328	15650	-223	-1975	131	115	1
15332	3560	10588	31611	27205	31759	-25096	-12808	-6032	32767	5009	-2369	-19736	-1692	-2576	4024	14386	2397	-14368	8068	12928	-3127	32767	-14936	-24984	-3064	4000	7530	25296	8354	-22172	-4744	15404	8704	-13983	-3486	133	119	1
-24716	9340	26632	6245	24321	9555	-6820	25620	-8400	32767	4465	13288	-32768	-1620	6040	32767	-15470	9510	-15960	8200	16340	-6625	32767	-22036	-26564	-1524	2052	2684	27713	8482	-20804	-1224	12204	13239	-11016	-4971	110	105	1
-20392	-3616	17204	-3392	12343	20483	-26280	23544	-11372	18811	17800	10275	-16004	21868	4864	26291	4126	9045	-27680	6992	19224	-6232	32767	-26219	-29212	3752	-2152	-698	30141	8749	-26612	14624	1316	18798	-15791	-1994	107	102	1
-10492	-21576	-1588	6881	9743	6611	-20160	-11152	-12692	-18918	20062	-3855	-8196	18876	-18280	-9266	17198	3490	-32376	9948	25728	-1790	32767	-28081	-29844	3180	-6192	-5271	30034	6674	-24980	17052	-1776	2777	-20352	3587	52	73	1
-14004	-14612	3524	9532	2081	8607	-17464	-10296	-10556	14872	8805	3509	-14324	-11452	-21244	-32768	23231	-8333	-21840	23476	27352	-5694	32767	-32768	-26936	5740	-6736	-10200	23406	367	-29156	8200	-5772	-15295	-25419	4747	156	131	1
-13164	-8876	9024	8021	-618	6816	-15596	11616	-8764	-718	8862	4661	-13956	-21264	-5836	-12803	21078	-8595	-32768	16092	32767	-9105	22380	-28935	-29148	16028	-16984	-9119	1628	2325	-28936	3080	-4296	-22464	-26866	4461	160	134	1
-10916	-6220	11800	4934	-1021	4018	-16892	5952	-5648	-10943	10172	184	-24220	2096	-5744	10032	9414	1419	-14944	15680	26860	-4778	-18099	-8818	-13532	-2588	-7304	-11072	25533	-12089	-29656	-888	-1872	-16827	-27180	3450	0	50	1
-10116	-7644	11300	1322	416	1807	-17020	-5252	-5164	4035	8672	-14	-16596	8624	-64	9003	9773	8178	-1468	9084	13244	-2933	-21568	-11593	-10916	1420	-10228	1111	-556	-7007	-25788	-2120	-1948	-7378	-26793	1734	187	145	1
-9460	-8852	9300	-21	933	694	-17144	-3140	-3468	20746	4553	4725	-13564	2620	-1724	-200	12821	8118	-5716	8668	10876	-3320	-23953	-9268	-8392	3752	-11104	1014	-6075	-10622	-21976	1764	-3032	-4044	-26179	3268	186	147	1
-9608	-9608	8328	467	630	818	-16200	2056	-2256	19609	2036	4831	-13992	-4676	-896	-2404	12881	4598	-4156	8736	9364	-2602	-28143	-3958	-5276	1972	-10236	4649	-11669	-12146	-21004	2356	-3068	-3498	-25603	4021	150	128	1
-9416	-9924	8120	1686	61	1514	-15072	5616	-1516	-6123	5797	1253	-15916	-5556	-1460	302	11137	1357	-3416	7312	7504	586	-28880	640	-6604	3420	-9988	6773	-17486	-14508	-16884	2928	-4564	-3430	-19861	5435	113	107	1
-9128	-9436	8576	2522	-457	2239	-14688	2240	-892	-22108	10837	-1105	-17748	-224	-36	-814	11005	264	-4832	7060	6748	4311	-27412	5280	-5684	4452	-10020	4774	-23206	-15669	-15672	3320	-5564	-6465	-18161	4905	110	106	1
-9308	-8564	9352	2367	-269	2484	-18564	-4844	-1372	-15449	9953	-332	-16792	2204	1796	-7238	12189	1265	-6932	7432	7256	6762	-26260	9725	-5200	2868	-9360	4038	-27801	-15276	-12876	2592	-6936	-10281	-14888	3661	120	111	1
-9516	-8848	9020	1929	147	2252	-18440	-4404	-376	6012	5831	2056	-15308	-436	3036	-13036	15544	1990	-9984	7064	8460	9037	-25964	13043	-4876	2956	-9692	4070	-32399	-14930	-10160	1676	-7864	-13729	-12572	1418	125	114	1
-9788	-8892	8916	2306	-71	2408	-15944	1412	-1900	10969	5053	4451	-14532	-2772	2664	-14770	17194	4783	-15620	6084	11604	13566	-27138	17164	-4588	3396	-10688	3172	-32768	-14690	-8352	644	-7864	-15412	-10471	-945	124	113	1
-9844	-9084	9144	2478	-280	2620	-14580	5568	-2904	-1938	7414	2612	-16816	-3028	-6220	-3257	14120	3647	-20332	7020	12604	18245	-31741	23332	-5252	2320	-10528	4213	-32768	-15558	-7424	-776	-8940	-15875	-7624	-2781	132	118	1
-9980	-8344	9752	2385	-76	2739	-16312	520	-2812	-7591	9681	642	-16236	-3136	-8644	479	10208	2606	-21648	7968	11756	18634	-32768	27483	-7332	3596	-11412	5125	-32768	-15504	-6104	-1828	-9272	-14592	-2478	-3864	140	123	1
-9864	-8360	10028	1638	521	2829	-17612	-676	-3044	-776	9130	1695	-14848	324	-6340	-149	7456	4114	-26588	8424	12348	16432	-32768	31355	-11328	4852	-12768	1734	-32768	-15250	-5472	-2544	-10336	-12252	1090	-4890	137	121	1
-10120	-7992	9924	788	1161	3044	-16156	504	-3740	5284	7864	2691	-14940	824	-1276	2074	7777	5226	-32768	8820	12028	12040	-32768	32767	-16124	4188	-13728	-2853	-32768	-16134	-7300	-2748	-8376	-9426	4168	-4456	132	118	1
-9892	-8648	10248	1092	1865	3470	-16164	1924	-2684	3107	9329	2211	-16268	1716	428	3886	7351	3695	-32768	-476	11804	10865	-28738	32767	-20012	7796	-15868	-4027	-32768	-16411	-11208	5448	-1092	-5392	2123	-589	127	115	1
-10324	-8452	9324	-30	1699	4866	-16592	264	-1540	-1925	11205	1952	-16724	1012	1116	2245	6420	1777	-32768	-10588	8076	13461	-23189	32767	-23836	4380	-15248	-1075	-32768	-16679	-15400	7852	11204	-3586	-637	6277	121	111	1
-9728	-6468	12560	1952	4157	5740	-17560	-1468	-1896	-1837	13479	3148	-16716	-1040	3592	-2601	7525	418	-32768	-14208	-6156	9107	-20842	32767	-20660	7088	-10912	3167	-29767	-13477	-22156	-4404	21700	-1415	3932	9191	135	118	1
-10080	-8992	11968	2264	6832	7362	-20036	580	-1888	-2962	14981	5200	-20696	8	2876	-12031	3997	892	-32768	-28508	-23112	5316	-17424	12474	-15828	5380	-8264	10049	-16187	1344	-22716	-4596	32767	-2517	5196	8472	108	105	1
-11748	-8380	11924	2242	9950	9496	-18628	364	-1876	-5336	17111	6097	-18660	-2520	1136	-16340	4798	3442	-32768	-32768	-25548	21978	-3042	-1997	-6708	8128	-5152	10317	4012	9004	-16748	-84	14640	17142	8133	587	82	90	1
-12968	-8304	12584	68	12267	8945	-19812	-796	-1084	-8969	19552	7321	-18752	-4660	-172	-18667	3658	2677	24504	-9868	-6760	-23170	7745	-26086	-15040	6304	-1692	-11367	16743	14914	-13172	-1572	11820	11524	2016	-1185	119	110	1
-10972	-11192	11900	1830	14186	13429	-21576	208	-1268	-8192	20522	7785	-22092	-3200	2028	-18284	-486	1867	10724	3568	5528	-2348	13100	-9046	-32768	-14068	7600	-12525	6365	8844	-14180	1776	9124	16044	6753	5736	148	125	1
-11096	-12252	13508	2416	18254	19672	-24824	3152	-1616	-10564	22091	8093	-21668	-3016	8112	-10634	-4935	1565	-32768	-6468	27920	-9806	30738	-15691	-19832	-14636	-1516	-19617	1677	7973	-24984	5012	16796	-3068	-2812	4206	99	101	1
-14960	-18988	12860	1673	23160	27706	-26916	2064	3188	-15795	23788	7806	-21892	-520	8928	-12495	-7874	215	-17052	-9160	22916	652	19961	-10675	-16832	-8824	-9320	-3358	18125	10264	-25408	1280	-1548	-22240	6693	-299	113	108	1
-16448	-19924	11944	2640	27940	32767	-28624	-2452	312	-12626	26015	7382	-23028	4464	6128	-6875	-11361	-34	-24556	31144	-3352	-5076	9062	-1883	-21160	14708	-7516	1071	21631	10989	-9592	-15776	-8652	-12810	12508	5673	111	106	1
-23572	-24788	15984	6609	25383	32767	-26796	-3864	-8040	-9541	27080	6760	-22060	-4524	-748	-9807	-18902	-5949	-16584	604	13748	-6868	1625	-5644	-17712	13364	-10516	-5709	11445	10031	-11704	10644	-15192	32767	5953	-3552	120	111	1
-24892	-22060	19484	3281	23727	32767	-27816	1952	-6768	-8794	22882	6319	-24632	-608	-5896	-4452	-22606	-10409	-11152	3296	13640	-3400	-261	-2731	-15460	3000	-7760	-3353	8590	2261	-15700	25088	-7836	17735	11892	7795	109	104	1
-5424	-25328	15564	4262	24981	32767	-22420	2692	-3856	-1928	13644	7199	-28256	5956	-5756	3404	-23817	-11368	-10732	4428	12868	-3206	-895	-2347	-17572	4044	-5436	-2817	4606	4489	-20968	16392	-5196	-15100	15472	12059	93	96	1
-32380	-21044	26728	-1581	2647	32767	-14844	9544	-22704	750	11787	5625	-25896	9880	-4112	4459	-23722	-8822	-10500	3168	13772	-2106	-498	-1496	-17360	-1924	-4572	-5676	5498	3306	-18432	-6820	1568	-20440	14456	1177	88	93	1
-5360	-16052	13676	-12501	-17358	7833	-16872	13328	-6760	-11826	8390	-3766	-25868	9496	-3428	4443	-23822	-8151	-10104	3896	13228	-404	549	-377	-16212	-4304	-2152	-2545	5289	4233	-13696	-8312	3400	-8723	12448	-5642	137	121	1
2992	-16368	4464	-6646	-13850	-717	-9360	7464	-4984	-17593	-431	-4918	-22944	4672	-3616	-6015	-19571	-9854	-9948	4912	12184	-171	884	-443	-14964	-1708	-36	2988	5396	4055	-15360	-612	3452	261	11651	-3081	116	109	1
4652	-9100	4728	-663	-2930	-9428	-8016	4148	-7028	-14220	-4975	-7903	-18368	3340	-4832	-9308	-17683	-9565	-9684	5568	11532	-670	791	-1317	-15256	556	1080	6894	5467	4627	-15696	5008	3640	690	12178	3249	119	116	1
-512	-8052	7260	-2189	3063	-20212	-6192	1084	-7140	1397	-11867	-7442	-15684	1896	-5720	-9820	-15551	-11047	-10056	5072	11880	-1575	583	-2395	-16316	2012	8	5663	6279	4310	-15444	2888	3616	2960	11327	3000	122	117	1
-5340	-8928	10492	-1291	-290	-27585	-6040	3332	-9044	12679	-20056	-7989	-14580	1872	-6380	-7262	-14368	-11573	-10700	3740	12916	-856	680	-1955	-16472	228	-1536	116	6463	3663	-15548	2024	3588	3445	11706	1989	120	116	1
-7820	-5340	12384	-2105	-8244	-32768	-6412	5460	-9360	15197	-25269	-9260	-14248	1172	-6756	-3871	-12833	-10780	-10784	4228	12636	-318	934	-1185	-15280	-1748	-1376	234	6140	3296	-16056	752	2480	5415	14444	677	123	117	1
-8348	-2896	12680	-7683	-15438	-32768	-6860	6536	-8552	16296	-30143	-10580	-13092	776	-6104	1540	-11703	-8332	-10744	4836	12072	-284	808	-1223	-15432	1428	-1156	1672	6867	3304	-14236	1284	3984	10030	20200	1817	112	110	1
-9764	-2320	12980	-14027	-20825	-32768	-6944	6784	-8712	15910	-31054	-10702	-11728	680	-6252	7990	-10596	-3760	-10340	5420	11812	-1434	104	-2095	-15660	3200	-1220	-609	8065	3125	-14300	4656	4668	12803	21632	1102	108	106	1
-12200	-3636	13984	-18308	-25062	-30918	-8304	10772	-7888	5737	-32768	-12119	-8580	2580	-6668	14356	-9754	-166	-10776	4912	12184	-2051	-862	-3135	-16228	2100	-2416	-3437	6783	2934	-16544	8756	-1840	8981	16975	-1289	105	104	1
-14892	-5668	15364	-20027	-28416	-28559	-8176	11640	-9792	-7250	-32768	-12948	-6936	4816	-7780	16895	-8132	2590	-10860	3812	12740	-1608	-393	-2776	-16112	664	-4448	-3894	6263	2689	-16724	9612	-8668	-3610	12191	-38	105	104	1
-16772	-6732	17092	-21151	-29254	-28597	-10072	9108	-9996	-13727	-32768	-15427	-5600	6180	-8664	16445	-4488	4371	-10980	3464	12736	-665	30	-2233	-15256	-1172	-5316	-2927	7220	3603	-15352	2884	-4020	-7593	11712	1285	107	105	1
-21440	-10284	19428	-21784	-28386	-31279	-14452	8100	-12588	-13540	-32768	-17243	-6536	6956	-7540	11841	-4570	6574	-10716	3472	12812	187	1407	-1695	-15500	-1440	-4360	208	6864	3958	-14948	-2360	364	-4934	12070	979	110	108	1
-29304	-13396	20772	-18162	-26920	-32768	-19024	7368	-10768	-14012	-32768	-18760	-7208	5704	-3984	5565	-2846	4607	-10340	4552	12764	750	2433	-1993	-16836	748	-3508	268	7499	3974	-16940	-2860	2924	-6042	11356	762	91	95	1
-32768	-5104	19380	-16619	-22122	-32768	-22700	1268	-13704	-11149	-32768	-17304	-11632	-524	1536	1345	-1096	-466	-10172	3596	13732	1844	4632	-2758	-17320	-1748	-1400	951	8515	4506	-18372	308	4044	-3029	9331	681	122	111	1
-32768	2696	8612	-16548	-18267	-32768	-23000	1996	-13208	-1830	-32768	-11507	-18756	-2112	12664	1841	-751	-4148	-9784	3968	14212	707	8306	-2722	-17540	-2348	-260	1500	10858	4692	-18476	352	4232	3515	7397	1756	119	110	1
-32768	16376	-2028	-13993	-9341	-32768	-18800	3496	-12140	6358	-25779	-8008	-24304	-3920	28760	6447	2190	-1853	-10868	3908	14168	91	12460	-3187	-17908	-1248	-244	990	13355	5288	-18308	-888	6072	6009	6388	734	142	120	1
-32768	32767	-7580	-14367	4442	-23928	-7220	7608	-11972	-11278	-6260	-4808	-23360	-928	30808	-7639	4048	838	-11248	4296	13716	-905	16908	-3870	-19056	936	-1048	1035	15759	4783	-16820	5084	3732	9908	5175	-2026	70	84	1
-32768	27524	-10924	-9362	9026	-7989	-4492	-2444	-10272	-12136	15231	1244	-18524	-324	17240	-11117	4791	-21	-11428	5204	13988	-2000	22029	-5287	-19232	960	-1212	990	16039	4834	-19844	9984	928	11323	6287	-2138	153	131	1
-32768	22452	-10420	-6507	8679	-3013	-22640	-6244	-368	-10377	25544	638	-16936	-6364	2516	-14374	9664	-1810	-12644	6524	13628	-4080	27455	-8508	-22656	-604	3184	6205	20025	5370	-21912	4724	7188	7962	6047	-1467	86	93	1
14204	-764	10808	18766	14173	26053	-32768	-5860	14756	17160	8264	361	-16608	-1960	968	-17561	16975	-4386	-12936	7788	14804	-7225	32449	-14114	-24404	-4908	6944	5748	22813	6473	-23228	1620	14672	8617	2542	-1213	133	117	1
-24712	2920	23208	7653	24572	14792	-17088	16664	-544	32767	8549	10350	-25856	-13224	8640	21395	-1080	-3884	-13856	8280	14320	-10213	32767	-22168	-26024	-4728	6876	4351	26221	8131	-25040	-4020	23780	7378	-18965	-2036	112	103	1
-18068	4436	23896	-3866	12987	16012	-13492	17144	-8280	19000	15943	11207	-18648	2244	-552	28694	-2780	8209	-26568	8796	18540	-11480	32767	-27300	-25996	-3112	2336	2603	29365	9236	-21320	-1748	12388	10644	-13763	-4680	120	113	1
-32768	-32768	2744	-4548	2983	9375	-19340	-132	-15724	-6960	17223	2298	-7672	23300	-12036	12357	10050	5912	-25284	11880	17972	-11610	32767	-30701	-27456	2168	-748	-1446	30721	9415	-20028	11596	-4424	20264	-18367	-866	110	104	1
-14788	-148	17484	8137	3833	11033	-18804	-18892	-11064	5202	12080	-1763	-14536	-4268	-14868	-13839	16712	-1523	-32392	16164	26196	-12403	32767	-32768	-28084	6784	-3664	-3543	27819	6422	-26384	10916	-1360	-1759	-23592	4739	102	102	1
-9576	-7528	10208	7969	325	7503	-16840	4580	-7616	22038	6943	6000	-11888	-19036	-9176	-14032	17739	-6689	260	21456	23952	-23623	32767	-32768	-24856	2808	-6208	-10146	16817	-745	-28680	5560	-7744	-14279	-25957	7721	148	128	1
-10488	-8004	10136	6043	-1155	5387	-14728	11196	-4476	-1456	7743	1259	-19476	-3920	-4476	13349	11267	-664	-32768	10908	32767	-17107	4294	-28585	-15572	11128	-26116	-4691	-4625	2908	-27232	1496	-4692	-18169	-27868	7020	95	96	1
-10096	-6032	11940	2799	-1047	2979	-17324	4004	-2680	-2149	9129	-280	-18576	6636	-524	14763	8390	6654	-9364	8628	29452	9504	-25602	-10260	-15888	-9916	-6444	-6757	14450	-9254	-30508	-340	-792	-11670	-30545	4925	102	101	1
-9836	-8280	10068	420	167	1321	-18360	-2196	-2864	10941	7174	2667	-14212	6612	-560	5836	12840	9481	-1568	14284	13428	14883	-26925	-4312	-11348	-1112	-10136	2541	-751	-8402	-26652	144	-2308	-5735	-28832	3457	140	122	1
-9392	-9264	8984	387	198	1103	-16684	-1900	-2664	21195	4123	5272	-13940	-1476	-740	2482	14425	5547	-2992	14740	9872	5214	-26359	1700	-9564	292	-11748	6948	-11370	-8743	-24248	1264	-4204	-3270	-30207	2398	145	125	1
-9560	-9772	8552	1096	-472	1531	-15596	4116	-2968	14857	3755	3270	-14468	-4328	-1728	3738	14448	2395	-3636	9052	10832	1676	-26027	12220	-6920	524	-12624	6841	-19269	-10109	-19656	92	-5544	-631	-26666	3206	135	119	1
-9396	-8992	9016	1850	-833	1876	-14716	5708	-2080	-4350	6980	453	-16592	-520	-1348	5539	14552	2026	-4972	4792	11176	8869	-24314	21988	-6868	448	-12252	4543	-23785	-12245	-16776	-2228	-6016	-295	-22356	1527	122	113	1
-9252	-8040	10016	1548	-397	1847	-16248	3040	-1744	-11586	9594	-793	-17324	5840	692	253	14875	2602	-8152	2684	11580	15862	-23854	26201	-5692	-224	-11660	3693	-29730	-12449	-14468	-3684	-6424	-2345	-20861	453	114	108	1
-9292	-7700	10136	778	459	1434	-17512	-2196	-2960	405	6663	673	-13864	4756	1452	-5242	17000	4290	-10100	1112	13124	20085	-25737	26153	-4708	-748	-10980	6005	-32768	-9382	-10788	-3804	-7512	-2380	-18243	-2369	121	112	1
-9408	-8104	9860	60	1358	1203	-16772	84	-2632	11320	4759	2403	-13196	836	2264	-7301	19980	6459	-13260	216	15252	22649	-29263	23672	-5072	32	-11424	7493	-32768	-7207	-8228	-3028	-7916	-1856	-14411	-5736	119	111	1
-9260	-8140	9620	107	1423	1199	-15348	4512	-2700	3433	6160	1581	-16924	-1948	-1424	-646	17445	6186	-16344	312	17224	24400	-32768	21438	-6344	412	-12016	6298	-32768	-9199	-6088	-2480	-8712	-1992	-9682	-7577	124	113	1
-8564	-9520	8444	539	2222	2556	-15868	2412	-1524	-9492	8379	-371	-16260	-4812	-6112	3854	16969	4197	-18548	848	19368	24971	-32768	22250	-8092	1324	-13516	6995	-32768	-12226	-5280	-1380	-9988	-1887	-6634	-6900	133	119	1
-9728	-8872	8688	1549	2430	4446	-18336	-2928	-232	-8169	9181	24	-17608	-4128	-5196	1304	12013	3516	-25332	-512	22876	25236	-32768	26489	-11052	3112	-14040	9962	-32768	-14596	-5648	1672	-10208	-2890	-2188	-4172	129	116	1
-10268	-8364	9876	2348	1602	4867	-17172	-3556	1380	3674	9169	2819	-19232	-2044	916	4475	8137	5077	-32768	-3620	21944	23393	-32768	31880	-16504	6408	-16416	9690	-32768	-15945	-6640	7252	-8744	-6453	972	-169	124	113	1
-10528	-9792	9688	2982	813	5770	-17056	-976	520	4827	12059	4076	-18908	-2868	6032	4911	7110	4547	-32768	-13308	17636	20141	-32768	32767	-20284	9476	-17760	9935	-32768	-17490	-9448	14052	8	-5739	-1056	6119	118	109	1
-9792	-9764	10712	5594	291	7409	-17320	-1276	516	-3983	15792	3797	-17516	-160	4420	-148	5172	1943	-32768	-19224	8232	18653	-32768	28894	-24180	11552	-14912	7496	-32768	-18624	-14636	7608	17592	10724	-6587	7393	123	113	1
-10044	-9812	14252	6911	409	9443	-19428	-2804	-164	-7218	17913	5616	-17748	3532	4220	-6588	6363	-95	-32768	-21760	-16368	14094	-32768	12127	-19120	7404	-13016	4361	-25754	-10048	-22272	-7812	27992	9992	11450	9873	129	115	1
-10716	-8932	13740	7906	4844	11402	-21496	2316	1044	-6246	19554	8840	-21268	4064	4024	-15665	5253	493	-32768	-32768	-30432	20749	-14698	-4198	-8612	2828	-9836	16519	-8616	4242	-20916	3780	31704	10340	5983	1304	113	107	1
-12848	-5268	15436	6916	9461	11548	-19728	1792	-268	-3721	21558	9701	-19312	-2760	2516	-17897	1476	2382	-32768	-32488	-24504	18937	6482	-7118	-7364	12828	-14216	11511	13880	9437	-11876	-1748	14520	9448	7656	-2605	100	101	1
-10604	-7736	15752	6944	14289	14621	-21244	4592	-1748	-2395	23664	11771	-20644	-6008	2404	-15987	-4410	2998	-13928	32767	32767	-19106	-3260	-12992	-16824	-5580	13832	-1291	16991	13653	-8452	4252	6852	8186	5784	-398	156	131	1
-9864	-16448	14460	5021	19613	20610	-25812	6064	3740	-12649	26167	11342	-18272	1580	6116	-12550	-6777	3643	22572	14184	-6116	-22945	20785	-18354	-30244	14048	6032	-32768	519	4918	-14552	9004	-5860	21548	24272	4220	113	107	1
-15996	-21192	16580	7520	25639	31846	-27088	1144	3560	-16726	28178	9338	-24796	4144	21944	-9042	-13639	3106	-32768	-21500	31640	-15149	24512	-8514	-9832	-25224	-5776	-23807	4606	4157	-32768	21460	25952	-32768	-18379	8510	72	86	1
-13884	-19404	19320	10826	32685	32767	-31248	-8300	776	-13387	27181	12897	-23028	-11292	1652	-11583	-10685	691	-15752	-12956	25732	1783	18512	-9991	-15088	-25324	-4212	-20779	11819	5506	-32768	-26400	4728	-32768	15978	7421	104	102	1
-23764	-31352	19228	20618	25481	32767	-32356	-4220	-7224	-7947	24496	13232	-24276	-17908	-9828	-8898	-18300	-9625	-15808	16416	6740	336	16580	-7301	-13332	9716	-3120	3693	14390	11645	4088	-26572	-11464	15824	23163	1068	147	125	1
-12640	-28688	20868	32767	21977	32767	-28692	-4276	-4668	4777	15487	15824	-26780	-5184	-6944	20242	-25728	-11824	-11656	-396	20820	-10921	4058	-8569	-20740	16576	-5072	-2936	11724	9794	-6268	18160	-15988	32767	-8921	-9692	114	108	1
-32768	-7452	14804	32767	23914	32767	-22224	-1076	-8148	22759	6294	14103	-31668	1504	-7656	25986	-26995	-11406	-13516	5080	12092	-8448	1781	-5499	-15320	5748	-5140	-5635	7690	3996	-23732	32767	-3796	17462	11429	17674	102	99	1
-18312	-19984	23232	5476	-2615	1662	-14728	7480	-29176	21421	8035	16506	-29080	5672	-3864	20271	-25770	-7088	-12264	3676	13796	-5809	50	-4237	-18420	-900	-5048	-2386	4841	4843	-25296	5828	-2408	-17413	12702	13650	100	100	1
-3812	-21824	10400	5877	-10125	-12974	-14320	10876	-4600	4197	-3108	8982	-28552	3508	-5240	8826	-24243	-6340	-10732	2020	14704	-1893	842	-1657	-15656	-2784	-3424	845	8737	6328	-13184	-11064	4548	-4526	11247	-4740	102	102	1
-564	-12580	6280	18186	-6717	-15613	-10384	2176	-9756	-2970	-10879	5568	-22708	52	-5960	4538	-20554	-9085	-10432	4328	12712	72	1622	-423	-16472	924	-696	3510	8040	6853	-10440	-964	3260	8614	12222	-7884	156	129	1
-3344	-6132	7656	17136	-5235	-20757	-9208	72	-9912	2855	-17174	5315	-19144	-596	-7048	4196	-17816	-10607	-10140	6232	11564	179	1768	-580	-16172	3772	1584	4696	5985	4559	-16232	7172	1172	11307	13615	-357	99	102	1
-7048	-7624	8744	13213	-10787	-24543	-6220	-1832	-12284	7760	-23189	5890	-16444	-884	-9160	3481	-15766	-11835	-9984	6820	11180	-719	1504	-2034	-15668	3996	1648	5731	5788	4275	-14416	10084	1376	8529	13317	4176	113	104	1
-9668	-7588	8320	11050	-20759	-24755	-6544	-1636	-11820	12296	-31062	5725	-13848	112	-9260	5342	-12938	-13985	-10452	4936	12020	-872	891	-2657	-16720	3552	-1096	3561	6366	3999	-15660	6976	820	5308	13546	4034	103	102	1
-10436	-7684	6436	7989	-28942	-23823	-5416	-244	-10936	15368	-32768	4773	-12988	1424	-10024	7743	-11823	-12842	-11008	3312	13012	-641	464	-2427	-15632	676	-2680	1926	5869	4745	-15928	3112	268	3122	16294	2930	131	117	1
-10020	-7768	4964	2383	-32768	-23541	-4652	2048	-10308	14331	-32768	2894	-11076	1752	-10028	12772	-10327	-6840	-12528	2116	13268	799	804	-1117	-16808	-216	-2544	1976	5014	3896	-14856	-808	2420	10784	20283	262	119	111	1
-14544	-10768	3072	-3230	-32768	-26495	-3944	5100	-11168	7930	-32768	973	-7768	3476	-10408	20051	-9419	-1623	-10544	3864	13316	405	967	-1579	-15928	1080	-1248	4578	5172	2868	-14616	3924	3328	9081	21252	-819	110	106	1
-17504	-11716	3112	-10767	-32768	-28526	-5312	5056	-12236	-1299	-32768	-2751	-5292	6420	-11128	24561	-8363	2578	-10660	4804	12124	954	1735	-740	-15892	-816	304	5775	5940	4405	-17592	7456	1332	3442	15346	-407	112	106	1
-20344	-12420	4312	-18228	-32768	-31486	-7288	5196	-13376	-8482	-32768	-8419	-4028	8144	-11168	24312	-5679	6959	-10916	3920	12300	1463	2582	-518	-14348	376	1244	4034	7658	3967	-15640	4456	2364	3296	10014	516	115	107	1
-25820	-13348	8628	-26297	-32197	-32768	-12008	4032	-16456	-14247	-32768	-14534	-5260	10752	-11764	20092	-5989	10625	-10544	5024	12068	1753	3213	-896	-16080	364	204	3810	8359	5735	-15772	2056	4156	2154	8831	2392	116	108	1
-32768	-14096	11320	-31550	-30568	-32768	-17096	3668	-16796	-17658	-32768	-20368	-6640	11756	-8588	13000	-474	8581	-10984	5888	12128	4625	3796	-3558	-16420	1680	56	6296	9017	7203	-14860	2596	3692	6336	9143	1020	117	108	1
-32768	-10156	10640	-31953	-26369	-32768	-20228	7368	-20132	-11907	-32768	-25318	-10588	5212	-3908	11137	2431	4293	-10452	4864	13300	3228	5444	-3550	-17724	-1148	-1156	8604	10502	7654	-17460	3624	2952	7212	8099	979	112	106	1
-32768	6856	13940	-32768	-10901	-32768	-23724	292	-16796	-21686	-32768	-17995	-18496	-1392	10436	6859	-2146	-1100	-10328	3812	13576	2731	8901	-3816	-17936	-448	-604	6248	11663	7498	-16820	564	4272	7146	6668	1502	116	108	1
-32768	14392	1780	-26155	-4808	-32768	-18380	-3380	-12768	-15946	-22577	-14378	-27396	-3368	30436	-12655	-5620	-11398	-11504	4724	13148	2543	13600	-3387	-18624	-1412	-216	5570	13865	7667	-17240	1136	5864	11654	7005	-926	114	108	1
-32768	32767	-11356	-7641	2137	-22317	-8340	-1820	-12112	-2297	-4471	-10184	-21100	-5564	30956	-13803	4882	-11684	-11624	6016	12880	1438	17852	-4481	-18720	1880	812	6318	15625	8317	-16648	5544	2828	13688	6993	-2177	133	116	1
-32768	31660	-9980	-4885	4530	1282	-7096	-4064	-9732	8319	15176	777	-19220	-5120	20612	-21597	4837	-9499	-12472	5320	11644	378	22689	-5839	-18168	376	196	6847	17356	8619	-17420	6756	2740	13422	7108	-1135	207	168	1
-4172	-32768	26868	32767	2434	-1356	-13528	-1048	-11452	6696	26144	5641	-12868	-6472	156	-10268	11517	-10142	-12380	5764	12112	591	28431	-7070	-18276	-2252	1480	11767	19916	9692	-17688	1860	6264	14916	5860	-2130	104	107	1
24704	-9164	11116	16350	27744	22805	-32768	26544	23352	17866	2665	5827	-11148	-2412	-3300	-9190	19179	-12628	-12884	8908	14400	-1533	32767	-9569	-24588	-3932	5284	12466	23013	10772	-22572	1660	12372	14616	3608	-1138	120	108	1
-32768	9628	27264	5900	31562	10010	-8196	18904	-2100	20034	11668	3343	-28744	-2184	11908	32767	-7932	5284	-14360	9272	15492	-252	32767	-15306	-23816	-5180	8056	12256	25505	12263	-23132	-1932	25396	18579	-17655	-2864	70	84	1
-18868	5816	26756	-5753	19186	18354	-14048	14464	-13204	9675	23153	7501	-20172	3652	2220	22827	5535	15972	-25688	6324	17004	2079	32767	-20207	-25700	12	64	7012	28053	14841	-18368	-4972	10168	14192	-13480	-5082	139	120	1
-29256	-32768	5272	-4358	13014	9155	-21884	-5136	-18332	-6111	18309	4919	-7508	23504	-17260	20546	6172	5726	-26984	552	23276	15120	32767	-19921	-28936	-5272	-1892	7395	30239	15594	-23356	5612	-2772	23215	-18956	-2776	41	71	1
-17232	3756	19980	8962	5630	12479	-20344	-18848	-18404	12459	13063	-108	-15104	-10032	-7764	-14627	7920	-1389	-24612	6216	22172	17935	32767	-25113	-30380	-380	-6500	9477	28335	13878	-28160	6964	-620	14329	-23473	1361	89	95	1
-12076	-9020	9336	10376	461	8111	-18792	8296	-8528	32767	5393	4939	-13412	-17104	-14140	-9815	22532	-11666	-11840	24688	20848	8477	32767	-32768	-26096	1164	-6600	11744	19939	5612	-32724	6560	-9316	5506	-27364	2450	170	136	1
-10572	-8452	9540	5191	-895	3714	-12504	16180	-5864	-2081	9517	3366	-22888	-3300	-6740	11306	11827	-6484	-32768	17564	32767	-4862	23623	-32768	-20196	13056	-16980	9617	-19800	10741	-29972	2756	-4412	-5914	-28514	3670	89	94	1
-10952	-7028	10952	2212	-517	1797	-16964	10292	-6256	-20431	12579	-2127	-16172	10924	-560	12052	9554	6186	-25064	8048	32767	5880	-24862	-24654	-10656	-5208	-14500	-3108	14122	-60	-28744	1008	-1668	-2789	-29720	5080	91	97	1
-10120	-7672	10144	503	40	671	-17528	-6536	-5692	-10926	10308	-1344	-13828	11100	-1844	67	11745	9904	-4896	6252	14052	23549	-32001	-12555	-9916	-4344	-9404	8252	1021	-8716	-25276	28	-2544	-417	-26167	5266	145	124	1
-9844	-9116	8992	286	-218	650	-19616	-8708	-2648	14678	3670	4869	-14596	-900	-3764	-10538	15446	3568	-4668	10696	7076	23617	-29817	-3786	-8884	3420	-11700	8820	-6627	-8816	-23228	1660	-3360	-2514	-26913	4285	166	136	1
-9712	-9388	8412	1104	-1071	1200	-16888	-1560	-4228	30558	-334	4484	-15004	-6596	-2936	-7783	15217	1504	-3392	12340	6940	5309	-29997	4010	-6996	308	-11496	4387	-16646	-5814	-22420	1420	-3604	-3176	-26725	4652	139	122	1
-9664	-9128	8440	2212	-1795	1766	-14944	12504	-3184	6680	2374	1428	-16028	-5788	-2316	4146	11774	2922	-1708	4300	9604	-614	-26306	13760	-5044	176	-11172	1794	-24868	-11343	-14384	1336	-5212	-4042	-19537	1796	104	103	1
-9520	-9192	8728	2274	-1888	1933	-12904	7400	-2760	-15622	8529	-1036	-17384	2676	-32	7771	10696	3151	-5824	712	12156	5852	-22412	23229	-5076	52	-11436	-2626	-26448	-13578	-13240	1732	-5576	-6126	-18092	2238	111	107	1
-10020	-7556	10144	2280	-1265	1566	-17868	-32	-2096	-16650	9612	-1865	-15888	8136	908	1436	13319	3745	-9984	1688	13232	9131	-23567	28333	-5096	-416	-11136	-2450	-26760	-13749	-11860	320	-7168	-11404	-15845	1691	131	117	1
-9820	-7728	9708	1558	-545	1026	-18088	-6536	-2800	3229	6502	1347	-14380	4144	120	-9094	18705	3710	-13688	1220	14636	8149	-28146	29002	-4860	584	-10600	178	-32768	-14875	-9472	-788	-7892	-15678	-11641	-1568	127	115	1
-9816	-7764	9892	1505	-462	945	-16732	108	-5312	16050	3450	1987	-13584	-3796	1088	-13721	23659	6015	-16380	-236	15596	8950	-32768	26886	-6120	1996	-10636	293	-32768	-16694	-7400	-1068	-9024	-16117	-10901	-4727	125	114	1
-9776	-8296	9528	1390	37	1832	-15528	7772	-5616	4801	4712	2439	-16332	-4400	-1852	-8721	20831	5945	-18876	208	16476	11176	-32768	24332	-7076	3128	-11868	117	-32768	-19054	-5964	-956	-9748	-15753	-6013	-6143	110	105	1
-9728	-8604	9348	1720	74	2471	-15312	4768	-3212	-9511	8191	-1093	-16616	120	-12136	1723	14628	2986	-23260	2988	17560	11595	-32768	23540	-8944	5144	-13208	-510	-32768	-22411	-6044	-888	-9908	-13706	-905	-5355	124	114	1
-9812	-7696	10508	1630	455	3260	-18124	-2216	-172	-5617	8301	-812	-16140	748	-5688	3767	8948	3961	-32036	4192	18048	8318	-32768	25056	-14420	2388	-13612	-558	-32768	-25315	-6064	-248	-9376	-12642	2322	-4045	137	120	1
-10004	-8224	9876	1022	1242	3636	-17124	-2664	-412	6551	7877	3103	-17788	-4420	5164	8033	8395	6432	-32768	-1600	15488	8386	-32768	27915	-19536	5808	-13872	2666	-32768	-26699	-7700	5540	-2920	-9623	2561	-1585	125	114	1
-9812	-8340	10648	2191	1798	4582	-16116	220	108	5913	9768	3429	-18288	-3460	6712	7274	6763	3821	-32768	-8308	6592	9537	-32768	27834	-26284	7260	-14084	3499	-32768	-24581	-14440	9724	10652	-5707	-1408	4916	122	112	1
-10848	-8408	9896	543	1534	6217	-16892	-1052	652	-1076	14142	4034	-16964	1880	3348	2573	4798	395	-32768	-12720	-10068	9757	-32768	19095	-22760	6336	-12856	5672	-29199	-19037	-23664	-2844	27208	-9096	1322	8153	130	116	1
-10400	-9464	12772	3924	5561	8316	-19520	1292	-1224	-3817	16564	5051	-21240	3956	5496	-5029	6261	-1053	-32768	-28132	-28232	17730	-25595	2207	-20996	6100	-11916	7027	-27523	-17079	-21512	-21960	31292	-7150	6200	1303	118	110	1
-10356	-7712	13780	3352	8351	9466	-20952	-1108	2148	-3957	17907	7744	-21344	1476	6700	-14851	5526	379	-32768	-32768	-32768	15676	2200	-9114	-7568	12424	-10332	15868	2999	11499	-14308	-6988	27876	16698	1583	-7080	114	108	1
-11416	-9932	14336	4584	11722	12457	-20596	1640	396	-2308	21804	9608	-21908	-7124	-1152	-18572	-103	1018	4352	-5984	1120	-10986	19009	-13304	-14020	132	7308	-5205	23145	13777	-14108	-3884	14276	15369	-2999	-3316	162	135	1
-10024	-12304	15604	3842	16841	18136	-23880	4824	-2288	-6120	24415	9004	-23408	-9636	4824	-15981	-5982	1657	-4836	13932	-996	-580	30239	-11604	-18088	-13052	19496	-4756	22638	12298	-19960	-3028	15372	30988	2282	1390	100	99	1
-13704	-19444	11192	3795	24603	26145	-30932	-68	5716	-13439	25545	9197	-21524	-428	5984	-9092	-7696	-532	-30816	-5356	26212	-3291	21596	-10109	-11176	-12224	-5564	-4889	12507	7228	-28928	7636	3328	4978	6002	2256	109	105	1
-13684	-23664	16048	7035	25439	32767	-28604	-6140	3740	-8346	26469	8384	-24456	5388	13864	-2953	-11731	-1642	-25328	19784	19020	-4233	16141	-8599	-12932	4968	-8536	-201	19647	8678	-14332	4644	-10536	-11983	8535	4968	92	96	1
-25164	-21856	17100	7338	28470	32767	-27628	-3160	-2768	-1545	24803	9245	-19500	-7556	-456	-9621	-18599	-6246	-16300	-3540	22416	-9428	3502	-9858	-20336	15280	-12724	-1794	13723	12482	-9732	7056	-10696	4900	8136	5553	108	104	1
-26520	-29812	15752	11376	26398	32767	-31168	1484	-6200	-3070	24389	9044	-22220	-4212	-2224	-2440	-22416	-13639	-12120	4084	13468	-5083	420	-3597	-17228	5440	-8772	-10738	12567	2163	-20232	10088	-10720	12539	11619	1995	86	93	1
-1620	-30912	18480	27758	23018	32767	-26400	824	-3936	1952	15278	7791	-31232	3368	-9860	6399	-23953	-15828	-11616	5368	12504	-3901	-490	-2928	-15528	3364	-4780	-5421	6695	1598	-15760	20088	-3752	-5629	14622	6274	122	111	1
-23224	-3956	28408	13043	11903	32767	-17616	9464	-18080	7609	8278	5709	-30896	6448	-7544	11140	-24808	-13300	-10516	3460	13268	-2750	-842	-2261	-16932	-1688	-4300	-4508	6344	3328	-18516	2312	524	-25961	14330	7181	93	98	1
-10872	-24972	13792	-14883	-5952	2421	-13704	16936	-10064	-2312	9289	5983	-27456	8480	-4232	10151	-26168	-9194	-10360	3436	13532	-1183	-319	-1282	-16268	-2552	-3072	-1964	6989	3963	-18764	-1732	1056	-25885	14657	5571	127	111	1
1040	-20512	4932	3243	-4309	-10807	-7944	11532	-6508	-17189	-1416	-5072	-24164	8464	-4492	1200	-23630	-9128	-10212	4484	12716	-608	119	-1062	-16344	-1316	-1584	-377	6973	3821	-14052	-4896	3256	-1271	11960	-6034	135	119	1
2024	-6096	6208	5914	2952	-20644	-8788	2464	-7224	-15328	-5331	-8004	-20396	5828	-5836	-7829	-20253	-9786	-10028	4916	12192	-791	-187	-1590	-15476	368	-860	1182	5952	3499	-14720	4060	2512	1166	12861	1158	111	109	1
-2136	-6352	8764	-958	2515	-27105	-5008	636	-8248	705	-13449	-7630	-17008	4660	-6820	-11750	-18077	-10075	-9844	5332	11708	-1667	-741	-2506	-16224	1640	-692	1345	5694	3329	-15988	3416	2136	160	13455	4541	111	108	1
-5188	-5680	10592	-2301	-4936	-28572	-5156	3088	-8212	11109	-22489	-9828	-12228	3824	-6296	-10285	-14633	-10393	-10200	4740	12544	-2636	-1246	-3067	-16292	1340	-1752	-1888	5446	3101	-15016	1696	2644	2787	14739	3917	116	113	1
-6808	-3504	11536	-6801	-13235	-28603	-4864	4784	-7764	16116	-27806	-11829	-11232	3064	-6748	-9891	-13844	-10885	-10356	3520	13032	-2103	-882	-2739	-15344	-2908	-2504	-3041	5395	3157	-15768	56	2952	4521	16326	1979	105	104	1
-7932	-3192	12364	-11712	-19853	-28942	-4916	5316	-7604	16378	-28456	-12280	-10272	1780	-6220	-5007	-10042	-9170	-10608	3164	13148	-788	36	-1633	-15652	-1636	-2600	1425	6777	2893	-15164	-564	3104	8707	19996	1375	104	103	1
-9860	-3692	13060	-15634	-23999	-30196	-6156	9720	-6980	9112	-32768	-14085	-9644	1516	-6440	1832	-7351	-3384	-10356	3976	12872	-261	523	-1357	-15696	4	-2452	2779	7310	3603	-15340	480	3612	12256	22573	948	114	111	1
-12004	-4472	14672	-18564	-26146	-31972	-6864	10436	-9100	2335	-32768	-14125	-7456	2228	-7228	9400	-6366	-30	-10392	4400	12636	-358	642	-1739	-16608	1904	-3112	2681	7229	3747	-16400	4948	3464	10687	21457	-1408	119	114	1
-14748	-4496	16532	-22075	-27144	-32768	-8980	10504	-9000	-6422	-32768	-14251	-5292	3216	-7888	15934	-5067	2739	-10452	4432	12540	-579	567	-2457	-17168	2268	-4116	1868	6465	3115	-16032	8368	-4116	8441	19510	-2738	92	95	1
-18132	-6184	18660	-25615	-27899	-32768	-10896	9196	-9716	-10892	-32768	-16120	-4084	6072	-8696	18252	-3252	4677	-10492	4292	12776	-293	861	-3038	-17092	392	-4728	2457	5777	3377	-18304	7804	-10128	492	15385	-125	106	105	1
-23368	-10136	21924	-26305	-28260	-32768	-15444	8364	-12496	-13109	-32768	-17894	-4452	7700	-7436	15481	-1184	6236	-10704	3916	13216	454	2179	-3357	-16708	-1480	-3436	3722	5839	4133	-16064	1632	-1996	-6090	13714	1150	117	109	1
-32276	-8508	25156	-23808	-27439	-32768	-21304	8200	-10776	-16707	-32768	-19694	-7300	4500	-3308	8450	-1368	4401	-10524	3320	12720	1730	3720	-3247	-14736	-952	-736	3418	7178	4037	-15500	-552	7032	-7324	13406	1125	111	105	1
-32768	-736	23160	-24782	-25171	-32768	-24704	944	-15076	-17689	-32768	-14451	-14728	-1840	6036	-674	-5053	-234	-9376	2796	14076	269	5820	-2461	-15976	-1832	2148	1320	9979	3541	-17340	-168	11628	-2896	10959	217	110	105	1
-32768	7408	6692	-19104	-23241	-32768	-20904	4148	-11696	-12574	-32768	-10707	-23236	-3556	21168	-10117	-2644	-7896	-9732	4444	14128	-648	8483	-3071	-18356	-1800	3424	-1843	13209	4246	-19324	-1108	7756	1344	7163	-638	135	121	1
-32768	32767	-5112	-17227	-10766	-23190	-11916	5044	-15996	-4615	-17478	-9009	-27728	-6284	32767	-7564	2888	1172	-11332	4172	13716	-1526	12376	-4378	-18644	-692	796	-1262	16667	4805	-17732	-1900	7064	5173	6849	15	114	107	1
-32768	32767	-8580	-19026	-4085	-7841	-4396	-5064	-7944	-15536	6249	-554	-18720	-3492	28640	-15507	1234	909	-11384	3704	14372	-2401	17545	-5416	-19412	-1068	-844	125	19556	4882	-18456	2072	2960	11946	5034	-1510	76	89	1
-32768	19364	-5776	3279	817	13202	-8440	-1516	-13460	-3514	24434	6559	-14440	-5032	9708	-8923	4492	-191	-11164	5776	14576	-3650	22793	-8110	-21132	-3684	480	3759	21490	5600	-20324	7048	1996	15502	3572	-2781	127	113	1
-11320	-32768	13528	22043	-6623	20369	-32768	2872	30484	-23166	19465	-911	-13156	-2912	-1700	-17838	8002	-3031	-12600	5456	15200	-6295	30069	-11631	-23112	-3092	3792	6371	24777	6155	-20500	6576	9628	9619	3039	-2192	114	107	1
1508	-8368	14472	31055	22650	32767	-24028	-3508	2300	10776	6747	-4213	-19284	-784	7516	-7717	12264	-2515	-14316	11748	17256	-10131	32767	-17748	-25872	-4044	6088	4251	26638	7140	-24560	1776	20564	12610	-14756	-2879	127	116	1
-2416	-6168	15480	23550	21788	32767	-13940	16468	-7960	32535	9978	18111	-32768	-10280	1060	32767	-7506	432	-21256	8104	17924	-15264	32767	-27257	-26920	-2892	2468	439	29163	7872	-19676	-4428	13788	1519	-11413	-5383	113	105	1
-14208	-3612	14352	-1135	13244	19182	-18828	14544	-10492	5052	22891	7793	-15976	14624	-596	20997	8033	6419	-32768	8680	30864	-15295	32767	-31677	-26468	4804	-952	1047	31666	6934	-22452	12928	-568	20299	-16064	-4189	113	104	1
-7012	-6500	11592	7404	9708	9723	-17332	-12292	-14880	-6059	19687	-1827	-4424	9284	-21744	-4979	14145	3690	-32768	11936	25556	-13530	32767	-32768	-29484	4316	-5544	-2093	30253	6912	-24076	12992	-808	1873	-20291	2244	51	74	1
-15628	-11108	6852	7172	1742	7094	-16328	-8116	-13736	21689	11786	7467	-10968	-13676	-10616	-23153	15725	-4568	-11312	19556	24672	-22130	32767	-32768	-28696	3068	-3284	-5692	21890	-395	-30084	9148	-5800	-13450	-25274	5810	169	137	1
-12076	-9408	8852	5422	-539	4183	-15552	11728	-9180	13036	8808	5360	-20240	-12552	-9552	-2719	16403	-6491	-32768	13392	32767	-32768	32767	-32768	-19888	7424	-8052	-9386	-16345	6269	-30140	4092	-6744	-20782	-27341	5536	147	127	1
-10500	-7856	10016	3675	-187	2720	-15204	12668	-7612	7999	9506	4469	-22324	2004	-2248	10535	9329	-970	-32136	6196	32767	-11310	-14079	-22510	-12012	9184	-18116	-11715	15802	-8175	-27916	184	-3424	-17349	-28288	2933	92	97	1
-10012	-7160	10676	1253	641	1423	-15356	-716	-3972	-13215	12459	-544	-15624	7580	440	1158	8989	6986	-5152	7180	16192	14714	-25252	-8824	-10684	-2580	-8504	-881	8620	-11125	-26880	956	-2396	-7809	-27761	4631	128	116	1
-10140	-8972	9028	130	1046	1086	-18960	-7056	-4028	5287	8392	1450	-13464	1940	-1852	-8136	12059	7640	-4532	12868	7048	12467	-24228	-4188	-8588	1396	-11500	4416	-3683	-13471	-25152	1840	-3544	-7928	-27499	4138	149	127	1
-10192	-9168	8584	812	275	1345	-18028	-804	-4684	12027	3739	3344	-14940	-4428	-3668	-13813	14157	3938	-5956	13980	5300	-95	-26424	2061	-7420	4364	-11564	4636	-13851	-10699	-20440	1492	-5208	-6817	-25592	4425	164	135	1
-9796	-9364	8520	1179	-226	1724	-15028	4552	-4660	-1826	5204	2698	-15620	-7168	-4252	-7955	13728	1378	-5020	8740	6592	-1828	-26466	11042	-4948	4672	-11104	3581	-20540	-13426	-16200	1740	-6304	-3382	-20847	4547	124	115	1
-10084	-8732	8936	1332	-372	1952	-15052	2924	-4684	-14154	7902	443	-17136	-2152	-3532	-2437	13008	2384	-8176	6240	8276	7910	-24696	20858	-4452	6044	-10892	-1211	-23185	-15060	-13216	3164	-6276	-1942	-17946	5955	101	103	1
-10292	-7856	9528	847	56	1605	-17968	-2960	-4368	-8990	6718	-322	-17180	3444	-2868	-4797	13914	4061	-11392	7480	7772	13285	-26072	27366	-4140	4864	-9908	-2731	-25443	-15787	-11572	3580	-7624	-4712	-14650	5564	116	108	1
-10308	-8256	9184	181	479	1089	-17504	-1616	-4532	2498	3515	2057	-14900	1728	-2048	-10319	17499	4859	-13100	7220	7908	13473	-28239	28995	-5168	5948	-8772	-4140	-32768	-14714	-9596	2580	-8620	-9736	-9787	4782	111	107	1
-10104	-8704	9132	13	564	1401	-16184	3940	-4972	877	3247	2572	-14660	840	-1888	-10625	18290	4967	-16260	5860	9084	14260	-30550	29501	-4664	5168	-9548	-4976	-32768	-14266	-7632	1492	-9752	-13589	-7395	2179	124	113	1
-10220	-8020	9516	-428	814	1354	-15416	4412	-4312	-6739	5035	775	-16632	-2112	-1468	-5374	19595	6297	-19184	5232	10436	17028	-32153	30175	-5780	3696	-10216	-4014	-32768	-15872	-6360	224	-10212	-16542	-3863	-450	124	113	1
-10308	-7832	9416	-1150	1068	1377	-16592	1100	-2552	-8296	5859	-618	-15828	-1524	-7316	-395	14002	5939	-22480	5988	12124	19719	-32538	31169	-7148	3288	-11544	-1268	-32768	-17365	-5016	-1004	-11784	-17155	-671	-1816	128	117	1
-10220	-8180	9348	-1517	1371	1605	-16912	-1440	-1440	-4545	5713	729	-16808	-2848	-5508	2119	8342	5918	-29124	7908	14884	19367	-32266	32767	-12376	4116	-13216	1942	-32768	-16597	-4904	-3564	-11756	-15985	4035	-3003	152	128	1
-9932	-7776	9804	-835	2503	1724	-15876	-164	-692	-1250	6374	2424	-15616	-2028	2240	4959	9178	5886	-32768	7864	17448	16726	-32085	32767	-19976	500	-15340	941	-32768	-14939	-6724	-3404	-7928	-14269	5655	-4336	133	119	1
-10124	-8312	9668	-604	3679	2105	-16316	-304	816	2395	8558	3098	-15944	-1724	3040	5100	9292	5573	-32768	-7912	17712	20968	-28963	32767	-22352	5276	-13884	12748	-32768	-13437	-10940	4620	816	-10429	1563	-1309	124	113	1
-10168	-8812	9396	-111	4475	3522	-16804	-1864	364	4189	11431	3030	-17844	2876	6504	1680	6392	2238	-32768	-18676	9424	25632	-24182	32767	-25332	7980	-11692	12994	-32768	-14063	-20808	6548	22776	2295	-8148	5422	120	111	1
-10540	-9172	9796	201	5497	4974	-17256	-3168	-660	2660	13796	4935	-16236	12	4488	-4277	6650	500	-32768	-26584	-7480	17181	-22016	28220	-20508	13048	-8768	7747	-26360	-8361	-32768	-2648	29236	8930	1029	14658	125	113	1
-10860	-9880	10036	620	7587	7091	-19072	-944	-1444	-149	15743	6077	-19256	-2560	1136	-12568	6183	551	-32768	-32768	-32764	12046	-18521	2384	-8380	2440	-2912	7158	-7429	1377	-21196	-4096	32767	5799	3019	11699	133	117	1
-11624	-8704	11056	1112	10025	8769	-18592	-1896	-940	-2487	18094	7755	-18300	-7808	-1512	-16739	6122	2829	-32768	-32768	-28884	14740	2445	-12699	-7216	12288	-11488	-802	15663	12657	-14352	-2424	26240	8198	137	-2279	100	100	1
-10840	-12568	11816	798	12825	10929	-20800	-1556	-348	-2886	20514	9078	-21216	-4020	580	-16536	1582	1319	3016	12184	32767	-24577	4323	-15976	-25088	-23784	9912	-11864	16203	12022	-8760	360	-596	8565	6768	-1924	103	102	1
-11564	-11960	11288	1315	16690	16864	-23112	2660	-356	-7357	22124	8489	-22332	-2240	9332	-12165	-5775	1722	5144	5828	8608	-22877	29212	-13198	-31260	2884	1752	-31194	7404	6511	-18800	2640	8324	13829	5122	5520	153	129	1
-12136	-17352	12256	3205	21697	23565	-26616	3164	8252	-13110	25012	7989	-19724	616	10592	-10277	-5936	423	-31156	-23792	32767	-10951	25943	-7681	-15704	-11688	-8352	-22156	14330	6070	-31528	16728	12200	-22013	-8629	7730	121	112	1
-13408	-19296	15988	3411	27008	32767	-28640	-1336	5440	-13438	27638	9044	-25512	1784	15552	-13837	-10796	-958	-18968	-2280	19664	1998	17701	-13150	-16060	-3544	-9532	-3141	19988	8400	-30768	-16652	-6204	-32672	13078	5764	92	96	1
-26924	-20528	16784	1692	32434	32767	-28576	-3820	-1848	-6665	27857	9657	-22896	-7104	-1488	-11715	-15644	-2882	-6424	7520	12024	-15619	7590	-9815	-21160	21780	-8616	-5114	15126	12627	-4848	-7928	-8828	4838	14285	-1080	105	104	1
-27276	-27852	18040	5792	27992	32767	-31036	-644	-7604	-8104	27488	9927	-23040	-8364	-3768	-4709	-21184	-10102	-18732	7972	11260	-7279	307	-4907	-16704	5840	-8568	-9444	12412	4922	-12116	16112	-16016	32767	3546	-3791	116	108	1
-10480	-29220	18572	7372	26653	32767	-29348	-40	-2000	1740	18729	12145	-30092	-400	-7392	9729	-26269	-13533	-11896	2476	13364	-2891	-1363	-2645	-16396	656	-8840	-1434	4340	3683	-19164	28176	-3132	-350	12643	15986	117	108	1
-32768	-19988	22712	16715	22171	32767	-18616	2592	-18040	12917	12465	10961	-30184	7460	-7172	15232	-27196	-12012	-10660	2468	14120	-1640	-848	-1812	-18828	-116	-6176	-1266	5505	3728	-22828	-1132	-3364	-20916	18136	7088	78	87	1
-11360	-20460	20336	4407	-12280	8687	-15728	10088	-14236	-1736	7614	7206	-28560	8324	-2824	11238	-26884	-8061	-9968	3140	13884	-158	180	-379	-16628	-656	-3516	-3301	5771	4567	-16216	-12576	2308	-9255	13504	-2836	95	99	1
1076	-13960	7952	-1685	-14414	-737	-12104	10504	-5284	-4331	-114	2326	-26516	5320	-4660	279	-24854	-8636	-10024	4504	12664	358	688	-167	-16756	-456	-840	-2335	4960	4554	-13360	-2548	2340	7235	13586	-4479	113	107	1
1388	-14112	6996	-1193	-13970	-1213	-7860	4976	-9596	-14346	-7957	-2925	-21408	3100	-5216	-4364	-21086	-9548	-9804	5244	12212	131	553	-715	-15296	376	1200	2212	4319	2749	-15788	6056	2048	10451	14582	1388	128	114	1
-1112	-8480	6352	2943	-7739	-12943	-6096	1732	-8932	-6054	-13311	-3631	-17988	1252	-6252	-6675	-18224	-10077	-9592	6028	11616	-786	3	-2114	-15324	1452	1832	7783	3994	2973	-15284	10496	1588	3889	15784	5651	104	103	1
-3424	-8684	7444	2156	-9660	-20975	-5084	688	-10396	3323	-20780	-4587	-14944	536	-7020	-5779	-15882	-9845	-9808	4804	12548	-1976	-957	-3191	-17188	3192	-1348	4203	5229	3769	-15308	5080	880	-541	15721	2653	118	115	1
-6780	-7548	8144	930	-14482	-26124	-5468	2528	-10072	9147	-27597	-4724	-12792	720	-7668	-3491	-14045	-11191	-10364	3332	13620	-1537	-558	-2458	-17204	3532	-1864	2590	5135	3282	-16660	528	2420	771	18296	7	118	113	1
-8852	-6100	8664	-1439	-20515	-29743	-4756	2928	-9440	11292	-32010	-6068	-12136	0	-8148	2153	-12268	-9046	-10656	3368	13152	-472	443	-1487	-15840	-2004	-2316	-508	4002	1058	-15960	-48	5796	6849	21569	95	102	102	1
-9744	-5372	8832	-5412	-25532	-31235	-5240	3516	-9468	11739	-32768	-7296	-10548	-680	-8068	8231	-11512	-4830	-10260	3948	12736	104	648	-1021	-15732	-1020	-884	4628	4819	2175	-14980	-592	6212	8208	21919	427	100	100	1
-11712	-5832	9080	-10154	-29244	-30767	-6364	5288	-9156	10980	-32768	-8220	-8528	1956	-8304	16064	-11141	-1198	-10252	3932	12820	208	732	-1026	-15956	-600	1036	5193	6605	3851	-18312	3804	-2168	7110	13858	-2	104	104	1
-14348	-6908	10192	-15248	-31748	-29524	-7060	9324	-9520	3834	-32768	-8833	-6860	6076	-8820	20507	-10372	2705	-10132	3808	12868	239	1094	-1021	-15928	-360	1620	2245	7138	3783	-18440	9776	712	662	8270	-969	107	106	1
-16784	-7736	12104	-20501	-32535	-29504	-7796	11352	-11476	-8248	-32768	-11529	-5728	8068	-9752	19648	-7789	6181	-10404	4364	12520	4	1050	-1226	-15320	896	916	909	8559	3943	-15308	6004	4336	302	7992	1274	115	112	1
-20692	-10540	15496	-25569	-31769	-30874	-11172	9032	-14184	-17237	-32768	-15535	-3916	9488	-9788	15132	-5171	8889	-10420	4656	12348	-214	737	-2035	-15464	640	-184	1553	9583	4805	-14992	-284	4196	4050	9795	2266	124	113	1
-29752	-11364	18656	-26291	-29405	-32768	-16028	7352	-13444	-20942	-32768	-19946	-4900	9108	-6288	7300	-2241	8182	-9016	5668	12944	-261	797	-3176	-17904	1232	-1752	1678	10713	5742	-17064	-612	1464	3366	8622	1140	118	110	1
-32768	-4620	19588	-23712	-24912	-32768	-20972	3288	-17096	-18948	-32768	-19436	-9420	532	-2148	3736	-1500	2892	-10256	4872	13728	366	1998	-5052	-17924	344	-2140	1753	10255	5559	-17812	3328	392	2295	7425	-323	127	115	1
-32768	4244	14188	-20378	-19971	-32768	-23660	2420	-15784	-14433	-32768	-14139	-19096	-4916	9560	203	-2199	-3761	-8832	2496	15844	-260	5073	-4954	-17168	-1520	-1796	1262	11725	5217	-15616	2752	2572	3812	7029	1571	130	113	1
-32768	12176	760	-14053	-15792	-32768	-19816	88	-14864	-3507	-27248	-8423	-23020	-4152	24672	-4666	2840	-5420	-10188	3960	14624	-900	9276	-4933	-18192	-1088	-1628	809	13801	5471	-18000	-776	3764	6926	6037	706	95	96	1
-32768	28340	-10248	-7947	-7485	-19978	-11816	3296	-13508	6885	-12764	-6215	-25148	896	31516	-5366	5282	-1348	-10976	3260	13932	-1670	13856	-4567	-17828	-72	-1548	587	16133	5391	-18020	-388	3836	7410	5758	-48	108	104	1
-32768	32767	-9592	-9728	3113	-4227	-6948	2356	-11728	1570	8075	3279	-19524	-3368	22168	-13647	3219	-199	-12580	2252	14092	-2072	19356	-4910	-19340	708	-712	2085	18254	5880	-17828	8300	1816	8834	7321	-1207	150	127	1
15508	9628	11436	23950	8297	23939	-15280	1476	-2620	-7252	25136	3918	-15848	-7204	8216	-7349	8928	-1744	-10800	5280	14300	-3108	24256	-7744	-21660	-1476	2108	6222	20618	6703	-20932	5424	7832	8821	6281	-595	137	117	1
4088	-9220	12064	13259	9964	28380	-32768	-1824	18308	-3611	10423	-2114	-20216	588	3044	-13241	11378	-6119	-11744	6512	15028	-4760	32428	-11699	-24760	-8032	5020	11434	24368	7762	-23272	1880	14592	10029	4070	-1235	126	116	1
-22900	-2964	20180	9157	21723	20210	-17980	7196	1292	22642	10172	5440	-20808	-2976	6916	3715	9095	-2605	-13016	10480	16000	-8274	32767	-19416	-27044	-7308	7644	13492	27447	10009	-27204	-3256	28812	14181	-20351	-3430	128	113	1
-18372	956	22848	-1203	15986	16083	-12928	13724	-6616	13889	17370	8967	-19432	-2292	-3308	18874	1678	8051	-20100	8264	21364	-13941	32767	-28290	-27428	-2340	2556	8074	30539	10168	-18796	-5136	13544	9467	-13914	-5615	98	97	1
-32768	-32768	-7672	-8679	3308	9512	-17788	-1024	-14904	-9425	16245	1257	-10596	16088	-8936	11114	5747	2746	-32768	10980	26052	-8418	32767	-30238	-27176	5928	-940	4554	32664	9363	-21216	12988	-3824	24364	-18122	-2555	95	98	1
-17676	-12	18384	8479	3924	10968	-17860	-16960	-13748	4101	13566	-1875	-14904	-4752	-12976	-6121	15396	-3713	-32332	18488	27576	-6048	32767	-32768	-29768	6264	-4548	3107	30297	6370	-28816	11916	-2696	2061	-25484	3558	95	98	1
-11936	-3956	13540	6736	132	5719	-18008	1880	-8828	32767	6753	8751	-14092	-15140	-10364	-9033	17490	-3445	896	23516	22544	-18525	32767	-32768	-27416	688	-5288	-3378	18535	700	-32384	5124	-8828	-12936	-27384	6381	105	103	1
-10700	-8656	10112	4709	-609	3892	-14872	12252	-4624	9946	5729	3180	-18480	-1884	-5064	10278	12369	-809	-32768	13888	32767	-13638	19947	-32768	-14988	7984	-17644	1943	-23865	7652	-28844	-1748	-5740	-17120	-28390	4007	103	100	1
-10432	-7388	10428	2772	-665	2517	-15176	7216	-3544	-8233	10183	-1124	-18628	6532	-132	9241	9195	1919	-20520	9564	32767	13422	-25599	-21590	-11028	-6592	-11076	-1480	15200	-3848	-28712	-3708	-1372	-8478	-30534	738	104	103	1
-10132	-7612	10340	1093	222	1193	-17104	-1536	-4120	-8331	9996	-1922	-16532	4420	1524	1843	10464	5996	-3928	12036	10952	26823	-28556	-9650	-8796	-6348	-10124	12867	-3087	-6655	-25664	256	-2208	3051	-27582	2326	129	116	1
-9764	-8708	9292	371	525	483	-19044	-5744	-1876	7814	6614	3449	-14864	-600	-104	-3851	13761	4504	-3496	20012	5368	15810	-27798	348	-8700	2076	-12036	14247	-9077	-6441	-24020	1864	-5232	1761	-28659	1914	155	131	1
-9732	-8980	8956	741	311	663	-16400	-1328	-1936	17192	3780	3806	-14252	-4084	-728	-4244	13245	2575	-1320	13856	4400	2139	-25579	12914	-6444	3016	-11324	7041	-20628	-4583	-17508	1128	-6176	2391	-25104	2616	140	122	1
-9448	-9220	8616	1333	-94	1175	-15532	6520	-1924	5350	5737	2363	-14920	-3632	-688	1295	12178	1467	-152	6024	7528	6136	-18379	26365	-4060	4940	-11576	-4037	-25203	-8005	-12964	1004	-6568	3984	-19480	4482	120	111	1
-9656	-8544	9160	1833	-376	1582	-14296	5716	-2304	-11084	8808	-130	-17080	1388	-348	1614	12565	1097	-6544	5480	10092	12778	-14647	32767	-3752	1048	-10816	-8961	-29387	-10062	-11540	3264	-7388	2585	-18150	3710	125	114	1
-9648	-8216	9632	1771	-262	1476	-17120	-140	-2284	-13077	9643	-440	-16692	4440	404	-4694	15031	1532	-10700	4396	12272	11961	-17882	32767	-3912	1452	-10036	-9159	-32768	-10754	-9784	1952	-8472	-3445	-13613	3390	118	110	1
-9860	-7800	9808	1623	-34	956	-17496	-3248	-2844	-436	7294	1341	-14680	1148	792	-11483	18765	3569	-11168	3772	12488	11779	-18727	32767	-3836	316	-10648	-6738	-32768	-11669	-7352	1816	-9388	-10493	-8160	110	116	109	1
-9876	-7968	9780	1286	204	601	-16380	1436	-4292	6371	5698	1806	-15040	-1820	-76	-9950	19811	5886	-16452	-484	15716	16422	-25947	32767	-4652	180	-11004	-2219	-32768	-13983	-5460	648	-10356	-14549	-6938	-2844	120	111	1
-9792	-8092	9680	780	536	588	-15728	5956	-5916	493	5728	1417	-14440	-1624	-6976	436	17230	5183	-20480	680	17428	18364	-29663	30263	-6032	2036	-11832	3567	-32768	-16386	-4380	-340	-11492	-18682	-2359	-2956	129	117	1
-9840	-7708	9772	265	1100	466	-16088	4200	-5572	-7585	6607	-430	-14696	-1884	-10816	2703	12563	4925	-27100	1940	20036	18206	-32768	27532	-10816	3092	-13740	6375	-32768	-16257	-4152	-552	-11420	-16638	2878	-2824	138	121	1
-9916	-7232	10080	-422	1835	277	-17280	1600	-2032	-6499	5996	-356	-14740	812	-5744	1883	9647	5324	-32768	1136	21776	18518	-32768	29794	-17336	3876	-14088	7431	-32768	-17520	-5720	-344	-8520	-12908	6805	-3795	118	110	1
-9656	-7728	10020	-1407	2989	-72	-15932	-1228	1588	-1388	7061	1748	-16896	460	5428	7113	10514	6053	-32768	-4004	18996	18768	-32768	32767	-23972	5960	-13572	8937	-32768	-17624	-9384	4656	-1488	-8226	3953	-1251	117	110	1
-9968	-8444	9436	-1741	3232	640	-16264	-3404	3116	1746	10339	2462	-19624	-1632	10000	6550	7957	3224	-32768	-10508	8848	17245	-32664	32767	-28200	7932	-11516	5148	-32768	-18127	-20092	6336	17552	1487	-5978	6356	115	108	1
-10152	-10316	9116	-1591	2363	2637	-17248	-4200	1228	382	14023	3693	-18452	-752	6220	-4320	6456	117	-32768	-20352	-13540	12750	-28148	23439	-22724	3796	-14728	3695	-29195	-11424	-31456	-5508	32767	1449	2966	14912	114	107	1
-10192	-11852	9384	-2902	2017	6321	-19092	-1584	-184	-2860	17177	5006	-18284	828	688	-13276	6632	-37	-32768	-23400	-17868	12672	-26346	20653	-3468	4968	-2028	14428	-7995	4807	-22328	-4448	32767	396	2779	5026	115	108	1
-9676	-9004	13420	2370	7427	9633	-19680	576	-2440	-6091	17880	5930	-19092	-4572	-1740	-17137	5952	970	-32768	-32768	-30436	13902	8488	-982	-10312	10876	-5696	7629	12992	10114	-15540	-2600	23988	10379	54	-9304	124	114	1
-10708	-8052	13688	1919	10837	9623	-20760	-116	-3476	-3241	18514	9300	-20628	-4508	-3020	-18797	4714	2780	-11924	16472	32767	-32228	6744	-23483	-24120	-1740	10056	-13322	18294	16140	-14880	2276	2652	11289	3940	-2726	102	102	1
-11144	-10736	13144	1070	15511	11332	-23740	2504	-1588	-3847	19136	10626	-23384	-2816	2952	-12800	1827	3178	13060	-84	-2128	-24171	12671	-15294	-28684	9480	-204	-32768	7596	10288	-12400	4880	1048	9544	9207	6077	153	129	1
-10940	-15156	12600	2709	19809	19426	-23660	2144	244	-5016	19504	10596	-23536	-5252	11440	-6898	-6701	1692	-19396	-14788	27288	-16533	26695	-8912	-15364	-19920	-7660	-32768	10599	1958	-9612	23404	3836	-17039	4586	18014	141	122	1
-13204	-19504	11780	4902	23095	29133	-27376	1404	6936	-12098	24579	9882	-20776	-540	10796	-10740	-8607	449	-15940	-14924	27468	-2325	20157	-11725	-18976	-12932	-8124	-9646	15370	6118	-32768	-7124	-1208	-32575	6371	10860	123	112	1
-13140	-15376	15712	4469	28813	32767	-28620	-2440	-580	-6388	27530	11420	-22084	3604	8492	-2461	-9912	-1687	-25616	32767	-11156	-9557	5844	-5172	-23748	18904	-5644	-1274	16010	12816	-19400	-32768	-7500	-13858	6614	-6438	89	95	1
-28812	-25220	13692	6740	30335	32767	-28444	-2196	-6996	-4464	26963	13034	-20288	-11248	-4224	-11192	-18261	-7370	-18636	-1536	17260	-7687	-676	-6334	-15344	8352	-9488	-9871	12930	7049	-6276	16624	-11372	32767	13249	-1615	96	97	1
-22124	-20764	23220	11805	23005	32767	-30332	-700	-6072	-3148	23106	11476	-26012	-2276	-4012	6386	-25131	-12952	-10752	5844	11780	-3037	-1225	-3276	-15148	1024	-6880	-1699	7314	3636	-14148	25560	-7984	18868	7700	6354	108	106	1
