#Activity	walking 
#ActivityID	1 
#Date 09-30-14-31
acc_rf_x	acc_rf_y	acc_rf_z	gyro_rf_x	gyro_rf_y	gyro_rf_z	acc_rs_x	acc_rs_y	acc_rs_z	gyro_rs_x	gyro_rs_y	gyro_rs_z	acc_rt_x	acc_rt_y	acc_rt_z	gyro_rt_x	gyro_rt_y	gyro_rt_z	acc_lf_x	acc_lf_y	acc_lf_z	gyro_lf_x	gyro_lf_y	gyro_lf_z	acc_ls_x	acc_ls_y	acc_ls_z	gyro_ls_x	gyro_ls_y	gyro_ls_z	acc_lt_x	acc_lt_y	acc_lt_z	gyro_lt_x	gyro_lt_y	gyro_lt_z	EMG_r	EMG_l	act
-32768	-6280	18108	-18817	-32768	-16349	-22556	-2572	-14208	-27014	-32768	-1946	-14196	-5300	5288	6957	-7642	-3620	-8192	4716	14292	-258	3113	-2935	-15272	-24	-908	199	9950	2907	-16684	2444	4300	-2051	9318	3105	188	196	1
-32768	-568	7724	-13127	-32768	-11853	-20968	-2504	-12140	-19049	-32768	-4230	-19368	-10264	14060	-656	-7201	-4331	-7816	5320	15648	-434	6905	-2767	-17316	2824	-40	-366	12269	3100	-17644	584	5720	-1204	10326	2618	252	253	1
-32768	7964	-3464	-8382	-25895	-9441	-16360	-6392	-10500	-8316	-25829	-3836	-19312	-9960	26460	-2066	-5812	-636	-7364	5172	16608	-391	10450	-3804	-18448	1496	292	-1917	14329	3456	-19904	-632	3624	2059	7184	1864	252	253	1
-32768	12284	-14408	-99	-11310	-6086	-9368	-1372	-10232	4391	-10257	-1628	-16036	-15040	24512	-11411	4091	346	-7880	5380	16820	-293	15031	-4772	-19500	-260	-736	265	16832	4093	-20028	-572	3336	2757	6539	1647	252	253	1
-32768	18044	-15140	3024	3577	-3652	-4860	-1256	-11024	4281	7081	-712	-12776	-10348	13080	-11362	-1106	1930	-8284	5172	16748	-356	20082	-6082	-19468	492	-412	1831	19119	5047	-19492	3788	2472	7500	3559	469	232	253	1
-32768	912	-10728	12585	19281	6521	-11288	-3696	-15152	10957	19270	-735	-12348	-6396	6000	-12723	351	2571	-8536	6128	17496	-442	25699	-7954	-20392	2064	204	669	21756	5344	-20504	3172	4900	7917	1458	-177	190	253	1
-16692	-3576	28516	8619	17330	4674	-16360	1464	3884	15762	19822	-3	-9152	-5892	72	-21442	9041	1423	-8904	7060	18888	-123	32767	-11536	-24272	916	1636	1850	23854	5784	-23396	3176	11708	7247	-4480	-497	144	248	1
9796	-4632	10204	-1453	21163	589	-32768	19252	3740	27381	13061	-1386	-18108	9988	1416	-7020	2933	7275	-7856	7240	19824	-401	32767	-12337	-32768	-2748	3952	4593	25886	7327	-25532	2132	13024	4355	-9099	-2815	99	227	1
-31652	16344	32767	2094	32767	9567	-19336	6272	-8232	12741	11798	2312	-28100	-20344	5396	10130	204	3359	-16584	12132	22876	-66	32767	-26504	-32768	-2468	3448	8580	26487	9726	-27048	-7776	9956	-38	-12071	-7733	45	205	1
-26756	-11620	20556	5053	12008	9586	-13224	-5932	-11800	-1027	17557	-1377	-20240	-152	160	6704	10039	2110	-23440	10364	21788	4014	32767	-28110	-32580	2528	-1784	10235	26772	9751	-25284	2016	1628	8353	-21313	-8659	28	170	1
-12056	900	16820	9408	5298	6754	-22060	-11720	-12092	6828	17669	-8830	-15304	14552	-21276	-973	16704	1422	-18384	5928	17284	5265	32767	-29305	-24344	8112	-8076	8069	24663	5953	-25148	8116	-7868	23537	-30376	-5173	0	81	1
-11628	-10896	12816	5565	2706	2298	-18028	4636	-11036	12472	11078	-2611	-9400	3980	-1876	-6804	6758	-469	-32768	7664	22684	10828	32767	-24482	-18480	5932	-12880	-2207	19911	4804	-22580	6368	-13044	17877	-27391	-1972	0	56	1
-6400	-1136	15580	2435	2125	1284	-14660	6868	-7652	-4040	10062	-2340	-18048	-5768	-5652	-10063	12823	2279	-21496	21528	28616	9529	30621	-22859	-12700	7340	-13348	-2411	13117	4006	-26008	3108	-11100	4352	-25374	-685	0	51	1
-8288	-3452	14336	1629	2156	805	-19924	248	-6636	-12753	10329	-4006	-18504	-820	-4144	-5998	10507	3904	-2552	18632	10280	-7161	11992	-20145	-8128	6852	-12504	-426	4888	2429	-23164	5128	-5456	-6426	-25827	362	30	32	1
-7752	-5440	13656	714	1848	278	-17856	-4556	-5652	-1924	7453	-2165	-18148	-248	-3176	-5604	10031	4368	-16740	10248	26060	-2228	-24325	8048	-3428	5616	-14480	7007	166	630	-20328	6328	-2624	-5467	-22338	2222	51	38	1
-7400	-5100	13312	894	2074	397	-17364	-476	-4484	3531	5789	-2096	-15384	-5372	-2704	-6762	10390	7836	5612	12392	13636	177	-32768	20947	-7064	-1040	-3024	5992	-7273	-841	-21192	2540	-3732	-1263	-19655	1628	69	52	1
-7972	-5728	13072	785	2211	379	-17460	1632	-2720	-3006	5654	-761	-14320	-6128	-2904	-3693	10094	7137	5732	8608	8180	-4068	-32768	21814	-7744	2872	-4888	3953	-15941	-2748	-19792	1488	-5832	1291	-17727	1286	78	50	1
-8044	-6052	12920	881	2658	754	-16804	-1468	-2860	-6467	5296	-1022	-16628	-5056	-2544	-1622	10805	6782	1984	2004	7804	-7457	-32768	17668	-4268	4872	-5216	-5941	-23255	-3219	-14684	3088	-6764	-321	-16291	854	91	48	1
-8672	-4024	13536	600	3034	435	-16548	-912	-3228	-1243	5043	-743	-17444	-2092	-156	1256	11865	6654	-4392	-1952	10380	-1829	-32768	14622	-2276	4040	-7380	-13770	-28059	-4290	-10528	5568	-7836	-2975	-13247	884	85	50	1
-8560	-4180	13172	32	2922	423	-15996	2196	-2848	1356	5260	-162	-14572	-580	356	1321	12371	6692	-5480	-276	12068	4849	-32768	13005	-3080	1044	-8244	-8932	-31922	-7377	-7648	5240	-8596	-5107	-9992	818	87	53	1
-8488	-4536	12688	-326	2253	759	-15592	1324	-2732	-546	5315	-547	-13956	-556	-520	263	12496	6387	-7040	2540	12908	6328	-32768	12267	-6324	616	-8556	-2699	-32768	-9924	-7692	4672	-8804	-7643	-6747	725	88	68	1
-8344	-4908	12768	-395	1862	1403	-16304	-364	-2620	-903	5572	-1061	-15756	-3024	-824	-1597	12124	6645	-9612	2340	15092	6865	-32768	13395	-9180	716	-9436	-1433	-32768	-12313	-7072	3660	-9216	-9579	-4062	1122	92	70	1
-8376	-4720	13248	-803	1888	1850	-16540	984	-2040	-1684	6299	-1211	-16400	-4092	408	-3192	11065	6121	-12968	4672	18804	7690	-32768	16777	-9276	3072	-11052	-1529	-32768	-14802	-6484	2940	-9880	-11808	-2364	2170	90	73	1
-8644	-4776	13120	-846	1980	1893	-16536	1012	-1896	-3140	7106	-1239	-16520	-3688	844	-3190	11162	5878	-15068	5152	21300	7003	-32768	19508	-16312	3252	-11604	-1687	-32768	-17825	-6660	2656	-10348	-11420	-1363	1972	88	76	1
-8712	-4608	12880	-661	2243	1921	-15348	-648	-1672	-2373	7993	-869	-14812	-4236	1812	202	14597	5017	-20184	2580	25228	9327	-32768	17810	-20540	1156	-11196	3655	-32768	-20415	-7552	2284	-8080	-11316	-2206	843	83	92	1
-8588	-4932	12764	-133	2608	2045	-16124	-840	-2240	790	8757	-246	-14652	-4856	-836	-299	14492	4435	-32768	7188	31772	13982	-32768	12227	-24820	4312	-15500	10525	-32768	-17593	-10820	3552	-2480	-11133	-4857	1761	82	111	1
-9088	-4548	12976	386	2933	2464	-15832	748	-2920	1090	9403	-75	-14904	-3684	-4740	-90	12971	3897	-32768	7180	27996	16998	-32768	8934	-23404	5944	-9768	14937	-32768	-11159	-15188	3508	4420	-3795	-7396	140	91	112	1
-8800	-4524	13396	564	3802	2563	-16088	1096	-3272	-189	10327	-202	-16880	-2660	-5180	-13	9690	3663	-32768	3396	12960	19155	-32768	7676	-20180	5876	-11748	9730	-32768	-6216	-20552	-152	8952	3178	-2915	-3398	94	117	1
-8728	-4252	14104	542	5209	2682	-17108	624	-2884	223	11427	96	-17396	-4004	-596	681	8638	3913	-32768	-4816	6384	20449	-29799	8882	-21760	2316	-13940	4060	-32768	-3622	-15508	-8424	24864	-6640	4359	-2747	95	114	1
-8748	-4516	14972	403	7689	3027	-18856	212	-3056	965	12605	856	-17712	-4212	2592	-3494	6834	3543	-32768	-6360	5000	20216	-26986	9417	-12272	484	-180	18378	-20159	-1709	-19948	-13836	32767	-11492	-2675	2040	97	70	1
-9036	-5108	15476	454	11070	3965	-19148	2168	-1972	1177	13987	1126	-18672	-2804	1956	-5772	6330	3457	-32768	-20396	-21120	2326	-5197	4289	3016	14364	-10032	6282	3726	5711	-17996	-4284	28696	11327	-1199	1530	102	78	1
-8832	-3964	15520	569	15168	4968	-18124	3640	-452	745	16393	769	-19388	-3244	1680	-5485	3856	3817	-32768	-6500	2772	-13742	17520	-2639	-7916	7164	-14052	-10746	17493	5878	-15464	1696	9044	18279	4719	-332	114	77	1
-8616	-6112	15844	262	19458	5694	-19004	1860	-336	1686	19210	1137	-19660	-5316	2588	-5621	-1921	2284	-13700	-10036	22748	-18973	16486	-3972	-17752	-680	-4832	-11445	21972	5908	-8608	-2460	-896	5305	-1224	2513	132	91	1
-8808	-6140	17472	150	25171	8594	-23072	2644	-2296	1092	21941	666	-21992	-5556	8856	-1671	-6094	-229	15856	16440	19056	-4049	14641	1783	-32768	-12920	7756	-13082	11163	975	-4716	16588	-19692	13174	8971	2421	147	108	1
-8308	-10324	19592	-1544	32767	12056	-32336	5020	5264	-3177	24199	1048	-24880	-11620	10708	-688	-9448	-1566	-26896	-10468	32767	-5765	32767	-7526	-21924	-4768	-7372	-24905	15877	3491	-32768	11920	14432	-32768	7639	-2378	172	153	1
-9764	-12436	21760	-1425	32767	22382	-32768	9076	5856	-8949	26651	-1910	-25844	-9128	17968	-8264	-24700	-3700	-12724	3604	19612	1	15019	-11435	-16104	-592	-7672	-6118	17351	4613	-20816	-4348	-128	-16937	10727	449	173	123	1
-22072	-11860	22160	-1147	32767	28650	-32592	6784	644	-16994	28137	-2234	-25904	-1072	11516	648	-19283	-1644	-28480	32767	17028	-9258	14096	-8043	-15628	-64	-7948	-4860	15740	5171	-14420	-13012	-2080	-1781	9816	4410	176	91	1
-32768	-12200	22512	-5022	32767	28101	-27932	-6152	-7512	-18206	31160	1057	-21744	-4984	-1548	-1346	-20778	-1904	-5588	-5672	19064	-4707	3572	-3603	-15936	11540	-8688	2516	15018	7110	-11544	6740	-9128	27688	9680	4283	181	71	1
-24120	-11812	14436	551	32767	32767	-23892	-9180	-15456	-8315	26675	4768	-20872	-12156	-17392	-5596	-12933	-5984	-11384	5884	15356	-4117	2343	-2683	-15032	5304	-6604	5016	10556	5198	-15784	11168	-6928	16542	7010	6009	209	76	1
-27424	-17340	22468	-550	32767	29446	-18668	-10228	-15368	7808	16211	7602	-22492	-11116	-17020	-4530	-12324	-7124	-7300	7752	14500	-2270	1928	-1969	-18512	2164	-5292	6025	9051	4778	-15104	9424	-1936	4402	10523	6850	232	97	1
16276	-25004	28112	10985	23689	27577	-14348	-6172	-13768	19711	7406	7248	-24228	-4036	-9488	21303	-21378	-9839	-8016	3188	15580	-1141	1395	-977	-16544	4796	-5700	6383	6593	2925	-15920	2592	-3164	9785	11165	1553	244	160	1
-21264	-17616	19856	7752	-8316	2691	-8972	784	-18772	17433	-98	4714	-22240	-5036	-6908	19499	-21195	-12083	-8004	4140	14676	-403	1586	-102	-17308	4156	-4584	2315	6165	2548	-17468	1552	-2740	9925	10192	631	221	134	1
2576	-14336	16672	7620	-27325	-14477	-4084	1556	-5832	9103	-3784	3421	-21780	-572	-5300	12769	-19653	-12025	-7404	5164	14364	-228	1760	139	-17508	2708	-2520	3004	5294	2007	-16820	8320	-780	8434	12472	-32	186	85	1
4708	-11148	8884	10983	-31064	-18243	-8716	2480	-3544	7121	-12834	3673	-20216	-1876	-6740	7081	-16724	-11705	-7544	6408	14048	-1	2203	-120	-17168	3476	-1988	6394	4462	1066	-16136	7584	-1520	5557	14304	2137	185	107	1
3164	-6496	7372	12873	-32548	-16219	-4708	-3984	-5960	4877	-19925	4391	-14924	-2036	-7196	5516	-15075	-11225	-8300	5176	14260	129	2039	-514	-16468	4916	-3296	4961	3354	530	-15856	4840	-1128	3197	15154	2964	182	119	1
520	-2116	7628	7798	-32768	-15515	-2660	-2736	-6304	6842	-26719	5135	-10588	-1172	-7236	5082	-9916	-9511	-8320	4916	14252	392	1784	-387	-15792	3272	-3092	2397	3349	480	-14908	2032	-312	3903	15040	2928	170	127	1
-4084	-3052	8528	999	-32768	-16621	-2808	-2696	-8780	7985	-32004	7742	-10296	-1024	-8500	5653	-5892	-7969	-8076	4864	14076	660	1575	-437	-15044	1752	-1696	2305	3062	355	-14744	1204	100	4530	13331	2448	152	139	1
-7940	-6436	9632	-1183	-32768	-17740	-4612	-1468	-9648	6058	-32768	8401	-8584	824	-9532	7699	-3118	-7922	-8036	4972	13848	697	1357	-520	-14696	-632	-80	5839	3609	1597	-15128	1876	1928	4357	11476	2617	149	164	1
-10048	-6880	10768	-1501	-32768	-19468	-8888	-972	-9448	5516	-32768	9526	-8464	3280	-10436	9303	-893	-6639	-7716	5696	13620	241	917	-932	-15328	4220	744	5252	4422	1572	-15160	3412	2952	3245	11710	3162	176	216	1
-13024	-8304	12792	-1828	-32768	-21144	-8784	-268	-10788	3214	-32768	10258	-7096	5500	-9976	9996	45	-4852	-8016	5884	13532	-329	355	-1552	-14816	4616	440	2892	5182	1614	-15288	2772	3068	578	12999	3532	235	253	1
-17108	-9220	17256	-3732	-32768	-22614	-12504	2124	-12620	205	-32768	10133	-7888	5244	-8464	12519	501	-2362	-8064	5132	13600	-761	-53	-1781	-14392	1248	764	1702	6607	1654	-15072	3364	1844	493	11483	3440	245	253	1
-21892	-8808	20612	-8644	-32768	-22762	-18492	6848	-13884	-6277	-32768	8656	-9268	7512	-5456	15291	721	-309	-7872	5176	13824	-787	-73	-1780	-15524	164	348	2659	8062	2165	-17504	5484	-160	3494	7210	2192	239	253	1
-29176	-8544	24108	-15345	-32768	-20952	-20720	5452	-14404	-16576	-32768	5591	-8764	7964	-1332	14123	-541	37	-7700	5216	14388	-588	594	-1946	-17932	2428	-1756	1669	9046	2583	-18240	3708	816	3430	5150	1069	225	253	1
-32768	-5112	22496	-19737	-32768	-20002	-19308	-2092	-13588	-28572	-32768	-917	-11928	3032	2428	7503	-1548	-2249	-7952	5380	14688	2	2827	-3068	-18064	1472	-2280	749	9367	2780	-17524	2432	236	2282	7264	1556	224	253	1
-32768	-5888	14548	-16730	-32768	-16845	-24112	-4556	-13796	-18059	-32768	-4971	-12340	1564	2248	5853	-2372	-2711	-7204	4748	15192	-206	4317	-3127	-15756	1736	-964	1318	10463	3206	-15340	2900	1852	2755	9885	3059	233	239	1
-32768	6856	4696	-13214	-32768	-11948	-21996	4040	-12036	-11131	-32768	-5575	-21248	-6900	16084	3158	-4581	-4593	-7736	4868	15644	179	6787	-3229	-16756	1864	532	-220	12714	3441	-17996	1952	3080	2706	7645	3052	220	225	1
-32768	12600	-7052	-11521	-19528	-11793	-12132	-1536	-10928	-5011	-20675	-5008	-17376	-12196	29768	5080	-3265	-2632	-7172	5548	16644	763	10808	-3873	-18556	792	540	-1618	15216	3860	-20636	1124	6032	2756	5230	2029	198	212	1
-32768	19228	-16644	773	-8539	-8922	-4744	-4012	-9624	1523	-2733	-2637	-13848	-18188	25672	-12609	4397	-1020	-7600	5388	17156	452	15577	-4981	-19688	228	-124	-977	17721	4513	-20260	3940	5400	4068	3910	720	169	201	1
-32768	19576	-12860	7099	6823	-2763	-4368	-3476	-9476	2316	309	-2076	-13972	-8524	11556	-13072	-2257	2706	-8196	5752	16952	720	21339	-6068	-20648	356	-956	-349	19755	5310	-19896	3280	1800	6481	2353	-385	131	194	1
-32768	11120	6156	18461	18452	5562	-12672	-2152	-14264	17877	19891	1205	-11196	-3728	-2840	-17422	7070	4109	-7980	6948	17920	743	28161	-8328	-21640	-112	-756	54	21620	6185	-21092	184	3744	8398	326	-772	118	180	1
1520	-14304	32767	9131	5907	2507	-22444	7964	9444	14408	15006	-1353	-4396	1844	-17748	-21650	17923	4182	-7452	5908	18848	1436	32767	-11640	-26316	-1248	3856	3264	23787	6826	-24256	-576	11664	5609	-5807	-1044	75	164	1
19516	-196	7044	3451	28789	-1235	-32768	13200	3644	20177	10893	-151	-19816	10328	692	4231	-1879	8168	-9496	11552	20568	1408	32767	-19281	-32768	-3360	3392	6277	25051	9145	-24532	-4044	13612	3380	-9541	-4443	16	160	1
-32768	14144	31836	5536	32767	9208	-20932	504	-8152	11013	10605	245	-32132	-26316	13444	11369	-848	215	-16576	12008	22520	3669	32767	-24627	-32768	-3652	3048	11109	25884	10531	-27176	-6968	11964	962	-17038	-9741	6	147	1
-18948	-7752	21508	3421	13568	12822	-16008	1700	-7784	8341	14521	-210	-21648	556	3616	7321	10589	3093	-25824	12128	22848	7033	32767	-25468	-30868	4884	-1520	13693	26196	9441	-25148	5788	2872	14954	-19960	-8375	16	128	1
-17920	-18360	13304	7856	8912	3076	-18520	-5608	-7692	2957	16321	-5976	-20024	2932	1652	8269	12538	3369	-20580	7040	15840	6364	32767	-28648	-23504	11288	-8684	9509	23780	6820	-25792	12916	-9676	28802	-29402	-5240	0	76	1
-10160	-1564	15892	5910	4564	3197	-16560	-1440	-8804	4882	13513	-4683	-8684	436	-8952	-12814	5157	2100	-22196	5964	19044	5697	32767	-28780	-18288	7588	-11292	-2525	19096	5683	-23804	9076	-13304	15770	-28574	-2215	0	43	1
-10024	-5588	14036	5824	4596	2715	-16148	-36	-9208	-4414	12098	-2683	-13444	-7204	-5540	-8262	10609	652	-15224	19748	27104	12870	30829	-20171	-12776	5824	-11036	-6913	11735	3290	-24964	5856	-10520	-645	-27226	-330	0	42	1
-7896	-4552	13860	2694	2125	1496	-19508	2964	-6740	-6912	9267	-2750	-19192	-1288	-6340	-6733	10575	2270	-12224	16084	9324	436	11557	-16726	-6800	8172	-13332	-1013	4733	-121	-22596	6808	-3048	-11437	-26379	1357	12	24	1
-8552	-3824	13820	1377	2103	607	-17276	-2576	-6024	-2303	8339	-1709	-17776	540	-3160	-6005	9142	4969	-15412	14292	26016	-4001	-27510	6813	-3884	7628	-12116	7799	445	-2138	-20412	5904	-1808	-6913	-22102	2547	40	33	1
-8388	-4140	13808	834	2272	571	-17172	-228	-5432	1835	6968	-1919	-17412	-3644	-3708	-6039	10588	8425	6228	11732	14396	-5334	-32768	16103	-7916	-328	-2820	4535	-8972	-3420	-22412	3588	-3044	-1179	-19749	1492	59	44	1
-8672	-4972	13180	250	2140	283	-17256	1212	-4532	-2286	6008	-1283	-15552	-4248	-4380	-4145	10104	7853	4428	6524	8456	-7730	-32768	17037	-6968	3012	-4932	396	-17153	-4830	-18272	2816	-5580	1164	-17107	1192	70	33	1
-8300	-5344	12720	-58	1820	310	-16072	-772	-3460	-4907	4996	-862	-15840	-4804	-3416	-135	10958	6775	1620	1696	8420	-7845	-32768	14912	-3844	4104	-6404	-9305	-23156	-5479	-13960	3564	-6276	-809	-15274	842	79	42	1
-8072	-4584	13212	-211	1807	512	-16704	-956	-2704	-2396	4718	-821	-16724	-4052	-1756	4436	11541	6340	-4764	-272	9432	-3223	-32768	13711	-1304	2888	-7540	-11477	-28079	-8067	-10224	4864	-7588	-4185	-12162	787	77	49	1
-8460	-4128	13160	-534	2109	445	-17352	304	-3032	973	4287	-250	-15268	-236	-808	6235	11875	4977	-4984	1116	10600	1820	-32768	13183	-3196	172	-7856	-6441	-32069	-10387	-8012	4780	-8600	-6520	-8327	953	78	54	1
-8760	-4064	12808	-555	1963	400	-15468	1108	-2988	1008	4530	-122	-14396	136	-832	3255	12089	4451	-7904	3272	12564	3642	-32768	13581	-4804	784	-8800	-1076	-32768	-12898	-7024	4856	-9140	-9235	-4885	939	80	61	1
-8848	-4100	12092	-199	1383	515	-14036	20	-2720	-2569	5473	-420	-14960	-1420	-264	-1370	11979	4219	-12824	4496	15260	4128	-32768	15368	-7756	2676	-10484	-1950	-32768	-15503	-6404	3960	-10444	-10570	-1751	1170	82	62	1
-8380	-5520	12764	-9	1066	1094	-16196	-512	-1424	-2585	6614	-1353	-14476	-3768	1104	-6662	10955	4573	-13992	4284	18244	5335	-32768	18246	-9380	2832	-10884	-1771	-32768	-17064	-5056	1856	-11288	-12667	619	1830	84	65	1
-8516	-4968	13184	72	1598	1683	-17824	460	-2240	-1789	6700	-1325	-16540	-3052	568	-4332	12696	3688	-14852	2884	19800	8129	-32768	19081	-17688	540	-13032	-2348	-32768	-19456	-5556	1404	-10904	-12877	2171	1020	82	75	1
-8656	-3836	13140	-112	2072	1714	-15332	1508	-2224	-2767	6971	-915	-15140	-1768	-472	-1750	14025	3459	-21848	2736	25432	13903	-32768	15537	-21760	-284	-12172	5639	-32768	-21782	-7972	1316	-8552	-16631	832	-735	75	97	1
-8872	-4220	12620	-115	2090	1273	-14264	-48	-948	-1851	8366	-811	-14196	-4184	-1996	-1958	11827	3585	-32768	10804	31844	16983	-32768	11756	-24668	7192	-16012	14613	-32768	-17562	-11916	2232	776	-13474	-5666	-343	79	114	1
-8520	-5124	12852	634	1749	1728	-15400	-1364	-1164	471	9740	-666	-15896	-5892	-1224	-2706	8992	2799	-32768	8720	18924	15108	-32768	12110	-19228	10484	-12516	17071	-32768	-8485	-19360	1304	8248	-4890	-9278	-3036	88	109	1
-8608	-5076	13568	880	2505	2453	-18684	-672	-3116	1265	10636	-254	-17508	-5488	-1472	-2464	6981	2080	-32768	608	5316	13143	-32768	12150	-19648	5180	-15740	2239	-32768	-5398	-17636	-5508	15992	-316	-555	-4355	99	91	1
-8364	-3960	14676	461	4333	2675	-17436	1972	-3112	1007	11152	115	-16524	-4268	-1960	-5333	6034	2072	-32768	-6088	-184	12150	-23379	15438	-19092	2108	-9948	2103	-26236	-4454	-16864	-8824	31944	-6306	2982	-162	103	105	1
-9088	-3648	14476	-60	6853	2659	-16896	1416	-1608	-589	13015	379	-16776	-3508	572	-5801	5163	2890	-32768	-13880	-12696	4808	-11508	14285	-7152	2948	-2900	8791	-10017	-150	-20392	-11240	32500	-11115	2090	608	108	85	1
-8500	-4564	14792	110	9446	3227	-16876	-48	-1020	977	15045	635	-16792	-3324	1040	-5443	5164	2953	-29096	-14172	-13064	-702	3646	3807	-2836	10820	-7040	612	9087	4291	-17852	-416	22264	8268	393	923	118	87	1
-8868	-4928	15520	825	12881	4338	-19072	160	-3112	3185	17004	885	-18612	-6036	-64	-5209	1751	2945	-32768	-5048	-11956	-16225	25139	-9060	-13536	7952	-11592	-12768	20317	6674	-17580	252	11320	14165	1884	284	137	79	1
-9160	-5920	16504	1099	17834	6095	-22068	2928	-3508	3194	18339	1052	-20500	-5152	-1740	-6341	-1163	1849	1220	12836	32767	-8771	16411	2024	-21600	-12264	14020	-13335	17825	3956	-16952	-3408	3508	-1480	3569	-50	152	83	1
-9452	-5236	17844	516	24040	8391	-23296	3656	-1748	-651	20672	351	-24092	-5108	4928	-1879	-3061	1150	-88	-11168	5092	-3398	25936	-3082	-32768	132	-7476	-20796	13886	6418	-13160	7052	-12172	5878	8784	3403	160	86	1
-8428	-7976	20220	-737	32337	11689	-29136	2624	3232	-4184	22815	242	-24396	-8928	11584	2062	-7871	-882	-32088	-6808	32744	-1869	25771	-6560	-15884	-5340	-8836	-15256	16505	5454	-21900	7024	6744	-21340	1263	-427	167	106	1
-9172	-13352	20808	-1202	32767	20050	-32624	7224	5232	-6049	25369	-2016	-25008	-9516	19756	-7440	-21916	-2967	-4636	3452	15428	2570	14468	-9546	-15712	244	-7388	-465	13736	6384	-17312	5176	-4096	-994	8971	2506	180	129	1
-13680	-11128	21528	-474	32767	27621	-30912	7368	2532	-10752	26557	-4047	-23304	-2448	12448	-829	-19090	-2390	-28964	29060	22192	-7994	16562	-9111	-18140	11672	-4708	396	11910	5737	-14416	-5996	-2492	1593	11716	4556	180	110	1
-30628	-8204	22016	-5065	32767	28082	-29148	-1120	-5840	-19558	30297	-1940	-22140	-3564	904	-4399	-22519	-2474	-4876	-6096	18324	-6158	2792	-4499	-18404	6748	-7752	-5469	11321	9194	-16812	9044	-2004	13858	9124	3508	197	104	1
-30744	-11864	17136	-2261	32767	29370	-26196	-8244	-14148	-17270	28727	1585	-21892	-9300	-14608	-4115	-14636	-5857	-13992	7632	14940	-3705	2749	-2594	-16388	-100	-6080	-1713	10234	4717	-17720	4424	-2832	2754	7032	6385	187	100	1
-32540	-16008	20212	-4399	32767	29052	-21840	-7224	-13188	878	21125	3194	-28100	-5776	-10628	6018	-17617	-10023	-7520	6340	15152	-1995	2049	-1805	-16416	-2044	-4128	9115	9331	4936	-14036	2308	-48	6100	8810	5294	204	103	1
3896	-24364	25032	7446	25565	31360	-12920	-6896	-15256	12935	11408	4428	-26192	-1504	-6436	15063	-22228	-10811	-7784	3784	14984	-1308	975	-1083	-16360	5676	-4896	12592	8314	4659	-13532	1792	-204	7466	9265	4548	211	118	1
-25732	-12256	17920	6483	3825	12702	-7660	1272	-17280	18005	3421	2540	-23984	-3032	-4704	18747	-21772	-11557	-7524	5988	14096	-813	1438	-865	-17916	8304	-4960	297	6711	3415	-16224	8668	-1712	8233	9500	1051	202	116	1
-5196	-12660	20224	-1299	-20585	-12144	-3612	1540	-10688	8206	-1492	-18	-22292	-2756	-5668	12247	-19309	-11481	-8084	4364	14672	-612	1765	-361	-17056	2176	-4316	-3529	5642	1559	-17148	6616	-1108	2497	12790	1498	190	114	1
6112	-13556	9868	-872	-25972	-23353	-8816	4224	-3048	5236	-10848	-291	-21436	-84	-6396	3841	-18136	-10203	-8152	5600	14132	-609	1864	-194	-16848	-68	-3064	4136	4958	855	-16224	4160	-1052	1883	13191	1356	185	120	1
3948	-10868	7608	5144	-27984	-24156	-5872	-2672	-5632	1999	-18142	292	-18440	720	-6516	1244	-16127	-10692	-8252	5252	13892	-245	1635	-380	-15836	1660	-2744	8312	4252	1161	-15720	2228	-4	3500	13372	2103	184	114	1
1276	-4208	7652	6851	-29625	-22775	-3156	-3684	-6368	6209	-24997	232	-10900	1132	-6152	1485	-11788	-9713	-8020	5240	14160	229	1643	-475	-16584	3384	-2548	5573	4176	1171	-15752	1976	652	6002	14284	2360	171	121	1
-3164	-1448	8800	3302	-32305	-22512	-1436	-2652	-7992	9713	-31330	1986	-9496	-312	-7884	451	-8637	-8795	-8384	4912	13872	506	1513	-565	-15736	3112	-2300	1562	4038	1101	-15524	2424	1348	6833	14292	2154	152	125	1
-5960	-1848	9900	-1414	-32768	-21952	-2956	-1012	-9312	9222	-32768	3752	-9240	-260	-8008	565	-8250	-8764	-8320	4916	13636	434	1058	-766	-14632	2364	-1068	804	4338	963	-15256	2516	1180	6715	14114	2153	141	127	1
-8328	-2964	11168	-3874	-32768	-20950	-5180	-828	-8360	7230	-32768	5625	-8032	1788	-9168	1498	-1688	-7228	-7460	5760	13920	479	1073	-1218	-16456	800	-76	3444	4887	1282	-15464	2464	1508	3435	12315	2699	135	132	1
-10564	-4288	13448	-5108	-32768	-19629	-7872	2172	-9800	4060	-32768	6031	-6524	3216	-8648	3539	1856	-5256	-8140	5792	14124	489	1466	-1987	-18132	2636	-1796	2177	5128	1899	-16248	1956	2392	2136	12688	2803	135	139	1
-15672	-5316	17112	-6291	-32768	-19180	-11184	708	-11876	122	-32768	6891	-6152	4244	-8816	5900	1193	-3490	-8596	4252	13732	124	1613	-1962	-16980	3400	-2156	2258	5041	1996	-14712	2208	2168	643	15449	3335	138	148	1
-18332	-4412	19996	-9890	-32768	-19124	-16368	7292	-12812	-4048	-32768	7319	-7236	4848	-5988	11863	1638	-1965	-8676	4884	13844	88	1474	-1630	-14408	2708	-1848	2251	6202	1927	-14248	3500	128	-2119	17036	2731	161	176	1
-22928	-3084	22892	-16459	-32768	-16827	-19356	6952	-13052	-17579	-32768	6762	-9144	5660	-2336	12289	547	-815	-8000	5492	13696	-80	1492	-1735	-14748	1456	732	1261	7549	2062	-16328	7272	-4244	-982	10984	2252	229	253	1
-32768	-4692	24548	-21056	-32768	-12896	-19016	6936	-12696	-19843	-32768	6456	-9476	2832	2572	8900	-42	-2391	-7852	5844	14536	-242	2260	-2647	-17096	2524	-588	-280	8890	2314	-18664	4852	-168	-2454	6274	1541	251	253	1
-32768	-3568	18864	-21968	-32768	-9787	-20352	-6124	-13728	-31254	-32768	-5594	-14304	-3760	3892	-2697	-2882	-4919	-8268	4056	14972	146	3853	-2978	-16976	436	-1992	-1409	10080	2655	-16972	1868	5152	-1905	7844	2179	252	253	1
-32768	1060	9272	-20737	-32768	-6312	-22168	1336	-12164	-17869	-32768	-9097	-19196	-6520	11860	-7250	-4582	-4305	-8504	4820	15284	637	6034	-2789	-16892	660	-1340	601	11612	2766	-17556	-188	4588	973	10930	2377	252	253	1
-32768	12028	196	-19267	-25623	-7190	-17652	-844	-9492	-12183	-25177	-7069	-20708	-9532	23892	-3253	-4692	-528	-7692	5192	16080	1430	9376	-3301	-18476	0	980	1437	14006	3085	-19408	-1264	2392	2916	8463	2096	252	253	1
-32768	13628	-10168	-6709	-10720	-6557	-8448	-512	-7016	-6462	-11334	-3298	-14416	-19528	26764	-8182	2207	-2703	-7872	5332	16212	1452	9987	-3455	-18492	-64	728	720	16653	3918	-20108	64	5336	3883	5003	940	235	234	1
-32768	21336	-14252	3655	714	-3021	-5032	-2844	-8616	-269	6797	-1298	-13492	-16216	15984	-12813	3089	-552	-8056	5296	17164	1448	19079	-5044	-19992	-72	-892	-543	19152	4267	-20784	2408	5868	5573	2871	-782	199	219	1
-31408	13708	-5012	6420	13140	1152	-9764	-4420	-13872	13337	18098	812	-13664	-9140	5068	-10725	1195	3510	-8100	5920	17124	2459	25807	-6527	-21380	-404	-208	-281	21317	4369	-21196	2436	3404	8087	1006	-1546	170	207	1
7340	-3172	23668	17700	17471	1045	-12088	-732	-10304	19150	20515	1854	-15316	-1164	192	-14356	7783	4582	-7152	5868	17900	3649	32767	-9533	-24444	-1316	4064	3779	24247	5042	-22540	1212	8468	5347	-4054	-2200	103	187	1
5972	-14312	28708	6900	5622	-6447	-24712	9200	9984	22303	10138	598	-492	5044	-25360	-8968	21755	5565	-6668	16372	20248	2864	32767	-16362	-31656	-6940	6204	5769	26566	6752	-21428	-4844	12296	1851	-8481	-4705	60	176	1
14092	2092	-1888	9845	29543	1424	-28316	4848	6804	22587	7930	1273	-20712	5628	3852	16248	-5867	10050	-8288	12200	20524	3098	32767	-18315	-32768	-6276	4916	9211	28220	8361	-25832	-13692	17200	-9220	-17588	-10425	17	167	1
-32768	15228	32767	12322	27678	13330	-26192	1640	-6152	17736	9696	-42	-32768	-32368	24204	16567	-1795	-959	-28048	15228	22544	5221	32767	-24753	-32132	4404	-740	11269	28601	6288	-25236	5288	6840	12131	-17473	-10112	19	147	1
-29532	-21656	11764	5902	3601	512	-22648	6304	-8356	4806	16123	-2896	-27476	8012	744	11222	14519	2928	-23288	9932	20000	3619	32767	-27045	-25888	13960	-8460	6593	27258	2883	-29264	17772	-9108	32767	-29179	-6342	0	62	1
-2784	5680	16488	6056	7263	4325	-15148	1756	-7124	4209	16968	-7611	-13156	22528	-13124	-3440	21358	1409	-32768	7544	23796	3424	32767	-24901	-20308	8120	-13696	-13252	21059	2792	-22436	13904	-15888	16850	-26830	-1739	0	47	1
-10448	-7352	11996	6063	4327	1925	-13844	-4600	-7952	-387	15502	-4579	-1144	0	-11724	-23632	-87	-1040	-21032	19120	26812	4551	32767	-19416	-10076	8056	-11116	-15613	14194	-1331	-24416	7964	-13096	-6982	-24949	36	0	44	1
-10516	-6748	12704	4845	3112	2857	-18660	-4012	-9568	-4842	12567	-1955	-12940	-13392	-6632	-16180	12967	1783	9156	25240	15228	-15632	9939	-19991	-6864	9492	-10964	-6706	8665	-4950	-22504	11380	-2060	-19419	-22501	1383	41	30	1
-9156	-2304	14284	3044	2149	1910	-18708	2128	-7848	-6640	8988	-2183	-20516	-3308	-7780	-9048	6828	1697	-20396	10992	28904	-17082	-31168	3277	-5088	10516	-12224	1926	3067	-7878	-20960	8484	-2316	-14077	-19761	2262	69	31	1
-8544	-4316	13704	1733	2440	820	-17696	-2124	-7260	-2990	8198	-288	-20960	592	-2488	-4384	8703	5832	5972	9848	14164	-13458	-32768	9548	-7788	3396	-2800	-1565	-5205	-8917	-23312	3128	-2440	-7364	-16575	1467	90	45	1
-8652	-4484	13544	739	2804	79	-17384	92	-4456	-1679	6907	-2438	-16820	-3556	-3968	-6538	10277	9203	7328	7568	7364	-11920	-32768	7058	-9380	4048	-3820	-2517	-15240	-10528	-20356	4000	-5380	-4447	-15369	1206	99	46	1
-8800	-4924	13044	-242	2978	-105	-16808	-864	-3648	-5056	6196	-1476	-15352	-5864	-4140	-5398	8864	7988	1776	3956	6704	-9187	-32768	4238	-3848	4588	-4980	-10171	-22095	-11911	-14408	4360	-6736	-5932	-14531	1313	90	23	1
-8932	-5792	12580	-765	2780	61	-16512	-3556	-3460	-4379	5220	-413	-16748	-7248	-3604	-1265	10756	6170	-4528	7156	6892	-3405	-32768	5303	-2016	3948	-6412	-7798	-25470	-15001	-10484	5716	-7668	-9427	-11019	2409	93	18	1
-8916	-4896	12604	-701	2389	506	-16368	-1692	-3524	-812	5129	-610	-14788	-2728	-2224	3763	11727	4037	-7044	11628	8668	-1550	-32768	8934	-3508	3664	-7560	-1028	-29844	-17432	-9216	5500	-8652	-10863	-7233	2490	90	18	1
-8748	-4304	12616	-753	2232	428	-15572	948	-2548	421	5311	-430	-13628	1080	-528	3387	10705	3705	-10288	12600	9948	-2547	-32768	14472	-7128	5720	-8496	2606	-32768	-17571	-8132	4840	-9292	-13234	-3934	2712	95	20	1
-8216	-5064	12880	-1139	2276	514	-11276	-12500	-2912	-5259	14317	-6443	-15232	-1112	-1284	-1632	10416	4607	-11076	11524	10740	-2786	-32768	20029	-12428	7668	-8472	-6418	-32768	-18250	-6784	3748	-11000	-16103	-2033	2970	99	31	1
-9608	-5080	12256	-901	2514	1501	-13188	1292	-3236	-7776	10479	-2838	-17000	-4088	-1272	-4358	11633	3659	-11660	13152	12844	730	-32768	22889	-12648	8452	-10988	-14522	-32768	-20387	-5148	1684	-11016	-17147	-1525	3271	98	53	1
-9048	-4712	12148	-1363	1999	1201	-14476	1108	-5212	-9054	7007	1726	-14620	-4384	-296	-6265	11706	4000	-13644	12284	13648	1775	-32768	23289	-17228	2444	-12680	-12157	-32768	-20631	-5832	124	-8452	-14394	-1187	780	91	75	1
-9236	-5264	12284	-1053	1923	597	-16396	-1952	-2300	-3643	6763	2862	-14384	-3016	-224	-3305	12368	3426	-31604	14628	26268	12244	-32768	22479	-18260	1916	-13512	3180	-32768	-19430	-9256	-232	-4480	-16231	-1975	-1025	88	98	1
-8888	-4400	12316	-246	2406	1182	-15060	1072	-2292	3667	9341	-800	-13584	-3540	-1672	-2870	12100	3411	-32768	9988	25396	15653	-32768	20353	-21016	5688	-7328	19305	-32768	-14248	-14460	1216	3832	-12170	-7568	-2252	91	106	1
-9328	-4704	12492	9	2984	1314	-17508	1216	-3500	-5894	8039	-2578	-14952	-4248	-3456	-5300	9665	3382	-32768	8464	16828	16752	-32768	13414	-20416	11560	-11736	18255	-32768	-6292	-18072	1820	7232	-1698	-7665	-2252	94	109	1
-9196	-5388	12804	-37	3804	1963	-16896	-868	-2408	-5774	8266	-1123	-17136	-4432	-3724	-6235	7638	3186	-32768	2040	8212	17706	-32768	6528	-19384	6744	-13948	6939	-32768	-2325	-15100	-5188	14592	1102	219	1202	99	119	1
-8916	-5048	13472	-89	4831	2247	-16036	-2360	-1040	-816	11315	-1116	-16884	-6596	-296	-4121	6372	2591	-32768	-4992	-24	20303	-26396	6364	-17900	2436	-9616	12194	-27726	674	-17396	-8372	22372	-8522	1506	3871	99	79	1
-8920	-5576	14052	-188	7067	2860	-18336	-1392	-1504	1084	12719	-587	-17008	-7168	1812	-5770	4851	1480	-32768	-8040	-9536	12489	-10634	9369	-8456	6436	-6212	8443	-13482	3918	-19024	-4380	28944	-3291	-2763	2652	104	85	1
-9108	-5200	14848	61	10580	3870	-19840	1400	-2912	632	13425	-97	-18356	-3284	1740	-7028	4265	1415	-32768	-11160	-12124	-1566	5148	9917	-3800	6620	-9932	-4782	4451	5504	-18756	3996	20884	4649	-3341	2983	112	105	1
-9132	-4428	14688	-460	14548	4578	-19068	2752	-2484	378	15150	-634	-19296	-1912	296	-7866	2677	2223	-17984	-36	608	-9588	18188	11650	-9644	6908	-11440	-11235	16121	5428	-15376	5180	9732	6944	2502	2418	122	118	1
-8820	-5372	15280	-1051	18575	5348	-18964	1520	-920	370	17433	-937	-19316	-4008	1908	-8536	-466	1757	-14104	-8536	14172	-18634	29013	7582	-18736	1152	-4516	-23392	20950	5656	-12264	692	5644	-7442	4074	3481	136	82	1
-9040	-6472	15992	-2032	24189	7187	-21516	2196	-196	-1119	19838	-1535	-21216	-5092	5308	-6564	-2377	282	5032	6444	25568	-9039	23084	9418	-30552	-13832	6700	-24558	10456	1577	-4644	11820	-15548	8720	16983	6546	146	100	1
-9788	-6828	18428	-3804	32167	9395	-26108	4212	340	-2817	22615	-2512	-23216	-9376	10980	-4572	-6551	-1722	-23008	-15568	28904	-7934	32767	-7159	-32768	-8624	2144	-26883	9965	1787	-31280	24	872	-26954	10951	2040	163	121	1
-9880	-12148	20876	-5982	32767	13561	-32768	9524	5892	-6887	24556	-3870	-25296	-9668	13984	-7653	-18190	-3744	-20648	-1316	24940	976	14169	-10123	-17996	-13632	-8820	-7854	16224	4944	-23408	-2356	8136	-29464	8693	-365	172	129	1
-18684	-11720	22216	-9042	32767	19803	-32768	6508	420	-12802	27670	-5899	-25164	-1676	12972	-4332	-23874	-3820	-23932	28108	10400	-4998	9082	-4643	-15508	11008	-8104	12662	15318	8316	-19420	-9300	-440	-5336	13560	-111	179	109	1
-25108	-13048	21884	-10990	32767	22506	-30796	332	-6040	-18618	29416	-5321	-24352	-2748	3300	-4572	-23922	-3698	-7928	936	17908	-4211	3544	-3576	-18140	8744	-8356	-1582	12376	11011	-11316	-480	-10544	17848	8537	5104	181	73	1
-28092	-3688	17236	-8602	32767	26919	-25080	-7156	-14592	-13707	27252	-2241	-21236	-7276	-14720	-9355	-16029	-6305	-8384	5052	15396	-3532	2042	-2379	-15976	2984	-6264	1046	10524	5041	-12928	7056	-7132	22266	6974	7405	205	86	1
-28816	-11696	20280	-20884	32767	20248	-20224	-2212	-9732	-1516	18986	266	-27748	-2452	-11404	-875	-18158	-8253	-7168	6624	13772	-1996	1163	-1721	-17732	608	-5956	5075	8725	4736	-14356	12892	-2948	5245	10170	7738	222	107	1
-912	-20716	25580	-9385	30483	23027	-13144	-3416	-15816	5239	11854	3918	-26140	-1112	-6700	12418	-22014	-9518	-7648	3984	15252	-1035	1455	-1050	-17276	4780	-5976	3416	7319	3457	-16344	4824	-2636	3013	13639	3215	231	159	1
-25600	-25360	23764	1591	-6659	9419	-5920	-1100	-20468	3518	2758	-880	-23592	-5396	-6116	12420	-23588	-8678	-7956	4564	14796	-713	1770	-302	-17052	3344	-4560	-1140	6151	2770	-17776	2440	-1928	5338	11348	1427	220	143	1
3588	-8200	21672	1916	-31345	-7629	-5104	1464	-5960	3173	-3681	-3447	-21940	12	-5888	3682	-20712	-8298	-7404	4608	14784	-361	1766	-79	-16156	528	-2492	684	5774	2324	-16244	5840	-352	4405	11965	134	192	108	1
10116	-6320	13044	-1064	-31182	-12774	-10560	5744	-2124	6727	-13588	-2743	-19140	772	-6688	1184	-18967	-9024	-6876	6976	14396	-200	2051	-586	-17728	1952	-1692	5518	5198	1822	-15508	7008	-1016	3257	14672	1109	184	125	1
5332	-5084	10764	-2273	-31193	-15261	-5236	1344	-4776	2749	-20614	-759	-15656	224	-7076	-497	-17173	-9312	-8056	5376	14196	-83	2088	-1147	-16456	5324	-3336	2968	4232	1437	-16896	6412	-1380	1222	15613	2858	184	132	1
-352	-3544	11604	-1315	-32768	-16178	-2044	1684	-5976	24	-26809	-535	-10816	696	-6820	-1138	-12683	-7938	-8012	4832	14240	515	1943	-1294	-16296	5240	-3612	1904	4156	1397	-16316	1216	-160	1303	15635	3672	161	136	1
-3864	-2488	12484	-397	-32768	-16902	-3140	376	-7432	-1884	-32539	1717	-9980	112	-7968	-2947	-10729	-6263	-7832	4924	14300	681	2016	-1427	-15888	-340	-2396	1117	4337	1280	-14924	-340	1400	1431	13625	2334	162	168	1
-8412	-1332	13628	-1211	-32768	-17219	-6148	196	-8608	-1063	-32768	3212	-7936	-356	-8748	-720	-7581	-6086	-7864	4864	14080	398	1732	-1420	-14924	832	-1472	3961	4749	2175	-13412	172	2052	1777	13034	2434	225	253	1
-11984	-2164	14644	-3369	-32768	-17510	-9316	340	-9840	-1319	-32768	4748	-8072	956	-8856	2890	-3261	-4404	-7920	5480	13992	129	1729	-1669	-15716	2848	-804	2671	5425	2355	-15164	2268	1184	1444	15456	1974	239	253	1
-13624	-4020	17180	-5355	-32768	-16562	-12164	1048	-10780	618	-32768	6142	-7420	3032	-7836	6264	-923	-2446	-8116	5044	14112	60	1667	-2086	-15676	2640	-1224	543	6169	2057	-17168	4344	188	701	14129	1910	235	253	1
-16604	-5516	21168	-7194	-32768	-16252	-15636	2384	-13256	-1185	-32768	7703	-7240	4224	-7120	8930	-98	-485	-8284	4704	14176	-39	1577	-2118	-14816	1356	-1368	1265	7289	2031	-17404	5960	-2576	-691	9110	2783	214	253	1
-22368	-6636	24124	-9913	-32768	-16310	-16208	2940	-13632	-1630	-32768	8119	-7944	5164	-5076	13250	-1388	841	-7500	5056	14392	-279	1852	-2020	-15236	1556	-580	1438	8546	2107	-16824	4088	-1564	-1672	6429	2117	202	253	1
-31080	-5832	24984	-13915	-32768	-16529	-17724	6180	-14088	-21768	-32768	6053	-7252	5920	-2496	12476	-1616	784	-7552	5252	14812	-450	2917	-2790	-17832	2552	-3060	-1433	9120	2231	-16792	3304	1796	-2425	7362	2016	195	249	1
-32768	-6060	21660	-14893	-32768	-17299	-22112	-1284	-13800	-30790	-32768	804	-10308	1112	472	8601	-2633	-2802	-8324	4676	14704	-702	4420	-3082	-16944	1100	-3948	-1059	9366	2150	-15232	2064	380	22	9572	2697	194	233	1
-32768	-2472	11772	-11759	-32768	-12404	-25416	-1140	-12780	-20107	-32768	-5455	-19092	-8544	10192	3181	-6699	-6000	-8076	4576	15380	-135	6240	-3115	-15640	564	-1404	949	10631	2525	-16556	2608	-552	2687	10833	2553	206	216	1
-32768	10380	-2756	-11826	-31558	-7061	-18080	-2792	-14772	-14201	-30324	-4519	-23268	-11544	23260	1908	-4410	-2211	-7636	4480	16228	242	9374	-3567	-18576	224	564	642	13103	2716	-20012	1576	4188	806	8775	2747	220	201	1
-32768	16324	-17232	-8644	-17526	-6428	-6876	-2804	-9976	-85	-14674	-2015	-12856	-16796	32767	663	1246	-845	-7764	4612	16572	253	13158	-4242	-18396	36	1664	-986	15879	3199	-20680	-1032	8756	1545	5657	2273	209	188	1
-32768	23068	-22532	550	-2109	-4754	-1332	-3272	-12700	2456	7407	-311	-15116	-12100	19748	-13306	3106	2714	-7764	5732	16792	32	17931	-5387	-19180	152	1748	-1459	19045	3816	-21212	-68	7812	4804	4383	-122	191	181	1
-25436	10744	-7392	11274	13542	2086	-9880	-5408	-16384	11604	21150	614	-11588	-2464	3720	-17961	447	6800	-8272	6940	17864	-350	24128	-7606	-21860	-40	396	-1095	21953	4635	-21408	1532	4684	8089	1002	-1382	152	177	1
-9948	-9460	24156	11417	13032	7500	-17292	-3572	3632	17698	18535	-441	-7112	-5264	396	-29562	4683	4836	-7772	6608	19544	35	32194	-11349	-25224	-1208	-228	2371	24111	5785	-24424	1744	8120	7849	-4010	-1898	101	164	1
-4412	-15632	32767	9137	9389	5125	-32768	20072	7400	29782	7582	-250	-11448	9592	-7160	-12330	7544	4908	-8000	15856	21492	-1065	32767	-17705	-32768	-4156	5796	6267	26413	6281	-24856	412	14304	1460	-10273	-3138	30	153	1
-32768	10004	31776	6133	32767	12156	-21116	7680	-6496	7868	12092	3561	-32768	-21744	16236	13464	-8757	1929	-16288	13124	23032	-558	32767	-27008	-32768	-2952	4952	8165	27044	8073	-26724	-8048	11840	-413	-15606	-8019	24	148	1
-24528	-2468	23404	3627	15589	13960	-13056	-2652	-8700	-4605	19638	-2796	-24844	1224	3516	3810	7316	2027	-25732	12280	23236	2188	32767	-28858	-31528	3708	-2616	8683	27449	8406	-25328	1576	4648	6330	-20676	-9605	1	135	1
-20356	-19852	11012	8153	6517	4135	-19740	-7376	-10672	-1452	17749	-7659	-16520	18788	-9760	-2341	20377	4135	-23520	6764	17868	4341	32767	-31230	-24400	10432	-6184	7901	26207	4894	-24952	13272	-5224	24811	-26243	-5330	2	125	1
-10240	-3400	14928	4739	4159	2216	-16292	-1280	-8864	8230	14356	-3205	-8240	1164	-11932	-14548	5394	2810	-32768	11408	23364	8585	32767	-26461	-19552	8564	-12156	-4301	21626	4992	-21952	12036	-17212	23281	-30862	-1198	1	132	1
-9528	-2368	15216	5034	2890	2741	-14504	-1136	-8804	-2816	11865	-2463	-11680	-9924	-6188	-6888	8269	833	-13740	24436	26284	2058	28923	-26989	-12532	9676	-9992	-6967	14145	2771	-24956	4284	-12736	-1587	-26701	852	33	127	1
-7868	-5580	13880	2407	2362	1532	-20372	2712	-6676	-6805	8850	-2076	-19920	-3400	-7344	-4465	12089	2671	-992	19880	10520	-12825	13852	-23038	-7080	6700	-12916	-7734	5480	763	-24036	6936	-1828	-12994	-26106	2218	98	114	1
-8428	-4164	13652	1484	1886	1026	-18168	-2284	-5564	-2450	7491	-1678	-18636	3064	-1412	-4132	9007	5512	-16540	9264	26032	-4020	-21374	7994	-3600	7064	-13620	1127	200	-988	-19640	8016	-2748	-8598	-22043	3007	31	5	1
-8316	-4228	13800	572	2471	617	-17224	616	-4796	1755	6447	-1861	-17292	-2748	-2048	-7132	10138	8208	5836	16184	13604	-1386	-31570	21804	-7380	-916	-2692	1436	-6968	-3817	-21724	3980	-2704	-5096	-18485	3080	33	0	1
-8764	-5300	12988	7	2601	265	-17300	1392	-3772	-4103	6334	-1312	-16036	-4600	-3584	-6851	9845	8134	4824	12000	7840	-7799	-32669	21902	-7296	3676	-4272	1510	-15589	-5869	-19024	2544	-4916	-1903	-16918	2722	51	0	1
-8852	-5620	12512	-73	2036	531	-16200	-2552	-3220	-7800	5278	-1210	-15272	-6160	-3856	-3874	10604	7033	588	2820	7600	-11265	-31778	18852	-4552	6464	-5776	-7725	-21980	-6456	-14000	1544	-6052	-2029	-15456	2285	56	0	1
-8420	-5696	12444	242	1653	1037	-16028	-2924	-2640	-4268	4959	-850	-15692	-5220	-2316	336	11635	5929	-4752	-560	9328	-5234	-32768	17120	-1804	4496	-7208	-15309	-26971	-6527	-9604	4428	-7052	-4926	-12307	2395	59	1	1
-8472	-4468	13116	-23	1897	939	-17076	372	-2776	532	4829	-139	-15352	-2480	-276	4165	11639	5058	-5708	1768	10728	760	-32768	15944	-2096	1644	-7452	-12863	-30240	-10151	-7280	5104	-8048	-7344	-8637	2686	62	11	1
-8756	-4104	12888	-301	1952	749	-16180	1764	-2848	519	4986	112	-15204	-352	-288	3842	12047	5089	-8072	3616	12416	2510	-32768	15032	-4672	1684	-8968	-5239	-32768	-12583	-7236	4964	-8536	-9725	-5267	2416	66	28	1
-9024	-4096	12384	-465	1702	607	-12968	-4308	-5112	-3658	7717	-273	-14176	-712	220	-1555	11967	4820	-10016	2376	13992	4220	-32768	16244	-7208	956	-9428	-3179	-32768	-14863	-6820	4440	-9424	-11652	-2095	2310	71	38	1
-7548	-5564	11932	-487	1225	1016	-16384	-2336	-728	-11218	355	-1984	-14828	-4220	420	-7452	10449	4870	-13284	4848	16456	5980	-32768	18518	-10680	3188	-9284	-4753	-32768	-17062	-6248	2952	-10544	-12759	153	3087	74	48	1
-8600	-5648	12752	-558	1528	1256	-16836	304	-1724	-9557	5338	2042	-16300	-4696	1064	-5123	11267	4159	-13860	6488	18936	6257	-32768	19436	-16440	372	-12668	-4348	-32768	-18552	-5956	1292	-10836	-13121	1720	3156	75	51	1
-8896	-4280	12824	-137	1167	1139	-15896	-2244	-1792	9852	12002	-2202	-15296	-3396	-80	-717	13249	3289	-17472	3996	24180	10189	-32768	18525	-22564	-536	-12076	2702	-32768	-21833	-8140	1256	-8732	-13792	1303	1098	67	71	1
-9032	-3868	12360	137	1916	1052	-14496	2080	-1852	5130	9742	-204	-13816	-3684	-1132	-1144	12010	3543	-32768	10140	31564	15591	-32768	14069	-25384	5824	-16552	14143	-32768	-18448	-12216	1556	-1428	-14098	-2936	960	67	95	1
-8728	-5300	12916	321	2443	1670	-16588	1748	-1880	-4332	9706	-1694	-15012	-4468	-1220	-2635	10470	3694	-32768	8592	23476	17948	-32768	11814	-22388	7756	-8228	17144	-32768	-9541	-19136	1780	7480	-9498	-11399	140	77	102	1
-8716	-5200	13476	281	3301	2241	-18784	-1924	-3996	-3807	10477	-466	-18172	-4496	-2288	-3688	8325	3292	-32768	5764	7628	17830	-32768	10609	-17996	8508	-11116	7489	-32768	-3879	-22044	-3000	10516	976	-5864	-3145	88	99	1
-8712	-4940	13688	-38	4740	2648	-17896	-372	-3472	2437	11435	-38	-16848	-4568	-2780	-3338	7528	3076	-32768	-6332	3752	17256	-28641	11903	-20876	1220	-11576	4616	-29180	-2495	-18164	-8464	30704	-7998	604	-2687	95	117	1
-9016	-4164	14456	-407	6860	2746	-16452	576	-1616	1645	12771	542	-15912	-5284	124	-4306	5746	3430	-32768	-15380	-6588	12186	-16204	12941	-10720	3868	-4280	16522	-16120	329	-18896	-15032	29992	-10154	-80	1563	96	75	1
-8848	-5244	14568	-500	9602	3243	-17748	720	-412	22	14615	1043	-17088	-5084	2144	-4214	5478	2995	-32768	-18540	-17344	714	-4388	1855	-1588	10160	-7936	4146	3002	5797	-16868	-5356	25920	9719	175	3049	100	67	1
-8648	-5328	15420	108	13346	4816	-18956	1836	-1308	1545	16978	525	-17312	-4704	2160	-4274	5175	2935	-32768	-660	-7552	-18285	19125	-6620	-9720	7812	-15268	-9729	16158	7702	-15448	3388	12792	19587	-92	1224	117	92	1
-8664	-5628	16504	222	18428	6006	-20696	3732	-1188	2346	19369	328	-20196	-2900	3024	-6163	-1249	2540	-10376	-13864	26032	-20190	18169	-4262	-15848	-2404	112	-10109	22555	5299	-13016	-1732	3972	5598	3232	16	138	84	1
-8636	-6012	18544	-522	25093	8217	-23008	4932	-452	453	21749	-467	-23344	-3368	6884	-3413	-5228	693	-9920	-5032	32767	-15736	16756	388	-32768	-8616	2544	-15770	11836	675	-7140	12540	-14340	9197	9776	5851	156	99	1
-7540	-7588	21364	-2469	32767	11038	-30736	4348	3436	-3099	25022	-628	-26056	-9712	15136	-847	-9311	-638	-21604	-13596	32296	-5372	32767	-6250	-22168	-9212	-8936	-31064	15241	4170	-30732	6104	-40	-23654	9743	-1196	165	103	1
-7656	-13232	21088	-4236	32767	19263	-32768	9952	4960	-7656	26853	-3036	-26640	-11300	20960	-13815	-22909	-3345	-14916	2672	21064	-558	15515	-9910	-16180	-468	-8132	-855	17502	4345	-22184	4432	3796	-18459	8463	22	172	150	1
-20284	-13112	22752	-5140	32767	26358	-32560	7412	3244	-15330	27968	-4425	-26312	-3344	11456	-826	-19983	-1390	-23388	19812	14612	-5868	9453	-4342	-16912	12900	-9836	4318	15347	7755	-17084	-6540	-1800	-4627	12598	3792	184	121	1
-32568	-15164	24088	-9130	32767	26982	-30428	-5964	-8000	-20969	31851	-1549	-22364	-5604	-4820	-4778	-22361	-2461	-7644	1216	17204	-4258	3451	-3358	-17228	3000	-7080	-5004	13020	7577	-13080	2012	-9260	17780	8672	5481	182	109	1
-23904	-6688	16316	-3327	32767	32767	-25768	-9096	-15476	-11720	25634	2503	-23964	-10400	-14204	-3847	-12687	-5995	-9800	3460	15880	-3240	2531	-2444	-15680	800	-5308	4098	10410	4955	-14916	6668	-4568	13746	8329	6074	192	83	1
-24456	-14396	20460	-14583	32767	27356	-18504	-7088	-7484	5135	16363	6155	-27732	-1428	-11896	8001	-19967	-9138	-8296	5928	13476	-1770	2107	-1926	-15732	1172	-5480	5331	9935	4919	-14720	6164	-1784	5362	9195	5674	214	94	1
5212	-25912	28012	-691	29522	28765	-12964	-7572	-14304	11823	7589	6301	-27824	-1624	-11732	10170	-21009	-9478	-8044	2960	15340	-727	1616	-777	-17320	5304	-5676	6657	7582	3286	-15712	3464	-1588	10889	11342	1772	222	129	1
-21692	-23796	21328	4650	-6464	8379	-6268	-460	-21368	11207	168	2457	-21976	-3460	-6260	15894	-21209	-10958	-7536	5396	14084	-596	1456	-307	-16540	6060	-3676	717	6660	2827	-16016	3536	-1320	11635	10906	1465	218	127	1
-1540	-13524	19192	6625	-31804	-11885	-3236	624	-6852	6525	-4207	-131	-20472	-1572	-5716	7370	-19247	-10951	-7276	5512	14368	-764	1826	-490	-17272	2588	-1940	378	5586	1409	-16872	8380	-756	8654	12755	418	205	112	1
4288	-10224	10264	6266	-32768	-19774	-8472	3488	-2772	7381	-13010	420	-18076	-956	-7668	4260	-16778	-10843	-8112	5852	14304	-713	2019	-914	-16968	2080	-2824	4940	4994	1136	-16456	7132	-844	5419	13707	1935	197	119	1
6792	-6168	7300	6527	-32768	-20417	-4948	-1532	-4716	3282	-20827	1848	-14868	-2156	-6832	3604	-15454	-10799	-8248	4728	14140	-338	1579	-809	-15424	2960	-3328	5626	4559	1260	-15280	4092	-472	3421	14718	2997	187	122	1
1684	-3340	7352	4473	-32768	-19080	-3428	-1412	-4180	6037	-27177	3055	-11628	-1216	-7456	2805	-12063	-9002	-8072	4472	14360	51	1469	-769	-15264	3624	-2636	1397	4508	1101	-14680	1896	-44	3635	14363	2289	168	128	1
-2888	-3868	8356	1591	-32768	-18154	-3812	-1896	-7456	6644	-32768	4324	-9936	-288	-8244	2628	-8448	-7785	-7972	4584	13956	166	1292	-821	-14988	1316	-1612	663	4718	1008	-14728	1636	1064	2651	12307	1672	145	134	1
-6724	-4808	10544	209	-32768	-18021	-4728	-384	-9196	5644	-32768	6305	-8204	1028	-8796	5999	-3504	-7882	-7544	5304	14112	-81	1060	-1226	-15448	712	-852	3396	4982	1684	-16332	2060	1492	2052	11366	2358	138	140	1
-10708	-4924	12964	-1394	-32768	-19001	-9104	504	-9472	6107	-32768	7843	-8392	2076	-10056	7288	-961	-6435	-8256	4680	14112	-107	1051	-1551	-16692	2920	-2672	863	5216	1833	-15200	2312	1504	2699	12718	2998	127	151	1
-14676	-6312	15616	-3185	-32768	-20892	-9820	608	-11532	3638	-32768	9012	-7008	3928	-9108	9668	381	-4563	-8248	4564	14008	-108	1039	-1573	-15396	1576	-2584	1655	5552	1729	-15220	2580	1392	1738	15388	3952	141	173	1
-17204	-8412	19300	-4382	-32768	-22402	-12516	2312	-12216	877	-32768	9858	-7296	4788	-8312	12784	943	-2524	-7876	4444	14004	-237	825	-1464	-13960	600	-376	4318	6447	1964	-14192	2844	248	979	16414	3601	187	227	1
-20480	-9092	22472	-6135	-32768	-23080	-19664	7220	-14728	-7543	-32768	10371	-8168	6268	-6024	15084	817	-912	-7544	5876	14388	-559	1078	-1966	-16292	4176	-544	2770	7350	2264	-16712	5744	-1424	422	10536	2358	241	253	1
-32176	-8712	25588	-10072	-32768	-21922	-19780	4732	-14644	-16042	-32768	8239	-7204	6372	-2268	12393	530	182	-8020	5136	14816	-359	2186	-2837	-18352	3644	-2824	-914	7787	2022	-18532	6528	-2748	283	5983	1823	250	253	1
-32768	-7440	23008	-14886	-32768	-22063	-19748	-1992	-14608	-25307	-32768	1088	-10580	1984	1612	8365	-621	-2166	-8004	4592	14892	-516	3516	-3037	-15776	-604	-2752	328	8543	2148	-16396	3052	-1212	2172	7882	2708	252	253	1
-32768	-6144	11952	-14669	-32768	-17878	-22316	-3548	-14528	-25025	-32768	-121	-20432	-5200	9228	6847	-5107	-4914	-7828	3880	15404	-206	5121	-3077	-16192	764	-572	3589	10066	2731	-16768	1692	4028	2573	10671	2948	252	253	1
-32768	8504	-1752	-14664	-32768	-11858	-19868	2052	-12760	-11138	-30981	-6253	-24836	-8592	22852	8005	-3636	-1320	-7420	4848	16260	80	7929	-3285	-17940	2628	1164	866	12465	2843	-18928	1204	6244	2528	8954	3221	252	248	1
-32768	16768	-15656	-12829	-15113	-9456	-9792	-2652	-8412	-6783	-15071	-4409	-15480	-13812	32767	3718	-1289	-1959	-7512	4788	16848	-20	11655	-4065	-17796	916	832	-1492	15060	3180	-19968	-580	5808	3685	5738	2385	229	231	1
-32768	18160	-20912	663	-22	-2824	-1284	-6696	-10408	-1096	6831	-2208	-16100	-13816	20728	-15166	3651	130	-8256	5092	17004	-280	16107	-5039	-18764	-460	948	-206	17986	3767	-19836	-40	5840	4130	5291	1937	194	217	1
-27444	6684	-4720	12947	13513	3684	-9628	-7540	-16592	12162	20040	-347	-12340	-7564	5352	-16441	-689	4411	-7956	6376	17364	-607	21516	-6701	-20416	340	716	660	20712	5010	-20840	3708	3380	8170	1315	-1125	167	202	1
-19512	-516	16512	19044	18314	7401	-17632	-2016	-2468	21956	19116	314	-13680	-2112	2420	-23865	4574	4064	-8380	6356	18952	-561	28899	-9755	-23752	-128	-1712	916	22872	6102	-22932	1380	6440	7968	-3203	-1071	120	190	1
14364	-13744	22912	3137	14766	-6923	-32768	20784	10932	32767	9063	637	-9984	7572	-14804	-13695	13889	1730	-7332	10316	21892	2	32767	-14259	-32548	-4284	3388	4352	24852	6592	-27412	1796	15140	4935	-7920	-2318	65	176	1
-19624	9348	22404	10855	32767	4998	-22416	12604	-5392	17955	13545	1910	-31652	-13068	18244	19480	-13877	2984	-9832	10796	22660	406	32767	-23164	-32768	-3948	5152	7776	25858	8700	-26852	-5692	12144	2036	-12072	-6638	31	169	1
-21500	4716	22804	-47	17537	10090	-9624	3960	-11684	3630	17023	-435	-26108	-2484	492	9401	9347	3245	-21728	11584	23284	2765	32767	-27853	-32768	-768	2104	11910	26277	9772	-24640	-6448	8836	559	-21618	-11459	1	147	1
-26892	-32768	8336	3120	7744	-1063	-18436	-924	-11528	-2049	15437	-6146	-16968	22368	-2808	3902	19436	4867	-27512	11500	18964	9162	32767	-28686	-26384	7724	-3500	13244	25791	7783	-24204	6104	-1100	17085	-24311	-7047	0	62	1
-5060	12760	18800	6391	4001	3997	-20684	-4004	-10564	4745	12483	-6808	-11988	420	-17428	-16294	6027	3960	-30028	5728	16708	8527	32767	-28264	-20228	11164	-13752	5177	22372	6389	-22576	12588	-10700	32648	-30838	-4127	0	48	1
-12352	-9288	12260	5193	3196	1692	-15464	1592	-8276	-269	10488	-3516	-12468	-8868	-4196	-5838	9725	9	-30664	14196	23932	13838	32767	-25363	-15368	8384	-10768	-2951	16825	5041	-25104	9872	-14528	13734	-26479	-918	1	51	1
-9328	-5648	13648	1634	2492	1117	-19360	2592	-6480	-7149	8884	-2420	-18756	-4188	-5088	-4900	12466	1313	664	24180	26740	697	20488	-25185	-10156	8980	-10300	-3871	9549	2215	-25060	6696	-13276	-2091	-25520	1992	0	32	1
-7396	-3604	14108	1393	2083	768	-17372	-3884	-4324	-4978	7945	-2168	-16908	1676	-2384	-4971	9270	4181	-31840	17508	24840	-6661	-4455	-5945	-6660	8872	-21940	-853	2183	365	-20852	7264	-3324	-13396	-25897	3585	39	22	1
-7668	-3992	13920	1214	2051	661	-17048	-788	-3644	2476	6971	-2222	-16416	-3492	-1444	-7163	9771	7359	-3480	13280	18364	-6989	-29769	17540	-4576	1700	-6620	1268	-3861	-1054	-21132	5116	-404	-11204	-22758	4140	65	35	1
-8200	-5400	13276	387	2474	542	-17928	2088	-3512	-1434	6509	-1555	-15984	-5032	-2452	-5188	9326	7727	5644	10156	9960	-9584	-32768	21804	-8932	-536	-3228	110	-10052	-5004	-20988	2788	-3312	-3633	-19782	2990	81	44	1
-8664	-5668	12824	318	2230	731	-16212	-732	-3276	-7456	5505	-1187	-15376	-5172	-3724	-3142	9547	6878	4528	3152	8080	-10951	-32754	20318	-5296	4780	-6364	-5927	-19272	-4532	-16960	1720	-5712	-1966	-16810	2119	81	42	1
-8320	-5152	12808	101	1873	866	-15936	-2512	-3088	-4960	5312	-1413	-16116	-5196	-2020	372	10861	6340	-2448	-1396	8760	-6216	-32768	18139	-2232	2884	-6516	-13803	-24909	-7064	-11984	4188	-6848	-3957	-15041	1751	72	19	1
-8088	-4776	13112	-166	1899	513	-17300	-404	-2588	373	5000	-413	-15232	-2640	-460	3267	11635	5833	-3720	-676	9996	64	-32768	15929	-1784	1416	-7840	-13461	-28706	-8848	-8140	4516	-7476	-6991	-11510	1302	74	24	1
-8312	-4716	12924	-398	2012	579	-16748	928	-2668	1030	4602	41	-15208	-580	-280	3533	12371	5502	-5376	2120	11136	2146	-32768	14138	-3204	232	-8056	-7114	-32478	-11455	-7036	4552	-8080	-8911	-7882	1208	75	33	1
-8544	-4764	12640	-376	1841	876	-15260	808	-2600	-475	5034	-650	-15112	-568	-384	3210	12551	5512	-8568	2464	12624	3171	-32768	14060	-5788	1348	-8888	-2846	-32768	-13576	-6872	4256	-8772	-10985	-4208	1541	75	54	1
-8548	-4412	12000	51	1551	823	-15244	788	-1592	-2846	5937	-934	-15276	-3224	364	-4211	12478	4886	-12288	3836	15372	4875	-32768	16145	-7412	2824	-9616	-1326	-32768	-15841	-6212	3352	-9884	-11719	-910	2324	77	66	1
-8048	-5692	12844	-240	1595	1216	-16456	-64	-1604	-2003	6923	-1216	-15072	-4364	1188	-3876	12300	4962	-14736	7156	18496	5002	-32768	18374	-11464	3912	-11384	-3334	-32768	-17588	-5256	1168	-10496	-12867	710	3442	77	78	1
-8580	-4808	12992	-341	2060	1778	-17272	-36	-2316	-1816	6950	-839	-16036	-4040	-68	57	14454	4441	-17032	3648	20472	7410	-32768	19796	-17664	964	-11956	-2302	-32768	-20635	-6816	1988	-9852	-12026	1168	2179	73	93	1
-8616	-4844	12676	-184	2444	1839	-15572	-284	-1796	-1272	7502	-495	-15188	-3280	-2256	-97	15063	3125	-22888	3812	24668	14425	-32768	15932	-21704	-1120	-11040	10515	-32768	-21554	-9160	1388	-5748	-13044	-127	412	71	111	1
-8768	-4880	12688	-138	2483	1720	-14412	820	-1628	-761	8775	-549	-14764	-3716	-4072	-826	11248	3086	-32768	11524	29780	17405	-32768	8563	-27100	8764	-14376	17765	-32768	-13520	-14736	1292	2852	-8957	-5233	505	79	122	1
-8800	-4784	12892	242	2660	1709	-15952	580	-2580	-745	10158	-450	-16180	-3256	-1556	-1022	7434	2875	-32768	7160	17880	19656	-32768	7223	-19216	9840	-11728	17394	-32768	-5812	-21256	-1084	10540	-658	-7729	-1064	89	124	1
-8736	-5568	13500	246	3604	2431	-18852	-436	-3284	68	10700	-136	-17672	-3376	428	-4134	6576	3113	-32768	-240	6044	20220	-32768	7886	-18580	5052	-13016	4843	-32768	-2452	-19056	-3688	19396	-1120	1254	-2661	99	96	1
-8448	-4804	14364	94	5244	2924	-17044	1096	-2320	-20	11396	-80	-16956	-3920	-336	-6354	6557	2871	-32768	-9176	472	16936	-22649	12420	-18636	1056	-9976	10587	-24567	-1316	-17276	-3200	22656	-3915	2358	-2668	103	96	1
-8732	-4588	14788	-206	7791	3163	-17372	488	-1416	-1045	13531	422	-16976	-4964	584	-6178	5948	2892	-32768	-13780	-12448	5594	-10265	11205	-6920	5384	-4156	12412	-8360	2122	-19796	-11676	29516	-5809	2	986	109	86	1
-8732	-5428	15272	-384	11085	3959	-18536	2032	-860	336	15285	754	-18380	-3884	1296	-4083	5393	2752	-32768	-17992	-14496	-1440	4740	1402	-2304	9208	-10104	-1834	9514	5951	-16512	2760	20604	16984	418	1512	115	99	1
-8444	-4804	15516	-154	15251	4914	-18704	2896	-780	1026	17850	611	-19848	-5184	2592	-6473	874	2843	-27320	-6360	-8888	-24329	24726	-6764	-12496	4876	-11816	-14965	19985	7355	-14288	2852	7820	16355	4845	1758	135	92	1
-8664	-6104	16484	-357	20993	6281	-21916	2872	-1620	1364	20305	752	-21012	-4152	3668	-6120	-3346	1258	4372	15292	32767	-11050	17804	7738	-23932	-14004	13056	-15456	15854	1337	-9504	1260	996	-8023	4504	3363	146	89	1
-7628	-5960	19144	-1246	28312	8793	-25172	3428	-1468	33	22910	705	-24176	-6168	9192	-1285	-6810	20	1452	-22720	9544	-8622	31661	-3465	-32768	1764	-4784	-27235	12637	5763	-16340	9080	-13832	1912	11577	2585	155	110	1
-8240	-13192	20504	-3063	32767	13213	-32768	7212	6424	-2875	24641	582	-25760	-10820	11864	-900	-12686	-2293	-1904	-20880	14108	-10663	32767	-5752	-17156	-8996	-9656	-16570	17572	4057	-29504	8120	18968	-32768	-449	-2974	171	148	1
-12068	-12224	21540	-3341	32767	23404	-32768	8404	5632	-10260	26641	-2999	-23500	-6904	13892	-7564	-23442	-4099	-30924	-5396	30864	-563	17141	-10281	-14300	4828	-5740	4563	14507	6120	-17360	-5200	-6644	-5991	11535	1542	168	144	1
-26132	-12064	21176	-4479	32767	27388	-28404	1744	-2272	-15404	29793	-2709	-24440	-2548	5192	685	-19059	-1255	-9736	-10152	20980	-7902	4518	-5724	-19696	15604	-9272	-426	13174	10177	-12920	-3256	-3792	3479	8096	5954	186	114	1
-28376	-14932	21084	-5277	32767	27939	-27628	-8164	-10256	-14437	28638	1464	-20572	-9676	-7968	-4653	-16477	-3002	-9520	10840	13788	-4799	2281	-2898	-17524	28	-6316	-4307	11530	4739	-14220	6716	-7356	22665	8855	6293	189	97	1
-29608	-5208	19336	-1450	32767	32553	-22980	-6536	-13764	-437	22569	3614	-23996	-6840	-15768	2751	-14315	-8336	-8272	2540	15972	-3017	1407	-2158	-16436	316	-5632	4573	9505	4715	-14320	8848	-4220	6622	8137	6968	208	89	1
-20916	-20460	22080	-1727	32767	27716	-15312	-8364	-14908	12764	13928	7912	-26692	-2196	-10240	13531	-20757	-10380	-7640	3888	15188	-1866	907	-1341	-16728	1672	-5600	8908	8152	4399	-14672	2988	-468	3785	11054	3961	220	107	1
-4976	-17552	10220	11103	17352	27250	-9276	-6432	-11960	17816	6174	5489	-25912	-2324	-10252	16006	-21516	-10453	-8364	3336	15024	-490	1489	-187	-17524	5108	-5020	4224	7374	3301	-17288	2412	-1516	11150	10443	965	223	137	1
-14904	-8280	24560	5369	-19715	-2221	-4940	-240	-14488	10336	-664	3311	-22976	-1844	-6148	13811	-18412	-10996	-7468	5416	14336	-431	1672	26	-17056	4476	-2936	1131	6335	2718	-16840	6832	-1272	10545	11281	88	211	108	1
8408	-12068	13964	962	-28394	-15748	-6864	5508	-84	6892	-8349	1564	-20776	1116	-6736	7560	-16990	-10104	-7432	6064	14184	-474	1937	-343	-17104	2712	-2180	3709	5583	1557	-15828	9540	-1292	6758	13488	941	202	115	1
4780	-10444	10092	1896	-31220	-19898	-7612	2664	-5084	670	-16176	2891	-17308	568	-7028	4807	-16587	-9757	-7916	5480	14140	-389	1721	-776	-16244	4032	-2984	4987	4578	1233	-16060	6676	-1896	2629	14327	2786	191	122	1
1796	-7632	8688	4863	-32768	-19763	-3616	-2456	-5660	-2164	-22361	2403	-13252	-348	-6340	2073	-15040	-8957	-8120	4400	14464	-11	1648	-799	-15944	3464	-3064	1801	4150	1029	-15564	2384	-432	2367	15506	3123	177	121	1
-68	-4288	9028	4403	-32768	-19285	-3984	-1696	-5604	-42	-28580	2202	-10084	652	-6816	355	-10501	-7734	-7868	4684	14480	397	1642	-952	-16136	1276	-1900	503	4165	1092	-15368	1476	48	2582	15521	3020	155	126	1
-5168	-3276	10096	1138	-32768	-19052	-4728	-1852	-8036	4123	-32768	4100	-9388	636	-7856	497	-6742	-6506	-7668	5164	14320	398	1787	-1219	-15816	1560	-752	2114	4363	1482	-15824	1580	1920	4312	12247	1716	141	137	1
-9084	-4108	11384	-2004	-32768	-19461	-6296	-1164	-9468	3311	-32768	5085	-7120	1528	-8980	1569	-3083	-6626	-8064	4788	14044	262	1659	-1654	-15476	1528	-868	3138	4881	1659	-15684	2016	2188	3521	11548	2222	124	145	1
-9152	-5036	11584	-2320	-32768	-19563	-10216	536	-9388	4436	-32768	6058	-7856	3296	-8788	4005	-164	-4963	-8300	4844	13968	86	1569	-1743	-15348	3588	-1624	2471	5404	1962	-14912	3068	2764	1772	13405	3392	131	156	1
-14952	-7508	16780	-4425	-32768	-19533	-12784	820	-11976	3971	-32768	6711	-7824	4460	-7500	6503	86	-3195	-8344	4196	14088	14	1200	-1658	-14452	984	-964	2285	6397	1914	-14500	3412	1804	-54	16704	3675	142	177	1
-18808	-7472	20900	-7236	-32768	-20171	-17052	6904	-13800	-1597	-32768	7835	-9100	4208	-6436	12270	-571	-2169	-8244	4252	14020	-45	1240	-1681	-14708	2304	104	2552	7398	2020	-15696	5360	260	-1413	13969	2999	177	222	1
-25120	-7596	23316	-11521	-32768	-19097	-19092	8428	-14260	-16447	-32768	6563	-9296	5968	-3588	12231	-719	-903	-7468	5988	14656	-481	1890	-2170	-16908	4088	-840	-718	8343	2173	-17844	7068	-2460	-1785	7649	1731	234	253	1
-32768	-3772	23556	-17783	-32768	-17543	-16264	1472	-14476	-30657	-32768	945	-9416	5304	8	7581	-126	-1045	-7856	4644	14912	-249	2980	-2807	-17296	1884	-3660	-2678	8825	2092	-16904	4512	-1600	-1502	7023	1619	246	253	1
-32768	-5560	19096	-21247	-32768	-14347	-23204	-4052	-13928	-30867	-32768	-5141	-13288	-2940	2644	-1969	-3425	-3482	-8500	3924	14580	-226	4373	-2727	-15412	-1148	-2092	2390	9419	2535	-15876	1752	1468	958	10663	2429	248	253	1
-32768	-36	9724	-20443	-32768	-8473	-23208	2552	-13472	-19606	-32768	-10131	-20404	-9116	13208	-4186	-5340	-5839	-7860	4484	15380	-256	5974	-2805	-16056	3388	796	2204	11514	3012	-17052	2008	3748	2531	11057	2288	252	253	1
-32768	12008	-2196	-18607	-28492	-6465	-16540	-3916	-10184	-10211	-25707	-7267	-20152	-12628	24212	-1517	-4950	-3235	-7232	4872	16372	-59	9203	-3487	-18568	2824	1052	-3015	13991	2859	-20532	116	5528	372	7560	2908	237	245	1
-32768	13724	-13324	-5006	-10494	-5102	-8132	-548	-7348	-435	-10154	-2504	-12964	-21384	27728	-8097	1416	-2909	-7944	4404	16844	33	13623	-4326	-18960	-1092	-1000	-1902	16373	3553	-20256	-564	5436	2829	4133	1794	215	233	1
-32768	15144	-14664	-2161	-7711	-4307	-3876	-1112	-10504	3114	10164	-1005	-13812	-12444	14680	-7557	1128	696	-8164	4520	17072	614	18812	-4950	-19124	-1120	-624	1980	18789	4638	-20324	1916	2584	6875	3612	-424	176	216	1
-32436	10440	-3460	7234	16393	1447	-10684	-3568	-15592	13703	19815	885	-12272	-7100	1928	-11915	2916	4623	-8196	6092	17432	1121	24913	-6495	-20704	688	544	1682	21532	5479	-20896	1976	2160	8509	350	-1353	156	201	1
-15364	-12260	14384	21636	19952	6579	-16652	-300	-3372	18374	19510	739	-13048	-2304	716	-20891	6263	4427	-8280	5836	19628	2092	32767	-9171	-24556	1564	3636	2565	24397	5941	-23844	632	12224	3505	-7921	-1294	107	186	1
15692	-16984	23520	7078	12259	-7184	-28360	8364	10560	26331	8818	1290	-3740	5784	-20176	-3560	15069	5083	-8836	10896	20364	1800	32767	-15846	-30544	-4236	3264	4852	25953	7480	-22332	-3340	13268	-1255	-8564	-3242	36	172	1
-4180	764	15016	15068	32767	5119	-30912	7656	-240	28715	10561	3103	-31528	-9020	22784	19500	-18970	3210	-13368	10256	23160	3337	32767	-22230	-32768	-4428	3176	7966	27534	8940	-27200	-7544	13356	-3895	-16587	-9365	40	162	1
-32768	1060	26536	5585	19195	9361	-12792	9912	-9088	15254	12849	2203	-32768	-10448	13876	23054	7663	1740	-23152	12472	22132	5831	32767	-25124	-32724	1900	-1704	10465	27329	8015	-26316	5652	4560	11985	-20589	-9637	1	126	1
-22908	-26832	7992	5414	6050	-540	-17272	6820	-9120	3259	15522	-5065	-18652	19716	0	4360	17633	3496	-24948	9504	20632	6388	32767	-26239	-24392	10368	-7812	8576	25980	4123	-24556	11868	-6604	24213	-26983	-5800	0	43	1
-8032	8896	17364	5299	4085	3443	-16212	948	-9240	2308	16092	-7004	-10404	12820	-18124	-13541	10973	2257	-32768	8672	21468	4614	32767	-25340	-20816	10000	-13676	-1140	21736	3179	-22520	11220	-10116	16894	-26087	-2289	0	37	1
-9252	-9004	12928	5483	3643	2644	-15612	-2960	-9080	-4938	13697	-3817	-6828	-6880	-3260	-16408	4346	-1308	-14784	18148	25192	4144	32767	-24152	-13972	5932	-6920	-7475	14334	1783	-26860	8876	-10596	2985	-27010	-1256	0	40	1
-9272	-5008	13296	3022	1769	1906	-18352	644	-8492	-4656	10531	-2939	-18892	-10596	-8132	-11682	11950	383	15564	31268	23216	-12980	22113	-25546	-9940	10604	-8688	-7163	7054	-728	-23880	8712	-5664	-9981	-27090	1494	19	31	1
-8348	-3636	13936	1864	1737	1283	-17520	-2172	-5716	-4001	8533	-1696	-18252	-72	-3076	-5734	7739	2721	-23892	13476	29352	-12787	-13317	-394	-3256	12036	-23016	-3300	-55	-2986	-20220	7912	-1372	-11401	-22919	2843	57	40	1
-8512	-4560	13504	1067	2142	968	-17804	-640	-6232	1661	7076	-2032	-20036	-2548	-2168	-6080	10365	7649	56	11964	18916	-7223	-32768	18695	-3996	688	-4440	-4445	-5225	-4028	-22308	3880	-1916	-5556	-20190	2540	76	53	1
-8448	-4668	13464	640	2508	571	-17036	1968	-4800	-2291	6588	-2084	-15176	-4916	-3896	-4580	9871	8575	2376	9716	10056	-9391	-32768	20127	-8536	280	-3076	-2003	-13029	-8131	-20452	3664	-5348	-3102	-17135	2100	77	51	1
-8720	-5252	12788	161	2388	412	-16948	-1796	-4436	-6241	5645	-1331	-15208	-5604	-3956	-2440	10160	7618	2756	2776	7808	-11413	-32768	15848	-4180	4956	-6776	-6636	-20961	-8244	-15180	3592	-5932	-4662	-16002	1352	89	44	1
-8456	-5464	12512	18	2011	503	-16144	-3236	-3208	-3075	4909	-625	-15952	-5956	-3068	2478	11905	7171	-2824	-1664	8564	-5947	-32768	12454	-1528	2420	-6840	-9701	-27031	-10918	-11340	4036	-6372	-6495	-13279	617	90	46	1
-8728	-4248	13200	-70	1755	687	-16928	-652	-3236	2385	4447	-132	-15500	-1296	-712	5857	12319	5989	-3680	-32	9852	1798	-32768	10998	-2844	260	-7476	-6638	-30152	-13261	-9176	4500	-8060	-6599	-9038	-2	88	44	1
-8512	-4276	13124	-257	1953	605	-16056	2128	-2948	2669	4681	-271	-14632	788	-364	4660	12520	5681	-6248	4068	11368	3828	-32768	10821	-5564	40	-8412	488	-32768	-15623	-7704	3476	-8720	-7658	-5465	-347	91	43	1
-8188	-4104	12860	-969	1952	515	-13604	4784	-3356	-4570	6625	-195	-15720	-248	-956	-505	11625	5931	-10872	4048	13828	4203	-32768	12400	-5400	2644	-9592	3083	-32768	-17194	-6388	2684	-9564	-8274	-1978	102	89	45	1
-8576	-4580	13008	-1038	2192	1311	-15436	-476	-2264	-5602	5295	-1103	-16524	-2536	-372	-5005	11224	6071	-14112	5676	16408	6387	-32768	15635	-7528	2640	-10164	82	-32768	-17372	-4532	924	-10044	-9123	740	1022	86	53	1
-9124	-4868	12476	-704	1909	1356	-15572	-3048	-2680	2536	8958	-1848	-15532	-5512	-152	-6849	11922	5447	-13456	6956	18628	7207	-32768	17385	-15616	2164	-12116	467	-32768	-18719	-4224	220	-10796	-10886	1911	1779	82	63	1
-9004	-4740	12600	-165	1773	1647	-15828	-1224	-2716	1516	7549	-1248	-14264	-3948	-116	-4275	13166	3968	-19868	4708	24424	10895	-32768	16557	-20716	2640	-14412	1485	-32768	-21776	-7172	1344	-9792	-12025	1439	50	78	81	1
-8724	-4760	12848	287	2456	2116	-15760	1116	-1996	-2782	7114	-848	-14636	-4148	-1972	-940	13398	3686	-21812	5296	25012	11929	-32768	16162	-22360	4640	-14680	8189	-32768	-19792	-10420	2496	-3316	-14806	-2426	-523	78	99	1
-9052	-4328	12836	375	2781	2096	-15212	292	-3196	-2764	8543	-803	-15112	-3532	-2672	-2983	11285	3439	-32768	9716	24720	14811	-32768	14672	-22600	7304	-11088	14543	-32768	-11762	-17100	3588	4908	-10855	-7276	-1650	88	109	1
-9124	-4640	13032	480	3306	2189	-16792	-1004	-3620	-676	9835	-935	-17280	-3764	-3376	-4360	8732	3056	-32768	6084	8112	11873	-32768	15972	-19800	8716	-11476	4448	-32768	-7591	-18792	-1572	12048	-2405	-673	-2482	97	112	1
-8892	-4128	13560	707	4498	2632	-17136	-380	-2336	-514	10123	-489	-16732	-5716	-1656	-2445	7783	2969	-32768	-3432	-748	11012	-25804	18804	-19964	3184	-10728	-4639	-29660	-4989	-17700	-9320	30132	-12589	6193	-704	100	107	1
-8640	-4280	14604	770	6742	3005	-17744	-364	-1412	667	11787	240	-16996	-7256	980	-2964	7000	2415	-32768	-14116	-11824	7419	-9728	19768	-9072	3160	-3312	3746	-14530	-1434	-20488	-11820	32767	-17905	2484	1438	100	75	1
-8916	-4436	15008	878	9960	3756	-18948	1032	-1800	1898	13590	580	-17792	-3696	2444	-5062	6221	2325	-32768	-17988	-19344	1075	5223	11688	-1336	10812	-8660	43	6924	3906	-16884	-2156	26168	4019	1145	1254	106	105	1
-9096	-4088	15560	970	13350	4409	-17828	1968	-1704	1183	15539	461	-18792	-3280	1608	-6592	3708	3106	-32768	-3620	-15488	-9439	28685	-1559	-11376	11092	-13684	-12284	19872	6911	-17664	-480	11056	15884	3426	410	123	91	1
-9364	-5836	15884	838	17273	5550	-19968	1704	-860	439	18159	272	-20684	-5948	484	-7092	-568	2999	-10596	12808	32767	-9936	21527	1055	-19768	-5464	7724	-13684	18319	5989	-14572	-1760	-548	3929	4837	1385	135	93	1
-8964	-6236	16772	112	22578	8056	-22676	2476	136	-1629	20928	-458	-22208	-6220	4884	-4455	-3147	244	6732	1596	10760	-2776	20636	1127	-32768	-6480	812	-15982	11029	5062	-4916	7728	-14292	12231	9500	4874	147	102	1
-7516	-7392	19552	-1446	30595	11338	-27360	4800	-960	-2980	23380	-1235	-24272	-6508	11848	-1890	-7377	-1687	-26416	-5652	32596	-4437	32767	-7551	-22724	-2852	-5552	-19042	15371	6751	-26616	6860	6552	-22297	5401	1400	159	120	1
-9168	-13228	20796	-2835	32767	16804	-32768	9748	5996	-7186	24991	-2346	-26660	-7652	18996	-7598	-23476	-3282	-18084	2600	25888	-946	13738	-10985	-19740	-1704	-7932	-6941	15512	5985	-22884	5280	2584	-17198	10194	1529	170	141	1
-16260	-11796	21608	-2881	32767	26141	-32104	5768	1024	-14118	27714	-5855	-24692	-1400	9540	-6798	-19376	-2845	-17776	9608	15804	-5077	6978	-4904	-15724	9544	-11260	36	15664	7361	-20748	-6180	-3716	-4126	13105	2866	174	131	1
-26556	-9368	21548	-7477	32767	27744	-29308	-244	-5644	-19730	30750	-4769	-23704	-4804	-1152	-5362	-20443	-3893	-11060	6572	16076	-2436	2698	-1863	-15732	-1476	-8128	-4820	11341	9105	-9892	-824	-9356	16490	7573	5790	183	119	1
-27976	-13980	15772	-6571	32767	28925	-25308	-6648	-14036	-18898	26774	-872	-20264	-9272	-13748	-6829	-14813	-6469	-7348	1248	16776	-1734	1360	-1203	-15756	-2264	-7352	-2921	11265	8532	-12756	9604	-4312	12539	9693	6328	192	109	1
-25308	-10696	17168	-12622	32767	27924	-19560	-4284	-10684	-2794	18806	1587	-27580	936	-10644	6548	-16715	-9063	-6324	6940	12968	-1447	1272	-1520	-17872	4444	-3812	8693	8679	5459	-15212	10768	-2568	1295	9685	5697	206	106	1
-6636	-20440	25116	-6850	29872	28795	-12164	-4976	-16908	7687	10074	2792	-24508	556	-9204	14910	-21779	-10047	-8204	5176	14724	-1164	1769	-1238	-17032	7828	-5236	330	7191	3520	-15960	3428	-292	2718	11918	3732	211	130	1
-30560	-13168	12524	145	3946	12190	-4804	48	-17436	11165	3902	-953	-23812	-1692	-4292	10183	-24018	-10535	-7968	5168	14636	-1010	1843	-447	-17196	1412	-4100	-2690	6301	2395	-16604	4392	-1368	5583	11450	611	204	131	1
-5424	-11104	20988	-208	-25282	-11344	-3272	2200	-9176	1944	-2082	-3930	-21876	1652	-5396	3096	-20445	-10375	-7728	4388	14616	-280	1919	-14	-15976	-512	-2764	3341	6141	2433	-16212	4884	124	4082	12065	510	180	106	1
10140	-11116	11524	-1291	-27852	-22058	-8596	6332	-96	4334	-10606	-4282	-19112	148	-6628	-909	-17734	-10400	-7280	6440	14008	324	2175	-280	-17596	2244	-1820	7661	5717	1966	-15852	5736	-464	4586	13572	1761	172	112	1
7032	-5648	9668	923	-25919	-24136	-6096	1688	-3764	2629	-19282	-2623	-15072	-1336	-6508	-943	-15512	-10333	-7844	5684	14260	537	2387	-1049	-17096	5948	-3580	3036	4531	1768	-16924	4752	-944	4955	15066	2815	170	124	1
-1312	-2104	10900	1215	-27317	-23897	-2668	-1772	-6492	5082	-25187	-1788	-10420	948	-6672	-1933	-12773	-9084	-8564	5280	14068	546	2286	-1343	-15752	2540	-3392	-2214	4255	1378	-15376	2092	-576	4494	15390	2799	158	133	1
-5388	-940	12328	439	-32768	-23484	-2400	-456	-7964	5704	-31255	-346	-9008	640	-6944	-1700	-9498	-7503	-8048	5172	14076	614	1972	-1488	-14856	24	-2660	-42	4282	1525	-14904	980	-44	2134	14534	2051	142	137	1
-7156	-84	12720	-822	-32768	-21837	-5180	-44	-9004	6795	-32768	1197	-8184	612	-7548	53	-7038	-6969	-8252	4812	13796	690	1730	-1385	-15384	540	-2096	3304	4732	2186	-14176	612	1156	957	14044	2621	140	161	1
-8944	716	13676	-3548	-32768	-20409	-8920	2564	-8296	7333	-32768	3336	-9076	2120	-8368	1672	-3835	-5883	-8140	5044	13632	546	1596	-1221	-15408	1640	-952	3921	5498	2621	-15076	2292	1660	-192	14708	2817	197	247	1
-11704	-1776	15644	-5860	-32768	-18432	-11196	3360	-9756	4087	-32768	5472	-7864	3500	-6804	5681	-272	-3915	-8028	5748	14032	311	1545	-1701	-15628	3380	-788	1751	6159	2530	-16152	3456	1024	-2089	15019	2349	248	253	1
-15796	-4856	19756	-6334	-32768	-16712	-12436	2856	-11396	765	-32768	6223	-7820	4688	-7140	7521	-157	-1856	-7984	4548	13792	-140	1488	-1838	-15016	3316	-1232	-1137	7055	2185	-15868	6148	-1024	-3742	11662	3024	246	253	1
-20408	-4404	24532	-8398	-32768	-16595	-18512	5236	-14088	-6638	-32768	7426	-7428	4004	-5436	10131	-754	-644	-8284	5232	14052	-361	1647	-2138	-15228	1952	-1540	-1428	8021	2173	-16560	5460	-2052	-2679	8661	3147	231	253	1
-26260	-4380	25652	-12362	-32768	-16613	-20636	6472	-13172	-16807	-32768	7548	-8276	4432	-3176	9609	-947	-297	-7788	4788	14664	-277	2447	-2247	-16200	436	-2076	397	9063	2546	-16604	3000	-104	-783	7729	2232	216	253	1
-32768	-4080	24680	-15105	-32768	-15019	-18764	1724	-13144	-26527	-32768	3201	-9728	1612	712	5737	-922	-2193	-8176	5044	14812	85	3818	-2607	-17804	1228	-3120	1170	9763	2786	-17088	1120	1152	99	8550	1905	206	248	1
-32768	-4032	17788	-14953	-32768	-12233	-25976	-2964	-13360	-24794	-32768	-2365	-14936	-5320	4680	325	-3139	-5443	-8472	4640	14984	364	5810	-3000	-16940	1976	-2688	145	10448	2767	-17108	1144	228	1570	9295	1928	207	230	1
-32768	4892	5480	-14950	-32768	-6894	-19668	3908	-12820	-15206	-32768	-5363	-21332	-9732	18184	745	-3715	-5669	-7700	5280	15772	607	8256	-3381	-16776	1392	-684	-152	12162	2695	-16984	1172	212	1827	9373	2092	210	211	1
-32768	17288	-7592	-16042	-24011	-4809	-11796	-2404	-9940	-12803	-23719	-4256	-17036	-15080	32612	3985	-2307	-3169	-7908	5256	16116	533	11708	-4172	-18344	-276	1260	9	14776	3240	-19832	780	5624	2257	7119	3222	221	195	1
-32768	20636	-20752	-3923	-6456	256	-2808	-5408	-7044	-7734	-840	-3001	-15404	-16352	26404	-11196	1661	550	-8080	5232	16764	680	16028	-4913	-18472	-736	1816	92	18081	3940	-20372	660	8636	4647	4412	1602	218	188	1
-32768	18516	-20264	15617	11813	8938	-6608	-6292	-14852	4619	17509	-1345	-14456	-7660	13440	-15882	-1824	4681	-8368	5800	17228	749	22142	-6261	-20564	804	660	-749	21140	4513	-21940	2036	7148	6042	1641	-1135	185	179	1
-13080	4620	16612	15270	21911	8384	-12400	-5472	-4592	16862	24126	3106	-14304	-5804	-2240	-18466	4607	7009	-7856	6776	19416	1388	30476	-9518	-25256	-912	-88	-42	23863	5222	-23828	2192	7444	7045	-3449	-2438	131	168	1
-4428	-20940	22680	4668	19283	-941	-32768	19124	7512	32767	9315	645	-18572	-1192	-2192	-18987	4027	2972	-6576	12452	22388	1034	32767	-14092	-32768	-3608	6144	4967	26609	5383	-24852	2316	10384	-1930	-10339	-3919	82	156	1
-22968	14576	31788	8773	30404	8213	-18228	12788	-7120	24662	16690	550	-22520	-13312	3632	16387	-4096	1583	-12336	12880	22676	839	32767	-24511	-32768	-3420	4216	6297	27272	7022	-26992	-9004	10540	-4351	-14063	-7889	43	147	1
-22512	-9768	8748	3581	6999	5190	-6700	-6928	-14604	-7484	19129	-1907	-19884	1824	-6176	3513	7965	2794	-26892	14932	23436	1631	32767	-27341	-32768	2704	-3736	6665	27194	7070	-27600	-2880	4972	4705	-20147	-10269	9	133	1
-17056	7552	21688	8868	5697	8170	-17468	-7444	-13584	-1800	16533	-8875	-11240	21616	-11668	3417	15510	635	-24192	9852	19608	5360	32767	-28029	-23736	8704	-6236	7802	26162	3463	-25744	12556	-5908	26095	-28309	-5413	0	50	1
-8792	-10416	13580	4942	2012	1696	-20684	8048	-8880	3317	11521	-3191	-12096	1348	-5464	-11628	2632	1781	-32768	6292	20956	5384	32767	-25756	-18032	9980	-14424	-1536	20885	3492	-20324	11732	-14236	23962	-29295	-2433	1	43	1
-8916	-2376	14540	2118	2249	1501	-14404	2708	-8980	-7413	11337	-1559	-20304	-10120	-7164	-9213	10715	3029	-20724	18780	22676	4542	32767	-25530	-12076	7320	-8132	-10063	13810	1127	-24552	7176	-14044	314	-24310	512	0	51	1
-7836	-4364	14396	1950	1718	848	-20312	-3668	-6912	-5716	9362	-2821	-17932	-1916	-4964	-4182	10312	5385	5056	28856	25436	-14088	20442	-26214	-7928	9796	-11004	-8447	7584	-1593	-22148	9396	-5860	-12217	-24064	2149	22	29	1
-8692	-4528	13520	1319	1897	586	-18112	-2468	-5912	527	6483	-823	-16912	-1368	-2512	-6327	9908	6268	-26688	13192	28236	-13879	-11809	-2307	-5292	9820	-21472	-5259	547	-2255	-19212	8880	-2500	-13071	-21434	2878	44	28	1
-7932	-3740	13796	965	1850	295	-15832	1940	-4060	-418	5854	-1286	-15292	-3360	-1868	-6907	9892	8013	-380	12336	18032	-7183	-32768	18045	-4956	736	-5512	-4041	-4056	-4335	-20648	3084	-2320	-7940	-18913	2608	63	34	1
-7764	-5636	13064	343	1935	77	-17240	156	-2456	-7378	6233	-548	-15700	-5976	-2864	-6238	9646	7702	2956	10940	9844	-8638	-32768	19056	-9292	-464	-2796	-1389	-11673	-7908	-20172	2228	-4628	-4400	-16675	1615	82	51	1
-7968	-5552	13112	235	2020	517	-17840	-3240	-2784	-6357	5351	-744	-16796	-5440	-2704	-4503	9776	7243	3976	4324	7520	-10667	-32768	15829	-5316	4140	-5932	-4719	-20007	-7021	-15424	2540	-6252	-4535	-15640	316	84	39	1
-8516	-4232	13164	139	1899	650	-16096	-1992	-3284	-1255	4635	-168	-15820	-3952	-812	-1558	10451	6865	-2636	0	8316	-7222	-32768	13763	-3312	2716	-5588	-9067	-25686	-9408	-14616	3248	-6080	-5574	-15363	374	82	35	1
-8124	-4104	13272	-30	1667	619	-15444	1020	-2672	86	4489	519	-14352	-3056	-784	753	10757	6778	-4340	1436	9952	-1200	-32768	11879	-3084	976	-6740	-7647	-29576	-11333	-8720	3988	-7212	-9101	-9603	14	86	45	1
-8356	-4368	12828	-151	1609	689	-15916	108	-2740	-1541	4924	191	-14864	-2768	-792	1080	11267	6762	-6556	3312	11876	1227	-32768	11189	-5180	1440	-8532	-2556	-32627	-13945	-8148	4132	-7612	-9580	-6065	-104	88	61	1
-8144	-4716	13008	106	1470	975	-16624	-208	-2352	-1447	5195	-252	-15672	-2984	-1552	-23	11273	6249	-9844	3300	13992	2725	-32768	12186	-6408	1720	-9560	1103	-32768	-15277	-7052	3496	-8284	-9802	-3371	711	87	69	1
-8744	-4436	13316	192	2006	1392	-17428	1244	-1568	-7952	3272	-375	-15828	-2960	-144	-3166	11072	5325	-13744	4324	17108	5103	-32768	14805	-8932	3848	-10660	-2093	-32768	-18164	-6044	1628	-9472	-9238	-280	1822	86	73	1
-8728	-4292	13176	-224	1628	1673	-15708	2768	-2428	-8554	3334	1312	-14968	-3200	1308	-3602	12060	5805	-14304	6616	19536	6978	-32768	17368	-14192	1096	-11460	-1649	-32768	-18021	-6208	840	-9876	-8298	1342	2496	82	77	1
-8548	-3644	13036	-161	1310	677	-15400	-772	-896	3844	10357	-757	-14848	-4056	1596	-765	13584	5350	-18208	5108	21908	9670	-32768	17459	-20452	-248	-12120	4706	-32768	-20700	-7288	788	-8688	-7274	1694	876	76	90	1
-8304	-4260	12976	60	1662	788	-15544	-452	-616	4923	8733	213	-14448	-5008	460	504	13459	4734	-27552	7732	27460	14022	-32768	13101	-23220	1968	-13620	10851	-32768	-19241	-9936	116	-5008	-9266	-1017	-513	74	105	1
-8476	-5064	12832	939	2131	1948	-16580	732	-1444	152	8553	259	-15448	-4896	-1600	619	12595	3835	-32768	10700	27584	16745	-32768	10361	-23320	8004	-11388	14571	-32768	-12715	-16596	1544	3168	-7822	-8860	-1166	81	115	1
-8936	-4460	13256	911	2853	2572	-16568	580	-4024	-910	9109	311	-16796	-3896	-4472	-1219	9845	3296	-32768	6036	13240	16914	-32768	11278	-18628	8316	-11656	10244	-32768	-5399	-21024	-764	8532	-4690	-9012	-3674	90	100	1
-8696	-4160	13924	551	3796	2414	-17304	776	-4484	1190	10513	64	-17232	-2104	-3344	-2144	8237	3512	-32768	-3488	6044	15995	-32016	12164	-19136	3124	-9640	2909	-32768	-4498	-15148	-3052	22136	-12214	-1499	-2120	99	102	1
-8884	-3372	14164	361	5850	2270	-16800	1052	-2424	401	11223	553	-16252	-3100	672	-3792	6627	3875	-32768	-10496	-1824	10635	-19118	15587	-15452	2968	-7500	8175	-21841	-3427	-19288	-6736	29992	-17500	-2055	-819	98	94	1
-8436	-4832	14440	710	7861	2695	-16496	-1068	268	-298	13084	1218	-16500	-5004	3008	-4658	5889	3443	-32768	-20348	-19580	1714	-7989	9531	-1560	5972	-5784	7710	-2058	3003	-18860	-7908	31276	-1000	1216	351	103	83	1
-8604	-4748	15064	1335	10684	4205	-17892	252	-1148	1448	15742	735	-17988	-5032	2128	-6240	4021	2524	-32768	-22448	-20580	1055	-4940	7231	-6296	10452	-13748	-8569	14885	6610	-17844	280	17436	17829	2819	-399	118	87	1
-8516	-4952	16620	1785	14673	5181	-19772	1804	-2700	2088	17846	830	-19244	-5180	-272	-8964	18	2199	-15296	-5920	13124	-16023	24304	-8388	-12812	1512	-4212	-9846	22680	6124	-13456	-2388	2096	17612	4034	413	136	72	1
-9232	-6140	17524	1408	19560	6939	-21668	4220	-2808	370	19687	429	-22016	-3812	1088	-5952	-3473	1284	4172	21496	25432	-1816	15898	-296	-32768	-20200	7604	-7856	12276	565	-6116	3296	-9572	3104	5679	1806	148	72	1
-9228	-6036	19040	694	25583	9053	-24864	2536	-1716	-2394	22362	-37	-24044	-5540	7328	-1849	-5114	317	-16884	-928	23376	-6035	32767	-4900	-23608	2864	-5912	-21863	15126	7261	-26044	2396	-13652	-5863	8321	-571	159	103	1
-9012	-11320	20128	-1198	32767	13644	-30848	5224	4032	-3698	24160	-560	-24288	-9172	12152	-2197	-11896	-1722	-22556	-1432	25132	704	17260	-7970	-15544	-1888	-9980	-7272	17783	4528	-24088	16608	16604	-27041	1367	-879	166	134	1
-10720	-12032	20964	-906	32767	22572	-31860	6396	4088	-3763	24264	-930	-23924	-6448	18140	-11456	-25332	-3206	-28072	32767	19028	-5648	12885	-6140	-17448	10312	-8460	2098	14167	6696	-16976	-4912	-5900	-4085	11637	4793	172	150	1
-21548	-9848	21400	-2856	32767	28498	-30248	4296	-2556	-15888	27749	-5281	-25376	-2628	6864	-3026	-16979	-1867	-5060	-6048	19932	-4984	3310	-3691	-18332	5652	-9496	-7393	12608	8988	-12816	-1512	-10008	5308	8412	5742	187	124	1
-28948	-10904	19856	-6379	32767	28678	-28264	-4608	-9884	-20513	29055	-1919	-23528	-5364	-6280	-5996	-20915	-3578	-12324	6356	14608	-2651	2070	-1953	-15316	-1972	-6112	2211	10125	5546	-15324	3448	-3452	12715	10268	5905	205	117	1
-23584	-6924	15108	-3544	32767	31591	-20060	-4756	-14676	-12762	23192	806	-22856	-4808	-12932	-3420	-12705	-6876	-8160	6168	13480	-1271	1544	-1224	-16924	1736	-5348	9469	9022	5204	-14632	8340	-2992	7664	9107	5982	211	105	1
-25300	-15504	19516	-8466	32767	29156	-14620	-6476	-10260	3361	16803	4129	-24424	1108	-11032	8519	-18096	-8246	-7660	3680	15196	-695	1081	-797	-17008	5956	-5408	6127	7285	3840	-15620	3672	-1716	5963	10661	3041	203	111	1
12828	-23840	27136	4074	21608	28422	-10288	-6136	-14564	8169	7457	909	-23136	-1380	-6016	12533	-21600	-9500	-8420	5108	14204	-515	1005	-313	-16756	5284	-4788	-239	6470	3003	-16756	4728	-1836	9076	10760	1352	204	121	1
-17428	-15228	19372	-1397	-8058	1803	-8188	3548	-17132	8260	1233	-1269	-21264	-2584	-5048	12916	-20773	-11060	-7380	4892	14040	-625	1411	-230	-17152	1704	-2976	-434	5285	1837	-16692	7000	-1732	5828	12163	1163	196	117	1
6240	-14788	14720	-2127	-20996	-17039	-5480	4212	-2604	2993	-4145	-2487	-20048	-796	-5384	4373	-17743	-10284	-8244	6020	14120	-460	1685	-372	-17212	1348	-2800	4502	4776	1317	-16728	6444	-636	3581	12706	1692	191	111	1
7416	-10860	10040	1997	-21048	-23059	-8960	3172	-2700	4255	-13882	-1439	-18408	-544	-6064	952	-14913	-10289	-8324	5344	14028	-309	1380	-608	-15948	3864	-3572	5910	4037	1233	-15784	4684	-932	4632	13705	2832	177	115	1
1660	-5748	10752	4777	-21558	-24172	-5244	-2736	-5672	7688	-20898	-626	-14028	-860	-6148	947	-13597	-9922	-8516	4748	14124	151	1071	-590	-15296	3296	-3108	1607	3777	908	-14636	2080	-424	4716	14486	3229	166	118	1
-2864	-2620	12956	4259	-26198	-25173	-3772	-1320	-6644	10804	-27585	622	-11176	-1112	-5648	1323	-10794	-9020	-8020	4812	13948	148	874	-570	-15440	372	-1732	771	3914	872	-14740	1684	320	4008	13606	1692	154	119	1
-6312	-1044	13772	2555	-32768	-25736	-4872	1156	-8568	10474	-32453	2938	-10316	144	-6176	2172	-8377	-7941	-7612	5292	14056	115	949	-944	-15968	1036	-1004	1684	4046	1072	-15824	1012	1228	2800	12140	1324	132	122	1
-6596	412	13796	-122	-32768	-24097	-7552	2556	-7484	9038	-32768	4794	-9496	1652	-7572	3737	-6449	-7854	-8292	5092	13836	-70	800	-1377	-16444	2756	-1340	1236	4438	1693	-16252	1304	2696	2693	12552	2052	130	137	1
-9360	-472	14400	-3020	-32768	-21045	-9216	3640	-9364	6883	-32768	6321	-8528	3012	-8088	5659	-4115	-5402	-8304	4996	13812	-235	579	-1450	-15100	1996	-840	1389	5049	1879	-16064	1764	2936	2454	12813	2345	143	174	1
-12840	-3300	16964	-4761	-32768	-17807	-10300	3016	-10420	3150	-32768	7183	-7488	4376	-6804	8700	-1636	-2380	-8312	4876	13664	-404	370	-1494	-14216	880	108	1724	6250	1816	-15076	3276	1368	-2550	15830	3449	203	253	1
-17500	-5264	20720	-6296	-32768	-16957	-13644	3492	-11328	-1738	-32768	7451	-7300	5728	-6468	11129	1284	-956	-7600	5400	14176	-630	423	-1644	-15156	1392	592	1472	7895	2016	-16788	4756	216	-479	10696	2847	237	253	1
-18592	-5192	23432	-9607	-32768	-18037	-22252	6520	-14744	-9796	-32768	9527	-8744	4880	-4020	11994	-907	311	-8076	5144	14204	-862	944	-2233	-17292	3432	-1900	-1840	8567	2008	-17928	3620	-1332	270	5845	1591	237	253	1
-28312	-4868	25976	-13516	-32768	-18523	-20148	6056	-13016	-16628	-32768	9050	-8880	4412	-3656	12309	-1037	263	-8332	5172	14272	-1009	1553	-2741	-16036	1928	-3472	-2707	9027	2098	-17492	3488	-1288	57	5430	1429	226	253	1
-32768	-6024	23436	-13971	-32768	-17998	-20460	-3676	-13908	-26317	-32768	2324	-11900	-432	2024	8656	-2859	-4294	-8060	4800	14708	-652	2337	-3072	-15700	384	-3080	891	9503	2294	-15260	2380	-576	377	8963	2587	226	253	1
-32768	-4680	12444	-9924	-32768	-14436	-21980	-6524	-12564	-15475	-32768	-1293	-18536	-6940	7884	3163	-3741	-6183	-7824	4596	15464	-562	3811	-3103	-16692	1160	-1524	2687	10881	2655	-16752	3540	608	3831	8936	2096	230	237	1
-32768	6752	-1060	-9310	-32768	-9521	-18956	2220	-11860	-9710	-30151	-3854	-23284	-6964	20552	1277	-676	-2645	-7696	4844	15876	-492	6442	-3609	-17900	1784	-668	868	12580	2627	-18624	2244	2932	3428	6764	2101	238	218	1
-32768	12996	-13448	-7736	-18797	-7492	-10840	732	-12120	-1003	-18301	-3576	-16460	-10892	32767	4357	-270	-1599	-7624	4464	16680	-446	10093	-4238	-18368	1480	-1008	-1513	14734	2545	-19092	908	5220	1838	5553	2010	231	205	1
-32768	21924	-19944	-1542	-3157	-4315	-3264	-2304	-9716	-2274	2326	-1779	-15016	-12428	21480	-13504	1196	835	-7832	5348	17256	-675	14725	-5118	-19584	-152	-1124	-1485	16982	2767	-19944	1876	4388	4101	5101	674	206	192	1
-32768	8480	-18988	15346	15668	6081	-8808	-6608	-15144	7740	19275	-1753	-13612	-5748	7636	-15998	-2441	4807	-7964	5820	17784	-957	20236	-6654	-20168	-308	-204	-343	19379	3597	-20040	2080	4036	4917	4821	251	173	183	1
-18760	-392	25484	13304	18693	4689	-13732	-3856	5556	15350	21136	1438	-13036	-5656	5264	-16981	-1456	5181	-8440	6996	18800	-1388	26740	-9582	-22668	-284	172	1712	22049	4821	-22504	2292	8172	6089	-1013	-2062	114	175	1
2720	-8012	12068	-255	16904	-4194	-32768	19904	2892	32767	11338	-697	-16328	6784	-692	-13282	5601	3193	-7680	10792	21608	-2244	32767	-13724	-32360	1216	4356	3537	24910	4080	-28420	4940	17660	-2408	-11314	-2530	65	164	1
-24792	19820	32767	4727	32429	7327	-14608	14528	-3868	17395	13587	2510	-25412	-16476	5104	16846	-2644	1859	-10564	14308	21964	-3697	32767	-24362	-31956	-252	3024	2356	24996	6864	-24816	-3040	9456	184	-11342	-3948	37	156	1
-22712	-6824	17924	3578	11249	8573	-12512	-3764	-13840	-5469	17967	-1637	-21288	1464	-864	2613	7933	2702	-21356	12380	23288	-2164	32767	-29348	-30700	712	-616	5632	25543	8450	-24344	-7228	6620	-1518	-17933	-9474	2	145	1
-13092	-1628	17632	8632	6249	6200	-22624	-8264	-11332	-2747	17322	-9069	-18972	6568	-2624	1526	10003	2430	-23356	7988	19052	3729	32767	-30330	-25328	4876	-2588	9446	24699	7542	-24212	-4528	5212	-421	-19479	-9313	1	61	1
-12004	-9808	12412	4923	1948	2032	-17308	896	-9928	6438	11756	-3479	-10592	1456	-5180	-11253	3158	1143	-27324	8884	16012	4580	32767	-29728	-18636	8168	-11084	2140	22303	5597	-23056	10648	-9736	25712	-25142	-3863	0	39	1
-8524	-1180	15156	2745	2231	1838	-14844	3868	-8728	-3857	10346	-1751	-17836	-10060	-7280	-7343	12276	2150	-32424	19336	24452	-391	30887	-28701	-14992	9884	-14300	-2672	18444	4789	-22512	5136	-16288	19134	-24636	-616	0	32	1
-7776	-3708	14300	1920	1752	673	-20696	776	-6508	-8257	8747	-2905	-18992	-932	-4828	-2339	11009	3720	14800	23228	24664	-16154	15960	-26501	-11112	9336	-14500	-4167	10199	5893	-23956	2864	-9452	-561	-27401	1101	16	27	1
-8120	-4416	13692	912	2159	29	-18136	-3868	-5568	-312	5931	-1931	-17344	1024	-2328	-5092	9894	6399	-17364	7148	26088	-2344	-6924	2053	-8572	1440	-15028	-1432	2414	1153	-22696	9408	-1888	-9737	-25798	2989	44	27	1
-8264	-4424	13636	453	2263	-244	-16280	324	-4124	2605	5068	-1903	-15972	-4108	-2624	-6211	10311	7733	5700	16480	14340	2164	-20139	19386	-5768	-1668	-3296	4409	-1951	-1486	-20628	4860	-1924	-6663	-21029	3124	64	40	1
-8244	-5588	12776	-217	1906	-390	-16716	1568	-2704	-4918	5616	-917	-14476	-6124	-2724	-4976	9863	6957	8104	12724	9628	-5544	-19280	20694	-9040	2980	-3208	3340	-10332	-4513	-20652	3000	-3300	-1208	-19142	2763	76	45	1
-7868	-6108	12784	-136	1831	340	-17144	-2752	-1972	-7061	5079	-873	-15812	-6188	-2720	-2032	10223	6378	2500	3940	9396	-9717	-18888	19318	-4060	6440	-5720	-9350	-18663	-4537	-20396	3204	-3916	-903	-18678	2862	81	49	1
-8040	-5020	13096	21	1835	691	-16824	-3424	-2088	-722	4373	-437	-16836	-4932	-816	1801	10469	5988	-4016	356	11256	-5495	-25018	19456	-2760	4832	-8284	-17339	-23135	-5450	-11764	4368	-7012	-3236	-14619	2497	81	48	1
-8332	-3988	13256	-133	1969	784	-16440	1628	-2760	3361	4034	238	-15020	-2588	24	4893	10474	5924	-4832	1556	12432	-1152	-32415	18884	-2052	1448	-8372	-14042	-27472	-8483	-8940	4744	-7308	-6923	-11004	2442	82	48	1
-8492	-4224	13048	-425	1925	701	-15816	2320	-2908	288	4483	-234	-15028	-416	-92	3676	11513	6338	-6956	1400	12944	1115	-32768	17548	-3520	700	-8552	-7886	-31472	-11231	-8068	4460	-7792	-9785	-7475	1779	82	56	1
-8456	-4316	12744	-457	1778	776	-15828	564	-2724	-2110	5035	-829	-16048	-1292	-888	-892	12017	5668	-8604	796	13100	3550	-32768	17080	-5612	352	-8304	-4427	-32768	-13440	-7500	3876	-8612	-11723	-4540	1432	81	60	1
-8200	-4604	12708	-511	1692	924	-16256	52	-2064	-2890	5720	-931	-15712	-2512	-160	-4788	11181	4915	-9568	2656	14376	4963	-32768	16541	-7196	1572	-8520	-2394	-32768	-14873	-6240	2896	-9564	-11874	-1530	2229	84	68	1
-8380	-5064	13156	-231	2012	1557	-16912	-448	-2192	-2532	5658	-1199	-15900	-3948	64	-4694	11069	4591	-12768	4528	18188	5468	-32768	15793	-10892	2344	-10604	-2615	-32768	-17171	-5392	1328	-10400	-11519	1679	2900	77	74	1
-8784	-4208	12948	-257	1936	1385	-15420	-288	-1924	-142	6513	-758	-14912	-3608	-236	-1341	11920	3730	-14696	1816	21040	9345	-32768	16486	-18068	384	-11916	579	-32768	-19454	-7552	932	-9052	-10194	2897	1608	73	87	1
-8904	-4172	12660	-304	2075	1194	-14636	200	-748	-963	7288	-250	-14684	-3832	928	-30	11916	3339	-22276	5608	25888	14665	-32768	13019	-22336	-3044	-9464	10024	-32768	-20701	-9456	128	-6628	-13964	1748	593	69	102	1
-8416	-4856	12844	149	2037	1416	-15236	148	-1336	-86	8850	-474	-14288	-3780	760	-718	11547	3495	-25216	7400	27304	15437	-32768	11865	-26864	7788	-14344	16758	-32768	-14817	-12676	28	2924	-8632	-5578	88	77	121	1
-8716	-4324	13252	236	2494	1742	-16840	896	-2888	363	9781	-636	-16136	-2176	-1412	-1299	10733	2775	-32768	9384	28800	19362	-32768	8046	-21348	7348	-9268	14791	-32768	-7853	-18920	-300	11424	-915	-13590	-973	90	120	1
-8816	-4472	13228	225	2613	1755	-16624	1120	-3604	-173	10394	-489	-16972	-2172	-5156	-2901	9714	2219	-32768	3904	9248	20338	-32768	10196	-16544	4716	-8748	13266	-32768	-3132	-19376	-3172	17840	2821	-5311	-4380	102	112	1
-8828	-4044	13800	-155	4820	1669	-16912	-48	-4348	-99	10928	-55	-17032	-2572	-3492	-3010	7099	2309	-32768	-4788	5520	16445	-26258	11551	-19508	5088	-9740	9915	-27346	-2818	-18684	-6320	26480	291	-1045	-781	103	116	1
-8980	-4652	13628	-338	6203	1862	-16784	-1196	-3412	-17	11813	610	-15620	-4232	-144	-5066	4852	3070	-32768	-9000	-5928	6509	-16635	11836	-11560	4032	-2728	10686	-15311	497	-19580	-9788	26420	-10105	-1316	2373	104	78	1
-8920	-5848	14196	-73	8349	3020	-18356	668	-3152	-468	13044	771	-16948	-5244	-2844	-8329	3398	3331	-32768	-18428	-14480	1374	-2993	3829	-3064	6724	-6164	-1097	2771	4755	-17320	1204	23188	5607	-1003	3408	109	87	1
-9004	-4424	14952	575	11511	4384	-18276	1268	-3552	-936	14442	543	-17644	-4560	-2996	-7251	2774	3325	-32364	-8764	-3864	-182	11551	-1689	-10572	3712	-11848	-6712	14620	5410	-15128	1916	12180	12819	1093	1398	115	106	1
-9032	-5048	15388	317	15261	5091	-19132	1340	-3440	730	15829	1250	-18760	-4660	-1360	-3445	1090	2980	-22216	16848	8440	-28267	20187	-4678	-14228	5076	-10772	-7383	20925	7518	-11704	-132	2524	8749	2001	1669	129	99	1
-9280	-5692	15832	-412	19431	6305	-20360	2292	-2920	483	17361	1366	-20580	-3716	3520	-1946	-807	2115	4532	11412	31152	-13266	13262	6300	-23188	-3204	3468	-10048	15067	3724	-8752	4600	-2456	-12430	3361	3493	137	95	1
-9032	-6172	17100	-932	25167	8255	-23076	3468	-1744	-1655	19752	1008	-22624	-5116	8604	-2398	-3656	1101	10312	-9964	8124	-11620	22672	-590	-24092	-472	-3132	-26728	9328	3680	-10228	10580	-19988	5301	12918	6687	150	102	1
-9116	-8684	17724	-2823	32767	11702	-28352	5688	4280	-4434	21922	713	-23468	-7620	13176	-2946	-11873	-108	-24468	-6216	29996	-5009	32374	-6583	-23768	-12300	-5212	-26776	12671	2910	-30272	3448	11604	-30334	7000	-130	163	127	1
-7936	-10220	18832	-3342	32767	18985	-29916	8376	4988	-8568	24961	-1846	-22832	-6164	18560	-10745	-23465	-1392	-18932	2796	22564	1425	14962	-9311	-19100	-5788	-5240	-2567	13756	5031	-23284	-8256	8756	-26589	8633	-1189	165	139	1
-19624	-10880	20860	-2973	32767	24759	-30444	6368	992	-15004	27582	-2308	-25640	-2740	12140	-1971	-18652	-434	-21916	24176	11556	-4496	8998	-3629	-16388	10588	-4520	8163	13588	8809	-20052	-10580	3332	1338	13346	2277	166	112	1
-29792	-12400	22616	-5345	32767	25916	-30764	-4324	-6328	-17058	29711	202	-21680	-7744	-1540	-9026	-21146	-1621	-9436	884	17000	-3606	3973	-3660	-16492	7620	-5008	-910	12511	9109	-12048	624	-5932	21499	8679	7650	168	93	1
-28516	-10856	14544	-717	32767	30955	-25684	-9920	-15132	-8575	27153	3749	-21708	-8344	-3888	-9371	-19487	-2014	-9184	5876	14640	-3631	2454	-2370	-15944	3728	-4524	2414	11759	5666	-11592	11016	-6672	31060	3572	7136	191	86	1
-32528	-17368	19868	-3962	32767	27570	-19592	-8848	-14836	7102	19147	5442	-26604	-6024	-9712	6213	-19054	-10400	-7840	7508	14376	-1498	2372	-2045	-16852	2220	-5540	7393	9767	5043	-14092	11916	-2808	10050	7817	5214	207	88	1
11832	-23732	26972	8565	23839	27536	-12716	-6220	-15168	15029	11259	6385	-24656	-4596	-5580	17481	-21615	-10733	-8452	3124	15240	-960	1544	-1138	-16828	5208	-6836	4821	7900	3129	-16332	6160	-3444	6514	11253	2536	223	150	1
-19388	-17484	20144	6665	-3981	10519	-9940	1780	-17448	15363	2893	3904	-23772	-5248	-6748	18920	-19502	-10724	-8156	5060	14460	-401	1461	-269	-17184	4860	-4988	1272	7110	2774	-17584	4296	-2228	7855	7984	-221	223	136	1
-280	-12076	17916	2719	-22835	-6433	-5540	52	-8140	6849	-1614	2058	-23456	-2172	-5504	14794	-18439	-10076	-7660	5488	14332	-305	2032	-118	-16964	3552	-3552	795	6291	2755	-17752	7564	-572	7061	9808	-616	191	91	1
7048	-12380	9936	3277	-24912	-13174	-9928	2512	-3268	5319	-10595	3240	-21136	-2104	-6284	9477	-16531	-10626	-7868	6380	14120	78	2359	-444	-17512	3404	-3084	3979	5211	1616	-16576	8152	-1252	3862	12008	2048	186	107	1
1952	-11112	7844	7559	-27019	-14518	-5456	-3504	-6352	3466	-17599	3923	-18036	-1268	-7148	6426	-14463	-10592	-8696	5732	13676	445	2296	-717	-16264	4992	-3704	3309	4259	997	-15836	5904	-1212	1111	13456	3912	184	104	1
-1340	-6196	8180	8500	-30862	-16009	-2076	-4152	-7104	5778	-24354	4086	-12396	-312	-7628	4940	-12061	-9857	-8524	5216	13896	501	1954	-908	-15460	3560	-3160	1221	4151	1019	-15232	5028	-844	1003	13731	4154	176	114	1
-4436	-4732	8900	5458	-32768	-18728	-2152	-3688	-8780	6769	-30141	5762	-10312	-1068	-7688	4425	-8208	-9250	-8400	5344	13800	459	1728	-1103	-15256	1872	-1952	300	4146	1450	-15280	772	544	3210	13435	2903	152	128	1
-5412	-4484	8972	2297	-32768	-20339	-4412	-2076	-8032	8320	-32768	7488	-10112	-484	-8512	5591	-4831	-9102	-8208	4956	13912	542	1903	-1251	-15812	776	-936	1894	4848	2013	-16112	908	2144	4853	11397	2121	136	136	1
-7736	-5844	9424	508	-32768	-20942	-6880	-1200	-7508	8719	-32768	8567	-9936	1588	-10364	6298	-1399	-7937	-8168	6216	13756	625	2053	-1511	-16736	384	-620	4877	5452	2093	-16420	2352	3212	6445	9981	1616	131	140	1
-12808	-6748	11748	-486	-32768	-21181	-7272	52	-10096	7200	-32768	9852	-6928	3784	-9496	8069	1355	-5620	-8624	5148	13528	594	2070	-1780	-15908	3476	-2248	2734	6006	2681	-14740	2312	3284	6979	10791	2447	117	143	1
-14648	-7712	13472	-2848	-32768	-21147	-12248	1252	-11780	6707	-32768	9391	-6240	6228	-8196	11245	1634	-3616	-8612	4276	13568	206	1531	-1539	-13892	1484	-2952	2510	6720	2691	-13844	1668	2924	5080	14059	3431	127	148	1
-16560	-6052	18284	-8873	-32768	-20987	-17364	7376	-13468	-1539	-32768	11059	-7900	6836	-4544	13424	-921	-1435	-8500	5236	13184	-240	1192	-1037	-13692	3904	-1876	3067	7196	2480	-12968	3976	-404	251	14441	3380	136	154	1
-28624	-9084	22608	-16484	-32768	-18760	-20156	6280	-13924	-14551	-32768	7354	-9556	7920	-376	15234	-4239	-582	-8212	6004	13488	-558	810	-1871	-15560	4088	-2568	-1363	7649	2898	-14900	7132	-5188	-1231	9869	2706	178	205	1
-32768	-9740	21768	-18220	-32768	-18029	-15276	-2648	-15336	-30421	-32768	-702	-9900	3848	3320	9418	-6727	-1788	-8492	4656	14340	-163	1788	-1939	-16584	1316	-4460	-1050	8312	2822	-16588	7528	-5104	99	6390	1871	252	253	1
-32768	-4588	14356	-15796	-32768	-17097	-19444	-5436	-12996	-25144	-32768	-4613	-13272	-4072	2668	-1434	-4392	-4042	-8496	4584	14752	544	3614	-1763	-16960	1248	-4388	575	8440	3143	-16712	5132	632	-1881	10413	2226	251	253	1
-32768	2020	7500	-15930	-32768	-14702	-22480	1800	-12924	-11952	-32768	-5490	-19040	-8876	10868	-6347	-2345	-6109	-8348	5156	14784	839	5530	-1726	-16300	3508	-948	-228	9880	3117	-16304	3584	4216	-1938	12042	3075	252	253	1
-32768	6064	-180	-13129	-23597	-13321	-16120	-4224	-11736	-12135	-26436	-4886	-18900	-4164	24264	-5220	-3818	-4292	-7876	5808	15648	930	8455	-2784	-18200	3524	464	-2447	12106	3608	-20200	-696	3532	-1885	8501	3103	251	253	1
-32768	9688	-10876	-2717	-14335	-12308	-11508	-560	-8784	1771	-11511	-4477	-14648	-13532	25404	-11487	6457	-2451	-7728	5840	16816	897	12759	-3925	-20016	516	-632	-1139	14518	4278	-21992	28	5824	1905	4772	2045	217	253	1
-32768	17100	-13540	3879	2337	-11247	-8988	-92	-9028	6958	4009	-1505	-14892	-17272	11332	-14199	4241	-849	-8208	5440	16920	1662	18248	-4933	-20756	-924	-412	2722	16960	5150	-21172	2076	4300	8788	3552	939	184	238	1
-32768	11288	-6964	6864	15366	-7129	-10364	-2596	-12544	13140	15603	393	-14344	-11256	2000	-5517	3799	-298	-7936	6024	17312	2497	25366	-6566	-21380	-564	860	4239	19741	5964	-21548	1372	4476	10342	583	-472	177	218	1
-22200	-1824	9956	21824	23627	-2185	-12844	-1640	-11368	19360	20024	-113	-10808	-10308	-1316	-15204	2859	202	-7272	6176	18112	3625	32767	-8900	-24644	240	-296	2906	21939	6664	-22364	2184	9440	8982	-3357	-1015	129	205	1
3216	-6408	32767	9538	10225	-7313	-21180	4896	5772	18721	13011	-932	-140	868	-15592	-4301	12424	5848	-7612	9320	18892	4398	32767	-12666	-30672	-4216	2724	4312	23945	7431	-22576	-6184	13388	-117	-4439	-4557	67	174	1
15484	-588	9012	7480	29008	-1150	-32768	6048	7428	30073	9218	3238	-24168	-872	9056	18870	-549	8981	-12912	9332	20204	5770	32767	-19134	-30024	-4768	3508	8754	25051	8907	-26144	-3560	13708	721	-11281	-6919	53	176	1
-32768	20736	32767	5734	30035	10349	-22244	5984	-9016	27818	7602	3907	-32768	-21068	18232	29505	7295	1470	-25080	14972	18936	7603	32767	-21526	-30704	344	296	14476	25621	9533	-24228	-584	2584	15004	-20836	-9566	19	151	1
-29244	-10640	16168	5504	9348	6155	-17296	7460	-9204	9009	14451	-2385	-25280	13440	8144	14347	13727	1952	-26708	12500	14224	10436	32767	-23009	-24364	10564	-9184	11145	24698	7309	-25128	7324	-4848	20371	-23710	-5643	0	54	1
-6416	4216	17548	6925	6297	5382	-17612	8188	-9176	6887	14801	-3638	-12512	24572	-14776	-6831	17282	3440	-32768	4880	20900	6002	32767	-26006	-18320	11128	-15328	904	20454	6075	-21620	9768	-10328	21302	-22042	-2985	0	47	1
-11440	-10672	11836	4784	3849	1941	-16104	-3712	-9560	-3562	15557	-5125	-4272	500	-7756	-24415	4470	314	-24088	12976	23760	16762	32767	-18092	-16424	5132	-7712	-6019	16565	4615	-24564	9912	-12112	7822	-23958	-767	0	51	1
-10204	-5624	13168	3400	2583	2423	-17332	-2200	-8792	-6941	12665	-2988	-14892	-17780	-9760	-18558	11794	-500	1536	21716	24256	8992	23695	-18534	-13392	9068	-8512	-7877	10280	921	-24408	7224	-8984	-6098	-26509	396	0	54	1
-8272	-3236	14304	2327	1840	1550	-18724	-48	-5872	-5657	9577	-1944	-19528	-10828	-5224	-8096	8005	246	-32768	25828	26876	-6263	-3423	-9104	-12100	11172	-9864	-7128	9282	550	-22128	4868	-3588	-12141	-25411	1095	44	46	1
-8116	-4800	13536	1511	2272	1159	-17752	-3240	-6148	3617	8101	74	-18916	-4184	-3616	-227	9764	8721	-5620	10236	20432	-11136	-32768	10453	-4512	4772	-9152	-877	-2762	-120	-21712	2504	-2292	-5524	-21576	1541	75	52	1
-8444	-4288	13380	1141	2697	823	-16604	752	-5420	4520	7053	-843	-15648	-2944	-3888	1737	9234	10489	4308	4708	12256	-8573	-32768	15496	-7732	-3444	-3232	518	-10631	-3195	-21228	3336	-4320	-1702	-19571	431	81	63	1
-8876	-4540	13248	521	2649	588	-16580	2084	-4572	-1279	6579	-620	-15628	-3204	-3284	1810	9225	8318	3604	2376	8952	-7185	-32768	12919	-5736	1600	-6880	2402	-17919	-4674	-18568	2440	-5964	-2637	-18230	263	82	40	1
-8660	-4800	12800	-24	2341	389	-16344	-620	-3476	-4040	5816	-263	-15852	-3256	-2052	3093	10307	6809	-772	-2532	9392	-3808	-32768	10184	-3608	1732	-7808	-1891	-24033	-6561	-14664	1616	-6500	-1837	-16018	-288	79	25	1
-8268	-5096	13084	-199	2308	791	-17036	-1368	-3368	122	5864	-316	-15108	-2184	-968	5118	10913	6508	-2540	-1628	10324	1954	-32768	9713	-3004	432	-7804	-2639	-29053	-9203	-14076	1652	-6608	-1344	-15460	-470	83	21	1
-8748	-3816	13188	-456	2654	1066	-16496	2080	-4420	3386	5500	-163	-15552	1292	-68	4741	11794	5902	-6240	2600	11960	3256	-32768	9512	-4380	-1788	-9084	428	-32768	-10392	-9436	3248	-7716	105	-8974	-940	89	23	1
-8804	-4140	13064	-771	2882	922	-15744	3328	-4296	458	5701	-565	-16040	1588	-1180	-245	12368	6946	-9596	2372	14640	2884	-32768	10864	-6604	1152	-10368	5006	-32768	-12213	-7892	3712	-8248	-1594	-5342	-375	92	37	1
-9104	-4252	12620	-1006	2768	1080	-15516	1044	-3844	-2630	5926	-1475	-16536	-808	-1440	-3227	13215	7069	-12040	2052	16676	4977	-32768	13918	-8072	1980	-9612	3206	-32768	-13637	-4956	3284	-9456	-3757	-2843	-103	90	53	1
-9184	-4896	12452	-867	2392	1500	-15996	-372	-2496	-2809	6526	-1804	-15012	-2568	-412	-3075	12931	5795	-14376	4908	19132	6066	-32768	15012	-12388	2424	-9136	514	-32768	-15855	-3308	2488	-11328	-7906	-625	293	89	68	1
-8812	-4992	12652	-550	2365	1995	-15936	260	-2116	-2205	7461	-1641	-15092	-2852	556	-1733	12355	4709	-15616	2632	22104	7793	-32768	14425	-18348	2652	-13444	-3697	-32768	-18002	-4556	2096	-10508	-9385	839	-1265	85	83	1
-8832	-3984	13240	-75	2990	2029	-16368	-244	-4028	-416	8100	-1361	-15688	-4088	20	-565	13343	4526	-22572	2476	28840	12122	-32768	13225	-22316	-1084	-10956	1630	-32768	-21944	-8708	3648	-5440	-12379	-1496	-2807	80	100	1
-9232	-4032	12936	86	3703	1804	-15832	464	-4832	180	8110	-873	-14332	-3968	-1724	-3527	12184	4216	-32768	13992	30012	9700	-32768	13473	-25480	5664	-12720	10369	-32768	-19979	-9548	3020	-3128	-13377	-2751	-2849	83	119	1
-9580	-4616	12348	376	3966	1919	-15004	-360	-3288	-1170	8884	-685	-14028	-3004	-5780	-4235	13367	4048	-32768	10548	18256	2079	-32768	15267	-18620	11272	-12452	7697	-32768	-13626	-19756	6488	11532	-7397	-12589	-3693	90	111	1
-9204	-4772	12928	1056	4321	2437	-15572	-1424	-2480	-411	10419	-688	-16516	-5012	-3112	-3139	9113	3261	-32768	-1136	4856	4099	-32768	12597	-19832	5368	-10224	411	-32768	-10559	-15772	-5072	20928	-652	-230	-2919	100	100	1
-8976	-4120	14440	1370	6382	3183	-19404	-384	-4208	2152	11316	352	-17604	-8012	-2096	2895	10437	3879	-32768	-7056	-6156	10411	-24008	8484	-15592	892	-7900	3212	-23876	-7155	-18100	-11180	29048	-9783	5553	1133	101	84	1
-9068	-3940	14752	1270	9550	3640	-18932	1560	-3368	3064	11947	1209	-17688	-3888	-72	-5059	7487	3256	-32768	-15588	-15736	12605	-10577	-776	-6340	3064	-5832	16230	-8483	1646	-18088	-10716	27140	-5862	4097	865	103	77	1
-9176	-4784	15324	1062	12587	4365	-17256	1432	-1412	1129	14335	916	-19000	-2144	2512	-3964	6429	3905	-32768	-9648	-9860	3825	4813	-7173	-5200	11236	-10444	12427	8833	6520	-16416	-3900	17884	14534	-6	-433	111	99	1
-9368	-6232	15484	1206	16320	5848	-20328	2220	628	-148	17041	645	-19840	-5448	2864	-4786	5497	3235	-32768	-692	-13328	-16260	18600	-11113	-9740	8124	-16368	-273	20024	9689	-16128	-1088	5904	20299	1128	-2543	131	89	1
-9068	-6664	15920	1176	21136	8339	-20996	1800	-16	-495	19995	327	-21572	-5988	5052	-6730	-258	735	12648	12976	32767	-8485	18045	6431	-20948	-8384	16216	-8179	19604	5892	-1228	10216	-2356	4474	2684	788	148	82	1
-8648	-6976	19008	658	27825	11402	-25172	2608	-1772	-954	22685	68	-24804	-7416	10532	-11236	-14396	-1754	-3048	-12608	3364	-3772	32767	-1345	-32768	12048	-11672	-32149	13785	5389	-23264	2944	-21532	300	8133	3780	166	88	1
-10480	-10628	19408	78	32767	15834	-32252	5240	4412	-3705	23846	-414	-25168	-7376	12824	-15580	-15927	-4586	-32084	-8004	31636	2374	21743	-7039	-12680	-11328	-10992	-25179	16102	4963	-23984	15096	9836	-30200	7357	7	175	130	1
-14176	-13452	20752	-270	32767	26679	-32768	9624	3772	-11129	25972	-4269	-26528	-2376	8712	-1093	-18589	-1136	-32768	32767	17396	-4245	11447	-4597	-17996	5884	-10568	8440	15056	7050	-21404	-11992	1816	-14970	11874	5382	181	129	1
-26568	-9848	21620	-4091	32767	29951	-30748	2452	-3884	-20111	29023	-5063	-25676	-7324	6836	-9948	-20613	-4062	-4660	-8856	20204	-3580	2897	-3421	-22260	7736	-9172	4084	13431	13019	-12340	-2800	-11200	15017	9295	4432	202	110	1
-31124	-11756	18032	-5506	32767	29327	-30056	892	-5060	-21292	29833	-4992	-21476	-2008	-14756	-6850	-15637	-5677	-9156	5612	15020	-1399	2231	-1878	-14452	1568	-6800	5228	11500	5587	-14088	2188	-5024	24808	7122	5889	217	100	1
-32768	-12768	17064	-9358	32767	30581	-26572	-6480	-13216	-20453	27134	-1441	-23412	-3924	-13112	8121	-18382	-9150	-8532	9688	13412	-1013	1407	-1503	-18352	2324	-6136	14247	8628	6352	-14748	13352	-2588	13872	9913	7673	216	104	1
-32768	-15124	17568	-10297	32767	30323	-14136	-9024	-14276	4615	13426	2893	-25932	-2908	-5932	13868	-19618	-11402	-7632	5288	14732	-411	1597	-655	-16828	10448	-6140	4567	7841	3282	-14412	10908	-3312	7454	12721	4176	218	141	1
-24668	-11896	7936	5043	11247	21221	-8260	-3168	-13100	14212	4771	-188	-23732	-2104	-6420	11810	-20158	-10209	-8300	5368	14236	-533	1500	-304	-16880	6760	-5224	-5668	6030	2323	-17216	5112	-1912	5013	12178	2407	220	143	1
-23964	-12584	14528	2997	3529	14760	-5248	568	-11196	6854	-1625	-3049	-20804	1096	-7924	9126	-17252	-11241	-7552	5060	14428	-394	1775	-211	-16584	-656	-2656	-2270	5185	1114	-16660	6440	-708	3856	13324	1249	207	125	1
8000	-15448	13008	-2011	-24487	-25567	-8092	6128	896	7617	-10179	-3633	-20016	-252	-7444	4678	-17049	-12117	-7580	6604	14244	110	2254	-513	-17732	872	-2580	5968	4751	1199	-15980	6608	-352	2356	14247	1178	194	111	1
4944	-10384	10596	3875	-26589	-28626	-7716	664	-4472	2847	-17871	-1361	-16904	-1340	-7348	2187	-15644	-12200	-8376	5412	14040	466	2081	-731	-15904	3992	-3460	5584	4304	1429	-15512	4316	-348	2433	15855	2314	191	117	1
-128	-2984	11784	5605	-28011	-28568	-4276	-3272	-6188	6770	-24998	275	-13548	-664	-7520	1083	-13189	-11696	-8092	5412	14212	855	2140	-971	-15800	3936	-3024	679	3683	1109	-15596	1644	36	3190	16674	2499	182	122	1
-5380	-496	12948	3695	-32768	-28885	-4468	-2304	-7732	10067	-31486	1932	-11796	-1432	-7824	1888	-9530	-10248	-8232	5088	13940	889	2179	-998	-15624	832	-2276	-1073	4007	882	-15452	832	920	3870	14880	1569	171	123	1
-8464	-1640	13484	2534	-32768	-27043	-6668	-788	-9388	12168	-32768	4536	-9100	-444	-8804	5251	-5179	-9897	-8120	5268	13732	735	1983	-1093	-15120	1432	-1568	2085	4558	1294	-15660	1364	1476	2032	14230	2112	135	135	1
-8844	-1360	13516	1777	-32768	-24588	-7088	-620	-9360	12434	-32768	4962	-9800	2000	-9944	8708	-832	-8887	-7940	5820	13544	513	1580	-1620	-17320	1564	-1440	1997	4983	1989	-14488	1712	2468	21	15939	2966	144	166	1
-12448	-3028	15784	-168	-32768	-21299	-11224	3492	-10576	11506	-32768	9617	-8824	3932	-8520	12171	-801	-6883	-8236	5696	13928	198	1554	-1922	-14988	2536	-1208	2034	5128	2530	-15584	2756	1324	-2343	17184	2543	171	229	1
-17884	-5792	19584	-2116	-32768	-19394	-12880	3448	-12540	5995	-32768	10295	-7792	6376	-8240	14830	-1740	-4347	-8376	4820	13868	16	1593	-1839	-13996	1876	-852	2052	6675	2219	-16096	5808	-464	-2728	13735	2615	221	253	1
-18628	-5088	22412	-6071	-32768	-19106	-13772	4940	-13156	4267	-32768	10339	-8504	6184	-5300	16133	-3520	-1807	-7928	5400	13916	51	1947	-1456	-15164	2544	144	-575	7978	2006	-17012	5984	-1856	-2456	8578	2203	227	253	1
-25916	-4748	24516	-12924	-32768	-17116	-18236	8564	-12900	-19127	-32768	9320	-8260	6424	-1136	16735	-4901	-998	-8072	5916	14088	-169	2532	-2315	-16984	2292	-2464	-2555	8872	2357	-16840	2972	672	-3275	6823	1535	219	254	1
-32768	-7176	24060	-17091	-32768	-14944	-19464	-2332	-15108	-30033	-32768	1245	-8096	4048	2320	13094	-4330	-1902	-8344	5224	14520	-321	3614	-2638	-16600	-208	-2992	-898	9439	2838	-15772	1404	744	-788	9137	2483	220	253	1
-32768	-5440	17356	-15472	-32768	-12080	-24620	-5636	-12892	-21100	-32768	-3137	-14520	-5328	7124	5123	-5774	-4620	-8276	4844	14672	26	5176	-2642	-15476	1312	-1948	991	10541	3433	-16220	732	192	2071	10410	2636	226	253	1
-32768	4328	5632	-14261	-32768	-8386	-21620	2388	-12328	-11465	-32768	-4884	-20760	-5888	16880	-3079	-4488	-4293	-8200	5360	15204	415	7627	-2788	-17300	2284	-912	-465	12596	3382	-16440	688	412	2121	10182	2780	235	235	1
-32768	10844	-5304	-11919	-22215	-10232	-12476	-1820	-10784	-2872	-24226	-2897	-19436	-8520	29504	1904	-3284	-3152	-8100	5832	15852	371	11120	-3670	-18492	396	360	-914	14772	3688	-19788	216	4928	3116	5261	3189	225	218	1
-32768	17756	-17872	562	-11193	-10073	-2888	336	-8824	-1798	-5458	-1931	-13448	-18168	25396	-9419	1832	-2460	-8140	5556	16464	277	15408	-4704	-18772	392	32	-70	17466	4538	-19840	2200	6060	5245	4330	1908	200	208	1
-32768	20188	-16268	7901	5209	-6014	-7144	-5676	-12532	4619	13165	-473	-13964	-9952	12316	-11773	-890	1472	-8492	6276	16708	304	20819	-5903	-19960	1848	144	70	20179	4753	-19784	4700	4504	7296	2477	152	180	194	1
-32768	15992	-15120	17591	25264	9283	-13664	-7276	-16268	19762	20999	861	-13376	-6436	876	-16264	790	3824	-8132	7844	17832	568	28081	-8727	-23232	364	-928	-588	22362	5680	-22400	3304	5588	9515	-1064	-657	136	185	1
9816	-19160	32767	6961	18626	1195	-21500	6368	20988	29130	15185	3092	-10260	-6748	-6244	-22089	6988	1345	-7204	8456	18864	1305	32767	-12817	-29264	-3028	4024	4395	24727	5733	-24484	2476	14680	3682	-8399	-1546	71	176	1
-5668	68	8992	12035	32767	5351	-32768	14784	-9524	29075	16597	-983	-25320	960	11868	123	-11025	5404	-10804	11116	20364	985	32767	-21074	-32768	-2052	3004	7487	25696	7064	-26336	-4080	9180	2344	-8850	-3573	24	161	1
-29948	4960	30016	3193	23005	5775	-7264	6204	-6804	5297	15543	1849	-27756	-17752	72	19245	6626	2932	-22600	16628	23044	1434	32767	-26546	-32768	-1304	3848	9093	26628	8255	-26600	-3204	11468	-1340	-16404	-9252	1	145	1
-25520	-23128	10448	6297	9797	4483	-14720	-5584	-12364	2042	15745	-3013	-14152	13972	-1948	6313	16388	3612	-26512	14124	22048	3417	32767	-28544	-29036	6904	-3908	9078	26323	6706	-25700	4680	-1848	16413	-23532	-6849	0	90	1
-11364	15032	21988	9780	6308	8293	-24296	-3220	-11576	10956	13869	-7924	-12996	6576	-18548	-6914	9871	1531	-19808	5192	16484	2906	32767	-31552	-21444	11192	-11220	3300	23632	5000	-25252	8548	-10232	21442	-29330	-3735	1	44	1
-11312	-9772	12572	5824	2406	1842	-16516	5436	-10208	6961	12398	-2596	-12452	-1976	-404	-5959	7635	-1179	-31312	11716	22952	9515	32767	-25035	-17624	4956	-10648	-6265	17398	4764	-25632	8656	-12348	13849	-26543	-1691	0	41	1
-9168	-4084	13552	2728	1549	1270	-15432	5388	-8604	-6328	12608	-2635	-19440	-4504	-7900	-8034	13224	1576	-7580	22632	29436	8082	26655	-22452	-13688	5912	-9284	-6329	10686	2757	-25308	6376	-10404	-2148	-26786	90	0	42	1
-7836	-3132	14236	1970	1970	936	-19388	-1152	-7516	-10645	9473	-3602	-16996	1012	-4452	-6790	9235	3459	-32768	13888	15036	-5136	6667	-14038	-8572	8780	-16296	-3059	2593	634	-24720	6520	-8612	-5089	-26782	594	32	22	1
-8392	-4084	13744	1200	2044	389	-17684	-2616	-6588	-2842	7686	-1963	-17340	-4044	-3080	-8027	10103	7719	-11432	11556	23352	-6369	-30535	11567	-3828	5380	-10896	3646	-1756	-1474	-20548	3312	-2344	-7940	-22971	3046	63	32	1
-8160	-3980	13816	695	2138	-182	-16996	-280	-4732	1987	6282	-1587	-16544	-5752	-4068	-4200	10076	8824	-5900	11940	21296	-5855	-32768	14466	-8860	-2116	-3700	1928	-10216	-4000	-23196	2204	-4680	-892	-20792	1328	76	49	1
-8116	-5016	13144	155	1954	19	-17008	92	-4064	-587	5074	-384	-15008	-5228	-3292	-778	10091	8392	4136	5232	7884	-6181	-32768	20366	-5792	1704	-6136	668	-18529	-4672	-18540	1740	-6664	-58	-18834	836	82	38	1
-8280	-4948	13036	-42	1792	550	-16184	-820	-3528	-3047	4740	-877	-16244	-3628	-2632	693	11762	7468	-632	1176	8184	-7411	-32768	17375	-3976	2748	-6900	-5777	-24281	-5683	-13708	3276	-6492	-1255	-16993	-78	85	24	1
-8348	-4096	13324	-140	1671	687	-16552	-368	-3644	-677	4558	-921	-15564	-1872	-440	2690	12060	7038	-5560	-2404	10416	-2707	-32768	15567	-1260	2184	-7428	-8219	-28495	-7584	-9516	3896	-7392	-3095	-13697	-367	82	19	1
-8496	-3352	13252	-248	1644	473	-15920	1584	-2980	1077	4297	-609	-14824	884	-228	2645	12079	6209	-5012	440	11252	1687	-32768	14051	-3204	-156	-8412	-5159	-32368	-9720	-7424	5004	-8528	-4006	-9522	-631	83	30	1
-8444	-3956	13040	-156	1342	451	-15188	1016	-2588	66	4614	-1078	-15092	-4	-176	502	11884	6050	-7180	1580	12860	2913	-32768	13274	-4968	568	-9120	-1394	-32768	-12349	-6124	3916	-9120	-6839	-5381	-691	87	44	1
-8228	-4440	12924	5	1252	763	-16068	-208	-2880	-957	5244	-1447	-15920	-2044	-1480	-3034	11733	5980	-12012	1920	15440	4521	-32768	14730	-6820	708	-10132	-1565	-32768	-14513	-4984	2828	-10196	-8603	-1537	-679	90	61	1
-8544	-4280	12928	11	1368	1230	-17212	-16	-3540	-2639	5697	-1609	-16248	-4400	-1000	-6215	12174	4759	-13224	2784	19264	6979	-32768	16891	-9928	2212	-10860	929	-32768	-17238	-3588	2092	-10540	-11050	313	-21	88	76	1
-8528	-4064	13212	-39	1412	1468	-16340	-216	-3056	-3568	5753	-1510	-15768	-4048	-128	-7257	12334	4228	-15308	2844	21420	9760	-32768	17538	-19296	2500	-12676	1993	-32768	-19835	-6212	3280	-10632	-12317	1738	-52	81	81	1
-8480	-4444	13288	67	1597	1565	-15376	-816	-1088	-3358	6511	-1241	-14260	-3796	-188	-3476	12985	3691	-24768	5016	26664	10940	-32768	14644	-21644	3100	-10788	7088	-32768	-22641	-9764	4052	-7108	-16643	216	-800	72	105	1
-8564	-4364	12868	214	1836	1664	-15416	-512	-112	-1401	7834	-852	-14904	-6176	1068	-387	12683	3624	-32768	11420	30908	10493	-32768	9956	-24636	7144	-14256	11569	-32768	-18173	-13376	4772	196	-12203	-5744	74	78	119	1
-8352	-5192	13192	606	2460	2088	-16304	-652	-1260	64	9485	-701	-15440	-6384	1240	-652	11534	3269	-32768	9052	18280	14848	-32768	11896	-25168	6508	-12432	12624	-32768	-16630	-16760	1728	6584	-4064	-6465	-2200	87	113	1
-8896	-4052	13792	318	3827	2587	-17744	1196	-2772	132	10463	-515	-17120	-5224	-1968	-3122	10978	2944	-32768	4488	4828	14755	-32768	11242	-19416	7516	-7420	8139	-32768	-6282	-18016	-6200	15508	-4404	-1068	-3642	96	96	1
-8624	-3324	14256	487	5129	2722	-16248	144	-2112	-418	11712	-180	-16656	-4600	-3808	-4153	8879	2554	-32768	-5016	-2908	12925	-23193	15396	-18284	2976	-11040	-132	-26060	-3841	-23796	-6652	32767	-13171	2780	-1961	97	85	1
-8516	-3960	15116	687	7094	2827	-17496	-780	-1708	471	13456	465	-17400	-4528	2112	-2363	6314	3098	-32768	-13932	-16632	5492	-9017	15243	-4580	1872	-2328	10482	-9009	763	-19768	-15684	32767	-11774	1180	1428	100	80	1
-8628	-4352	15428	1038	10449	3899	-19204	1240	-2100	1679	15153	817	-17108	-5308	1424	-5778	4384	2870	-32768	-15644	-16920	1241	6217	4030	-1620	12732	-10300	-692	10636	5565	-15500	-3040	21204	12579	325	893	109	100	1
-8980	-3588	16344	1696	14558	4962	-18920	1988	-2844	1526	17149	678	-19244	-2940	460	-10152	2346	3002	-25956	-532	-14436	-18336	28589	-6733	-14816	6904	-12268	-15120	21157	7909	-15716	-488	7184	16371	3393	975	125	99	1
-8844	-5316	17008	1868	19312	6481	-20768	2828	-2080	748	19440	457	-20772	-4292	108	-5471	-777	2805	4388	11184	32767	-9626	21830	6475	-22036	-13032	13328	-17667	17821	3461	-14648	-988	40	-1995	1187	1829	137	96	1
-8624	-5928	18360	1484	24827	8870	-22960	1748	-1096	-1564	21627	-189	-22324	-7100	5236	-1813	-3814	1116	-5904	-10952	6812	-7500	32767	-2237	-32768	1640	-7888	-28063	14692	6179	-17828	11692	-11120	1799	7054	3477	153	107	1
-8924	-8040	19440	350	32767	12782	-28224	1728	2256	-4185	23778	-342	-23012	-10704	11888	-1447	-10762	-1461	-32768	-10644	32767	-1737	23396	-6174	-13988	-8096	-10556	-19352	18307	6552	-22424	10876	8736	-32768	1739	578	165	111	1
-11152	-13924	19660	870	32767	21025	-32064	5688	3796	-7574	25468	-2921	-23320	-7932	15676	-9258	-23360	-3118	-10860	8904	19212	-758	14825	-8609	-15148	2736	-7972	-963	14725	6916	-20796	8672	11028	-32768	3612	1415	177	120	1
-19252	-10388	22332	-485	32767	27928	-31512	5424	-504	-13654	27520	-5477	-26800	-3716	11780	1092	-20102	-1764	-17052	19164	17344	-1373	14504	-7535	-20848	14696	-10832	1482	14845	9329	-13732	-6724	-3568	1453	8922	4861	193	107	1
-27468	-8312	22908	-6503	32767	29020	-31192	-1112	-7092	-20093	30306	-2645	-23348	-5104	-1156	-5195	-20444	-2761	-8532	7000	15260	-4254	2010	-2761	-17884	-1400	-7552	-5973	10898	8600	-15676	6040	-7312	22580	9801	4192	205	82	1
-24712	-10132	15660	-6070	32767	30149	-24852	-6468	-13240	-15822	26924	1280	-23108	-4636	-14224	-78	-14933	-6656	-6916	1904	15860	-981	1440	-1613	-16404	-508	-4536	5552	10226	5399	-15604	9296	-4048	6808	8527	6844	209	86	1
-31664	-16980	21596	-8692	32767	30204	-18280	-5224	-10404	1008	19553	2579	-26700	1756	-7752	5755	-19716	-9253	-8696	6552	14160	-1288	884	-1441	-17100	4880	-5640	10736	8317	5052	-15140	5668	-1908	5711	9835	5484	205	107	1
8176	-26736	27976	6285	21468	32767	-10472	-6324	-15532	5315	10416	95	-24664	1396	-4740	12718	-21545	-10821	-8536	4880	14492	-1061	1030	-870	-16988	7132	-6248	1842	7460	3598	-15776	4828	-1876	9997	11357	2472	210	132	1
-19460	-13976	23324	-270	-5194	3937	-8360	3648	-20548	9068	3437	-1895	-23432	-3420	-6008	6895	-22053	-11018	-7512	5272	14412	-1272	989	-524	-16640	3636	-4448	-2027	6031	2729	-16152	7072	-1844	5873	12069	1428	205	125	1
6304	-14916	18456	-4588	-20992	-19287	-4996	5692	-3212	3445	-3361	-2944	-22140	-312	-5588	475	-19732	-11248	-7140	5536	14392	-664	1570	-590	-17684	1564	-3360	116	5110	1406	-16992	7704	-1232	2263	13325	687	198	110	1
9984	-12544	11508	-753	-20994	-26785	-10268	4840	-1596	2586	-13602	-1735	-20036	-1696	-7636	-109	-17679	-11187	-8332	5372	14120	-305	1629	-964	-16944	2352	-4360	3845	4042	1269	-16408	5240	-1200	961	14513	1851	193	118	1
3488	-6384	11320	4682	-21095	-27230	-5336	-3084	-5260	6477	-21956	-658	-16120	-1484	-6308	-729	-15462	-10914	-8196	4740	14352	-12	1520	-900	-15456	2320	-4144	3170	3750	1324	-15296	2632	-1432	455	16133	3113	183	122	1
-2992	-1808	13424	5308	-26712	-27066	-2520	-1048	-7536	10627	-28765	-159	-10788	232	-6200	872	-10534	-9471	-8140	4736	14212	229	1394	-846	-15692	2512	-2952	143	3502	1162	-15496	1956	-452	975	17437	3060	167	124	1
-3900	-1008	13648	5177	-28093	-27167	-3232	648	-8536	10738	-32768	2825	-9324	-212	-7436	2404	-7395	-8160	-8068	5076	13952	254	1273	-830	-15044	1696	-1632	-405	3716	1268	-15252	1252	1432	2914	16036	2609	145	130	1
-7636	708	13704	-711	-32768	-24076	-5916	1664	-7768	9200	-32768	4753	-7984	528	-8792	4139	-5034	-7695	-7776	5848	13872	118	1217	-1183	-16260	2020	-960	167	4293	1696	-15960	1628	2428	3080	14178	2835	135	139	1
-9012	-28	14300	-3775	-32768	-20587	-9512	2648	-9552	6590	-32768	6715	-8896	3224	-8780	6822	-1409	-5442	-8104	5212	13972	-63	1117	-1913	-16336	1328	-1324	1159	4687	1995	-15656	588	2792	2120	13504	2964	121	153	1
-13208	-2868	17160	-5464	-32768	-17514	-9752	2844	-9280	6338	-32768	6883	-7180	5168	-7840	9474	-268	-2499	-8200	4968	13876	-350	921	-2166	-14632	72	-1340	3130	5493	2651	-15132	1068	2108	-13	14885	3053	150	190	1
-18432	-4632	22076	-7350	-32768	-17078	-13792	5864	-13184	-2482	-32768	7782	-6864	7096	-6784	10405	-669	-297	-8296	4140	13852	-619	740	-1644	-13372	2484	-492	2807	6899	2682	-14712	3372	1000	-696	15131	2976	210	253	1
-21076	-3288	26316	-11128	-32768	-18688	-20852	9044	-12888	-15188	-32768	9440	-8384	5608	-4364	11775	-1938	789	-7644	5780	14308	-601	1174	-1970	-16200	3680	-632	-1279	8150	2343	-17420	5944	-3120	-303	8453	3013	246	253	1
-31904	-4924	26180	-14367	-32768	-18793	-19296	4300	-13544	-24146	-32768	7518	-7796	3092	-600	11662	-2793	-637	-8128	5092	14568	-671	2178	-2725	-17752	2008	-3164	-2270	8813	2270	-18012	4428	-2192	-1611	4859	2599	243	253	1
-32768	-7032	22692	-12406	-32768	-17047	-21740	-5256	-13904	-25273	-32768	1653	-10352	176	-324	10579	-136	-4170	-8052	4480	14768	-862	3609	-2905	-15976	76	-3368	421	9156	2839	-15764	2848	980	223	8876	2926	244	253	1
-32768	-4408	12936	-10617	-32768	-13642	-25476	1064	-11892	-12116	-32768	-2816	-18208	-6520	8224	6786	-3365	-6108	-7876	4448	15324	-634	5331	-2857	-16216	1384	-1204	1326	10671	3121	-16176	3028	2940	2149	11260	2747	248	253	1
-32768	4704	-564	-12666	-32768	-10166	-18900	2968	-11700	-6768	-32223	-2441	-24668	-7752	23048	4385	-4939	-2305	-7652	5016	15884	-470	8064	-3179	-17064	1484	860	-442	13030	3163	-18660	1272	3328	2041	8539	2991	249	248	1
-32768	13232	-12840	-11753	-16753	-11444	-9100	616	-8284	-5376	-16647	-3581	-15576	-12196	32767	1730	-3092	-1482	-7812	4904	16468	-609	11875	-4001	-18276	280	272	-1667	15808	3634	-19676	-300	6008	1327	5330	2441	232	228	1
-32768	17360	-20320	-1309	-1911	-7781	-4416	-5944	-8812	-5964	4979	-1683	-15544	-12116	21028	-13989	1446	473	-8260	4908	17636	-771	16815	-4964	-20232	772	-1392	-838	18372	4021	-20916	2420	6096	3731	3894	632	202	221	1
-32768	10220	-12860	9979	13316	2856	-10236	-9320	-14552	7464	18063	-589	-13316	-6460	5620	-17862	-1417	3854	-8372	6392	17652	-785	22591	-6822	-21844	-164	-500	-174	20509	4741	-21116	3912	2808	7969	2451	-1137	162	206	1
-22088	-1656	3708	20956	22629	10391	-12504	-5744	-10516	23476	20322	-15	-13896	-4168	-4004	-21656	8106	4377	-8196	7336	18992	-924	29927	-10265	-23424	-828	600	1422	23055	5829	-22684	1352	6264	8033	-1642	-1424	119	188	1
13672	-16240	32767	6041	14352	-10740	-27656	16320	18184	32299	11122	736	-3700	3208	-20444	-15953	15405	-949	-8988	11764	20708	-1370	32767	-15760	-30608	-2448	5068	4488	25756	6575	-23680	-744	13632	-52	-5023	-3207	63	153	1
-13960	12212	14544	15913	32767	6660	-32768	5340	-7872	26994	14534	283	-31028	-8972	22016	20510	-15666	4539	-11600	12572	22552	-2483	32767	-24908	-32768	-1432	4772	5153	26943	8016	-26736	-6812	14424	-2705	-12417	-6615	28	155	1
-32768	-1180	26616	3565	12483	12732	-7724	7676	-8884	8144	15275	-497	-31952	-8644	7388	15420	8735	2063	-23556	11944	24392	377	32767	-29095	-32768	-728	-192	9055	26525	9085	-28172	-6048	13952	-3072	-14477	-8008	0	140	1
