#Activity	walking 
#ActivityID	1 
#Date 08-22-18-53
acc_rf_x	acc_rf_y	acc_rf_z	gyro_rf_x	gyro_rf_y	gyro_rf_z	acc_rs_x	acc_rs_y	acc_rs_z	gyro_rs_x	gyro_rs_y	gyro_rs_z	acc_rt_x	acc_rt_y	acc_rt_z	gyro_rt_x	gyro_rt_y	gyro_rt_z	acc_lf_x	acc_lf_y	acc_lf_z	gyro_lf_x	gyro_lf_y	gyro_lf_z	acc_ls_x	acc_ls_y	acc_ls_z	gyro_ls_x	gyro_ls_y	gyro_ls_z	acc_lt_x	acc_lt_y	acc_lt_z	gyro_lt_x	gyro_lt_y	gyro_lt_z	EMG_r	EMG_l	act
-7552	-7016	12516	-8	168	91	-14888	-952	-6072	-5058	366	-593	-16112	3240	-568	719	1783	190	6912	13872	13848	-1398	-490	-1160	-23560	-5624	-6000	-503	1269	208	-30496	8	-8824	-1008	-3640	1668	116	126	1
-7248	-7256	12556	-147	253	71	-16056	-11208	-3176	-3511	281	-758	-16976	4184	-1264	-243	1643	336	4448	14896	14632	-136	-1251	-134	-11824	-7040	-9040	110	426	-131	-27480	-3032	-5432	-1429	-3870	1880	129	125	1
-7876	-7912	11772	-195	287	96	-15608	-13192	-3208	130	561	-592	-16816	3568	-1520	-405	1609	437	8200	8872	10448	-387	-2027	1092	-3784	-6128	-4824	1605	-282	58	-21712	-3128	-3840	-584	-3199	1759	110	127	1
-7800	-8420	11508	-148	278	102	-14672	-7704	-3008	2211	952	-217	-15040	-5192	-2640	-465	1584	1120	6920	2288	9920	138	-2503	1803	-6784	-2344	-3672	1775	-1205	448	-20776	-2176	-4952	623	-3020	1529	119	127	1
-8256	-8496	11096	-45	214	122	-14592	-2344	-2912	2312	1035	98	-14680	-3928	-2136	437	1467	829	5320	3144	9872	475	-2964	2064	-6408	-2088	-3168	1052	-2336	711	-19368	-896	-6552	1168	-3027	1643	144	126	1
-7960	-8032	11664	21	165	117	-17080	632	-2112	851	816	-245	-16064	-240	-832	891	1532	730	4184	3648	10136	452	-3517	2111	-4496	-2968	-3664	890	-3007	914	-17544	-280	-6576	595	-3027	1423	132	131	1
-8004	-7660	11916	-19	175	134	-16752	-1000	-2208	-717	507	-412	-16056	2960	120	951	1597	699	2544	3920	10376	591	-4207	2055	-4208	-1472	-3856	769	-3628	1243	-14544	136	-7728	-211	-2637	958	127	133	1
-8228	-7572	11744	-59	175	146	-15192	-4288	-2168	-1391	480	-424	-15232	2464	592	426	1941	651	1376	5752	11024	799	-4847	2128	-5712	-2232	-4912	504	-4193	1426	-12872	-520	-8480	-800	-2603	450	125	131	1
-8008	-7876	11692	-64	166	163	-14776	-6448	-1584	-1158	575	-317	-15432	-472	2248	-597	2447	479	616	7288	11912	978	-5204	2250	-6016	-2128	-5000	509	-4315	1446	-10280	-776	-8912	-1148	-2465	431	123	131	1
-8008	-7828	11660	-90	180	170	-14368	-6248	-1648	-531	706	-301	-15632	-2904	2296	-1319	2769	482	-1384	8976	14200	1267	-5403	2498	-8552	-1168	-6688	274	-5357	1931	-5368	-1912	-8832	-977	-1354	365	122	129	1
-8148	-7640	11800	-74	199	184	-14424	-4512	-1920	-175	885	-253	-16648	-3688	-2504	-980	2348	546	-3272	10632	15376	1658	-5513	2724	-9528	-1024	-6584	-198	-5821	1898	-5152	-2464	-9120	-884	-975	155	102	130	1
-8004	-7556	11968	-102	292	213	-15064	-3752	-3336	-232	1011	-204	-18048	-3256	-5656	2	1572	374	-4888	12840	17208	1830	-5281	2923	-10936	-3200	-8320	-383	-6228	1995	-3712	-2032	-9864	-1025	-887	72	128	129	1
-8028	-7928	12020	-165	422	282	-16640	-4656	-2960	-362	1025	-233	-17352	-3136	-4648	415	1250	395	-9016	16904	20848	2162	-4893	3290	-13536	-4416	-10136	-13	-6284	2066	-2104	-2696	-10152	-1355	-777	-72	122	128	1
-8236	-9020	11852	-125	562	439	-16448	-5992	-3288	-384	1015	-231	-16656	-568	-3760	61	1412	348	-12968	24640	25840	2011	-4399	3860	-19544	-1536	-14144	216	-6268	2226	-3376	-3784	-8840	-1558	-584	-226	125	129	1
-7732	-9088	11912	-99	584	471	-15840	-5944	-4168	-375	1057	-191	-15984	448	-3240	-231	1430	358	-20088	22560	30096	1899	-3850	4863	-31160	3120	-18416	-877	-6459	2467	-7528	-2016	136	-1501	-703	-162	126	127	1
-9184	-8268	11992	-12	838	705	-16312	-5392	-2816	-545	1110	-107	-16832	-1336	-888	-328	1328	249	-32768	19576	29744	2610	-2864	5195	-30096	3848	-20496	-2048	-6253	1558	-12768	6432	11688	-410	-492	485	124	131	1
-9332	-8320	12160	79	1097	870	-17048	-5080	-544	-708	1295	-67	-20440	-4272	1936	-224	1265	153	-32768	18424	22312	940	-2190	4231	-21600	4424	-23760	-2678	-4439	378	-14496	8608	12888	-79	-267	661	123	133	1
-8996	-8280	12848	177	1382	1022	-16552	-5800	144	-649	1613	10	-18920	-5832	3704	-280	1159	174	-32768	3192	10672	-609	-1517	2224	-15240	760	-24768	-2507	-2835	315	-21640	10304	28608	1617	1003	361	117	131	1
-9108	-7764	13404	231	1815	1169	-17664	-4800	-1816	-412	1987	130	-17384	-3896	3336	-404	1111	129	-32768	-4728	3672	198	-634	122	-12112	-1144	-28016	-1289	-828	509	-19544	15624	30120	403	663	345	106	129	1
-9120	-6668	13648	164	2338	1298	-18864	-3040	-2120	-464	2269	226	-17704	-1064	2856	-523	1001	243	-32768	-1448	6512	356	282	-990	-5384	-1688	-23896	576	1432	640	-16688	13616	16880	-690	235	218	130	129	1
-9512	-6904	13332	57	2890	1453	-18504	-2952	-848	-575	2499	349	-18520	-912	3688	-733	623	359	-32768	-664	10256	-1023	1336	-1862	-7200	-1864	-20952	1663	3157	-47	-15072	3560	11400	-1380	71	-145	133	130	1
-10264	-8204	12816	-143	3459	1800	-19080	-3024	-384	-654	2809	386	-19552	-1840	6488	-850	-88	353	456	32767	10256	-5500	4093	-3360	-18976	9304	-4576	3513	3847	-257	18728	-3672	-17832	642	3678	-1610	117	130	1
-9484	-8836	13032	-347	4179	2442	-22736	-2128	1000	-991	3026	312	-22792	-5184	13400	-1001	-1395	246	7992	-24704	16944	-874	3773	-2438	-32768	664	18600	-310	601	871	-32768	29536	11384	3082	1976	152	124	130	1
-9600	-13192	17364	-527	5765	3132	-32768	-4440	11616	-2341	2935	625	-20336	-8856	11576	-1406	-1816	-474	-26240	19264	31072	166	3346	-668	-13728	-27264	-20272	-6199	1255	-1583	-32768	-7576	17144	-4514	1283	772	116	129	1
-26636	-15896	18412	701	6567	4557	-31168	-4480	3064	-3358	3007	731	-26936	840	11520	-854	-2405	-33	-4872	2232	20272	631	2346	-1080	-25160	-8952	-10872	-3079	4263	-1866	-11912	-23640	-10152	-2415	1425	-1046	133	127	1
-29500	-17424	23088	1310	6190	4707	-29944	-6432	1888	-3469	3108	702	-26384	-3768	-2896	-1164	-1638	35	-6224	10112	16120	1185	2114	-1362	-13088	1376	-9824	-2794	2583	-65	-6520	-15560	-5184	1203	437	1057	134	130	1
-28060	-20120	24896	1016	5563	4477	-22944	-15904	-8920	-1620	3489	1012	-23824	-6600	-11632	-903	-1193	-767	-9480	19456	12936	158	966	-700	-5712	5768	-13648	-1163	1389	528	-15888	10472	-13280	4419	1961	-694	130	132	1
-8608	-21960	15708	244	3856	3138	-20960	-6808	-21648	1709	3489	1347	-24976	-6328	-12672	-736	-1356	-882	-7232	14128	13144	-164	529	-475	-22816	6416	-9728	498	1048	748	-19400	24328	-14448	3317	1984	-341	129	130	1
-17848	-32768	29632	1067	-1104	909	-20424	-4040	-11760	1241	2258	1293	-32768	1960	-8184	1716	-3252	-1633	-4928	11736	13664	-327	293	-318	-24776	376	-8208	2585	1044	291	-16392	10184	-3216	-4	1509	364	126	132	1
-1700	-10072	17948	770	-2505	687	-18048	-2928	-7032	775	602	589	-31672	2432	-9688	1957	-3365	-1545	-4408	10720	14264	-251	205	-236	-17232	1088	-4664	3879	653	375	-17648	2352	-672	-730	1337	-120	122	130	1
-1768	-17276	11992	85	-3043	-137	-11496	-3952	-8368	1183	-183	703	-25704	4160	-7152	902	-3057	-1560	-3440	9576	13648	-69	160	-240	-13984	5584	-1336	2658	636	569	-15544	-200	1432	-636	1337	-602	122	133	1
240	-15088	8636	1033	-3664	-916	-6944	-568	-7080	756	-1093	409	-20976	4768	-7504	-231	-2806	-1561	-3344	9848	13112	66	151	-212	-14480	7656	-1592	611	470	408	-15192	1712	1424	89	1394	-849	121	133	1
1080	-7576	7452	567	-3716	-1526	-7120	296	-6264	120	-2040	367	-19048	264	-7000	-108	-2540	-1199	-3800	10600	12496	112	162	-208	-15736	9400	-2032	-1582	1003	-113	-14232	4064	592	493	1506	-851	115	138	1
-2604	-8720	8156	-322	-3747	-2022	-7248	-1752	-6840	-23	-2931	382	-16320	-248	-6656	583	-2466	-1252	-3696	11600	11408	-30	136	-231	-17688	5232	-3200	-2554	885	-386	-16696	4208	-384	623	1526	-535	151	139	1
-5688	-10016	8868	-484	-4088	-2435	-5344	-776	-6760	43	-3585	243	-14216	1968	-7688	1078	-2452	-1319	-3920	11040	11800	-207	111	-239	-16056	-1816	-4064	-1462	624	-205	-14512	3512	288	711	1462	-398	125	138	1
-6096	-8236	9024	-640	-4469	-2742	-5416	-1568	-6880	300	-4125	51	-12000	2832	-8384	1379	-2266	-1181	-4312	10216	12344	-335	93	-228	-14984	-1888	-4440	629	601	218	-13688	2016	224	789	1352	-273	99	138	1
-7312	-7860	9472	-894	-4638	-2849	-8528	40	-7528	582	-4505	78	-9584	3176	-8968	1453	-2093	-1040	-4248	10528	12672	-319	89	-184	-14576	4608	-3520	1472	650	369	-13320	2280	544	783	1530	-384	126	137	1
-9348	-10340	10252	-939	-4816	-2947	-8816	-2368	-8488	1022	-5084	-258	-8112	4248	-8960	1239	-1846	-749	-4104	10272	12744	-259	84	-168	-15816	5816	-2704	1117	721	227	-15808	5864	1952	879	1868	-536	128	135	1
-11452	-10132	12128	-1348	-4850	-3183	-9424	-2000	-9040	1127	-5534	-393	-6792	4016	-9552	1104	-1569	-356	-4120	9784	13144	-191	85	-183	-16472	5704	-3184	70	786	-5	-15896	7280	2448	927	2587	-740	127	134	1
-13444	-13116	13072	-1440	-4846	-3374	-10632	-2128	-10072	1530	-5914	-484	-6496	4168	-9376	1141	-1536	-312	-4232	9712	13088	-98	124	-178	-16368	3552	-3608	-595	899	-76	-16024	6944	-2976	391	2742	-824	122	134	1
-15632	-13748	14676	-1575	-4567	-3547	-13880	-1784	-10000	1753	-6313	-609	-3664	5896	-9640	1132	-977	115	-3976	10056	13080	-22	192	-210	-15704	2088	-2480	-536	1017	-18	-17744	5408	-3656	-475	1953	-559	120	134	1
-21624	-17216	19096	-1820	-4089	-3930	-18080	-2288	-15864	1922	-6644	-715	-3472	8120	-8352	1100	-756	504	-3744	10272	12944	-4	285	-283	-15408	2688	-2216	-168	1147	80	-16280	4408	336	-1072	1391	-306	97	133	1
-30200	-16408	21252	-1875	-3603	-4329	-23952	-5944	-16544	1343	-6884	-768	-4856	6968	-3560	753	-458	713	-3376	10592	13432	25	416	-415	-16224	3816	-2192	134	1297	107	-16272	4152	2944	-656	1433	-253	142	138	1
-32768	-8636	19912	-1932	-3070	-4173	-25168	-10672	-19240	1044	-6399	-809	-9784	-2208	2928	166	-319	-96	-3704	10376	13848	84	620	-640	-17712	3400	-2408	376	1443	136	-16368	2344	4376	274	1496	-202	118	136	1
-32768	320	14744	-2285	-2886	-3670	-25056	-7728	-24592	682	-5072	-835	-19944	-7520	12272	-52	-458	-1620	-3912	9600	14872	242	900	-744	-17520	3192	-2632	658	1656	46	-16528	2984	4024	1046	1440	-97	114	139	1
-32768	1408	12848	-2306	-2878	-3569	-15368	-4600	-24096	-724	-3577	-904	-28760	-4352	24128	-525	-392	-1632	-3792	9936	15752	517	1355	-881	-19944	568	-3576	692	1975	-22	-19032	3968	2168	1303	1441	-9	121	134	1
-32768	28116	-11004	-2962	-1639	9	-9624	-2840	-25592	-2371	-1832	-1289	-19328	-7064	19424	-2889	800	-306	-4048	8864	17128	871	1909	-1037	-22024	24	-4992	729	2189	-96	-20080	4184	1832	1380	1293	-230	126	132	1
-32768	20904	-9976	-1868	-904	1780	-5848	-1688	-23936	-3680	189	-1082	-16960	-10688	12440	-3611	726	166	-3920	9512	16400	1332	2476	-1191	-21360	792	-3512	548	2465	-291	-19080	6472	2696	1166	938	-486	118	119	1
-32768	10020	-4844	509	-51	2582	-6952	-3800	-22312	-3507	2288	-264	-16320	-13272	7112	-2598	1026	-629	-4000	10576	15200	1741	3042	-1451	-19904	2128	-920	376	2778	-424	-18560	8208	7736	687	225	-535	124	121	1
-32768	-2668	1416	1158	726	2047	-14144	-5360	-18840	-1864	3912	283	10960	-9144	-10896	-1169	3041	-279	-3784	11000	16064	2418	3744	-2008	-22040	-464	-48	347	3147	-509	-20816	8696	16648	488	-1376	-198	127	114	1
32767	-32768	13452	2668	2677	1271	-32768	-8872	32767	-1839	-1211	116	-18760	-12088	-12088	-1183	2428	1556	-3792	17008	17104	2669	5020	-2904	-32768	-5824	6472	2076	3580	-597	-20336	3520	19792	591	-2045	-103	137	120	1
-32768	-1424	32767	3206	4105	2220	4664	-32768	-29608	10520	3386	80	-32768	-26264	30352	8805	-784	-1158	-8664	21528	19272	2924	6437	-4178	-32768	-2752	3272	3281	3369	-582	-24608	-4752	20744	335	-2110	-478	117	130	1
-16068	-9512	19524	1411	1878	1443	-23920	18920	-13720	6536	5716	1288	-26472	26128	-13256	7414	2416	1158	-14768	32016	21664	1659	6629	-5457	-32768	15280	4096	3496	3638	-602	-27048	3608	5448	2310	-1913	-899	122	131	1
-9196	-5644	16540	1170	1488	590	-24040	2136	-13912	3810	3380	-577	-12992	29680	-15088	3529	1431	-30	-14376	32767	29072	290	6093	-5511	-25080	17392	-4088	576	4340	-1131	-27040	13272	-15632	3276	-825	61	129	135	1
-12156	-7596	13368	778	482	599	-280	3960	-14544	773	1697	-1265	-1200	15624	-8664	-2114	1670	990	-10920	27384	30400	1500	4206	-3700	-25968	2640	-15592	-2714	4008	-1904	-29360	13752	-12056	421	-2079	1174	131	137	1
-12308	-3196	16556	636	116	356	-14736	1648	-11680	-4448	1190	-752	-13136	-5584	-14640	-4419	1377	226	576	32767	31528	-1103	-820	-1388	-23160	5048	-12528	-2462	2404	-1021	-32768	4400	-5496	-2484	-3183	860	135	132	1
-9012	-6640	13768	320	116	259	-29496	-7432	-7240	-5778	292	-452	-22656	-10224	-4624	-2934	1625	-1705	4584	11088	20552	-2500	-2490	-1418	-20888	-1520	-6008	-663	830	-843	-32768	496	-9928	-3163	-3490	1036	118	123	1
-7276	-6824	13100	93	216	236	-15976	-13720	-3592	-2977	558	-607	-19640	-1784	-4808	-1200	1714	-205	7168	18984	13088	-1633	-3975	-624	-11176	664	-7072	-363	-590	-438	-27280	-3048	-6000	-1735	-3323	1667	91	119	1
-6952	-7540	12700	2	233	263	-12424	-11424	-3184	-242	763	-476	-18000	-1880	-3968	-1107	1593	1073	8392	13976	7728	-2818	-4314	454	-7384	-3880	-5416	1199	-1338	-478	-26592	-3880	-6144	-1375	-3284	1623	129	127	1
-8960	-8596	11748	-24	193	335	-11584	-11112	-2872	141	822	-419	-15480	-4864	-6048	-818	1439	1135	5360	7368	6640	-1896	-4496	1441	-8504	-832	-6224	1915	-2448	-202	-19312	624	-6912	1620	-2826	1521	129	127	1
-8244	-7416	12216	76	113	319	-17888	-4392	-5424	2204	1057	182	-14312	-4536	-3240	-122	1412	1004	3520	10504	6608	-857	-4432	2152	-7856	1288	-5744	1958	-3452	-65	-16912	4720	-7632	1148	-2623	1563	125	138	1
-7820	-7112	12544	121	150	308	-21128	2720	-3752	621	501	-106	-16320	536	-1648	294	1470	930	712	12152	8104	-542	-4417	2760	-6808	2016	-6512	1772	-4178	309	-14016	4976	-8200	-107	-2319	1266	129	134	1
-8016	-6516	12860	39	245	300	-15264	-968	-2808	-1366	225	-351	-16808	4752	-560	-50	1552	930	-2120	12352	9616	-263	-4573	3125	-7152	4176	-6608	1130	-4699	592	-13032	3784	-9424	-1460	-2131	897	129	136	1
-8148	-6208	12400	19	280	261	-14008	-5784	-2488	-1893	290	-234	-15736	2136	-376	-682	1893	815	-4048	13888	11192	4	-4932	3248	-9320	3664	-7096	313	-5083	734	-10720	1256	-9888	-2201	-2119	602	129	135	1
-8460	-5988	12228	-2	306	224	-13120	-8024	-1976	-1270	455	-175	-15096	1392	-424	-674	1970	824	-5824	-24	16984	135	-5253	3304	-10008	2088	-8208	-398	-5530	983	-7872	-992	-9664	-2486	-1894	456	127	134	1
-12524	-4260	12116	-56	309	171	-17864	-7208	672	-647	-155	-310	-13608	-6952	-288	-378	2306	684	-6912	15152	13344	534	-5452	3265	-12000	2040	-8128	-744	-5843	1034	-6792	-2576	-9776	-2377	-1623	176	125	134	1
-8160	-6232	12004	3	300	287	-14688	-6304	-2792	40	651	-57	-15576	-6144	-3504	-114	2372	527	-7568	19776	13616	681	-5393	3304	-13776	856	-9576	-1065	-6144	1154	-5512	-4472	-9712	-2461	-1556	77	123	133	1
-8960	-7152	12084	23	373	284	-15576	-4704	-4328	130	964	-61	-17984	-1984	-6400	-90	2051	501	-8112	22064	15792	806	-4799	3577	-15120	-952	-12168	-1091	-6440	1299	-4216	-7216	-10008	-2117	-1472	-103	125	133	1
-8568	-6304	12516	-25	478	403	-17448	-3880	-2704	-384	855	-116	-19296	1616	-2656	21	1655	516	-13800	29112	20584	1120	-4045	4352	-19896	144	-16040	-780	-6542	1524	-3872	-7096	-7376	-1439	-1137	-436	126	135	1
-8440	-6116	12764	-131	642	445	-15416	-4592	-1824	-909	854	-141	-16488	-1824	-96	102	1453	486	-23792	25576	25976	1924	-3282	5452	-25464	5800	-19120	-1079	-6514	1586	-5200	200	-176	-859	-944	-240	125	134	1
-8620	-7420	12572	-62	855	537	-14808	-6640	-784	-1039	979	-145	-17648	-5736	1872	-95	1269	473	-32768	22440	25120	2444	-2746	5310	-27800	7392	-22696	-2036	-5927	1023	-8296	9592	6528	-196	-398	803	126	134	1
-8784	-7524	12732	41	1056	660	-15904	-8184	664	-759	1310	-42	-18512	-5128	3560	-437	1283	345	-32768	19272	18992	1297	-2502	3822	-23368	4536	-26584	-1830	-4627	440	-19976	9232	14416	-59	163	1762	135	135	1
-8444	-7896	12948	141	1343	836	-17088	-7504	-216	-531	1671	81	-18048	-2912	2944	-1007	1387	114	-32768	8360	6952	152	-2298	1459	-12120	2800	-26888	-748	-2927	616	-23752	328	24792	1646	183	845	136	135	1
-9168	-7196	14024	150	1738	1060	-18744	-4480	-1920	-649	1964	121	-18304	-1912	1512	-1247	1322	139	-32768	192	1976	1100	-1772	-508	-11384	8	-30584	541	-1150	1037	-19000	10896	23480	1957	327	374	117	134	1
-9096	-4636	14688	15	2298	1194	-19232	-2936	-2176	-1021	2114	161	-18048	-2568	216	-1132	1122	292	-32768	1536	2360	1178	-580	-1402	-5776	-2216	-24664	2465	899	1201	-16384	10976	15624	1702	204	352	120	133	1
-8876	-5036	14716	-180	2921	1271	-19120	-3224	-1600	-1071	2339	324	-19552	-2936	1656	-901	698	365	-32768	4472	5968	18	855	-2014	-6128	-1328	-22328	3277	2662	530	-11816	8384	5560	1049	437	154	117	131	1
-9772	-6748	13712	-407	3505	1516	-19136	-3472	224	-945	2630	381	-19688	-3368	5016	-773	141	456	16880	32767	11104	-4815	4850	-2830	-17744	7616	-8520	3760	3579	-5	10168	2192	-8464	913	2082	-419	110	131	1
-10068	-7992	13420	-518	4170	1957	-19880	-3920	1160	-1010	2935	374	-19960	-5032	9256	-645	-716	424	32767	-27960	13584	-4276	3090	-2571	-32768	32767	32767	4734	-283	311	-19272	31248	-24016	3477	3159	-728	136	130	1
-10320	-6640	15692	-997	5512	2566	-27728	-2752	1632	-1313	3225	497	-23160	-9664	18384	-1098	-2243	-86	-32768	15384	32767	-1810	3726	-2385	-3904	5664	-32768	-9491	1133	-197	-32768	32560	31488	-6365	382	2691	107	127	1
-20316	-9808	14328	-921	6779	3537	-32768	1648	5104	-3124	3097	444	-21400	1816	11536	-1166	-2516	145	-7160	15032	23064	-1137	2511	-492	-30104	-8064	-10424	-7341	5425	-2431	-26136	-32768	-14160	-7907	2423	-1665	133	127	1
-29184	-18920	24328	629	6044	4603	-31232	-16240	4480	-4372	3133	445	-29488	-376	3040	-1497	-1977	371	-5376	-3136	22656	-313	1862	-775	-21968	-7032	-11992	-5703	2677	-348	-30832	-32768	-17040	-7189	1756	-1578	124	126	1
-23088	-10872	22724	336	6402	5010	-25008	-16104	-816	-2771	3461	913	-29744	-2064	-504	-1691	-1708	223	-11784	14672	20344	-35	1153	-938	-20232	-8752	-14680	-5375	2373	-127	-6496	-14432	-3800	1142	1480	338	122	128	1
-27924	-32768	27752	-773	3606	3021	-24192	-10536	-17400	344	3700	1460	-27400	-2664	-8784	146	-2681	-1577	-5648	10992	16416	113	399	-391	-12824	-88	-13224	2345	1663	915	-19320	4424	-15544	4584	1812	-220	135	131	1
-20452	-32768	32576	1442	-1179	781	-21912	-8128	-12048	1032	2226	767	-32768	2400	-7032	1382	-3540	-1651	-4008	12152	13968	-43	164	-198	-30464	7768	-9864	3884	1186	1083	-20752	14952	-10504	5060	1955	1078	130	132	1
-1424	-13792	19904	1146	-2992	406	-21088	-4968	-7776	616	729	303	-32768	920	-8288	1393	-3558	-1687	-3240	9744	14016	-85	94	-166	-19080	5600	-5832	3711	321	973	-16456	14656	-4096	2763	1523	590	125	132	1
-216	-15208	14136	113	-3754	-22	-13904	-3856	-7648	1348	-164	409	-28696	5664	-7312	266	-3357	-1858	-2712	9040	14736	-22	79	-155	-14192	5616	-2680	2653	543	366	-16096	7504	-1128	808	1336	-337	122	131	1
1680	-13792	10424	468	-4297	-632	-8352	536	-7072	1219	-1174	50	-24432	3432	-7104	-675	-3053	-1670	-2736	8112	14400	135	49	-175	-17560	8216	-4240	517	656	-115	-16576	1176	336	-36	1216	-1291	38	133	1
36	-8308	10744	-153	-4318	-1344	-8264	3312	-7648	433	-2221	-22	-21792	48	-7168	-515	-2809	-1359	-2760	8528	13784	191	56	-182	-15640	5824	-2512	-265	440	555	-14368	2712	1704	-221	1293	-1073	139	138	1
-2408	-8292	11088	-967	-4483	-2041	-8840	1224	-7560	-521	-3437	75	-18888	-816	-7880	387	-2759	-1359	-2912	10032	13024	115	95	-190	-16568	6240	-2608	-1624	760	-69	-12632	3192	-96	-76	1568	-792	133	140	1
-3332	-6472	10544	-1327	-4591	-2497	-7992	2288	-6720	-825	-4273	-167	-16160	1504	-8184	1239	-2703	-1257	-2888	10000	13184	-51	111	-194	-17224	3496	-3968	-1780	466	13	-14640	4192	-32	100	1832	-634	139	138	1
-4760	-6244	11644	-1434	-4493	-2791	-7528	912	-7088	-572	-4814	-359	-13360	4200	-9608	1627	-2533	-1030	-3328	9536	13624	-148	131	-209	-16576	-9504	-4248	-619	395	98	-14320	2640	392	41	1724	-345	127	137	1
-6764	-7840	14568	-1441	-4586	-3070	-10184	1824	-8856	436	-5078	-68	-10056	5560	-10440	1518	-2373	-776	-3736	8712	14040	-115	161	-181	-14688	-440	-4744	400	469	215	-13192	1040	1632	158	1796	-444	120	137	1
-11188	-8472	16988	-1473	-5020	-3344	-9728	-1520	-9288	584	-5714	-571	-7544	5432	-10536	1053	-2112	-553	-3368	8704	13896	-34	187	-132	-14408	3640	-2048	1101	572	348	-14504	4576	3120	466	1966	-592	128	138	1
-12604	-7388	17000	-1933	-5209	-3537	-11136	-1272	-8000	1241	-6057	-677	-5104	4224	-10344	1205	-1795	-384	-3160	9032	13680	-8	194	-105	-15456	7808	-480	437	811	147	-15400	9744	3816	831	2421	-751	134	140	1
-15436	-12880	16276	-1578	-5182	-3663	-11592	-112	-10280	2158	-6277	-727	-2608	5056	-9592	1587	-1430	-189	-3624	8936	13456	-56	181	-141	-16880	6408	-1776	-419	803	47	-17304	10312	-976	511	2698	-828	124	139	1
-17180	-14556	15972	-1064	-4578	-4086	-14592	464	-10792	2622	-6431	-715	328	7280	-9920	1825	-1065	122	-2824	9104	13936	-66	213	-214	-16280	3024	-1416	-607	1009	38	-18376	6048	-1400	-296	2134	-462	122	138	1
-23500	-15744	17920	-923	-3513	-5011	-17816	-3456	-16216	3129	-6463	-427	1512	7200	-6600	1937	-691	465	-2552	8616	14448	42	337	-318	-17296	1392	-2304	-271	1135	44	-18976	2392	1176	-942	1563	-245	121	137	1
-32768	-11072	18544	-740	-2129	-5749	-25344	-8888	-19384	3726	-6124	-91	-1808	-1504	2544	1850	-541	210	-3040	8536	14776	199	564	-469	-16808	768	-1544	375	1349	176	-17064	2744	3640	-636	1364	-232	118	142	1
-32768	-5584	16392	-1449	-1108	-5682	-27592	-9672	-23144	3936	-5114	597	-10320	-10000	13856	1157	-821	-938	-3496	9080	14848	357	765	-571	-16336	4752	-2336	711	1629	149	-15168	4080	5784	486	1319	-292	155	135	1
-32768	-4144	3928	6	-2025	-4682	-15128	-8808	-23704	2254	-3437	435	-25392	-2328	24104	1668	-641	-1103	-3448	11152	14624	395	1047	-794	-17064	6464	-2672	499	2087	-2	-15416	2608	4128	1516	1544	16	122	130	1
-32768	26988	-10204	-675	-1837	-1678	-9216	-6680	-24952	1064	-2051	-148	-28080	2744	21296	415	478	-467	-3856	9928	16280	431	1299	-1024	-18984	2912	-4368	631	2102	34	-17952	3592	2168	1995	1419	168	122	144	1
-32768	16068	-12852	-2389	-1316	1112	-8672	-3056	-25200	-2084	-570	-840	-26208	2920	20952	-60	558	-379	-3568	10256	17600	471	1829	-1246	-21024	1072	-3912	1060	2297	-39	-20320	6688	1704	2126	1160	53	145	126	1
-32768	12896	-10944	-853	-863	2864	-5776	-3656	-22688	-4547	917	-1075	-15264	-3336	6136	-3291	686	367	-2912	9720	18536	682	2497	-1548	-23184	400	-3888	1261	2577	-144	-21416	7728	3696	1778	722	-113	127	129	1
-32768	-3240	-3100	133	-168	3167	-7000	-7168	-25704	-5081	2480	-553	-416	-9784	80	-3349	802	-638	-2920	10008	18648	1104	3192	-1899	-23240	752	-1344	1221	2936	-251	-20616	9760	9504	1180	-187	-278	131	125	1
-2148	-32768	7772	5535	1602	3917	-17336	-25104	19584	-6312	2263	-382	1648	-6264	-20712	-4359	3734	969	-1856	8592	19784	1869	3951	-2490	-25784	232	-2560	912	3414	-378	-20568	14312	18136	1242	-1730	-131	138	120	1
-20104	11696	14600	1538	4284	3105	-32768	-8632	12144	3605	2603	-1709	-32768	-32768	17272	1134	16	-2060	-1072	20176	20792	2087	5450	-3394	-32768	-2144	6352	1510	3810	-843	-25976	12800	15888	1126	-1401	84	127	129	1
-27964	-1464	24504	1205	2325	1291	-8136	24064	-24056	10105	5397	2117	-25088	16464	-1816	6380	2236	719	-12200	32767	25328	1940	6524	-4936	-32768	1112	4616	2405	3665	-631	-30624	-3104	17896	-1211	-2269	-541	123	126	1
-7716	-3952	15588	532	2169	1188	-11296	4080	-3816	4016	3615	932	-13096	21904	-10872	4872	1675	716	-11144	26904	31848	42	6669	-5837	-32768	12736	1608	2605	3736	-451	-23560	-440	1536	85	-2127	-603	120	127	1
-18220	-5936	20624	401	1360	1048	-14272	-368	-13912	1656	1677	-1412	608	19416	-3128	-674	1302	204	-13128	30032	29264	606	6030	-5323	-25816	10480	-720	2163	4410	-1008	-25536	6264	-11432	1911	-1463	370	128	134	1
-13548	-9176	14312	362	502	400	-16848	2072	-13248	-551	1279	-1354	-8856	2304	-12904	-3908	1677	917	-25656	32767	26024	637	3505	-3759	-18680	4624	-26688	-2242	3472	-1551	-31312	5256	-8784	651	-2330	1203	121	127	1
-9496	-8136	12308	196	288	212	-27656	-5704	-9648	-3714	1134	-535	-27264	-15600	-14080	-3438	1830	-325	6480	24544	22688	-2521	-525	-643	-26544	912	-1920	-914	2159	-492	-32768	24	-6680	-825	-3645	1439	116	129	1
-7640	-7624	12728	225	133	223	-15568	-7632	-5512	-4929	205	-266	-20800	-7216	-2984	-983	1966	-1003	2752	7752	17256	-849	-1416	-696	-17760	-2456	-11408	-955	354	-122	-32536	-400	-6984	-1048	-3710	1609	123	119	1
-7000	-7268	13060	109	188	245	-11216	-11096	-3656	-2409	1082	-406	-14880	-2400	-1872	-602	1846	101	7880	17888	12296	-596	-2754	493	-6320	-5360	-7224	91	-536	-256	-25104	-2904	-4328	-778	-3327	1830	125	121	1
-7892	-6112	13356	35	196	226	-16064	-7824	-5488	140	852	-402	-17896	-1576	-4480	-572	1669	1051	7560	4584	9880	-1058	-3256	1529	-5736	-6680	-5008	1730	-1240	198	-22032	-2520	-5512	429	-3141	1321	127	120	1
-7588	-6204	13328	-83	288	160	-16096	-7192	-5552	1855	1025	44	-16312	-1904	-2752	15	1466	1720	4784	3392	10040	38	-3561	2089	-7856	-2288	-4672	2149	-2395	394	-19656	520	-6272	1094	-2931	1499	127	122	1
-8036	-6908	12664	-86	316	140	-17200	-3824	-5456	2366	1084	264	-13888	-1000	-2936	444	1642	1414	3840	5456	11352	157	-4024	2481	-8064	-2064	-4968	2081	-2549	422	-17408	1240	-7104	575	-2886	1532	127	126	1
-8056	-6792	12620	-55	302	114	-17488	680	-4360	1240	811	10	-16248	1472	-1592	350	1650	841	1840	4456	12496	278	-4539	2591	-4832	-1200	-4064	1476	-3951	965	-15872	416	-8728	-256	-2727	1181	127	129	1
-7808	-6468	12760	-78	332	99	-15344	456	-2672	-541	424	-212	-17088	3512	120	26	1700	656	248	6600	13272	421	-5155	2533	-4792	-1728	-4664	1410	-4016	1026	-13912	-992	-9352	-997	-2434	716	123	128	1
-7940	-6732	12556	-123	351	95	-14736	-3872	-2032	-1527	427	-285	-14944	2424	280	-269	1867	701	-1192	8400	15104	407	-5754	2609	-8008	-2408	-5776	365	-5092	1356	-11856	-2776	-9832	-1208	-2507	381	118	129	1
-8104	-6660	12292	-130	361	97	-15064	-6488	-2336	-1227	616	-174	-13808	-912	-712	-161	1973	909	-2072	8336	15616	790	-6180	2745	-9648	-2008	-5416	164	-5702	1542	-5288	-2960	-9896	-1064	-1762	392	121	129	1
-8164	-6560	12364	-126	375	125	-14096	-6576	-2384	-477	751	-165	-14624	-4024	-496	173	2133	1084	-3608	9872	16920	1204	-6260	2641	-12128	-1696	-7936	-277	-6168	1654	-4592	-3448	-8440	-844	-1095	181	125	127	1
-8040	-7064	12328	-91	411	181	-14296	-4840	-2944	46	888	-141	-16288	-5352	160	39	2489	999	-7424	15000	16984	1442	-5932	2605	-13536	-4304	-8496	-270	-6481	1708	-3624	-3112	-9568	-992	-1112	160	126	127	1
-8052	-7328	12140	-17	478	263	-15544	-4720	-4312	49	939	-103	-16120	-2328	-4000	-105	2616	777	-7672	17160	19200	1351	-4842	2819	-14992	-5288	-10784	481	-6394	1761	-2440	-3912	-9056	-1347	-1152	123	125	125	1
-8312	-7432	12508	57	566	402	-16968	-4368	-3960	-175	885	-169	-18408	976	-6032	96	2028	613	-15968	28280	26448	1814	-4109	3809	-21408	-104	-18848	208	-6272	2119	-3000	-2760	-5832	-1789	-1195	-47	125	125	1
-8684	-6700	12416	96	680	506	-16536	-3832	-2232	-622	864	-185	-18096	560	-2872	286	1510	544	-24160	20280	26336	1929	-3309	5166	-27848	4248	-20032	-1232	-6436	2217	-6080	1520	960	-2189	-1347	35	122	126	1
-8820	-6692	13016	121	856	579	-14552	-6296	-1536	-701	981	-69	-17152	-3640	1080	28	1359	426	-32768	18928	26592	2447	-2351	5340	-23232	5136	-23360	-3106	-5669	1329	-10448	6176	10600	-1862	-929	512	125	126	1
-9032	-7028	13200	154	1084	682	-15800	-7344	-832	-489	1314	25	-18200	-5152	3768	-421	1285	277	-32768	13784	21712	1263	-1799	4135	-20440	4200	-27688	-4120	-4066	183	-16816	7312	14000	-34	185	609	126	125	1
-9116	-7404	13360	196	1357	852	-17328	-6584	-280	-441	1671	125	-18824	-4480	4408	-828	1379	183	-32768	7248	8760	-45	-1567	1898	-16136	-608	-29136	-2361	-2562	-102	-22608	7840	25104	730	496	112	126	123	1
-8964	-7640	14364	226	1754	1093	-18688	-4784	-1288	-700	1975	193	-19520	-4064	2080	-993	1243	208	-32768	944	1624	371	-663	-5	-8128	-768	-29520	-50	-736	610	-23504	5600	23552	489	406	624	117	123	1
-8908	-6372	15064	175	2290	1341	-20824	-2856	-2512	-1006	2195	275	-19968	-2712	912	-823	961	285	-32768	2096	3688	817	366	-1068	-6080	960	-26192	1725	1252	876	-14800	5024	15992	816	212	205	124	122	1
-9612	-6128	14976	5	2895	1592	-21024	-2424	-1712	-1156	2386	391	-20192	-1712	2896	-646	550	421	-32768	6960	9640	-310	1492	-2010	-9776	1608	-22960	2842	2815	537	-12000	7168	16680	2147	-841	-104	121	122	1
-10284	-7112	14764	-104	3511	1954	-20856	-3040	224	-1170	2607	444	-21048	-2696	6960	-677	-26	581	32767	-2640	21112	-1901	4091	-2694	-32768	-7056	32767	10696	951	-1068	-9192	11384	-4232	4001	3351	-809	104	122	1
-9912	-8676	17656	87	4354	2445	-24600	-6544	2528	-1362	2830	607	-23776	-9808	13040	-919	-852	351	-25344	20008	32767	-974	3912	-2917	-11200	32767	-24416	-2349	881	691	-32768	26624	26032	-219	1768	2066	115	120	1
-14552	-16100	16248	263	5669	3367	-32768	-7928	11464	-1694	3031	947	-26664	-14168	18184	-731	-2282	-487	-13968	16480	22048	-569	2436	-1888	-10024	-2992	-13576	-4487	4434	-1220	-17488	-9096	-6408	-4331	2080	-1521	126	117	1
-28744	-21592	21120	1437	5833	4778	-30272	-13496	5152	-2777	3491	690	-24816	-2376	11784	-158	-2578	104	-6248	7792	18216	-264	1932	-1259	-18008	3192	-7136	-4999	3416	-878	-18456	-12072	-10784	-4488	1751	-1398	127	117	1
-28832	-18440	27276	2356	5805	5250	-29296	-16912	6448	-2657	3626	659	-25416	-4472	-2520	-570	-1904	-415	-10688	15600	17648	-518	1013	-1192	-15952	-1552	-14960	-4829	1601	-214	-12392	-3760	-2824	751	1532	291	129	118	1
-31952	-22344	29060	643	5286	4305	-22768	-13416	-14992	-325	4162	1206	-28400	-7400	-11480	-607	-1699	-1460	-6352	9864	17672	-457	316	-429	-17696	-7504	-13816	-1901	1603	155	-21272	6920	-10808	2209	1972	-33	129	122	1
-30628	-26988	30504	409	4869	4001	-21824	-4048	-26200	1736	3614	1254	-32768	-320	-10976	1141	-2834	-1920	-4312	12136	13640	-207	142	-212	-22968	-6360	-11040	2882	1193	801	-18160	5592	-5088	1890	1976	507	127	119	1
-7540	-26152	22636	2448	-1049	-61	-23512	-2176	-5616	635	1977	709	-32768	4112	-10440	2037	-3377	-1904	-3152	9848	14000	-72	75	-117	-17728	1976	-6728	4906	896	936	-17272	4168	-24	1408	1597	300	123	122	1
844	-7144	16280	721	-1297	-524	-16072	-1752	-8120	939	603	605	-32552	3456	-8560	1861	-3667	-1838	-2624	9440	13608	98	94	-103	-14704	6528	-2816	3871	775	759	-16344	2584	168	1285	1370	-343	120	122	1
756	-14144	13312	-103	-2072	-1151	-9632	-248	-7984	949	-222	676	-24832	5816	-5952	1018	-3361	-1931	-2400	9280	13448	233	128	-112	-15968	8248	-1728	1694	437	546	-15008	5152	-728	976	1342	-920	120	123	1
1528	-10256	11744	262	-2976	-1769	-4480	3288	-7128	171	-1296	140	-22960	7056	-7496	-276	-3129	-1914	-2200	10144	12704	287	133	-165	-15760	6424	-1760	-473	659	252	-13672	6016	1184	641	1334	-974	82	123	1
1124	-5412	10708	-314	-3405	-2240	-6144	712	-6192	-437	-2371	12	-20088	1824	-6584	-178	-2763	-1293	-2480	10736	12592	230	107	-202	-15784	5328	-2720	-1515	974	-124	-13312	4408	2016	342	1302	-740	145	125	1
-2048	-6076	10928	-887	-3794	-2538	-6728	-368	-6312	-116	-3260	-121	-20008	1280	-6640	-100	-2739	-1227	-2648	11000	12040	109	110	-213	-17248	2608	-3112	-1644	802	-169	-14960	2544	1496	380	1563	-497	130	124	1
-4000	-6996	10988	-1025	-4289	-2834	-6096	-280	-6528	588	-3928	-189	-14304	2384	-7784	756	-2640	-1298	-2552	11160	12088	-70	115	-224	-16368	-192	-3728	-640	535	88	-14240	2496	432	813	1534	-396	100	124	1
-5068	-6308	10940	-1169	-4572	-2955	-7120	-64	-6960	980	-4451	-344	-12616	2104	-8536	1206	-2399	-1121	-3008	11312	12160	-229	115	-229	-16616	144	-6304	1319	640	579	-13352	3656	192	825	1669	-382	123	124	1
-6300	-6692	11028	-1477	-4702	-3071	-19192	11456	-8208	2865	-4190	2204	-9736	3328	-9184	1384	-2239	-942	-2912	11336	12312	-293	113	-208	-18680	5336	-2632	1370	614	654	-14368	5072	-664	632	1813	-521	120	125	1
-10284	-8888	11888	-1438	-4914	-3002	-4912	-1104	-14928	1382	-5463	-78	-7272	4800	-9120	1364	-1966	-602	-3096	9912	13080	-291	124	-198	-15736	6032	-2992	294	516	186	-15624	7640	3536	582	2262	-797	126	124	1
-10480	-6740	13984	-2097	-4787	-3003	-12696	4488	-9008	1332	-5968	-974	-5768	4584	-8672	1280	-1720	-397	-2968	10072	13216	-275	169	-246	-16536	4376	-968	-342	751	8	-15872	9296	1232	512	2759	-1198	121	122	1
-14648	-11680	15304	-2125	-4736	-2769	-13024	1952	-8920	892	-6475	-527	-3520	5280	-8760	1408	-1341	-106	-2408	10496	13088	-265	209	-306	-16416	3776	-1672	-644	884	39	-17384	7280	-1480	-58	2652	-1023	120	122	1
-18716	-16028	17648	-1721	-4613	-3153	-13536	2408	-11992	103	-6775	-831	-1496	7504	-10208	1098	-875	412	-2976	10240	13592	-233	277	-419	-16544	2920	-2208	-663	1014	74	-18280	2160	-1248	-1186	1861	-414	108	122	1
-22096	-17700	19608	-1030	-4065	-3990	-16776	-1376	-14888	382	-6782	-1186	-2080	9256	-7368	753	-546	900	-3248	9992	14480	-95	360	-519	-16568	1200	-3368	-244	1163	133	-17424	2056	1160	-1291	1427	-231	140	122	1
-32768	-10984	22848	-923	-2914	-5011	-27128	-11480	-18080	1619	-6608	-1166	-5448	2024	-576	203	-427	732	-3240	9792	13848	69	457	-656	-17080	1912	-1816	437	1351	158	-17160	4152	4096	-196	1687	-305	113	122	1
-32768	-792	20504	-1435	-2190	-5397	-25560	-11640	-23160	3930	-5622	-472	-10808	-11056	11056	183	-298	-737	-2544	10768	15424	282	700	-847	-17496	4104	-528	747	1549	172	-18144	4720	4960	690	1634	-336	110	126	1
-32768	8340	10552	-733	-2303	-4363	-21472	-8696	-25896	3627	-3686	151	-20808	-11728	12848	419	-79	-1967	-3152	11536	15960	296	1141	-987	-19320	4760	-1728	763	1885	50	-19128	3968	4256	841	1354	-53	116	118	1
-32768	11220	7280	-502	-2388	-4013	-10248	-2368	-28376	2520	-2038	124	-24832	-5608	24216	947	243	-554	-3696	10504	16728	296	1598	-1218	-20776	1488	-3336	659	2212	-18	-18848	1696	3624	1204	1224	144	126	124	1
-32768	30124	-11156	-887	-1428	1029	-11840	1608	-27136	-614	-448	-397	-20464	0	21224	-309	275	-257	-3696	9400	17504	439	2208	-1349	-20880	512	-4288	719	2427	-148	-18664	3208	2360	1759	1151	-112	120	119	1
-32768	19216	-10080	-1208	-663	2329	-6872	-784	-27216	-3958	965	-976	-17568	368	12224	-1490	235	396	-4816	8880	17144	731	2837	-1513	-21024	1680	-3192	545	2640	-355	-19272	7032	2896	1768	726	-317	122	123	1
-32768	10876	-2112	-500	228	2794	-7152	-5688	-25832	-4807	2707	-509	-9216	-2080	10488	-3299	-429	2	-3568	10760	16688	1182	3381	-1935	-21408	1704	-1560	408	2967	-393	-19416	9440	7640	1327	-5	-288	128	111	1
32767	-32768	32767	3934	3738	2770	-21240	-17360	32767	-6792	2759	69	-1560	2552	-23424	-5544	4233	1530	-2696	11056	17648	1944	3969	-2677	-25160	-1304	-2872	560	3343	-394	-20968	12736	16184	1195	-1583	-78	132	120	1
-32768	9440	-20432	388	4605	2907	-32768	-15384	17008	-713	2228	-2012	-32768	-22360	10128	-1666	985	114	-288	21896	17232	2066	5330	-3598	-32768	-5856	8688	1993	3632	-833	-24568	8496	18560	758	-1892	189	123	111	1
-32768	-7168	28760	879	2725	1605	10840	16440	-17400	5728	4334	1595	-26600	-5880	8296	3800	1707	378	-8912	23856	20824	2040	6423	-5099	-32768	-1344	4256	3204	3180	-327	-23920	-6048	17120	-787	-2441	-640	119	116	1
-18000	-8356	20072	159	1887	1371	-23712	-12080	-8688	3675	3131	589	-14536	6640	-7528	3298	1496	119	-18440	32767	27504	-71	6397	-5801	-32768	15936	-2496	2822	3527	-345	-22784	464	4008	1012	-1856	-784	129	114	1
-20520	-18908	14032	638	771	823	-24696	-9128	-13888	2265	1666	-537	-9208	17696	-12104	-926	1780	-398	-14696	23480	30600	-444	6068	-5221	-25928	13352	3504	1519	4200	-936	-27840	12904	-14976	3207	-812	187	125	122	1
-14176	-7228	15864	566	140	417	-22304	-6360	-12272	1942	1586	-628	-15080	-8808	-13776	-3174	2144	1017	-12400	20120	26440	1527	2915	-3575	-22424	4144	-22904	-2379	3773	-1822	-30888	11208	-11152	1324	-1871	1221	119	120	1
-8260	-6892	13792	385	62	157	-20152	-1352	-8096	-1988	1362	-194	-17776	-14272	-8544	-166	1889	304	-664	32767	31040	-2233	-1412	-1143	-23128	2256	-6816	-1235	2278	-977	-32768	3440	-7256	-1922	-3186	1128	129	121	1
-7272	-7920	12000	180	130	120	-17784	-3440	-4504	-3344	725	-96	-18112	3576	-4064	1404	1675	108	3424	7272	17472	-2205	-2261	-970	-20112	-1904	-9008	-594	657	-851	-29432	2984	-8776	-2825	-3492	1377	122	117	1
-7792	-7324	12432	35	209	117	-16584	-9800	-4976	-2685	445	-478	-16400	5968	-3608	-160	1747	332	6536	17328	10328	-1322	-2899	-63	-10016	-1232	-6992	-201	-403	-758	-25472	-624	-5544	-2026	-3125	1883	123	122	1
-7908	-7992	12192	-80	237	117	-14240	-9984	-3904	-550	424	-443	-16416	6000	-3608	-435	1710	431	7000	11208	7624	-2161	-2968	1201	-6640	-3824	-5904	1023	-965	-773	-21448	-1888	-6000	-535	-2846	1479	126	116	1
-7752	-7164	12276	-162	270	91	-13864	-8128	-3408	1136	828	-61	-15864	-2944	-3016	-1067	1633	1135	5312	5784	6512	-1311	-3047	2088	-8680	1232	-5472	1252	-2017	-609	-19216	1376	-5984	552	-2670	1631	132	121	1
-7512	-8744	11224	-148	268	132	-17112	-5416	-2816	2001	834	250	-16240	-2400	-2680	-446	1635	1045	2968	8400	6632	-674	-3112	2430	-7632	2472	-5624	710	-3014	-501	-16728	4016	-7376	163	-2577	1836	119	127	1
-7788	-8812	11108	-20	216	190	-17776	936	-3056	375	495	-85	-16344	-680	-2040	-388	1817	864	-144	9784	8824	-567	-3502	2665	-5224	2216	-5968	460	-3712	-143	-14064	3704	-7824	-825	-2377	1483	129	125	1
-7688	-7860	11588	1	218	228	-14808	-2184	-2624	-1351	177	-282	-14864	1960	-184	-586	1903	681	-1536	10192	9448	-477	-4090	2815	-4928	3728	-6152	-39	-4080	-9	-13368	4088	-8944	-2029	-2255	1068	123	126	1
-8368	-8040	11368	-13	183	241	-13680	-6576	-1536	-1931	220	-222	-13528	-912	-248	-676	2197	711	-2744	11448	9176	-372	-4561	2864	-7728	3112	-6432	-312	-4514	-26	-11704	2232	-9400	-2740	-2112	786	126	125	1
-8324	-7720	11224	15	121	229	-14000	-8152	-16	-1616	427	-114	-14184	-6992	2080	-836	2505	789	-4688	13792	10536	-298	-4836	2967	-8840	2752	-8456	-617	-5039	260	-8480	-328	-9312	-2997	-1797	693	127	125	1
-8448	-7652	11140	45	75	244	-12360	-8288	-120	-841	688	-72	-16024	-7856	104	-476	2418	774	-6136	14096	11512	49	-5036	3189	-10216	2608	-9344	-1009	-5476	315	-7984	-2224	-8856	-2924	-1585	496	127	127	1
-8244	-8192	11340	115	12	282	-13272	-8088	64	-111	1009	-7	-17840	-7616	-5408	120	1787	442	-7808	16776	12312	451	-5113	3306	-11240	1632	-9008	-935	-5807	350	-6848	-3608	-9344	-2905	-1372	268	127	125	1
-7972	-8240	11904	131	14	378	-16128	-5904	-2832	335	1167	32	-18864	-1688	-3336	303	1445	171	-8336	19288	13992	596	-4958	3529	-11696	264	-10704	-778	-6095	633	-4832	-6048	-9408	-2586	-1132	5	126	125	1
-8004	-6508	12584	-28	142	430	-18032	-2408	-3744	-110	1122	13	-17248	2656	-3000	-5	1434	245	-9080	22672	16880	997	-4570	3831	-15408	368	-13480	-651	-6384	896	-5528	-8136	-8736	-1732	-938	-333	121	126	1
-8392	-7104	12952	-162	392	460	-16872	-1936	-3736	-823	959	-4	-15360	2248	-2488	-487	1418	422	-17472	29104	21448	1172	-4123	4258	-22592	3440	-17256	-296	-6543	1432	-8208	-7088	-4248	-798	-767	-615	117	127	1
-7896	-8720	12444	-218	686	550	-15752	-6032	-1392	-1230	994	20	-17592	-992	-616	-576	1327	435	-28808	22528	23096	1732	-3724	4771	-25200	10616	-19664	-857	-6569	1565	-9792	1088	2656	-50	-686	-121	122	128	1
-8408	-8864	12824	-81	956	772	-17688	-7336	-232	-807	1203	-4	-21512	-4304	2032	-651	1251	267	-32768	18992	22856	2162	-3231	3920	-25840	8984	-26560	-1969	-5613	1057	-13256	11720	9760	409	-189	1309	153	129	1
-9880	-7108	13564	-54	1291	935	-18072	-5248	704	-682	1595	92	-19880	-6416	4152	-751	1222	103	-32768	11160	17728	1526	-3074	2131	-21080	6072	-28648	-1720	-3827	495	-20472	5152	15872	310	1	2019	144	128	1
-8536	-7564	14444	-80	1846	1020	-19168	-2952	-376	-784	1961	215	-18320	-4104	3240	-666	1164	88	-32768	3656	6752	1005	-2828	-27	-10808	-1208	-32208	1022	-1942	1006	-21528	696	18264	798	66	1733	124	127	1
-8468	-6664	15100	-119	2517	1152	-21120	-2160	-1128	-839	2194	293	-19400	-2464	2320	-473	1064	529	-32768	-3016	1992	1313	-1737	-1633	-7800	-1824	-29520	3475	-162	1826	-17768	9328	19656	3008	343	397	119	127	1
-8380	-6044	14752	-275	3301	1237	-19960	-2336	-656	-733	2489	521	-19376	-2648	3472	-446	754	788	-21872	13384	3568	-533	1427	-2501	-8688	-2896	-21824	4615	1678	1303	-15928	10816	16704	3130	42	-10	119	126	1
-8804	-7896	13284	-498	3965	1481	-18880	-2376	928	-454	2809	635	-19184	-3112	6384	-486	96	696	22856	-3088	32767	137	5302	-1770	-32768	-16320	32767	8076	1640	-1589	-1968	24104	-3320	3188	3212	141	126	127	1
-9140	-8688	14980	-568	4826	1932	-21584	-5536	3096	-475	3106	732	-23776	-9720	13880	-327	-898	339	-20928	7088	27464	216	3523	-2760	-10584	27352	-5776	-1031	1916	-167	-28704	16632	21960	-452	1714	-173	91	126	1
-11320	-18160	13800	-741	6103	2942	-32768	-3152	15640	-1443	3386	786	-25928	-9048	19960	-734	-2827	-207	-11840	20384	14248	-59	2037	-2068	-5088	3152	-12784	-4913	3895	-911	-15968	-8744	-8216	-6161	1363	-2140	121	123	1
-27264	-26220	17856	39	6775	4680	-32296	-7536	5056	-3047	3533	583	-23544	1792	15872	-161	-3085	356	-8312	14288	15000	-33	2147	-1450	-19848	8496	-13808	-7225	3163	-1217	-16368	-10304	-11248	-3740	34	287	136	123	1
-32768	-27676	21664	1916	6106	5675	-30440	-19176	616	-4560	3788	283	-24592	-720	-2664	-1158	-2115	13	-13080	25648	12344	-1341	664	-989	-16544	4288	-15400	-6801	1679	-402	-11904	-1632	-4176	725	1502	9	133	128	1
-32768	-20284	31724	-433	5743	4527	-23576	-13792	-16928	-244	4462	1090	-28328	-8392	-12656	-2462	-1494	-1203	-9048	8400	19544	-1136	316	-515	-22360	-19512	-19624	-1802	1928	-198	-22864	6224	-11648	2556	1977	831	125	128	1
-32768	-32768	32767	-429	1975	3441	-23192	-6216	-26408	1670	4061	1505	-32768	-1624	-9480	80	-3117	-1757	-4688	9776	15800	-777	140	-237	-18776	-9464	-12200	5167	1305	1074	-17832	2536	-3248	2377	1869	1400	131	129	1
-10472	-28276	22856	2169	-1880	1207	-24608	-1808	-6784	679	1838	389	-32768	1824	-10240	1600	-3776	-1415	-3840	8528	15536	-312	78	-118	-17616	1920	-8080	7030	896	1122	-19440	848	-328	2094	1425	340	127	128	1
-3304	-13800	16180	870	-2512	537	-17232	-4384	-10672	825	990	511	-28168	-1768	-7240	1770	-3793	-1487	-3248	9048	14376	80	91	-69	-17672	10496	-4472	4495	700	726	-18376	3032	-2712	1751	1362	-713	123	126	1
-452	-16820	11784	842	-3348	-166	-10232	-2440	-7592	598	63	519	-28656	4440	-6896	940	-3738	-1903	-2984	10312	12840	224	85	-70	-14760	11992	-2152	593	363	484	-13904	9776	-2672	1164	1246	-1213	55	134	1
2388	-9312	9580	786	-3833	-891	-6336	2128	-7824	155	-985	220	-25424	3872	-6976	50	-3512	-1522	-2872	10504	12648	222	73	-83	-14128	8552	-2888	-2184	780	56	-11952	10480	-912	138	1389	-1016	148	132	1
3896	-6064	7480	-60	-3792	-1502	-7272	1248	-7176	-489	-2150	287	-22992	1896	-7696	-12	-3161	-1289	-2896	11128	12032	119	21	-125	-15088	6288	-3696	-3549	962	-541	-16008	7280	-256	-568	1451	-812	142	135	1
2016	-6176	7400	-593	-3654	-1971	-5984	2008	-6864	-860	-3202	172	-19464	2368	-8848	332	-3067	-1505	-2648	11584	11152	-103	25	-171	-17360	464	-4368	-2964	553	-351	-15016	2688	424	-607	1583	-676	132	134	1
-1312	-7452	9480	-898	-3741	-2663	-4240	2128	-7416	-761	-3905	71	-15520	3344	-9608	640	-2916	-1478	-2904	10976	12024	-319	99	-193	-18384	-5224	-4544	-487	336	70	-14824	40	1656	215	1656	-231	104	133	1
-4732	-8340	11872	-844	-4063	-3427	-4560	-1832	-6656	-486	-4477	-40	-12192	3240	-10120	756	-2645	-1154	-3424	10240	12536	-365	139	-191	-17248	-584	-5928	2269	392	571	-14384	1568	1672	981	1833	-297	118	136	1
-6200	-7660	11672	-493	-4548	-3721	-7424	-3360	-4192	399	-4940	167	-8920	3512	-9824	840	-2352	-833	-2728	10536	12784	-320	147	-163	-13624	3712	-1336	2696	482	433	-14424	4728	216	1012	1757	-765	122	136	1
-8376	-4108	12144	-424	-4920	-3589	-4896	-1464	-7488	1296	-5413	-426	-6496	4208	-9816	1006	-2045	-532	-3520	10176	12728	-302	140	-148	-15496	9792	-1744	1332	539	213	-14096	8200	264	450	1799	-1297	123	135	1
-9992	-7192	11304	-715	-5000	-3353	-8056	224	-7888	2290	-5609	-504	-4304	4952	-9288	1470	-1770	-193	-3344	10152	12952	-329	142	-152	-16000	9232	-1488	-686	675	-159	-13992	8984	616	277	1865	-1371	126	133	1
-9760	-8112	11328	-576	-4622	-3231	-9176	1128	-9088	3097	-5873	-247	-1240	6200	-8528	1974	-1416	90	-2968	10136	12888	-331	156	-201	-16376	6192	-2176	-1997	676	-258	-14224	6536	2504	-265	2811	-871	122	133	1
-16796	-14096	16016	-939	-4128	-3709	-9528	1512	-9960	3138	-5891	-226	200	9520	-8528	2227	-989	392	-3272	9840	13312	-313	202	-261	-16160	16	-2152	-1726	1044	-161	-18608	-72	256	-176	2219	-359	122	132	1
-26384	-17532	18516	-662	-3836	-4939	-15128	-136	-18072	2801	-6493	323	248	7560	-7048	1855	-411	652	-3664	10048	13664	-293	259	-340	-15608	-712	-920	-213	1146	33	-19496	2048	2080	-537	1448	41	125	132	1
-32768	-11028	16112	-170	-3485	-5519	-17920	-6624	-21048	2170	-6376	333	-1064	-280	-2504	1645	183	511	-3528	9936	13920	-245	324	-429	-14984	1344	-2768	981	1371	133	-16016	7968	5000	549	1390	-155	106	131	1
-32768	808	12204	-163	-2902	-4757	-21296	-11144	-26016	3041	-5406	603	-9424	-10696	9584	1437	-80	-465	-3000	10384	14040	-191	426	-552	-16936	5232	-1376	1469	1584	162	-14744	9888	4128	1375	1703	-274	128	130	1
-32768	6428	1724	208	-2691	-2676	-18784	-9472	-29080	2165	-3654	940	-20224	-7664	17144	1499	-368	-1269	-3296	10968	14648	-137	656	-811	-17208	6800	-2528	1030	1806	25	-15136	6216	1848	809	1348	-198	126	132	1
-32768	9136	-11124	651	-2568	-250	-8648	-5840	-27592	-83	-1989	290	-24536	4088	18568	1701	293	-604	-2784	10112	16880	123	991	-1015	-18576	2968	-4568	384	2186	-170	-18112	3368	1152	565	1127	-157	116	129	1
-32768	12428	-15432	-10	-1298	1408	-7232	-8968	-27352	-1449	-392	-729	-23760	7408	18808	-801	461	92	-3272	8872	17840	308	1566	-1160	-22224	-504	-5520	300	2358	-273	-19736	944	2216	784	1195	-206	122	125	1
-32768	6572	-12080	-789	284	1787	-8912	-8400	-25352	-2009	1289	-986	-12576	3888	16144	-3405	36	361	-2768	9048	18704	565	2217	-1309	-22408	-896	-4232	484	2529	-334	-20208	2816	4536	1257	899	-282	131	138	1
-32768	-5968	-5200	701	1396	1857	-8232	-7376	-18624	-2131	2622	-854	-1600	496	-19880	-5237	4280	1204	-3032	9928	18016	954	2912	-1573	-21904	-80	-2184	672	2880	-410	-20424	8184	7096	1557	363	-263	129	111	1
32767	-24920	32767	817	4525	1276	-32768	9280	32767	-4573	-842	-499	-27312	-22128	6808	-3345	1683	244	-1992	12768	21120	1324	3763	-1984	-26400	3504	-1272	745	3309	-585	-22104	17776	10680	1701	-454	-115	131	121	1
-32768	-7396	29784	1332	3514	3037	-5360	-32768	-32768	1065	2441	-154	-29600	-27000	24992	2385	196	-1835	-3112	23512	21880	1303	4717	-3011	-32768	616	1896	440	3679	-786	-29760	12800	17304	499	-1916	108	122	124	1
-20284	-5044	22232	653	1776	1337	-7264	16344	-12928	2223	3927	-128	-21280	11712	-3984	4008	2081	166	-3480	26080	22504	976	5754	-4604	-32768	-784	3896	1606	3642	-364	-28048	-1216	17600	-1193	-2639	-609	120	126	1
-6508	-1888	14260	36	1430	1078	-22336	2848	-11712	1714	2544	-514	-21528	11840	-7728	3743	2177	-7	-7560	28216	29304	239	6493	-5714	-32768	7032	5072	2997	3684	-163	-21992	-3504	7912	-1048	-2284	-629	123	127	1
-17740	-12480	12796	199	585	587	-15616	-7256	-13688	409	1430	-204	-8368	5664	-4520	-2773	1804	565	-17336	22448	30784	584	6502	-5428	-24104	8832	-1672	2517	4291	-567	-21000	4864	-9880	1672	-1627	288	125	125	1
-8980	-4728	14572	100	404	225	-15728	296	-10720	240	984	-1356	-16272	-15712	-10008	-1916	2020	1194	-10896	32767	32767	127	3968	-3654	-21776	7456	-21408	-992	4027	-1320	-30752	5856	-11184	1082	-1995	1056	121	128	1
-8404	-6908	13472	-43	328	61	-23392	-600	-5464	-1669	1096	-246	-20032	-6208	-5208	890	1580	284	8248	25576	27560	-1379	-256	-1238	-22408	-1296	-5080	-972	2735	-1197	-32768	920	-7368	-430	-3168	1277	124	124	1
-7400	-7112	12864	-125	321	64	-13872	-6304	-3624	-2767	761	-114	-18176	2040	-1320	991	1695	-97	5800	7400	16024	-1173	-589	-1522	-19216	-1408	-6200	-317	613	-189	-32768	112	-6168	-1079	-3839	1329	123	124	1
-7540	-7764	12344	-135	317	119	-14376	-11936	-3312	-893	749	-497	-14976	2936	-1104	-267	1656	239	9544	15584	11808	-373	-1533	-271	-7168	-6912	-7544	252	-260	-227	-30704	-400	-5936	-1184	-3854	1453	120	123	1
-8404	-6980	12496	-79	273	155	-14688	-11840	-3576	-497	727	-505	-16080	-1168	-1872	-1012	1659	713	9744	6600	8920	-664	-1949	1031	-3256	-6208	-4296	2193	-727	-49	-21104	-3248	-4824	147	-2884	1493	128	130	1
-8032	-6348	12728	-110	302	117	-16144	-3376	-5024	1000	782	-173	-16224	-3424	-1776	-655	1627	867	7448	4496	8288	59	-2203	1891	-7168	-24	-3464	1941	-1884	142	-18864	-1080	-5600	969	-2717	1436	114	126	1
-8064	-7224	12264	-130	310	98	-17632	-3416	-3672	724	701	-25	-15816	-2640	-1456	-231	1563	878	4424	6104	9856	91	-2521	2296	-6696	120	-4136	772	-2910	493	-17008	264	-6624	797	-2776	1434	136	123	1
-8236	-7392	12008	-85	275	107	-15960	-2720	-3120	136	541	-208	-16192	-1048	-1168	10	1621	901	1944	6112	11464	35	-3155	2377	-3984	416	-4664	164	-3499	698	-16288	440	-7176	250	-2605	1186	128	128	1
-8180	-7048	12208	-92	256	106	-14680	-3608	-2736	-575	408	-336	-15568	464	-504	-12	1706	901	-80	7072	12064	73	-3985	2270	-5384	960	-5240	-429	-3954	801	-14632	656	-7392	-550	-2305	822	125	130	1
-8296	-7120	12052	-86	237	109	-14480	-4832	-2488	-764	484	-267	-14600	240	-1384	132	1772	842	-1664	8552	12400	53	-4694	2154	-7464	-952	-6384	-586	-4526	906	-12840	-616	-8328	-1072	-2297	439	103	130	1
-8188	-6928	12096	-72	217	122	-15376	-5536	-2288	-534	601	-243	-14704	-672	-592	360	1929	783	-3168	9584	13200	152	-5224	2034	-9096	-1480	-6256	-286	-5201	1206	-7048	-2104	-8704	-1346	-1885	507	119	131	1
-8172	-6696	12076	-61	231	131	-15264	-4600	-2360	-206	659	-252	-15864	-2296	1528	370	2311	801	-5320	9608	15296	507	-5539	1998	-10344	-728	-8064	-327	-5666	1325	-5728	-2344	-7984	-1118	-1313	327	124	129	1
-8308	-6504	12184	-59	270	137	-14592	-4304	-2480	-127	769	-202	-15928	-2888	2216	-231	2839	755	-7896	13048	17008	944	-5727	2082	-10848	-968	-9192	-205	-6013	1299	-5584	-1888	-9600	-1254	-1160	172	129	129	1
-8344	-6432	12172	-63	276	137	-14712	-4120	-3136	-177	847	-182	-15632	-1296	-2120	-392	2675	594	-9264	16656	17528	1244	-5773	2464	-11944	-3064	-10584	253	-6341	1458	-5080	-1704	-9400	-1337	-1114	161	124	129	1
-8332	-6652	12224	-104	392	181	-15296	-3728	-2968	-366	900	-213	-18032	-1552	-6104	267	1754	477	-10040	19792	19408	1456	-5215	3310	-14712	-2880	-12832	712	-6541	1744	-3048	-4632	-10392	-1220	-754	-232	123	128	1
-8080	-7044	12272	-172	510	277	-16184	-5720	-3680	-312	956	-194	-17944	-2824	-4128	498	1437	501	-16032	20736	24936	1880	-4153	4516	-21072	1032	-13976	692	-6559	1985	-2968	-4824	-10128	-1177	-720	-302	125	128	1
-8564	-7492	12200	-238	659	434	-16696	-5848	-2480	-378	999	-189	-17544	-2024	-1872	116	1430	505	-28896	15896	31272	2322	-3245	5113	-29304	7016	-19336	-897	-6466	1946	-6800	3840	2888	-485	-597	11	126	128	1
-8840	-8324	12348	-157	826	624	-16040	-6256	-568	-636	1109	-148	-17424	-1952	1648	-154	1287	460	-32768	16408	29000	2013	-3109	4268	-28960	7048	-22368	-2559	-5727	967	-11832	13960	8880	-10	429	1341	123	128	1
-9124	-7496	12496	-46	1004	776	-14680	-6056	160	-834	1384	-83	-17408	-3568	4640	-435	1170	221	-32768	15400	16616	-54	-2841	2930	-18872	4848	-23984	-3370	-3931	34	-24392	10312	19328	284	1545	1624	163	128	1
-9240	-7772	12500	-34	1038	801	-16392	-5864	-1216	-855	1745	3	-18248	-2992	3792	-893	1142	-41	-32768	-2976	856	165	-1932	1361	-14952	-2640	-24664	-2212	-2245	383	-23416	8560	31856	-113	53	-57	134	127	1
-8952	-7140	14384	-4	1773	1147	-20112	-3456	-2584	-878	2034	75	-19600	-1288	1968	-1121	1093	-2	-32768	-10272	1360	1714	-495	-652	-8928	-1760	-26728	357	-72	853	-17224	13376	24072	-840	296	21	121	127	1
-8800	-5580	15184	-110	2445	1237	-20488	-3080	-2736	-893	2071	99	-18928	-1544	1360	-1124	936	224	-32768	-1368	8696	-120	625	-1621	-3368	-1488	-24632	2215	2099	638	-16728	4664	14448	-734	334	163	122	127	1
-9016	-6280	14528	-345	3155	1390	-20280	-1888	-1128	-919	2482	377	-20080	-2816	3880	-1031	459	451	-20768	10400	11736	-1147	1421	-2298	-11064	-600	-22176	2992	3581	-18	-15576	-592	15576	363	384	-5	123	126	1
-9640	-7656	13848	-579	3865	1742	-20256	-1936	640	-921	2781	403	-20800	-3720	8688	-841	-337	533	32767	2256	16312	-1187	3395	-2355	-32768	6408	32767	9021	48	-1624	-12480	6928	-360	3090	2038	-929	115	125	1
-8584	-8744	17180	-641	5002	2280	-26328	-6680	2216	-1281	2993	542	-24168	-11976	15240	-897	-1622	113	-32768	11256	32767	278	5152	-2191	-2688	30184	-30296	-2908	979	639	-32768	12952	24144	539	1568	1095	120	123	1
-13152	-20024	11572	-531	6511	3713	-32768	-2392	12520	-2365	3034	491	-23496	-5056	12352	-852	-2484	-311	-13048	6608	23896	-117	1947	-2118	-13024	-1696	-10264	-4232	5014	-1576	-16576	-16624	-9360	-2427	2302	-1340	140	123	1
-32768	-19196	21416	736	6209	5138	-29776	-13360	3424	-3710	3450	388	-24360	8	9256	-158	-2185	326	-3664	11104	11736	167	1978	-1314	-21440	2712	-10408	-4303	3056	-613	-8440	-12040	-12584	-957	253	1134	117	118	1
-32056	-18748	28864	945	5884	5122	-27184	-16200	-3248	-3381	3924	740	-25464	-6848	-7656	-1890	-1132	-642	-20344	26504	20528	-374	806	-923	-11200	5256	-22432	-4683	2462	-234	-8320	4072	-6240	3043	1442	-179	128	127	1
-26396	-23872	29944	-745	4920	3888	-22736	-12704	-13104	56	4137	1479	-30600	-7656	-11264	-662	-1920	-1496	-5560	7176	16808	-478	183	-262	-16032	-5800	-17664	-1946	993	-297	-21568	15912	-16672	2699	2200	-293	130	126	1
-32768	-32768	32767	1053	1248	1846	-21136	-5488	-24688	1942	3476	1394	-31816	2240	-8160	1567	-3151	-1673	-4048	9520	13848	-355	44	-111	-24600	-7224	-9984	2818	1290	764	-17592	7168	-7080	402	1775	172	126	124	1
-2724	-19828	20912	2485	-1357	182	-21304	-1816	-2888	1004	1538	641	-32768	3384	-7856	2331	-3624	-1495	-3824	8944	14040	-194	38	-85	-18424	984	-7368	4646	1095	699	-18296	1112	-1800	-480	1457	45	121	125	1
-552	-9740	16764	614	-1825	45	-15792	-3520	-8344	1632	666	668	-31032	3848	-5808	1676	-3518	-1584	-3848	9056	13520	18	96	-72	-15640	4960	-4416	3998	636	716	-15712	-1056	-784	-113	1368	-470	119	127	1
-852	-16088	14252	747	-2947	-497	-9032	-408	-7624	1455	-139	544	-25048	7448	-5880	414	-3368	-1720	-3280	10144	13432	158	147	-73	-15392	10088	-1104	1548	284	595	-15072	1928	-896	363	1473	-855	119	131	1
1148	-9216	11952	825	-3774	-1160	-6712	3976	-7392	358	-1219	117	-23112	4632	-7320	-867	-3286	-1652	-3648	10032	12936	251	192	-67	-13896	8112	-1560	-1283	629	203	-14040	4880	48	581	1581	-930	198	129	1
256	-7912	10020	93	-4105	-1779	-8840	872	-7472	-690	-2376	162	-21120	872	-6232	-568	-2862	-1301	-3624	10560	12472	214	232	-67	-16728	6736	-2912	-2469	829	-274	-15872	5024	-696	517	1631	-818	116	132	1
-3004	-8032	8728	-82	-4306	-2205	-7600	-288	-6776	-775	-3372	45	-18080	808	-7368	-80	-2872	-1564	-3760	10872	12232	65	286	-53	-18032	1352	-3720	-2498	472	-242	-14928	3768	-592	484	1666	-548	100	131	1
-2372	-6220	9532	-481	-4446	-2551	-5448	-1144	-7520	-66	-4041	-34	-15824	1808	-8264	543	-2730	-1580	-3544	10448	12152	-38	300	-59	-16200	-4272	-4320	-530	316	69	-13976	2784	1816	398	1803	-324	124	129	1
-2660	-6004	9700	-566	-4474	-2602	-1912	-1960	-5232	919	-4868	-458	-12288	3024	-9120	1080	-2395	-1211	-3416	9848	12800	-15	285	-88	-12680	-5632	-2592	1490	375	156	-14536	4040	1264	246	1827	-385	129	128	1
-7228	-7768	12052	-1148	-5054	-2827	-7800	-2136	-6680	1018	-5055	-225	-8872	4288	-9800	1164	-2126	-874	-3608	10528	12040	-7	252	-133	-15840	4240	920	2063	626	419	-14352	7992	4616	243	2000	-591	127	131	1
-8524	-6784	13024	-1506	-5408	-2977	-6944	96	-7992	1287	-5628	-309	-5960	4584	-10368	1059	-1828	-501	-3592	10616	11880	-50	219	-191	-16000	9832	344	1149	783	199	-14640	8768	4832	277	2054	-650	119	132	1
-9832	-8908	13208	-1797	-5414	-2994	-9016	832	-7992	1146	-6080	-493	-3672	3752	-10248	1231	-1488	-208	-3544	10984	12008	-193	174	-282	-15104	9008	1232	-275	823	-97	-16928	9056	416	185	2366	-776	119	132	1
-12104	-12164	14528	-1794	-5172	-3120	-10984	1192	-10272	1129	-6493	-479	-1288	4104	-10368	1548	-1084	86	-3376	10496	12848	-316	123	-375	-14960	5112	-1472	-1428	1341	-147	-17952	3328	-840	-295	1725	-182	119	131	1
-17804	-17572	18528	-1412	-4726	-3607	-14792	944	-15264	1021	-6853	-649	8	7680	-10824	1665	-648	447	-4856	9936	14096	-274	116	-419	-17120	448	-4424	-1099	1450	-62	-16808	768	-640	-411	1429	34	123	127	1
-26472	-16996	21080	-1483	-4028	-5008	-19752	-4744	-17968	1274	-7139	-625	-1376	7216	-8416	1306	-276	803	-4824	9840	14160	-146	205	-457	-17208	112	-4432	14	1529	36	-16160	1592	800	342	1529	-23	130	129	1
-32768	-12028	19284	-1010	-3063	-5732	-22904	-11616	-22408	2227	-6666	-456	-4984	-2672	16	1319	-5	382	-4272	9784	13864	21	325	-552	-16584	1112	-3544	982	1565	182	-15496	1992	1528	1139	1455	-133	125	127	1
-32768	508	12820	-870	-1996	-5281	-23632	-11888	-25832	4348	-5142	29	-15488	-14880	12656	1277	-441	-1521	-3664	11440	15128	208	626	-774	-16720	5032	-2624	1302	1799	170	-15968	4088	2632	1392	1277	-134	102	127	1
-32768	4136	-496	147	-1530	-3512	-16056	-7200	-27920	3494	-3055	759	-23368	-4872	19840	2296	67	-1677	-3872	11688	16056	86	1075	-1113	-20296	4560	-3224	1092	2013	164	-18648	3256	2368	1453	1173	69	133	129	1
-32768	17156	-11720	401	-1167	-833	-8880	-4560	-29200	1277	-1384	-55	-25480	2552	25104	2013	548	-158	-4128	9312	16224	200	1572	-1291	-20632	1776	-5488	864	2224	-2	-17200	5184	680	1687	1136	-35	121	129	1
-32768	18856	-13940	-1025	-22	644	-9864	-3592	-27896	-795	315	-884	-21968	2240	18744	-654	351	579	-4024	9872	16648	395	2141	-1392	-20480	1992	-4600	623	2466	-267	-17824	7448	232	1587	1008	-165	123	144	1
-32768	12468	-16468	1215	2400	2214	-9304	-4416	-19560	-2640	2113	-726	-9728	-4576	13312	-2575	-120	-25	-4040	11408	16552	692	2716	-1676	-20656	3016	-3832	360	2677	-337	-18840	10096	2952	1212	579	-266	135	106	1
27564	-32768	32767	687	4273	2253	-32768	1272	32767	-4700	825	1	-25104	-13880	872	-4965	2717	-225	-3520	11720	17632	954	3356	-2103	-23792	5176	-2616	253	3006	-542	-21624	16904	8152	1023	-27	-80	127	122	1
11688	-22356	32632	250	4111	2437	-16616	-25544	-17752	1978	3000	35	-28488	-9632	3320	622	1759	235	-1688	20192	17720	1272	4206	-3034	-32768	2072	5144	499	3327	-732	-25408	14832	14936	347	-1518	241	126	124	1
-17428	-8644	15800	467	2668	1182	-3328	15784	-13256	3003	3752	320	-13800	5280	-6432	2984	1347	913	-3728	23056	21440	1003	5220	-4525	-32768	-840	4992	1684	3683	-454	-27360	992	19568	-1149	-2819	-83	123	120	1
-32768	-7068	28424	362	715	895	-12472	-7696	-21448	2760	3353	118	-9680	7488	-4184	1786	1064	-420	-12384	26128	25832	760	5903	-5525	-32768	4376	1192	2987	3404	-52	-22720	-7728	10600	-1601	-2407	-461	117	124	1
-13324	-14812	11216	503	277	383	-25384	-8816	-14928	3099	2141	-794	-19552	6632	-14680	-941	2134	-356	-13376	20648	29792	-346	6286	-5796	-28576	10088	3696	2615	3459	-241	-26336	192	-5752	1593	-1708	15	119	119	1
-10704	-7964	13108	270	162	95	-23312	4048	-10104	1815	1411	-533	-21960	-7264	-12112	-710	2205	395	-13528	28432	28976	1536	4986	-4566	-24776	4152	-18304	145	4219	-708	-30968	5432	-11232	2887	-1548	830	116	126	1
-7828	-7536	12900	194	106	26	-12904	2048	-5144	-1373	1160	-340	-20472	-7920	-10840	-438	2208	467	-22968	32767	32767	77	1718	-2274	-19480	-352	-22672	-1187	3091	-1148	-32544	-2216	-7808	1334	-2530	1348	122	124	1
-7256	-8056	12100	207	87	100	-13368	-744	-4536	-3002	801	-326	-14904	2304	192	983	1831	138	7264	11928	18848	-2124	-143	-71	-23896	-3040	-2696	446	1037	227	-31992	-3696	-7248	-303	-3648	1291	124	124	1
-7288	-6592	12944	111	159	95	-17208	-7128	-4536	-2556	507	-689	-15416	4216	-728	-81	1619	372	5064	192	14144	45	-395	-176	-14968	-7032	-5416	369	-252	-37	-26664	104	-5744	-635	-3800	1691	119	123	1
-7296	-7260	12508	27	220	110	-18024	-8616	-3912	-2266	473	-700	-16152	1896	-2432	-856	1650	849	3024	9872	15984	546	-1401	376	-4088	-6968	-7288	1151	-683	182	-24336	344	-5352	-690	-3623	1798	116	126	1
-7436	-7336	12440	18	234	117	-14640	-7240	-3592	1090	840	-310	-16688	-2056	-2976	-840	1697	881	2544	6728	16912	-268	-2597	1304	-3432	-5736	-6216	1827	-1044	398	-19808	-2136	-4480	597	-2962	1350	125	127	1
-7732	-7992	11772	54	218	142	-14224	-4680	-2600	1637	972	81	-15752	-2960	-1720	-320	1570	743	1328	3536	14848	-267	-3713	1818	-8448	-1840	-4000	1668	-1866	471	-18600	64	-5784	778	-2865	1514	134	128	1
-7844	-7380	12208	117	154	158	-16336	-120	-3064	659	812	-167	-15880	-896	-1040	71	1627	727	1968	3896	12480	-250	-4529	1904	-7752	-1824	-3544	733	-2936	681	-17488	-168	-6496	221	-2881	1451	135	128	1
-7540	-6760	12528	56	167	160	-17032	-600	-2672	-736	516	-326	-15552	1992	552	246	1587	783	904	3992	12344	-64	-5134	1944	-5528	-3936	-4496	332	-3620	1005	-15120	-312	-7464	-498	-2711	868	124	130	1
-7736	-7380	12036	8	186	157	-15080	-3712	-1112	-1428	485	-370	-14384	1176	808	239	1769	782	1256	5040	11592	238	-5579	2073	-6960	-3760	-4048	295	-4179	1114	-13304	-408	-8240	-1035	-2580	351	119	128	1
-7876	-7412	12144	22	173	193	-14600	-6648	-1376	-1016	634	-286	-15616	-1736	1296	-53	2137	602	488	6032	12416	550	-5688	2210	-9312	-3184	-4504	457	-4834	1281	-10048	-960	-8776	-1244	-2288	130	62	130	1
-8008	-7252	12104	54	158	220	-14048	-6496	-2120	-321	801	-253	-15776	-4848	2032	-406	2524	478	-872	8552	13704	935	-5670	2482	-9496	-2488	-6144	353	-5467	1474	-6008	-1432	-9536	-1176	-1654	129	118	129	1
-8168	-7084	12052	109	141	245	-14384	-5144	-2800	110	965	-209	-16024	-4968	-2080	-585	2490	605	-3240	9928	16256	1392	-5579	2750	-10016	-1616	-7424	35	-5951	1491	-5432	-1768	-9144	-1178	-1324	-6	125	129	1
-8104	-7272	12192	145	149	284	-15000	-4168	-3848	48	1024	-186	-17360	-3104	-5624	90	1902	659	-6384	14368	18808	1702	-5526	3028	-11272	-2560	-8336	-115	-6348	1574	-4016	-2152	-10296	-1377	-1099	-156	126	130	1
-8024	-6976	12624	133	195	344	-16408	-3528	-4400	-235	990	-193	-17008	-1040	-5248	581	1543	580	-9320	18672	21344	1680	-5261	3527	-13808	-3152	-11416	-80	-6575	1730	-2664	-4096	-11392	-1633	-927	-415	125	129	1
-7872	-6944	12964	103	369	425	-17088	-3608	-3832	-521	931	-203	-17000	840	-3360	435	1577	510	-12976	24432	24872	1678	-4658	4315	-19824	-952	-13088	-56	-6707	1876	-3496	-5600	-9712	-1800	-854	-666	127	129	1
-7984	-6820	13192	47	609	541	-16952	-4960	-2912	-645	951	-178	-17920	1512	-984	-76	1535	477	-22616	24496	29104	1739	-3748	5230	-30144	4136	-17736	-884	-6722	2008	-7168	-3392	-1872	-1705	-811	-531	126	129	1
-8308	-7420	13124	57	871	672	-16896	-5504	-984	-606	1123	-121	-18832	-536	2128	-275	1342	331	-32768	18272	29376	1962	-2834	5192	-30680	5672	-22264	-2497	-6327	1289	-13328	7752	9880	-1165	-578	401	128	129	1
-8816	-7028	13112	112	1114	801	-15664	-5200	-320	-608	1434	-50	-18328	-4208	3624	-571	1279	168	-32768	20672	22176	665	-2337	3943	-25152	7424	-23840	-3161	-4571	164	-22880	16760	16136	-554	1312	1426	129	130	1
-8928	-7404	13584	176	1417	894	-15672	-5808	-2168	-568	1788	44	-15968	-5248	2264	-933	1252	95	-32768	4272	7560	-369	-1575	2550	-13832	616	-26664	-2828	-3006	151	-19992	8912	32767	-65	178	37	119	128	1
-9216	-7312	13944	206	1809	1062	-18712	-4456	-3208	-583	2044	95	-17200	-3032	208	-839	1237	139	-32768	-6848	-744	1401	-795	347	-10640	-352	-27944	-879	-697	308	-18776	6664	29624	-1160	-7	772	130	127	1
-9044	-7316	14096	215	1884	1095	-19184	-4440	-3184	-608	2081	105	-18344	-3352	216	-589	1161	370	-32768	448	2328	120	519	-1169	-2992	1416	-25792	1159	1779	665	-17456	3064	18040	-264	-120	139	125	128	1
-9200	-6676	14852	143	2856	1393	-18984	-4016	-1672	-699	2473	390	-18864	-3632	1968	-682	777	466	-32768	5744	6624	-1065	1764	-1909	-7600	1120	-22360	2008	3472	0	-13704	384	15968	1395	-206	191	124	127	1
-9768	-7564	14264	-21	3434	1774	-19400	-3760	-240	-684	2766	436	-20432	-4048	5536	-691	185	520	32767	22112	13376	-1846	4282	-3587	-32768	5544	32767	11844	1168	-1302	-14784	1024	312	3834	2384	-437	114	127	1
-9320	-8584	16948	55	4172	2325	-23760	-6960	1864	-1077	2998	536	-22160	-11168	10704	-560	-588	310	-32768	27136	32767	-878	4460	-3125	-8384	32767	-32768	-2928	1145	1446	-32768	18880	18056	1993	1231	1616	111	125	1
-11284	-14200	16616	-252	5546	3294	-32768	-6248	9032	-1553	3190	828	-27728	-14480	17016	-509	-2340	-527	-11312	11056	26536	-550	2037	-1734	-16592	-7336	-11664	-3896	5171	-1155	-16464	-12960	-9832	-1237	2220	-1030	135	126	1
-29492	-21044	19788	959	5950	4979	-31104	-9704	3368	-3178	3251	505	-25776	912	12784	291	-2694	312	-5912	10432	22872	-354	1858	-1615	-19552	-2048	-9904	-2557	3203	-478	-10808	-12440	-10320	-1147	492	1208	130	128	1
-27036	-17560	27852	2173	5670	5521	-29560	-15856	7272	-3474	3334	580	-25832	-1432	-2840	-363	-1724	-152	-13800	16696	18328	-412	589	-839	-10960	3456	-16088	-2687	1880	-65	-12272	4128	-7200	2564	1447	125	124	129	1
-28032	-17860	26604	905	5707	4616	-22936	-12512	-13944	-1442	3909	1072	-23680	-3680	-12008	-1036	-1494	-1202	-6824	10528	15808	-209	275	-424	-15592	-1760	-12880	-1219	929	708	-19272	14296	-13144	2009	1941	-529	138	131	1
-16952	-29352	17152	731	3690	3103	-22264	-2984	-22536	1167	3606	1425	-32616	3248	-9576	364	-2768	-1841	-3424	10936	13112	-60	174	-223	-24632	-5224	-7672	1635	1210	484	-16808	6080	-5744	-154	1773	-121	132	129	1
-11408	-31148	26188	2266	-772	-205	-22384	-2064	-5656	459	1960	762	-32768	7192	-7792	1235	-3355	-1747	-3232	10144	13736	-59	140	-200	-18528	608	-6152	3820	1206	516	-18096	2320	-856	-326	1498	-27	127	130	1
1988	-5500	16312	791	-1053	-459	-16024	-1384	-6696	629	474	364	-29800	4448	-7824	1009	-3513	-1772	-2408	9328	13488	70	153	-202	-15136	7632	-1576	3349	692	578	-15568	1616	600	164	1434	-329	120	128	1
-628	-13756	13936	-338	-1908	-1149	-9240	-352	-8448	1134	-180	501	-24352	6520	-6416	167	-3307	-1952	-2792	9672	13720	165	159	-243	-15080	7840	-720	700	396	445	-14728	2536	832	330	1400	-621	117	133	1
1592	-9768	11448	255	-2923	-1640	-3912	3152	-6096	497	-1108	-98	-21392	4472	-6592	-747	-3075	-1734	-2904	9584	13120	198	187	-273	-15112	4816	-2528	-944	646	222	-14160	3640	784	574	1475	-773	94	133	1
1380	-3912	10640	-315	-3362	-2043	-6104	2392	-6040	35	-2061	-221	-18912	1440	-6888	-471	-2689	-1284	-3056	10896	12256	144	196	-276	-17464	4800	-2848	-1724	988	-281	-13072	3064	-312	580	1527	-860	144	136	1
-828	-5316	10392	-832	-3767	-2187	-7480	336	-6040	49	-3014	-229	-17232	1336	-7624	190	-2697	-1411	-3504	11016	12392	-7	184	-266	-17816	1848	-3992	-1640	620	-64	-15008	2440	-832	388	1684	-549	124	135	1
-3388	-5124	11708	-1118	-4248	-2361	-5864	1784	-7064	361	-3710	-337	-16056	3056	-7392	837	-2679	-1381	-3912	10304	13032	-57	187	-248	-15888	-1208	-4384	-537	424	140	-14240	2208	664	378	1663	-451	79	134	1
-4588	-5744	11744	-1424	-4700	-2567	-6008	2064	-6896	461	-4296	-492	-13584	3872	-8544	1319	-2469	-1080	-4344	9856	12856	-24	190	-221	-15280	-5808	-3864	873	507	243	-14112	3552	1400	287	1743	-458	126	136	1
-6388	-6816	12180	-1695	-5045	-2760	-8888	1264	-6904	706	-4838	-482	-10128	5704	-9432	1329	-2299	-802	-3592	10304	12808	-43	194	-208	-15648	2576	-2416	1125	681	280	-14896	7136	3344	584	1931	-395	125	136	1
-8152	-7156	13136	-1856	-5255	-2973	-8336	560	-8944	682	-5517	-779	-7232	6104	-9776	967	-1987	-451	-3864	10096	13112	-68	190	-206	-16008	7064	-1640	686	801	141	-15032	7488	3200	716	2025	-410	124	136	1
-9788	-7080	14380	-2269	-5243	-3090	-9328	280	-7784	709	-5986	-977	-5216	5176	-9760	684	-1646	-216	-3888	9816	12936	-83	187	-225	-15240	6248	-1480	-285	937	-33	-17648	8848	-936	394	2276	-881	121	135	1
-12864	-11188	15868	-2194	-5243	-3129	-9976	408	-9696	1021	-6303	-1031	-3056	4736	-9832	700	-1234	11	-3616	9832	13056	-67	214	-273	-15536	3240	-2104	-768	1106	-32	-17672	5008	-208	-567	1802	-473	119	134	1
-14916	-13684	17520	-1782	-5004	-3330	-13168	384	-10176	1149	-6586	-1196	-1144	6160	-11776	645	-742	328	-3488	9904	13400	-16	288	-372	-16928	1440	-2216	-503	1273	22	-16256	3232	784	-967	1502	-230	127	133	1
-18276	-14540	21492	-1737	-4276	-4007	-18056	-1504	-14376	1695	-6807	-1222	-928	7448	-10240	600	-350	708	-3016	10616	13744	38	406	-529	-16992	2288	-3112	-98	1364	120	-16504	3272	1072	-614	1574	-214	83	134	1
-28716	-14472	26144	-1587	-3116	-4995	-26912	-6992	-18088	2385	-6857	-908	-3104	2664	-4312	705	-16	677	-2808	9448	13952	61	591	-714	-17104	2608	-3696	307	1421	171	-17176	3240	1576	182	1669	-361	106	135	1
-32768	-3016	25812	-1624	-2120	-5254	-29968	-10152	-20632	3212	-6273	-108	-8288	-9592	7232	613	84	-546	-4344	9040	13936	195	752	-814	-16792	1608	-3712	670	1537	189	-15624	2728	2312	746	1616	-309	127	134	1
-32768	-3148	16340	-469	-2323	-4262	-23888	-7464	-21496	2519	-4616	162	-22232	-14880	19200	591	-279	-1908	-3912	10616	15040	362	1050	-844	-16960	3320	-2400	817	1814	74	-15928	2448	3272	987	1402	-159	124	133	1
-32768	23732	-2620	-220	-2105	-2101	-13080	-3984	-25248	1555	-2887	64	-32768	-11256	29704	1209	46	-791	-4800	10336	15152	329	1460	-1034	-19528	2560	-4488	662	2050	71	-17560	1256	2736	1205	1468	26	119	135	1
-32768	29180	-11724	-2438	-1069	588	-7824	-1768	-25368	-965	-906	-786	-20688	-2104	22584	1225	-211	725	-4480	10192	15272	348	1530	-1061	-19424	1624	-5248	523	2294	-140	-17600	5416	1152	1676	1386	-136	125	122	1
-32768	17440	-8956	-404	-107	2038	-5280	-952	-22264	-3107	1166	-607	-15776	-1840	13976	-1097	186	955	-4264	10200	16272	734	2544	-1304	-20520	2016	-2864	372	2523	-315	-18672	9456	1152	1594	1070	-292	125	126	1
-32768	4224	-3592	1549	1004	2824	-8296	-5512	-22920	-3663	3018	307	-17144	2112	13032	-1914	459	-77	-4168	10920	15744	1107	3091	-1684	-20608	1496	-1944	290	2824	-377	-19528	10760	6800	825	273	-342	136	128	1
32767	-32768	32767	4585	1241	4018	-32768	-32768	32767	-9658	170	-65	-3096	-1720	-8208	-3885	2009	-17	-2792	10344	19168	1695	3806	-2246	-24880	1440	-1768	452	3238	-553	-21784	16056	13704	462	-994	-129	129	111	1
-32768	7676	12600	1969	4747	2324	-16360	-21088	-26408	6661	3358	-1030	-32768	-27696	19200	-1332	1257	-701	-1328	19352	17616	2188	4988	-3297	-32768	-5304	8048	1276	3546	-843	-26416	8416	21016	-300	-2059	212	123	126	1
-25680	3176	31000	1352	2367	1995	-13584	22448	-19064	5581	5021	2009	-19240	912	840	3243	1332	606	-8504	24752	21200	2018	6218	-4810	-32768	-2208	5496	2896	3529	-536	-25528	-4248	19232	-1235	-2293	-574	92	131	1
-24548	-15484	20764	1097	923	877	-26760	-2520	-14544	1046	3296	104	-15368	16096	-13064	3510	1558	-17	-16808	32744	22544	417	6675	-5926	-32768	12120	-24	2895	3277	-590	-25448	-2592	6952	409	-1998	-793	131	135	1
-12588	-6564	15356	748	164	483	-13328	-4936	-13056	756	1965	-985	-11480	12288	-11112	-1154	1603	-56	-21344	32767	31432	-353	6479	-5656	-26064	15408	-208	1091	4107	-987	-26032	8808	-13408	2724	-1255	174	132	127	1
-9144	-4148	15740	406	42	188	-14992	616	-11736	394	1659	-773	-16528	-1520	-12136	-2236	1644	767	-2256	23640	30200	-17	4190	-3632	-23832	5944	-21448	-2449	4180	-1579	-32384	7696	-10800	1273	-1951	1176	116	128	1
-7380	-6192	13916	164	114	125	-19088	-3248	-7456	-1125	1270	-36	-18272	-7504	-8912	-614	1879	462	-2440	32767	32767	-959	-1083	-1016	-23560	-2280	-11448	-2495	2533	-1162	-32768	2920	-5000	-1082	-3481	1183	136	132	1
-7268	-6376	13256	122	90	149	-17536	-3160	-5848	-2920	886	-129	-16152	-2336	-4176	62	1688	86	5608	12800	17976	-1547	-2498	-1097	-21728	-2336	-7600	-62	730	-472	-32768	-864	-6760	-2065	-3863	1371	130	130	1
-6888	-6524	13260	25	141	135	-15800	-8504	-3856	-2271	587	-356	-16992	-232	-2784	-462	1593	271	7136	15752	12192	-911	-3458	-282	-19600	-3008	-8440	-125	444	-421	-26392	-3704	-4664	-1462	-3436	1680	119	123	1
-7404	-6408	13028	22	112	143	-14776	-8856	-4488	-832	651	-398	-16616	-1240	-3544	-671	1620	932	8880	11008	9056	-1398	-3729	977	-5392	-6928	-5192	1973	-1099	12	-23616	-4432	-5344	75	-3189	1340	113	127	1
-7240	-6340	13420	-18	176	117	-15104	-8408	-4176	775	855	42	-16200	-1576	-2200	-421	1533	1208	7368	3944	7904	-625	-3770	1863	-8800	-3168	-4000	2607	-2157	175	-20312	-776	-6840	1268	-3040	1299	126	131	1
-7760	-6864	12856	23	160	121	-16040	-4272	-3984	1413	957	313	-15408	-1344	-2672	-132	1596	1094	3976	6704	9800	25	-3795	2425	-7696	-1488	-4376	2291	-3237	572	-17816	552	-7912	1034	-3065	1449	136	133	1
-7176	-6396	13368	31	163	104	-17264	-1472	-3128	756	802	25	-16616	816	-984	63	1664	986	2168	6760	11248	-5	-4187	2856	-4192	-808	-4656	1851	-3979	891	-14800	992	-9080	370	-2927	1188	128	135	1
-7392	-5976	13508	-12	199	106	-15904	-1064	-1912	-373	566	-148	-15784	2344	600	59	1677	951	1064	5216	12584	202	-4772	2862	-4912	1296	-4816	885	-4433	1123	-13064	456	-9752	-545	-2548	748	103	134	1
-7232	-6440	13128	-38	234	149	-14648	-4336	-1512	-1094	600	-180	-14536	1144	920	-202	1779	908	-1408	8272	14520	386	-5359	2724	-8168	-160	-5272	127	-5003	1240	-10992	-1040	-10336	-1093	-2498	407	121	132	1
-7440	-6472	12860	-21	253	223	-14792	-6320	-1392	-1008	681	-118	-14744	-2288	1280	-248	2069	864	-2056	8712	15376	452	-5904	2697	-9104	-1480	-6360	-360	-5691	1420	-7224	-1728	-10672	-1410	-2130	499	125	134	1
-7332	-6520	12860	28	259	309	-13752	-6064	-1440	-719	806	-115	-15536	-6096	2208	-442	2374	814	-4536	10312	17160	943	-6182	2658	-10656	-2024	-7704	-754	-6195	1450	-4472	-3408	-10552	-1161	-1163	180	124	132	1
-7528	-6732	12812	92	314	399	-14496	-5760	-2288	-372	992	-77	-16728	-5272	-752	-686	2497	749	-6880	15240	18288	1287	-6214	2821	-12384	-3416	-9240	-798	-6580	1447	-3576	-4312	-11016	-1359	-965	-35	125	133	1
-7560	-6536	13592	125	444	523	-16376	-4904	-3072	-247	1092	-46	-18216	-1944	-5360	-195	2016	600	-8648	18104	20144	1552	-5423	3255	-14520	-6352	-11384	-256	-6808	1499	-1672	-5120	-11728	-1649	-971	-220	126	133	1
-7812	-5932	13876	118	646	629	-18176	-3176	-5120	-432	1108	-78	-18960	760	-4760	314	1549	524	-16464	28264	26752	1736	-4544	4119	-20640	-2896	-17920	569	-6759	1796	-2544	-3904	-9112	-2018	-972	-452	127	132	1
-8004	-5416	14096	73	872	640	-17208	-3576	-4392	-722	1067	-41	-16776	-176	-2784	53	1546	616	-26280	25336	29776	1681	-3936	5328	-31912	6168	-20568	-80	-6723	2210	-4728	-824	-136	-2511	-1060	-292	126	131	1
-8284	-5828	13812	61	1120	680	-15720	-5432	-3640	-679	1138	18	-16288	-1880	-1304	-186	1465	704	-32768	17712	28352	2114	-3088	5195	-27392	6512	-23888	-2230	-6233	1516	-9800	7696	11184	-1874	-889	464	122	132	1
-8712	-5764	13660	62	1379	757	-15984	-5816	-1144	-671	1362	87	-17856	-3712	1992	-74	1296	634	-32768	15128	19120	1059	-2526	3740	-21096	6656	-27232	-3485	-4283	435	-22376	9400	18240	-973	366	1162	126	133	1
-8724	-6864	14028	128	1662	871	-16568	-6608	-528	-643	1710	226	-18112	-5120	5192	-325	1290	359	-32768	1120	4568	287	-1511	1774	-12824	-552	-29752	-2958	-2176	-72	-24136	3016	32767	468	-57	10	126	130	1
-8584	-5972	14844	200	2036	1102	-16872	-6632	-880	-638	1765	246	-19416	-3592	4328	-804	1313	204	-32768	-4832	544	1352	-378	-182	-8768	-2176	-30848	-139	-405	368	-21504	3984	27448	1031	600	394	129	129	1
-9296	-5980	15476	202	2558	1359	-20128	-3576	-1888	-972	2324	375	-19256	-2824	3248	-992	1127	363	-32768	960	3432	381	707	-1447	-1992	1600	-25680	2303	1901	905	-13840	4648	14880	2077	322	89	122	129	1
-9444	-6352	15508	120	3138	1660	-20344	-3568	-840	-1080	2573	503	-19616	-3608	3816	-885	629	532	-4576	-9776	12232	-2207	4781	-4080	-18000	2232	16184	6032	3118	159	-17544	9704	22352	3198	-822	82	134	129	1
-9628	-6628	16860	53	3789	2072	-20888	-3760	-1000	-1172	2846	600	-20472	-8392	6584	-904	-169	604	-32768	16384	17368	1325	4197	-2774	-32768	-8920	-5080	2687	2314	320	-12416	14544	13904	3513	3118	267	108	128	1
-10932	-7312	17044	163	4762	2605	-27776	-6040	1480	-1323	3090	938	-24024	-15640	15448	-870	-1293	-20	-25464	13928	32767	171	3658	-2525	-8856	1768	-6272	-2881	2595	-552	-27160	10656	8688	-344	2152	-851	106	127	1
-15380	-17956	17780	624	5728	3859	-32768	-8048	11280	-2105	3228	920	-22736	-9040	10168	-628	-1910	138	-5200	15240	11912	-366	2101	-1935	-15088	456	-10144	-3986	4351	-1256	-14672	-9896	-20360	-3577	1171	-799	112	126	1
-24008	-19952	24028	2009	6065	5285	-31176	-14424	7024	-2650	3571	952	-27544	-1904	11120	878	-2526	300	-17352	18984	21520	-714	1882	-1629	-12056	12312	-14224	-5184	3335	-494	-9240	-5552	88	-1396	39	615	139	122	1
-30860	-16616	30360	2268	5941	5188	-27408	-15744	944	-2452	3627	1132	-23392	-5648	-9064	-139	-1748	-483	-15040	16720	21296	-1195	368	-755	-10360	1248	-20168	-5815	1950	-196	-18152	6576	-10320	1089	1692	238	126	127	1
-23388	-28716	30840	880	4597	3850	-22144	-10296	-20624	104	4070	1602	-29400	-2504	-11304	347	-2029	-1478	-6640	12888	13672	-565	109	-393	-30120	-12944	-17344	-2465	1370	32	-21760	4440	-10360	788	2240	434	132	128	1
-24276	-32768	32767	1771	237	579	-25056	-7648	-13520	1493	3005	1164	-32768	4880	-7696	1100	-3105	-1808	-4480	10168	13888	-333	73	-221	-18984	-8376	-9760	3389	1565	692	-18768	632	-2096	452	1643	400	124	129	1
-152	-15164	19360	2280	-962	-176	-24184	-1376	-6672	953	1018	616	-32768	6152	-7920	1211	-3221	-1777	-3456	9912	13456	-145	73	-171	-14712	-24	-8056	5499	1262	917	-18232	-888	-2064	928	1525	194	121	130	1
-2832	-13968	17864	88	-1635	-1042	-14936	-2688	-9904	1528	387	706	-28976	5800	-6864	984	-3382	-1752	-3560	9928	13304	-129	75	-172	-14856	7584	-4912	4801	782	862	-15296	2864	-2392	1525	1512	-288	119	134	1
-1260	-14404	15584	90	-3036	-1817	-8208	4000	-7584	926	-745	268	-25224	7640	-5448	76	-3433	-2076	-3448	9864	13024	103	109	-175	-16256	11800	-2752	1309	391	526	-14152	7800	-2520	1325	1710	-886	118	132	1
644	-7760	12584	-462	-3781	-2494	-5936	4304	-5968	-259	-1865	-117	-23096	5008	-6224	-850	-3404	-1935	-3392	10104	12568	78	104	-202	-15304	6736	-4824	-1666	658	109	-15184	7152	-2632	583	1709	-934	121	131	1
524	-6900	10452	-886	-3904	-2952	-8832	2048	-6184	-482	-2861	-294	-20136	824	-5456	113	-3156	-1410	-3960	10152	12712	53	143	-192	-16408	4152	-4840	-3081	926	-427	-16704	4096	-1456	-305	1737	-795	137	132	1
408	-4144	10504	-1002	-3699	-3254	-9024	2096	-5760	271	-3639	-353	-17512	2664	-7712	918	-3135	-1210	-4008	10520	12632	46	146	-169	-17352	-24	-5128	-2978	491	-261	-15488	-56	968	-70	1763	-888	134	132	1
-3608	-5212	13468	-1267	-3747	-3632	-7296	2376	-7888	925	-4171	-402	-14728	4968	-9144	1155	-3026	-1094	-4792	10336	13280	39	148	-170	-17064	-4176	-4528	-1088	300	131	-14664	232	624	194	1935	-511	122	129	1
-6052	-5808	15164	-1216	-4237	-3856	-7808	-128	-7512	1252	-4706	-397	-11096	5376	-10080	999	-2666	-716	-3960	10152	12776	39	160	-166	-14776	-2432	-3064	1118	429	353	-14352	1504	1136	595	2046	-487	111	128	1
-8868	-6468	16648	-1246	-4726	-4003	-8680	-1824	-9776	2187	-5256	-322	-8416	4896	-10616	666	-2282	-425	-3856	10424	12496	-6	161	-190	-14952	3064	-2408	2157	607	474	-13968	4192	720	561	2121	-743	123	128	1
-10804	-6832	16140	-1200	-5052	-4002	-9144	-48	-9072	2855	-5697	-164	-5976	4432	-10680	655	-1854	-311	-3920	10096	12944	-55	164	-205	-16128	7384	-2216	1575	688	320	-15400	8232	1768	279	2303	-1029	124	128	1
-11736	-7064	17272	-1271	-5054	-3849	-11024	1968	-12112	3064	-6090	73	-3336	4704	-10968	967	-1484	-195	-4280	9976	12896	-61	193	-223	-15992	7440	-2864	-120	787	51	-15160	10008	2832	155	2706	-1146	124	128	1
-13860	-11072	18220	-1325	-4894	-3635	-14320	2592	-12376	2250	-6795	343	-1416	5944	-11400	1076	-938	42	-4656	10184	12896	-63	235	-274	-16152	3720	-2568	-1062	979	-16	-16392	7536	-1696	-224	2750	-817	117	127	1
-22652	-15072	21384	-818	-4626	-3744	-17248	184	-19304	1218	-7317	223	168	7632	-9560	1236	-472	404	-3928	10552	13328	-41	367	-396	-16688	1080	-2912	-863	1130	0	-19920	1872	-1752	-1098	1949	-246	112	125	1
-32768	-11244	20728	-752	-3916	-3830	-21184	-6512	-20384	220	-7318	132	-1000	1080	-3968	1445	-227	567	-3480	10368	13720	31	574	-544	-16464	-848	-2632	-11	1295	78	-18160	1408	4400	-1238	1417	-126	118	126	1
-32768	-5704	17908	-954	-3145	-3640	-25376	-12232	-25704	684	-6166	-37	-8680	-11568	12664	866	-926	-550	-4192	9784	14112	165	794	-673	-17048	1288	-1352	914	1533	169	-15448	3448	8384	387	1599	-169	113	120	1
-32768	3420	4428	-411	-2962	-3198	-18792	-10328	-28344	1169	-3976	148	-20240	-6112	17080	770	-959	-1913	-4448	10448	14680	207	1097	-814	-17656	5064	-2240	1152	1847	64	-16568	1704	4840	1785	1826	-52	119	127	1
-32768	13752	-10956	-299	-2331	-1216	-6360	-6832	-26408	531	-2246	-36	-26336	-104	18576	1011	501	-372	-4096	11072	15544	236	1430	-1059	-19552	4200	-2960	797	2138	-92	-18000	3768	1232	2102	1492	-34	118	126	1
-32768	18956	-12504	-983	-923	689	-7664	-7000	-28080	122	-399	-722	-21832	-2120	15696	-1494	418	657	-4304	10064	16480	282	1955	-1251	-20272	792	-4776	677	2395	-216	-18128	6640	440	2023	1214	-91	114	127	1
-32768	13472	-10292	-241	207	1653	-8224	-6760	-27320	-43	-133	-772	-11640	-4272	12664	-1977	-771	475	-4104	9640	16920	525	2541	-1488	-20440	224	-4128	610	2648	-372	-18792	7040	2216	1460	866	-262	115	130	1
-16696	-8824	-2736	1897	2356	2563	-5240	-6704	-17088	-2644	2678	-469	616	-5552	-8360	-3320	3013	709	-3664	10704	16368	962	3125	-1805	-21016	392	-2888	510	2942	-520	-18904	9368	5680	1113	293	-354	124	113	1
32767	-12300	32767	2311	3919	4341	-32768	-3520	15352	-2729	725	-1032	-32768	-14880	7096	-2448	1214	157	-2744	11512	18952	1516	3920	-2324	-27048	2344	-3576	437	3279	-749	-23384	17704	11008	956	-591	-99	131	124	1
-32000	-2716	24100	1404	4554	1933	-17216	-21920	-5360	3975	3119	660	-30512	-12632	12208	2813	830	-1312	-1280	23864	15072	1522	4771	-3506	-32768	-1936	8552	1266	3540	-957	-27856	9488	17744	-5	-1882	33	121	112	1
-25072	-8704	23036	726	3356	994	-16712	-11752	-5640	5396	3544	1500	-18192	14104	-4016	3662	1709	359	-10632	32767	21808	169	5622	-5199	-32768	4288	4800	2567	3591	-427	-25224	-4416	16816	-1294	-2522	-564	119	121	1
-29840	-7396	24540	972	2945	1004	-13136	-14088	-18664	623	2846	-251	-11120	11816	-10728	443	1238	-582	-9616	29448	28352	-1321	6097	-5968	-32768	12872	168	2180	3729	-377	-23560	-2696	1648	63	-1886	-552	121	125	1
-24012	-1644	24060	1239	252	528	-16264	-7336	-19728	2483	2086	-1334	-16424	-5096	-11672	-2120	2036	263	-16152	21048	29336	276	5749	-5231	-24888	6864	-5432	154	4315	-704	-28096	5000	-12616	2131	-1423	439	120	123	1
-9288	-6056	14080	607	69	155	-22656	-1544	-9984	3012	1939	-234	-18792	-14320	-11784	241	2122	631	-10832	30872	28160	1064	2835	-4343	-24376	1808	-26360	-1652	4014	-1235	-32768	936	-10912	1419	-2152	1161	119	125	1
-8692	-6044	14048	298	105	30	-17744	3192	-6144	173	1400	482	-18872	1064	-6128	2277	1803	503	3232	32767	27752	-1947	-1253	-1571	-24696	-664	-7640	-385	2109	-263	-32768	-5288	-8600	-166	-3417	1317	120	122	1
-7976	-5844	13532	169	107	45	-14840	-888	-5496	-2499	828	-407	-16784	4976	-3200	1385	1809	62	6624	6352	13360	-1486	-1652	-1323	-19752	-3528	-8376	785	465	25	-31016	-2800	-9112	-515	-3933	1616	122	118	1
-7544	-6004	13200	61	165	47	-15640	-6440	-4744	-2624	379	-645	-16880	3240	-2616	-161	1655	204	7512	13864	8096	-125	-2024	-325	-8416	-4120	-7256	1307	-613	170	-24688	-944	-6344	-66	-3499	2170	118	118	1
-8252	-5332	13596	-10	159	65	-16376	-7976	-4992	-1301	449	-571	-16208	960	-2232	-762	1793	623	8952	8920	6432	-417	-1999	1032	-2624	-5864	-5296	2234	-1117	365	-21168	-2296	-6496	802	-3128	1914	103	124	1
-7916	-5012	13396	-82	207	35	-16776	-7088	-4520	432	668	-159	-16624	-472	-2320	-732	1741	920	6008	4392	7968	360	-1975	2080	-4952	-1016	-3920	2163	-1998	531	-17712	-536	-6088	1263	-2818	1882	123	121	1
-7808	-5960	12864	-104	215	48	-15824	-4544	-3032	1321	668	67	-16464	-760	-1280	-331	1676	992	2528	7368	10080	737	-2355	2609	-5336	1104	-4320	985	-2817	751	-15728	-320	-7048	840	-2760	1983	137	122	1
-8148	-5900	12736	-60	183	56	-14912	-1640	-2888	895	639	-173	-15648	248	-1424	-166	1748	822	1200	7136	11656	540	-3087	2780	-4424	1144	-4088	-6	-3505	1075	-14560	-1240	-6680	246	-2661	1625	121	121	1
-8060	-5704	13080	-67	183	70	-15784	-2112	-2352	-34	443	-331	-15224	1632	152	-130	1691	747	-664	6936	12768	621	-3932	2691	-5656	952	-4304	-723	-3927	1304	-13344	-984	-7592	-451	-2270	1090	117	125	1
-8188	-6128	12596	-58	163	94	-14936	-3936	-1744	-889	376	-373	-14488	1648	-336	-272	1725	672	-2424	8912	14280	818	-4813	2709	-7992	-1288	-7296	-1113	-4481	1379	-12240	-1072	-8264	-850	-2275	617	127	124	1
-8260	-5816	12524	-9	139	136	-14496	-5464	-1744	-1061	491	-338	-14408	-248	232	-240	1925	554	-2576	8696	13520	1019	-5433	2709	-9520	-2584	-5992	-829	-5233	1526	-8184	-1608	-9176	-1209	-1857	585	120	126	1
-7972	-5352	12556	24	146	154	-13320	-6064	-1640	-788	636	-309	-14944	-3856	3000	-294	2372	534	-3752	9456	15120	1441	-5555	2630	-11184	-2464	-7472	-636	-5844	1688	-6568	-2288	-9176	-1240	-1237	488	114	124	1
-8144	-5520	12516	65	143	194	-13624	-6280	-1560	-313	838	-267	-15072	-5576	1816	-1057	2697	485	-7016	11640	18280	1952	-5648	2597	-11344	-2848	-8400	-402	-6325	1685	-5336	-2152	-10280	-1484	-1209	332	128	125	1
-8232	-5716	12816	100	160	270	-14552	-5448	-3648	-104	965	-218	-16432	-4448	-4816	-926	2349	524	-9648	16912	20400	2079	-5566	2854	-12584	-4680	-9192	345	-6509	1820	-2592	-3440	-10992	-1755	-1092	144	122	125	1
-8364	-4940	13572	72	301	380	-16800	-3712	-4624	-313	967	-219	-19248	-2384	-7024	-1	1670	442	-11768	20896	23920	1983	-5241	3606	-15144	-3400	-12496	1006	-6621	2003	-792	-4928	-12016	-1737	-867	-345	121	124	1
-8300	-5036	13696	-35	492	446	-17552	-2944	-4272	-809	924	-216	-18192	-624	-3840	422	1400	435	-16224	22528	28616	2058	-4646	4475	-23832	-1864	-14184	1246	-6654	2335	-2696	-4088	-7776	-1620	-717	-657	122	125	1
-8276	-5248	13428	-139	709	507	-15608	-5656	-2856	-991	959	-166	-16496	-1736	-1128	67	1305	491	-28344	18256	32767	2857	-3858	4940	-32768	4376	-19384	288	-6720	2615	-5944	568	848	-866	-550	-298	122	126	1
-8724	-5460	14436	-196	956	639	-16360	-6704	-1696	-772	1178	-106	-17784	-2384	2800	-259	1286	391	-32768	18248	32408	3064	-3584	4344	-32336	7040	-19600	-782	-5986	1420	-17520	8376	13528	643	-464	827	121	125	1
-8540	-5048	14252	-194	1265	741	-17528	-4216	-352	-887	1452	-18	-18752	-2544	4640	-524	1341	236	-32768	20040	30376	2747	-3529	4169	-18288	1888	-23304	-1934	-4290	895	-30568	14096	28488	3007	327	1494	119	125	1
-8516	-5248	14460	-219	1724	830	-17968	-4096	-800	-979	1754	93	-17904	-2072	3856	-943	1323	176	-32768	-13080	1624	785	-1474	1559	-11608	-3160	-28472	-2400	-1915	166	-18848	12832	32767	1677	1190	1276	122	125	1
-8544	-4108	15688	-291	2248	948	-19320	-2680	-2208	-912	2066	140	-18368	-880	2904	-1029	1323	228	-32768	-7944	-1952	1030	-392	-618	-2760	-4352	-26112	405	923	516	-17584	11584	21424	255	264	365	106	124	1
-8920	-4096	15068	-492	2897	975	-19088	-3336	-2904	-816	2312	317	-18000	-2320	2184	-1056	1078	442	-32768	1144	6680	-955	1693	-1548	-4720	-1904	-22464	1135	3072	22	-13696	7704	8416	381	512	-210	117	124	1
-10244	-6684	14280	-625	3508	1146	-19048	-3952	-312	-780	2580	452	-19448	-4216	4232	-943	436	510	-28024	2064	12088	-1293	2488	-1654	-14016	-3640	-19504	1364	4190	-665	-8064	3304	16912	3	407	-244	128	124	1
-10572	-7164	13832	-757	4152	1568	-20240	-1832	1920	-1163	2890	468	-21448	-5664	11296	-736	-762	460	32767	32767	6872	-3507	3274	-3539	-32768	32767	32767	10540	13	-750	-3448	9664	-19016	1081	2795	-1619	123	122	1
-11180	-9180	17764	-814	5329	2088	-26696	-5040	4904	-2323	3040	693	-20400	-12136	16936	-1455	-2084	-117	-29696	144	32767	-1251	4521	-3293	4344	26096	-32768	-5140	590	1016	-32768	32767	28952	-1939	127	1849	114	122	1
-17324	-14692	15860	-375	6553	3183	-32768	-1696	6416	-3057	3242	756	-20048	-1632	12616	-1171	-1926	18	-15328	15952	21536	61	3767	-1930	-23232	-4608	-13608	-6475	5321	-2228	-23936	-22464	4504	-6196	2675	-1145	164	123	1
-28268	-13672	22712	948	7049	4226	-30016	-12536	2400	-3216	3486	976	-25112	-3520	3192	-955	-1712	475	-7280	5960	18400	450	3262	-1449	-26432	-7200	-9184	-4516	3172	-898	-20168	-28288	-6440	-3746	301	456	127	121	1
-30036	-25276	31184	1175	6525	4427	-26584	-21688	800	-2795	3777	1615	-25320	-10928	-11240	-1001	-924	-481	-8480	12336	14872	-948	411	-470	-10864	-464	-19992	-3986	2617	67	-9808	-4072	-16816	2813	1006	271	115	127	1
-17376	-17236	23900	-465	5197	3757	-25200	-13648	-10944	1276	3833	1805	-31680	-6808	-10312	921	-2146	-1270	-8328	15800	13168	-406	57	-255	-18512	-2104	-13200	-1572	1744	454	-14848	5472	-15088	4305	1954	-102	118	125	1
-32768	-32768	32767	1270	395	1362	-21936	-8192	-19128	3559	3089	1643	-31712	1392	-6328	2272	-3370	-1172	-5536	11248	12472	-121	10	-156	-19944	-2480	-10888	2794	1332	731	-21312	11560	-13104	3617	1924	437	126	127	1
2584	-17860	20240	2065	-1642	916	-24696	-872	-1288	1514	982	844	-32768	3152	-8256	2467	-3510	-1139	-4592	11072	12304	-110	11	-107	-15640	1920	-10992	5076	1064	788	-15816	9168	-6880	1971	1397	366	124	125	1
-3760	-17276	17964	266	-2455	337	-15712	-5424	-10056	1620	191	778	-29656	7480	-7304	1220	-3324	-1511	-4008	10392	12696	-4	28	-76	-18248	5288	-5320	5540	313	862	-15560	6280	-2472	1043	1406	-193	122	129	1
-2220	-22416	13148	1084	-3822	-664	-10240	-1336	-7920	883	-1083	462	-26064	6808	-7624	-462	-3167	-1513	-4072	9768	12760	175	70	-83	-18120	10024	-2872	2599	395	745	-17168	3856	-1368	321	1380	-1118	119	131	1
-2352	-11720	11216	928	-4543	-1538	-7952	1728	-8920	-453	-2333	231	-22000	1744	-8104	-1145	-2963	-1484	-3872	10536	12528	271	103	-98	-14704	10784	-2136	-271	645	203	-15712	2416	-440	355	1236	-1117	119	132	1
-2524	-10916	11096	747	-4626	-1676	-7256	-2912	-7376	-978	-3478	312	-18144	-1984	-7120	20	-2632	-1244	-3960	11168	11912	242	133	-95	-14944	9920	-3240	-2798	979	-472	-14232	4752	-544	395	1662	-1045	151	134	1
-4728	-7064	8256	-492	-5086	-2254	-6224	-1696	-6136	-517	-4175	75	-14816	296	-8840	992	-2568	-1264	-4280	11944	11480	105	122	-90	-15464	3568	-4232	-3444	559	-507	-14384	5728	-2176	330	1790	-853	140	133	1
-7564	-6928	9992	-1018	-5148	-2432	-6088	-1376	-8488	58	-4636	-137	-12184	2880	-10120	1486	-2479	-1192	-4408	10984	11600	-23	100	-92	-16920	-3520	-4768	-1509	385	-168	-13312	3704	-760	-26	1773	-748	114	133	1
-8536	-9364	10604	-1158	-5370	-2553	-8696	-1360	-7128	255	-5086	-277	-9976	4640	-10864	1562	-2204	-840	-4240	10360	12128	-52	101	-90	-15648	-2296	-4000	1252	498	181	-13448	2224	1320	-227	1861	-589	118	132	1
-9760	-8000	11968	-1441	-5380	-2648	-10488	-1704	-8888	539	-5658	-451	-8048	5696	-11240	1096	-1926	-539	-4232	10824	11856	-82	99	-100	-14232	4000	-1760	2438	661	386	-14968	5472	3112	288	2172	-658	124	131	1
-12060	-9092	13300	-2036	-5124	-2748	-10936	-1720	-9056	843	-6203	-625	-6352	5800	-10664	1052	-1672	-235	-4200	10600	12152	-142	77	-129	-15824	9360	-2720	1684	678	196	-15520	7696	1288	999	2739	-995	123	130	1
-15452	-13508	14668	-1956	-4865	-2756	-12520	656	-10056	1146	-6473	-990	-3704	7136	-10304	1206	-1477	44	-3952	11024	12200	-182	97	-171	-15992	7768	-544	108	739	-56	-18096	7576	-1952	689	2436	-863	122	130	1
-21464	-15728	19360	-1957	-4367	-3487	-15944	488	-15832	1810	-6598	-1182	-1904	10224	-9088	1092	-1336	408	-4280	11400	12656	-248	102	-245	-16168	3792	-1368	-723	1040	-8	-18392	6832	-1712	494	2255	-734	120	131	1
-27236	-14468	20480	-1836	-3512	-4745	-21528	-3160	-16312	1969	-6724	-1064	-1616	8272	-4736	1068	-1191	794	-5016	11112	12712	-214	162	-339	-16000	2080	-1864	-644	1269	-54	-16768	5176	3616	-517	1541	-307	119	134	1
-32768	-4848	18072	-1794	-2272	-5289	-25184	-8832	-20520	2368	-6346	-672	-4648	-4672	2312	818	-835	258	-3720	11488	12936	-97	251	-529	-16200	2336	-2200	13	1454	65	-16176	5352	3584	-221	1676	-279	114	133	1
-32768	620	15568	-1775	-1282	-5019	-23824	-7464	-25912	3067	-5112	-79	-14656	-13040	8192	619	-573	-1400	-3968	13712	14304	222	370	-865	-17440	5208	-2424	626	1694	149	-16512	4032	3320	477	1525	-244	124	134	1
-32768	7260	5788	-427	-1796	-3759	-15296	-4840	-24976	1177	-3562	17	-22624	-5632	14912	1257	-293	-1472	-4384	10504	15720	87	1034	-978	-20128	1240	-3576	1090	1916	78	-18408	2352	2416	1045	1515	-18	150	134	1
-32768	23492	-7732	-214	-2291	-1202	-10168	-5608	-27352	-97	-2098	-399	-24672	1152	19976	294	47	-596	-3976	9480	16520	258	1549	-1097	-20440	616	-4000	1107	2173	-140	-18496	1176	1400	1580	1372	-87	120	136	1
-32768	25276	-13988	-1700	-1590	916	-11264	-3528	-27792	-1575	-485	-828	-19648	-1224	15048	-1559	185	183	-4144	9344	16608	572	2190	-1228	-20808	1640	-4192	772	2376	-227	-19040	4584	-144	1649	1200	-361	117	142	1
-32768	15436	-12800	-1141	-368	2066	-6944	-2824	-23144	-2696	1305	-684	-18688	-2896	9792	-2655	592	151	-3928	10120	16488	1003	2788	-1466	-21072	2376	-3592	222	2631	-478	-18480	9344	1808	1177	867	-493	117	126	1
-25020	-32768	-2496	4890	1679	3214	-6704	-13904	-11592	-3732	2780	-352	4656	-5480	-2208	-2527	2610	-223	-3696	10864	16360	1541	3401	-1906	-21880	680	-1720	84	2949	-628	-19600	11496	7464	693	237	-454	131	125	1
32767	-8324	32767	2408	3060	2644	-32768	-13744	24048	-1156	719	-941	-29776	-20152	-3784	-3244	2670	-94	-2056	10056	19592	2178	4389	-2530	-29344	-1464	-1752	495	3257	-847	-26616	17704	16184	554	-1228	-139	122	126	1
-32768	3072	32767	1546	4394	1693	-14280	-16344	-14912	7723	3749	876	-31536	-22176	14256	4424	562	-557	-1656	25552	16552	2258	5781	-3950	-32768	-4088	11728	2566	3581	-1035	-28640	5648	23712	-220	-2717	-39	125	122	1
-32768	-17748	28728	1653	1587	1655	-14008	16392	-18928	2890	4226	1300	-19320	21880	-4568	6129	1667	797	-20792	32767	24344	894	6483	-5405	-32768	11448	2856	3472	3301	-458	-22256	-4168	16144	-706	-2674	-665	118	111	1
-18300	-604	28080	1218	477	618	-15912	8280	-17152	2174	3958	1024	-13496	17456	-16968	1224	1451	-33	-21328	32767	31008	-1129	6481	-6199	-32064	18048	2136	2085	3979	-809	-22488	1384	-4680	1195	-1755	-155	126	125	1
-13888	-10776	13016	636	-11	270	-17904	-2472	-12904	2429	1935	-831	-12360	6080	-11312	-2301	1951	220	-6576	26624	32767	808	4683	-4968	-25832	7008	-11080	-1891	4740	-1422	-32744	9832	-13896	1514	-1659	894	121	126	1
-9060	-6436	13560	313	33	104	-17040	3416	-10432	-236	1299	-240	-17768	-8384	-13632	-1720	2179	447	-2616	23448	30200	1045	4220	-4650	-22856	2576	-26568	-3689	3883	-1507	-32768	9544	-12824	1167	-1928	1062	130	127	1
-7840	-6772	12924	226	29	90	-16776	-360	-6272	-3151	697	-224	-17008	-2472	-5368	-319	1996	-49	11536	21328	18920	-2811	-2292	-2233	-27208	8448	-19056	-3093	3212	-1537	-32768	-3200	-7904	-1319	-3569	851	112	128	1
-7276	-4400	14320	80	92	86	-18528	-1560	-5608	-4244	293	-730	-17040	3872	-888	-314	1762	-76	9120	12040	12400	-1093	-2781	-1512	-14488	-5496	-7032	652	-221	126	-26416	-2440	-6504	-1154	-3512	1528	124	122	1
-6840	-6192	13088	-77	176	79	-16728	-11512	-2608	-2726	200	-634	-18208	1456	-3184	-1158	1791	749	11984	16296	7376	-792	-2821	140	-5760	-6528	-4536	2264	-1121	192	-23016	-4336	-5336	54	-3289	1804	102	124	1
-7260	-5932	12992	-78	184	74	-13792	-12976	-3256	228	631	-431	-16648	-2848	-4544	-1227	1787	1379	8248	6936	8816	-420	-2521	1803	-5848	-6272	-5160	3244	-1934	424	-19616	-2736	-7136	1451	-3140	1422	119	126	1
-7260	-7124	12416	-51	178	107	-12776	-8608	-3016	2455	989	268	-14544	-5272	-3416	-271	1747	1408	7704	6280	9080	-227	-2526	2045	-6552	-128	-4680	2716	-2921	767	-17864	376	-7392	1693	-2905	1584	121	129	1
-9020	-6456	13060	94	71	123	-15944	-984	-3720	2129	960	112	-14008	-3224	-3176	759	1907	1165	2480	6536	12456	569	-3009	3488	-5768	1472	-3320	1538	-3708	989	-15448	1120	-8832	1091	-2774	1559	128	133	1
-7500	-5608	13604	74	96	121	-19016	3248	-2408	178	536	-222	-15600	1576	960	1403	1933	1064	-1232	5720	15928	499	-3825	3441	-5376	2064	-4688	86	-4281	1179	-13440	200	-8928	40	-2408	1154	127	131	1
-7540	-5780	13528	4	183	118	-15208	-3032	-1264	-1492	382	-390	-14880	1536	2592	1132	2343	1086	-4120	7664	18648	430	-5116	3146	-7144	-64	-7080	-1079	-4664	1273	-12040	-376	-9688	-901	-2275	583	123	132	1
-7476	-6244	12368	24	221	180	-14864	-7952	856	-1646	518	-254	-16096	-2256	5192	-367	2855	829	-4576	6624	18192	371	-6175	2667	-10520	-3216	-5168	-1255	-5376	1297	-9312	-832	-9784	-1609	-2154	458	129	131	1
-7972	-6492	12528	120	207	282	-11992	-9816	1568	-839	816	-100	-17232	-5128	1400	-502	2633	599	-5520	8976	18360	643	-6534	2437	-13136	-5960	-7360	-1301	-6111	1352	-6152	-3152	-9536	-1535	-1224	172	123	128	1
-7444	-7220	12792	271	131	466	-12368	-7712	720	191	1176	-76	-19688	-4232	-2952	-147	1856	130	-7232	12152	20160	1045	-6441	2576	-14368	-6704	-8152	-705	-6456	1102	-5704	-3688	-11160	-1617	-1091	-59	128	130	1
-7456	-6256	12908	343	179	634	-15920	-4320	-3520	264	1349	-100	-16616	-1576	-4024	-218	1383	11	-7672	17952	21368	987	-5558	3180	-16600	-7888	-10976	409	-6713	1097	-3752	-3888	-12176	-1999	-1175	-118	122	129	1
-7948	-5080	14120	237	392	689	-19016	-2560	-5224	-621	1191	-78	-15944	-1144	-4416	-855	1569	311	-14992	28392	28608	1000	-4574	4251	-21632	-3880	-16960	1000	-6826	1410	-3272	-2936	-9600	-2613	-1077	-226	123	130	1
-8316	-4668	14360	139	667	747	-18064	-3848	-3728	-1282	992	-73	-17424	2136	-4240	-942	1605	468	-24944	27552	31920	787	-4289	5752	-32656	6288	-19288	95	-6926	1903	-5368	-1360	-3656	-2812	-1015	-240	126	130	1
-8152	-5348	14456	59	1005	798	-16464	-5616	-2408	-1411	1106	-4	-18128	104	-1624	-476	1331	388	-32768	23096	26928	1019	-3489	6015	-28448	10224	-22032	-2504	-6667	1319	-10928	5640	7408	-2808	-934	365	119	131	1
-8828	-5244	14248	80	1269	879	-15952	-7072	-360	-1092	1406	141	-19336	-5264	2632	-763	1275	247	-32768	17920	17592	334	-2582	4768	-23312	9816	-26568	-5057	-4794	228	-27232	11344	18944	-2499	-39	1254	122	131	1
-8884	-5848	14780	175	1589	1009	-16232	-6272	-904	-708	1803	193	-17808	-5952	3984	-1174	1355	104	-32768	5224	1040	-259	-1399	3271	-11296	4008	-28280	-5795	-2185	-705	-20440	-4264	32767	-1899	-210	-64	123	129	1
-8500	-5256	15588	237	2117	1215	-20592	-3544	-1664	-784	2113	237	-19888	-2528	1872	-776	1372	114	-32768	-7552	-424	1504	-152	772	-10784	-2384	-32768	-2642	-292	-44	-22488	-1152	29872	-504	213	201	124	127	1
-8288	-4480	16188	309	2695	1384	-21392	-2816	-1344	-1066	2349	404	-20000	-3568	1528	-540	1137	446	-32768	5320	5968	381	531	-1038	-1904	1656	-25984	1911	1958	944	-16304	2288	13840	2052	122	44	137	127	1
-8492	-4324	16088	253	3317	1527	-18976	-3560	-288	-905	2635	615	-19376	-4144	2824	-772	574	580	11368	-10904	-8208	-2355	4252	-4011	-18608	792	9128	6956	3236	601	-18000	9128	28096	4005	-2189	860	121	127	1
-8724	-5644	17420	134	4050	1892	-21104	-4864	1864	-785	2913	745	-21848	-7632	6856	-804	-172	481	-21240	28656	23176	-359	3435	-3176	-32768	3344	-10896	3750	2784	499	-21352	14488	-9544	6998	4028	-164	108	127	1
-9620	-6512	18008	-186	5114	2577	-31016	-5808	3208	-937	3208	999	-27928	-13944	14320	-596	-1752	36	-11656	26208	24880	230	3799	-1601	-10240	9104	-4296	-28	2774	-830	-21512	3120	-17992	872	1842	-327	115	125	1
-20396	-19100	19352	395	6177	3770	-32768	-5704	14048	-2739	3132	942	-22744	-4480	11704	-1139	-2961	122	-14928	2688	24728	-216	2420	-1371	-8192	3496	-14864	-3218	3496	-449	-12832	-2768	-14704	-2183	194	480	127	126	1
-29584	-19832	28620	1301	6218	4822	-30136	-15184	4208	-3398	3509	832	-25008	3272	8040	552	-2740	357	-13536	18048	20776	-628	1144	-1407	-13528	3848	-18296	-5443	2669	-399	-20536	-4856	-4408	-1376	1093	376	140	125	1
-25592	-15716	28896	2031	6276	5303	-26760	-15504	4216	-2288	3182	930	-21520	-656	-12872	-324	-1771	-568	-11408	19056	19072	-645	1010	-1214	-22560	-5048	-17368	-5692	1688	-235	-21744	-2056	-12584	-373	1968	-5	135	127	1
-23412	-24128	26816	645	4903	4077	-20424	-8664	-23504	-185	3684	1137	-30720	-792	-10648	-584	-2041	-1424	-5256	10592	13616	9	144	-192	-27552	-13240	-15520	-1415	1040	332	-20848	-24	-9352	295	2156	-35	133	130	1
-28564	-32768	32767	915	-296	362	-23008	-5216	-12888	1326	2550	965	-32768	5928	-7544	101	-3107	-1774	-3688	10744	14208	220	132	-64	-15448	-4600	-8176	2963	964	919	-19016	1120	-4016	708	1873	156	126	131	1
2252	-13096	16748	1964	-1687	-203	-23560	-1448	-2760	-389	139	219	-30032	680	-9448	659	-3120	-1599	-3168	9688	13240	343	134	-61	-13488	2488	-6056	4458	675	930	-14432	3928	-1600	1221	1921	25	122	132	1
-356	-8508	13624	-260	-1567	-781	-12960	-4464	-8472	991	-82	526	-25768	2264	-9424	908	-3096	-2034	-3064	9984	12904	338	121	-76	-15232	8888	-3496	3751	349	1002	-13112	8432	-568	1329	1930	-487	123	133	1
-972	-15232	11400	-241	-2370	-1580	-5696	560	-7632	1105	-864	437	-23696	5648	-6744	170	-2935	-2225	-2376	9744	12464	262	64	-117	-18824	9664	-2344	1493	168	727	-14360	8024	-368	566	1697	-823	121	133	1
112	-8996	10652	60	-3051	-2231	-4256	2816	-6928	397	-1780	-28	-20272	5200	-7520	-252	-2629	-1698	-2840	10352	12840	168	71	-154	-16304	5256	-1360	-701	422	217	-15328	4416	544	-306	1586	-846	108	136	1
-1256	-4984	10880	-633	-3371	-2655	-8040	8	-6856	462	-2780	-282	-16464	4336	-7976	-40	-2587	-1475	-2696	10280	12472	161	76	-148	-15192	5112	-1920	-1808	683	-161	-16504	840	-152	-541	1683	-763	178	138	1
-4280	-4680	11348	-1224	-3841	-2816	-7640	1848	-6944	910	-3578	-290	-14032	4560	-7728	552	-2579	-1523	-2944	10328	12960	31	114	-158	-16320	1112	-2840	-1952	424	119	-13424	-328	1256	-418	1820	-922	136	138	1
-5944	-3360	12012	-1671	-4386	-2817	-4152	4080	-7088	624	-4271	-399	-12144	4792	-7536	1051	-2403	-1285	-3960	10280	12936	28	129	-144	-16696	-1296	-3920	-858	211	303	-13392	864	2248	-365	2116	-690	116	138	1
-7256	-4028	12036	-2024	-4797	-2703	-5256	2992	-6696	235	-4727	-733	-8720	5608	-8464	1374	-2145	-909	-3504	9880	12848	49	136	-120	-16336	-1104	-3200	744	366	385	-13928	4064	5632	439	2565	-557	110	135	1
-8532	-4628	12668	-2100	-4973	-2670	-9560	2224	-6704	268	-5236	-1027	-6304	6664	-8440	1120	-1966	-583	-3728	9408	12816	61	146	-105	-15872	4128	-280	1543	559	325	-15816	6472	6504	1384	3456	-548	123	135	1
-10356	-5656	14060	-2300	-4885	-2803	-11216	1432	-7312	285	-5693	-1083	-4656	5856	-8768	824	-1675	-290	-2960	10456	12424	-3	152	-142	-14632	7288	4800	1120	768	180	-19664	9760	2296	1490	2926	-727	126	134	1
-13096	-10416	15772	-1945	-4705	-3062	-11552	704	-8224	776	-5857	-1270	-4520	4616	-9120	761	-1367	-5	-2800	10840	12744	-141	166	-242	-13656	7528	2704	92	1210	151	-18976	8392	2112	321	1801	-91	127	134	1
-15136	-11080	18696	-1596	-4253	-3518	-15488	-360	-9880	1775	-6029	-1273	-4152	4840	-10104	930	-1087	322	-3680	9752	13200	-169	212	-298	-15976	4040	-1448	-552	1666	19	-15864	8456	1944	-580	1360	111	121	134	1
-19812	-14748	22200	-1582	-3633	-4190	-21872	-1592	-13432	2636	-6351	-1182	-4408	6272	-9128	1533	-639	629	-2472	9680	13592	-122	271	-332	-17400	3624	-2224	-608	1770	-50	-14088	5472	864	-137	1625	-133	115	130	1
-28672	-12784	26200	-1158	-2812	-4938	-27944	-4888	-17624	3354	-6561	-926	-6888	5104	-4792	1656	-428	698	-3576	10136	13928	46	348	-396	-16080	2552	-5016	-444	1788	-14	-14744	1712	-2440	245	1544	-186	118	137	1
-31428	-10168	27196	-1154	-2653	-5051	-29816	-7520	-21784	3278	-6086	-92	-14120	-3200	9424	2026	-811	-175	-3384	10856	14824	274	594	-602	-17944	552	-5392	233	1896	43	-16104	-504	-2920	272	1349	-139	108	134	1
-32768	1700	13860	-1199	-2873	-4819	-22072	-6112	-19216	1057	-4641	-16	-23952	-8368	16248	1043	-568	-1625	-3048	9824	15080	550	987	-837	-19120	240	-5912	846	1954	108	-17728	56	-248	795	1280	-5	117	132	1
-32768	22076	-8244	-310	-2868	-2988	-9048	-4560	-24808	1213	-2853	-387	-22448	-1440	29104	86	128	-1023	-3376	10344	15688	589	1491	-1064	-21032	-88	-5424	1142	2062	110	-18464	-992	-104	1470	1355	90	115	136	1
-32768	32767	-16596	-2539	-1391	106	-9392	-1376	-26104	-865	-1042	-456	-15880	-1184	22984	-1376	188	110	-2808	9344	17984	759	1994	-1213	-20576	1080	-5224	1025	2211	-12	-19504	4832	-696	1948	1230	-116	125	129	1
-32768	18148	-12216	-1395	-832	2143	-5336	-3536	-26656	-3524	641	-762	-16936	-4280	10136	-3310	532	492	-3024	10408	16960	1077	2702	-1404	-22816	384	-3840	647	2454	-257	-20456	9520	1288	1601	988	-230	118	135	1
-4804	-10844	-9480	2783	1423	4047	-5992	-10864	-10864	-4446	2403	-106	-16752	-7672	10632	-2960	687	-206	-2816	10240	16968	1652	3327	-1775	-22008	-1000	-1872	438	2780	-388	-20088	10224	7432	875	336	-407	125	120	1
17144	-14708	32767	2473	3136	4791	-32768	-7952	1792	-1798	1381	-562	-17416	-18528	6232	-3250	983	-877	-1328	11848	18192	2176	4250	-2301	-27672	-1192	656	566	3203	-701	-25120	12176	15208	335	-716	-187	129	119	1
-31472	-2124	24836	2215	4714	2133	-19248	-14616	-7848	5932	3947	509	-32768	-27520	16264	2634	528	-599	-2104	21280	18616	2327	5449	-3396	-32768	-4136	10000	1736	3486	-891	-25976	6832	19936	154	-2384	-149	128	120	1
-25608	2784	25376	1145	2142	1702	-18928	13144	-17280	3132	4970	1215	-16032	16016	-15144	5440	1813	1871	-11088	31632	21480	1135	6695	-4885	-32768	7648	6432	2736	3666	-732	-23976	1352	18096	351	-2529	-571	121	128	1
-3444	-11616	8532	1200	552	729	-15600	-11608	-14392	2581	3599	4	-6056	18784	-22520	3017	1258	19	-13496	32767	25288	-359	6760	-5700	-32768	16992	608	1323	3737	-929	-22912	3440	2064	1231	-1932	-394	122	125	1
-17776	-10116	13524	733	-168	321	-10024	-5296	-17248	4246	2762	-588	-6064	9760	-9088	-1666	1551	-392	-14952	29680	30408	-72	6477	-5637	-25704	11264	2432	262	4210	-1113	-24152	7728	-13608	1359	-1500	686	122	129	1
-9708	-4236	15044	464	-144	186	-19000	11560	-13344	1845	2009	-260	-20032	-2568	-15088	-2139	1978	216	-4808	26096	26808	1488	3236	-3723	-23488	2392	-22976	-3102	3935	-1520	-30184	4872	-9008	-164	-2566	1118	119	128	1
-7960	-6712	13016	295	-69	134	-21600	4136	-8768	-3957	945	-177	-21480	-4656	-9064	-637	2150	-139	7304	32767	30112	-1316	-1546	-1601	-22544	1968	-2872	-1555	2213	-889	-32768	-1880	-4992	-1438	-3378	1139	132	127	1
-7980	-5372	13764	197	-16	132	-17736	-2320	-8472	-5697	239	-778	-16832	4096	-1160	-252	1892	-22	10120	9656	15424	-1661	-2595	-1918	-20456	-4408	-3176	330	357	27	-30576	-4752	-7320	-1384	-3493	1241	127	124	1
-7152	-5700	13448	9	115	111	-15264	-10664	-3944	-3896	222	-616	-18408	4824	-2544	-1128	1849	597	9472	14096	12240	-641	-3360	-962	-8576	-5648	-5704	979	-926	259	-23040	-5208	-4680	-375	-3183	1640	111	124	1
-7140	-5468	13084	-42	172	84	-13232	-13688	-4624	-264	687	-420	-16416	-1040	-4176	-1403	1881	1345	11208	11608	9672	-904	-3500	636	-3120	-9920	-5192	2738	-1529	228	-20024	-3904	-6360	1152	-3028	1258	125	123	1
-7560	-6736	12728	-51	233	64	-14352	-10792	-3592	2648	1108	32	-14240	-5528	-2896	-900	1696	1456	6504	6584	10256	-146	-3484	1942	-8776	-4120	-5328	3820	-2455	668	-19568	880	-7464	2058	-2795	1292	129	127	1
-8320	-6780	12332	17	178	66	-15144	-3720	-3488	2979	1255	258	-14456	-5928	-3728	58	1718	1058	3888	7088	10872	452	-3579	2712	-9432	1000	-4528	3399	-3572	1001	-16944	2496	-7896	1509	-2506	1523	138	132	1
-7844	-6480	12664	63	145	93	-17888	2056	-3096	1175	972	-86	-16776	-96	-1256	715	1692	800	888	7400	12744	488	-3858	3018	-6224	2272	-3872	1978	-4242	1291	-16232	2328	-8640	1253	-2503	1477	142	130	1
-7784	-6184	12880	18	197	128	-16368	480	-2960	-1204	517	-247	-15536	2888	176	700	1832	848	-1688	7568	14552	473	-4454	2969	-5896	1608	-4184	276	-4652	1513	-12024	-440	-8872	-825	-2142	601	127	130	1
-8324	-6336	12768	-14	228	178	-14976	-4696	-1744	-2138	411	-330	-14184	1872	576	37	2241	873	-3880	8624	16696	559	-5179	2846	-8408	-1048	-5984	-812	-4954	1538	-10984	-2096	-9064	-1389	-2125	277	121	129	1
-7624	-6388	12760	-16	226	182	-14520	-7680	-1904	-1531	512	-224	-15160	-2392	1144	-771	2661	937	-4472	9408	17928	809	-5718	2793	-8672	-1384	-6392	-957	-5046	1539	-5400	-3520	-9536	-1506	-1556	165	120	131	1
-8320	-6052	12828	16	261	298	-14344	-8232	-2768	-651	762	-154	-16560	-5216	168	-1216	2803	1026	-6248	12760	18824	1011	-5886	2834	-14144	-3136	-6728	-1450	-6111	1464	-4680	-3408	-10088	-1211	-1094	-84	120	129	1
-8492	-7092	12824	115	380	434	-14656	-7160	-2712	70	967	-100	-18080	-4288	-3344	-684	2453	878	-7184	17120	20344	829	-5458	3172	-16568	-5680	-9200	-1286	-6457	1277	-3992	-3168	-10952	-1443	-1003	-72	120	131	1
-8624	-5836	13424	66	581	568	-16992	-4304	-2728	-29	1086	-84	-19352	-656	-4696	30	1751	410	-9008	19680	24432	1131	-4686	3811	-19408	-4848	-11672	-464	-6700	1131	-3216	-2608	-12648	-1962	-720	-166	121	131	1
-9156	-5324	14168	17	805	679	-18248	-3240	-2680	-808	1100	-87	-19152	-1632	-1304	10	1469	345	-15144	32767	29176	865	-4185	4619	-27984	-944	-16120	27	-6956	1456	-4016	-3816	-8024	-2373	-328	-341	121	131	1
-9288	-6636	14132	95	1087	747	-16936	-4888	-2904	-1203	1139	-16	-18776	-1944	-1064	-56	1487	361	-27976	25112	32008	760	-3548	5526	-32768	6408	-14272	-547	-7332	1628	-7384	-1136	-2152	-2370	-518	-295	121	130	1
-8844	-6392	14120	163	1420	870	-16704	-6200	-800	-1099	1344	98	-18472	-2936	1840	-712	1529	534	-32768	26272	24864	1383	-3206	5188	-29328	8728	-22456	-2101	-6451	1035	-18288	5928	13936	-2451	-1171	658	117	131	1
-8928	-5724	13788	209	1721	983	-15824	-5904	416	-975	1731	226	-18016	-5296	3504	-516	1262	575	-32768	8520	10720	720	-2539	3767	-18488	4880	-23016	-3535	-4499	803	-32768	12472	32767	-2514	-1145	1707	153	130	1
-9516	-6056	13488	295	2062	1133	-15792	-4800	-1344	-798	2133	330	-15624	-5288	3192	-855	1141	423	-32768	-8760	1168	3325	-2293	1103	-14432	-2640	-32768	-3212	-1822	-71	-14440	4056	32767	-938	-152	214	121	129	1
-8828	-4376	14228	377	2460	1231	-17328	-3392	-2920	-762	2435	415	-15088	-2872	2376	-804	1203	335	-32768	-8384	-5944	-34	-1323	-1606	4680	264	-24704	2645	1236	1231	-21536	-4232	18296	1449	91	204	108	128	1
-9084	-4844	15144	369	2988	1313	-18048	-5352	-2096	-568	2689	647	-15080	-2888	2016	-748	1203	365	-32768	8416	2072	-1354	199	-2595	-1208	2048	-28736	3857	3837	172	-8752	-656	2976	3584	490	368	123	127	1
-10460	-7584	13960	261	3556	1820	-20584	-4440	304	-425	2994	734	-21568	-5120	4896	-397	186	839	-17632	32767	32767	-3661	7095	-3824	-29176	2592	32767	8906	3514	-308	11856	-7368	-4664	4795	1774	-636	113	126	1
-10452	-7380	14220	207	3656	1938	-22704	-2144	120	-1047	3225	663	-22344	-7608	14824	-586	-1420	678	-32768	17736	20800	1089	7255	-3121	-22808	-16440	-17744	-1634	2135	946	-32768	32767	2328	3283	2320	1007	147	128	1
-13628	-15532	16944	-20	5656	3463	-32768	-4384	9304	-2732	3108	939	-19184	-9480	13552	-1124	-2065	-365	-32768	10344	32767	100	4616	-2458	-7192	-6904	-28072	-4512	5204	-1099	-26880	-1024	1416	-3502	1843	-1143	141	129	1
-27464	-20868	17752	1889	5840	5051	-30120	-15208	5448	-4258	3160	846	-24448	-2184	12312	-573	-1787	102	-12464	20096	15704	-643	2120	-2217	-26296	5616	-12704	-5927	4417	-1302	-19008	-8808	-14912	-4140	110	471	136	124	1
-31992	-15168	30336	3386	5765	5527	-29824	-18824	-16	-2988	3869	1116	-27480	-9696	-7256	-739	-1175	-396	-4208	-3136	23512	-1517	189	-725	-20128	-2072	-18528	-7233	2640	-58	-9696	-1408	-16432	-234	582	1524	127	123	1
-32768	-22300	32767	826	5932	4449	-28224	-16672	-6160	-737	4093	1862	-31472	-5368	-12984	729	-1677	-1280	-5776	9472	14480	-679	19	-273	-11648	-8736	-13840	-4700	1234	-91	-13640	5592	-12856	1559	2612	-872	123	129	1
-32768	-30340	32767	1702	2959	4063	-21888	-5928	-28240	2688	3839	1373	-32768	5944	-8472	1421	-2911	-1440	-3528	10280	13216	-351	5	-181	-17424	-18528	-15368	3710	1566	783	-21752	5880	-11696	1035	2640	282	124	129	1
-10612	-32768	27072	2051	-1501	46	-24600	-920	-2712	1539	1910	767	-32768	10064	-8968	1755	-3282	-1532	-4000	10024	13456	-197	18	-130	-21864	1752	-10288	7531	1192	937	-18256	1936	-6584	554	1767	486	121	128	1
2832	-9924	15688	1205	-1524	-430	-18784	144	-8008	545	209	364	-32032	6816	-9224	967	-3394	-2063	-3664	10048	13240	-1	74	-117	-19888	9752	-4320	5767	609	1013	-17480	752	-3264	722	1669	71	121	134	1
992	-13956	11784	-517	-1861	-1435	-11456	-488	-8168	712	-646	697	-25856	6936	-7624	-109	-3228	-2315	-3760	9384	13464	151	103	-136	-14608	12760	-2896	1496	147	750	-16696	1168	-2624	773	1660	-894	121	135	1
1540	-12236	10740	-244	-2612	-2180	-4144	4552	-6176	-94	-1834	-131	-20920	8144	-7968	-1154	-3159	-2113	-4224	9576	13360	268	138	-145	-13752	5912	-4320	-2231	773	28	-16456	424	-3464	644	1718	-1242	97	136	1
444	-5828	11220	-632	-3023	-2754	-3672	2688	-5104	-859	-2796	-390	-16376	3376	-7760	-718	-2844	-1692	-3600	10688	12584	300	174	-121	-15808	4608	-4776	-3572	706	-515	-13664	2360	-2616	577	1803	-1144	169	137	1
-2916	-5756	12596	-1231	-3675	-3078	-4624	-8	-6400	-492	-3597	-575	-13208	2640	-8440	-21	-2453	-1410	-4448	8432	13576	193	148	-107	-16248	3992	-5096	-3605	643	-533	-14584	4624	-2176	427	2037	-1043	132	138	1
-4228	-5440	13268	-1511	-4410	-3353	-5184	464	-6840	519	-4221	-703	-11664	4760	-9536	45	-2386	-1461	-3360	9864	12568	155	127	-107	-18216	-6216	-5872	-441	149	391	-14552	2288	2024	-26	2176	-914	101	137	1
-5964	-5288	13920	-1782	-4837	-3418	-6736	128	-6560	1124	-4902	-918	-11096	4208	-10176	294	-2053	-1248	-4256	10048	12616	165	136	-99	-14728	-1272	-2280	2329	343	436	-13360	2080	4744	-68	2633	-736	121	135	1
-8652	-6996	14876	-1921	-5293	-3320	-10176	-1184	-6480	1467	-5407	-1168	-10328	3408	-11344	785	-1752	-910	-4184	9680	12312	105	125	-110	-13656	6648	1360	2962	503	443	-14392	6976	6648	787	2750	-507	127	135	1
-11412	-7072	16480	-2229	-5483	-3167	-12064	-824	-9416	2085	-5986	-1151	-8408	3992	-12152	1421	-1669	-668	-7168	12104	12256	-34	94	-160	-12632	11544	3312	1589	809	159	-17016	10600	1368	992	2190	-461	125	132	1
-14688	-8612	17764	-2612	-5241	-3113	-13512	-608	-11048	2689	-6467	-1106	-6400	6216	-12944	1855	-1456	-381	-4240	11352	12552	-190	85	-232	-14080	9864	272	-598	1313	-122	-18264	10816	-480	325	1541	-180	124	133	1
-20268	-13860	21548	-2287	-4931	-3221	-15448	3080	-12480	2590	-6779	-866	-3208	7792	-13384	2139	-1223	-17	-3720	10664	12896	-195	142	-343	-18128	2056	-5648	-1632	1569	-154	-17096	5640	-696	-227	1487	-3	121	134	1
-26496	-17056	28120	-2285	-4641	-4147	-23672	1528	-20408	2147	-7174	-890	-1896	9544	-10136	2054	-1157	493	-2808	10600	13840	-69	335	-506	-19904	-1616	-4632	-917	1510	-159	-17160	1024	-1176	-254	1752	-296	120	133	1
-32768	-11864	27220	-2497	-3903	-5237	-28320	-2288	-21248	807	-7627	-798	-2192	6584	-5312	1664	-1077	997	-3376	11016	13720	138	577	-686	-17632	-2160	-2984	421	1438	102	-17528	56	656	-265	1469	-401	117	134	1
-32768	-768	24064	-2627	-2874	-5290	-26880	-9592	-24624	159	-7003	-924	-6376	-4064	6008	1611	-898	-14	-3344	11032	14824	276	869	-808	-17216	-1824	-2792	622	1462	139	-17440	1248	4504	91	1276	-352	102	136	1
-32768	6168	15720	-2094	-2389	-4473	-23128	-7600	-22032	886	-5301	-1017	-23808	-9344	19032	678	-954	-2023	-3936	10096	15472	280	1343	-872	-19008	3352	-2136	1399	2041	22	-17400	896	6832	929	1367	-84	123	131	1
-32768	24296	-2844	-515	-2466	-2407	-13488	-8616	-28720	866	-3162	-537	-27944	-2808	32520	-532	349	-680	-4128	10480	15672	353	1827	-1129	-20992	2704	-2208	738	2316	-100	-18512	936	6280	1546	1434	35	117	142	1
-32768	32767	-14588	-1978	-1653	227	-8072	328	-29064	-846	-746	-676	-23088	-5304	22792	-1812	472	-364	-3832	8896	17056	584	2458	-1260	-20416	1000	-3096	106	2614	-388	-18088	7944	3200	2031	1341	-163	105	125	1
-32768	24036	-13536	-301	-436	1898	-2304	192	-25312	-1828	1861	-276	-20240	-4960	13264	-2833	669	-127	-3112	10408	17120	1030	3150	-1539	-21112	-320	-1656	-218	2990	-582	-19136	11096	4856	1383	691	-258	123	113	1
-32768	11904	-260	1466	853	1966	-7832	-1096	-25056	-2066	3950	507	792	-8888	872	-2966	536	-757	-3136	11896	17592	1700	3841	-2076	-22512	-1696	-504	8	3374	-624	-19232	11112	6992	1160	466	-295	129	115	1
32767	-32768	23180	2676	1667	3794	-32768	-16824	32767	-7217	-951	184	-6392	-3600	-14744	-5059	2530	1021	-1208	18128	19912	1928	4823	-2970	-32696	-2304	7688	1300	3793	-769	-24480	10832	18640	374	-2041	-58	128	116	1
-32768	-2036	32767	2492	4426	3416	-6752	-32768	-32768	5366	3022	-831	-32768	-32768	14656	2890	-463	-126	-3616	25920	21312	1649	6179	-4477	-32768	-2096	6928	2236	3730	-791	-24840	-336	20720	-364	-2447	-129	123	108	1
-29784	-5552	28104	1284	2681	1917	-10752	15024	-21816	3216	5344	1616	-22104	12776	-13616	5741	1572	716	-15704	29312	19864	-295	7063	-5720	-32768	-248	7112	2314	3722	-769	-24752	1880	5000	707	-1959	-865	124	119	1
-8260	-8788	12096	1739	1125	894	-23408	-8216	-15848	1816	3452	-224	-11064	19432	-20288	2239	1419	-536	-10520	23656	28104	-1088	7264	-5829	-28128	12384	6856	1454	4065	-1248	-28648	11288	-16304	2108	-916	-22	117	125	1
-15628	-2072	18148	1058	-60	443	-11424	824	-19264	2475	2031	-953	-10240	11400	-10992	-2506	1851	26	-10928	25824	31840	2374	5256	-3498	-26968	3176	-16280	-2380	3866	-1878	-32096	10928	-11096	381	-2094	697	116	123	1
-7380	-3264	15000	419	2	144	-20544	10064	-12400	-162	1569	-583	-19016	-5256	-12928	-1878	1840	674	-504	32767	32767	-1147	-167	-1159	-22520	7160	-12272	-2172	2336	-1215	-32768	2816	-5416	-1876	-3242	753	118	121	1
-8100	-5824	13912	108	128	61	-22984	-1816	-7824	-3999	581	-171	-19024	248	-6952	-409	1792	272	7136	6680	20840	-2662	-1930	-1435	-23824	1720	-960	-174	592	-796	-32768	-544	-9840	-2693	-3564	862	113	123	1
-7120	-6448	13452	-63	236	66	-15704	-9000	-4176	-3696	431	-764	-17648	2152	-3616	-914	1890	-48	6336	14840	14712	-739	-3255	-1276	-12144	-1376	-7136	-815	-914	-392	-27560	-3760	-6704	-1599	-3402	1621	110	118	1
-7876	-7908	12092	-129	266	99	-13408	-14880	-3248	-1598	506	-614	-16176	-3712	-5128	-1723	1899	453	9664	19080	9072	-1995	-3834	48	-5272	-5496	-6920	1104	-1560	-517	-23184	-5352	-7872	48	-3044	1317	163	117	1
-7692	-6808	12640	-105	264	116	-13256	-11280	-3672	627	735	-210	-15608	-6952	-4120	-1241	1678	1082	5008	8760	8824	-1525	-4018	1394	-7400	-2872	-6624	2443	-2593	-163	-19544	-1448	-8944	1393	-2811	1206	163	118	1
-8380	-7668	11976	-23	241	165	-14936	-6160	-3544	1391	879	290	-14848	-6104	-4904	-269	1628	1171	1792	13040	9440	-338	-4244	2592	-9144	688	-7656	2397	-3805	260	-15968	576	-8032	1471	-2463	1557	129	120	1
-8280	-6840	12464	19	225	143	-17880	-2768	-3944	886	779	38	-16680	-672	-2368	473	1692	1074	-840	12832	10432	-283	-4407	3311	-6384	2072	-6376	2025	-4601	481	-13496	1792	-9448	552	-2172	1238	136	122	1
-8136	-6232	12836	-43	244	111	-16528	-1424	-2360	-392	462	-182	-15688	3576	-696	230	1846	1052	-3352	10552	12200	82	-4818	3598	-5864	3216	-5920	1108	-5126	846	-12984	1832	-9464	327	-2110	1159	122	121	1
-7948	-6424	12188	-107	268	114	-14352	-4776	-1600	-1370	424	-194	-13872	2360	936	-433	2101	1040	-5960	13096	14040	514	-5348	3493	-8928	2304	-6368	271	-5492	1122	-9856	-288	-10664	-1465	-1879	490	117	122	1
-8076	-6472	12080	-96	271	130	-13528	-6560	-976	-1394	522	-97	-14272	-5696	1568	-709	2438	897	-7352	15248	15512	492	-5772	3320	-11848	1072	-7872	-286	-5938	1346	-8120	-2176	-11144	-1830	-1657	379	118	122	1
-8720	-6844	11764	-78	230	184	-12288	-8024	-1088	-967	716	-102	-15232	-8832	-864	-949	2335	738	-9608	17152	17448	857	-5975	3252	-14872	512	-8312	-697	-6369	1542	-5896	-3464	-12368	-1827	-1204	172	114	122	1
-7680	-7896	11580	-51	261	339	-13232	-8240	-1496	-379	945	-104	-16416	-4128	-4568	-303	1819	239	-10600	21904	19152	899	-5748	3514	-16928	-584	-9432	-1166	-6549	1566	-5280	-5104	-12792	-2039	-1285	55	118	122	1
-8300	-6888	12200	46	317	477	-15752	-5224	-3480	-151	1080	-99	-18384	424	-4136	-94	1500	48	-12536	27960	23448	1013	-5050	4215	-20464	-648	-14888	-1596	-6819	1458	-3752	-8136	-11944	-2543	-1319	-123	119	122	1
-8820	-6208	12940	8	449	571	-17680	-2840	-4792	-691	1013	-81	-17072	296	-2424	-737	1586	322	-22216	28448	28752	1190	-4269	5553	-29544	120	-20264	-1803	-7168	1540	-3816	-4568	-7224	-2298	-1306	-313	120	122	1
-8596	-5336	13100	-72	713	533	-16752	-3904	-2656	-1357	917	-81	-16400	-3256	-1328	-821	1589	553	-32768	25872	27536	2308	-3382	6366	-30288	2360	-24864	-1587	-6943	1095	-4456	4048	-152	-2593	-1233	216	119	122	1
-8420	-5900	13444	-103	972	531	-15360	-6104	-320	-1337	1126	29	-17960	-7328	288	-275	1297	654	-32768	27424	20496	1847	-2931	5591	-26600	8576	-24096	-1025	-5897	781	-15880	8776	13984	-2632	-968	1520	120	122	1
-9064	-7340	13416	-58	1244	576	-14832	-9600	112	-843	1556	210	-18216	-8544	3144	-238	1113	572	-32768	7552	5328	522	-2403	3389	-16616	9400	-24408	-1992	-4187	1079	-27672	-296	32767	-1860	-1315	1289	161	122	1
-9036	-7372	12988	-13	1602	770	-17936	-7952	-48	-225	1958	281	-18072	-4280	3952	-616	1136	351	-32768	-12480	2992	3266	-2276	410	-11768	1096	-32768	-1761	-1700	455	-20672	3976	32767	903	-6	358	128	121	1
-9088	-5460	14184	82	2086	939	-18616	-4136	-1712	-328	2243	355	-17488	-2576	3112	-671	1202	373	-32768	272	-3968	1007	-1658	-1525	-376	-3296	-26648	2824	1012	1102	-20488	-976	16680	2341	441	456	83	121	1
-8868	-6320	14216	70	2724	1088	-18840	-3904	-1968	-544	2500	528	-19120	-4600	1928	-797	929	544	-32768	6376	1384	-1082	205	-2858	-2872	1680	-25456	4747	3143	919	-11600	3584	5528	3787	423	735	153	121	1
-9352	-6568	14640	-232	3384	1451	-20768	-3248	-624	-647	2787	553	-21016	-2888	4512	-808	327	594	-14792	18344	8608	-589	807	-2624	-19320	7008	-26536	4295	3850	172	-4512	6312	10808	5071	-839	714	132	120	1
-10256	-7108	13488	-477	4055	1999	-22304	-1912	-80	-990	2994	481	-21320	-2080	7872	-658	-534	600	32767	-32768	32767	-1559	5430	-1781	-32768	13744	32767	2224	-670	-1152	-18616	26440	-23592	5862	3384	-667	125	122	1
-10096	-9188	18416	-268	5026	2631	-27128	-5144	2120	-1753	3116	600	-23600	-9784	15216	-1006	-1653	185	-32768	9688	32767	624	5842	-991	-1632	11352	-23928	-7298	1239	-131	-32768	25768	32767	-3711	-276	2283	108	120	1
-19172	-19268	13764	-193	6426	3980	-32768	-896	10696	-2693	3119	594	-22320	-960	12616	-1381	-2684	6	-16152	11872	31128	-817	1842	-2445	-23736	-2560	-19024	-7027	5222	-2024	-18744	-14984	-17120	-7085	1920	-1769	124	116	1
-30228	-20040	23104	923	6383	4898	-29264	-14976	2784	-4028	3303	543	-23392	2736	5544	-1056	-1982	533	-1840	17392	7808	-30	2525	-1249	-26576	-2480	-13200	-7856	2488	-246	-16176	-22464	-13144	-5527	-217	671	128	117	1
-21648	-16876	27408	1873	6088	5293	-25752	-15896	4064	-3590	3352	711	-25200	-7520	-14024	-1714	-934	-585	-11816	3600	15568	-1027	-143	-879	-5512	-1696	-16176	-4486	2161	317	-14424	-20792	-5896	-4045	31	894	129	124	1
-21456	-16948	32100	-1691	5280	3739	-23568	-10616	-17056	390	3727	1433	-31024	-6472	-8856	-348	-2396	-1445	-5616	6208	16968	-561	55	-273	-16472	-11408	-16984	28	1480	585	-23088	7128	-18344	2791	2637	410	119	121	1
-32768	-32768	32767	137	-560	1774	-22712	-7440	-17768	1311	2453	1106	-32768	3432	-6696	1131	-3303	-1483	-1928	11056	13152	-336	11	-109	-26160	-824	-9824	4890	1302	881	-17784	5544	-5248	2968	2296	1754	122	122	1
2180	-17908	19348	2242	-2972	897	-22872	-2312	-1872	17	455	-45	-32768	3808	-9608	1561	-3324	-1401	-4136	10104	14064	-177	28	-83	-18304	1696	-6968	5802	714	1021	-17424	6064	-2624	2200	1842	683	120	121	1
3112	-11772	13164	-213	-2713	237	-14304	-2896	-7000	803	-387	369	-27552	6864	-7544	809	-2951	-1635	-2008	9176	13488	-11	68	-62	-14520	5568	-4488	4898	496	782	-16512	3568	-1808	1315	1553	-281	119	126	1
404	-20176	10744	7	-3208	-755	-9504	448	-7128	398	-1330	252	-23512	6944	-8336	-622	-3017	-1724	-3688	9832	13096	140	78	-82	-15656	10272	-864	1645	222	727	-16032	4024	-360	827	1379	-1068	113	126	1
