#Activity	walking 
#ActivityID	1 
#Date 10-21-15-54
acc_rf_x	acc_rf_y	acc_rf_z	gyro_rf_x	gyro_rf_y	gyro_rf_z	acc_rs_x	acc_rs_y	acc_rs_z	gyro_rs_x	gyro_rs_y	gyro_rs_z	acc_rt_x	acc_rt_y	acc_rt_z	gyro_rt_x	gyro_rt_y	gyro_rt_z	acc_lf_x	acc_lf_y	acc_lf_z	gyro_lf_x	gyro_lf_y	gyro_lf_z	acc_ls_x	acc_ls_y	acc_ls_z	gyro_ls_x	gyro_ls_y	gyro_ls_z	acc_lt_x	acc_lt_y	acc_lt_z	gyro_lt_x	gyro_lt_y	gyro_lt_z	EMG_r	EMG_l	act
-32540	-32768	31376	15657	-32768	-27292	-32768	456	-13072	20922	-32768	-14546	-12328	-6112	4368	1788	-1211	-247	-7704	5076	13904	198	4103	-2683	-17212	2068	-4056	8	9478	-4322	-14920	4500	164	-275	15163	-2036	138	120	1
-32768	-15924	22664	6164	-32768	-32768	-32768	1612	-16052	25619	-32768	-14335	-21960	-6544	10656	1829	-1760	-794	-7272	4760	13644	-338	6196	-2883	-17532	2560	-1052	1788	10668	-5190	-19072	2232	940	-188	12561	-763	147	124	1
-32768	-15036	7500	10179	-30902	-32768	-29468	8040	-23000	-7364	-32768	-4603	-22600	1208	24072	1155	-1794	-1326	-7180	4584	14104	-285	8518	-2725	-16716	3024	-2212	790	12889	-6816	-16640	52	3980	346	10477	453	130	127	1
-32768	-3104	-24272	18549	-22715	-15169	-10244	-5596	-24100	2627	-21123	-6535	-11864	16784	32767	1271	-9	-824	-8184	6212	13592	176	12203	-3518	-20080	2400	-2804	417	14367	-7832	-20284	940	2580	2547	10312	518	147	128	1
-32768	14800	-32768	-20565	-20534	6481	4820	6224	-16444	-2537	813	-3953	-17840	4840	32767	130	660	719	-7736	4200	14584	-259	17123	-4553	-21620	1344	-3644	2630	15631	-8552	-20380	4884	212	5826	6704	57	130	118	1
-32768	9308	-32768	-25269	-19356	8039	-4008	136	-19672	-10933	20869	-1392	-14312	-1376	25888	-615	-347	62	-8616	5964	13568	-321	24130	-6839	-22792	3304	-3204	4385	16931	-9471	-21872	4764	1476	7230	2002	-820	112	113	1
32767	18240	31968	10881	25765	16413	-15304	-8292	-10912	-9601	30737	3808	-8616	176	-1008	-435	574	25	-8228	5760	12476	-609	31119	-10751	-22692	1708	-3468	6056	18888	-9254	-21648	2532	8484	5616	-6067	-3258	112	111	1
32767	-30948	15804	10378	27097	7666	-32768	-19972	32767	8857	3895	-4104	-18848	-7408	-4624	-185	2101	-612	-8940	5984	13276	-691	32767	-14672	-29716	3448	940	10380	18818	-9159	-25960	1148	15616	2130	-13798	-2976	125	123	1
-32768	24	23088	-8595	32767	1549	-12364	13268	-21108	32767	22052	5196	-22104	-9504	13400	1492	1439	-2735	-11828	6744	14184	-2429	32767	-20621	-32768	6324	8616	14044	19832	-9573	-23868	-5900	14636	-3191	-14587	-6404	133	120	1
-31048	25312	32767	-5295	32767	14876	-16472	9896	-10300	24355	23052	11309	-13032	8936	7616	4124	1056	-29	-23472	9776	17576	-4111	32767	-27022	-32768	7140	5404	18086	20429	-8914	-24588	-4788	8864	12774	-12632	-8549	108	139	1
-27388	-32768	24240	12640	12431	4403	-29060	-6436	-23912	2538	26357	-1463	-25472	6152	-14672	-461	1680	547	-32768	16568	31444	-6175	32767	-29567	-29752	9540	-8128	15556	19433	-10599	-22256	8084	-4868	24847	-13925	-5456	134	140	1
-7192	-100	16980	6561	4418	4383	-16672	4664	-15452	15705	18261	-983	-22552	-2312	-16408	-1957	1147	-1	-32768	13584	26424	-2784	32767	-27614	-28756	6560	-2856	12894	16762	-14953	-24744	12844	-12204	20161	-16812	-2969	120	138	1
-3336	-3844	15608	3930	-258	2095	-6444	-680	-9060	-5922	17174	-1910	1552	-6744	-10272	-2097	491	-408	-18420	10592	26628	-2354	32767	-30051	-18940	2880	-8744	4743	14251	-12193	-29524	11360	-7912	35	-21650	1321	87	127	1
-7180	-4804	16024	1868	-545	989	-12448	8788	-12824	-18994	11369	-2704	-13904	-2552	-12736	-1807	1303	-768	-32768	16772	32767	1522	12657	-22286	-12472	3320	-15696	-2257	13372	-9118	-28948	4508	-10040	-4560	-19574	5495	82	131	1
-6216	-5584	14936	6	-165	-143	-14972	9672	-11140	-21158	10432	-3514	-27888	-8424	-7504	-1936	1228	-623	-6608	20320	32767	1308	-32428	-7519	-14224	4660	-1948	-1315	4198	-6313	-28952	4324	-9864	-9633	-21412	6978	116	165	1
-4708	-5192	14816	-695	-80	-217	-18100	-10928	-5640	888	6694	-1557	-22648	-5552	-904	-870	1622	138	4124	12472	12920	-3076	-32768	-4230	-9032	1124	1976	1664	-8859	758	-26100	1452	-12060	-6208	-17866	5942	97	54	1
-5484	-4288	15284	-1662	711	-346	-17724	-1240	-5256	13905	5861	2910	-14232	-5320	-1224	246	2167	433	2208	9948	8948	-1488	-32768	-837	-5604	984	252	760	-15195	4074	-19684	852	-14116	-6455	-17470	6066	83	118	1
-5380	-5644	14732	-2312	1139	-440	-15900	2336	-4372	5061	4957	1053	-11728	-4648	-1592	376	2025	239	-3548	10744	11164	2564	-32768	4017	-3248	2000	-3416	-3567	-19173	7324	-15596	1976	-13184	-9120	-16817	7025	99	128	1
-5284	-6400	14532	-1717	1082	25	-14020	2572	-4200	-9600	4482	-2047	-17160	-2032	-1984	-324	1847	-125	-5536	10956	10048	4382	-32768	9148	-5040	1184	-3412	-9137	-24540	10960	-13884	1168	-13756	-11509	-16474	5464	147	129	1
-6140	-6188	14080	-994	609	720	-16760	-3180	-3892	-12358	3556	-2945	-16928	-640	-968	-1207	1761	-100	-7700	9536	9452	5758	-32768	14014	-8064	-272	-3356	-8603	-27469	15947	-12256	1964	-14824	-9574	-15663	4742	135	151	1
-5144	-5852	14664	-1509	1309	771	-16300	-4956	-3968	-3803	2701	-952	-15808	-2240	32	-866	1797	9	-11600	9168	12320	7171	-32768	17806	-9332	-700	-4492	-4591	-32768	17469	-7800	1988	-14584	-12230	-14088	3707	145	151	1
-6264	-5832	15124	-1727	1566	687	-17284	332	-4776	-3102	3169	-362	-16864	-2864	2512	-323	2203	-155	-15136	7900	15772	8875	-32768	20319	-11008	2156	-5616	-6765	-32768	21022	-5408	1360	-13984	-18552	-12491	1043	129	141	1
-5796	-5224	14520	-2117	1677	591	-16632	752	-3576	-7244	2950	-1371	-12688	-2224	6248	-878	3048	-237	-21232	8620	19600	11686	-32768	22749	-14460	2744	-6484	-11402	-32768	23770	-3236	964	-14100	-21267	-10067	94	131	139	1
-5524	-5836	14448	-2574	1827	722	-15236	-916	-2496	-9821	3487	-1638	-15080	-3208	-1720	-1271	2924	-247	-21144	5360	17468	15441	-32768	24115	-21420	1676	-6996	-14271	-32768	25320	-3056	1504	-14696	-22590	-6774	876	125	104	1
-6240	-5440	14456	-2771	1972	621	-13920	-1728	-2328	-7404	4443	-893	-17232	-4328	-2784	-534	1405	-353	-23604	5780	20628	16766	-32768	22724	-27240	680	-8712	-15899	-32768	25519	-3432	-1084	-11628	-21596	-5738	1164	130	131	1
-6240	-5480	14448	-3186	2033	108	-15660	-1700	-2752	-3078	5775	193	-16096	-6712	3304	-432	1545	-84	-32768	13612	32767	12410	-32768	21434	-32768	-492	-17352	-13913	-32768	27149	-6332	-4704	-9072	-16942	-6231	1536	135	130	1
-5964	-5812	14164	-3636	2247	-154	-16304	-940	-1192	-3124	7207	674	-16536	-3864	4392	-235	1914	-17	-32768	15576	26392	8884	-32768	26056	-32768	124	-20172	-10792	-32768	28975	-9588	-5812	-5988	-7725	-3927	776	132	123	1
-5548	-6704	14228	-3654	3072	-36	-15464	-2464	1636	-2537	9549	708	-17840	-2624	6808	-339	1548	-23	-32768	-10820	17792	20912	-32768	32767	-29296	-9368	-19940	-7303	-32768	25688	-20896	3356	11636	-2509	-12689	369	131	131	1
-6100	-5880	14220	-4081	4189	-66	-15532	-2128	1612	6	12788	1808	-19216	56	10288	-241	1259	-206	-32768	-1256	960	11948	-32768	32767	-28316	1148	-27232	-14263	-28613	20475	-25992	-4916	21760	-1626	-21594	6436	131	129	1
-4716	-6184	14528	-5365	6333	111	-17496	-1908	816	1193	15917	2724	-19312	-160	8096	-581	1152	-218	-32768	-32636	-32024	-393	-20514	20308	-9528	-9576	-28580	-18992	-12729	13805	-15776	-8896	32767	-9515	-7383	12402	131	119	1
-5388	-6196	14324	-7628	9630	486	-18436	-636	-972	422	19101	3028	-18456	-3480	5440	-1078	742	-33	-32768	-32768	-31944	16401	-1334	4954	-2180	-13520	-27024	-3036	7368	1861	-16924	1836	25204	1896	8743	5392	119	112	1
-4340	-6244	14380	-10218	13939	1592	-18432	-2192	-2948	-1076	21420	3820	-16176	-4800	3576	-1105	337	29	-32768	-13928	-16532	-6008	9886	-3819	-12284	-10276	-23204	5528	21188	-6575	-19208	3184	20460	1351	6225	4304	115	128	1
-4884	-7972	14308	-11584	20213	4161	-20864	-632	-4980	-2290	22803	4205	-19160	-2608	3376	-1099	-51	268	11236	-5292	32767	-1232	12622	-3800	-32768	7772	32767	17867	13486	-11601	-11408	2336	-10592	2416	12349	112	124	127	1
-5380	-8228	14132	-14967	29013	6244	-25160	3196	-3736	-6449	23247	3002	-19392	-2256	3920	-1126	-169	330	1208	1204	-3540	-11448	32767	-21926	-26728	-8644	-452	-313	16322	-5602	-32768	256	8316	3349	-1696	615	119	139	1
-4580	-8228	14128	-20227	32767	7717	-32660	5636	4084	-11805	24287	1574	-25504	7768	13952	-319	-1774	785	-26800	-236	32767	302	32767	-6062	-23916	-3388	-2312	-5575	20086	-14643	-32768	152	22852	-16036	-12926	-2513	114	142	1
-10324	-10396	19964	-26797	32767	8963	-32768	3224	7820	-18198	24853	2025	-25704	10664	12920	-1069	-2046	1231	-23860	19056	23164	-1524	23474	-9273	-26968	844	-7408	-1524	22941	-8665	7664	-4988	-12076	2150	13395	-5772	95	147	1
-22384	-19972	24256	-32768	32767	12892	-31076	-2276	312	-24270	24420	2639	-25264	-2408	8288	-2122	-1947	1151	-23952	17700	22108	-11158	12779	-8960	-12476	15672	-11628	-11147	20476	-5164	-9584	4336	-9116	12585	13643	7576	136	107	1
-32768	-24856	27324	-32768	32767	20596	-25080	-5520	-14164	-22759	25957	3885	-19904	-12352	-7840	-3032	-1956	861	-12284	-5032	22328	-9769	1271	-5399	-14808	-11800	-13256	-7724	19458	-8581	-11148	10532	-11928	9044	1559	1747	154	127	1
-27616	-27196	21776	-32768	32767	20018	-26464	1140	-13456	-16250	21570	3174	-30576	-10472	-10280	-1772	-2352	154	-7308	5136	14816	-4236	-670	-2215	-20000	-3528	-5680	8590	13845	-4815	-13716	-4012	-7380	845	7399	6412	133	119	1
-11372	-23044	26496	-32768	32767	15789	-21068	-1876	-7340	-6579	14532	7220	-32768	-2912	-6072	-190	-2550	-451	-6312	4728	13640	-1270	-85	-1078	-18796	-5260	-4764	17426	10959	-1351	-18952	3572	-10288	16068	9191	4007	161	116	1
-26828	-19824	23716	-32768	21176	19544	-11128	-5244	-9104	-7026	9255	6091	-27824	-2080	-5824	-6	-2663	-497	-7508	4728	13696	-475	196	-737	-17204	7964	-4540	10202	9124	-1248	-20220	7168	-5628	10526	8494	58	155	97	1
-7448	-26232	32767	630	-12931	11263	-6372	-844	-18268	-4352	3192	728	-23368	-2080	-4520	231	-2668	-603	-7140	3892	14012	265	840	-606	-17372	6644	-4148	-5527	9248	-3262	-14748	3928	-2748	1816	12454	-472	159	112	1
-5244	-26148	32767	5836	-16396	9596	-6516	-2812	-5980	-2533	-3167	-2515	-21840	-3312	-7920	-66	-2101	-620	-7680	4624	13956	675	1245	-495	-16300	700	-3764	-10670	8102	-4039	-16852	2452	-3940	-2058	14009	82	167	118	1
948	-7416	10504	21380	-32768	2763	-4076	-896	-4256	422	-10059	-4349	-18160	-488	-9088	380	-2080	-706	-7500	4552	13644	886	1355	-486	-17376	-1852	-4764	-2557	6170	-2415	-16860	3032	-4496	-580	13914	734	140	113	1
-840	-3264	7556	16079	-32768	1823	-1952	28	-3524	5385	-15178	-5515	-15248	1440	-8944	178	-2044	-681	-7720	5172	13512	606	1249	-848	-17136	676	-3640	6190	4071	-19	-15576	1232	-2636	1658	13152	803	108	115	1
-1088	-4988	6704	9373	-32768	-220	-1892	1368	-4904	6809	-19949	-7008	-12520	-832	-8984	161	-1964	-612	-7340	4440	13592	528	1258	-954	-16064	2508	-2460	7057	3844	72	-14920	-1168	-1176	7537	13121	1516	109	130	1
-2348	-8848	7584	8058	-32768	-3259	-3112	2356	-5252	4082	-24824	-8215	-11872	-632	-10048	485	-1870	-564	-7136	3984	13656	736	1492	-840	-16064	3312	-2528	4221	3995	-482	-15832	1476	-2184	12487	13572	1725	107	112	1
-4824	-11224	9536	9501	-32768	-7508	-4084	1432	-5448	2008	-29684	-8966	-9152	-1000	-9568	470	-1726	-572	-7304	4872	13452	805	1515	-882	-17128	3140	-2984	2223	3008	-1007	-14452	4284	-448	11725	14332	3633	113	128	1
-8856	-12664	12648	10744	-32768	-12843	-5576	1372	-6432	2206	-32768	-9632	-8072	-1184	-9976	642	-1438	-541	-7820	4248	13352	879	1604	-1085	-17256	592	-4044	2636	4226	-1035	-15888	3388	244	9358	16695	2209	119	124	1
-11084	-12324	14088	11131	-32768	-17644	-9012	452	-6764	2204	-32768	-11113	-7328	-2160	-10280	1117	-1230	-508	-7676	4720	13396	1063	1730	-1122	-17060	800	-2932	5399	4407	-1004	-15188	4048	2560	7460	20662	4357	117	124	1
-11136	-11164	13596	10289	-32768	-20148	-12112	-736	-6244	4889	-32768	-12285	-8696	-4344	-12544	1794	-1095	-430	-7296	4340	13464	1151	2140	-1026	-16432	2472	-1828	5542	5108	-1527	-14492	4532	-312	7304	20434	1726	128	127	1
-12764	-11000	15712	7228	-32768	-20856	-15144	-396	-8076	10189	-32768	-12245	-6568	-312	-12520	2034	-872	-249	-7396	4356	13600	1336	2971	-1152	-16616	3168	-2624	2671	6004	-2157	-17816	5616	-4808	2755	15010	1115	130	134	1
-16648	-15260	21920	5900	-32768	-21096	-18008	960	-10900	13204	-32768	-11258	-6112	568	-13160	1980	-460	-170	-7968	4896	13132	1911	3929	-1329	-17724	1116	-3328	677	7060	-2897	-17676	6024	-2812	-67	12860	-611	134	128	1
-24100	-24028	30308	8887	-32768	-22224	-24892	2116	-12764	12447	-32768	-11861	-6088	2584	-9872	1690	-111	-55	-7848	4936	13220	1873	4138	-1243	-17412	2112	-2484	1609	7469	-2958	-15668	4624	-972	-773	14276	-1311	131	123	1
-31724	-32768	31208	15660	-32768	-25339	-32768	-644	-14252	12456	-32768	-14019	-10848	-88	2944	1548	-753	-209	-7776	4784	13096	1157	5805	-1574	-15816	2936	-1816	1729	8738	-3766	-16072	3472	1156	-171	13423	-1370	146	119	1
-32768	-11268	22336	7949	-32768	-32768	-32768	2148	-12200	7838	-32768	-10000	-22032	-7792	9752	1346	-2115	-930	-7972	5192	12828	1190	7422	-1879	-17036	2148	-828	1771	10506	-4874	-19604	732	3496	175	11525	-456	138	126	1
-32768	-24520	11296	5746	-32768	-32768	-28260	14556	-28260	1486	-32768	-8375	-24912	3728	18528	986	-1704	-1383	-7724	4852	13280	1176	9632	-1892	-16704	3536	-1528	1441	12705	-6157	-17388	-564	4812	1624	10147	550	119	127	1
-32768	-1424	-20388	13623	-27614	-20178	-10428	-3404	-25128	4727	-23061	-8230	-9456	14936	32767	1534	-549	-989	-7548	6708	13112	956	13103	-2952	-19024	3320	-2216	1622	14540	-7241	-19208	1752	1956	6022	8464	579	134	122	1
-32768	16132	-32768	-23510	-25106	-5234	3736	9052	-14904	-4815	405	-3827	-19152	4744	32767	453	733	429	-9068	4668	13232	215	17490	-4179	-19792	2516	-4324	2903	15937	-8166	-18208	6340	40	8653	5283	795	125	121	1
-32768	-10448	-32768	-13835	2088	8569	-1980	-2412	-18776	-9516	20396	-754	-16232	-864	27920	-739	-224	-41	-8344	6180	13072	606	22857	-6400	-21660	3404	-4284	4491	16932	-8883	-19664	6376	468	8317	2078	-271	116	117	1
-11932	-32768	32767	18046	25270	15817	-28504	-10808	24368	-11651	21030	2397	-14032	-3560	-3280	-712	653	168	-8076	5608	12536	1219	29063	-9457	-22904	1332	-4016	7279	17482	-8968	-21144	4620	4572	6890	-4020	-2796	117	118	1
212	12176	-2584	4787	32767	14413	-32768	-9712	13224	31381	17153	-2337	-29056	-10120	10872	-228	345	-691	-9672	6576	11512	1692	32767	-12995	-29108	2004	472	11697	17765	-8851	-25976	1348	12616	2732	-13840	-3704	131	125	1
-32768	2960	32767	-9128	32767	-89	-12144	30632	-5388	32767	26480	9948	-18072	7416	24616	4436	491	-1948	-11920	7036	13224	1738	32767	-17841	-32768	4764	7976	16524	18683	-8363	-23272	-5936	14560	-2797	-15315	-6111	133	124	1
-26592	2364	30836	-7546	29962	12183	-25280	7352	-14740	21795	22249	6883	-7040	16560	-9296	3335	3210	-188	-21372	9236	19508	-87	32767	-22150	-32768	6392	7328	20181	18576	-9389	-24808	-6668	11284	9549	-14354	-8183	120	142	1
-15260	-26484	17432	12119	14083	6451	-21292	-12792	-19732	3779	24230	-2816	-26240	-7624	-17736	-1759	1160	26	-32768	14884	28532	-2237	32767	-26231	-29544	9448	-6548	14601	18703	-11027	-23076	6816	-5276	24932	-13299	-6618	150	139	1
-9008	-5648	21048	7723	1416	4680	-14000	2352	-18724	21250	17142	-4	-10944	-11032	-15632	-1555	522	223	-32768	11544	20432	-1309	32767	-26122	-29724	9112	-4536	8823	18108	-15185	-25388	12856	-10800	20113	-16332	-3734	106	137	1
-5504	-3096	15116	5182	-730	2106	-10912	3444	-10048	-5854	14689	-1238	-7016	-3864	-9200	-542	1019	-742	-20692	14760	25868	2043	32767	-26254	-21300	2816	-5720	4046	14988	-13216	-22776	8404	-8844	3243	-20392	263	102	119	1
-7540	-4864	15360	1730	-620	535	-16520	9392	-8996	-19221	10730	-4561	-19264	1368	-8792	-1234	1283	-1116	-17528	2844	32767	-406	22839	-27955	-15540	6836	-11900	-1987	11602	-9124	-28216	5492	-10100	-2484	-19231	4617	95	134	1
-6208	-5064	14988	423	-645	-76	-21600	-300	-6632	-26429	8588	-6200	-23096	-1776	-4944	-2276	1051	-411	-12676	19588	32767	3808	-27300	-10729	-11544	-940	-11280	-4077	9247	-7862	-26880	5356	-9136	-9535	-21481	6651	117	140	1
-5396	-5148	14744	-665	-299	-359	-17408	-11556	-4492	-2146	6861	-2261	-18080	-6928	-488	-1638	1573	158	604	13152	16812	326	-32768	-5710	-10224	1908	2128	3803	-7272	-1338	-26636	1560	-11088	-7445	-19258	5143	92	71	1
-5828	-4932	14816	-1622	265	-608	-16204	-5640	-5600	16799	5407	1812	-12128	-8064	-1360	18	2048	218	2552	10268	8672	-1542	-32768	-4329	-5720	1512	632	4018	-13078	3690	-19904	-576	-12208	-5630	-17125	5058	86	115	1
-5764	-6212	14340	-1610	366	-487	-14424	1780	-4956	12141	4245	1082	-14048	-3712	-2176	594	1984	-27	-1672	8904	8772	956	-32768	-1281	-3188	2680	-1920	-109	-17713	6664	-16704	480	-12116	-6037	-16704	5483	120	116	1
-5716	-5932	14476	-1054	206	-175	-15104	4160	-3308	-4334	4003	-1662	-17520	-1232	-680	-19	1799	-406	-4996	10320	9464	3700	-32768	3362	-4388	1516	-3544	-5817	-22931	9838	-13624	980	-13036	-8828	-16268	4816	142	131	1
-5556	-5656	14404	-676	257	35	-16824	752	-2624	-14280	4201	-3583	-15696	-616	432	-1000	1573	-117	-7968	10620	9608	4735	-32768	8466	-7240	-400	-3888	-7021	-26697	13833	-12496	3196	-13672	-9058	-16235	5021	136	130	1
-5316	-5276	14508	-808	440	37	-16188	-4236	-2608	-9205	3013	-2904	-15488	-2128	1088	-929	1694	19	-11604	9696	12100	6821	-32768	14028	-8468	-1380	-4760	-2887	-32732	16100	-8916	2464	-14092	-12597	-14573	3206	143	148	1
-5888	-5328	14528	-1078	611	77	-15836	-3596	-3676	-1904	3840	-998	-14688	-2856	4024	-389	2278	-110	-13772	9536	13160	8713	-32768	18840	-10592	1524	-5000	-4345	-32768	19654	-7800	1044	-13800	-16560	-14203	2730	142	162	1
-6076	-5848	14256	-1159	641	74	-16360	-828	-3268	-1612	3773	-1047	-13216	-3680	4248	-365	3057	-452	-16984	8824	15392	10016	-32768	21548	-13492	3084	-5380	-9213	-32768	23058	-4848	900	-13172	-20912	-11380	549	123	143	1
-6040	-5608	14484	-1304	399	39	-15124	540	-2352	-5116	4352	-1615	-15240	-4184	-2384	-383	2536	-555	-20188	7352	16688	12466	-32768	23499	-18704	2208	-6108	-13602	-32768	24754	-3868	876	-14692	-23050	-8752	458	122	125	1
-7824	-9812	11280	-1216	645	-143	-13932	-2132	-1840	-5936	5078	-1641	-17024	-6360	-176	-426	1360	-331	-21844	6188	18412	15477	-32768	24798	-24080	880	-7976	-16926	-32768	25384	-3796	-1572	-13072	-20780	-4946	1147	137	127	1
-5536	-6716	13968	-1302	660	244	-16396	-3484	-2948	-2988	5858	-1070	-16240	-6952	2064	-306	1790	-189	-32768	12800	32368	13290	-32768	24071	-31692	-584	-12876	-16175	-32768	26203	-5448	-2512	-9608	-16565	-4363	1843	133	131	1
-6092	-5468	15128	-1647	997	304	-17176	-1332	-2136	-2057	6801	-183	-16560	-3608	1912	11	1950	-202	-32768	17772	32108	6791	-32768	27521	-32768	1360	-17280	-14845	-32768	28147	-9100	-4316	-5288	-9851	-2260	899	127	118	1
-5920	-6308	14208	-2080	1594	290	-14928	-1652	484	-3053	8785	-282	-16904	-1456	5128	-200	1489	-211	-32768	3520	15320	9961	-32768	32767	-31300	-4264	-28276	-15503	-32768	27285	-15308	1688	2328	-7098	-5844	1247	132	115	1
-5604	-5448	14288	-2629	2262	151	-15280	-2400	1248	-1347	11392	563	-18520	616	9272	-388	1228	-342	-32768	-2264	8352	19426	-32768	32767	-31704	-3520	-20604	-11458	-32768	21889	-27648	-772	20736	-5165	-16090	4060	132	122	1
-4536	-4744	14908	-3968	3891	295	-17484	-2400	596	-1047	14216	1470	-18688	-1560	7392	-742	1152	-403	-32768	-15276	-16424	2290	-24441	27971	-17468	-1156	-23980	-16971	-21348	16683	-17516	-15048	30808	-9229	-17719	9617	128	119	1
-5120	-5408	15212	-6320	6548	679	-18700	-1476	-696	-1794	17025	1868	-20488	-6056	3776	-1164	961	-199	-32768	-32768	-32768	10868	-7849	11306	-1884	-12248	-28012	-7283	-552	7451	-15580	-464	32736	2089	6206	7406	124	129	1
-5528	-6156	15284	-8052	10091	744	-18104	-3068	-2960	-1678	19276	2494	-16400	-5768	2608	-1059	462	-116	-32768	-18548	-25488	3813	7596	-70	-8572	-7564	-25448	2459	16577	-2975	-17432	5976	14428	3994	3091	4802	115	115	1
-4944	-5892	14880	-11875	14079	800	-18572	-1028	-5284	-2138	21140	4063	-16728	-2904	1816	-1135	199	33	-32768	-11028	-5060	-13234	17266	-5000	-17520	-6760	-22480	-923	27666	-9592	-12540	4960	7064	6025	3065	2801	120	127	1
-3056	-7748	13968	-15180	19485	3659	-21120	2380	-5836	-6076	22408	3186	-19352	1936	4096	-1626	-273	390	28556	-5516	8748	-4700	19224	-8046	-32768	20004	32767	15055	3895	-5233	-11592	-1404	-15392	-645	21133	2385	116	136	1
-4988	-7076	14088	-18074	28572	5973	-26008	5608	-2024	-12380	22919	1266	-24432	5104	10256	-1486	-1200	533	-25484	1860	15872	-3192	32767	-14594	-15368	-14944	-11432	-11911	15240	-9302	-32768	5496	6592	5754	-7879	4026	121	125	1
-5824	-7420	13924	-23494	32767	7168	-32132	5680	5168	-16260	24563	-136	-24720	10832	16424	-824	-2011	841	-11648	-6416	25512	-1184	28744	-10363	-22956	6588	-2616	-5941	19165	-10301	-32768	-2136	19360	-29698	-3622	-7242	103	157	1
-10596	-10564	20724	-30524	32767	8882	-32768	2724	6968	-21799	24696	785	-24536	10496	12912	-1987	-2192	1249	-32768	9472	32767	-13581	20859	-10935	-25200	1116	-11740	-7708	21126	-6293	288	-9184	-2868	374	11775	-2429	111	127	1
-23220	-19260	24716	-32768	32767	14470	-30828	-4092	-2596	-26626	24239	1115	-25272	-5384	-264	-3365	-1916	1140	-10308	1068	22224	-9819	5326	-5569	-17236	2564	-6748	-10955	19732	-6013	-13636	11316	-15928	19069	17731	3891	144	129	1
-32768	-27164	28148	-32768	32767	20387	-26732	-6732	-12136	-23579	25327	1827	-21648	-14016	-9664	-3080	-2327	682	-11616	9580	14252	-5566	827	-3315	-13528	-6172	-11208	1185	16405	-5628	-9732	4904	-14584	5726	2371	2844	130	131	1
-25120	-27884	26312	-32768	32767	18255	-26436	2100	-9556	-14089	18551	3067	-31576	-7312	-8880	-1115	-2636	-78	-7460	4808	14240	-3196	-193	-2533	-16428	-4144	-7624	14937	11288	-2220	-11928	200	-7140	8265	8416	5961	147	109	1
-9788	-16572	30800	-32768	32767	15192	-17152	-1468	-16228	-2693	14325	6844	-31552	-1512	-5816	-99	-2583	-453	-7020	3880	14240	-1353	-87	-1096	-19780	508	-2120	15044	7812	-1059	-17636	7160	-9480	15232	9980	3382	158	98	1
-29496	-32768	25128	-24524	12961	18568	-10220	-728	-13096	-7555	8731	2131	-27392	-960	-5752	-48	-2693	-585	-6968	4588	13628	-896	375	-770	-18380	9648	-3360	3128	7470	-2134	-19872	7276	-3284	7140	6459	-1902	154	103	1
-3648	-24716	31592	10588	-18573	7805	-4436	-1904	-13132	-7061	1790	-2084	-24456	-7144	-6184	-307	-2558	-532	-6732	4032	13984	-631	940	-869	-17396	5416	-3076	-10586	8477	-4406	-17816	1320	-984	-3444	11172	-1003	153	125	1
-412	-10044	17884	21069	-30699	3130	-7216	-2152	-4084	-3352	-5974	-6709	-21264	-2216	-7824	-120	-2331	-666	-7476	4512	13724	-459	1202	-699	-16872	-1760	-4132	-9256	6575	-4589	-14440	2004	-2180	-3333	14596	-309	163	119	1
808	-2412	9544	17386	-32768	2239	-3672	672	-3144	1514	-12489	-7224	-17816	1504	-8888	-130	-2069	-714	-7516	4416	13784	-110	1063	-659	-16876	-1924	-3984	1935	4835	-1957	-15484	2328	-3052	-2200	13537	264	129	102	1
668	-1620	8536	16074	-32768	1986	-2744	2372	-1944	4586	-17748	-8075	-14528	504	-8624	-63	-2076	-660	-7020	4752	13596	-210	822	-800	-16388	2088	-1508	7388	3897	-945	-15044	872	-1332	2507	11646	-285	108	125	1
-2032	-4836	7612	3861	-32768	-1027	-2628	4020	-4260	4750	-22075	-9694	-13816	736	-10064	363	-1986	-467	-6624	3684	13848	-261	618	-939	-15504	3756	-1220	5435	4428	-1452	-14900	664	60	5447	11193	1469	113	128	1
-5284	-9260	11788	7244	-32768	-4685	-3784	4980	-5656	2768	-26223	-10510	-10312	528	-8264	201	-1846	-428	-6692	3852	13736	-37	765	-785	-15748	3264	-1560	164	5665	-2331	-14968	1372	264	6093	10529	855	116	123	1
-8292	-9912	13796	11699	-32768	-10242	-5984	5264	-5672	2080	-30943	-10523	-9840	-568	-9656	241	-1665	-397	-7260	4216	13856	195	819	-913	-17300	1216	-3148	-791	5523	-2882	-17200	916	1300	4563	11882	568	112	131	1
-9376	-8220	13596	13297	-32768	-15616	-8324	3448	-5600	397	-32768	-10775	-7776	-1712	-9480	512	-1438	-424	-7136	4012	13596	241	801	-845	-17304	424	-2896	2079	6104	-2476	-16240	2540	2580	4168	16046	1952	110	128	1
-10892	-7164	14408	12264	-32768	-18332	-10732	1364	-5164	2951	-32768	-11080	-5904	-1320	-9920	1134	-1071	-425	-6852	4308	13644	379	965	-968	-16908	1668	-2320	3399	6375	-2365	-15108	2668	1392	5762	19917	1652	130	129	1
-14664	-8984	18204	11228	-32768	-18858	-13240	288	-7092	8207	-32768	-11501	-5584	584	-11608	1551	-966	-286	-6460	3940	13764	272	1383	-1541	-17296	2576	-2972	2606	6825	-2806	-16496	3148	-3496	5126	20007	1392	133	132	1
-18260	-10040	20084	9386	-32768	-18193	-15652	680	-8244	13115	-32768	-10780	-4520	1104	-13352	1744	-692	-219	-7140	4032	13744	440	2322	-1636	-17672	980	-3304	853	7274	-3297	-16848	4008	-5752	439	16504	1317	129	131	1
-21608	-12752	22836	5775	-32768	-18059	-19208	2436	-10936	16761	-32768	-8549	-5744	2688	-11288	1690	-446	-63	-7616	3940	13416	465	2939	-1428	-16748	728	-3404	553	7720	-3639	-14812	5072	-3380	-211	14993	-529	137	126	1
-26900	-24928	32376	9497	-32768	-18005	-29768	4360	-13208	12506	-32768	-7940	-9152	2824	-840	1745	-1044	-25	-7688	4496	13448	351	3530	-1694	-15240	1576	-2684	1135	8418	-3845	-14000	4692	-900	-1411	14082	-1651	143	121	1
-32768	-25612	31344	14892	-32768	-24818	-32768	5444	-20496	11008	-32768	-11183	-15984	-4728	9472	1756	-2053	-228	-6432	4360	14080	535	4969	-1627	-16584	2776	-2512	242	9437	-4824	-16756	2744	392	-3171	12275	-619	139	120	1
-32768	-13576	17000	4846	-32768	-31233	-26336	5788	-18440	-8061	-32768	-6118	-22496	-2896	19696	683	-1381	-597	-7100	3824	13900	583	6745	-1832	-17920	2252	-1700	-431	11094	-5956	-19536	996	2272	-2921	11272	177	128	121	1
-32768	-9572	-1676	8739	-32768	-20983	-23060	-3576	-15940	-13450	-32474	-8996	-13576	4848	26496	468	-996	-1014	-6740	4452	14192	528	9390	-2147	-18720	2824	-2244	8	12673	-7320	-18520	2688	2940	476	11039	-48	127	122	1
-32768	6144	-24172	1115	-25840	-1261	-6432	-2656	-18960	-8489	-15995	-7315	-17160	11272	32767	-272	140	-333	-7468	5212	14188	189	12716	-3148	-19324	1912	-2852	1782	14295	-8256	-19828	2660	1000	3868	8005	-251	141	123	1
-32768	2180	-32768	-20445	-17125	10203	2932	3484	-14840	-11440	4865	-1534	-17488	1840	30376	-863	-5	379	-8272	5264	14700	-323	17416	-4279	-20800	2816	-3564	3293	15558	-9457	-19800	3656	752	5454	4717	109	132	120	1
-32768	-15028	-27004	-1136	10125	16853	-7024	-284	-16280	-12428	22187	118	-13208	-696	22808	-1026	-338	121	-8684	5336	13516	-719	23836	-6965	-21836	2200	-4732	3945	17046	-10109	-20320	3248	1900	6745	539	-1258	118	120	1
-32768	-15824	488	5226	24102	11320	-15160	1164	-19296	4213	32767	4886	-11040	-736	7936	-516	-319	213	-7884	5508	11560	-1099	30106	-11047	-22408	224	-3536	7508	18268	-9426	-20016	-80	6156	6897	-6086	-3078	114	129	1
32767	-32768	32767	11759	9357	-6638	-32768	-2520	32767	-11785	11131	6884	-9200	-4416	-15280	598	2579	-132	-8036	4740	13332	-1018	32767	-15025	-27068	-40	548	12425	18972	-8710	-21864	-2152	15704	1325	-14136	-3376	125	120	1
7648	32767	-27648	6970	32767	18549	-18780	-18072	-1352	25922	19979	-5019	-31968	-21840	8728	-775	2353	-1905	-9928	6372	13632	-2728	32767	-19007	-32768	5680	8196	15002	19059	-10353	-23944	-4932	14272	1764	-14265	-5705	135	125	1
-32768	3356	32767	-1891	32767	11537	-4360	21728	-11184	32767	21900	12744	-15600	3984	8936	5720	342	-1186	-20304	8468	16664	-3829	32767	-25644	-32768	6428	6620	15466	19740	-10013	-24276	-988	7456	14840	-11511	-9274	114	127	1
-32768	-32768	32767	17542	29297	16166	-26160	-4584	-26992	18766	20996	7270	-20384	11248	12632	2511	1111	377	-32768	9448	28628	-8576	32767	-30549	-31000	9760	-3776	15979	18549	-11522	-21752	7236	-3132	22728	-13117	-6656	143	146	1
-5476	20872	22532	8455	2190	4472	-32768	13912	-2440	16981	20487	-3444	-30728	12184	-20824	-753	2407	-195	-32768	11124	22524	-8179	32767	-28696	-29964	9892	-5140	9207	17057	-15645	-25872	16448	-11972	21330	-15012	-2903	129	147	1
-8828	-5716	15708	3111	494	728	-10168	1104	-12556	-8797	17637	-2980	-6416	-5832	-13984	-3385	630	31	-22700	14508	28920	-7894	32767	-29620	-21300	5416	-6452	1524	14461	-15095	-29724	15336	-9628	563	-20281	1229	108	126	1
-6808	-9336	14744	940	-240	394	-7304	1380	-12904	-16358	12878	-4044	-4016	-928	-7560	-2878	1084	-262	-17068	11076	32767	-10091	20016	-25767	-14056	5948	-14532	-9121	12266	-11129	-30308	5828	-9896	-8420	-19639	6372	66	141	1
-5636	-7216	14624	-329	-7	-227	-18188	-2504	-8164	-18767	8832	-5111	-22296	-14320	-9128	-3233	1176	-576	-7236	23408	32767	71	-30768	-4189	-13952	1880	-8172	-10341	7599	-10252	-29804	5068	-9912	-14120	-21306	7678	116	124	1
-4964	-6096	14764	-239	87	-65	-19952	-11520	-6160	-6717	6726	-3256	-23200	-12992	-3872	-1424	1312	-254	3392	14152	16356	-6535	-32768	-1349	-9488	1360	2144	-2177	-9534	-2161	-27880	1284	-12568	-9368	-17596	5520	103	85	1
-5636	-5664	15216	-44	882	505	-18680	-5672	-5608	9447	6322	2597	-17672	-8288	-832	221	1993	315	3372	9340	10676	-4784	-32768	1021	-6896	-176	976	-1248	-15854	2707	-21016	-660	-13424	-9089	-17105	5247	82	115	1
-6216	-5400	15004	-688	1304	412	-16932	1744	-4784	7265	5757	2737	-12288	-3032	-896	927	2158	327	-2360	9008	12376	1719	-32768	5211	-4300	1336	-2072	-1946	-21193	5848	-16104	-164	-11572	-12727	-16873	6051	74	118	1
-5812	-6108	14560	-640	1159	509	-14404	2272	-4348	-3292	5298	-194	-14664	1152	-792	376	1918	156	-7000	10540	13128	3809	-32768	8810	-5568	1276	-3236	-7424	-26402	10013	-14040	116	-12984	-15413	-17128	4338	130	123	1
-5888	-5332	14568	-601	1152	474	-14640	-1864	-4028	-7793	4740	-1257	-16992	960	88	-1002	1741	-36	-8952	8356	11828	4782	-32768	11952	-9204	-328	-3032	-6560	-29178	15696	-14120	-468	-13012	-14608	-17216	3976	140	138	1
-2436	-2060	17288	-1539	605	1565	-15644	-3008	-3996	-7329	4648	-1233	-16136	-2400	-152	-1112	1721	70	-11496	7036	12592	7777	-32768	15461	-9784	-2168	-3396	-2894	-32768	15905	-7084	1676	-14948	-14083	-14365	2766	136	148	1
-5592	-4340	15520	-971	1319	1279	-16692	-16	-5312	-2625	4665	-370	-15960	-2736	256	-632	2143	-132	-14440	7064	15696	9494	-32768	17677	-9880	-1872	-3072	-2716	-32768	16887	-4976	-924	-14124	-16506	-13078	54	138	147	1
-6092	-5008	14460	-1081	1491	963	-16004	224	-5492	-5196	4216	-1039	-12920	-784	2400	-504	2788	-306	-17932	6224	19200	11884	-32768	19070	-14580	1112	-5228	-7356	-32768	24439	-3020	-1012	-14384	-18495	-10149	-1849	132	147	1
-6348	-5376	14364	-1679	1443	777	-15184	-284	-4512	-7396	4240	-1319	-14288	-2872	-792	-1002	2827	-258	-21188	4700	21100	17298	-32768	20523	-21808	-608	-5960	-10176	-32768	26776	-2932	72	-15836	-20019	-6437	-1674	123	119	1
-6008	-5760	14168	-1825	1482	691	-14584	-1812	-3984	-6714	4396	-1099	-15280	-4504	-5088	-604	1837	-306	-26032	6300	24884	19912	-32768	21443	-29060	-1736	-7712	-12079	-32768	28494	-2928	-1624	-12548	-19299	-5188	-1379	124	125	1
-6128	-5760	14280	-2097	1807	686	-15344	-1944	-5208	-3324	4858	-446	-15456	-5800	-880	-551	1690	-220	-32768	13252	32767	14848	-32768	23195	-32768	-660	-16044	-13656	-32768	29140	-5596	-4492	-9052	-16691	-4819	394	135	123	1
-6324	-5812	14256	-2703	2254	440	-17320	-144	-3244	-3795	5471	-257	-16904	-3912	896	-348	1948	-173	-32768	15288	27984	8069	-32768	29504	-32768	-192	-19176	-13998	-32768	28915	-10068	-3864	-6080	-8040	-5214	-527	139	122	1
-5708	-5704	14288	-3334	3198	360	-16268	-1992	180	-4123	7243	-38	-18224	-4216	6336	-390	1652	-105	-32768	-3072	13408	13276	-32768	32767	-28456	-5724	-19556	-16198	-32768	23281	-21300	5812	12008	-10016	-16156	75	134	126	1
-5940	-5520	14392	-4201	4759	370	-15836	-2948	2160	-1672	10750	1117	-20576	-1920	11632	-349	1432	-186	-32768	-5216	-9844	3603	-30512	32767	-29420	-188	-32768	-24721	-27902	17460	-27560	-8620	22260	-10013	-26268	3495	134	104	1
-5144	-6560	14384	-5475	7282	602	-17732	-3384	2476	100	14808	2327	-20840	-2912	11120	-574	1189	-141	-32768	-32768	-32768	3466	-15081	19187	-4096	-12824	-32768	-21151	-9245	11232	-12724	-13536	32767	-3732	-1971	6315	127	133	1
-5080	-6140	14332	-6972	10929	1607	-17284	-3224	804	-226	19013	3176	-18240	-6296	8680	-972	783	12	-32768	-29464	-32768	11697	2805	5119	-2476	-11140	-32768	2494	12233	-942	-20644	2112	22976	3088	7605	5462	122	130	1
-4348	-6548	14836	-8420	16350	3484	-19684	-3836	-2988	-804	21661	4280	-18032	-5512	4144	-1016	320	37	-32768	-15092	-14500	-10360	15399	-4607	-14260	-6788	-26344	6172	26468	-7328	-15480	3896	10992	8398	-2947	2159	117	129	1
-4980	-8204	13700	-9925	23326	6673	-22160	-1208	-3524	-3692	23886	4211	-20008	-2880	4888	-1219	-14	272	32767	-11736	32767	6105	6217	-4657	-32768	11004	32767	25145	4676	-11903	-9148	-2344	-18092	5833	17294	666	124	132	1
-5972	-8504	14748	-13109	31586	8709	-25312	1804	-2856	-8563	24291	2834	-22360	-8	11992	-1148	-1152	435	-1744	11192	-4332	-4187	32767	-21745	-19392	-12576	1892	2960	15567	-6740	-32768	48	12008	11699	-6042	2920	122	136	1
-5672	-8152	13868	-16870	32767	11807	-31116	4820	2396	-9823	26094	1316	-25328	7992	16440	-616	-2060	764	-18556	1964	23080	4040	32767	-5310	-25500	7324	-2380	-2830	18267	-12863	-15264	-7584	10032	-25720	4378	-6889	114	126	1
-12120	-7752	18796	-23087	32767	14166	-32768	5200	8180	-16995	26234	711	-25608	13768	12272	-994	-2156	1226	-23560	19680	22140	1576	25853	-9419	-25904	3684	-9320	-5429	22625	-8023	-8284	-392	-1160	-1114	9444	1147	131	154	1
-23332	-16548	19080	-32264	32767	15271	-31336	2520	-1276	-28059	25626	862	-24208	2272	904	-2544	-2058	1241	-32768	15432	23072	-11513	12158	-9259	-11008	12412	-17652	-17524	21665	-3500	-17776	11788	-4556	11229	11924	6060	139	139	1
-32768	-22600	27300	-32768	32767	20701	-23952	-5168	-11604	-32768	26737	909	-18464	-7816	-9720	-3465	-2566	913	-11412	2644	19800	-8095	-137	-5327	-22308	-12888	-10728	-8115	21157	-10094	-10040	6928	-16100	-455	5089	961	151	113	1
-32768	-27136	27948	-32768	32767	20932	-27404	1012	-12604	-24585	20277	-28	-31736	-7120	-9696	-2208	-2712	178	-8652	-1832	16776	-4582	-508	-2683	-16568	-4776	-6480	6436	14391	-4339	-12952	-56	-8908	3845	9103	8054	145	108	1
-10288	-19204	29520	-32768	32767	17928	-20684	-2560	-7840	-13534	13093	4008	-32768	-1800	-6768	-971	-2543	-504	-7360	4984	13124	-2290	-244	-1337	-16444	-3296	-7620	18627	11403	-1931	-13196	2728	-9796	7307	9240	8322	141	109	1
-32768	-28400	32767	-32768	12823	17387	-9252	-2448	-15896	-10102	9125	1674	-28120	-752	-4904	-193	-2680	-729	-7564	3992	13820	-1887	-376	-1093	-17848	6688	-4124	7603	8848	-2187	-18748	6756	-4760	443	9621	542	152	103	1
-3164	-29940	32767	2595	-24471	4842	-3928	-1992	-13644	-7291	1504	-3603	-25000	-136	-6800	-397	-2738	-726	-7004	4128	13756	-1136	532	-1114	-19232	5056	-3596	-6836	8911	-4337	-18928	5040	-3528	-992	10251	308	143	126	1
-1156	-13280	17436	20185	-32768	275	-7892	-3500	-3484	-4629	-6858	-8711	-22104	736	-10096	-551	-2295	-725	-7496	4096	13856	-726	1025	-702	-17860	-1524	-5608	-11875	7136	-4632	-16728	1188	-4576	-5705	13438	-295	159	107	1
1024	-5712	8880	17499	-32768	-2304	-3992	132	-2288	3375	-13349	-10552	-19560	104	-9424	-228	-2043	-926	-8064	3332	13716	-209	992	-653	-16760	-4168	-5132	-3839	6002	-3116	-15908	884	-3876	-3530	14672	1780	153	103	1
-1580	-1312	6848	7251	-32768	-5899	-2584	2948	-1780	9284	-18465	-11143	-18144	-136	-9088	-308	-2118	-909	-7632	4144	13424	7	955	-786	-16852	-1592	-3752	5813	3622	-241	-15576	-956	-2664	1671	14202	2206	117	124	1
-1788	-4596	6948	1880	-32768	-9333	-3764	4864	-3204	7853	-23047	-12115	-12640	1352	-9048	21	-1884	-658	-7708	3640	13500	98	795	-806	-16124	1104	-2616	7516	3298	35	-15944	-1468	-1136	7515	13873	1983	113	118	1
-4388	-7488	9628	4016	-32768	-12200	-5212	4548	-3640	4957	-27349	-12699	-9376	696	-8328	120	-1800	-717	-7600	3528	13552	94	827	-778	-16028	3124	-1360	4682	3821	-433	-15568	-52	-1308	10855	13471	2614	116	108	1
-8616	-8084	13412	7442	-32768	-16767	-6952	4444	-5564	5379	-31249	-12842	-8600	-1024	-9456	227	-1689	-616	-7548	3756	13472	152	840	-777	-15696	1536	-2484	1227	4702	-1312	-15360	1536	-1332	13317	13530	2389	116	125	1
-11292	-7600	15852	8557	-32768	-21885	-9652	3924	-5576	5680	-32768	-12264	-6960	-1640	-9224	701	-1324	-503	-7564	3780	13640	169	828	-774	-16528	876	-3880	387	5073	-1907	-14600	1900	984	12790	15612	2312	122	135	1
-13660	-7188	17700	10238	-32768	-23915	-11920	1788	-6000	6363	-32768	-12297	-4672	-2248	-9584	1461	-1117	-378	-7424	4180	13416	16	625	-1083	-17072	208	-3064	3862	5281	-1587	-14460	2268	2304	10221	19181	2791	121	130	1
-15504	-7008	18852	11189	-32768	-22775	-14440	448	-7040	10806	-32768	-12379	-5184	88	-11448	2101	-1027	-260	-6984	4184	13596	-60	836	-1667	-17516	2100	-2420	5561	5684	-1718	-15052	4020	3800	7511	23087	2725	122	134	1
-17204	-8784	20996	12306	-32768	-20028	-16528	808	-8588	16369	-32768	-10575	-5240	824	-12952	2390	-741	-181	-7636	4060	13648	-151	1476	-2116	-17196	2284	-2500	3502	6701	-2902	-18176	5132	-4736	4759	21739	1615	126	129	1
-21948	-14156	27372	14269	-32768	-17477	-20200	1752	-10736	19703	-32768	-9065	-5408	2328	-12784	2246	-227	-92	-7576	4012	13608	-262	1519	-2234	-16396	1924	-1884	1481	7941	-3863	-18384	5932	-4424	-219	11822	508	123	123	1
-29980	-21412	32767	16744	-32768	-17778	-29620	3756	-12132	19723	-32768	-8496	-7936	-112	-5016	2180	-311	-162	-6688	3736	13716	-488	3452	-2542	-16604	1624	-2916	-279	8995	-4601	-14900	6008	1640	-372	12433	-870	132	116	1
-32768	-21400	32767	13629	-32768	-25024	-32768	8484	-17776	12374	-32768	-6343	-16664	-4728	9632	2093	-1878	-474	-7304	3424	13864	-406	6008	-2679	-18824	232	-2576	277	9708	-5515	-18284	2596	1948	-798	15678	-954	150	114	1
-32768	-15120	22028	7210	-32768	-32618	-32768	6804	-20812	-4404	-32768	-2879	-23760	-6704	24488	1074	-3002	-1141	-7324	3864	13796	-196	8121	-2766	-17480	1648	-1144	1818	11506	-6387	-18864	1556	2580	-58	13261	-1362	130	123	1
-32768	-15652	-12860	17364	-32768	-24150	-21328	-4944	-22392	-11794	-29468	-5093	-13648	25200	28968	1453	-1272	-1049	-7244	5452	13784	-414	12308	-3645	-20208	3816	-2004	765	13517	-8148	-21164	612	2760	1209	10814	122	137	126	1
-32768	26228	-32020	-6623	-28954	7290	7520	548	-15724	-5575	-10037	-7049	-14896	15736	32767	73	830	893	-8168	2860	14840	-968	16480	-5201	-20272	-192	-1996	2165	15451	-9072	-20284	388	3580	3912	7323	0	145	122	1
-32768	-6928	-32768	-32047	-19224	14806	2168	5276	-16464	-12405	13860	-1364	-17920	936	32088	-1191	-348	624	-8544	3892	14020	-1181	23293	-6234	-21772	1776	-2232	3092	16905	-10441	-19944	2900	1992	8312	3719	269	133	118	1
32767	-12840	-14172	13484	26298	19297	-10404	-4404	-15588	-18104	29108	1155	-13008	-936	6016	-890	-42	223	-8672	5116	13016	-2208	30454	-9753	-22464	2588	-3188	4436	18790	-10663	-21128	5356	6512	8650	-3378	-2596	108	120	1
32767	-32740	15588	5147	28861	17826	-32768	-20532	32767	-515	8941	-1549	-19376	-2152	-320	-765	1205	-34	-8948	6148	14128	-3883	32767	-14384	-27248	5024	-572	7572	19396	-10496	-24184	6364	14356	5475	-12555	-3469	110	121	1
-29836	-8304	15204	-7278	32767	2025	-17900	16160	-10112	32767	25432	6384	-22856	-104	16280	2575	1338	-1727	-10044	7580	13684	-7291	32767	-21982	-32768	9816	6732	10673	20445	-10588	-23776	1048	13072	-4430	-15063	-5596	121	135	1
-32768	22404	32767	-6138	31477	10654	-23568	13680	-17452	17159	25891	8901	-16920	9120	-9312	3081	2115	-987	-22460	8116	18792	-8379	32767	-30620	-32768	8060	5860	13782	20790	-10773	-27564	-1432	7592	2407	-14126	-7807	107	121	1
-19232	-32768	30032	5167	19195	7591	-20104	-2872	-22268	1938	25005	842	-21176	8912	-13432	-1400	407	150	-32768	10460	28748	-11703	32767	-32768	-30800	6896	-6832	14767	19931	-11587	-23464	4072	-6236	17273	-13459	-7553	150	140	1
-14240	9320	26116	6369	8228	6144	-13164	-2264	-17184	14537	19154	-2484	-12904	-14168	-18568	-3925	596	416	-32768	9356	29920	-3510	32767	-29438	-27640	4368	-4892	15108	17541	-16420	-23968	9616	-11488	18376	-16287	-3026	103	138	1
-5548	-11500	18040	6133	1299	2402	-13424	-1580	-11596	-3035	14681	-1651	-10136	-8808	-10232	-980	1185	-591	-16444	14188	32392	-13971	32767	-32768	-21628	5992	-10524	8197	13669	-10152	-30400	9720	-10416	1770	-19766	1325	82	131	1
-4984	-9044	15040	2416	-727	1225	-17056	7760	-9852	-12631	10400	-2125	-21256	-5920	-10496	-910	1320	-1020	-32768	14840	32767	-3057	10798	-23864	-13312	1832	-13528	686	12552	-7037	-29376	5204	-11540	-41	-18338	5482	117	138	1
-7184	-5396	15232	1476	-361	384	-21184	-1260	-9164	-23163	7718	-4691	-22416	-5920	-4880	-1380	1286	-434	-9052	26720	32767	7135	-28060	376	-17040	400	636	-2528	2025	-5548	-28360	4744	-10744	-8767	-22034	7668	133	127	1
-5368	-5980	14812	527	36	71	-17120	-11112	-5628	-1835	5971	-1018	-17592	-3632	-272	-746	1734	233	3936	18248	10512	-3040	-31835	7331	-9136	2876	2928	657	-8360	1033	-25408	1724	-11204	-7294	-18652	8035	105	121	1
-5704	-4996	14892	-65	609	-126	-16604	-2908	-5600	14276	4552	3355	-14096	-5160	-1064	271	2045	344	5736	9892	4052	-4764	-26044	11287	-6632	2620	1456	-2759	-14568	5252	-19400	1060	-11876	-7620	-16983	7786	103	95	1
-5964	-5968	14464	-717	717	-279	-15320	892	-5356	9653	4354	2064	-14992	-4032	-2240	709	2094	112	-832	8520	8252	-97	-22510	14827	-3812	4364	-2712	-10169	-18272	7952	-15424	1020	-11928	-8587	-16707	8058	88	116	1
-6020	-6416	14328	-576	464	16	-14284	3084	-4064	-3515	3850	-314	-16032	720	-424	5	1976	-227	-10592	10424	17020	1338	-27958	17615	-5932	2056	-7728	-18067	-22949	10670	-13384	1592	-12708	-12734	-15059	6710	116	111	1
-5668	-5784	14384	-444	295	187	-15520	1676	-2824	-14533	3634	-2422	-16224	3184	232	-1547	1889	-185	-15108	8040	18128	815	-32768	20524	-7232	36	-7412	-21131	-24653	14932	-11728	2772	-13064	-12256	-15760	6253	111	127	1
-7820	-8544	11988	-335	375	68	-16988	-4884	-2920	-10451	3099	-2261	-15136	-712	784	-2032	1757	-31	-13820	4980	13444	4115	-32768	22412	-11724	-808	-5788	-12258	-32768	13315	-9760	3652	-13156	-15875	-15289	5415	122	152	1
-5700	-5628	14384	-916	483	207	-15476	-2716	-2772	-4405	3616	-281	-16144	-2944	3520	-1317	1855	-87	-15268	5048	11840	6726	-32768	22478	-10720	772	-4676	-10377	-32768	17311	-6540	520	-14544	-23315	-13785	2502	131	147	1
-5648	-5720	14312	-1001	480	454	-16508	-1248	-2820	-5288	4353	-520	-12584	-3816	7896	-804	2584	-331	-17844	7304	11660	6411	-32768	22095	-13560	2372	-4592	-13684	-32768	20444	-4084	-668	-14740	-24970	-12572	1588	139	144	1
-3808	-3756	15108	-1590	-166	1758	-15196	-68	-2300	-10274	5444	-514	-14424	-4296	2584	-1309	3117	-318	-21900	4804	18372	7890	-32768	23116	-17648	240	-8280	-16717	-32768	20289	-3288	556	-14320	-25918	-10272	-27	136	128	1
-6224	-5148	14552	-1494	25	921	-13476	-1736	-1792	-8263	6209	-762	-17152	-4928	-3176	-812	1864	-366	-25520	4520	25316	12511	-32768	22712	-24052	-536	-9808	-11275	-32768	21846	-4096	-340	-12216	-24192	-9057	36	141	136	1
-5352	-5880	14240	-1156	459	436	-14884	-3264	-1252	-3964	7680	609	-15768	-7152	2992	-407	1254	-75	-31836	8852	29412	12869	-32768	19256	-31744	304	-12748	-7583	-32768	26405	-5208	-3148	-9508	-18067	-5216	-420	143	130	1
-5420	-6348	14080	-1596	1271	720	-17336	-2500	-2764	-443	9007	1448	-16752	-5872	3552	-224	1922	-41	-32768	9688	29984	12602	-32768	19066	-32768	1956	-16396	-9993	-32768	28460	-6848	-5204	-8424	-9023	1004	465	137	131	1
-5584	-5628	14384	-2398	2214	1020	-17548	-508	-1552	-1443	10307	1683	-17824	-2360	3272	-232	1992	-52	-32768	-372	19396	18140	-32768	27441	-32768	-3720	-25208	-11295	-32768	27009	-15628	1140	1800	-2767	-3533	2487	131	112	1
-5416	-4664	14952	-3827	3808	1032	-16376	152	572	-1978	12701	1816	-18456	0	7520	-336	1526	-123	-32768	-2132	10252	18797	-32768	31276	-32768	-2308	-21472	-5728	-32768	24005	-30320	124	20820	-2267	-22199	4651	128	123	1
-5164	-5592	15012	-5833	6075	430	-17460	-872	1196	-886	15824	2961	-19592	2176	9472	-538	1244	-181	-32768	-21804	-17504	5063	-27010	20365	-14796	-3312	-25648	-14189	-20615	17789	-20092	-17672	32256	-5447	-21767	7931	125	118	1
-5280	-6236	14812	-8189	9869	437	-18836	-1444	324	713	19296	3607	-20264	-1912	9288	-964	907	-52	-32768	-32768	-32768	16952	-7609	7129	-2388	-14520	-29204	-5594	1553	5963	-10984	-5544	32767	6113	2863	7040	119	125	1
-5476	-5876	14620	-11147	14624	870	-18916	-1260	-1388	63	22586	4516	-17448	-5600	6048	-1175	474	64	-32768	-18972	-24440	-459	8277	-964	-7656	-12000	-27412	3870	16508	-5153	-18232	4700	15200	6019	4774	5163	117	122	1
-3524	-7748	13972	-13813	21663	3867	-21180	-2232	-4240	-1228	24672	5146	-18824	-3632	7200	-1100	-133	300	32767	-3432	15072	-9266	18549	-1047	-20500	-4876	-18484	1172	28431	-12575	-13152	4464	756	5713	3001	2539	121	130	1
-2956	-9548	13328	-15838	30596	8137	-24332	4036	-1952	-5792	26765	3494	-20608	2264	14720	-1026	-1229	712	30732	52	1544	-10162	31916	-19655	-32768	24228	32767	12686	9048	-646	-19984	-2612	-6500	2569	15617	-420	121	132	1
-3916	-6288	15664	-20741	32767	9366	-32768	4188	7232	-12999	27952	1951	-25192	7864	14352	-501	-1793	1015	-32768	3052	32767	-528	32767	-7363	-16564	-24256	-14468	-14437	20193	-16919	-32768	9688	32767	524	-19271	5710	107	137	1
-5132	-6496	15296	-21476	32767	9694	-32768	1964	7872	-17131	28548	2497	-26768	10096	16800	-718	-2282	1265	-22372	-3692	31452	-667	28502	-11517	-30720	5428	-5604	1099	25857	-12083	2740	-228	-16076	-8704	10422	-9981	120	158	1
-23692	-21332	23072	-32768	32767	18017	-32768	-2900	1288	-24917	26786	3240	-25712	-1864	1536	-2567	-1862	1204	-32768	32767	30976	-15136	19509	-9744	-14924	17460	-14656	-4309	22689	-6033	-6136	-5360	-19640	11512	17115	1033	126	125	1
-32768	-23152	30116	-32768	32767	24873	-27012	-5928	-13812	-26147	28190	3144	-22960	-13816	-7408	-3054	-2043	660	-14788	-12236	25584	-10543	3274	-5874	-10472	-8608	-20108	-16954	21262	-8138	-5132	23252	-16500	13339	2709	309	139	138	1
-31664	-29860	32767	-32768	32767	21628	-24756	908	-11168	-15957	19712	5446	-32472	-10512	-10352	-1602	-2635	26	-9016	6796	14420	-5283	-513	-2567	-20116	-4048	-10160	2295	14413	-5924	-15932	1336	-11080	-5260	11359	5383	130	101	1
-4476	-17760	32767	-32768	32767	18476	-19532	-5120	-15716	-4452	12831	8807	-32768	-5120	-6352	-171	-2600	-485	-7576	8776	12612	-1870	-521	-1118	-21556	-7236	-5748	14845	10899	-2370	-22280	5936	-13720	7837	9756	5909	151	94	1
-32768	-32768	32767	-23055	14824	18134	-11688	-3136	-23756	-2510	5395	4769	-29432	-3848	-6288	533	-2784	-577	-8528	5036	14344	-1499	-555	-936	-17644	5060	-4356	14058	8063	-1049	-22496	4052	-5328	8361	10520	837	153	107	1
-2408	-31628	32767	17453	-23396	1301	-4172	-4340	-11428	-281	-992	794	-25624	-3296	-9272	421	-2476	-872	-6568	3808	14008	-801	828	-951	-17620	7948	-4256	-271	7979	-2790	-12940	3520	-2612	4341	12888	-279	163	122	1
1076	-10792	16432	29880	-32768	-988	-7108	-3580	-4460	2831	-10667	-3068	-24688	-6088	-9704	875	-2443	-1047	-7116	3960	13688	-500	1189	-688	-16480	3424	-4700	-8575	7424	-3954	-14808	3104	-1976	-562	15992	-147	171	92	1
-960	-4336	9460	26005	-32768	-1442	-3564	-544	-3244	8469	-16939	-4297	-16832	2880	-9392	699	-2093	-898	-7484	3976	13808	135	1300	-604	-17644	-2016	-5512	-4489	4890	-3047	-16784	4616	-4708	1616	14904	0	124	101	1
-3288	-2948	8784	16012	-32768	-2888	-1436	1320	-5296	11748	-21933	-4973	-14528	1208	-9576	451	-2168	-819	-7720	4752	13576	35	1184	-761	-17292	-348	-4536	4470	2925	-970	-15680	2088	-3184	4871	15520	1996	105	123	1
-4128	-6928	8732	10957	-32768	-4975	-2920	3904	-5900	7720	-27582	-6196	-12120	-216	-10808	934	-1940	-807	-7816	4016	13516	-108	981	-916	-15808	1396	-3536	7591	2455	-628	-14652	68	-1736	9030	14923	3564	102	120	1
-5856	-9188	9148	12302	-32768	-7085	-4812	3852	-5132	2808	-32674	-7233	-9768	1248	-10240	1320	-1841	-547	-7320	4000	13360	49	838	-784	-16360	1676	-3368	8423	1258	-492	-11752	3064	-964	12715	15058	2488	110	129	1
-9320	-9140	11580	12734	-32768	-10507	-4472	2956	-5664	2668	-32768	-7313	-7744	1104	-10624	1335	-1726	-349	-7268	3884	13436	130	812	-823	-15928	3068	-2860	4125	2750	-1074	-15652	1312	-1152	16418	14751	1052	125	122	1
-12484	-9864	14260	10510	-32768	-14483	-8336	4088	-5824	-2029	-32768	-9752	-4760	720	-11400	1388	-1336	-185	-7492	3932	13544	206	704	-922	-17152	1648	-3244	1949	3667	-1898	-14808	2288	-720	16342	15748	1624	118	126	1
-14020	-11396	16840	10610	-32768	-16485	-10668	808	-6732	-1876	-32768	-11693	-2768	784	-11808	1812	-1114	-140	-7368	3992	13508	136	612	-1171	-17292	1428	-2572	3601	4294	-2027	-14360	2028	2388	11343	22635	3385	128	139	1
-17676	-12968	20912	8760	-32768	-18733	-14480	-300	-8172	4919	-32768	-12893	-3320	-560	-13600	2027	-953	-70	-7084	4772	13304	-75	750	-1799	-16380	2296	-2140	5384	5116	-1964	-14932	4464	-1028	4046	21398	2690	129	145	1
-20620	-15616	23828	4968	-32768	-21820	-18292	756	-10200	12170	-32768	-11678	-4576	360	-12448	2341	-544	-53	-7204	3912	13344	59	1246	-2093	-15360	2980	-1052	3305	6450	-2610	-18000	6660	-3868	2672	14646	1681	132	141	1
-23396	-24840	25164	7188	-32768	-25297	-25464	4156	-13776	18463	-32768	-11008	-5344	3880	-11824	2422	-334	-53	-7764	4244	13304	1	1801	-2128	-16528	2900	-2500	-136	8032	-3555	-16604	7032	1364	688	13542	-349	138	127	1
-32768	-32768	31048	15944	-32768	-31810	-32604	2632	-15100	21545	-32768	-12242	-8960	1224	-176	2459	-659	106	-7804	4736	13568	-5	2858	-2153	-17668	2680	-2432	-593	9286	-4602	-16972	6336	3368	14	15137	-1101	139	123	1
-32768	-18632	22720	11471	-32768	-32768	-32392	4996	-20500	16522	-32768	-6078	-20304	-6784	15240	2051	-2470	-407	-6488	5204	13884	68	4658	-2945	-17044	2420	484	1383	11245	-5411	-20276	3352	4192	-308	13814	-1178	140	120	1
-32768	-16936	1656	12156	-32070	-32768	-26384	-1040	-27048	627	-32768	-1725	-32768	9248	18520	72	-2531	-751	-6752	3696	14436	-136	7782	-2582	-18228	2776	-408	1446	13566	-7221	-18416	684	4300	-34	11892	165	138	121	1
-32768	2840	-20424	12269	-23038	-13624	-12140	-6300	-29564	-1127	-24130	-6268	-6928	16448	32767	333	-781	-94	-7620	4212	14540	522	11995	-3216	-20536	2244	-1560	889	15637	-8451	-21376	1456	2952	4004	9436	-718	148	123	1
-32768	9864	-32768	-19688	-22872	10549	2844	6052	-19696	-10228	-1675	-5320	-18480	4720	32767	-275	1089	364	-7648	4260	14936	472	17419	-3984	-21244	2488	-3292	2372	17505	-9458	-19392	5456	952	6525	6386	-551	126	126	1
-32768	-13864	-32768	-8650	148	22782	-3004	140	-20520	-20827	20475	-2462	-16296	2656	23920	-1148	-278	-69	-8688	5352	13360	-484	24652	-6463	-23000	3580	-5028	3981	18818	-10538	-20784	6484	808	7651	2830	-1116	108	117	1
-9408	-23124	32767	11157	19615	20284	-30976	-8260	28064	-22003	18936	701	-11488	-688	-4872	-1762	485	403	-8284	5024	13336	-1901	31907	-10776	-23572	3100	-3532	7461	19648	-10377	-20024	6952	4968	7640	-2001	-3301	111	120	1
6632	-4192	-8256	75	32767	20644	-32768	-10620	8144	29285	19629	-2670	-32768	-7072	23264	-979	-831	-533	-8964	6388	13264	-3148	32767	-15408	-27980	5032	640	9239	20629	-10474	-25552	4752	13420	3882	-12957	-3517	119	122	1
-32768	408	32767	-7375	32767	2421	-12440	25648	-3632	32653	29347	10516	-7008	928	24640	4842	2308	-1798	-10152	6800	14708	-5525	32767	-21918	-32768	7324	6756	11575	22163	-10085	-20852	-3340	10084	-3773	-15214	-6603	141	110	1
-25340	-9588	30048	-6646	26461	10498	-27668	5772	-13512	27275	24148	9635	-11424	17056	-20016	2695	3327	-1059	-22388	9076	17908	-6582	32767	-29021	-32768	7476	5248	15725	21776	-10023	-27876	-4992	8732	5118	-15538	-8047	127	132	1
-4180	-20756	14640	11260	15769	5569	-16092	-8460	-18896	6663	24710	-4439	-22256	-9560	-18512	-2327	602	280	-32768	14180	32767	-6205	32767	-31392	-32236	6184	-8284	17421	20597	-10415	-23820	4288	-6452	17745	-15037	-6932	157	139	1
-13236	-10500	18596	7973	114	4380	-8992	2860	-19688	11181	18346	20	-6616	-12064	-17368	-2907	326	188	-32768	10984	30696	-238	32767	-27836	-28980	5268	-4260	17393	17585	-14521	-24804	8944	-12100	20619	-18071	-3195	89	139	1
-8740	2364	17548	4976	-704	1958	-15180	5696	-12296	-9576	13482	-2438	-13344	-4992	-10448	-881	1546	-868	-19084	12488	31032	-3876	32767	-32768	-20960	3676	-10764	10693	14497	-10863	-30444	8440	-9428	5187	-20694	1330	64	126	1
-5128	-6260	15604	1730	-706	251	-19544	6752	-7756	-25405	10783	-5388	-24816	-5296	-8848	-1381	1240	-981	-32768	22552	32767	2688	10003	-23306	-13604	3704	-17208	2263	13807	-6887	-31328	3804	-5452	2248	-20940	6447	112	137	1
-6028	-4824	15084	432	-636	-144	-20332	-4972	-6420	-24739	7055	-5511	-22584	-4720	-3640	-1672	1314	-331	-6776	22948	32767	5788	-31203	-5749	-16132	3396	1956	1857	3602	-3413	-29652	4396	-9368	-4962	-21673	7760	96	123	1
-5112	-4976	14976	-355	93	-233	-16676	-12556	-5520	6697	6126	492	-15424	-5352	-624	-658	1988	307	4704	15896	11644	1256	-32768	577	-16960	4012	5800	2305	-380	-2367	-25336	1884	-12000	-3295	-19627	7458	85	77	1
-5748	-5056	14920	-1184	427	-514	-16116	-2840	-5988	21082	4776	3940	-12888	-5736	-2008	782	2194	279	2156	11668	9264	1299	-32007	5185	-5696	1624	884	2287	-13506	7584	-19544	432	-11472	-4023	-17468	7264	119	92	1
-5808	-5136	14844	-1309	453	-529	-14584	3764	-5200	11579	3858	1777	-15432	-3216	-1656	1074	2146	2	-1864	10128	10372	5156	-32755	10568	-3344	3228	-2156	-4679	-17879	10940	-15276	1112	-11652	-6537	-17683	7833	99	120	1
-5328	-6052	14592	-908	302	-34	-15040	5504	-3376	-6943	3272	-1294	-16504	2392	632	-103	2064	-412	-6116	9300	12000	6679	-32768	14586	-5396	2244	-3108	-11444	-23036	14385	-12136	2016	-12232	-9979	-16845	6325	142	123	1
-5788	-5444	14504	-652	192	164	-16172	1528	-2900	-17458	3180	-3552	-16032	3704	744	-2002	1977	-299	-8908	7684	12732	6818	-32768	17465	-7268	356	-3376	-13992	-24890	19000	-12556	3016	-14348	-8477	-15485	4925	133	150	1
-5616	-5284	14504	-669	118	-26	-16592	-4688	-2564	-10945	2497	-3166	-15992	-1280	72	-2372	1917	-1	-11508	5820	14492	8658	-32768	20058	-10452	-1392	-4600	-9394	-32237	19134	-8576	3972	-14632	-14837	-15354	4356	126	139	1
-5544	-5384	14364	-789	230	-55	-14892	-3360	-2852	-3752	3538	-211	-14184	-5568	3936	-1144	2263	-67	-13300	4992	15936	10586	-32768	21890	-11828	968	-4648	-10962	-32768	21544	-4908	1832	-14512	-22107	-14215	3355	150	146	1
-5540	-5756	14592	-693	253	72	-17576	-1832	-3096	-3060	3898	-171	-11728	-5456	7504	-401	3139	-438	-20724	10508	18868	8450	-32768	24289	-14244	-716	-4768	-14590	-32768	23891	-2704	1144	-14792	-24793	-11208	2087	126	137	1
-4608	-10356	9304	485	600	-42	-16444	14516	-4076	-6532	5356	-1894	-15856	-3144	-1312	-715	2830	-504	-19684	2752	19152	12424	-32768	25331	-19776	440	-7360	-17960	-32768	23929	-2196	2604	-16364	-28384	-8027	679	132	133	1
-5956	-6016	13624	-393	-380	-136	-10364	-3044	-1196	796	-350	-1341	-16296	-5920	-1896	-291	1465	-317	-23748	2092	24612	15496	-32768	24693	-26228	-524	-8456	-18413	-32768	24504	-3160	-1332	-14388	-27140	-6971	1417	133	136	1
-2752	-820	16876	-1378	-1088	1160	-16836	-2432	-2136	-840	6908	732	-16232	-6696	3736	-37	1648	-88	-32768	6908	32767	15564	-32768	20734	-32768	-2516	-14404	-14083	-32768	26449	-4904	-5000	-11832	-21291	-4863	914	134	123	1
-4924	-5388	14600	-1386	371	196	-16776	-1280	-2368	-1121	9027	1300	-17088	-3056	3200	25	2019	-74	-32768	13300	32767	13310	-32768	22611	-32768	-2968	-16528	-13099	-32768	27150	-8680	-7588	-5308	-10532	-2240	-348	132	125	1
-5028	-5604	15124	-2007	1290	729	-16628	-1564	764	-2159	10012	1066	-19072	-1168	6328	-280	1723	-150	-32768	-4168	20548	20171	-32768	31197	-30892	-6344	-20392	-5848	-32768	25798	-21072	1760	10028	943	-12007	1806	131	127	1
-5120	-5124	14608	-2654	2554	1204	-15996	-1796	2424	-2101	13372	1911	-19152	1880	10632	-575	1340	-361	-32768	-9920	-2692	6097	-32768	26863	-31644	-2872	-29124	-13715	-30290	20217	-28592	-5868	21268	2913	-24649	3850	125	111	1
-5296	-4780	15468	-4865	4881	847	-17716	-856	668	-1020	17049	3425	-20008	672	7992	-1093	1053	-332	-32768	-32768	-30656	9554	-21536	13882	-9476	-13116	-32192	-13615	-13034	12809	-12588	-15576	32767	-5016	-6245	8325	119	118	1
-4856	-5068	15744	-7992	8369	1209	-19208	372	-140	-2225	20311	3940	-19328	-4568	4680	-1565	620	-57	-32768	-30736	-32768	14148	-1710	1909	-2384	-13624	-28924	2736	7847	1055	-18424	-300	29152	3578	8944	5243	109	126	1
-4320	-6820	15460	-9610	13922	1947	-20408	-3216	-4200	-1760	22298	4551	-17872	-6088	2792	-1273	265	17	-32768	-19500	-18956	-11630	13125	-4119	-13244	-12724	-24724	7142	22754	-8000	-18000	3900	14292	7186	-368	729	111	121	1
-3432	-7092	14000	-14124	20874	4373	-21384	156	-5368	-2655	24412	5708	-19304	-1776	5184	-1195	-150	305	32767	-6244	32352	-3623	10368	-3253	-32768	22652	32767	23816	8443	-12474	-10836	-188	-15164	4536	17142	-1671	120	138	1
-3948	-7800	16032	-16019	30627	8525	-26472	5028	-2232	-7372	25228	3951	-22800	400	11160	-1257	-1005	614	-7096	8756	-1920	-12313	32767	-22082	-21652	-12888	-4484	-4417	17037	-7574	-32768	7216	12340	6335	-902	4673	122	139	1
-3164	-7484	14896	-20686	32767	10071	-32768	5288	6456	-11693	26867	2691	-27744	6512	16552	-223	-1893	911	-17156	-11808	32767	-2226	30868	-8389	-27884	2552	-1352	-3434	19895	-13247	-26476	-4604	20580	-31792	380	-2022	115	151	1
-8568	-9096	19816	-27462	32767	13681	-32768	1476	8784	-16734	27242	3584	-26408	6992	15216	-994	-2296	1311	-21456	23148	19252	-1711	21561	-8130	-25352	-728	-8284	-670	22616	-9544	-2804	-3536	-5144	2123	10174	-5067	112	119	1
-25472	-21520	23652	-32314	32767	18179	-32768	-3308	728	-22569	26073	4537	-28240	-5016	3752	-2094	-1901	1203	-25336	21472	28264	-12085	11907	-8460	-8820	14920	-14524	-8604	19900	-5439	-11164	8656	-10772	18544	14163	4596	139	129	1
-32768	-25792	32400	-29838	32767	23884	-25348	-6816	-11852	-23094	27426	5353	-19344	-12424	-9624	-2509	-2111	783	-12824	-6904	18852	-7131	-185	-4562	-16660	-10008	-15312	-8059	18926	-10140	-8164	13228	-15660	-1014	2203	2122	160	109	1
-32372	-26372	26528	-28998	32767	24009	-25820	-6312	-12008	-22344	26794	4885	-30016	-9976	-9592	-830	-2546	-47	-8804	1544	14656	-3248	-584	-2186	-21636	-5020	-8400	5779	12065	-5230	-16560	-4980	-8948	-1789	11915	6730	123	104	1
-12676	-19564	32767	-29234	32427	17658	-18152	-4976	-16428	-2445	15897	10960	-32768	-5008	-4264	258	-2590	-495	-7580	6372	13328	-1041	-42	-894	-18564	-3128	-5248	14155	9857	-1276	-20060	4196	-9320	13890	10872	4061	155	100	1
-21068	-32768	32767	-1937	2087	13599	-12580	180	-26320	2316	9294	6460	-28600	-1608	-5288	658	-2637	-572	-6908	4884	13508	-719	151	-834	-17044	6792	-2740	7794	8581	-803	-19736	5844	-4040	10223	10774	1281	166	116	1
2428	-13372	28768	18908	-23357	6685	-7016	-3640	-2800	-536	-120	1681	-27248	-2256	-6320	316	-2459	-672	-6628	4144	13924	-184	1103	-798	-17212	6392	-3040	-4077	8642	-3371	-13904	5728	-2004	2636	13347	696	162	119	1
5540	-2964	13704	18243	-28985	7772	-7060	-732	-2436	-897	-8353	-1137	-22856	-4864	-5568	12	-2444	-820	-7372	4248	13696	-339	1296	-822	-16848	1896	-5196	-8457	6866	-3859	-15052	3848	-2688	-1436	14085	-17	148	102	1
4060	-2172	9508	11349	-31841	7741	-3340	-1084	-2900	3215	-14434	-2429	-16384	2336	-9136	806	-2152	-724	-8008	4316	13740	-152	1029	-839	-16572	-1840	-5068	-100	5360	-2636	-16792	828	-3052	1777	13973	1361	132	113	1
1856	-6888	9644	7120	-32768	5868	-1972	104	-4656	7666	-20060	-4502	-13960	4304	-18184	403	-2342	-600	-7272	4520	13572	-48	892	-926	-16984	-1980	-4788	1476	5186	-2300	-15280	292	-1860	7499	12796	2296	112	118	1
-856	-10772	10652	8411	-32768	2203	-3436	2932	-5628	5505	-25542	-5969	-11344	-168	-6152	713	-1895	-576	-7328	4208	13672	-43	1033	-1079	-16044	2832	-1596	8246	4395	-384	-15744	-900	-404	12945	12435	2193	109	127	1
-3632	-11888	11568	9643	-32768	-4249	-4120	3472	-6760	790	-30719	-6886	-10600	-832	-10320	654	-1705	-412	-7780	3852	13636	237	1102	-810	-15780	4148	-2720	4441	5186	-1489	-16104	836	-872	16711	12271	1095	104	130	1
-6488	-11704	12204	9076	-32768	-11618	-5448	3076	-5996	-1838	-32768	-7184	-8592	-1808	-11048	894	-1546	-349	-7588	4216	13616	223	1017	-773	-16472	3256	-4076	1620	5267	-2324	-15464	2212	596	13959	13577	2367	112	125	1
-8436	-11668	12332	8417	-32768	-17228	-7672	380	-5552	-2536	-32768	-9026	-6192	-1936	-11024	1296	-1414	-333	-7224	4372	13400	227	896	-1100	-16692	1068	-3480	3494	5528	-2162	-14716	3848	1388	10849	17798	4199	126	117	1
-10664	-12344	14372	9523	-32768	-19298	-9484	-2468	-6332	2369	-32768	-10733	-4072	-1024	-11392	1997	-919	-223	-7152	4320	13600	470	1198	-1343	-17052	1096	-2560	5909	5737	-1811	-15184	3084	708	9344	20675	4133	121	136	1
-14876	-13668	18456	8734	-32768	-20977	-12972	-2800	-8260	10479	-32768	-11203	-4008	-872	-13024	2282	-911	-189	-7424	3868	13492	872	1849	-1376	-16748	2160	-2640	4835	6550	-2400	-16004	4252	-4884	6297	17147	1982	129	133	1
-17828	-15824	20832	6248	-32768	-23127	-17152	-372	-9988	18037	-32768	-9933	-4456	40	-13344	2800	-738	-180	-7592	3712	13180	906	2422	-1212	-15976	1960	-3000	2698	7423	-3033	-15672	7024	-4968	3759	12599	5	127	131	1
-20956	-21436	25508	6132	-32768	-25113	-24004	3376	-11716	19759	-32768	-8474	-5968	2784	-10048	2704	-661	-62	-7728	4600	13304	744	3011	-1389	-16188	3104	-4232	1101	8130	-3460	-14616	7328	-1748	1637	13232	-941	143	132	1
-30316	-32768	32767	12904	-32768	-29830	-32768	1992	-16148	16553	-32768	-9457	-10184	4008	-1944	2252	-843	-12	-6568	3676	13712	799	3751	-1969	-17488	2280	-2912	1383	8627	-4155	-15832	4812	-640	-169	14040	-800	151	132	1
-32768	-27804	25784	19822	-32768	-32768	-32768	176	-23776	20640	-32768	-10101	-17936	-6200	7880	1925	-1792	-288	-6668	4236	14152	135	5808	-2306	-18388	2776	-904	2397	9506	-4602	-18824	4092	1740	585	13717	-615	146	129	1
-32768	-20560	15036	9180	-32768	-32768	-29540	2012	-23428	4804	-32768	-4710	-25728	-4896	17768	1369	-2518	-840	-7444	3924	13956	367	7834	-2262	-18008	2812	-732	1905	11785	-6267	-19364	3028	5868	477	12192	-562	128	125	1
-32768	-4964	-7556	9923	-31851	-21910	-23712	-4964	-22500	3141	-30456	-6480	-27488	5512	13008	1186	-1934	-984	-7504	5500	14016	452	11331	-2903	-18452	4820	-1512	1064	14191	-7758	-19916	2112	6052	2462	11039	-301	131	127	1
-32768	11632	-28260	-18971	-30639	1209	304	7956	-22192	-18487	-10678	-8667	-17400	9920	32767	-192	867	-260	-7556	4808	14728	68	16051	-4375	-20852	3516	-2632	2499	16493	-9040	-21048	4316	4220	5439	7231	-113	116	127	1
-32768	-4964	-32768	-20350	-14251	18695	1780	-3216	-19492	-31493	11813	-7236	-18600	1104	29512	-2482	-263	-225	-7980	5564	13896	-565	23464	-6986	-23228	4188	-3064	4645	18409	-10205	-22576	5572	3616	8889	2847	-779	119	128	1
32767	-32768	-13196	17621	22053	19311	-11100	-10736	-12536	-20661	27538	-1399	-10392	488	5184	-2189	-253	60	-7992	5544	12280	-1876	31216	-11587	-23560	2968	-2552	7577	20374	-10008	-20800	3200	6500	8376	-3652	-2565	131	111	1
30860	-3676	15180	2534	29567	6379	-32768	-1376	32767	15387	9312	817	-19344	-2312	1904	-1443	1074	-94	-8192	6048	13176	-2947	32767	-15757	-27900	2960	-432	10292	20978	-9627	-24428	2340	13752	4908	-13342	-3565	127	117	1
-32768	-1756	29728	-14116	32767	-321	-14764	17268	-12876	32767	25854	7476	-32768	-8648	32767	2452	-1090	-2181	-11268	6716	15148	-5072	32767	-21538	-29128	3652	1088	10621	21073	-9606	-21716	-5240	10896	-2266	-14649	-6330	124	118	1
-27932	20452	32767	-9174	30265	12644	-19376	-1212	-12976	28874	25247	10034	-3216	8744	-8536	6662	4120	-431	-21684	8500	17112	-5547	32767	-27556	-32768	6448	5852	15999	22012	-9705	-22496	-6308	9872	14106	-14157	-6592	88	132	1
-17672	-32768	32767	8865	22221	9233	-25504	-3772	-14084	19978	24054	2865	-19288	8488	-10952	-204	1309	-230	-32768	12036	32767	-5997	32767	-29327	-31568	7012	-8732	17535	20518	-10309	-23140	7088	-6368	23708	-14454	-6423	175	134	1
-22588	4476	32767	11947	7923	7122	-11128	-1260	-17500	22637	20872	-2935	-16960	-13712	-17536	-2959	422	530	-32768	11612	32592	-2941	32767	-26425	-29628	6128	-5248	17470	16302	-14260	-26408	12788	-12308	19914	-16881	-3785	83	138	1
-3820	-11108	16484	8195	1885	2898	-8852	9920	-8476	-16913	24041	-4252	-4520	-2280	-6576	-1749	1011	-852	-19500	9616	31456	-4944	32767	-30201	-20328	3480	-11252	10120	13956	-12126	-30364	9008	-9160	3533	-19984	580	66	128	1
-6072	-7144	14776	3109	-295	1085	-16732	14248	-9492	-32768	9941	-6147	-18992	-3640	-11312	-2382	941	-1201	-32768	19420	32767	3387	3304	-20313	-12224	3556	-17376	73	14140	-9044	-32768	9344	-3920	-7626	-16725	3884	104	146	1
-7208	-5604	15292	1085	-310	109	-21076	-6960	-9004	-32768	10227	-7339	-24864	-6712	-6480	-2378	927	-158	-2824	19616	31292	1753	-32768	-9634	-16148	6464	4904	2352	1306	-4773	-30004	3928	-9780	-8685	-20595	6539	143	110	1
-5092	-5464	14900	-217	224	-103	-17384	-16852	-6868	7957	7770	-54	-23640	-7192	-5728	-2187	970	-162	4352	13024	13868	-3213	-32768	-6425	-7584	1140	2840	845	-9469	1451	-25028	568	-10784	-5749	-18608	7488	94	98	1
-5796	-5012	15096	-1308	842	-236	-17124	-2136	-9040	30569	6535	6074	-14976	-4312	-2800	652	2242	516	612	10972	11916	-746	-32768	-1784	-5180	-180	-200	524	-14871	5683	-18192	-688	-11596	-4837	-16668	6808	90	96	1
-6728	-6900	14288	-1619	945	-233	-15560	9056	-6732	14663	5659	3781	-12592	-4720	-3352	1230	2254	211	-1700	10056	10168	5968	-32768	5773	-3968	92	-1388	-2514	-20082	9179	-15260	-668	-11680	-6240	-16563	6420	96	124	1
-5664	-6176	14628	-1240	602	63	-14352	5500	-4976	-9308	4517	-1534	-17176	496	-1424	476	2013	-268	-4936	9980	9764	7512	-32768	10622	-6504	960	-1864	-4354	-25782	13686	-14096	-456	-13144	-8604	-15856	4706	130	128	1
-5616	-5912	14464	-683	410	354	-15596	-676	-3580	-18641	4209	-4099	-16512	2384	168	-1385	1882	-155	-8136	7340	11632	8088	-32768	13630	-7812	700	-2944	-7296	-28682	17916	-12604	2944	-14956	-7815	-15062	4246	119	150	1
-5040	-5396	14492	-684	726	383	-17212	-7472	-2580	-9132	3014	-2309	-16568	-1664	-800	-1883	1796	81	-11124	5888	14640	11358	-32768	17009	-10364	-1040	-4136	-5491	-32768	20218	-8372	2324	-14928	-12535	-14251	3430	127	138	1
-5724	-6024	14568	-861	1199	791	-15756	-2548	-4800	1403	3919	1253	-16528	-3400	344	-929	1818	4	-14232	5248	17888	12973	-32768	18806	-12032	1556	-4832	-9233	-32768	23059	-5704	808	-13876	-18511	-13153	646	135	145	1
-6112	-5228	14676	-1143	1146	899	-17088	2028	-5432	-1140	4055	230	-16544	-3256	336	-777	1887	-14	-16328	3528	19284	14647	-32768	19805	-15300	872	-4400	-13012	-32768	25495	-2248	-64	-14320	-20861	-9616	7	122	138	1
-5924	-5768	14424	-1321	1116	912	-17268	2292	-4364	-8376	3546	-1567	-12176	-1320	7296	-1369	3946	-314	-18756	2720	20556	17256	-32768	20860	-21508	-644	-5456	-14382	-32768	26705	-1788	1388	-15236	-22965	-7444	-558	128	126	1
-6056	-5604	14156	-1678	930	640	-13892	572	-1608	-12870	4326	-1425	-14224	-1936	-3872	-1286	3078	-336	-23824	1768	26188	18837	-32768	21227	-27092	-1700	-7428	-14113	-32768	27031	-2068	-200	-12844	-22733	-6378	-615	131	128	1
-6224	-6508	14340	-1546	1161	656	-12720	-3936	960	-7043	6252	-625	-16792	-6632	1320	-436	940	-223	-32768	6160	32767	16495	-32768	20317	-32768	-2584	-14248	-11354	-32768	28273	-3992	-3564	-9248	-19106	-5714	-81	132	123	1
-5792	-5140	14472	-1749	1316	934	-15656	-2676	-1968	1173	8513	1393	-17296	-7200	8072	-143	1737	-70	-32768	6800	32767	16002	-32768	20686	-32768	-2072	-17240	-10083	-32768	29351	-8688	-5960	-4176	-10344	-5532	-641	136	119	1
-5388	-5976	14452	-2945	2266	586	-18464	-360	-108	426	10452	2240	-18464	-4192	5312	-46	2059	-12	-32768	-6528	15156	20266	-32768	32143	-31496	-4796	-18040	-9466	-32768	25463	-20372	5452	10984	-6245	-11796	-933	149	140	1
-4196	-6400	14704	-3211	4442	1168	-16756	-1332	1772	-1027	13529	2182	-20400	-1992	8768	-294	1545	23	-32768	-6788	-1416	6986	-32768	28214	-30908	912	-29068	-20153	-30835	20307	-28320	-4324	19008	-6795	-23573	4314	140	123	1
-5276	-5504	15164	-4591	7364	1577	-17756	-1752	1304	1193	16898	3307	-20336	1976	10808	-371	1322	-144	-32768	-32768	-31960	10277	-19374	16444	-8124	-13192	-32768	-18551	-11307	12043	-14668	-20148	32767	-8943	-5435	7135	129	138	1
-5404	-5320	15016	-7764	11648	1904	-19200	476	-708	2149	20569	4297	-18368	-856	7112	-771	923	-60	-32768	-30260	-32768	12881	-144	4457	272	-10416	-29480	463	10323	777	-20964	-2836	27680	3876	7658	4570	110	127	1
-4696	-4912	15128	-11596	17773	2162	-20220	-112	-3392	462	23167	5570	-18096	-5432	4288	-1157	466	131	-32768	-16796	-16092	-9796	13300	-2204	-12152	-9904	-25220	6908	23801	-6919	-17592	3204	13932	9617	-2899	1851	113	115	1
-3892	-8564	14108	-12850	25905	5552	-23340	44	-3316	-3909	24939	5133	-21272	-3472	6864	-1225	-127	449	32767	-15668	13836	-2740	20344	-5265	-32768	14444	32767	20939	10243	-11089	-11760	-1696	-15384	8367	13748	2220	121	142	1
-6148	-9860	14956	-16147	32767	8782	-27688	2032	-628	-8239	26220	3944	-24272	-96	16856	-797	-1541	689	-19800	896	3932	-9938	32767	-17091	-24352	-17308	-7180	-4410	17465	-8160	-32768	3404	11940	9178	-4509	6627	125	117	1
-5632	-8964	13832	-20164	32767	13166	-32768	3844	7836	-11350	27632	2502	-25896	8192	16296	-92	-1952	1039	-17024	-13664	32236	1338	32767	-9117	-27664	132	764	456	22525	-13081	-18244	-9024	5920	-30976	9541	-4506	131	142	1
-13280	-10568	21636	-25523	32767	17126	-32768	304	9656	-18458	26956	3176	-27064	6704	12440	-1085	-2090	1263	-20556	28036	12628	1515	28846	-9093	-22148	1760	-11096	2631	22738	-7539	-3132	-3104	-8092	5910	8048	-4205	124	150	1
-32768	-27352	32767	-31837	32767	21280	-28380	-2556	-6464	-23246	27177	4109	-22232	-5056	-4616	-2726	-1827	1053	-32768	2420	25276	-16481	8837	-9015	-6388	15648	-25352	-14115	22777	-2820	-16208	16832	-11924	19058	10476	3682	147	163	1
-32768	-29968	24092	-32768	32767	23129	-26868	-2824	-9476	-22659	27559	4071	-25856	-13600	-9080	-2622	-2362	474	-12268	13148	11044	-5349	-2518	-3522	-25788	-13716	-13668	-6382	18861	-11799	-12100	6092	-17640	-4481	7352	3972	135	102	1
-18336	-20984	27420	-32768	32767	22405	-25044	1232	-6220	-12603	16651	6110	-32768	-7760	-9272	-505	-2570	-193	-9684	-1932	15752	-2585	-1472	-1952	-17096	-9184	-7028	6971	11258	-3924	-16804	-512	-10864	3448	13038	8676	130	104	1
-2432	-11476	32767	-32768	28544	22916	-16836	-7172	-10104	-9902	11318	8758	-32768	-2776	-8848	180	-2647	-453	-7744	3372	14176	-1080	-260	-1022	-18268	-1588	-5432	18248	9556	-35	-20828	4852	-7940	10003	10537	2634	144	97	1
-8300	-32356	32767	-4122	-6637	13122	-8204	-1708	-26260	-1244	4414	2518	-25296	-872	-4376	691	-2871	-668	-6864	4084	13740	-355	340	-672	-18544	156	-5316	17399	8978	242	-15156	4540	-2364	6074	12131	333	148	111	1
-3988	-18632	26492	18338	-27297	3139	-6892	-2228	-6408	816	-1244	-348	-23416	1824	-8136	210	-2420	-768	-7008	3924	13672	269	985	-560	-17276	6632	-2444	-6363	8034	-3257	-15196	3448	-2472	185	15043	596	138	112	1
2308	-8376	11656	23621	-31878	1546	-6384	-784	-3332	2295	-10361	-2748	-21152	-6168	-7888	97	-2393	-864	-7792	4412	13688	327	1423	-645	-16020	1292	-5068	-8997	6262	-3805	-15692	4000	-3272	-169	14935	-176	140	106	1
1772	-3808	6792	18346	-32768	661	-3048	308	-2900	6685	-16192	-3856	-17208	2608	-10208	537	-2080	-849	-7740	5052	13380	400	1234	-718	-17420	-1240	-4488	50	4825	-2263	-15616	3808	-4140	2760	15556	2458	137	109	1
-412	-4248	7284	9920	-32768	-2168	-1636	2260	-4232	9900	-21184	-5206	-13928	816	-9528	421	-2105	-856	-7708	4748	13404	-139	1166	-1304	-16940	1176	-2748	7994	3882	-187	-15664	388	-2668	7400	14627	3542	119	125	1
-2464	-8716	8904	7170	-32768	-5933	-2144	3888	-6376	6082	-26230	-6261	-11888	-56	-10688	807	-1902	-722	-7992	4012	13476	-178	1122	-1318	-15996	2372	-2056	8036	4107	-355	-15432	-240	-1944	12537	14308	2883	111	138	1
-5056	-10716	10096	10165	-32768	-9922	-3268	2788	-5864	2121	-30615	-7479	-9256	1392	-11072	879	-1850	-525	-7708	3128	13496	318	1059	-938	-15712	3112	-2732	3261	4894	-1155	-14928	1676	332	12579	14731	2066	119	120	1
-8860	-10124	12304	11799	-32768	-14277	-4600	2456	-6452	1739	-32768	-8768	-7240	-216	-10584	951	-1531	-414	-7632	3856	13292	745	1175	-808	-16368	2048	-2752	1399	5446	-1743	-14504	888	4024	11858	16689	3147	124	124	1
-11580	-9744	13960	10630	-32768	-18436	-6508	2060	-6028	1964	-32768	-9693	-5320	-1064	-11856	1401	-1211	-258	-7452	4624	13148	793	1217	-1155	-16848	1792	-2448	4458	5668	-1483	-14448	3044	4464	11012	20933	3820	124	131	1
-12804	-10492	14720	9428	-32768	-20395	-9600	-208	-6116	3614	-32768	-11101	-3488	-1224	-12536	2087	-1010	-153	-8096	4528	13408	691	1465	-1666	-16124	2264	-2312	6305	6582	-1792	-16932	4468	-3904	7950	19694	3978	128	144	1
-15360	-12424	17452	8926	-32768	-21031	-13644	-1472	-7660	9085	-32768	-12037	-3760	296	-14336	2565	-703	-61	-7836	3496	13584	709	1885	-1554	-16456	2344	-2040	4573	7749	-2478	-17236	6568	-4416	3924	12409	2694	136	134	1
-18852	-16172	21944	9058	-32768	-21808	-17268	-692	-10320	15736	-32768	-11155	-4168	1224	-15392	2774	-238	-105	-7900	3744	13216	921	2377	-1175	-16280	2900	-2424	1829	9084	-3618	-15224	7360	48	3074	11620	227	133	127	1
-24092	-26196	28892	12675	-32768	-23891	-24784	708	-12604	20403	-32768	-10159	-5840	3432	-13192	2632	-2	-93	-7456	4272	13564	1126	3440	-1641	-16576	3496	-2448	943	9977	-4535	-15048	5488	1316	1225	13820	-438	128	121	1
-32768	-32768	32767	20533	-32768	-29977	-32768	-1392	-15128	23450	-32768	-11244	-11728	4960	312	2286	-684	-122	-7008	5000	13452	116	5156	-2418	-17548	3008	-2288	1517	10892	-4825	-17072	3164	-356	1713	13205	-774	128	123	1
-32768	-12764	23740	12567	-32768	-32768	-32768	3652	-14584	14007	-32768	-5671	-24344	-10080	19312	1960	-3109	-748	-7856	3656	13428	633	7602	-2299	-18872	96	-1996	2129	12278	-5988	-18968	2420	952	1584	11923	-226	137	124	1
-32768	-18816	8928	-1452	-32768	-32768	-29340	15652	-21920	-20168	-32768	-5257	-32376	11000	21632	491	-2256	-822	-7644	4656	13940	826	10523	-2150	-17876	4520	-2940	2272	14001	-7197	-16188	3368	3108	2715	11303	239	125	121	1
-32768	2308	-24900	5307	-31283	-14370	-6484	-12648	-23328	-11312	-21291	-10202	-6600	18048	32767	-435	-491	-275	-8184	6424	13992	115	15105	-3952	-20192	3848	-3220	1895	15634	-8082	-20636	4272	1864	4711	9250	-563	147	130	1
-32768	10560	-32768	-27640	-28718	11477	-1512	-10348	-26512	-12748	-16849	-9775	-17368	-472	32767	-1294	301	-181	-8836	3844	13520	-269	21461	-5375	-21648	2104	-4408	3372	17162	-9600	-20048	6408	816	6324	5769	128	124	117	1
-32768	-16848	-32768	-10787	637	24433	-2684	-5228	-18164	-20013	23210	-3831	-14224	-3632	22064	-1740	-396	-453	-9156	6168	12480	-1349	28202	-8790	-22528	3860	-4040	5411	18476	-9699	-21028	4372	3912	7068	832	-1928	109	116	1
3720	-17400	32767	14907	23620	12844	-32768	-8164	32767	-5723	19035	2247	-10880	-2952	-7424	-1022	929	-355	-8808	5684	13000	-785	32767	-13009	-24756	2136	-1808	9359	19500	-9306	-22140	2696	11752	6930	-8882	-3249	120	123	1
-6780	14392	-13484	1219	32767	11287	-32132	3024	-9284	32767	24211	187	-32768	-10520	24240	703	-457	-1551	-10808	6252	12740	-1835	32767	-17470	-32608	6408	6468	15205	20208	-9269	-25124	-1704	16088	-50	-15537	-4517	140	120	1
-32768	20308	32767	-8494	32767	6149	-17320	30572	-8336	32767	31954	11575	-5624	6968	10544	6573	3706	-790	-15584	7824	15076	-1375	32767	-23375	-32768	7660	9768	18049	21121	-9399	-25144	-6560	14916	3846	-17221	-7245	116	121	1
-32768	-32768	32767	10904	26292	13734	-27576	-1356	-22728	16486	27694	7438	-19800	14528	-13312	1500	2139	-60	-32768	8384	30096	-1577	32767	-28642	-32768	7256	328	19979	20342	-9898	-25412	-792	-420	20098	-15081	-7489	154	120	1
-14936	11748	32767	11323	12614	5991	-19644	-10184	-10640	27512	22437	-5772	-24336	-9608	-23960	-2388	682	334	-32768	5768	21792	-2770	32767	-28930	-31516	7860	-7720	14834	18791	-12957	-24360	10976	-10676	22822	-17097	-5192	128	138	1
-3672	-23480	14272	7639	235	2099	-2228	3472	-11764	1979	20357	-1758	888	-6976	-13392	-1758	513	-504	-30312	16252	27988	2319	32767	-26787	-22844	4248	-4712	13807	16326	-13211	-27548	11652	-10728	13252	-20113	-1894	81	120	1
-8488	-5488	15452	2851	-933	945	-14792	14280	-14804	-17509	8761	-1406	-15576	-1416	-13192	-1617	1227	-1221	-6328	12460	32767	41	23378	-26909	-17784	6880	-12220	3016	12730	-9709	-31752	7820	-8816	441	-20139	4261	99	135	1
-6732	-5464	15140	916	-511	256	-23356	6448	-12420	-32768	11095	-10616	-29504	-5632	-8824	-2595	1028	-656	-13324	23536	32767	5383	-28702	-10819	-12284	1520	-12232	-2560	10974	-7661	-32768	6312	-3876	-3633	-24491	6815	140	119	1
-5240	-5692	14620	-333	-463	-377	-20752	-18188	-4764	-17505	7348	-6147	-23008	-5616	-512	-2062	1385	94	3388	15144	16840	-8	-32768	-6313	-11552	2368	4376	3076	-5494	-44	-28420	1468	-12928	-6244	-17896	7117	99	109	1
-5156	-4280	14912	-1339	407	-511	-15764	-10860	-5716	21560	6934	4225	-13576	-9440	-1120	-428	2133	443	4992	10452	8748	546	-32768	-3078	-6608	252	1896	1176	-12462	4841	-21732	176	-10552	-6290	-18827	6844	85	106	1
-5076	-4456	14976	-1513	510	-488	-14872	1468	-6716	25604	4954	5097	-11776	-8456	-2864	970	2205	262	-1108	10588	10864	5438	-32768	2984	-3524	780	-1884	-1159	-17781	7994	-17784	-620	-12612	-6725	-16895	6537	89	122	1
-5884	-6588	14544	-1228	482	-112	-14484	6872	-5440	4735	4296	1157	-16768	-2896	-1104	981	2131	-293	-7388	12408	13412	5964	-32768	9217	-4492	300	-4020	-5214	-22952	12600	-14520	-1448	-12648	-10402	-16419	4383	125	137	1
-5648	-6080	14392	-593	252	205	-15928	3688	-3768	-16736	4251	-3284	-16872	2568	384	-551	1970	-284	-8356	9228	11516	6145	-32768	14920	-8012	296	-2716	-11588	-27080	16244	-13704	2156	-14424	-9753	-16047	4749	133	127	1
-5244	-5412	14620	-365	325	306	-18236	-4992	-3200	-15261	3320	-3450	-15976	520	-368	-1850	1848	42	-9576	6696	10796	8804	-32768	19238	-10864	288	-3976	-6479	-32768	17188	-10140	2820	-14532	-11509	-17284	4583	145	151	1
-5644	-5400	14608	-682	862	355	-15000	-4740	-3548	-3433	3164	-585	-17144	-2816	-40	-1437	1887	206	-12892	5648	13948	9867	-32768	20675	-9892	1748	-4244	-7750	-32768	21405	-6216	556	-14300	-17427	-14679	2636	146	141	1
-5892	-5408	14676	-1588	582	737	-16636	-368	-4372	34	4135	371	-13224	-2576	4792	-610	2559	-23	-17396	4892	18696	11481	-32768	21459	-12288	1284	-5268	-12465	-32768	24189	-3116	-988	-13160	-19684	-11727	242	137	142	1
-5940	-5728	14316	-1140	641	446	-16036	912	-3040	-4902	4375	-646	-11808	-1664	8312	-527	3533	-515	-19396	3276	19608	14564	-32768	22562	-18160	448	-6076	-15686	-32768	25609	-1440	380	-15040	-21583	-8938	661	129	143	1
-5592	-5564	14232	-1056	477	564	-13604	200	-1176	-9527	5422	-1245	-14704	-2248	-1088	-714	2820	-551	-22044	2036	21384	15922	-32768	21741	-23932	-1924	-7332	-15970	-32768	26389	-1968	-360	-14228	-22183	-5690	131	117	126	1
-5396	-5268	14468	-1271	574	684	-13736	-2468	-1104	-6214	6959	-485	-17800	-5600	0	-520	1164	-252	-32768	5032	32767	15933	-32768	20028	-30872	-3448	-12812	-12924	-32768	26994	-2644	-3776	-12724	-19795	-4749	843	122	125	1
-6068	-5820	14108	-1763	1082	440	-16928	-2648	-2856	-699	8641	816	-17448	-7512	4792	-292	1720	-108	-32768	9412	32767	14792	-32768	22591	-32768	-3236	-17096	-7840	-32768	29304	-5544	-5788	-6668	-9637	-469	449	131	121	1
-5416	-6112	14580	-2490	1883	469	-17480	-1488	-1124	-1253	10386	1619	-16792	-3832	4152	-193	1878	-96	-32768	-1836	24444	17245	-32768	27332	-32768	-2628	-20524	-5363	-32768	28759	-13800	2360	-1360	-2976	-3656	1972	138	124	1
-5136	-5720	14752	-3594	3390	901	-15720	-636	124	-2137	13021	1776	-18824	-296	8240	-438	1481	-140	-32768	-2840	12408	14012	-32768	28146	-32768	1804	-19900	-10765	-32768	23687	-31492	4216	23364	-3828	-25435	4951	130	134	1
-4940	-5612	15136	-5689	5635	625	-17976	348	328	-1856	15853	2810	-19016	3232	7680	-640	1264	-248	-32768	-22312	-18980	7328	-27834	19849	-15980	-7736	-24344	-18431	-21802	16403	-21544	-17164	32767	-8698	-20840	7695	131	119	1
-4988	-5332	15212	-8244	9646	640	-19608	-96	-256	-752	19015	3073	-20320	-1928	7352	-988	861	-53	-32768	-32768	-32768	18480	-7539	8887	-208	-14580	-29488	-7101	775	6759	-15612	-6104	32767	2324	6309	4877	120	135	1
-5492	-6280	14672	-11197	14594	826	-19080	-988	-3028	-326	21935	4220	-17160	-5896	3904	-1194	524	139	-32768	-18800	-26552	-1508	7451	2380	404	-13880	-28752	-4077	3913	4912	-18992	5044	16852	8455	2354	2104	112	110	1
-3420	-8020	14264	-14157	21068	3101	-20764	-1944	-5388	-1203	23787	5090	-18616	-3624	6048	-1128	-28	342	21152	-32768	-408	-2781	24781	-512	-22644	3784	-900	6631	23781	-12615	-12324	4104	664	4273	2828	1347	118	123	1
-3476	-10028	13648	-15534	29285	7135	-23948	3376	-2716	-6103	25177	3423	-20784	1048	11816	-1167	-939	658	16872	-6212	13284	-11537	32767	-23974	-32768	17984	32767	4683	11802	-2479	-27028	-1676	1088	-2808	9261	1407	128	122	1
-4080	-7004	15564	-19871	32767	9041	-32488	3544	4688	-12228	26193	2026	-26864	6448	13712	-561	-1625	894	-32768	4756	32767	312	32767	-4287	-18340	-23480	-13740	-14644	21804	-18580	-32768	5096	32767	-4250	-16622	3791	129	153	1
-9128	-10736	18032	-26074	32767	13082	-32768	2324	6952	-16640	26781	2057	-30032	7184	16736	-830	-2156	1240	-23100	1272	28380	-162	28493	-10932	-30144	1176	-8636	5614	25911	-10173	392	688	-10928	-3356	12955	-8778	129	133	1
-21740	-20620	22216	-32017	32767	18085	-32768	-3080	812	-23803	25724	3378	-27016	-2000	4032	-2128	-1660	1228	-32768	10408	31176	-14157	21459	-9805	-15932	17960	-9780	-2937	21660	-6576	-8552	-48	-13480	15788	12676	3371	128	134	1
-32768	-22140	32136	-30007	32767	24814	-26524	-5784	-12956	-23079	26816	3496	-21216	-12664	-7616	-2714	-1983	704	-18000	-8876	24176	-9856	4795	-6345	-10820	-6532	-17140	-12369	21188	-7804	-6940	19184	-17824	14192	1983	1550	154	144	1
-27228	-26904	24104	-32768	32767	21693	-25676	1012	-11588	-14483	18843	4669	-29352	-10648	-9056	-1436	-2627	153	-9912	10396	13616	-5493	88	-2934	-18768	-3668	-10728	1968	15017	-6859	-12952	1520	-10860	-2699	9324	5965	131	106	1
-10856	-22316	32767	-32768	32767	18416	-18704	-1548	-7404	-3197	12506	8608	-32768	-3392	-6336	-26	-2527	-334	-8092	6816	13264	-2191	-573	-1558	-20396	-6936	-6140	11935	11092	-3330	-21240	5720	-12168	9492	8974	6582	149	106	1
-32768	-32768	32767	-23386	18118	19086	-11376	-5176	-17380	-6311	8032	6730	-28552	-3256	-3424	429	-2657	-515	-7972	3864	13580	-1701	-318	-1219	-18588	3460	-5120	14028	8137	-952	-23984	6544	-7024	9942	9928	1293	156	105	1
-6076	-28848	32767	17592	-23195	5097	-5652	-3172	-13336	204	130	788	-25824	-2944	-6984	335	-2607	-804	-6816	3596	13772	-835	540	-872	-17768	7968	-3492	1126	8076	-2507	-12796	3944	-2092	3673	12882	88	151	120	1
-32	-9952	17976	28718	-32768	1831	-8528	-2868	-3172	1188	-9088	-1878	-26040	-2640	-11696	545	-2210	-832	-6752	3940	13652	-446	1023	-741	-16484	3040	-3756	-8482	7315	-3510	-16528	3428	-3580	-2272	14816	604	153	106	1
804	-1940	7884	23485	-32768	2424	-4896	908	-1988	3447	-15208	-3239	-19392	-1352	-9256	730	-2085	-837	-7684	4424	13676	-285	1119	-611	-16184	-440	-5584	-7189	5504	-3015	-16128	2588	-3284	-1467	15352	825	148	104	1
-632	-2120	5988	12908	-32768	1766	-2348	796	-3316	6268	-20409	-3989	-14672	1784	-9648	655	-2129	-786	-7560	4248	13524	24	893	-627	-17592	-1704	-4428	1173	4101	-1361	-14496	816	-2852	2741	15897	2244	124	130	1
-2492	-7032	8172	7698	-32768	280	-2452	2376	-4796	6333	-25350	-5836	-11864	1632	-9352	577	-2060	-543	-7788	4004	13612	82	791	-742	-16336	348	-2984	6669	3146	347	-15448	-2340	-1404	7057	14783	3300	109	122	1
-5204	-11300	10640	10143	-32768	-2748	-3956	2896	-5716	3038	-30026	-7005	-11816	-1656	-10624	943	-1810	-396	-7548	3620	13680	485	765	-468	-15652	2100	-2080	6999	3479	239	-15512	-124	-1684	12857	14479	1768	96	115	1
-7744	-11748	11888	12373	-32768	-7962	-6300	3512	-5788	1125	-32768	-7859	-8504	592	-10096	1024	-1559	-376	-6828	4756	13268	551	833	-371	-15968	4864	-936	4471	4273	-145	-14468	2356	-792	16124	15608	2016	105	131	1
-9444	-11100	12300	11070	-32768	-13219	-7400	2776	-5256	-712	-32768	-8887	-5992	-704	-10728	1204	-1375	-274	-7836	4696	12968	612	936	-653	-16676	3464	-3792	387	4994	-1289	-14828	3432	2796	10616	18029	3964	127	127	1
-11572	-12080	13900	9027	-32768	-17346	-9920	648	-5884	547	-32768	-10522	-3512	352	-11136	1601	-1146	-262	-7180	4380	13484	707	993	-880	-17596	1676	-2900	2221	5066	-1440	-15144	3956	3196	9079	22522	4112	121	126	1
-14092	-13516	16548	7825	-32768	-19700	-13044	-1344	-6932	5438	-32768	-12188	-3776	224	-12320	1856	-1032	-109	-7472	4164	13396	369	1037	-1443	-16828	1588	-2100	5259	5736	-1237	-15544	5232	-1288	6896	22855	3361	116	140	1
-17984	-15080	20304	5923	-32768	-21650	-16596	-1496	-10120	12195	-32768	-11859	-4520	-288	-12936	2198	-720	-9	-7084	4176	13368	223	1353	-1663	-15228	3576	-1460	4531	7183	-1948	-17308	7328	-4608	3786	14310	1614	139	136	1
-22320	-19788	26168	5501	-32768	-23594	-21872	1384	-12396	16663	-32768	-9939	-5952	1216	-10496	2314	-464	21	-7432	4684	13328	-712	1738	-2169	-16032	5284	-2544	926	8733	-2815	-15668	7916	88	375	12262	150	147	124	1
-29572	-30064	32767	11056	-32768	-26311	-32132	472	-14492	14843	-32768	-10215	-8944	3064	-3912	2041	-539	-35	-7612	4308	13624	-1116	2440	-2490	-17508	3448	-3700	-1269	9559	-4090	-15292	5984	1724	-933	16192	465	140	130	1
-32768	-32768	28960	18612	-32768	-31311	-32768	516	-13308	19456	-32768	-12753	-17576	-5680	9760	1950	-2086	-166	-6856	4208	14260	-678	3651	-2836	-16336	2200	-2416	174	10658	-4585	-17160	4352	1364	146	14560	127	159	119	1
-32768	-11772	18324	-54	-32768	-32768	-28016	9256	-21016	5170	-32768	-7064	-26184	-8272	19040	800	-2344	-908	-7300	3884	13776	-667	6498	-2770	-17824	1584	-1392	1643	12418	-5403	-19572	2444	3220	-27	12142	327	154	124	1
-32768	-15328	-5400	5162	-32768	-24606	-21628	-8352	-21788	-9416	-31431	-10199	-12080	15440	30784	575	-2101	-1140	-6492	4140	14524	20	10078	-2503	-19904	3344	-2008	1404	14318	-7033	-19856	1548	2860	2055	10967	111	125	126	1
-32768	9592	-27200	-10214	-26155	-4952	-1976	1140	-20720	-10016	-13082	-9628	-17072	8024	32767	45	390	-410	-7792	3800	14948	359	14592	-3255	-20136	2920	-3880	1880	16074	-7974	-19192	4488	696	5262	8132	166	121	129	1
-32768	60	-32768	-20684	-12823	9143	2556	784	-17948	-16948	9197	-4232	-17912	6464	32767	-91	551	-287	-8136	4688	14296	-91	20451	-4830	-21872	3456	-4852	3935	17159	-8785	-20196	5964	-408	7872	5613	557	111	127	1
-32768	-17048	-21684	2349	16394	16594	-8696	-4180	-18844	-6618	26223	-868	-13400	576	16760	-915	-488	-308	-7952	6380	14080	-455	27456	-8179	-22324	3440	-4232	6990	18411	-8955	-20216	3764	752	9169	2364	-1149	112	123	1
2304	-27300	32767	18708	23072	3377	-32768	-1012	32767	949	17355	3093	-12600	520	12344	-881	-482	-242	-8532	4336	14280	-1737	32767	-12161	-23976	1940	-2832	10171	19327	-8403	-22052	2932	5484	8695	-3580	-1405	118	119	1
1524	22856	-2272	1376	32767	11168	-32348	2396	-804	32767	21329	-337	-32768	-13392	15568	430	-89	-1477	-10024	6028	13416	-2956	32767	-15884	-30488	4680	1544	11921	20003	-8324	-26788	2848	14540	5301	-13981	-2382	123	116	1
-32768	13268	32767	-10483	32767	2575	-10044	29012	-5948	29707	27916	9701	-14408	9928	20824	7034	1534	-1176	-12008	5692	14200	-3063	32767	-20899	-32768	6956	8428	14078	20952	-8302	-22920	-4436	13200	933	-15971	-6417	129	124	1
-21092	-24900	26612	-8627	25961	11113	-28520	5344	-13820	22318	22492	7722	-8272	18992	-8648	2488	3728	581	-24240	7188	19224	-1548	32767	-25887	-32768	5600	6308	19640	20188	-9226	-25704	-5096	5916	10845	-15816	-8341	137	133	1
-7168	-14848	20112	12295	14743	4637	-19268	-17892	-15328	5258	23924	-5868	-26160	-12288	-20632	-2696	936	-173	-32768	5472	26300	-2054	32767	-28160	-32024	7644	-7432	21504	19595	-9883	-24640	7568	-7336	22325	-16467	-6947	173	150	1
-12968	-13736	15264	9823	922	4674	-10076	4372	-17884	12180	19081	424	-2832	-12360	-13712	-2939	288	-115	-32768	7472	22420	-2150	32767	-28247	-28232	9344	-616	19342	16333	-12415	-26568	10372	-10372	19313	-18754	-3959	93	135	1
-8308	1788	18772	5758	-822	3033	-15128	7116	-16620	-10743	10676	991	-8120	376	-8056	-996	1090	-1119	-20344	16140	32767	-4670	32767	-32191	-18836	4500	-12200	7852	13811	-11019	-29532	8980	-8572	4649	-20484	1420	88	119	1
-6640	-4040	17268	2310	-443	544	-17688	10212	-9008	-28027	12658	-7128	-24328	-1160	-9944	-2338	1217	-887	-32768	26096	32767	7660	-6374	-18390	-12704	1500	-19220	-888	15197	-7667	-28972	-452	-12768	2556	-19460	7065	111	128	1
-5864	-4816	14700	373	-480	-252	-22184	-7352	-6164	-23956	7106	-7512	-25416	-3128	-9768	-2569	1172	-691	-3764	20748	28296	4219	-32768	-8340	-16512	5552	6500	2699	-1271	-1869	-29216	3724	-10192	-6883	-20775	6474	113	129	1
-5504	-5168	14920	-817	332	-332	-17436	-13332	-5720	12836	7345	1599	-16768	-6976	-1312	-632	2108	423	4616	13492	11200	213	-32768	-3309	-8584	-268	2548	2884	-9384	3707	-23584	880	-11984	-4400	-19493	6465	65	77	1
-5896	-5256	14892	-1704	593	-609	-15404	-888	-6860	23804	5391	4224	-11144	-7216	-3112	832	2297	363	648	10392	10248	3280	-32336	3110	-5600	-548	420	2532	-14927	7369	-18432	64	-12992	-6415	-19023	7187	96	125	1
-5624	-6504	14376	-1539	506	-370	-14516	5784	-5496	6685	4499	1039	-14904	-4520	-3136	917	2217	-98	-4176	10560	12052	5516	-32768	9352	-2524	1868	-2980	-2689	-18877	10846	-16496	-1984	-12132	-8593	-15912	3589	114	126	1
-5480	-6212	14420	-1007	260	60	-16712	3384	-3168	-13742	4059	-3005	-17048	2264	-240	-200	1939	-301	-6984	8488	11988	4551	-32768	13348	-6072	1584	-2820	-13994	-23766	14630	-13724	1368	-14220	-7732	-16842	4356	129	120	1
-5292	-5628	14536	-793	318	229	-18104	-3436	-2608	-16737	3282	-3331	-16488	120	-464	-1516	1884	-65	-8600	5516	11304	6403	-32768	16416	-9752	-136	-4140	-9985	-28072	17333	-12236	3040	-15884	-8474	-19748	5213	125	156	1
-5444	-5356	14492	-952	710	303	-15080	-5392	-2692	-4916	3018	-1399	-16064	-2256	1888	-1029	1908	31	-12068	5192	13800	9018	-32768	18446	-9268	-28	-4152	-8493	-32712	19030	-6160	2240	-13556	-14186	-14851	3848	145	138	1
-5792	-5740	14624	-1265	759	317	-16760	-1008	-3760	-1056	4374	201	-13720	-3056	6624	-303	2530	-137	-15528	5336	16316	10701	-32768	19500	-10952	1268	-4316	-10423	-32768	22033	-4824	336	-14032	-20835	-14022	1312	136	153	1
-5988	-5764	14396	-1324	731	419	-16580	936	-2708	-5109	4569	-541	-12872	-3008	7240	-931	3606	-346	-18496	4868	15972	12184	-32768	20896	-14996	1516	-4416	-14530	-32768	24594	-2616	-1532	-14128	-23037	-10639	-503	109	135	1
-6024	-6164	14924	-1470	674	557	-14120	-548	-564	-10010	5724	-1478	-16936	-2960	-3024	-972	2628	-496	-19956	4428	18224	14981	-32768	22755	-20816	-236	-7172	-16804	-32768	25381	-2440	-1232	-14700	-22206	-8269	-1114	125	123	1
-5452	-5860	15096	-1446	727	681	-14260	-2724	-424	-6770	7645	-92	-17120	-5112	2288	-436	1097	-280	-24628	2656	27476	17018	-32768	22406	-27296	-1768	-9528	-14024	-32768	26203	-3232	-1400	-11932	-17917	-7222	-440	131	117	1
-5872	-5752	15104	-1740	1059	664	-16560	-2124	-2372	-1375	9447	1179	-16192	-6896	4680	-370	1912	-98	-32768	7956	32767	16039	-32768	21596	-32768	-1428	-14828	-9957	-32768	28582	-6288	-1556	-7800	-13592	-5373	322	143	122	1
-5888	-6260	14416	-2072	1763	676	-16692	-1200	-1336	-274	10930	1916	-15824	-4352	2576	-181	2023	-5	-32768	-980	31256	17178	-32768	26955	-32768	-4092	-19968	-9149	-32768	28060	-10064	4176	-2384	-8260	-3250	2417	141	128	1
-4900	-4436	14932	-3137	3330	966	-16228	-648	308	215	12978	2151	-18680	-1360	4688	-189	1518	-25	-32768	-3180	20716	14394	-32768	27131	-31212	-2024	-21204	-7113	-32768	23722	-20656	3596	10576	-1219	-15467	7067	138	125	1
-4800	-6044	14760	-4440	5551	1055	-17968	-528	-476	514	15632	2854	-19600	1376	6920	-437	1367	-109	-32768	-11916	-8892	4140	-32768	19796	-26392	-1416	-23408	-16135	-29416	18500	-26592	-10564	24192	-5607	-24119	9706	124	125	1
-4936	-5952	14964	-6913	9459	1181	-19288	-456	-1280	691	18226	3332	-20104	632	5504	-769	1094	-118	-32768	-30144	-32768	21558	-16787	10962	-7832	-14900	-29536	-10526	-10228	11846	-8528	-13924	32767	4664	943	1082	121	134	1
-5940	-5824	14392	-10379	13939	1174	-18092	876	-2624	-501	21062	4044	-16992	-2264	3912	-1174	688	-68	-32768	-19188	-29524	7850	-121	8682	-2712	-11200	-28708	1688	7723	-98	-21428	4816	23376	2431	3415	3114	103	127	1
-4608	-7444	14404	-12939	19995	2446	-20308	-732	-4636	-1840	22617	5017	-17928	-3944	3296	-1360	329	147	7640	-23764	-19328	-9402	15752	3302	-13336	-6972	-22832	1504	22625	-9040	-16136	6504	10564	5139	1729	1304	124	106	1
-3992	-9192	13160	-14496	27530	5523	-23296	1504	-4344	-5498	24024	4358	-20832	-2768	7576	-1339	-425	509	16888	6100	32767	-11512	32767	-15984	-32768	28680	32767	17157	7471	-8348	-19812	-1172	-8276	-3407	12739	-210	123	139	1
-5040	-8396	14544	-18511	32767	7675	-29404	3088	1192	-10928	24627	3394	-25232	-400	13248	-1008	-1286	744	-32768	11824	30052	-3862	32767	-10463	-20028	-27008	-14744	-18239	22000	-15585	-32768	4876	12556	1401	-7155	5701	135	150	1
-6520	-9120	16296	-23811	32767	12171	-32768	960	8280	-14456	26095	3449	-26144	4656	17704	-482	-2116	1064	-19192	-11840	28516	-77	29368	-10311	-29240	1136	-6644	2538	22634	-8955	-3428	-6964	-1796	-28463	18470	-8860	126	138	1
-17908	-18800	21816	-30053	32767	16905	-32768	-4720	5452	-19355	25596	4901	-27664	912	13640	-1265	-2161	1127	-13604	18316	8420	-1183	22351	-6257	-18148	10324	-11172	4308	23686	-6796	852	-2804	-14628	11927	12669	-1386	115	147	1
-32768	-25824	32767	-30412	32767	24451	-28304	-5976	-11552	-18290	28080	6183	-22112	-10240	-6072	-2203	-1661	682	-27168	8832	20688	-13566	11659	-7992	-3972	8268	-17188	-12313	20531	-5343	-13916	14980	-13252	11479	6046	3032	136	176	1
-17672	-17328	13804	-29070	32767	24768	-28004	-2448	-10976	-12554	24304	4755	-24984	-10888	-10784	-1087	-2635	385	-10256	7400	16000	-5935	-96	-4207	-21340	-6848	-11860	-2742	17272	-9725	-12596	8056	-13248	-1051	7482	4577	124	90	1
-11140	-24384	27832	-32768	32767	21706	-20840	1892	-6324	-1669	15779	8292	-32768	-3184	-6208	35	-2690	-384	-9008	736	15952	-2862	-352	-2275	-21860	-7284	-7284	9039	10553	-3709	-17904	-92	-11212	7967	11623	9017	142	102	1
-27704	-28816	31340	-29294	25338	19745	-13476	-5608	-9744	-6530	11681	8209	-31640	-80	-6288	5	-2559	-589	-8560	5332	13532	-1495	-21	-1155	-18020	-528	-4904	17670	9425	-409	-23632	4912	-8380	14764	9527	2588	157	94	1
-7776	-28564	32767	6721	-14439	8906	-7396	888	-20160	-861	4344	1187	-26608	-856	-3616	377	-2820	-666	-7312	4092	13684	-847	465	-841	-16216	7232	-2748	9077	8401	-1561	-15332	3852	-2768	8405	12052	-464	159	121	1
-768	-12248	22228	22885	-30472	2755	-9008	-2196	-3748	-2490	-2940	-1474	-21960	112	-13008	842	-2507	-770	-7108	4268	13524	-119	1158	-669	-16944	6084	-2836	-3939	8651	-3177	-13652	4644	-3080	2609	14867	-334	162	113	1
2828	-3468	10268	21111	-32768	2393	-6004	1224	-2684	-815	-11618	-4033	-20912	-1592	-9296	453	-2260	-746	-7876	4780	13592	-38	1216	-771	-16596	2516	-5284	-7878	7152	-3709	-16348	4808	-4400	311	15267	283	138	96	1
2188	-732	6616	11143	-32768	1535	-2696	800	-2368	2845	-16915	-4687	-16280	2616	-9240	581	-2311	-780	-8196	4468	13512	-230	926	-974	-17172	-1296	-5592	-1381	5448	-2840	-15228	2584	-4172	2909	16386	2016	122	127	1
-560	-4728	8540	4502	-32768	-570	-2112	1984	-4208	5683	-22160	-6534	-13712	1992	-8936	402	-2228	-510	-7752	4504	13400	-250	733	-1066	-16856	4	-2840	6288	3881	-832	-14776	260	-2428	6116	15795	3550	126	115	1
-3864	-9316	11748	6962	-32768	-3307	-3560	3784	-5592	3436	-26891	-8061	-11872	384	-10376	487	-2020	-431	-7660	4108	13332	-270	646	-1114	-15724	2504	-1920	7918	4178	-653	-15700	588	-1180	12019	15266	2383	97	124	1
-7268	-10156	13988	11038	-32768	-7863	-4160	2892	-6852	2177	-31832	-8781	-9080	-864	-10336	606	-1942	-367	-7404	4108	13316	-210	781	-1197	-17572	2692	-3836	6939	2681	-454	-12084	5468	176	14473	16174	2530	88	134	1
-9604	-8928	13800	11185	-32768	-13394	-6448	3660	-6008	158	-32768	-8733	-7824	-2016	-11136	884	-1685	-341	-7484	4280	13504	-32	1088	-1510	-16936	4056	-2968	1627	5277	-1830	-16008	2756	2376	10232	16683	406	120	126	1
-9868	-8152	12732	9448	-32768	-16916	-8864	1788	-4836	-530	-32768	-10142	-5912	-1072	-11776	1403	-1331	-331	-7832	4348	13188	-220	1110	-1954	-17044	2404	-3016	2046	5950	-2650	-14592	5140	4992	6049	22505	4281	124	125	1
-13084	-10560	16492	9785	-32768	-17384	-11188	-656	-6556	4881	-32768	-11694	-4136	688	-12624	1802	-1037	-262	-7460	4360	13372	-664	1246	-2376	-16088	2364	-1712	3725	6818	-2748	-16028	5744	-1872	7105	22468	3046	132	138	1
-16960	-12280	19796	8820	-32768	-18236	-14188	-460	-8780	12862	-32768	-11890	-3752	496	-14760	2054	-803	-97	-7708	4588	13292	-692	1857	-2618	-15320	3504	-2064	2724	8199	-3283	-18344	6256	-4296	2773	11550	1498	145	140	1
-19376	-15808	22864	5609	-32768	-20801	-18200	1708	-11792	17959	-32768	-9798	-4488	3008	-14264	2427	-358	63	-7652	3608	13592	-343	2811	-2503	-17384	2552	-3108	-67	9481	-4126	-15904	5704	184	296	11279	-161	145	129	1
-25224	-26316	31640	7584	-32768	-23950	-27936	3992	-13972	15226	-32768	-9248	-5864	5088	-9736	2333	-362	151	-7408	4084	13956	-384	4837	-2727	-18676	1796	-2592	591	9725	-4616	-15784	3780	1336	1552	15726	-709	137	134	1
-32768	-32768	32767	16236	-32768	-30775	-32768	984	-15960	15757	-32768	-13467	-10688	-1968	2096	1980	-1153	135	-7108	4024	13804	38	6742	-2606	-17448	916	-1620	3205	10724	-5077	-17920	2612	860	1974	13848	-608	136	127	1
-32768	-12868	25132	5018	-32768	-32768	-30160	7364	-18612	8445	-32768	-6576	-22968	-9640	16224	1464	-2423	-502	-7964	3400	13392	449	9499	-2794	-17596	1448	-792	3096	12828	-6009	-19300	764	3424	1384	11516	238	140	118	1
-32768	-17332	8268	9121	-32768	-32768	-30800	4460	-15920	-12165	-32768	-7630	-26952	4176	16936	440	-1947	-1137	-8904	3516	14416	539	12786	-2515	-18444	3900	-2640	1921	14899	-7786	-17152	2064	5376	2587	11183	528	127	126	1
-32768	6856	-26508	11448	-27461	-7725	-5856	-7080	-25616	527	-21273	-7804	-6328	17432	32767	646	-693	-809	-8408	5308	13692	-10	17576	-4320	-20744	3412	-2160	2429	16996	-8630	-20780	4736	3520	6294	9093	-400	141	125	1
-32768	9600	-32768	-29213	-24710	10710	7588	8852	-17264	-10343	3013	-4144	-20304	4752	32767	-269	776	526	-8620	2908	14164	-501	24367	-5875	-21592	2600	-3160	4344	18975	-10031	-19628	6476	2892	6884	4403	-251	123	123	1
-32768	-20332	-32768	-5168	8486	19471	-2872	-2220	-19956	-20397	24773	-1741	-13424	1024	18640	-1668	-335	-21	-9368	5628	12844	-1485	31671	-9717	-23380	4636	-2736	5515	20641	-10423	-21408	4628	6128	6615	-1754	-2173	122	113	1
26212	2360	16736	2360	28655	13349	-32768	-14708	32767	-18915	11784	1420	-17088	-600	-5432	-1768	1036	198	-9356	6216	13012	-2197	32767	-14070	-26504	3908	-528	8459	21769	-9857	-22668	4924	15800	3770	-13038	-4371	111	114	1
-30352	-8380	4828	-8279	32767	9590	-27940	4792	-19236	32767	25780	2106	-32768	-12576	32767	382	-1204	-1481	-11060	7888	13968	-4946	32767	-20194	-32768	9132	6268	11786	22193	-9440	-22820	-2256	12480	-3316	-15234	-5087	129	128	1
-32768	16268	32767	-2098	32767	13544	-20696	11364	-16264	23217	32298	10662	2864	408	-10376	5891	5096	-476	-20520	8980	17028	-5645	32767	-27149	-32768	7036	5108	15292	22002	-10037	-25900	-3100	6796	7319	-14142	-6801	107	123	1
-28464	-32768	21256	4203	13100	4192	-24144	-5464	-20792	13792	29498	5414	-20344	10968	-28656	-773	1128	-381	-32768	11456	32216	-6488	32767	-30135	-32768	5920	-5840	18057	20050	-10571	-25500	4440	-6576	19301	-14940	-5756	174	158	1
-15100	452	25684	7331	4483	4484	-10828	-2820	-27844	27087	19119	-1528	-11672	-13776	-20408	-2412	216	933	-32768	10580	31360	-1726	32767	-25964	-29320	6888	-2740	16431	16035	-14146	-25496	6260	-8148	20106	-15558	-5175	92	131	1
-2168	-8892	8796	4257	1415	1670	-8792	3588	-13064	-2956	14599	-2287	-7128	-7088	-13576	-910	1406	-507	-25480	10884	32767	-3435	32767	-29109	-19328	3932	-8436	10621	13216	-11696	-30168	8916	-9912	6675	-19591	1128	67	118	1
-5316	-7704	14224	2008	-784	534	-18688	11624	-9876	-26805	10480	-3788	-22376	-6120	-12192	-1341	1452	-1225	-32768	11600	32767	1577	7950	-18255	-11620	1280	-20904	-1090	13527	-7712	-32632	4108	-11688	-3000	-17636	5420	101	144	1
-7012	-4484	15560	1011	-259	389	-24700	-1484	-8212	-32768	8130	-7650	-25584	-2696	-5360	-1878	1287	-503	-4996	20336	32767	1549	-32768	-2738	-16996	5680	3108	-1248	2215	-4251	-32584	3440	-10420	-8260	-20553	7771	133	134	1
-4964	-5332	15216	274	50	-80	-16160	-16628	-4132	-4951	6045	-714	-16640	-4568	608	-1479	1819	483	4148	10904	13464	-183	-32768	1244	-8816	-988	2536	-658	-9614	2720	-25712	-828	-11932	-5960	-18796	7248	94	104	1
-4972	-5172	14784	-863	712	-318	-15008	-7392	-5344	22352	4880	5257	-12576	-7008	-1936	-91	2344	577	1076	7520	10864	4503	-32768	5668	-5984	-1476	848	905	-16108	7012	-19076	-2392	-12352	-6421	-19200	7277	100	108	1
-4896	-6172	14412	-1040	915	13	-16024	2896	-3148	16717	4228	3723	-13264	-6104	-1520	593	2185	191	-3296	7644	11568	7186	-32768	9335	-3812	620	-1208	-2144	-20358	10951	-14272	-300	-12124	-8675	-16474	5939	73	116	1
-5272	-6284	14396	-402	599	900	-13992	7260	-3624	-6228	4670	396	-16872	1016	280	-47	1880	-303	-6380	5808	12152	7522	-32768	11959	-6084	-476	-1384	-7531	-25243	15023	-9192	-316	-12152	-8126	-17601	4750	136	126	1
-7064	-6240	13248	628	239	1306	-17136	696	-3316	-17091	4186	-2478	-16656	3008	1192	-1301	1742	-243	-9436	4064	14172	9454	-32768	15040	-8372	-1916	-2016	-7408	-26989	18684	-13036	1312	-14412	-6928	-15860	2781	133	136	1
-5572	-4552	15096	72	377	758	-14904	-3980	-1532	-9410	3819	-1171	-15288	600	3512	-1345	1656	154	-10144	2992	14216	10714	-32768	16901	-11908	-1868	-1532	-4021	-32768	20482	-8664	2444	-13720	-12083	-15580	1431	127	150	1
-4904	-5556	14564	-142	600	904	-15668	-2636	-1108	-2819	5437	794	-15032	-3528	7456	-778	2016	95	-12572	1796	17496	11859	-32768	16924	-13272	-724	-3024	-5855	-32768	23388	-4404	108	-14264	-16901	-14042	-631	133	143	1
-5372	-5512	14532	186	709	1423	-16304	-2540	-1368	-2233	5571	803	-14632	-4976	5536	-1017	2894	-45	-18224	2180	22616	14099	-32768	17582	-15356	-1036	-4404	-9699	-32768	25238	-2128	-1172	-14776	-21189	-11326	-1785	125	139	1
-5636	-5392	14396	470	792	1749	-15852	568	-3080	-3850	6693	601	-18128	-3016	-2288	-1069	2951	-217	-20980	2724	23360	15674	-32768	18835	-21280	-1592	-5172	-11923	-32768	26266	-1476	-184	-14820	-22245	-8769	-2359	122	124	1
-4876	-3184	15756	302	362	1955	-14716	456	-2352	-4837	7679	739	-16144	-1320	-2400	-137	1606	-273	-21864	1448	23728	17164	-32768	19791	-27976	-3172	-5416	-11286	-32768	26446	-2144	-1568	-12008	-17708	-7225	-1599	138	134	1
-5240	-5008	14244	-48	1156	1664	-14896	184	-1964	-4618	7763	810	-14464	-4440	3568	-218	1509	39	-32768	5456	32767	15702	-32768	19489	-32768	-3392	-10924	-10078	-32768	28374	-5212	-2932	-8116	-15210	-6484	-613	141	127	1
-6036	-5244	15016	-1175	2243	1820	-17264	-752	-3236	-131	9515	1880	-16560	-3760	3040	-319	2150	178	-32768	2496	30552	10025	-32768	23684	-32768	-4572	-17580	-10977	-32768	26229	-11232	184	-948	-10280	-7529	-486	128	132	1
-4256	-3604	15364	-2094	3990	1749	-17872	-100	280	-1484	11086	2133	-19232	-2136	4632	-116	1838	50	-32768	-300	22320	5529	-32768	27229	-29456	-2372	-20960	-15256	-32768	20370	-20432	4260	9440	-5464	-18391	3348	137	133	1
-5236	-4844	15128	-3116	5780	1797	-15968	-1132	2128	-936	14217	3053	-18904	-88	10104	-202	1342	-62	-32768	-9568	-9176	-23	-32768	26499	-25660	-6748	-30284	-24342	-27901	14573	-25092	-10144	19968	-8518	-24560	1246	140	108	1
-4840	-5612	15300	-4909	8918	2412	-17892	-1492	28	1195	17605	3945	-19800	1032	9760	-587	1287	-45	-32768	-30492	-30352	12806	-20233	17236	-9612	-12388	-30644	-14457	-13191	9206	-9464	-8324	32767	269	3719	-3630	125	134	1
-5684	-5400	15012	-6725	13205	3309	-18300	-4	-1324	-171	21059	4227	-17360	-1560	6704	-829	825	-29	-32768	-26644	-32768	4545	-4334	5447	-928	-10976	-28672	3015	4513	-695	-23888	-1968	23592	-1477	6526	2090	108	123	1
-4628	-5612	14996	-7805	19829	4850	-19676	-1792	-2372	-1488	23713	5212	-17760	-5664	6152	-1110	324	69	-32768	-21576	-16804	-9167	8932	-3505	-10656	-6836	-24968	4842	21919	-9264	-18324	1360	13508	4510	-3427	807	121	128	1
-5704	-7252	14744	-8811	27415	8246	-22348	-1184	-2716	-3074	26017	5480	-19880	-3712	9576	-721	-508	357	21708	-16952	32767	12043	16198	-5388	-24204	7436	14096	12430	21944	-15655	-8100	-2396	-8152	6188	8719	-1692	122	126	1
-7216	-8864	15052	-10847	32767	12831	-25448	1756	-1712	-4795	28471	3800	-20048	1752	18208	-702	-1559	791	27272	24600	-7256	-951	32767	-32163	-32768	5684	23096	13818	13312	-1367	-31540	-6536	10856	6469	7511	-727	131	133	1
-6292	-6132	14972	-13793	32767	16901	-32768	1936	2748	-7624	28813	2494	-23664	9464	11176	-426	-1346	998	-32768	25588	32767	3632	32767	-3015	-27892	-1040	-11712	-3116	19824	-12571	-20120	-6536	-2908	3646	2685	-3323	109	160	1
-10596	-7844	16980	-19842	32767	22478	-32768	2496	6376	-14670	28239	1974	-32240	5368	15168	-1003	-1910	1015	-24908	-1648	26828	-1270	32584	-11748	-25612	3420	-11476	-555	25743	-8802	-14068	6212	832	2188	4472	4559	127	134	1
-32768	-22548	32767	-31109	32767	25519	-30476	-2448	-6276	-26136	27496	2571	-21688	-2992	-2632	-2482	-1721	1025	-32768	18164	31428	-9003	14582	-9465	-12480	5408	-17268	-12073	24158	-9137	-10396	1184	-7292	11858	6908	8146	136	159	1
-32768	-27244	30828	-32768	32767	28316	-26020	-2068	-13888	-32639	26704	615	-26504	-9968	-10352	-2987	-2238	404	-8784	-1368	19516	-8455	3253	-5806	-21548	-8416	-7172	-5432	20861	-7604	-12620	6948	-15844	7840	6664	-912	124	123	1
-20840	-21700	32767	-27830	32767	31023	-24156	-1704	-9432	-24905	18308	3878	-32768	-3928	-9400	-936	-2403	-184	-7800	1448	16568	-5053	841	-3106	-15992	-900	-6596	2584	15698	-4081	-14884	6692	-12436	9948	8203	4717	139	111	1
7040	-5508	18676	-23888	31814	32767	-15932	-6652	-6080	-15518	10727	4448	-32368	-2752	-9048	-275	-2562	-588	-8844	8016	13528	-3558	-104	-2644	-16028	-892	-10792	13466	12653	-2390	-18176	12748	-14872	7661	9822	3440	137	104	1
-13296	-32768	32767	-8977	-3704	17031	-5540	-2240	-32532	-4501	5815	638	-24176	-1048	-5200	276	-2782	-801	-8736	3264	13972	-2431	-184	-1752	-15968	132	-9500	14191	11706	-2230	-17488	9064	-6784	-2045	11283	465	148	104	1
-4384	-27208	26980	12937	-28376	-3306	-4632	1724	-6812	-160	-140	-3549	-23744	-3888	-8664	-232	-2339	-729	-7436	3372	14036	-1801	528	-1319	-18924	3960	-4504	-1522	7084	-3775	-19280	-1560	-5076	-6830	15377	688	159	123	1
2136	-11504	9076	19703	-32768	-11184	-6692	-988	-3684	-334	-9867	-5220	-23128	-2816	-10872	152	-2120	-1282	-7292	3600	13840	-1100	1193	-921	-18248	-1440	-3476	-4764	6661	-3221	-18964	-1792	-3884	-6436	14648	664	165	112	1
3888	-2904	2176	13488	-32041	-14839	-3776	-1416	-2764	7460	-15663	-6981	-18656	264	-8544	598	-1915	-1324	-7852	4396	13776	-273	1628	-700	-17360	-212	-4616	-1743	5907	-1937	-16132	1640	-3736	1377	15672	1275	139	100	1
-40	-3532	5696	6623	-30014	-16427	-2460	1140	-3584	16792	-21117	-8029	-13184	2848	-9688	640	-2036	-1194	-8324	4072	13540	-145	1372	-850	-15808	284	-5264	1378	4691	-1411	-15172	1548	-3880	4661	16279	1458	110	134	1
-3908	-6244	10488	7421	-30369	-17380	-2848	3224	-6656	18125	-25647	-9581	-11352	2856	-9584	647	-1891	-1022	-8308	3716	13424	-196	936	-884	-15392	412	-5104	3592	3162	-1011	-14688	764	-3208	6383	16326	2301	118	128	1
-7928	-6312	14096	9835	-32768	-19500	-4728	5648	-5868	15090	-30198	-9819	-9136	2144	-9808	724	-1772	-880	-7768	3372	13304	3	621	-762	-15892	20	-3604	4629	2627	-449	-14284	1088	-2612	7146	16486	2968	111	122	1
-12176	-5688	16828	9104	-32768	-22282	-6004	5548	-7116	10317	-32768	-10031	-7296	1736	-9936	889	-1535	-690	-7400	3524	13488	171	725	-622	-16068	1520	-2496	3284	3380	-396	-15620	632	-2152	10462	16253	3025	116	121	1
-13020	-4572	16280	8274	-32768	-23651	-7300	4136	-5280	6320	-32768	-10603	-5040	2048	-10088	1159	-1344	-479	-7540	3860	13524	178	720	-932	-16508	2336	-3388	1988	3757	-751	-15048	2336	64	12287	18029	2258	112	119	1
-13336	-3756	14860	6420	-32768	-22385	-10764	1812	-4696	6298	-32768	-11647	-2720	1192	-10632	1468	-1115	-306	-7932	3700	13372	151	752	-1072	-17168	700	-3944	3095	3888	-875	-15032	1764	1228	12718	21233	3477	117	118	1
-14920	-4692	15788	3260	-32768	-19840	-11380	1500	-4896	6700	-32768	-11936	-2512	552	-12792	1823	-920	-252	-7708	4152	13124	17	492	-1368	-17056	1836	-2244	5794	4529	-1002	-14412	2724	2684	11252	22922	3490	128	133	1
-19772	-9300	21960	2240	-32768	-18552	-15664	1924	-9108	13243	-32768	-10158	-4088	1240	-12712	2254	-625	-156	-7628	4112	13180	-226	655	-1885	-15128	3308	-220	5733	6162	-1922	-15152	2720	1280	5469	18881	2663	130	141	1
-25248	-19316	32767	5140	-32768	-19637	-23232	4188	-14148	13301	-32768	-9043	-6312	1416	-8272	2316	-516	-81	-7896	3664	13400	-192	1105	-2052	-14156	3316	-1036	2181	8362	-3309	-18716	5044	168	1854	13471	1959	145	139	1
-32768	-30840	32767	13918	-32768	-25715	-32768	3112	-15544	14060	-32768	-11480	-11424	-1208	3680	2413	-1180	-244	-7348	3856	13596	-70	1985	-1978	-17084	3744	-1908	-352	10140	-4532	-17272	5912	3152	1359	12210	1272	142	122	1
-32768	-15216	23460	10379	-32768	-32768	-32648	6612	-14048	7474	-32768	-7344	-20144	-5048	6768	1859	-1155	-632	-7284	4176	13476	3	2310	-2035	-20140	2428	-1856	-25	11546	-5586	-19880	5892	2388	2435	14035	811	136	113	1
-32768	-17320	10932	11499	-32768	-32768	-25976	-10688	-24332	7311	-32768	-2350	-25488	216	14736	1465	-1838	-1441	-7056	4008	14316	-111	7701	-2870	-19080	1556	-476	3483	12970	-6625	-20728	4348	2800	4077	12544	-760	122	114	1
-32768	-5288	-16780	18323	-27055	-13638	-20828	-5324	-22748	9549	-27199	-5535	-13240	21968	32767	1552	-1538	-779	-8048	4676	14448	358	12159	-3576	-19348	3352	-1268	2979	15404	-8111	-20348	1152	4920	3590	9235	-252	153	119	1
-32768	10676	-30876	-21374	-24790	2332	2880	9664	-19428	-3521	-5003	-4040	-17304	8008	32767	441	890	533	-7600	2944	15184	-70	17512	-4677	-21160	2448	-2660	2206	17762	-9764	-19800	1332	4704	2934	5810	121	136	124	1
-32768	-11452	-32768	-11306	-2526	11268	-376	-1208	-17860	-18709	15978	-3473	-16896	-72	27656	-1482	-277	43	-8524	4560	14424	-978	25503	-7038	-23708	2880	-3376	2649	19821	-10847	-22604	4808	4104	7263	1461	-836	124	110	1
15116	-816	8060	14903	32767	19052	-19896	-11324	3152	-20392	26058	-995	-14144	-2776	-872	-1576	286	231	-7800	5648	14180	-2235	32767	-11151	-25952	2800	-2356	6554	21593	-10781	-23632	6244	10564	6862	-8752	-3533	118	117	1
-7792	2528	-2088	931	32767	12005	-32768	-1948	5516	32767	20133	3440	-32768	-3936	20216	164	-170	-969	-8480	8460	15364	-3859	32767	-17157	-32444	7612	2140	10368	22233	-10150	-26824	4032	24996	-3370	-20888	-5032	138	122	1
-32768	13280	32767	-7450	32767	3294	-19408	30648	-3612	31358	30585	12953	-6960	4496	19352	5059	3256	-1086	-12016	6560	14996	-6213	32767	-25233	-32768	9704	9552	12795	23022	-10219	-23536	-6168	11896	-4620	-16639	-7602	137	139	1
-31004	-24468	25212	-4061	24832	8532	-23652	4948	-15324	13329	28676	7818	-15024	17248	-20824	1406	2328	-438	-24860	9764	20976	-6108	32767	-32768	-32768	7532	3604	17503	21020	-10012	-26376	-2412	-3760	16245	-13622	-7802	122	121	1
-4512	-2648	17548	10962	13222	4872	-12376	-11520	-14896	11042	24794	-3496	-18344	-10072	-24192	-3006	295	521	-32768	272	20436	-6131	32767	-32768	-27188	4764	-9616	18436	19663	-11047	-23080	6588	-11020	24544	-16065	-5501	155	134	1
-7568	-21664	14800	6991	-544	2802	-4316	2852	-16204	5623	17369	-564	-1712	-11816	-16464	-2691	544	-9	-30620	16712	27216	549	32767	-29448	-23876	4988	-4532	19047	16000	-11679	-26472	9740	-11940	18612	-18812	-1544	75	132	1
-8244	-792	16432	3809	-904	1558	-16036	7460	-13972	-8035	11439	-624	-16304	-6832	-11680	-752	1451	-1022	-14284	19708	32767	-13677	31134	-32768	-16768	10328	-14800	6727	10370	-7915	-32768	6348	-9060	4182	-20152	5044	65	138	1
-5552	-5252	15272	1619	-504	656	-23612	7516	-9632	-31310	9374	-6361	-28952	-4896	-8192	-1158	1211	-967	-22620	27768	32767	6820	-26623	-7716	-11780	-1852	-14900	-4602	11779	-6582	-29532	6680	-8192	-5982	-20973	7816	111	131	1
-5924	-4672	15548	525	-567	-95	-21048	-9724	-5124	-20475	6658	-4381	-21672	-2272	-1392	-1450	1430	-9	1716	19948	17876	2988	-32768	2879	-12248	4028	6960	1582	-7420	294	-29212	1168	-13188	-7444	-21037	8723	128	131	1
-5404	-4032	15352	-486	336	-312	-14800	-9440	-5008	11883	5788	2767	-13232	-5640	-952	-296	2084	513	6328	11772	7024	16	-32768	6237	-7464	1044	2716	1135	-12524	6463	-20840	60	-12856	-5124	-19065	8275	99	107	1
-5416	-5140	14896	-1427	574	-534	-15180	-1528	-6148	20542	4281	4468	-13448	-6008	-2280	969	2212	390	-272	8644	9480	4326	-32768	10210	-3328	3428	-704	-2516	-17830	9981	-19688	-328	-12516	-5198	-18905	8117	109	108	1
-5668	-5620	14768	-1338	470	-371	-15084	4824	-4896	8526	3481	1588	-15120	-1848	-1344	1059	2109	-28	-6264	9104	12920	6485	-32768	13281	-3760	2104	-3996	-9455	-21955	13750	-12880	-268	-12224	-7984	-17839	6980	123	128	1
-5324	-5740	14616	-928	389	54	-16472	4088	-3484	-10718	3389	-1721	-16824	3240	520	-423	1909	-330	-8244	6912	12576	7660	-32768	15710	-7220	292	-3420	-13081	-26113	17360	-10892	940	-13200	-7514	-15351	6077	134	152	1
-5548	-5088	14656	-688	292	172	-17468	-1672	-2808	-15216	2851	-3297	-16080	2664	-728	-2032	1851	-253	-10180	4596	12652	10919	-32768	18129	-10096	-2416	-3836	-7406	-31955	19808	-8560	2280	-14152	-10558	-14566	5317	132	146	1
-5492	-4700	14724	-928	594	134	-14880	-3392	-2744	-8202	2579	-1536	-16136	-152	1536	-1875	1840	54	-11888	4660	14332	12340	-32768	19328	-11152	356	-3888	-6957	-32768	22999	-5044	456	-13352	-14480	-13950	2824	119	161	1
-3920	-3368	15868	-1585	51	670	-16192	-1576	-3220	-4555	3544	-436	-14304	-2576	7080	-912	2361	-174	-16108	4028	18548	13728	-32768	20024	-12856	828	-4432	-9210	-32768	25462	-1920	212	-13852	-19261	-11101	917	126	145	1
-5892	-5400	14496	-1208	344	321	-16320	-456	-2384	-7275	4210	-676	-12112	-5888	7584	-1347	3347	-216	-19420	3944	21056	16345	-32768	21559	-18204	356	-5648	-11889	-32768	26786	-812	2284	-14940	-22460	-8493	783	119	118	1
-4004	-2976	15636	-1421	-367	956	-13700	-660	-964	-10704	5323	-582	-15784	-5408	-3248	-1273	2737	-373	-21340	3648	22404	17981	-32768	22399	-25300	220	-6704	-13180	-32768	27426	-2532	1636	-13400	-22598	-6831	314	130	138	1
-6236	-7108	13152	-611	37	720	-14288	-2824	-528	-6963	6711	191	-17488	-5752	280	-418	1114	-234	-32152	6380	32767	17270	-32768	21421	-32468	-1720	-10344	-12593	-32768	27964	-4716	-268	-11524	-22797	-4949	841	139	118	1
-4500	-3280	15700	-1031	27	982	-16912	-2180	-2024	-1260	8328	1474	-16536	-6360	5616	-239	1766	28	-32768	11240	32767	13583	-32768	24408	-32768	-1252	-15436	-13087	-32768	29547	-8488	-4152	-4120	-16385	-2388	1275	142	130	1
-5172	-5820	14512	-1636	945	744	-16976	-1732	104	-1003	9973	2064	-16392	-6128	5992	-208	1890	46	-32768	-3472	26432	15154	-32768	32713	-32768	-5652	-17588	-11818	-32768	25357	-9360	-3464	-3772	-15103	-2768	1239	136	124	1
-4876	-5524	14576	-1846	2315	1264	-15708	-1664	1708	-332	12784	2627	-19056	-1040	8304	-108	1539	-44	-32768	104	6736	5853	-32768	29421	-30388	1876	-23332	-18469	-32768	22397	-30204	-1660	18288	-4164	-24789	4982	123	110	1
-4336	-4428	15360	-3045	4253	1442	-17136	-1160	1116	1016	15978	3598	-19808	2072	10000	-412	1394	-140	-32768	-30272	-24940	13679	-24308	19056	-14864	-12676	-30156	-16263	-18060	16266	-13456	-28676	32767	-7870	-10528	1080	126	117	1
-3348	-5948	15632	-6045	8168	1187	-20016	1668	640	-517	19290	4178	-19976	1000	6488	-914	1020	-91	-32768	-29296	-32768	16543	-5637	8097	-1468	-9336	-29776	-2782	2419	5394	-19004	-2796	32767	186	4189	5128	117	130	1
-5484	-3852	16052	-10425	12946	768	-19428	248	-3048	-718	21924	5183	-18232	-4696	4248	-1094	554	76	-32768	-20540	-25768	-7903	9548	827	-756	-9180	-29096	-606	5278	3230	-19356	4648	18524	6288	1136	3462	112	127	1
-3516	-5668	15068	-15635	19349	1691	-21440	180	-4332	-2484	24019	6461	-19712	-3616	3664	-1230	210	425	32767	-21008	11900	-4942	21886	1556	-26396	5408	1540	7253	23783	-12865	-12008	-340	-3088	2628	3671	2912	113	123	1
-4228	-6264	14664	-16748	27821	6044	-23836	3752	-3804	-7025	25525	5203	-20696	304	10232	-1093	-873	715	22712	-6676	5280	-13982	32767	-18500	-32768	9488	28920	2699	13541	-1416	-25908	-2692	-1316	2082	9750	3108	118	130	1
-5344	-9304	15900	-20076	32767	8079	-31288	4500	1788	-12892	26210	4114	-26480	3448	17312	-526	-1678	898	-32768	-6160	32767	593	32767	-199	-17780	-24112	-13320	-15802	23337	-19326	-32768	3548	32767	-4029	-14728	7777	114	147	1
-5248	-8060	15312	-25255	32767	11717	-32768	1240	8868	-15488	27444	4064	-25200	8992	15928	-837	-1933	1376	-19128	-2728	27312	3593	28782	-11385	-29648	-768	-6732	6530	27065	-11334	436	3924	-10616	-2478	12657	-9138	133	128	1
-16816	-15544	26272	-31161	32767	17359	-32768	-4972	6636	-21866	25501	5355	-27480	-1920	8592	-1893	-1812	1210	-32768	14696	22832	-13320	24781	-10007	-13776	21284	-12256	-4106	21070	-3994	-10288	524	-13372	14362	12739	-713	139	136	1
-32768	-22268	32767	-30714	32767	25018	-26408	-8980	-9880	-21013	27312	7018	-21064	-13984	-8856	-3173	-1962	812	-11708	-7528	23748	-10416	1748	-5069	-12564	-10088	-19696	-13814	21354	-7809	-9768	25504	-17152	13459	3748	2179	153	164	1
-16328	-19820	14364	-27700	32767	27643	-26844	-2432	-13592	-13939	22556	5500	-29488	-15160	-7304	-927	-2010	-389	-9616	6880	13912	-6157	-739	-2822	-21896	-1932	-11576	2488	13722	-6050	-15488	896	-11684	-4590	11464	6392	136	98	1
-10536	-23152	27860	-32456	32767	26274	-20992	-4184	-9276	2344	14729	9546	-32768	-4992	-5072	325	-2607	-421	-6984	8160	12808	-2031	-998	-1181	-19820	-8112	-5116	12327	10025	-2799	-15988	84	-10892	-1431	12512	7800	135	102	1
-13032	-28916	26400	-17118	27177	24650	-14296	-7232	-8004	734	7448	7302	-32016	-1496	-6920	691	-2616	-794	-8068	3948	14408	-1305	-311	-939	-17856	1776	-5196	15656	7484	-496	-22360	4140	-5940	9604	11020	1521	170	105	1
-5892	-28120	32767	6202	-12935	7990	-5744	-2440	-20324	3068	695	2333	-26024	-1696	-6848	719	-2661	-959	-6200	3840	14024	-321	751	-731	-17980	8920	-1656	2426	7862	-1425	-13104	2712	-1964	4684	12951	-133	151	117	1
4	-15132	22540	19472	-29314	-848	-6556	-148	-4948	3178	-6011	-1308	-25800	832	-7552	810	-2558	-968	-6880	4404	13636	-16	1229	-511	-16284	4572	-3356	-9351	7714	-3306	-15104	4920	-3340	-572	15693	-212	160	110	1
2652	-8404	11580	21590	-32768	-2788	-4828	140	-3676	1769	-14223	-3908	-21008	584	-10736	780	-2111	-929	-8156	4816	13812	226	1190	-472	-16040	384	-5752	-7999	5023	-3205	-16020	3916	-3996	-1059	15297	-27	141	101	1
-772	-4964	9504	15946	-32768	-4434	-2208	336	-3916	5146	-19817	-5397	-14776	3632	-10048	406	-2325	-878	-7396	4732	13604	202	845	-612	-17452	-2084	-4448	1820	3443	-1468	-15076	1676	-3364	2082	15925	2074	117	118	1
-4180	-6960	11120	9862	-32768	-7573	-1656	2184	-6340	6370	-24174	-7193	-11584	392	-10304	261	-2069	-752	-7576	4384	13432	91	554	-708	-16276	692	-2444	8072	2583	356	-15592	-896	-5504	11411	15982	3724	110	127	1
-5340	-9572	10200	9819	-32768	-10719	-3100	2484	-5704	2222	-29504	-8203	-11008	960	-10528	663	-1964	-663	-7072	4544	13400	149	540	-627	-15516	3680	-1128	7783	3027	168	-17220	-2092	-1824	15416	14578	1864	106	121	1
-7624	-9560	10148	10685	-32768	-13469	-5404	1736	-5440	1677	-32768	-9805	-8608	-592	-10248	807	-1693	-608	-7216	3868	13580	470	673	-625	-16604	3800	-3500	4245	3728	-651	-15964	-176	-412	16782	15447	2142	116	130	1
-9704	-9736	11776	9503	-32768	-16752	-7208	2060	-5008	1548	-32768	-10822	-6024	-1184	-11504	1124	-1379	-511	-7332	3876	13660	1130	841	-403	-17468	1968	-2912	1351	4325	-1501	-14844	2188	3316	12043	18779	2954	128	123	1
-12440	-11444	14860	8433	-32768	-19550	-9488	1040	-6256	2791	-32768	-11950	-3832	-568	-11736	1670	-1095	-340	-7220	4668	13392	847	667	-702	-16716	2320	-2120	4674	4719	-1598	-14712	4780	4116	11672	22875	3890	115	130	1
-14616	-13020	17448	8305	-32768	-21521	-13136	240	-7576	6652	-32768	-13146	-3696	1000	-12648	2091	-1003	-186	-6836	5108	13328	193	457	-1553	-15212	3628	-432	6965	5666	-1455	-16804	6736	-3784	7828	20194	4414	132	134	1
-17360	-15872	21784	7489	-32768	-23531	-16840	1440	-10088	11613	-32768	-12807	-4128	544	-13912	2350	-692	-79	-6940	4652	13464	106	924	-2159	-16676	5224	-1528	3317	7188	-2395	-18488	7812	-4184	1316	11039	2605	141	131	1
-22532	-23172	27200	8767	-32768	-26554	-22376	3392	-10932	14368	-32768	-12212	-4736	2456	-13288	2326	-223	-27	-7600	4556	13580	17	1551	-2221	-17480	3328	-3220	-812	8619	-3626	-16260	7760	672	1948	12226	-343	139	129	1
-29304	-32768	30196	15825	-32768	-30556	-31312	-1036	-12336	16261	-32768	-13985	-5424	3088	-13200	2310	-148	-19	-7416	5068	13268	-172	2297	-2458	-16676	3072	-1732	622	9203	-4385	-15556	5668	2708	1248	15117	-784	140	127	1
-31612	-32768	30540	17410	-32768	-31618	-32768	3016	-18924	20671	-32768	-8827	-18152	-8736	9880	2026	-2346	-659	-7020	3696	13856	283	3562	-3495	-16268	2484	-368	2694	10856	-4877	-19416	2380	3176	1119	12754	-47	134	124	1
-32768	-21536	25928	11922	-32768	-32768	-32768	4940	-22900	10331	-32768	-3010	-29488	-8232	19872	1712	-3139	-1538	-6708	3480	14436	-294	6383	-2796	-17748	2912	444	3134	13261	-6524	-17832	84	5900	1692	10699	707	136	122	1
-32768	-10852	-18980	19731	-26970	-25525	-16820	-6600	-29116	8007	-27705	-4673	-9864	24560	32767	1876	-1555	-779	-6392	5084	14384	307	10373	-3201	-20492	3840	-868	836	15686	-7999	-21776	460	3948	5587	9505	423	136	127	1
-32768	18656	-32344	-16890	-26376	1374	3404	8144	-22408	-8982	-5665	-6140	-17520	5968	32767	148	1240	656	-7392	3884	14788	822	15404	-4113	-20788	1764	-3552	1794	17816	-8849	-19236	5168	920	7363	6323	-150	142	117	1
-32768	-9744	-32768	-19858	-11669	17718	948	-2300	-22356	-21661	16944	-3783	-17936	-208	29672	-1316	-201	0	-8224	4660	13828	119	22432	-5818	-23116	3276	-4344	4261	18684	-9618	-20792	7108	-356	8574	3093	10	117	125	1
32767	20240	9920	24727	32249	30892	-14732	-13996	-1852	-23002	29524	22	-11496	-984	1080	-990	217	105	-7828	6076	14548	-683	29604	-9527	-23100	3356	-3920	6937	20048	-9912	-19836	6472	4572	7928	-1878	-2645	128	123	1
22844	-15180	4020	8864	31092	13141	-32768	-14524	32767	19047	10331	-1920	-20488	-2288	4568	-562	983	-429	-8396	5724	14276	-1603	32767	-13704	-27240	3924	-1856	9738	20660	-9653	-24668	5224	11980	4585	-12079	-2990	119	123	1
-32768	-4336	32767	-5196	32767	332	-11500	20616	-11144	32767	25872	7865	-21536	-3096	22032	3093	493	-2310	-7864	7980	13084	-2974	32767	-19844	-32768	7684	6992	12720	22051	-9451	-24252	-2780	15148	-8090	-17001	-5789	115	118	1
-27452	32767	29712	-7545	31598	8373	-19628	10168	-13620	24989	24869	9880	-7848	9744	-8480	4346	2971	-807	-17068	7584	16476	-2056	32767	-25772	-32768	5568	9300	17698	22108	-9144	-25060	-9612	10916	1535	-16095	-8682	88	139	1
-31484	-32768	17792	-810	26416	10373	-22444	1920	-14772	10207	22792	3074	-22024	7872	-12384	-905	591	225	-32768	7868	28836	-1896	32767	-30547	-32472	6156	-2256	21230	21038	-8960	-23612	-2052	-4128	19314	-15563	-8625	152	124	1
-22332	19024	32767	8750	6557	4890	-12908	-6840	-19124	17245	19646	-4619	-19048	-16328	-19616	-2924	804	467	-32768	7300	21012	469	32767	-28681	-27132	6424	-6636	19982	18330	-12146	-22648	9848	-10484	30721	-16811	-5307	94	136	1
