#Activity	walking 
#ActivityID	1 
#Date 10-20-15-40
acc_rf_x	acc_rf_y	acc_rf_z	gyro_rf_x	gyro_rf_y	gyro_rf_z	acc_rs_x	acc_rs_y	acc_rs_z	gyro_rs_x	gyro_rs_y	gyro_rs_z	acc_rt_x	acc_rt_y	acc_rt_z	gyro_rt_x	gyro_rt_y	gyro_rt_z	acc_lf_x	acc_lf_y	acc_lf_z	gyro_lf_x	gyro_lf_y	gyro_lf_z	acc_ls_x	acc_ls_y	acc_ls_z	gyro_ls_x	gyro_ls_y	gyro_ls_z	acc_lt_x	acc_lt_y	acc_lt_z	gyro_lt_x	gyro_lt_y	gyro_lt_z	EMG_r	EMG_l	act
-26880	32767	14308	3778	5996	5015	-32768	-32744	-18880	5868	2652	-1317	-32768	-32768	24120	-1209	1093	-681	-2408	12192	21176	220	5857	-4041	-32768	-4128	14656	2582	3919	-536	-27496	-14552	23032	-2149	-1723	-803	23	11	1
-32768	-10668	24764	1452	3490	2586	-14880	28576	-27304	5084	4254	1509	-25720	15328	-7552	4496	741	452	-32768	13424	23440	169	8430	-5523	-32768	10768	-6584	2485	4121	-454	-17720	2024	3200	5098	-2094	-811	17	16	1
-12952	17456	26192	1647	1638	1111	-23360	-9568	-20952	1481	3289	-1208	-9408	20808	-14704	2571	2142	-1080	-32768	28976	31720	797	7725	-5332	-32768	20144	-3072	1021	4258	-1224	-32768	19352	-21584	4481	-1640	-291	52	48	1
-16904	17984	30352	1344	1364	1020	-9824	10488	-16072	-478	2580	-809	-3096	12496	-21864	-531	1035	974	-24320	32767	32767	-353	4987	-5644	-32288	11432	-9720	-798	2888	-558	-29184	4672	-17008	1480	-2851	950	181	186	1
-11084	-4808	14540	124	188	115	-14200	-2640	-18336	-2448	2118	-835	-23016	2336	-20536	-1590	1591	317	-32768	32767	32767	58	-1103	-1546	-17320	-1672	-25048	-1719	2463	-519	-32768	3104	-10104	-922	-3657	1179	193	196	1
-8436	-7068	13064	-31	128	7	-19712	-7424	-11152	-3086	1419	-1082	-18760	-10744	-12896	-1572	1910	-427	8576	27424	18984	-468	-4091	1347	-15304	776	-504	599	336	-852	-32768	-2744	-14376	-912	-2955	644	180	179	1
-7628	-5524	13992	-30	178	74	-18736	-12840	-7704	-1160	1004	-464	-20248	-8024	-8592	152	2052	554	13256	17160	11648	-79	-3968	2130	-12088	-1184	-576	777	-1268	250	-24976	-5800	-16720	-114	-2970	683	168	178	1
-8408	-4760	14028	-154	235	54	-15016	-4184	-6640	406	1007	50	-18720	2352	-5352	436	2338	759	7968	15752	12624	286	-4140	2472	-5392	1712	-3384	617	-2459	402	-23144	-2984	-15112	99	-3448	668	170	175	1
-7944	-5324	13860	-179	294	48	-17832	-4080	-4648	259	927	25	-14872	-2392	-2768	131	2325	302	1064	12144	12064	746	-4618	2798	-5008	1392	-3848	332	-3621	827	-13104	-744	-17336	-766	-3055	227	160	147	1
-7852	-6400	13400	-109	332	106	-16448	-2696	-4256	-197	726	-150	-16288	-768	-3096	258	2369	286	-4024	9432	11832	1356	-5126	3276	-7080	-368	-5656	-173	-4423	1155	-8440	-2296	-15776	-1150	-2839	221	148	137	1
-8060	-5648	13552	-79	417	169	-14440	-2856	-4512	-846	616	-208	-17416	3056	-3288	-178	2340	235	-6480	9704	12072	1657	-5472	3704	-6336	-2400	-5848	-151	-5061	1405	-6368	-792	-15632	-1351	-2187	219	143	140	1
-8092	-5516	13708	-79	424	178	-14872	-3448	-4664	-874	608	-198	-16256	2560	-2984	-610	2316	250	-9072	9192	14704	1505	-5598	3903	-8496	-1688	-6776	8	-5749	1597	-3312	664	-15296	-1249	-1666	216	142	135	1
-8528	-4748	13628	-60	533	296	-16496	-2376	-4520	-469	567	-97	-12928	928	-1464	-719	2020	584	-14360	7688	19184	1913	-5648	4064	-11992	-3488	-8984	-111	-6321	1857	336	288	-16264	-1811	-1201	78	140	133	1
-10780	-8508	13060	-142	542	402	-13000	-2888	1400	-775	1037	1126	-15072	520	-1088	-856	1991	685	-21000	10216	24040	2224	-5796	4232	-15128	-6496	-11416	-43	-6700	1964	2512	656	-15848	-2554	-842	-180	127	123	1
-9184	-4624	12736	-145	655	278	-15048	-960	-3872	-524	761	163	-15824	184	2472	-702	2290	514	-26064	10096	26264	2494	-5786	4345	-20104	-4104	-12072	365	-6889	1947	832	136	-13728	-2281	-858	-257	125	125	1
-9352	-5656	12204	-145	611	325	-15544	-3720	-3008	-682	762	-85	-13048	-1272	776	-718	2655	442	-32768	17864	28536	1917	-5445	4621	-29256	-1024	-16952	-148	-7015	2229	-2600	-2080	-6344	-948	-1121	-75	129	147	1
-9460	-6032	11896	-99	602	424	-13520	-2752	-1432	-982	904	-163	-16520	-784	48	-840	2074	502	-32768	12008	23456	1580	-4974	5023	-29128	-5592	-19896	-824	-6513	2021	-4272	-2456	40	-368	-1198	99	145	147	1
-9240	-5600	13096	-48	670	500	-14264	-3688	-384	-1180	1185	-189	-21104	-2232	6352	-729	1738	525	-32768	2552	12472	1526	-3760	5111	-22456	-672	-20240	-2398	-5647	1396	-11408	872	4232	-694	-1376	532	139	143	1
-9392	-5504	13524	-75	897	548	-18128	-3552	1456	-1077	1563	-107	-20760	-640	10760	-971	2063	300	-32768	-5744	2232	252	-2209	5212	-20168	-2704	-27512	-2814	-4002	419	-32768	-1816	23576	-1747	-4132	477	135	142	1
-9352	-5376	13692	-73	945	560	-17568	-2880	3440	-815	2039	20	-19056	336	12416	-1072	2110	174	-32768	-23008	-15456	-443	-832	4030	-7416	-1440	-32768	-2640	-2436	-169	-32160	-21336	16424	-1039	-2217	580	97	93	1
-9088	-4648	15852	-75	1976	714	-18368	-3224	3640	-217	2652	122	-24320	-2352	12192	-747	1328	135	-32768	-26568	-16032	173	12	1422	2704	-1584	-32768	-2202	246	-195	-8680	2096	26976	-1472	199	-296	81	48	1
-8876	-4656	17024	-110	2813	875	-20864	-2776	1472	436	3212	137	-25744	-5128	12184	-315	524	257	-32768	-19232	-10680	576	539	-457	-2832	-7168	-32768	215	2629	143	-16480	-8048	5568	-1894	2158	-573	45	36	1
-7620	-8448	18424	-129	3899	1308	-26784	-1680	3016	444	3619	16	-25720	-5144	12328	-236	386	268	-32768	-3856	-840	626	1069	-1464	-11360	3216	-27584	1504	4164	37	-12424	-14976	-10328	-2468	205	-228	55	49	1
-5120	-11772	19924	-381	5236	2374	-32768	768	5608	-232	3890	-343	-26072	-3856	32767	584	-2052	271	32767	27960	18832	-2260	2426	-1988	-32768	4568	32767	3619	2369	-729	8000	22504	-32768	4303	3378	553	113	117	1
-732	-14932	21992	-858	7193	4082	-32768	2904	13736	-1939	3922	-686	-23752	3712	-216	678	-172	530	-32768	-32496	32767	-3860	5393	-4981	-27184	12856	-32768	-5555	1875	1288	-32768	30400	25864	-3451	-1452	1726	181	201	1
-24164	-10776	22568	-1426	9432	5647	-32768	2680	15520	-2336	3873	-704	-29864	13856	17072	-1912	-1346	904	-32768	24056	27664	-2466	3628	-2013	-14408	-23072	-22128	-3452	4289	-3009	-32768	-32768	-16080	-3845	982	1395	173	215	1
-32768	-8656	27340	-2398	9790	5228	-32768	-12856	-5008	-4190	4203	-225	-31200	-13648	-20728	-5286	-1079	1274	-9072	-10776	22328	-600	1340	-929	-20456	-22056	-15848	-2071	2400	674	1496	-13576	-25272	1450	870	-147	157	192	1
-32768	-32768	32767	-2553	8415	5071	-32768	-20168	-4152	-1161	2518	141	-32768	-1104	-12488	-1761	-2608	-348	-11496	6768	13928	-228	705	-444	-8680	576	-18528	2380	2566	695	5920	3784	-18776	1823	770	-787	155	139	1
-20800	-32768	32767	-237	3815	4188	-15776	-12656	-29536	1740	1817	-15	-32768	-280	-12672	903	-2762	-1466	-9712	7872	13032	60	629	-353	-23688	9416	-17456	1754	2048	574	-32768	13064	-21664	1817	2088	1106	150	132	1
-23108	-32768	32767	1426	-4992	-1786	-7576	-3048	-4208	278	1137	380	-32768	-3120	-14664	1625	-2330	-1522	-9904	6632	12760	110	525	-310	-18048	7488	-13880	16	1013	292	-21736	15168	-14520	611	2164	1243	115	136	1
10912	-9820	14520	1879	-5886	-2636	-13232	-8368	624	366	-1153	976	-30848	8432	-18112	1102	-2240	-1714	-8104	6656	13288	162	549	-229	-19248	-192	-11768	-797	516	-47	-21544	5000	-9624	-574	2544	-177	107	119	1
12164	-5660	9700	536	-5392	-2564	-7416	-264	-2536	1747	-2542	4	-22120	4600	-17376	595	-2667	-1392	-7984	6392	13336	200	616	-178	-18008	-4656	-7984	116	281	324	-17448	-3816	-3768	-572	2412	305	127	108	1
2408	-9172	12124	-356	-5385	-2606	-6168	776	-3520	1815	-2678	43	-16000	3544	-15800	823	-3085	-815	-7800	6760	12816	229	703	-191	-19696	952	-5104	1249	242	336	-14096	360	-1992	-42	2873	312	120	97	1
-4780	-11188	12788	-482	-5740	-2893	-7160	-696	-5200	859	-4290	431	-8056	7560	-14072	794	-2967	-844	-7816	7304	12208	256	724	-228	-17408	4864	-3528	1213	253	291	-16936	-720	-2928	490	2956	286	97	77	1
-7240	-11644	12168	-171	-6009	-3235	-7040	1216	-6120	604	-5106	253	-5400	5872	-13480	600	-2460	-855	-7464	7696	11928	209	747	-325	-16040	4680	-2392	630	296	156	-15088	-2288	-264	1765	3197	757	96	69	1
-8752	-8108	12516	-140	-5936	-3609	-7696	-3792	-7016	858	-6007	84	-6168	5136	-13944	265	-2028	-869	-8456	7016	11528	118	783	-442	-17584	824	-3032	839	273	128	-13920	-1344	1888	1349	2557	642	100	65	1
-8976	-6020	13788	40	200	57	-22568	-7768	-15616	-2770	1703	-1103	-23608	-11472	-17848	-2457	2094	-1256	8752	24472	22944	-543	-4336	-768	-14816	2360	-1944	753	366	-710	-32768	-7024	-14632	-1411	-3025	354	191	193	1
-8192	-4688	14100	-25	183	30	-19352	-14032	-9544	-1161	972	-574	-22832	-13776	-11904	-449	2233	482	13104	18704	13320	-30	-4984	-86	-10096	-1352	-2376	1401	-1178	-149	-25656	-5352	-18920	41	-2943	312	189	188	1
-8168	-4112	14652	-136	258	30	-16200	-3400	-9192	529	918	-101	-19936	5080	-6088	872	2374	752	8952	18688	11216	214	-5413	685	-4920	-848	-3144	1901	-2542	251	-22072	896	-16672	-259	-3299	308	172	177	1
-7936	-3660	14712	-313	361	-19	-16880	688	-6464	41	813	-138	-15752	5520	-2792	-49	2463	325	2976	14808	9176	656	-5595	1714	-4456	328	-2944	1830	-3588	739	-14096	-912	-16408	-957	-3175	-247	163	156	1
-7544	-5840	14052	-375	466	2	-18752	-3752	-4024	-758	596	-327	-17304	-3016	-3808	-385	2400	8	104	11984	7360	1306	-5603	2682	-5824	784	-3192	1271	-4360	1159	-9440	-352	-16616	-1316	-2895	-216	148	141	1
-8140	-6352	13192	-302	547	77	-14856	-5576	-4640	-875	522	-306	-17160	560	-4064	-444	2415	241	-4080	12344	8200	1786	-5335	3403	-6176	1728	-4704	658	-5014	1455	-5328	-8	-15048	-1415	-2146	-217	139	135	1
-8440	-5984	12948	-243	541	150	-14592	-5760	-4384	-743	456	-176	-16872	896	-3552	-540	2409	228	-11032	14776	12576	1642	-5347	4042	-7064	2600	-8648	-333	-5634	1707	-1840	952	-15376	-1393	-1663	-127	139	133	1
-8332	-5780	13024	-208	545	237	-16400	-4584	-3816	-531	462	-103	-12016	-2544	-1960	-425	2009	461	-13744	11944	16120	1637	-5458	4584	-11000	136	-8328	-1138	-6257	1777	240	1808	-14464	-1708	-1277	-251	140	134	1
-9196	-4252	13044	-182	582	282	-13920	-2152	-3848	-529	496	-183	-13096	-472	-776	-229	1880	445	-19384	12496	19928	2015	-5280	4870	-15976	-3384	-10240	-1240	-6638	1757	2904	1768	-15128	-2277	-962	-327	134	125	1
-9392	-4876	12300	-202	588	196	-13928	-3784	-3848	-652	623	-151	-16032	1208	3160	-523	2226	278	-24960	15912	24672	1931	-5208	5251	-19184	-1448	-14880	-1150	-6871	1497	432	1368	-11976	-1930	-996	-157	123	126	1
-8992	-5952	12436	-212	568	234	-16080	-4248	-2752	-641	681	-107	-12968	-920	2840	-912	2721	486	-32768	20256	25904	1234	-4863	5573	-29552	-1096	-19808	-739	-7107	1406	-1816	2040	-5952	-743	-1247	87	139	143	1
-9128	-5888	12328	-247	557	325	-15720	-3464	-2056	-677	704	-94	-16728	-1712	2304	-875	2302	531	-32768	15728	19168	1128	-4597	5186	-25360	-1968	-21536	-744	-6428	1519	-4224	3144	-2560	-585	-799	491	142	142	1
-9488	-5852	12624	-182	654	366	-13392	-5272	1104	-1166	1214	-205	-23440	-1256	7152	-812	1763	392	-32768	10592	9088	1485	-3983	4432	-19984	4568	-24496	-2251	-5689	1513	-11872	-304	120	-1046	-1236	561	144	138	1
-8496	-7076	13604	-128	849	438	-16448	-5576	1920	-747	1658	-102	-20288	-2976	11952	-1094	2019	-45	-32768	-3184	-720	1529	-2353	4323	-20384	-9440	-31576	-2226	-3738	816	-32768	-1960	23992	-2214	-4357	181	142	146	1
-9008	-4288	15840	-130	1341	517	-19536	-4552	3536	-449	2192	-23	-21760	-1768	12552	-942	2119	66	-32768	-16376	-10640	701	-658	3366	-7632	-1408	-32768	-378	-2314	633	-32768	-25720	15688	-509	-2033	213	142	149	1
-8040	-6732	16388	-172	2155	733	-20536	-3248	3608	-10	2791	65	-27464	-2032	12896	-605	1199	180	-32768	-18768	-11056	652	-507	2996	-152	4416	-29832	-548	88	625	-984	1440	27160	213	368	668	90	74	1
-8092	-5964	17532	-214	3028	1029	-21176	-1992	2128	257	3306	-35	-24480	-3256	13896	-335	370	264	-32768	-15344	-11792	646	701	-601	-5688	-4120	-29416	-237	2072	432	-15208	-6704	5680	-654	2001	201	48	32	1
-7240	-8204	18268	-314	4157	1483	-27056	-592	2432	65	3677	-153	-24072	-2792	21000	-47	-774	112	-17488	-21120	-9408	-3718	3760	-1792	-16496	-4272	-17280	195	3412	-42	-19704	1168	18936	600	294	129	47	41	1
-3560	-11552	19256	-665	5602	2422	-32768	1160	3808	-684	3921	-536	-24672	-1664	18888	-45	-1068	109	-32768	-32768	32767	-2642	6331	-3824	-23696	-5112	2856	619	3516	-135	-25136	24784	8376	-1039	216	2048	128	129	1
400	-15320	27444	-1078	7872	3884	-32768	16	16592	-2130	3826	-520	-29352	12616	-7048	-996	-167	869	-24552	20816	18200	-192	3321	-2269	-9976	-28928	-26304	-5151	3801	-994	-24088	-17656	-18904	-4399	2064	-1427	156	204	1
-32768	-11508	22332	-2091	10287	5003	-32768	-1088	-936	-3443	3856	-456	-32664	10696	7680	-1852	-1290	898	-26600	1056	20368	-1758	1435	-1452	-10672	23952	-29488	-2081	3235	-1233	-5792	-18784	-20560	1026	261	-112	164	189	1
-32768	-23084	30612	-3766	9758	4347	-32768	-13552	-3472	-4419	3851	-217	-29824	-1384	-19776	-4077	-1963	741	-17168	20584	9536	-972	561	-1041	-13848	-13192	-23744	-1989	1957	1267	4232	20536	-22936	1488	1025	-523	155	154	1
-32768	-32768	32767	-2520	7309	4978	-28576	-25424	-8424	-422	2657	-805	-32768	5848	-9704	-2243	-2642	-723	-8040	6192	13848	-591	298	-710	-24080	-10720	-15696	3007	2324	80	-32768	12496	-20256	144	2175	1686	149	138	1
-32768	-32768	32767	58	86	2849	-13672	-9424	-27360	1493	1879	-670	-32768	-280	-12176	-462	-2215	-1197	-9312	3808	14808	-429	314	-489	-20032	10752	-11384	2462	1337	441	-20256	2072	-11120	-367	1855	871	116	136	1
17140	-32744	28004	342	-6065	-1353	-13584	5792	6368	-647	44	74	-32768	-640	-14648	522	-2140	-1543	-7808	3968	15280	-139	398	-337	-14856	4560	-10096	-1040	824	6	-18768	-2776	-13048	-514	2360	-312	90	126	1
18308	-12632	12760	332	-5418	-1834	-13568	-3432	1352	-149	-1716	-609	-27320	8520	-15448	340	-2629	-1621	-7568	5608	13352	112	529	-200	-19872	-4056	-9936	-2241	300	-263	-14704	232	-7768	-630	2536	-407	126	108	1
9660	-8624	14644	-763	-4735	-2498	-4792	3408	-3200	1193	-3186	-539	-17968	8864	-14824	-253	-3159	-1194	-7544	7456	12520	69	576	-217	-19664	-7848	-5608	169	207	177	-16160	2592	-5536	-931	2869	254	124	93	1
-2204	-10120	17492	-1119	-5163	-3212	-6456	3008	-4952	366	-3933	-142	-17632	9768	-15648	-334	-3287	-1107	-7624	8496	11760	-30	613	-309	-17400	3432	-3152	1669	295	299	-17040	-3456	-4440	-315	2981	459	99	68	1
-6728	-7884	17084	-637	-6026	-3669	-6216	3624	-5984	-46	-4908	-401	-3256	5080	-14072	-659	-2776	-1049	-7944	7320	12176	-146	624	-397	-15976	5112	-2080	1160	255	294	-15392	-4336	1384	1152	2962	749	88	68	1
-5776	-108	16160	-720	-6040	-3844	-6184	3640	-5600	-101	-5018	-431	-4872	1720	-14176	-733	-2248	-960	-8152	6816	12216	-191	629	-453	-17496	1488	-1136	345	304	90	-14648	-4224	2272	1372	2369	563	97	63	1
-9816	-148	19852	-1270	-5948	-3519	-11304	1896	-8048	358	-6120	-368	-2464	1408	-12824	-107	-1931	-660	-8144	4832	12792	-142	666	-489	-16168	-3736	-2120	368	425	123	-10080	-1696	3920	130	1853	348	98	76	1
-17124	-3104	25472	-1220	-6209	-2860	-14456	3216	-10328	155	-6548	-207	-1208	3072	-13232	690	-1711	-316	-9088	5128	11232	-37	689	-385	-14256	-920	-2296	1036	688	69	-15072	-1552	-2000	530	2466	651	104	88	1
-21632	-8124	26252	-931	-6432	-2827	-16528	72	-11248	243	-6879	-299	288	2040	-14304	1299	-1635	-164	-9056	6896	10816	-39	643	-380	-14936	3472	-1584	685	755	19	-22064	3664	-4304	1424	2527	740	109	95	1
-24272	-12916	26444	-564	-5887	-3378	-23560	-3400	-13912	1354	-7100	0	-736	112	-12304	1742	-1688	-183	-9296	7032	11136	-44	581	-494	-16968	2040	-1080	724	976	13	-22528	312	80	549	2128	736	112	97	1
-32768	-14596	26980	-540	-5069	-4532	-29776	-1536	-19264	2189	-6986	539	-4280	-632	-5584	1995	-1871	-378	-8792	6424	12256	-90	687	-582	-17544	376	1008	922	1230	-61	-19584	-760	4416	536	2011	516	120	113	1
-32768	-16088	25404	100	-4535	-5663	-22520	-3016	-23016	1953	-6519	816	-4752	-424	-4520	2062	-1897	-447	-9248	6400	12344	-120	890	-664	-17024	896	3128	970	1582	-170	-17768	-1392	6672	945	2078	481	123	121	1
-32768	-3592	11972	1139	-4160	-5599	-23648	-800	-22632	1426	-5139	918	-11736	4256	4552	1386	-2019	-372	-9200	5048	13816	-123	1214	-671	-17456	1640	2056	451	1933	-385	-17776	-3640	4552	832	1979	410	122	124	1
-32768	4172	-9928	825	-2869	-3603	-18464	-11144	-30224	2197	-3985	506	-32768	5224	32767	1592	-4452	-620	-8656	6000	15800	-136	1788	-717	-21472	-32	2664	-172	2291	-653	-25456	-1232	3880	741	1378	380	93	87	1
-32768	18184	-21176	-485	-1623	-1460	-3232	232	-32768	1462	-1988	470	-6960	856	24136	-192	-899	-754	-8472	6824	16872	-191	2444	-888	-22864	-328	3344	-480	2674	-802	-25832	3848	6608	505	946	-30	98	93	1
-32768	13368	-29704	-1590	-988	218	192	1928	-31264	-2282	247	-592	-15816	3560	27696	-89	879	534	-7976	8384	17504	-197	3191	-1163	-24072	3080	3360	-745	3070	-998	-26128	4352	8328	-110	395	-137	99	91	1
-32768	12724	-23372	-1606	367	1908	-1416	-9704	-29600	-2859	2442	-785	-20880	8464	2760	-637	1883	181	-7952	13592	16032	-205	4026	-1917	-27168	3216	4456	-780	3385	-1038	-28856	632	12720	-404	-452	-411	75	62	1
1016	10900	8572	3285	3755	3809	-28416	-14360	26272	-1457	3160	-974	-21280	4424	8576	-4014	2348	62	-3360	16040	18240	57	4849	-3309	-30264	296	6912	-176	3666	-776	-26504	-856	21880	-212	-1364	-529	72	55	1
-32768	27228	19076	2789	5612	4011	-32768	-28792	-17016	6065	3268	-835	-22312	760	22000	-4084	2424	-26	-9264	15672	21184	-156	6729	-4865	-32768	-3280	11096	1214	3667	-489	-32768	-168	24392	236	-3948	-217	60	49	1
-31608	-3496	25904	620	3647	2220	-11072	32767	-26040	6146	4189	1458	-17808	4696	-22896	2721	1493	198	-32768	16880	18752	-607	7836	-5992	-32768	9144	-3264	2209	4023	-300	-19832	-11240	5200	692	-1164	-1024	8	1	1
-32768	-20612	17072	1349	1930	1550	-12984	-18576	-28816	-325	3217	-774	-8872	24064	-15792	2058	1392	-1288	-32768	10512	29544	854	7547	-5484	-32768	11696	-3496	1599	4634	-977	-29976	4256	-6296	3964	-2490	-400	36	28	1
-12256	-5732	15564	413	485	537	-13096	10512	-18344	-819	2402	-1852	-9936	128	-21800	-1785	1261	1238	-32768	32767	30424	269	6041	-5755	-32768	12496	-8968	111	3428	-725	-29160	8208	-22824	3930	-2207	598	141	134	1
-11120	1364	17128	292	163	182	-19664	-3664	-17152	-2450	2007	-699	-26520	-3216	-19496	-315	1976	225	-32768	24464	32767	-1550	1498	-3468	-19560	576	-19712	-1565	2456	-65	-32768	4944	-11456	1007	-3298	1104	189	195	1
-7952	-5152	14072	58	101	18	-16232	-5960	-10120	-2669	1493	-653	-15320	-4552	-9296	-76	1706	-157	2272	32767	26616	-361	-2674	1426	-18456	-1328	-1152	20	1201	-1106	-32768	912	-14920	-1105	-3051	752	189	188	1
-7096	-5324	13616	-66	139	-2	-18608	-8464	-6224	-1656	1119	-575	-18048	-3488	-8296	396	2218	43	14576	18296	15632	-201	-3077	2434	-14344	872	912	728	-545	-184	-26896	-4576	-14968	-364	-2909	771	179	183	1
-7968	-4852	14276	-199	260	-23	-16592	-10168	-7232	1112	1070	24	-19664	1168	-5584	554	2222	902	9352	16360	14920	168	-3484	2565	-7432	2216	-1872	537	-1812	526	-23536	-6760	-15032	56	-2734	864	165	177	1
-8072	-5772	13524	-233	280	-37	-16528	-2520	-5752	1273	1020	185	-15504	-3552	-3664	534	2334	566	4200	13888	14304	287	-4321	2601	-4936	2592	-3296	-46	-2979	723	-18344	-2472	-14304	-140	-3115	712	160	161	1
-7680	-7292	12932	-102	273	55	-16624	-2120	-4352	37	765	-23	-16896	-1336	-3640	583	2314	275	-1416	8168	12064	1053	-4976	2830	-6928	-1552	-3560	-445	-3864	1129	-9632	-4448	-15624	-604	-2943	369	151	152	1
-7816	-6212	13168	0	284	159	-13824	8	-5104	-1137	567	-274	-15056	4336	-2576	58	2338	116	-3768	8488	11512	1763	-5352	3272	-6856	-4880	-4000	-293	-4582	1403	-5040	-3000	-14840	-546	-2530	378	144	137	1
-8060	-5424	13480	-29	328	173	-16824	-3760	-4488	-1264	530	-271	-15992	4320	-2536	-547	2350	163	-6432	9240	13856	1626	-5389	3718	-7336	-4880	-7152	238	-5229	1631	-4192	-2216	-14512	-587	-2436	308	141	138	1
-8328	-4620	13492	-89	380	177	-17032	-4968	-3400	-362	583	-121	-14176	2712	128	-902	2236	422	-12712	6480	19264	1736	-5465	4231	-10168	-4272	-8816	511	-5795	1882	-2152	1632	-14400	-816	-1399	233	142	134	1
-8428	-4796	13656	-134	445	203	-15568	-2528	-3224	-41	658	-81	-13552	1224	1320	-1091	1978	666	-16512	6064	22488	2158	-5762	4318	-10592	-4160	-9288	510	-5880	1897	1256	2560	-15424	-1844	-1030	21	136	132	1
-8136	-6108	13152	-151	482	248	-14136	-1728	-3184	-285	732	-68	-15304	-336	3048	-836	1957	554	-21536	7896	25656	2323	-5963	3937	-16928	-3992	-11088	175	-6545	2115	1728	2168	-15152	-2687	-814	-202	123	131	1
-9116	-5744	12408	-119	482	302	-15040	-2512	-3600	-913	795	-219	-14408	-3520	2896	-476	2682	397	-26248	11104	27224	2389	-5947	3904	-22624	-4864	-12408	52	-6772	2022	-1352	40	-13072	-1884	-770	-251	145	148	1
-8620	-6744	12656	-101	424	356	-14560	-4248	-1416	-1080	934	-212	-17080	-1312	-1592	-817	2371	384	-31360	16640	28304	1899	-5310	4046	-32768	-2648	-17712	-123	-6909	2209	-6776	-3728	-5712	-1004	-928	-188	146	152	1
-8780	-5964	13352	-62	513	447	-15232	-3448	-1144	-748	1184	-164	-21400	-128	2048	-566	1462	472	-32768	12336	25280	1783	-4300	4564	-27544	-472	-19920	-1259	-6574	1634	-8656	1568	2160	-527	-1178	228	140	146	1
-9112	-5232	14040	-98	727	444	-18152	-2632	-1288	-649	1458	-45	-23856	-1336	6336	-486	1737	341	-32768	6720	11080	1101	-3270	5150	-23216	-2032	-22232	-2121	-5277	1061	-23648	3792	15576	-1025	-2864	695	140	137	1
-8812	-5788	14812	-113	1100	517	-18800	-2056	1840	-788	1798	-49	-19824	-2024	11840	-508	2130	469	-32768	-16728	-9888	-77	-1523	4461	-14112	-1760	-29632	-2695	-3528	356	-32768	-8208	21928	-1933	-3554	744	136	135	1
-8464	-6072	15956	-85	1763	613	-18872	-4360	5136	-422	2383	47	-23264	88	14160	-102	1667	201	-32768	-29272	-16936	553	-177	2363	-56	-808	-32768	-1923	-1184	68	-9984	-3608	32767	-560	-849	-501	104	98	1
-8092	-5760	17080	-78	2555	872	-20120	-3752	2896	514	3009	114	-24296	-1696	14240	-342	882	112	-32768	-23880	-16272	375	331	-97	-496	-4416	-32768	-350	1711	26	-16800	-9456	17704	-1393	1395	-426	66	50	1
-7660	-7096	18620	-52	3575	1161	-25064	-904	1744	729	3490	120	-24488	-5560	14344	-491	204	131	-32768	-9376	-7440	207	1084	-1618	-8496	1680	-30024	1127	3768	192	-17240	-5824	-1944	-24	1618	-320	49	44	1
-6356	-10332	19356	-214	4841	1946	-31456	1360	4944	62	3783	-252	-25208	-3848	26768	869	-633	72	18432	4736	32767	-3419	3018	-1695	-32768	2280	32767	2239	3589	-501	-4728	4280	-21240	151	4225	370	69	61	1
-3792	-10108	21740	-437	6401	3249	-32768	-856	5808	-898	3871	-474	-18576	7032	25552	1572	-1879	405	-23736	-32768	32767	-3288	5708	-3927	-32768	5000	-19592	-4598	2741	625	-29784	31184	8704	-1813	-1594	1631	146	159	1
-4780	-16672	22048	-975	8614	5071	-32768	1584	15448	-2690	3642	-659	-31328	14328	19960	-833	-1239	628	-17520	14416	10968	-1222	3107	-2321	-8896	-29560	-30736	-4496	4197	-2059	-32768	-30616	-28064	-5706	2031	60	186	220	1
-32768	-10896	19440	-1384	10041	5685	-30816	-4496	-8504	-3077	3866	-447	-28968	-3560	-3152	-4116	-1473	1197	-32768	-7152	32128	-1839	2004	-1497	-18696	10384	-25632	-2113	2579	-57	-12432	-17144	-10672	450	75	-158	173	189	1
-32768	-32768	31720	-2688	9091	4899	-29672	-3760	-10312	-3343	3944	-324	-30048	56	-15768	-3738	-2311	365	-11744	15608	11392	-655	1098	-849	-16264	-20272	-22088	209	2322	1006	-4928	8800	-21136	1048	1207	-563	147	154	1
-32768	-32768	32767	-1217	4802	4429	-23640	-23032	-22272	664	2695	-736	-32768	1344	-4448	-1361	-2548	-1022	-8688	3344	14624	-243	524	-476	-19368	1752	-16000	2400	2325	-10	-23352	7176	-19336	793	1802	1109	129	130	1
-32768	-32768	32767	-375	-2927	146	-18376	-2432	-14104	756	1746	-356	-32768	-3216	-11616	219	-1975	-1431	-9584	4168	14568	-134	424	-332	-16464	9560	-13536	1450	1320	571	-17328	7608	-11984	598	1964	1169	105	132	1
20040	-23752	17448	697	-4999	-1850	-16128	-2680	2024	-250	-469	573	-32768	5584	-16840	878	-2073	-1750	-8432	6016	13304	17	401	-258	-16872	2912	-11624	-987	771	-45	-20304	5600	-11672	-322	2350	-178	93	134	1
17684	-12412	11940	421	-4085	-2132	-11840	-1624	-72	753	-1861	-426	-25472	8008	-16552	96	-2712	-1754	-7696	6384	12688	121	467	-192	-20624	-4552	-8672	-889	405	66	-18680	672	-6544	-592	2380	-133	133	119	1
6128	-11988	16348	-391	-4262	-2629	-4056	1920	-4368	968	-3115	-46	-19680	7160	-15504	-198	-3313	-1282	-7824	7568	12416	80	552	-219	-18752	-1544	-5088	833	332	209	-16032	288	-3152	-453	2714	399	130	103	1
-2456	-12072	16388	-600	-5034	-3112	-6592	-224	-4656	594	-4016	-92	-8360	6128	-13424	-102	-3216	-1266	-8144	6840	12016	57	587	-251	-16920	3576	-3624	1314	293	324	-15472	-3120	-3320	126	2878	452	98	77	1
-5320	-7772	15280	-546	-5660	-3417	-5896	3312	-4840	494	-4933	-246	-3216	4880	-12720	185	-2618	-1242	-8304	6904	11664	35	588	-262	-15168	5480	-3152	546	354	178	-14248	-2464	-2416	1246	3041	708	93	69	1
-5980	-3532	14508	-881	-5809	-3654	-6880	1200	-4128	323	-5516	-308	-4104	5088	-14376	18	-2223	-962	-8392	7000	10904	12	578	-303	-16896	848	-3568	128	291	66	-13136	-2536	-504	1700	2869	604	100	72	1
-8752	-4176	17248	-1160	-5639	-3568	-9448	-48	-6856	698	-6126	-409	-2328	3352	-14328	142	-2003	-717	-8440	6160	11872	-46	503	-371	-16584	-3400	-2976	897	433	154	-12920	-1104	1888	631	2137	296	103	81	1
-15880	-5660	23176	-1104	-5801	-3314	-12488	2160	-10664	534	-6463	-122	1336	2840	-12824	516	-1720	-404	-9064	6392	11000	-44	463	-394	-15184	2704	-3240	1273	530	204	-11712	104	1272	339	2237	773	109	97	1
-20308	-6764	25056	-1372	-6021	-3475	-15544	656	-11360	442	-6811	-156	1584	176	-14560	1668	-1486	-182	-9496	5928	10296	-69	352	-367	-13800	2464	-2400	795	700	91	-18040	2328	-3512	1585	3056	944	109	97	1
-25280	-12284	26060	-1153	-5739	-3801	-21264	-224	-12936	608	-7106	-130	-80	2816	-12056	2427	-1584	-131	-8888	6768	11048	-105	253	-403	-15888	1832	-944	729	865	15	-20656	2424	-3840	1039	2345	1047	112	99	1
-32768	-15192	27804	-626	-5192	-4486	-28016	-3696	-17136	1263	-7043	110	-3560	2752	-4080	1981	-1794	-237	-8616	6720	12040	-134	306	-506	-17192	-520	-792	1061	1080	50	-20424	48	1600	810	1916	484	111	100	1
-32768	-13364	25832	-137	-4724	-5110	-26216	-3232	-19392	1356	-6611	264	-7264	104	1792	1387	-1871	-471	-8816	5144	12936	-96	534	-493	-16840	456	1928	1075	1373	-56	-16704	168	6288	967	2155	522	121	115	1
-32768	-5348	14340	177	-4220	-5126	-26232	-5520	-20080	1532	-5400	422	-13056	256	5952	663	-1917	-647	-8776	5608	13728	-64	869	-481	-17112	2960	2048	663	1745	-277	-18248	-3408	5040	839	2181	477	121	124	1
-32768	-2940	-5624	901	-3021	-4190	-21056	-7800	-25776	2423	-4113	468	-32768	-24	32767	1203	-4178	-1071	-8632	6536	15272	-46	1404	-561	-21040	1800	2936	40	2137	-514	-25984	-3608	3768	817	1508	522	130	127	1
-32768	14704	-19988	547	-1518	-2685	-7560	-2136	-32768	2032	-2129	420	-14896	12224	18344	-139	-1119	-1692	-8288	5672	17408	-4	2119	-782	-23688	568	2560	-222	2574	-636	-28216	4928	6080	794	1111	54	122	123	1
-32768	17380	-26236	-896	-676	-674	-2120	408	-30224	-544	137	-372	-15056	-2312	30320	-275	576	91	-8136	7576	18336	-10	2955	-1017	-25088	2448	1496	-354	2966	-873	-26848	5576	6568	227	715	-63	124	115	1
-32768	14376	-22704	-1012	592	1284	-4408	-4616	-29536	-1630	2229	-729	-21040	3904	6696	95	1246	94	-7440	12080	17696	11	3801	-1564	-27816	4224	3400	-500	3308	-1011	-29240	2112	10144	-157	-182	-257	104	101	1
2544	28612	-4140	3178	4208	3804	-5240	-5928	-25568	-1798	2467	-601	-22976	3152	4272	-1884	1141	39	-5704	15480	18800	93	4683	-2658	-30432	1976	6184	-278	3635	-906	-29016	1272	17328	-182	-998	-496	79	69	1
-32768	2104	32484	2271	5464	3867	-32768	-26088	-6880	3854	3236	-355	-17416	-9760	15568	-1832	3668	-1044	-3904	16032	20704	-27	6213	-4254	-32768	-2520	6368	305	3718	-623	-32768	-240	29144	113	-3271	-511	65	58	1
-27304	-5320	27604	444	3565	2047	-7480	28048	-24016	6423	4097	654	-17264	-1888	-18904	1588	2133	575	-24512	20728	20000	-335	7980	-5709	-32768	2544	7784	2075	3911	-360	-25240	-13968	22472	-3576	-1828	-954	1	0	1
-22144	-15904	11152	1419	1430	1352	-14360	-21168	-25224	368	3471	-482	-8400	13120	-22008	2499	1389	-628	-32768	7064	28008	630	8171	-5669	-31584	2152	-12648	1259	4509	-668	-17872	-3528	328	4271	-2463	-864	34	18	1
-18868	-1628	17712	674	392	552	-14600	7528	-18552	1104	2550	-1585	-10056	-144	-18992	-75	1397	334	-32768	32767	30920	767	7493	-5601	-32768	18872	-4744	1184	3889	-960	-32768	11040	-23664	4693	-2197	376	128	127	1
-10876	-244	16744	432	156	223	-16432	1120	-17056	-1465	2058	-449	-27056	2264	-18960	764	2055	-194	-15072	32767	32767	-1204	3922	-5068	-25224	9032	-20776	-1085	2687	-263	-30992	8832	-17088	2542	-2858	927	177	189	1
-8188	-5168	13836	142	105	51	-17912	-3288	-10872	-2357	1536	-700	-17016	-1032	-9520	235	1725	-370	-11912	32767	32767	-813	-1849	110	-17520	-3672	-12336	-1348	2250	-907	-32768	2608	-14968	-1044	-3346	947	185	185	1
-7608	-4016	14620	29	118	-5	-18448	-7816	-7712	-1043	1139	-651	-15312	872	-5632	527	2115	297	13656	18520	19888	-653	-3630	1286	-14088	1048	536	463	20	-841	-32768	-3576	-14792	-1076	-3064	601	174	177	1
-7972	-3984	14804	-172	249	-53	-15560	-5928	-9440	1501	1046	-165	-19592	5800	-5832	773	2285	608	11560	12840	14016	252	-4060	1085	-14128	968	480	487	-314	-663	-23304	-8120	-14368	-227	-2978	675	165	174	1
-8100	-5184	14048	-260	265	-79	-19192	2368	-6544	415	861	-87	-15232	-736	-3952	93	2403	380	6544	16080	12304	705	-4514	1320	-5016	16	-3752	754	-2606	655	-20680	-6160	-14040	289	-3361	685	163	160	1
-7428	-6624	13576	-208	263	-4	-15208	-2280	-3952	-1318	559	-381	-16752	-2512	-4360	-131	2440	136	1072	11472	10392	1192	-4902	2157	-6032	-1304	-3736	348	-3506	893	-11304	-3888	-15552	-107	-3126	211	158	146	1
-7568	-6480	13284	-114	292	107	-15296	-4288	-3488	-1922	418	-538	-16496	2648	-4128	-717	2283	-15	-2568	10080	10496	1605	-4941	3129	-6328	-3280	-4896	321	-4370	1248	-5944	-1176	-15584	-543	-2667	374	143	140	1
-7588	-5744	13552	-83	353	163	-17088	-8248	-2712	-1061	465	-278	-16368	432	-1336	-853	2353	233	-6968	8560	13096	1773	-5095	3802	-5144	-3200	-7032	392	-5018	1490	-6032	560	-15616	-845	-2089	288	142	139	1
-7804	-5344	13848	-95	435	206	-16776	-3912	-2688	39	542	-59	-13832	2840	840	-988	1985	334	-10160	8392	16184	1819	-5392	4119	-8328	-624	-6728	476	-5574	1753	-2176	416	-14912	-977	-1575	53	140	135	1
-7892	-5252	13780	-112	500	244	-15416	240	-2448	-231	634	-123	-13640	-640	2240	-1042	1768	470	-14272	4856	19576	2011	-5688	3925	-11168	-1536	-8952	-95	-6145	1992	1160	1432	-16128	-1908	-1176	-267	136	133	1
-7836	-6408	13372	-136	554	310	-14656	-3304	-2600	-821	669	-244	-14744	-4008	3184	-577	2075	407	-20096	7696	23648	2598	-5881	3877	-14744	-4672	-10928	-502	-6505	2031	2128	2144	-16192	-2694	-776	-443	125	125	1
-8948	-5648	12528	-113	576	347	-15416	-4928	-2672	-905	806	-218	-17984	-4264	-744	-751	2847	609	-24544	12352	26760	2630	-5803	4260	-21424	-4800	-12320	-482	-6794	1878	-824	-240	-14200	-2401	-572	-391	137	139	1
-8928	-5780	12400	-106	571	354	-13824	-4600	-1648	-621	957	-140	-18776	640	-1912	-633	2141	600	-31392	16784	32064	2129	-5400	5008	-31856	-4448	-17840	-235	-7139	1909	-4240	-1736	-5352	-999	-917	-230	145	147	1
-8696	-6364	12812	-7	508	526	-14760	-2208	-2048	-725	1117	-181	-17936	1040	2888	-388	1391	189	-32768	10360	29648	1970	-4910	5528	-30784	312	-15272	-148	-6965	1620	-7232	3016	-624	-260	-888	68	145	146	1
-8928	-5316	13700	-20	644	561	-16872	-1808	-1736	-1145	1318	-207	-16120	-576	6808	-885	1860	69	-32768	8024	14208	1518	-4218	5085	-23320	6344	-19536	-1524	-5891	1222	-15024	3872	7192	-110	-1409	830	137	137	1
-8968	-5480	14152	-67	910	616	-17704	-2672	1472	-1206	1665	-180	-18208	288	11008	-1095	2198	312	-32768	-9392	-4424	574	-2713	4081	-18048	-3144	-28544	-2806	-4294	582	-32768	360	27848	-1861	-4447	886	134	137	1
-8716	-4364	15788	-37	1385	699	-17088	-3792	3944	-640	2196	-83	-21392	-560	13712	-870	2029	165	-32768	-25272	-18736	616	-811	2965	-2392	-5688	-32768	-1738	-2091	131	-31448	-27952	24584	-1278	-1886	508	127	129	1
-8248	-5452	16956	-43	2172	798	-20616	-2920	3688	220	2823	109	-26512	-2384	13904	-409	1330	93	-32768	-26368	-18688	590	180	699	3920	448	-31672	-143	947	51	-13088	-2400	28736	-347	768	-421	76	63	1
-7980	-5404	18248	-95	3113	1042	-22784	-920	2624	613	3388	-7	-27960	-4120	14576	-47	469	116	-32768	25448	-15192	-2093	1653	-1105	-6352	1456	-26536	990	3159	273	-16616	-7880	2984	-451	1863	-619	51	42	1
-7096	-7736	19104	-169	4296	1563	-27152	-464	4568	284	3842	-178	-24992	-6208	20904	462	-868	272	14216	-5760	32767	-3062	4157	-2228	-32768	4064	32767	2634	3840	-463	-18096	-3632	1848	150	1512	-509	60	49	1
-3328	-12356	23072	-340	5870	2693	-32768	-2784	5640	-437	4107	-483	-28288	-8000	32767	357	-2731	226	-32768	-32768	32767	-2551	4857	-3366	-29616	-7480	-30664	-5529	3527	913	-20312	18432	1896	-2141	-329	1219	136	139	1
-1204	-15872	26116	-653	8327	4567	-32768	-352	14840	-1826	3904	-533	-29032	12040	-8640	-908	-970	935	-28552	20240	12784	-1315	3040	-1915	-1656	-8600	-32768	-2565	4858	-2651	-28088	-23328	-32768	-3667	1397	-345	155	198	1
-32768	-11688	23588	-1619	10166	5423	-32400	-392	-6528	-2556	4207	-554	-29280	9456	4784	-1709	-993	635	-17168	-11320	25504	-1502	1285	-1146	-11936	5504	-23320	-3716	2444	-121	624	-8472	-22264	1215	507	108	154	182	1
-32768	-32768	32252	-2688	9516	4820	-32768	-15792	-7528	-3751	3619	-192	-30408	-624	-22552	-4210	-2083	441	-9688	10240	13984	-847	550	-568	-21704	-23136	-23128	-486	2191	469	-12896	12464	-22368	19	1389	-381	154	141	1
-32768	-32768	32767	-1479	6075	4836	-25632	-24560	-14688	329	2780	-766	-32768	6024	-7056	-1886	-2692	-919	-8016	7872	13712	-259	451	-361	-22384	-3952	-14080	3118	2137	193	-25048	824	-17688	-474	2005	1403	128	132	1
-32768	-32768	32767	374	-896	926	-16816	-2184	-19688	968	1911	-663	-32768	1520	-9864	-598	-2040	-1431	-7704	4632	14744	-87	460	-264	-22120	-1632	-13376	3253	2025	343	-18456	1664	-11376	241	2015	450	112	122	1
16228	-24420	23232	527	-4473	-2110	-15152	1456	3296	-342	-121	257	-32768	2640	-15168	272	-2188	-1722	-8264	4584	13960	52	477	-211	-16248	5400	-11840	-1274	636	18	-19696	4032	-11648	-2	2331	-232	86	124	1
19460	-11668	12164	31	-3812	-2579	-11960	-2944	-672	404	-1466	-454	-27560	7056	-16192	7	-2740	-1753	-7480	7160	12976	88	495	-163	-20480	-3488	-9008	-1331	265	-127	-15848	6360	-6312	-687	2502	-115	128	108	1
9176	-9552	15048	-517	-3735	-2766	-3872	2480	-3976	1154	-2985	-489	-20536	8624	-15752	-437	-3356	-1372	-7264	7088	13048	54	508	-223	-18432	-3088	-4856	1094	284	193	-17376	344	-4016	-783	2762	390	120	94	1
684	-7220	16736	-767	-4244	-3013	-6296	1272	-4312	686	-3869	-225	-9216	8280	-13464	-679	-3154	-1109	-7464	6768	12376	34	532	-252	-16952	3832	-3064	1736	291	283	-16280	-5192	-4096	100	2810	543	97	71	1
-4612	-5560	17176	-864	-4886	-3264	-5384	3392	-5784	493	-4766	-307	-3496	2776	-13504	-564	-2513	-1051	-7400	6888	12856	17	592	-314	-15800	4688	-1840	870	245	213	-14704	-4536	-1032	1543	2975	766	91	68	1
-7444	-1884	17620	-826	-5348	-3359	-5328	3184	-5800	207	-5346	-209	-4984	2496	-14040	-391	-2268	-1176	-7592	6824	12904	-35	643	-398	-17936	160	-1384	368	241	62	-14240	-4448	1864	1919	2720	546	93	64	1
-9592	-968	18288	-978	-5766	-3269	-7696	4000	-7128	387	-5950	-341	-448	2656	-13696	298	-1999	-710	-7936	5080	13216	24	698	-463	-16152	-4944	-1888	964	430	123	-13880	-4376	2096	1694	2593	476	95	70	1
-13252	-2960	21000	-1175	-5898	-3026	-11280	4928	-9056	264	-6342	-185	1608	4128	-13104	1011	-1806	-317	-9344	4672	11136	89	710	-394	-15120	2608	-2192	1139	551	140	-14608	-1968	424	345	2431	577	100	83	1
-19288	-5588	25252	-1187	-5985	-3144	-11312	4904	-9832	175	-6376	-123	2424	2192	-13600	1576	-1666	40	-9144	6568	10384	47	586	-396	-13248	5376	-2304	428	733	-36	-20304	2480	-3504	1678	3004	803	103	90	1
-25680	-9156	28072	-1016	-6124	-3505	-17744	-904	-12104	102	-6984	-106	-240	2080	-11112	1912	-1730	35	-8848	8040	10456	-74	419	-509	-15888	1688	-1224	319	829	-61	-19512	3800	-3112	1152	2170	963	107	91	1
-32192	-13172	26336	-526	-5911	-4144	-26344	-3648	-13664	1094	-7013	54	-2616	1008	-7592	1595	-1490	-88	-9256	6384	11496	-126	368	-658	-16256	80	-1280	1244	1164	34	-18920	512	2920	938	1866	545	109	99	1
-32768	-14888	24028	299	-5073	-4832	-28968	-4192	-18312	2317	-6613	580	-6592	-1152	1272	1614	-1708	-381	-9248	4992	12504	-131	483	-679	-17016	768	728	1406	1297	-21	-16328	40	4720	1179	2330	469	120	114	1
-32768	-10820	17080	1026	-4264	-5342	-23792	1440	-21592	2446	-5395	1204	-7608	-1824	2392	1643	-1749	-452	-9088	5176	12984	-174	707	-670	-16112	2832	2944	995	1674	-270	-17096	-1760	5016	1057	2190	342	124	127	1
-32768	-3444	-1696	1668	-3536	-4797	-22176	-8040	-23816	2067	-4380	839	-30688	1368	29480	1806	-3753	-619	-8600	5776	15496	-276	1135	-676	-18608	2600	2192	129	2075	-572	-21784	-1968	2144	850	1587	566	123	125	1
-32768	10664	-19348	1215	-1950	-2919	-11624	-7808	-30368	2428	-2546	731	-24688	20232	19720	1008	-2221	-1068	-8856	4952	16816	-303	1818	-817	-24008	-1768	-632	-487	2401	-747	-26240	504	648	769	1288	180	114	115	1
-32768	13560	-25580	-731	-993	-778	-1968	-264	-29944	215	-388	218	-14112	-3840	32767	388	143	405	-8416	6208	18568	-268	2596	-953	-24432	-200	-40	-452	2705	-884	-24296	6232	2112	303	883	-291	116	112	1
-32768	14364	-25172	-1103	-34	1252	-1768	-4240	-30360	-2114	1740	-907	-20576	7528	10360	515	1400	276	-8064	11040	17696	-308	3387	-1408	-26304	4560	2728	-466	3010	-1044	-30752	3512	8576	-219	-34	-274	112	103	1
-32768	628	-11468	-1666	675	2443	-9392	-12336	-28304	-2156	3303	-1013	-16752	9744	-5576	-1987	1893	178	-7440	14264	16552	-324	4190	-2410	-27184	3128	5424	-429	3425	-958	-27832	-480	15488	-375	-834	-380	87	78	1
31672	-4960	32767	1951	3622	2791	-32768	10736	32767	-605	1781	-160	-17016	9944	2792	-2647	2291	226	-216	19320	18464	-173	5154	-3886	-32768	1456	8904	304	3711	-721	-29256	-2560	27760	79	-2046	-328	83	63	1
-32768	22756	32767	1450	5584	3011	-13992	-13760	-30200	6650	3321	-589	-32768	-32768	7224	429	-132	-1443	-14552	16544	23616	-113	7286	-5469	-32768	-4184	18904	2203	3710	-530	-28192	-15528	23104	-3462	-1897	-704	37	27	1
-32768	-19476	24632	784	3317	2031	-12280	17336	-21328	2532	3970	685	-28560	23232	-11080	4583	1646	-274	-32768	4472	22952	489	8257	-5974	-31216	2736	-12656	2413	4191	-284	-19656	-5560	5032	3855	-2133	-879	26	18	1
-14876	15664	25564	1128	999	772	-25832	-6752	-19216	1296	3042	-1450	-11120	14328	-19984	619	1750	-840	-32768	32767	28616	1071	7424	-5557	-32768	22760	-2680	2623	4215	-1095	-32768	11056	-21136	4861	-2219	-404	71	67	1
-10484	-12928	12872	521	389	265	-8792	-1400	-15112	-1341	2349	-653	-10392	3592	-17832	-711	1391	1182	-19376	32767	31176	-317	4075	-5737	-29632	14224	-11824	-431	3222	-279	-30648	7568	-15712	3016	-2696	754	193	195	1
-9076	-4688	14580	221	121	96	-8280	-3440	-15456	-1512	2281	-587	-21056	-872	-16680	-651	1893	-502	-32768	32767	32767	-899	-166	-396	-18872	-2504	-20128	-1606	2650	-400	-32768	9304	-12904	-91	-3459	1200	195	199	1
-7972	-6256	13468	31	106	-4	-20808	-7432	-11072	-2369	1270	-884	-16808	-7592	-12776	-450	2119	-419	8240	24208	20376	-878	-2219	2608	-14912	2632	-656	-222	692	-1047	-32768	2040	-14712	-1150	-2979	694	188	185	1
-7560	-4344	14688	-106	190	-42	-15784	-13416	-9240	799	962	-269	-21352	-2480	-8680	1022	2374	361	11424	14680	13640	-398	-2490	2869	-11384	2520	-1112	-447	-963	26	-23608	-2600	-14728	-842	-3060	883	169	180	1
-8068	-4388	14304	-257	257	-89	-17120	1912	-7744	1591	878	-16	-18704	6192	-4176	1033	2431	793	6728	13456	13888	-255	-3282	2612	-4296	3304	-3744	-607	-2161	273	-21824	-2368	-15016	-443	-3283	912	161	171	1
-7704	-5592	13768	-310	309	-73	-17736	544	-4728	-369	588	-269	-13952	704	-1456	381	2445	155	2536	9080	11960	127	-4212	2498	-5056	1960	-3744	-805	-3108	429	-13128	-288	-15864	-835	-2988	398	160	148	1
-7084	-6408	13492	-253	347	14	-14592	-2136	-2752	-1524	379	-506	-16664	392	-1360	-41	2335	56	-472	7392	10104	876	-4757	2551	-6744	-1432	-3672	-745	-3973	659	-8856	272	-15416	-974	-2882	375	134	135	1
-7400	-6664	13072	-178	383	115	-15744	-8120	-2000	-1587	420	-483	-16752	-672	-528	-435	2274	28	-5832	9448	10888	1349	-5257	2808	-5696	-2968	-6592	-260	-4567	857	-5472	-936	-14360	-1141	-2260	457	142	134	1
-7408	-7168	13068	-109	426	208	-16768	-8896	-1504	-329	534	-201	-14152	-664	1704	-888	1938	221	-8168	10872	12048	1385	-5610	3289	-6720	-2256	-8056	380	-5179	1099	-3496	-248	-15112	-1149	-1769	417	141	133	1
-8184	-5924	13244	-39	426	285	-16616	-7584	-1544	-160	548	-149	-12728	1288	2240	-953	1628	331	-10536	10312	14416	1433	-5633	3643	-10816	-1384	-8824	671	-5868	1421	-2312	1040	-14856	-1415	-1402	293	140	136	1
-8656	-5472	13180	-5	449	297	-13904	-1952	-3792	-582	688	-243	-11552	-128	5400	-840	2040	193	-17288	11576	17920	1853	-5581	3833	-12960	-1888	-11336	518	-6301	1737	-1848	1168	-15888	-2182	-1026	176	126	124	1
-8292	-5716	13028	-35	455	319	-15624	-3336	-2520	-907	796	-273	-19808	-1936	-1816	-1360	3137	550	-24424	13064	21464	2341	-5617	3969	-16736	-888	-11640	283	-6517	1995	-2416	296	-16200	-2458	-929	-75	122	121	1
-7936	-6708	13528	-58	455	390	-15936	-4112	-3104	-865	903	-251	-21648	-1656	-3520	-1499	3130	636	-28296	18080	24168	2450	-5474	4342	-23704	352	-15616	-522	-6699	2224	-2568	-2608	-12008	-1880	-1135	-306	139	140	1
-8780	-5460	13312	-132	555	467	-17736	-1696	-3352	-862	1035	-240	-16616	2640	3048	-254	1501	-165	-32768	21160	25624	1923	-4837	4720	-32056	-2752	-19176	-1466	-6931	2249	-2024	-4392	-6544	-1237	-891	-254	155	141	1
-8884	-5212	13456	-174	701	469	-15288	-1920	-1600	-1101	1219	-243	-14816	-208	7160	-908	2196	-101	-32768	4872	23504	2355	-3767	5294	-24168	-3184	-22352	-1996	-6319	2005	-7848	1176	680	-876	-774	-103	138	140	1
-8752	-5656	13832	-186	941	450	-14800	-4248	1152	-1024	1562	-213	-15736	-3376	7528	-1195	2282	465	-32768	5312	14672	1443	-2775	5880	-23040	-4120	-25224	-1720	-4797	1005	-29720	3472	17232	-1118	-2989	653	132	137	1
-8296	-6520	14920	-157	1358	552	-18496	-4808	3640	-567	2029	-123	-23648	-3584	11488	-555	1630	291	-32768	-24960	-11216	-241	-1756	4269	-11552	2696	-29080	-2382	-3202	370	-32768	-6152	19944	-936	-3502	1364	126	132	1
-8244	-6064	16188	-183	2088	685	-21424	-3096	4376	79	2650	22	-27624	-2184	14224	-232	1213	215	-32768	-29920	-16368	960	-493	1385	2016	-1656	-32768	-2590	-813	250	-1232	-6416	32767	-1291	-444	594	104	102	1
-7924	-5728	17352	-223	2997	992	-20936	-1656	3760	413	3212	9	-25160	-2328	15320	-113	551	229	-32768	-23048	-14264	18	405	-34	-128	-10552	-32768	-118	2268	105	-19336	-14584	14872	-1736	2130	167	50	36	1
-7040	-8888	18392	-289	4127	1438	-25672	-344	3752	234	3705	-212	-25448	-1168	19176	199	-599	-15	3920	-29672	7056	-4282	3583	-2245	-23944	5568	-7312	1557	4056	94	-25432	-6112	3704	1079	519	-142	48	31	1
-4116	-11288	22168	-501	5600	2453	-32768	72	6320	-261	4023	-573	-26472	-2840	32767	-85	-2167	64	-32768	-32768	32767	-3343	5202	-4111	-32768	-12192	-9648	-3934	2889	-696	-21104	26904	1656	-157	1323	2250	120	119	1
-228	-13520	27448	-911	8024	4068	-32768	3016	17384	-1645	3912	-606	-32768	8712	-6056	-262	144	656	-19752	4224	22488	-729	3408	-2022	-6288	-31032	-26696	-3832	4201	-1295	-18256	-4776	-26440	-3039	1896	-1263	156	192	1
-28864	-13328	23420	-1616	10305	5489	-32768	-1408	3336	-3201	3767	-710	-26160	17488	11696	-1201	-1831	1014	-32768	27168	17768	-1429	2987	-2000	-5728	19032	-27568	-1725	2709	-1101	-3832	-19104	-15216	-855	-381	-209	166	187	1
-32768	-14560	26748	-3426	10102	4639	-32768	-12384	-5808	-4280	3940	-523	-29152	-5184	-20664	-4448	-1747	822	-9536	4560	16152	-884	896	-906	-13824	-7168	-19288	-2402	2162	1071	-10904	16440	-22040	567	1396	-652	158	155	1
-32768	-32768	32767	-2971	8054	4844	-30560	-25616	-7680	-1279	2416	-844	-32072	2328	-10088	-2735	-2566	-469	-9960	-480	17296	-521	614	-480	-26072	-12496	-13976	2222	2462	-432	-30352	7400	-20448	-576	2258	1740	143	138	1
-15040	-32768	32767	34	1422	3106	-17200	-8312	-26608	1457	1771	-498	-32768	232	-10144	-698	-2217	-1127	-9864	3240	14528	-210	466	-304	-15968	8992	-12952	2200	1510	434	-17224	2360	-9368	-59	1904	764	119	132	1
3932	-32768	32767	569	-5640	-2000	-12520	1792	4272	-381	761	129	-32768	-4304	-14904	645	-2047	-1594	-8976	4328	14040	120	389	-223	-14296	4824	-11760	-740	1022	118	-16800	0	-12024	-327	2186	-212	87	132	1
14908	-10312	13896	499	-5569	-2797	-13552	-6112	1080	-195	-1428	237	-29016	7168	-15416	760	-2666	-1626	-8048	6768	12632	266	457	-162	-21344	-1040	-10288	-1972	393	-183	-16280	4472	-9048	-704	2533	-269	124	115	1
13036	-7008	9848	-52	-4680	-2578	-6352	1520	-1120	706	-2864	-388	-21224	9920	-15072	-18	-3163	-1309	-7544	7936	12360	168	509	-182	-19176	-6672	-7912	149	344	176	-17864	1232	-5688	-990	2870	237	127	102	1
1968	-8088	12628	-395	-4682	-2426	-2792	696	-3816	347	-3620	40	-10808	7456	-13592	-342	-3385	-915	-7736	6752	12544	121	564	-257	-17360	1392	-4744	2067	333	433	-17512	-5224	-4696	-123	3049	760	97	69	1
-5104	-8424	13560	-541	-5207	-2578	-4768	-576	-5176	449	-4382	-209	-3424	5824	-13224	-556	-2734	-1164	-7936	6568	12408	111	621	-290	-16656	5240	-2408	1810	205	494	-14440	-5584	-312	1534	3092	990	88	63	1
-6516	-7804	12904	-477	-5562	-2893	-4960	144	-5856	529	-5066	-187	-3152	1704	-13424	-689	-2233	-1037	-8096	6848	12384	43	670	-344	-16976	3736	-440	787	306	217	-14824	-4272	392	2162	2790	585	95	66	1
-8984	-7104	13940	-544	-5536	-3321	-7936	32	-7008	969	-5687	-312	-2648	-792	-13664	-36	-1846	-865	-7968	5296	12568	72	676	-402	-16648	-1696	-1128	987	478	188	-13200	992	3872	864	2064	421	97	77	1
-12252	-6760	17180	-652	-5572	-3543	-9304	2880	-8752	542	-5867	189	-328	1200	-13160	779	-1743	-514	-9544	4912	11216	133	728	-345	-14624	512	-1824	1098	606	216	-12712	1504	2944	192	2090	785	105	85	1
-17316	-9144	20384	-794	-5720	-3677	-12528	-1760	-9880	581	-6322	140	2224	840	-13752	1500	-1613	-205	-9344	6984	10248	121	643	-289	-13712	7120	-752	668	828	-18	-18104	2696	-864	1425	3069	914	106	91	1
-22344	-11960	23132	-643	-5711	-3806	-18832	-2176	-11536	991	-6754	141	288	256	-15088	2444	-1588	-297	-9256	8224	9816	-4	497	-418	-14512	3616	-1224	216	884	-42	-19736	3560	-4352	1250	2521	864	107	87	1
-30920	-15696	26860	-420	-5649	-4195	-24600	-5456	-15744	1528	-6963	166	-4104	1752	-9632	2370	-1465	-350	-9384	7440	11264	-122	440	-582	-16624	1560	-2096	821	1200	-46	-19480	1952	632	954	1927	516	108	96	1
-32768	-17096	26920	126	-5450	-4878	-29216	-3400	-18472	1351	-6805	616	-8424	112	-976	1706	-1615	-585	-9720	5216	12040	-122	569	-615	-17208	-712	-464	1255	1385	-47	-16792	544	3968	1201	2201	636	124	122	1
-32768	-12496	19064	590	-4861	-5134	-26320	-11696	-20344	1022	-6139	1026	-13616	-3648	832	1045	-1417	-771	-9424	5000	13752	-95	859	-573	-16992	2808	1048	989	1678	-217	-15672	-1224	3056	1068	2206	319	124	126	1
-32768	-8328	-208	820	-4078	-4097	-23496	-8560	-22880	1484	-4862	534	-29936	728	27168	1308	-3585	-952	-8680	6240	15336	-73	1340	-623	-20800	2568	2352	83	2006	-503	-25760	-3048	2976	747	1593	520	127	128	1
-32768	6304	-17940	-149	-2770	-2608	-13200	-4456	-31888	1919	-3203	-121	-30440	23216	17760	1726	-2976	-1159	-8720	5872	16440	-21	2035	-779	-23184	-672	1032	-328	2393	-662	-27312	1856	4360	566	1347	124	120	121	1
-32768	17012	-25088	-1734	-1222	-1764	-640	1952	-31592	-443	-818	-235	-7432	-5344	32767	113	-269	377	-8440	7536	17064	2	2791	-977	-23592	1488	2560	-252	2763	-774	-24904	2776	5776	292	833	-5	121	117	1
-32768	19424	-27524	-1221	28	136	-1576	-5880	-30528	-2189	1521	-1027	-17984	5176	15472	148	1536	-193	-8064	11120	16816	20	3564	-1406	-24968	4224	4696	-413	3143	-966	-29072	1376	9792	34	-36	-143	121	115	1
-32768	9352	-11844	-1559	986	1778	-8720	-7600	-32768	-668	3504	-395	-20976	7592	-4072	-1400	1966	-64	-7664	12952	16264	139	4324	-2340	-27144	1232	6304	-312	3531	-843	-27584	-1200	14288	-110	-927	-292	82	72	1
22576	-23580	32767	3644	3074	2591	-32768	19608	32767	-1682	2439	-626	6304	8400	-32768	-3881	5756	-4	-3952	15400	21776	300	5630	-3768	-32768	-3008	7232	650	3770	-570	-26912	-5872	29648	335	-2105	-409	84	65	1
-32768	32767	26140	2990	6246	4785	-20872	-32576	-23920	5689	2662	-687	-32768	-32768	22040	-225	-67	-757	-20976	16904	21872	220	7722	-5061	-32768	-3032	16472	2626	3811	-479	-24912	-16832	26056	-2031	-2470	-635	46	46	1
-32488	-12276	16280	1186	3397	3126	-10664	-23456	-29472	6456	2931	-493	-20168	6296	-3664	5113	926	-694	-32768	10720	24872	618	8333	-5379	-32464	3504	-6368	1830	4268	-444	-16488	-1424	3816	4805	-1558	-907	10	14	1
-17976	29832	32408	1794	1287	957	-32768	-13216	-24528	1481	3191	-1509	-13488	13432	-17536	2238	2570	-879	-32768	32767	31480	1205	7582	-5378	-32768	19920	-1112	1580	4138	-1027	-32768	14536	-22632	5406	-2189	-252	57	49	1
-9024	-16704	12244	405	479	221	-7352	4112	-14760	-1194	2504	-316	-10280	13544	-20088	79	1168	806	-18256	32767	32767	-151	4743	-5660	-32232	12144	-3736	-46	2821	-284	-31704	11568	-17904	2964	-2984	828	174	183	1
-10208	-6976	14192	158	187	102	-12864	2352	-17048	-2677	1943	-1012	-19688	4944	-16712	-1163	1874	167	-32768	32767	32767	671	-1055	-2023	-16176	-2224	-24176	-1463	2472	-389	-32768	5952	-11768	-1224	-3724	798	202	202	1
-7928	-6516	13380	-93	111	-58	-20592	-8312	-10960	-3127	1348	-1102	-14528	-6952	-12472	-1382	1886	-323	7632	28848	21400	26	-4525	945	-15552	192	1184	997	406	-861	-32768	-2264	-15160	-1685	-2981	407	187	186	1
-7004	-5840	13656	-160	200	-38	-17808	-14160	-7312	277	921	-265	-21360	-7456	-10208	36	2369	341	13848	17648	11120	143	-4518	1714	-12072	152	1168	1238	-1368	196	-23152	-8136	-16104	-452	-3061	688	182	183	1
-7968	-5364	14060	-246	297	-14	-15584	-3848	-6672	1550	926	50	-19712	1000	-5320	711	2296	756	8600	16760	10608	617	-4404	2211	-5688	1192	-2416	900	-2529	455	-22488	-2528	-15936	20	-3354	623	165	176	1
-7896	-5896	13524	-238	287	5	-18200	936	-4816	-261	672	-134	-14240	-280	-2088	309	2359	85	1976	13720	10480	548	-4636	2734	-4688	2520	-3872	434	-3579	735	-13912	-1264	-17016	-398	-3040	226	156	150	1
-7748	-6944	13148	-176	289	49	-14296	-2160	-3296	-1349	472	-385	-14648	328	-2072	-137	2361	93	-5032	11480	11000	1046	-4976	3385	-6904	1048	-5664	-142	-4368	1153	-7240	-112	-16344	-768	-2795	150	147	140	1
-7692	-6592	12972	-105	301	94	-14656	-6912	-3064	-1367	502	-394	-17464	704	-848	-512	2159	202	-8112	11288	11464	1284	-5477	3907	-6088	-392	-6680	-435	-5066	1315	-4144	-272	-15360	-1043	-2090	299	142	137	1
-7348	-6820	13080	-60	341	157	-17632	-7280	-1600	-238	527	-78	-14296	1208	-1216	-671	2106	390	-10728	9408	14248	1506	-5701	4257	-8208	-312	-8280	-411	-5700	1524	-2336	912	-15104	-1176	-1630	259	138	137	1
-7800	-5496	13524	-64	420	236	-16472	-1592	-3864	113	584	-122	-12680	-1408	-1024	-731	1805	562	-15040	8552	17080	1896	-5759	4337	-12832	-3248	-9432	-444	-6290	1740	328	1512	-15544	-1892	-1281	-23	135	131	1
-8608	-5188	13216	-111	452	216	-14496	-496	-3856	-518	616	-140	-13872	-344	3856	-377	1963	393	-21680	9736	22144	2240	-5701	4170	-16384	-5736	-11992	-85	-6602	1921	1800	1720	-15168	-2661	-951	-217	126	125	1
-8116	-6480	12836	-126	434	276	-14672	-4448	-2448	-982	691	-256	-16248	-760	2128	-720	2972	445	-27744	12520	25264	2440	-5692	4180	-18984	-2088	-13352	203	-6678	1907	-1728	-560	-12168	-2145	-1042	-279	137	143	1
-8544	-6740	12548	-104	402	335	-15200	-3784	-880	-974	852	-219	-17632	320	-888	-1264	2347	660	-32768	17552	28080	2048	-5268	4418	-32104	944	-18456	26	-6813	2153	-5400	-1656	-5304	-1040	-1486	-159	145	145	1
-8204	-6128	13424	-74	462	417	-14712	-4272	-384	-919	1089	-201	-20120	-296	3640	-768	1478	261	-32768	16448	22752	2009	-4834	4496	-29376	2184	-17728	-688	-6498	2120	-6640	-424	-1456	-495	-1157	35	158	142	1
-8588	-6076	13672	-85	642	465	-17024	-3272	-48	-859	1366	-145	-20264	-1552	7232	-1059	1799	90	-32768	4120	14512	2137	-3657	4942	-22720	4416	-24392	-2500	-5536	1577	-13216	5152	2912	-500	-1234	400	143	136	1
-8472	-6232	14348	-139	922	488	-17752	-2328	1328	-830	1710	-85	-16432	-3840	9168	-1005	2279	120	-32768	-1504	-376	465	-2181	5229	-21808	-4640	-27128	-2181	-4209	767	-32768	640	23272	-1665	-4005	989	138	137	1
-8364	-5620	15928	-170	1447	541	-18696	-4288	4800	-545	2223	35	-23040	-2120	13472	-518	1895	168	-32768	-23880	-16752	47	-488	3816	-6048	-392	-31776	-2353	-2457	342	-29232	-20120	18464	-632	-2057	1099	129	140	1
-7748	-6548	16716	-158	2262	746	-20352	-3672	4432	239	2888	107	-26680	-2016	15224	-228	1109	292	-32768	-24600	-15024	1015	361	1448	1568	-184	-32768	-2163	373	232	-7280	1216	27864	-947	464	229	94	85	1
-7504	-6572	18216	-208	3232	1053	-22968	-1688	2312	628	3428	38	-25896	-3264	14168	-31	347	245	-32768	-19704	-11072	244	1151	-129	1640	-3640	-32768	-1994	784	195	-16896	-8408	5160	-1666	1744	-163	51	39	1
-6416	-9540	18812	-336	4456	1649	-28728	232	3968	225	3814	-201	-25392	-2304	19160	357	-905	105	-32768	-6848	-384	221	1706	-1263	-10752	3696	-26584	447	3839	155	-12688	-4848	19024	440	333	100	72	41	1
-3280	-13440	20696	-581	5879	2751	-32768	1624	4792	-412	4048	-576	-25216	-3264	32767	354	-3338	146	26776	24088	32767	-4215	2612	-1020	-31112	-4920	28824	1432	3170	-394	26784	25488	-32768	4258	4607	464	117	116	1
-460	-16684	22304	-1111	7904	4486	-32768	5792	14360	-2291	3962	-927	-19528	20576	-10984	-1097	-1018	659	-32768	-32768	32767	-3886	5726	-5695	-32768	9512	-32768	-4598	2246	1329	-32768	32767	29064	-6522	-3122	1466	151	186	1
-31256	-9816	22396	-2007	9985	5360	-32768	-2408	872	-4057	3817	-691	-24928	9856	9664	-2839	-453	809	-32768	29000	15416	-2077	3674	-2320	-16224	-32768	-27904	-3889	4432	-2520	-32768	-32768	-6616	-7105	1341	363	159	210	1
-32768	-12284	27316	-3138	9905	4707	-32768	-15296	-4248	-4350	3978	-424	-30048	-10480	-20840	-5882	-959	1314	-11936	-27224	31808	-728	1410	-1063	-23320	-10416	-17992	-3190	2641	155	4528	-11368	-19488	3081	1033	-330	143	182	1
-32768	-32768	32767	-2080	7541	5110	-29568	-21328	-6944	-642	2668	-436	-32768	1392	-9568	-1985	-2476	-515	-13368	10544	11880	-390	968	-522	-7920	-640	-19904	2140	2758	792	14120	7568	-20704	3054	742	-405	149	129	1
-16668	-32768	32767	-78	783	3320	-17256	-8184	-23680	1562	2052	-258	-32768	-720	-10696	236	-2478	-1215	-9384	9176	11912	-226	591	-391	-17848	9592	-17848	2260	2276	652	5216	11456	-21312	2963	1158	-539	131	120	1
6156	-32768	32767	97	-5527	-825	-15304	648	3568	-218	788	262	-32768	504	-12504	1041	-2316	-1718	-10096	7832	12144	-152	430	-266	-20440	8512	-14200	957	1193	378	-25432	21584	-19184	-192	2344	1552	102	119	1
16716	-16380	14696	644	-5313	-1586	-13312	-5392	-424	9	-1342	118	-32768	10112	-17072	121	-2357	-1737	-8392	5832	13752	-63	394	-260	-18448	2136	-10680	-1109	608	-339	-22296	1600	-13416	-1555	2692	-648	133	120	1
12028	-12576	13244	115	-4605	-2324	-5872	712	-3832	1055	-2893	-126	-22352	5216	-16128	-372	-3082	-1139	-7672	4696	14280	123	552	-214	-19360	-8288	-8504	-667	322	113	-17176	-9472	-5608	-1114	2635	237	122	99	1
-4	-12364	15464	-329	-4837	-3159	-4640	360	-5304	727	-3856	331	-13744	3256	-15360	35	-3244	-955	-7824	5912	13216	258	723	-209	-19464	-2880	-5480	1060	216	313	-12944	-664	-2864	-390	3253	355	100	68	1
-6084	-11204	15272	-325	-5498	-3731	-5344	16	-5776	585	-4773	150	-5416	4680	-14840	315	-2957	-959	-8224	7600	11776	269	804	-238	-17688	4368	-2752	1609	254	259	-16832	-1824	-2504	431	3331	169	87	62	1
-6652	-10608	14896	-294	-5596	-3789	-5760	-600	-5432	376	-5435	96	-2896	4000	-13984	370	-2192	-907	-7120	8152	12176	125	797	-335	-16208	6504	-1224	1013	334	204	-17176	-1752	200	1056	2759	744	88	66	1
-10000	-5932	14708	-343	-5831	-3858	-7680	-1792	-7080	668	-6011	-1	-3184	4064	-14352	299	-1958	-863	-8544	7048	11128	34	797	-480	-15624	1792	-1056	681	372	30	-13304	1280	1816	634	2294	483	97	72	1
-14720	-7528	18456	-675	-5779	-3611	-11648	-56	-9400	984	-6423	96	-968	3200	-13136	740	-1736	-546	-9344	5736	11360	-8	767	-511	-14152	560	-2184	660	593	101	-9416	-168	4136	-164	1925	713	101	86	1
-21936	-11136	23364	-837	-6040	-3566	-11968	-136	-9592	908	-6464	170	2096	2880	-13568	1487	-1574	-164	-9816	4792	10304	5	687	-486	-13096	584	-2944	594	687	39	-13912	-3704	-1312	750	2865	785	105	92	1
-26936	-13204	25252	-990	-6197	-3864	-18640	-1560	-12936	600	-7036	18	1992	3360	-12952	2427	-1714	-113	-9792	6304	10272	16	612	-466	-15464	1824	-2896	563	846	22	-19552	-1360	-4960	1691	2762	829	107	95	1
-32768	-15928	25096	-892	-5770	-4472	-25896	-2704	-16184	950	-7132	54	-2056	3704	-5712	1731	-1993	-161	-9560	7120	10288	-55	592	-580	-16632	1040	-584	1188	1112	46	-21096	80	736	1321	2059	812	110	90	1
-32768	-14596	24452	-334	-5038	-4944	-25952	-4120	-18504	805	-6816	185	-5992	-2056	784	1042	-1917	-450	-9912	6640	10992	-133	659	-663	-15176	2248	1056	1315	1345	10	-16576	2680	5528	1405	2177	749	128	118	1
-32768	-9880	17448	149	-4684	-4923	-21856	-4088	-21832	1438	-5541	923	-9152	-2200	2056	519	-1581	-853	-10072	4000	12408	-151	889	-633	-16248	2608	2240	818	1725	-213	-16688	-1016	4504	1047	2326	671	130	129	1
-32768	-1852	-2856	478	-3908	-3893	-18640	-5272	-25064	1593	-4499	267	-28440	296	25928	1021	-3652	-1183	-9440	5928	14520	-111	1311	-634	-19768	2072	2920	-7	2084	-515	-24640	-2184	2256	779	1691	459	135	135	1
-32768	12516	-20416	159	-2226	-2285	-8696	-3232	-32768	1731	-2703	-49	-23488	17560	20688	512	-2417	-1478	-8992	6312	15960	-47	1937	-799	-22256	272	1872	-206	2512	-610	-27120	3016	4608	791	1061	64	127	128	1
-32768	17032	-24064	-670	-752	-1095	-2264	888	-32280	-327	-512	-79	-11640	-6480	32384	-256	235	306	-9008	7592	16944	-10	2650	-1080	-24160	2088	928	-155	2892	-717	-24984	1400	5712	539	701	143	127	119	1
-32768	-2092	-31496	369	1247	1150	-2440	-5584	-29448	-1544	1742	-715	-17272	4888	15064	164	1033	65	-8320	10496	17336	37	3473	-1594	-26728	2488	2464	-263	3196	-795	-28288	672	7864	281	132	-95	114	109	1
3340	32767	-20448	3042	4970	4359	-21680	-8976	10224	-715	3400	-801	-25624	2056	12728	-1100	294	101	-4664	14760	18600	152	4445	-2519	-31216	1120	5304	-56	3462	-732	-30088	1048	13752	239	-763	-231	83	75	1
-32768	96	32767	2115	5110	4281	-32768	-23464	-9928	3295	3685	-542	-32768	-416	-416	-258	1985	-2314	-3432	15112	20728	94	5999	-3874	-32768	-2360	8464	404	3560	-598	-32768	368	27088	229	-2556	-322	68	49	1
-27732	-11008	28336	514	3342	1716	-8376	31344	-22776	4551	4541	354	-4544	3448	-25536	-543	3060	903	-25384	20840	19984	86	7826	-5234	-32768	-360	13280	2147	3828	-367	-25064	-12432	27504	-3097	-2848	-883	33	27	1
-23632	-5640	23488	427	3138	1539	-9448	-23368	-24632	-523	3567	-367	1504	4328	-25208	1199	1123	378	-32768	6240	26016	957	8178	-5373	-31680	-560	-12416	1350	4198	-302	-13360	-8296	-512	4273	-1951	-978	28	16	1
-16612	12020	18932	969	240	606	-3696	-3936	-21312	1560	2671	-1612	-4768	-2352	-23504	-293	1124	374	-32768	32767	28104	1285	7327	-5580	-32768	23640	-2840	1797	4104	-647	-32768	6296	-19776	4951	-2734	333	137	137	1
-11444	-504	16424	624	50	241	-30528	5168	-21376	-1600	2211	-311	-32768	-6984	-24144	909	2533	-492	-15016	32767	32767	-75	4027	-5335	-27560	9496	-14448	-655	3008	-41	-30752	13304	-18752	4334	-2503	807	161	173	1
-8544	-5652	14048	226	22	65	-17632	-2880	-11728	-2034	1455	-437	-24200	4408	-11416	1138	1895	-519	-27064	32767	32767	333	-1437	-822	-19808	-4208	-16240	-869	2557	-450	-32768	5416	-13336	-376	-3349	1006	168	174	1
-7220	-3376	15536	29	113	12	-16608	-5040	-8856	-640	1142	-404	-18704	3160	-5280	892	2141	561	10240	24904	22752	91	-3793	1669	-14976	-2848	2000	998	346	-522	-32768	3240	-14072	-860	-3274	784	166	169	1
-8392	-3580	14160	-228	252	-61	-15728	-3656	-9528	873	1032	-265	-15288	5128	-4304	900	2419	378	14744	17448	15112	711	-3961	2250	-12400	40	1504	1527	-1385	548	-21744	-4608	-14112	-434	-3300	547	162	165	1
-8300	-4836	13836	-337	293	-103	-18744	-1816	-6304	734	829	18	-15864	-2760	-4104	638	2424	683	8816	16088	13296	754	-4233	2331	-5384	3280	-1624	1145	-2544	948	-22208	-6880	-15136	198	-3492	711	152	155	1
-7916	-6428	13356	-269	311	-22	-16120	-3040	-3784	-267	607	-221	-18504	-256	-2912	598	2398	278	1568	10352	13088	1088	-4793	2588	-6136	2312	-3432	149	-3540	1253	-11960	-2520	-15840	289	-3055	185	145	143	1
-8096	-6484	13032	-140	315	93	-13704	-2648	-3352	-1265	476	-323	-15768	2504	-1200	-172	2142	-61	-3392	10640	11824	1648	-5251	3119	-7728	-1000	-4880	-199	-4395	1462	-6224	448	-16112	-36	-2539	519	138	135	1
-7996	-5792	13248	-103	345	143	-16400	-6304	-2760	-1072	506	-287	-15144	2264	-504	-289	2220	-82	-6112	9592	12840	1690	-5430	3525	-7600	-2808	-6672	-123	-5084	1601	-4440	2160	-16296	-494	-1905	573	136	131	1
-8376	-5372	13400	-78	401	191	-16104	-5224	-3008	23	621	-124	-15632	1840	-128	-510	2228	156	-10008	8064	16424	1733	-5429	3910	-9824	-3208	-8200	23	-5732	1803	-2776	2640	-15040	-968	-1494	468	135	128	1
-8736	-5108	13176	-71	430	199	-15264	-1928	-3904	225	723	-70	-13760	3712	2944	-1035	1973	345	-16864	7896	21616	2037	-5498	4100	-12656	-5248	-11176	71	-6274	1962	312	2736	-16120	-2262	-1237	65	134	127	1
-8312	-5892	13056	-108	449	244	-15144	-1240	-3792	-432	769	-161	-15360	-504	1288	-1298	1944	536	-22568	6832	24576	2398	-5824	4043	-16576	-5760	-10528	335	-6455	2049	1504	1432	-15456	-3171	-1098	-354	127	128	1
-8940	-5860	12768	-112	492	264	-14784	-2520	-3744	-868	832	-233	-15608	-4088	432	-843	2282	713	-25440	11312	25144	2617	-5726	3988	-21128	-2336	-12320	250	-6662	2187	-1824	-800	-11520	-2501	-1336	-500	134	140	1
-9224	-5656	12336	-110	452	283	-14760	-4592	-3952	-828	930	-231	-15552	-2992	-584	-569	2707	447	-32768	16408	26880	2143	-5099	4208	-31968	-96	-16096	-551	-6635	2182	-4704	-2552	-4352	-1037	-1520	-185	141	144	1
-8988	-5700	12820	-101	486	334	-14576	-2648	-2808	-574	1069	-154	-14256	3264	256	-285	1945	185	-32768	13200	22584	1864	-4313	4938	-24400	-88	-18752	-1599	-6223	1664	-7016	-1176	1496	-387	-1376	18	141	141	1
-9068	-4804	13352	-144	626	331	-15536	-1424	-2048	-676	1301	-188	-17552	136	5008	-441	1721	138	-32768	8264	12912	964	-3306	5776	-22944	1544	-22608	-2738	-5313	941	-15720	3336	6512	-426	-1657	442	134	135	1
-8852	-5780	14220	-178	917	317	-18448	-2176	-392	-720	1590	-128	-21048	-2632	7840	-852	1991	495	-32768	-7560	-7816	-495	-1920	5515	-19000	928	-26360	-3218	-3993	357	-32768	2656	22120	-1816	-4049	1122	135	137	1
-8524	-4756	15852	-190	1478	427	-20312	-3688	3824	-620	2060	-107	-24432	-1432	14904	-580	1821	359	-32768	-23856	-18424	151	-76	3651	-2600	-1040	-32768	-3329	-1891	-159	-20624	-14184	25440	-1823	-1410	496	137	131	1
-8012	-7000	16580	-214	2248	656	-20136	-4824	6032	-30	2737	110	-26880	-2720	19232	-271	1184	155	-32768	-21464	-16904	608	600	1389	984	-3680	-32768	-1333	579	260	-9472	-4216	32472	-2069	-710	33	81	70	1
-7708	-7320	18552	-238	3227	1039	-22592	-2448	4520	467	3412	-49	-27040	-4000	19856	-115	432	-14	-32768	-16000	-11312	269	1337	-488	-5544	976	-32536	339	3070	393	-18888	-7384	-96	-1166	1610	-224	48	40	1
-6060	-9384	19556	-428	4523	1683	-31744	1792	5456	4	3873	-224	-26816	-2360	24552	294	-1018	50	-32768	32767	-19344	-5061	2965	-718	-10640	1352	-20008	407	3885	-87	-6224	-3024	-16112	-1493	3855	262	86	79	1
-2496	-11396	22484	-880	6236	2945	-32768	4056	6936	-1067	4094	-515	-22544	-4192	32767	1658	-3470	158	32767	7168	26768	-2741	6119	-1219	-32768	-4128	32767	967	1574	-974	1688	32767	-13152	2214	900	426	126	133	1
-1028	-17568	22688	-1261	8567	4770	-32768	5200	13760	-2900	3956	-646	-22408	21312	9752	-1331	-2326	1260	-32768	-616	32767	-1848	4453	-3517	-14384	-16976	-26160	-7711	2158	376	-32768	-21848	-2880	-7217	584	170	150	207	1
-32768	-13160	20176	-2035	10534	5291	-32768	-7824	-3936	-3899	3934	-365	-32680	-2736	-1632	-3379	-449	859	-32768	6536	22568	-2362	1895	-1701	-12296	6840	-20160	-1303	3799	-1577	-32768	-32768	-9752	-654	742	1381	160	192	1
-32768	-32308	30732	-2671	9653	5010	-32768	-21528	-7360	-3262	3718	27	-29896	-6976	-18760	-4331	-1751	926	-13912	15472	9592	-309	1017	-851	-21776	-21352	-20672	-1677	2429	856	6976	8264	-26504	3929	983	-586	146	153	1
-32768	-32768	32767	-1344	6034	4753	-24952	-19040	-11864	1437	3114	-698	-32768	5624	-5056	-710	-2722	-1381	-10616	4064	14480	-313	565	-492	-11184	3208	-19360	2249	2497	245	-8136	21472	-19952	2089	1551	-246	135	113	1
-32768	-32768	32767	223	-742	1379	-17504	-2752	-21032	1650	2162	-110	-32768	-768	-11960	444	-2205	-1603	-10016	6384	12944	-227	498	-333	-22568	14568	-15120	1877	1853	410	-29632	20344	-18128	7	2254	2003	107	121	1
21844	-28884	20964	763	-5118	-1697	-12984	664	2992	-429	-97	440	-32768	4664	-16312	775	-2151	-1610	-7696	5720	13216	-196	366	-341	-16584	7224	-11232	-898	1077	-334	-21760	7824	-11624	-1387	2238	44	105	113	1
17916	-13284	12392	710	-4423	-2045	-12088	-3392	-880	334	-1817	-393	-25984	9632	-15968	-83	-2715	-1534	-7976	6024	13928	-57	462	-315	-21584	-4944	-9984	-1563	695	-323	-20848	-6768	-8976	-1417	2286	-551	120	107	1
7064	-10708	15456	-85	-4415	-2598	-2800	2160	-4120	1143	-3151	-170	-21056	6592	-16632	-220	-3279	-1175	-7968	6080	13688	62	617	-294	-17536	-7688	-7656	155	479	205	-14000	-4728	-4232	-728	2718	452	123	95	1
-1068	-11476	15232	-375	-5079	-3142	-5152	-408	-3776	604	-3992	81	-8680	6560	-13528	17	-3291	-1026	-8184	6496	12752	103	712	-311	-19200	832	-5344	1332	448	194	-15896	-2488	-5800	-326	3017	135	95	72	1
-4576	-9008	13780	-224	-5555	-3380	-6144	1912	-4456	403	-4896	-196	-3872	6368	-13224	143	-2912	-1124	-8384	6440	12504	53	730	-373	-16544	4208	-3856	982	409	195	-16600	-2848	-4088	721	3063	487	83	67	1
-6248	-4224	14252	-490	-5648	-3513	-6728	1392	-5008	466	-5528	-123	-3160	4816	-14920	-134	-2226	-989	-8720	5912	12192	22	799	-454	-16496	1192	-2976	478	349	73	-14752	-2048	-1800	1498	3336	789	92	71	1
-9608	-5844	17552	-803	-5678	-3517	-9096	520	-7488	789	-6083	-272	-2928	4568	-14728	-133	-1904	-889	-9448	5032	11728	70	839	-467	-15464	-2216	-3584	661	479	99	-12272	-3040	1352	385	2596	492	95	84	1
-16368	-7112	23304	-900	-5908	-3375	-12920	3528	-10536	599	-6625	-93	312	4216	-13456	352	-1694	-495	-9568	5112	11104	85	848	-434	-14384	216	-3048	930	610	113	-10184	-3816	2224	-270	2165	457	101	84	1
-22728	-7252	28012	-1177	-6356	-3395	-16824	2952	-12544	-178	-7036	-186	1792	1816	-13280	1303	-1485	-201	-9624	6496	10200	58	800	-441	-14304	3376	-3512	725	811	17	-16136	-1136	-4200	1613	2906	610	110	97	1
-28424	-8884	28308	-1325	-6564	-3588	-19104	16	-12224	-570	-7332	-214	-192	2208	-12760	2104	-1579	-80	-9632	7048	10048	-35	705	-574	-16184	2792	-3664	558	827	29	-19568	5056	-4888	1700	2672	971	110	99	1
-32768	-15048	26208	-723	-6061	-4001	-26208	-5640	-14224	672	-7201	-308	-2688	2288	-5552	1269	-1682	-163	-10280	6552	10368	-99	686	-711	-16224	-560	-1584	1275	959	81	-19696	3056	-288	1048	2248	809	110	97	1
-32768	-15684	24976	90	-5157	-4572	-31744	-5376	-19496	2095	-6620	243	-8280	-3280	5600	1099	-2171	-619	-10072	4392	11752	-56	792	-724	-14968	1008	3688	1613	1336	44	-17680	1448	7336	858	1970	525	124	121	1
-32768	-6232	13476	370	-4331	-5204	-21232	-12416	-21520	2419	-5644	1106	-10320	-4184	3800	1486	-2037	-1047	-9880	4240	12992	-43	1070	-642	-15864	3152	5544	845	1862	-275	-20240	-3168	10488	605	1862	440	120	124	1
-32768	-632	-8712	1115	-2909	-4517	-15848	-4992	-26624	1926	-3915	489	-32768	1568	30840	1704	-3978	-970	-9352	4936	16096	-57	1623	-638	-21416	2744	4704	-251	2382	-636	-26304	-6480	7696	333	1447	450	127	124	1
-32768	16572	-22360	578	-1365	-2715	-8008	-10288	-32768	1867	-1880	295	-17248	6720	19704	489	-1518	-1064	-8912	7088	16888	-54	2420	-862	-25592	-736	2264	-774	2788	-818	-29152	2408	6944	608	1140	53	122	117	1
-32768	15940	-26204	-816	-509	-481	-1136	-200	-32768	30	468	13	-16080	3688	27024	-298	921	57	-8440	7920	17736	-47	3250	-1234	-25432	1488	2672	-502	3171	-872	-26376	4904	8184	188	520	-31	120	114	1
-32768	3508	-21612	-731	465	1582	-2672	-3992	-31200	-1936	2408	-760	-18944	5880	4208	-932	1906	449	-6760	12752	17064	-18	4127	-1966	-27408	4616	6000	-406	3503	-958	-29648	952	14392	-82	-588	-201	91	85	1
4408	14888	-4608	2545	4208	3806	-24048	-8488	15048	-2106	3309	-1265	-15352	6632	21696	-2303	2555	-18	-4096	16312	19096	42	5354	-3396	-31872	1080	9320	38	3804	-658	-27768	-1968	25640	157	-1765	-490	75	61	1
-32768	8384	28956	2104	5472	3741	-32768	-32768	-14856	4234	3146	-745	2408	12200	-14592	-2918	4630	-190	-19680	12936	23608	-33	7366	-4874	-32768	-2104	20360	1751	3899	-425	-30960	552	18088	-149	-3477	-191	64	54	1
-22652	-10932	22360	548	3734	2463	-1712	21488	-30440	6122	3973	864	-12424	-592	-14128	3042	664	-50	-32768	9376	22696	-126	8457	-5798	-32768	4976	-5672	1819	4234	-270	-20480	-8952	1688	1994	-1305	-975	1	1	1
-22372	3236	22704	1843	1484	1163	-16792	-21712	-26656	1148	3342	-787	-10912	11944	-23104	2565	2222	-860	-32768	21224	32512	1402	8210	-5309	-32768	16184	-2984	1748	4595	-1024	-32768	2672	-12624	3918	-2448	-313	32	25	1
-19796	12168	27824	1599	1152	1019	-16320	7352	-16848	-521	2475	-1314	-16480	9032	-22568	715	1319	330	-31984	32767	32767	104	5707	-5384	-32768	8976	-8776	-126	3227	-517	-31768	7728	-21464	3340	-2496	556	151	155	1
-10964	-5332	14748	259	155	131	-16544	2176	-17128	-2093	2063	-650	-23160	6904	-16888	-132	2096	262	-32768	30880	32767	-1024	486	-1822	-19400	-2696	-26856	-1524	2458	-190	-32768	4496	-10872	233	-3615	1075	184	188	1
-8092	-6536	13388	65	130	28	-16904	-5168	-12360	-2753	1438	-812	-15856	-3240	-10680	-763	1878	-423	3736	23768	25528	-314	-3448	1525	-17248	-600	-624	455	993	-1021	-32768	-1264	-14056	-846	-3241	731	180	179	1
-7112	-4940	14304	-60	195	-12	-19400	-12960	-8600	-816	1041	-713	-19288	-2728	-9232	-92	2379	170	12976	15136	14296	420	-3844	1855	-13384	-192	-1192	816	-816	81	-26064	-4640	-16160	-369	-3325	579	175	178	1
-8668	-5472	13884	-237	279	-54	-16088	-4808	-8816	1541	910	26	-18840	-2376	-7728	456	2528	740	9296	16008	13088	681	-4304	1801	-5872	1768	-2792	848	-2070	503	-25184	-4152	-16600	-191	-3603	850	161	168	1
-8000	-5900	13792	-246	276	-53	-17472	-1296	-5480	463	717	-14	-16488	-4528	-4256	721	2599	367	4544	11904	11424	784	-4801	1901	-3968	1320	-2920	542	-3172	819	-15456	-2776	-16688	-181	-3270	186	160	150	1
-7244	-7420	13040	-119	315	65	-16128	-3280	-2760	-689	514	-239	-16440	1008	-1584	631	2518	33	-848	9128	10296	1495	-5106	2426	-5640	-992	-3984	250	-4099	1255	-9296	-1552	-16360	-368	-3106	288	155	143	1
-7564	-6528	13312	-25	371	183	-14760	-2312	-3144	-1270	413	-412	-16664	3416	-1048	-52	2416	158	-6136	10816	10808	1877	-5441	3058	-5280	-2616	-6248	333	-4741	1421	-5200	-568	-16376	-693	-2485	258	145	136	1
-8144	-5312	13528	-23	410	215	-16144	-5592	-2824	-686	494	-266	-15216	3136	744	-366	2335	255	-7992	10736	12896	1785	-5624	3666	-6480	-944	-6720	543	-5315	1649	-2856	1104	-15584	-850	-2029	228	140	139	1
-7912	-5244	13760	-48	471	252	-16736	-2688	-2560	64	606	-161	-13320	3496	1216	-1022	1881	568	-12088	8536	16368	1875	-5691	4104	-9352	-1368	-8872	226	-5987	1975	272	1600	-15184	-1270	-1456	95	153	155	1
-8564	-4660	13548	-137	540	315	-15624	-1848	-3512	-78	632	-183	-14728	-712	2192	-981	1910	521	-17328	7960	20376	2464	-5808	4309	-12240	-3776	-10040	35	-6404	2116	2488	1192	-16088	-2298	-1197	-167	148	148	1
-8952	-4660	13100	-164	628	288	-15200	-1096	-3616	-700	726	-249	-16512	-2040	3616	-478	2597	347	-23096	10064	24744	2899	-5891	4295	-16960	-3768	-11992	-58	-6683	2177	704	976	-14920	-2585	-995	-315	144	141	1
-9076	-5564	12220	-226	575	291	-14304	-3496	-2520	-1076	858	-263	-15672	-48	-992	-948	2659	307	-24360	10496	25560	2932	-5889	4310	-26976	-144	-15024	-101	-6906	2246	-232	608	-14376	-2513	-1027	-301	142	142	1
-8836	-6356	12684	-156	582	362	-13744	-4896	-2360	-886	1018	-255	-16072	1824	-16	-770	1986	114	-32768	17224	27368	1679	-5252	5069	-31544	-1336	-20592	-1097	-6881	2177	-6592	680	-2904	-468	-1288	123	139	141	1
-8868	-6144	13388	-151	724	425	-17408	-2944	-1504	-873	1215	-243	-18920	-624	3904	-1185	1931	65	-32768	7032	19352	2016	-4264	5604	-30856	-1312	-19848	-1182	-6767	2066	-7896	6424	-1568	-399	-853	673	134	138	1
-9320	-5740	13744	-164	992	511	-17896	-2128	680	-1119	1494	-229	-21768	-4128	8200	-1273	2106	169	-32768	4000	6344	884	-2899	5376	-20256	144	-24792	-2818	-4954	579	-20768	2264	14680	-479	-2489	1093	130	135	1
-9020	-5024	14896	-191	1402	585	-16832	-3712	4032	-1028	1962	-150	-20984	-3168	14224	-763	2008	210	-32768	-17232	-12112	56	-1298	4312	-11296	-2296	-31992	-2446	-3176	453	-32768	-10464	24632	-1847	-3529	891	101	110	1
-8436	-6496	16220	-206	2117	720	-19776	-4984	5296	-223	2654	-23	-25400	-1184	16032	-453	1391	74	-32768	-27128	-16464	537	39	2171	1536	792	-32768	-2139	-606	225	-3592	3744	32767	-1283	-177	-288	69	56	1
-7988	-6260	17436	-233	3034	1036	-22368	-2048	3504	497	3248	-52	-27656	-2000	15640	-397	612	111	-32768	-22576	-14696	416	861	162	-1416	-7536	-32768	-473	1991	139	-15424	-8328	12736	-1983	2179	-193	48	35	1
-6848	-7900	18640	-307	4223	1490	-26840	624	3264	320	3705	-220	-25472	-3648	18856	66	-467	164	-32768	-20880	-13288	323	1001	-125	-8664	4200	-25456	797	3879	139	-21104	-3376	17432	336	1152	-360	61	49	1
-3432	-12076	18960	-599	5662	2435	-32768	1824	6576	-436	3995	-562	-25864	-3128	32767	382	-2291	89	32767	31104	32767	-2889	4946	-1914	-32768	1104	32767	1223	2139	-1540	5808	29712	-16784	2575	2860	345	128	127	1
-1104	-14752	26448	-1099	7905	4058	-32768	1272	16232	-2102	3936	-777	-27920	14224	-3512	-461	-251	670	-32768	3344	32767	-1925	4432	-3082	-15064	-13808	-25160	-6918	2672	442	-28240	-1960	-1816	-4255	217	-528	179	206	1
-31360	-9948	23740	-1902	10299	5136	-32768	-800	2048	-3373	3813	-629	-31496	14312	11960	-2393	-1385	909	-32768	22592	19728	-1893	3128	-1908	-3832	408	-20616	-1979	3866	-2671	-26208	-32768	-23184	-2536	348	1418	156	204	1
-32768	-15092	29396	-3912	10281	4214	-32768	-12112	-3968	-4024	4129	-371	-31856	-7112	-18648	-4798	-1409	1087	-12552	-1320	19152	-653	1184	-1089	-18816	-17968	-22200	-2565	2308	1049	2512	7528	-27192	2842	1155	-162	166	174	1
-32768	-32768	32767	-2132	7599	4962	-32264	-25024	-5312	-881	2570	-798	-31864	5128	-9760	-2046	-2675	-667	-11296	1176	17576	-464	684	-575	-16328	-7248	-20320	2399	2492	119	-14968	14176	-19976	956	1702	-195	154	140	1
-32768	-32768	32767	-23	801	2739	-16840	-6808	-26896	1512	2105	-563	-32768	1976	-9456	-191	-2475	-1316	-8624	9408	12440	-149	584	-413	-22736	8896	-12872	2996	1912	622	-27192	11728	-14832	371	2028	1706	123	136	1
9512	-32768	31104	58	-5362	-1606	-16120	2224	3960	-549	581	184	-32768	1496	-15280	543	-2098	-1635	-8808	7672	12648	-92	471	-344	-13856	9040	-10016	38	1060	73	-18272	6408	-10640	-318	2141	28	95	126	1
10844	-30516	26228	220	-5390	-1774	-14064	-4480	-416	-258	-1384	-206	-31920	7504	-16272	189	-2603	-1507	-8216	6064	13696	-20	492	-272	-19112	1080	-8944	-1373	691	-236	-18760	1400	-8728	-705	2274	-451	132	119	1
10832	-10060	14512	-142	-4565	-2610	-5240	1392	-2232	792	-2974	-498	-21896	7800	-15280	-297	-2996	-1281	-7008	6776	13280	-13	568	-254	-19344	-5112	-6088	-466	439	25	-15456	1272	-4296	-798	2618	307	124	107	1
300	-9804	16088	-483	-4924	-2984	-5032	56	-5280	542	-3744	-78	-13648	6040	-14528	-337	-3309	-1068	-7816	6592	13024	-9	646	-308	-18624	648	-5088	795	440	92	-17184	-2368	-5272	-504	2863	341	119	89	1
-5760	-8216	16064	-515	-5597	-3376	-5864	1656	-5128	688	-4645	-217	-4872	5408	-14208	-247	-3017	-1162	-8320	6888	12032	-50	687	-349	-16512	2904	-4704	678	327	172	-15088	-3448	-4576	407	3091	449	91	66	1
-6284	-3700	15056	-549	-5879	-3558	-6688	2664	-5264	438	-5280	-198	-3696	3376	-14576	-312	-2393	-1042	-8576	6512	12160	-109	684	-373	-16256	952	-3968	365	309	87	-13744	-4304	-2040	1717	3433	798	88	63	1
-8776	-2792	16560	-767	-5882	-3447	-7312	976	-6464	472	-5960	-219	-2672	3616	-14328	-115	-2132	-865	-8496	5104	12472	-51	702	-450	-17512	-2984	-3480	850	294	128	-13384	-4664	408	1158	2921	456	94	70	1
-13140	-3932	20916	-858	-5974	-3195	-11264	4400	-9304	695	-6471	-149	584	3712	-13216	560	-1819	-625	-8728	5128	11696	18	744	-444	-15984	640	-2880	1355	526	185	-12080	-1480	1800	96	2141	316	98	76	1
-15068	-4644	21576	-884	-6013	-3196	-13880	2856	-11872	144	-6754	31	2688	3112	-13624	1186	-1674	-239	-9352	5416	10880	58	707	-424	-13712	4064	-2480	822	589	37	-14376	768	-1656	969	2818	753	103	90	1
-23960	-7772	27908	-1103	-6300	-3453	-18864	832	-12680	15	-7156	-68	2664	2616	-14120	1341	-1659	-210	-9624	6880	10032	17	623	-473	-15448	2784	-1456	407	665	-3	-20104	3912	-3544	1363	2753	915	101	90	1
-32768	-13040	28188	-795	-5960	-4008	-23984	-3960	-14512	572	-7226	64	-1216	416	-8664	1705	-1607	-130	-9512	6800	10736	-60	539	-575	-15496	1232	-880	1014	974	34	-21368	2912	968	592	2041	864	100	92	1
-32768	-16456	26040	67	-5457	-4709	-27944	-5896	-18704	1704	-6857	343	-6448	-1032	288	1413	-1815	-376	-9808	5496	11592	-90	629	-634	-16040	1704	1784	1322	1321	-9	-19240	-144	6000	914	1888	515	118	113	1
-32768	-10756	18116	820	-4857	-5172	-27144	-4704	-20896	1865	-5974	820	-15344	-384	1768	1545	-1880	-891	-9544	4376	13504	-134	874	-630	-16680	2712	3144	1022	1768	-221	-17456	-720	9608	1001	2218	279	124	124	1
-32768	-3560	-3364	1389	-3727	-4628	-22104	-6432	-27056	2284	-4528	777	-27744	16	29376	1730	-3894	-642	-8952	5392	15120	-170	1323	-679	-19984	3280	3688	189	2178	-536	-23024	-7128	5160	699	1914	525	124	127	1
-32768	11012	-21068	968	-1896	-2997	-9784	-5520	-32768	2175	-2730	639	-32768	26280	15472	1193	-2486	-1589	-8848	5688	17384	-167	2035	-863	-23328	-544	2784	-388	2619	-729	-25208	-7336	4440	686	1751	568	120	121	1
-32768	15940	-25440	-1006	-923	-1027	-584	-2280	-32768	-102	-349	30	-9928	-2248	32767	-490	479	583	-8400	6824	18176	-147	2894	-1070	-25424	104	2240	-391	3017	-902	-26008	5488	5616	625	742	11	124	114	1
-32768	16576	-27244	-1203	-50	1255	-1456	-4224	-32768	-2079	1932	-848	-17800	4160	9360	-611	1885	648	-7432	11352	18008	-138	3791	-1601	-27400	4144	4168	-446	3390	-1055	-31400	3520	10336	63	-212	-170	108	108	1
-32768	2768	-12580	-1645	783	2732	-7904	-9944	-31360	-2095	3554	-1051	-16536	3552	5056	-2075	2680	12	-5896	14768	17160	-34	4658	-2803	-28800	912	7320	-214	3748	-850	-27464	-2408	17408	-197	-1110	-480	82	68	1
-9916	-22752	27504	2281	2800	2488	-24600	-4416	28640	-2241	2876	-878	19872	-5856	-32768	-6125	5993	1112	-2920	14920	20784	-16	6109	-4527	-32768	-4280	6000	812	3914	-337	-26184	-1608	32767	202	-3610	-404	90	68	1
13388	22300	-2512	4356	6868	5624	-32768	-32768	-15712	4855	1930	-1633	-32768	-32768	25936	969	-812	-1507	-26608	20672	21568	-20	8168	-5814	-32768	1240	2160	2839	3985	-337	-28536	-19976	14216	-1023	-1103	-721	0	1	1
-32768	-32768	32767	2818	4426	4059	-11296	27952	-32768	7165	4421	1867	-30656	32767	19040	6150	597	-839	-32768	16872	29208	967	8239	-5689	-32768	8888	-9336	2536	4530	-616	-22600	2736	168	5463	-2017	-503	20	21	1
-5360	24780	32767	1247	1071	750	-32768	17408	-24472	1148	3522	-849	-13768	18168	-22784	1635	2365	-158	-32768	32767	32767	899	6880	-5896	-32768	20584	-3832	1766	3955	-864	-32768	18992	-29040	5685	-1595	-367	81	77	1
-9328	-11708	12756	351	469	219	-3320	-856	-13712	-1180	2725	-866	-1752	16256	-23264	-1357	578	704	-18920	32767	32767	-163	2689	-5365	-26720	8712	-21232	-873	3188	-270	-31768	3456	-12688	1373	-3711	1033	201	214	1
-9772	-3692	15352	179	136	95	-8224	-272	-18344	-2066	2009	-943	-18224	-768	-22216	-2273	1788	676	-6440	32767	32767	53	-2815	-612	-22472	904	-7240	-466	2427	-1029	-32768	5224	-12440	-1484	-4049	940	196	199	1
-8348	-6896	13548	-69	106	-36	-27392	-8384	-13840	-2804	1300	-1174	-22312	-11776	-16496	-1237	2310	-1027	14096	26208	16552	-647	-3628	1319	-14520	1472	-824	398	-155	-458	-32768	-3760	-16344	-646	-2959	880	181	189	1
-7384	-5732	13844	-121	135	-27	-17544	-10864	-7408	-673	752	-414	-22736	-7360	-10336	455	2283	913	12536	19288	12384	-63	-3740	2383	-8960	1192	-2384	160	-1687	327	-25936	-7856	-17752	128	-2843	1141	172	177	1
-7824	-5252	14076	-233	222	-25	-15656	-2064	-6616	365	763	-63	-23024	-4504	-9288	663	2250	963	7720	17104	12232	216	-4049	3125	-5608	2664	-3448	-131	-3127	546	-21616	576	-17504	214	-3317	833	166	174	1
-7244	-5124	14112	-325	313	-35	-16424	-1528	-3224	-159	678	-131	-13880	416	-440	-90	2487	240	-1344	13400	11640	674	-4486	3655	-6168	2144	-5192	-769	-4101	913	-11008	896	-17856	-998	-3192	488	146	146	1
-6940	-7040	13376	-243	376	43	-17608	-4848	-2232	-577	528	-275	-16920	-3952	-2384	-164	2457	214	-5808	10736	12288	1143	-5031	4052	-6520	-320	-5208	-1127	-4923	1156	-7112	-1488	-17536	-1334	-2881	462	141	127	1
-7824	-6612	12968	-109	414	147	-14440	-5872	-3464	-732	478	-214	-17512	800	-2016	-313	2258	285	-9704	10120	14112	1472	-5565	4363	-6872	-2192	-8800	-889	-5610	1309	-3336	-1784	-16160	-1450	-1995	473	143	138	1
-7952	-6216	13048	-36	400	211	-15472	-3928	-3208	-634	532	-38	-13704	-136	-472	-692	2123	340	-12600	8168	17952	1764	-5831	4452	-10672	-3024	-10624	-541	-6338	1547	-1976	64	-16320	-1439	-1479	391	151	135	1
-8056	-5516	13504	27	402	268	-15576	-3848	-3880	-481	546	-93	-12184	-1648	-1240	-841	2120	561	-18544	7264	22376	2384	-5933	4285	-14832	-7920	-11456	129	-6833	1834	1440	1408	-15928	-2367	-1085	159	138	131	1
-8520	-4392	13512	-36	411	293	-15384	-2968	-4336	-389	564	-48	-15168	784	360	-623	2223	497	-27360	7800	26472	2957	-6051	3880	-16688	-6240	-13144	1176	-6855	1991	2456	520	-15104	-3046	-919	-154	124	130	1
-8408	-5076	13432	-81	446	356	-16600	-1160	-3672	-866	614	-151	-17088	1456	2504	-754	2467	563	-32768	14640	25840	3070	-6159	3721	-21912	-632	-14304	1501	-6783	2380	-448	-2288	-11400	-1909	-1369	-411	125	128	1
-8416	-5572	13224	-179	464	394	-15800	-696	-848	-1463	755	-188	-17176	2008	3064	-1248	2264	292	-32768	19352	23800	2460	-5466	4073	-32264	1904	-17888	-117	-6691	2981	-4160	-4112	-2520	-959	-1815	-273	135	132	1
-8388	-5708	13184	-214	558	429	-14344	-3624	1560	-1425	1064	-209	-18272	696	8552	-1118	1647	133	-32768	8600	18776	2504	-4166	4991	-24104	1808	-21592	-2620	-6005	2231	-6424	-920	1760	-862	-1499	-130	155	134	1
-8568	-5860	13644	-154	732	425	-15040	-5184	2144	-954	1528	-109	-20928	-4536	8840	-1299	1829	297	-32768	928	13688	1527	-2128	6486	-22472	-8336	-25728	-3009	-4922	665	-20640	4960	12592	-276	-2251	301	130	134	1
-8264	-6256	14880	-124	1035	506	-17920	-4384	2448	-476	1968	50	-20128	-3688	10448	-1128	2078	27	-32768	-16928	-8592	-1145	-1274	5611	-14656	5944	-27616	-2263	-3201	136	-32768	-2456	20200	-720	-3586	1426	132	145	1
-8280	-6220	16128	-101	1644	686	-20160	-2576	2888	-341	2486	72	-24280	-528	11952	-763	1788	268	-32768	-27568	-16376	355	-139	2469	-392	2144	-32768	-4201	-1426	112	-6008	-3064	28552	-1688	-544	616	120	139	1
-7752	-6420	17148	-87	2453	985	-20648	-1728	2896	-73	3016	26	-26680	-3024	12896	-633	963	393	-32768	-21656	-13400	367	564	796	-480	-17528	-32768	-1617	1310	99	-15832	-5040	17272	-2761	1523	-53	72	61	1
-7492	-6160	19312	-154	3538	1280	-24816	-2072	2648	257	3524	-2	-25200	-3456	15560	-114	-161	108	-32768	-15696	-6552	193	1374	-956	-7120	1544	-30880	1938	3382	417	-20384	-9648	-2096	-712	1827	-48	50	32	1
-5652	-9580	20552	-249	4937	1990	-32504	1056	5016	261	3944	-198	-26392	-3784	25472	543	-1292	155	19312	-14456	32767	-3346	3420	-2126	-32768	2192	32767	3178	3626	-122	8896	128	-27040	1753	5172	-214	73	61	1
-1364	-10760	24892	-658	6785	3370	-32768	2136	12528	-1088	4074	-517	-26008	-4344	32767	2349	-2617	197	-32768	-32768	32767	-2934	5243	-4511	-25720	4152	-31440	-5370	2888	859	-32768	19168	9624	-2553	-1542	1418	151	157	1
-4972	-14580	24584	-1107	9241	5249	-32768	2304	13952	-2771	3752	-601	-26384	19160	14512	-1090	-2321	1320	-21112	13008	14520	-1339	3754	-1755	-6408	-25904	-28320	-3109	4590	-2587	-32768	-32768	-28680	-4949	1677	867	147	208	1
-32768	-8248	22568	-2302	10641	5168	-30824	-4240	-9608	-3687	4138	-311	-29424	-5216	-9448	-3505	-1171	987	-27616	-7352	25904	-1003	1723	-1407	-18720	2144	-25432	-2118	2476	325	-2944	-13136	-20040	2234	910	-302	159	181	1
-32768	-32768	32767	-2972	9236	5074	-32768	-21464	-6592	-2991	3030	-205	-30728	192	-15112	-3337	-2417	384	-13952	11304	13752	-722	1052	-852	-13472	-9096	-23072	1284	2330	866	-2264	10264	-19704	2366	1250	-705	160	145	1
-27504	-32768	32767	-660	4599	4796	-20824	-22248	-22584	1290	2282	-616	-32768	3752	-5808	-984	-2694	-1220	-8040	9104	12712	-251	588	-463	-25152	2200	-13976	2839	2145	363	-29112	20496	-19288	1133	2252	1817	142	141	1
-32768	-32768	32767	-280	-3807	-177	-17664	656	-8840	821	1515	-59	-32768	-5680	-10992	139	-2103	-1630	-9984	4952	13776	-212	485	-314	-15264	10968	-11456	566	1081	225	-20760	9304	-14032	-684	2138	670	128	141	1
12868	-21480	19220	826	-5284	-1744	-13984	-2960	1392	-212	-743	628	-32768	4464	-16768	785	-2211	-1626	-8720	4560	13968	-28	476	-194	-16368	2936	-11272	-1786	733	-237	-19376	-176	-11688	-1217	2307	-613	94	130	1
17096	-11348	11596	414	-4438	-2375	-9840	-1360	-568	887	-2217	-258	-23856	7712	-15864	285	-2979	-1494	-7896	6216	12992	107	516	-137	-21080	-7528	-8064	-1272	321	-59	-15232	-1984	-5616	-1238	2535	-39	126	110	1
4184	-11484	15136	-133	-4415	-2880	-2928	1176	-4432	897	-3293	173	-18688	6152	-14936	-29	-3378	-1170	-7968	7064	12608	159	594	-206	-18064	-2496	-5264	1174	333	256	-16080	-1624	-4072	-677	2799	392	128	91	1
-3740	-10400	14996	-262	-5108	-3321	-6616	-2288	-4688	697	-4052	104	-6264	6192	-13328	-127	-3225	-1116	-8272	7528	11712	112	583	-239	-16552	4848	-2952	1708	341	346	-15704	-3184	-2944	385	2997	545	86	51	1
-5900	-7960	13272	-163	-5604	-3475	-5552	104	-4696	704	-4939	67	-2232	4128	-12904	-12	-2443	-1179	-8136	6928	11640	134	658	-311	-15792	7088	-2504	841	311	213	-14584	-2568	1024	1798	3085	894	81	52	1
-7864	-5540	12956	-388	-5767	-3518	-6024	-24	-5864	708	-5569	127	-3656	3584	-14456	-57	-2091	-1120	-8688	6528	11552	63	601	-397	-17184	888	-1560	414	299	34	-12944	-2880	2912	1676	2669	696	89	58	1
-10852	-6736	15516	-656	-5706	-3472	-9056	-904	-7976	1089	-6098	-142	-1952	2784	-14448	410	-1845	-804	-8544	5432	11824	27	553	-482	-14616	-2272	-1272	1070	567	106	-10408	-328	5384	173	2071	577	96	70	1
-16124	-8048	20880	-847	-5781	-3316	-12256	1568	-11752	612	-6436	167	1352	3024	-13000	1007	-1682	-455	-9184	6328	10368	-26	478	-428	-13856	3032	-1264	1134	742	82	-14760	-368	-1232	864	2695	800	99	80	1
-23524	-8484	24800	-1254	-6071	-3449	-15512	1056	-12776	88	-6880	31	1448	1744	-14760	2143	-1666	-305	-9200	6520	10856	-112	366	-440	-14944	4072	-2024	325	822	2	-20536	3392	-3976	1891	2725	883	100	84	1
-30760	-13556	25980	-1321	-6257	-3762	-18016	-3056	-13416	-117	-7118	-117	-80	4336	-11392	2488	-1847	-68	-9104	7160	11208	-179	317	-523	-17760	568	-3376	655	1054	29	-20632	1392	-1704	839	2344	702	103	80	1
-32768	-16872	22916	-761	-5770	-4226	-29008	-7344	-16384	891	-6970	-310	-3760	3776	-3112	1755	-1950	-63	-9376	5536	11816	-191	400	-576	-16640	-88	200	1190	1288	-23	-17944	1840	2456	1013	2337	602	105	94	1
-32768	-13624	19972	-262	-4658	-4827	-27640	-5616	-20408	1996	-6331	124	-8824	-800	2536	1339	-1813	-511	-9432	5240	12200	-166	620	-528	-14856	1880	2072	1184	1594	-122	-15816	0	5496	1002	2235	465	133	130	1
-32768	-6664	11340	432	-3729	-5277	-27520	-5112	-23840	1769	-4965	470	-19696	-1528	11672	646	-2104	-655	-9080	5224	14096	-117	1015	-473	-18168	3616	2000	217	1961	-428	-20240	-3384	3512	663	1888	366	134	136	1
-32768	6216	-11288	1252	-2416	-4301	-15280	-5192	-30744	1877	-3522	318	-32768	5592	26744	599	-3681	-1487	-8536	6816	16280	-33	1657	-610	-23464	536	1464	-369	2305	-646	-28232	-664	3480	730	1442	287	130	133	1
-32768	17744	-23840	-26	-1292	-1681	-3992	-8048	-32768	1193	-1554	142	-3968	-2568	29016	-372	-695	-1005	-8368	7880	17600	14	2443	-933	-24696	1592	1368	-34	2717	-705	-28288	4656	5664	712	955	49	129	128	1
-32768	17952	-28216	-1261	-565	398	-1136	2352	-32768	-620	964	-683	-15960	2592	21760	105	1056	-65	-7856	10704	17768	32	3255	-1378	-26152	3632	3192	58	3108	-816	-29072	640	8856	305	329	161	127	121	1
-32768	10484	-20648	-1377	917	1829	-5312	-3552	-32768	-2223	2816	-916	-21304	5208	-432	-380	1794	249	-7216	12056	17568	55	4116	-2151	-27744	1656	5752	-116	3505	-859	-29680	-80	9360	266	141	135	89	83	1
-23900	-17996	948	3802	3337	2941	-21168	-5256	7184	-2557	3296	-1090	8576	13976	-18064	-1910	4507	-319	-1672	14896	19528	165	5191	-3363	-31120	-3256	8184	232	3824	-679	-26760	-4224	22560	216	-1505	-476	63	50	1
1248	15328	16116	3001	5878	3622	-32768	-32768	8880	4056	2196	-476	-23384	-32768	28000	-2078	1595	-304	-2264	13464	21264	180	5457	-3600	-32768	-4240	21800	1907	3839	-423	-29416	-6968	13992	172	-3435	-371	62	48	1
-32768	-12676	32767	681	3820	2945	-3920	19096	-31704	9334	4031	1086	-20432	-12840	-4328	5293	-45	-627	-32768	13832	18392	177	8727	-5692	-32768	6784	-4536	2507	4088	-268	-19192	-9024	8296	1864	-1327	-1130	0	0	1
-32768	-21916	14660	1947	1849	1281	-25400	-17008	-25504	388	3497	-698	-22544	32767	-12760	4790	2601	-1377	-32768	22720	30408	1539	8159	-5277	-32768	16224	-2112	2346	4535	-1024	-32368	8616	-13024	4613	-2324	-608	31	18	1
-15408	-10100	14520	366	570	500	-13536	17400	-20168	-211	2609	-1198	-10120	18304	-22816	-922	795	744	-32768	32767	32767	516	5645	-5562	-32768	13328	-6192	385	3380	-518	-31696	11120	-21720	3825	-2496	516	160	175	1
-11520	-2880	15320	254	205	184	-8424	280	-19712	-2328	2056	-775	-18616	1120	-18608	-1966	1772	498	-32768	31696	32767	-245	692	-3420	-18288	1896	-24136	-1973	2543	-184	-32768	7544	-11656	163	-3799	1059	194	199	1
-8268	-4888	13588	-3	135	16	-20336	-4344	-12576	-3651	1423	-1172	-15360	-9232	-12160	-1558	1859	-628	2752	31488	26696	-416	-3775	284	-17256	-1008	-1168	-63	1005	-968	-32768	1056	-14144	-1342	-3201	692	183	189	1
-7724	-4880	13884	-94	164	-33	-18368	-18656	-7336	-719	986	-594	-19496	-9976	-9456	139	2322	205	16264	17464	13440	-94	-4075	1492	-13704	-1384	600	706	-807	-206	-26744	-6752	-16280	-473	-3103	772	178	176	1
-8452	-4120	14388	-236	254	-59	-16032	-2744	-7856	1792	1069	97	-22480	4440	-5424	991	2298	879	16160	16240	12512	49	-4059	1604	-6848	-560	-1480	867	-2201	385	-24448	-3984	-16176	1	-3188	812	156	174	1
-8092	-4972	13804	-312	322	-62	-18472	1840	-5296	303	849	-75	-14360	272	-1840	337	2346	266	3344	15232	11928	544	-4201	2480	-4872	2696	-3736	644	-3207	614	-15696	-1240	-16016	-367	-3148	181	157	152	1
-7724	-6696	13272	-237	351	25	-15200	-2288	-3288	-1306	574	-380	-15616	-2480	-2352	191	2310	-7	-2920	11560	11408	920	-4827	3048	-6032	1336	-5824	-110	-4136	1038	-8680	144	-16672	-864	-2993	116	151	146	1
-8208	-6392	13004	-148	368	105	-14424	-5880	-3552	-1520	535	-433	-16952	1336	-1696	-273	2282	265	-5056	9776	11304	1455	-5253	3545	-6504	-1024	-5392	-237	-4882	1269	-5184	-336	-15288	-1035	-2378	264	142	136	1
-8308	-6328	12812	-83	368	153	-15952	-8456	-2904	-484	636	-189	-15720	1448	-1392	-556	2230	256	-9256	11480	13336	1491	-5482	3846	-7312	-528	-7600	-179	-5562	1459	-4608	544	-15856	-1092	-1740	333	134	133	1
-8412	-5724	13056	-29	366	209	-16208	-2800	-3528	183	670	-41	-13152	688	-584	-711	1949	450	-13360	8208	16912	1784	-5645	4015	-10880	-1824	-8400	-161	-6145	1732	-1968	1760	-15552	-1505	-1366	183	144	140	1
-8876	-5076	12972	-19	385	229	-14184	-1680	-4968	-185	638	-112	-13400	-104	-1768	-851	2144	416	-18624	10808	20240	2243	-5723	4159	-13304	-4160	-10008	-188	-6551	1899	2312	1056	-17088	-2356	-969	-71	149	142	1
-8396	-6208	12704	-65	388	273	-15528	-2128	-4392	-750	676	-188	-15184	1312	856	-978	2292	533	-25440	13728	24272	2257	-5761	4470	-16896	-2672	-14296	-408	-6765	1964	1768	-792	-15792	-2620	-725	-303	138	140	1
-8752	-5848	12668	-58	405	350	-16256	-2840	-3136	-1175	714	-259	-14960	-328	3200	-1105	2689	464	-29912	15984	28872	2181	-5534	5020	-28840	-3232	-16024	-529	-7151	2114	-264	-2104	-9992	-1649	-1097	-384	143	143	1
-8628	-5968	12688	-102	411	436	-14632	-2976	-128	-1435	900	-263	-16136	-488	3400	-1096	2162	314	-32768	11264	28016	2442	-4972	5317	-29544	-2712	-17520	-470	-6925	1969	-3376	1616	-4312	-1025	-815	-70	140	143	1
-8876	-5748	13260	-100	543	477	-14032	-3528	1312	-1112	1258	-255	-21792	-888	7336	-1019	1589	178	-32768	8200	22016	2036	-4250	5249	-24608	1968	-22776	-1315	-6129	1613	-9984	2904	2648	-708	-1054	386	138	138	1
-9300	-5604	13772	-126	800	506	-17792	-3848	512	-736	1662	-138	-21008	-2432	8936	-1136	1887	125	-32768	-2480	1632	543	-3271	4725	-23328	-1080	-26328	-2054	-4580	822	-32768	3520	22872	-1329	-4205	868	133	139	1
-8988	-5416	15420	-139	1268	571	-19496	-2600	2192	-640	2067	-64	-20720	-3240	11056	-977	2164	210	-32768	-22216	-18984	-92	-1163	3319	-5480	-4184	-32768	-2852	-2751	138	-32768	-23544	18664	-1302	-2920	799	131	141	1
-8332	-5800	16664	-160	2040	752	-20448	-3144	3960	-298	2647	-16	-24744	-3056	14360	-369	1394	343	-32768	-23784	-18632	616	284	1691	3064	1536	-32768	-1848	206	64	-3016	3704	32767	-523	309	-382	102	94	1
-8144	-5172	17948	-251	2982	1003	-21336	-1592	3944	332	3282	-12	-28120	-2464	16952	-65	395	213	-32768	-20488	-16040	75	1170	-222	-4056	-2712	-32768	104	2497	397	-17120	-11232	7752	-1487	2316	-290	52	38	1
-7024	-7808	19644	-389	4248	1421	-28192	-328	4968	434	3811	-116	-26304	-4912	21584	360	-853	81	-31512	-6224	-6712	-4257	3290	-2198	-16592	8384	-13712	1127	3965	118	-14832	-8144	-552	-877	858	-252	44	28	1
-3228	-11536	22420	-647	5858	2505	-32768	1744	4960	-153	4161	-504	-27568	-4848	32767	239	-3157	235	2416	-8848	32767	-3244	5785	-2989	-32768	-9600	11112	-2438	1804	-1348	-18688	32767	-232	1087	260	1531	109	105	1
2356	-16744	26736	-1011	8244	4324	-32768	3384	16160	-2333	3993	-748	-25544	14152	-3976	-1541	-978	1084	-32768	21432	30096	-1447	3875	-2578	-8392	-28752	-32768	-6872	3320	-482	-32768	-21104	-14288	-5441	1451	-624	174	209	1
-32768	-13228	23392	-2132	10630	5373	-32768	-4184	-1984	-3903	3634	-514	-31336	6088	6040	-2564	-981	998	-24480	-4648	25504	-1823	1889	-1302	-13784	7688	-26472	-1846	3385	-1511	-18728	-25592	-18048	-136	-12	263	168	200	1
-32768	-23152	29032	-3891	9925	4653	-32768	-17984	-4936	-4684	3914	-311	-31888	-5056	-22992	-4634	-1628	945	-11824	15512	10160	-475	931	-735	-16488	-22304	-19064	-1236	2328	1153	4096	7576	-23456	1741	984	-571	163	173	1
-32768	-32768	32767	-1940	6872	5405	-28144	-28600	-5400	-237	2232	-531	-32768	4624	-10568	-1660	-2712	-960	-8992	4680	14592	-278	615	-580	-18024	-1088	-17616	2789	2366	293	-19840	14224	-20296	907	1738	361	153	140	1
-32768	-32768	32767	-29	204	3009	-11720	-8328	-25888	1977	1854	-302	-32768	-3576	-11680	233	-2367	-1326	-9568	5104	13952	-138	535	-382	-21016	10976	-15168	2353	1580	611	-25520	8528	-16808	563	2189	1682	118	146	1
13504	-32768	26460	54	-5819	-1503	-11888	5448	5040	12	326	553	-32768	-376	-16792	853	-1961	-1550	-9080	4616	14176	-13	465	-253	-15512	6832	-12480	-781	819	-36	-19416	7976	-13928	-140	2469	-29	93	129	1
17380	-14972	10944	792	-5178	-2331	-12544	-3984	392	-115	-1562	-81	-26656	9048	-15568	434	-2484	-1497	-7856	5848	13608	137	510	-182	-20296	-3176	-10312	-1678	326	-162	-18288	144	-9616	-991	2561	-300	127	128	1
9232	-10408	12420	152	-4541	-2871	-4160	944	-3016	1011	-3056	-261	-20952	4544	-15456	98	-2882	-1299	-7192	7032	13400	159	590	-188	-19344	-7176	-7096	406	238	270	-15600	-752	-3448	-898	2904	443	131	110	1
-1808	-11168	14540	-277	-5010	-3392	-5200	-864	-4520	821	-3827	256	-11232	7088	-12776	291	-3246	-902	-7400	7216	12648	179	677	-255	-19160	1904	-3088	1896	248	394	-16880	-3872	-3016	-165	3068	345	116	82	1
-6280	-9412	13720	-206	-5638	-3665	-5728	768	-4744	859	-4663	-48	-4440	6872	-13512	200	-2800	-1040	-7832	7296	12128	95	692	-338	-15608	5240	-1088	1614	277	355	-16064	-4808	1688	1497	3022	604	98	76	1
-7116	-5412	13544	-241	-5863	-3726	-6712	2264	-5352	678	-5345	7	-3816	3328	-13608	-63	-2036	-971	-7056	7848	12424	19	687	-429	-16840	4520	-296	995	401	113	-14648	-2664	4384	2213	2583	763	100	69	1
-9588	-3420	15692	-565	-5839	-3680	-9928	160	-7544	886	-5906	-242	-3736	3816	-13512	24	-1773	-796	-8736	6368	11536	-47	697	-508	-15776	752	-1352	654	482	52	-10456	1208	5096	708	1994	530	101	79	1
-14948	-6768	20736	-800	-5779	-3437	-13320	3576	-9880	611	-6272	117	-1792	2784	-12712	607	-1700	-513	-9672	5104	10232	-44	630	-453	-13024	1848	-3056	429	645	17	-11712	1168	-1248	93	2414	801	103	86	1
-21440	-8996	24472	-852	-6012	-3404	-15120	-112	-10872	315	-6678	36	1048	2480	-14288	1344	-1604	-253	-9160	6744	10256	-41	500	-426	-13160	2936	-1944	408	823	-70	-19584	3056	-5104	1373	2861	836	101	89	1
-25352	-13176	25372	-799	-5979	-3671	-18856	-3000	-12568	898	-6913	-47	496	2640	-12480	2134	-1677	-152	-9056	7112	10792	-114	405	-547	-16920	1112	-3488	651	880	54	-20176	960	-3200	1109	2326	747	106	93	1
-30996	-16380	26684	-533	-5568	-4225	-30648	-3288	-15408	1600	-7010	51	-2984	2624	-4872	1853	-1875	-211	-9536	5848	11496	-122	424	-625	-17064	-840	-2144	1173	1321	2	-18512	-280	1256	816	2069	388	113	99	1
-32768	-13576	26228	-259	-4759	-4995	-28144	-1360	-19392	1450	-6680	455	-7304	352	1616	1756	-2002	-459	-8880	5240	12800	-125	638	-607	-16840	1096	1536	1314	1401	-26	-15992	80	4288	956	2193	451	120	109	1
-32768	-5744	17488	338	-4297	-5209	-19752	1656	-21376	1149	-5364	1165	-10280	800	2392	1016	-1607	-678	-9016	5488	13600	-138	943	-587	-17104	3328	3008	525	1727	-258	-18696	-2656	4744	593	1948	520	127	125	1
-32768	2292	-2120	582	-3595	-3697	-21976	-10752	-24952	1023	-4350	275	-32768	-944	32767	826	-3789	-1104	-8672	5296	15768	-75	1481	-605	-20896	928	1560	-434	2094	-553	-25512	-3704	3536	413	1620	496	123	128	1
-32768	15112	-20140	-198	-2210	-1597	-8264	-2704	-32768	1604	-2533	285	-20480	11488	17792	-153	-1917	-1627	-8992	5984	16112	29	2170	-788	-23592	-1272	864	-360	2465	-610	-25912	2712	3856	615	1384	23	121	123	1
-32768	15008	-28692	-1382	-1064	-132	1592	352	-31864	-1325	20	-170	-13832	-1312	32767	-844	337	186	-8512	7192	17208	54	2900	-998	-23424	3120	2200	-177	2841	-727	-25560	4664	6416	207	867	-35	123	118	1
-32768	10840	-26084	-1202	272	1569	-3504	-9648	-30656	-2467	2232	-904	-21104	4768	7456	-929	1558	295	-7704	11048	16392	81	3677	-1510	-25448	4664	4376	-505	3222	-914	-28728	1304	9664	-208	-14	17	111	109	1
-32768	-17892	-32768	4118	3770	3281	-14480	-10928	-13624	-964	3424	-721	-18976	168	-1264	-2882	2041	102	-3360	14400	16928	151	4516	-2482	-27520	664	6104	-389	3566	-830	-27112	-392	17784	-182	-995	-335	74	56	1
8200	2072	-3464	4405	3946	3439	-32768	-23240	-1240	4145	2709	287	-18608	-23968	832	-2999	3396	-686	-3656	14944	21392	87	6101	-3749	-32768	-1440	6480	425	3711	-635	-32768	2064	29376	306	-3043	-206	67	45	1
-32768	2272	32767	540	3433	2455	-9000	28248	-29584	8311	4494	592	-18624	-6760	-5824	4433	536	248	-24056	22952	20544	78	7984	-5202	-32768	96	10664	2096	3956	-493	-25072	-15376	26160	-2977	-2114	-708	1	0	1
-16756	-27632	7944	1528	1591	1198	-14488	-14704	-20728	-285	3833	-371	-16240	27144	-26848	4136	2355	-426	-32768	6504	27968	1057	8402	-5304	-32768	2528	-9616	1836	4484	-545	-20376	-864	-2040	4346	-1932	-1112	21	4	1
-17404	-2700	16144	564	423	526	-19208	5264	-19488	1386	2767	-1466	-7064	9528	-23200	-863	541	24	-32768	32767	30504	761	7439	-5638	-32768	22624	-4216	1501	3825	-888	-32768	8592	-24464	4871	-2582	-41	138	138	1
-14904	-8880	14364	517	356	357	-10840	2488	-20808	-1703	2061	-386	-22408	-488	-19752	-457	1963	681	-10248	32767	32767	-1229	3852	-5171	-26168	8752	-21184	-1393	2929	-153	-32768	8328	-16016	2709	-2982	929	174	181	1
-7968	-4936	14280	74	105	28	-20448	-728	-13656	-3259	1457	-894	-21096	1096	-12960	-230	1937	-816	-13320	32767	32767	-523	-1688	187	-19904	-4880	-11984	-1283	2369	-803	-32768	7688	-14384	1824	-3284	995	177	186	1
-7320	-4492	14460	-39	104	-31	-19408	-11512	-8192	-1752	972	-710	-17296	-2408	-7968	-18	2223	74	12312	19832	20456	-104	-3206	1995	-14632	-1616	-112	406	85	-751	-32768	-4296	-16272	-1083	-3092	628	168	169	1
-7884	-3928	14636	-250	219	-81	-15040	-6040	-9160	1573	923	-145	-20688	5440	-6752	545	2332	706	12672	14296	13728	440	-3552	2133	-9744	472	-928	794	-1416	310	-24296	-8368	-13176	-322	-3208	586	158	166	1
-7756	-4672	14000	-368	275	-121	-18624	1992	-6760	934	745	-12	-14872	-1288	-3264	113	2448	512	6360	13712	13104	281	-4203	2003	-3536	2072	-3480	709	-2610	682	-20208	-5168	-13592	165	-3367	321	159	158	1
-7084	-7940	13000	-297	296	-60	-15720	-3832	-3184	-922	501	-278	-16520	-5016	-2784	65	2442	150	1008	8112	11560	774	-4942	2104	-5176	1064	-4256	107	-3500	1005	-10792	-1688	-16296	-58	-3017	68	152	143	1
-7092	-7768	12936	-130	308	94	-14608	-2424	-3120	-1681	337	-499	-16480	2368	-1744	-433	2287	-115	-2424	8056	10120	1616	-5316	2466	-6248	-1568	-4400	30	-4314	1223	-6536	1320	-16280	-418	-2627	159	137	134	1
-7440	-6568	13140	-50	323	174	-15800	-9072	-2432	-1071	389	-328	-15808	-536	-1336	-959	2281	86	-7272	10864	11280	1718	-5622	2888	-5312	-2104	-7320	320	-4880	1411	-4816	1656	-15160	-768	-1992	264	137	131	1
-7544	-6172	13620	-27	370	239	-17680	-4240	-2608	22	487	-56	-13728	-120	736	-953	1899	388	-8264	8504	13744	1728	-5807	3413	-7856	-1992	-7816	483	-5550	1703	-1776	2752	-14648	-994	-1619	107	135	133	1
-8040	-4676	13736	-30	437	278	-15632	-616	-4120	69	542	-59	-14312	616	1872	-722	1893	377	-13016	7664	17392	2218	-5687	3808	-11616	-3872	-9216	608	-6125	1917	840	3744	-15072	-1970	-1339	-167	138	137	1
-8368	-7476	12100	-91	451	314	-11552	-5784	-3976	-559	635	-266	-13968	-552	4936	-540	1966	342	-19872	8536	21688	2538	-5660	3836	-14760	-5112	-11856	708	-6361	2042	648	2232	-13360	-2745	-1099	-358	130	129	1
-8436	-6236	12440	-60	450	375	-15488	-3728	-2440	-974	697	-160	-16800	-2808	536	-1291	2788	501	-25744	10512	23864	2757	-5708	3752	-18336	-1560	-11792	783	-6436	2169	-3288	-752	-11640	-2133	-1250	-445	129	127	1
-8364	-6652	12608	-47	374	462	-15216	-4320	-1568	-1060	853	-219	-20920	-728	-2728	-1296	2306	558	-31432	18696	24504	2128	-5367	4001	-28152	2184	-14208	-25	-6497	2340	-5080	-752	-6576	-691	-1360	-186	153	147	1
-8240	-6136	13396	-66	455	548	-15864	-1648	-1456	-957	1050	-231	-18176	1384	4912	-708	1555	58	-32768	14984	23352	1565	-4545	4776	-28080	432	-18504	-1801	-6371	1981	-6496	1312	296	-282	-1339	74	146	143	1
-8724	-4984	13856	-104	651	519	-16728	-1800	-1024	-1046	1310	-173	-16192	456	7104	-822	1945	18	-32768	8680	16648	1144	-3210	5761	-24504	720	-22336	-3159	-5724	918	-11824	7208	-504	-243	-1052	513	135	137	1
-8804	-5004	14288	-150	939	483	-16376	-3232	728	-826	1652	-109	-16880	-2984	7672	-1113	2284	338	-32768	3232	2256	-680	-2189	6039	-21992	-2376	-26552	-3329	-4451	376	-30888	6992	18760	-1416	-3443	1240	127	135	1
-8548	-5024	15560	-162	1430	510	-18024	-4184	3976	-356	2150	-26	-21904	-3032	12304	-600	1744	375	-32768	-20864	-15888	-512	-595	4539	-8824	848	-32672	-3781	-2795	-305	-32728	-17136	18008	-2163	-2357	544	134	143	1
-8172	-6240	16692	-210	2180	696	-20312	-3784	3136	251	2751	94	-26328	-1816	13408	-202	1198	300	-32768	-23672	-15880	647	321	1974	152	-1992	-32768	-2427	-232	-14	-8848	-1648	30552	-2701	180	-126	101	95	1
-7660	-5448	18004	-297	3116	965	-22832	-1688	1352	448	3250	37	-26432	-2216	13288	-186	1125	292	-32768	-18928	-14136	322	902	-212	-1928	-3216	-32696	480	2230	445	-21304	-14760	8216	-2439	1978	-88	46	37	1
-6808	-9072	18720	-359	4230	1485	-27896	-1776	3496	61	3616	-64	-26240	-3800	16536	165	-449	238	-32768	-4712	-16600	-3055	2984	-2254	-14024	8088	-20136	1365	3873	275	-19568	-5352	22096	1633	439	-14	45	31	1
-4084	-12628	20112	-578	5609	2579	-32488	624	6424	-375	3918	-470	-26544	-3512	32767	349	-1874	212	13848	20592	32767	-2507	5605	-2402	-32768	-6552	20248	-1287	1778	-1542	-2632	29328	-5608	2884	2206	932	97	95	1
-2844	-12936	27032	-886	7603	4085	-32768	4120	14264	-1848	3898	-546	-30800	8144	920	223	214	532	-32768	9504	32767	-1391	4133	-2602	-12584	-15944	-20952	-6417	2801	306	-23720	4464	-5208	-3718	553	-760	170	183	1
-24808	-13212	22328	-1640	9767	5437	-32768	-2760	4184	-3498	3634	-568	-27920	16648	16936	-1396	-1973	1059	-32768	25192	21960	-1820	2845	-1870	-7768	5640	-25248	-1823	3512	-2143	-23840	-31376	-16832	-2569	179	1535	159	199	1
-32768	-8136	22596	-3911	9865	4481	-30944	-11896	-4896	-4670	4240	-384	-28864	-8048	-19096	-4499	-1411	1032	-12664	2832	17144	-733	1180	-1000	-17776	-16344	-19896	-2560	2261	1049	-16928	-28056	-14440	-849	108	656	161	178	1
-32768	-32768	32767	-2894	7538	5352	-32768	-28592	-4624	-1837	2588	-668	-31632	4464	-11040	-2586	-2462	-226	-10104	760	17440	-529	601	-524	-16936	-8000	-19072	2027	2475	101	-17040	9704	-19288	520	1715	131	149	139	1
-7572	-32768	32767	193	1715	3846	-16000	-12768	-24296	1868	2090	-613	-32768	2216	-10176	-625	-2393	-1236	-8864	7568	12440	-197	491	-321	-21672	6408	-13528	2788	1858	596	-22888	8744	-14368	503	2011	1485	126	133	1
-2000	-32768	32767	540	-4931	-1191	-15472	2432	2712	326	1092	34	-32768	-2936	-13864	450	-2115	-1701	-8520	6648	13104	-58	419	-249	-14040	9392	-10808	-356	979	60	-18120	8152	-11528	-472	2247	258	105	133	1
16924	-14560	15140	797	-4852	-2264	-13528	-4088	832	133	-1062	44	-32768	9232	-15608	467	-2431	-1718	-8040	5696	13488	94	426	-204	-18944	224	-9672	-1900	632	-164	-19960	984	-9432	-1056	2379	-424	125	125	1
13616	-9756	12596	62	-4218	-2740	-6968	1048	-2224	1130	-2524	-470	-21224	9456	-14056	-240	-2947	-1497	-6872	7184	12768	66	504	-208	-20064	-8088	-7224	-323	380	129	-15584	-64	-4184	-1028	2640	279	122	111	1
2904	-9964	15372	-418	-4460	-3116	-3536	1792	-4432	795	-3454	-94	-16272	7040	-14280	-251	-3304	-1352	-7608	6960	12584	25	633	-279	-18800	-216	-4336	1520	387	333	-16624	-2904	-4440	-599	2838	516	125	101	1
-3848	-8116	15664	-413	-5182	-3345	-6416	1200	-4360	566	-4361	-287	-4656	6656	-13296	-419	-2970	-1167	-8064	6944	12552	72	718	-311	-16472	3904	-2712	1374	342	422	-14016	-4360	-2272	408	3050	677	90	64	1
-4280	-7088	15264	-409	-5281	-3359	-5880	3088	-4256	348	-5054	-281	-3232	3392	-13768	-455	-2291	-1058	-8416	6512	11968	48	703	-336	-16144	3672	-2440	384	374	161	-14808	-4832	120	1549	3064	872	99	69	1
-7520	-3020	15512	-1089	-5634	-3199	-7544	824	-6440	399	-5663	-296	-3424	3344	-14160	-419	-1982	-978	-7544	5832	12896	12	680	-376	-16600	-2528	-2112	247	437	103	-12752	-3960	1872	960	2447	525	96	72	1
-11352	-6284	19584	-964	-5727	-2961	-11192	1744	-8424	705	-6178	-422	-504	2776	-12384	211	-1748	-718	-9168	5768	11752	53	720	-397	-16296	-1736	-3264	981	661	250	-10368	-416	2264	-240	2210	607	102	83	1
-17880	-7884	23328	-1099	-5970	-3016	-14136	1584	-10432	236	-6470	-161	1184	2392	-12504	882	-1565	-497	-9048	5872	11072	57	656	-361	-13656	3744	-2184	795	724	138	-17784	776	-2776	962	3113	829	104	92	1
-23184	-10632	25532	-1344	-6076	-3419	-17584	-1048	-11376	285	-6920	-254	-608	1880	-13096	1866	-1740	-353	-9504	7184	10488	36	585	-422	-15416	3928	-2296	222	781	81	-19312	1552	-3976	1298	3152	792	106	92	1
-28144	-13100	26840	-1291	-5928	-3912	-21472	-3200	-13064	617	-7060	-376	-2560	3432	-8936	1839	-1795	-273	-9152	6904	10856	-34	562	-540	-16544	-296	-1112	810	1110	88	-20144	1016	-160	822	1921	713	115	101	1
-32768	-15128	26932	-673	-5331	-4472	-30480	-4056	-16544	1071	-6928	-194	-5848	1328	192	1247	-2013	-436	-9312	6008	12128	-111	675	-586	-16240	1336	104	1239	1357	72	-17480	1832	4352	1095	2046	533	131	128	1
-32768	-6796	24172	-299	-4453	-4995	-26496	-4624	-20440	948	-6266	377	-15856	-1488	2256	634	-1679	-848	-9536	5408	12720	-121	925	-606	-16960	2720	2048	920	1679	-112	-17336	-1000	5872	921	2164	444	131	128	1
-32768	-2152	11300	282	-3959	-4450	-24872	-7032	-24600	729	-5140	513	-21448	-3472	20960	148	-2237	-1114	-8696	5688	15080	-163	1321	-618	-18040	3680	2064	98	2047	-416	-20648	-3200	3144	623	1807	642	128	131	1
-32768	4324	-15088	785	-2946	-2591	-14392	-9968	-31160	1907	-3377	-14	-32768	11344	20768	634	-2684	-2124	-8608	6464	16736	-93	1981	-805	-24384	-8	640	-389	2421	-598	-29400	-856	3208	756	1308	471	130	126	1
-32768	17584	-26600	-640	-1289	-1369	-2288	1776	-32768	1458	-1161	72	-8176	-9256	32767	268	-274	-120	-8440	6952	17096	-59	2743	-1044	-24888	120	2296	-235	2781	-687	-26872	5064	6472	508	915	95	124	123	1
-32768	16004	-28852	-893	173	-130	184	-600	-32384	-1239	1366	-668	-16304	3704	15440	239	1391	411	-7832	10344	17584	12	3540	-1456	-24864	4072	4768	-209	3201	-836	-29640	2016	9728	2	79	84	122	120	1
-32768	12416	-14212	-856	1371	1294	-6288	-8296	-31464	-1282	3184	-621	-19432	224	-4368	-408	1732	-60	-4864	14560	16320	127	4374	-2321	-27456	2392	6360	-292	3612	-837	-28416	-2016	14344	-153	-922	-102	83	71	1
-32288	-344	5896	3325	3313	2026	-15880	-4848	5336	-1051	3455	-620	14968	9400	-29464	-468	5804	-524	-4512	15432	21520	355	5603	-3773	-32248	-5080	6816	497	3844	-434	-25888	-6568	26528	576	-1849	-367	64	46	1
13468	23448	11496	3588	6029	3953	-32768	-30440	14880	3837	1817	-798	-20912	-32768	32767	622	1065	1147	-18520	13896	22096	257	7661	-5004	-32768	-3344	16496	2700	3990	-314	-23872	-18320	26968	-1187	-2795	-526	39	27	1
-32768	-19280	32767	1194	4552	3513	-4424	19048	-32768	8596	3697	1488	-32768	4824	-256	6355	170	-682	-32768	7912	23728	682	8677	-5281	-32768	2344	-4136	2012	4246	-410	-16688	-3200	3232	4581	-1624	-922	1	0	1
-32768	18104	32767	2545	1492	1113	-32512	-18584	-27960	793	3825	-733	-26256	32720	-14800	3205	2830	-1289	-32768	32767	30208	1222	7951	-5278	-32768	19712	-1360	1610	4169	-964	-32768	16880	-19792	5570	-2033	-128	36	25	1
-10224	-19776	10904	175	571	125	-9728	12904	-13792	-1024	2762	-688	-5312	17704	-21392	-955	675	387	-19080	32767	32767	-271	5064	-5324	-32768	9896	-4616	-346	3068	-434	-31880	12056	-18784	2947	-2543	651	119	122	1
-10592	-11428	12520	77	238	81	-6120	-152	-16936	-2021	2139	-814	-12864	3392	-19304	-1636	1652	940	-32768	32767	32767	280	-489	-1695	-19736	-1592	-22144	-1288	2703	-585	-32768	7000	-11624	-885	-3817	874	186	198	1
-9080	-7260	12492	-38	152	4	-16272	-7368	-14064	-3053	1619	-1292	-16368	-7968	-15264	-2064	1811	-1070	5216	26752	24560	-65	-3593	706	-18272	1096	-400	742	664	-881	-32768	-2752	-14808	-1532	-3227	388	184	189	1
-7852	-5928	13568	-52	140	-12	-23056	-17616	-9136	-880	971	-692	-21032	-14912	-12624	-316	2402	447	12416	18320	14720	94	-4125	1287	-12112	736	-616	989	-1038	4	-25824	-6296	-16040	-514	-3144	445	187	183	1
-8340	-5220	13844	-122	204	-1	-15816	-3968	-7888	1075	948	-36	-22088	2944	-8176	1132	2448	959	8592	17248	13048	216	-4594	1553	-6104	2040	-2584	886	-2346	312	-23888	-2344	-15472	47	-3291	507	165	174	1
-8000	-4740	14160	-181	270	-11	-16056	-1848	-7320	1079	943	29	-14512	4864	-1728	575	2435	94	1864	13416	12016	590	-5068	2027	-5600	2680	-3648	599	-3411	603	-15296	1376	-16560	-457	-3216	163	167	158	1
-7828	-5964	13604	-208	334	25	-17432	-2792	-3512	-940	555	-396	-14024	-1536	-2408	-202	2593	0	-2704	13432	10208	1189	-5540	2789	-6728	1144	-5432	33	-4269	902	-9888	600	-17200	-1093	-2864	194	146	145	1
-7948	-6396	13076	-168	394	102	-14912	-6184	-3552	-1282	480	-374	-18808	-264	-3192	-501	2407	163	-6808	13688	9576	1338	-5745	3425	-7072	184	-6776	5	-4989	1080	-6456	280	-16568	-1455	-2418	156	144	142	1
-8120	-6772	12836	-109	410	181	-15368	-7760	-3136	-845	505	-180	-14944	224	-1496	-927	2085	331	-8504	11800	11360	1417	-5734	3909	-8224	720	-7384	-63	-5665	1405	-3744	1536	-16456	-1553	-1884	197	144	136	1
-8080	-6236	13096	-37	433	285	-16392	-3176	-3112	-451	558	-136	-11968	-1920	-1696	-1129	1757	530	-15280	12640	16104	1676	-5656	4319	-10808	-512	-10792	-500	-6309	1605	-1064	1048	-16464	-2034	-1509	-18	140	132	1
-8592	-6012	13032	-102	454	346	-14984	2416	664	-702	561	-49	-12976	-1168	3008	-779	1821	379	-21320	13464	21224	1947	-5749	4638	-15208	-2760	-12024	-563	-6688	1751	1464	304	-16496	-2663	-1196	-283	131	128	1
-9396	-5124	12668	-139	515	283	-15504	-1992	-3680	-928	674	-139	-16416	-808	2008	-952	2961	377	-25848	13832	24848	2216	-5789	4779	-20128	-1160	-12856	-562	-6924	1781	-312	-1096	-13400	-2374	-1078	-366	135	141	1
-8792	-6440	12576	-156	494	326	-15280	-4088	-1624	-1064	818	-158	-19928	-488	-5072	-1457	2503	761	-32768	19640	28640	1990	-5471	4971	-29040	-1000	-17544	-564	-7113	1861	-3064	-2152	-7680	-1039	-1368	-167	146	150	1
-8888	-5924	13248	-154	627	464	-15520	-3520	-2336	-912	1006	-185	-20872	1448	4216	-540	1516	148	-32768	15704	24688	2002	-5069	5001	-29880	728	-18840	-699	-6797	1920	-4552	2080	-2728	-529	-1039	138	149	145	1
-9300	-5916	12812	-176	796	500	-17408	-1920	-520	-1237	1252	-168	-18360	-656	8200	-1154	2057	-166	-32768	6064	16712	2455	-4011	4989	-23552	3664	-25016	-1494	-6016	1732	-10432	4408	-256	-700	-1119	470	136	138	1
-9240	-5500	13552	-197	1043	492	-14904	-4752	2544	-1214	1655	-111	-16592	-6184	10768	-1380	2283	352	-32768	-752	1232	1030	-2802	4901	-21696	-2448	-30592	-1894	-4377	989	-32768	4264	24032	-1906	-4636	994	128	134	1
-8596	-5804	15316	-162	1507	596	-17208	-5872	5120	-528	2227	30	-21496	-3856	14064	-548	1743	284	-32768	-22472	-19224	310	-847	3694	-4968	-1688	-32768	-2514	-2559	315	-32768	-23832	16360	-1180	-2671	643	83	81	1
-8468	-6208	16428	-172	2282	768	-21472	-3464	4224	251	2886	137	-28024	-2072	14600	-181	1149	271	-32768	-24664	-16216	1004	517	1780	3560	-1320	-32768	-1769	173	316	-1120	-1960	31576	-549	493	469	60	45	1
-8288	-6628	17540	-217	3205	1071	-22256	-1984	3288	493	3415	83	-25848	-3800	14176	-214	360	369	-32768	-21680	-14016	349	1471	20	-3736	-4744	-32768	-42	2571	357	-15456	-10440	5688	-1272	2186	131	54	47	1
-6908	-9760	18336	-308	4399	1630	-27576	-496	4384	215	3824	-168	-24296	-2232	19976	12	-885	199	-32768	3088	-9504	-4374	3206	-1441	-10864	3296	-19552	623	3936	123	-12840	-8088	-8912	-662	1510	-173	66	56	1
-2900	-12424	20960	-654	5929	2859	-32768	2776	7360	-699	4091	-645	-24240	-2840	32767	830	-3892	109	27784	-9568	31968	-2788	5776	-2598	-32768	-6648	24064	-1027	1339	-1508	-8856	32767	-5280	1961	825	875	139	132	1
-840	-14116	22516	-1120	8211	4607	-32768	3920	15016	-2573	3928	-792	-22200	19176	5600	-1223	-1864	819	-32768	18456	32767	-1670	4153	-3243	-11928	-20712	-30608	-7287	2676	-192	-32768	-20872	-7224	-6464	978	-352	174	230	1
-32768	-11040	20644	-2323	10539	5043	-32768	-1608	-3736	-3435	3915	-421	-31784	4512	4752	-3776	-1112	936	-32768	9912	26464	-2241	2551	-1764	-10400	6232	-27256	-1402	3531	-1769	-32768	-32768	-18896	-6676	1817	-236	160	227	1
-32768	-28724	31640	-4029	9871	4437	-32768	-18112	-5968	-4186	3849	-295	-30904	-6176	-22496	-5043	-1691	1090	-11168	15440	10464	-400	1118	-856	-19208	-22432	-20888	-2239	2234	987	-16512	-22744	-13936	906	292	-508	164	192	1
-32768	-32768	32767	-1750	6367	4997	-26152	-27328	-11192	197	2813	-796	-32768	3248	-8408	-1215	-2931	-909	-10688	1888	15712	-309	606	-501	-14936	-1480	-20008	2453	2423	83	-18352	13704	-21160	1514	1743	452	176	152	1
-32768	-32768	32767	226	-1236	1731	-17240	-4328	-18976	1547	1886	-352	-32768	-3360	-10264	239	-2314	-1516	-8656	6320	13632	-125	494	-319	-21744	11072	-14792	2460	1675	615	-26912	14928	-17584	468	2293	1801	109	147	1
13720	-27564	23324	552	-5514	-1253	-13536	-192	1904	103	-214	509	-32768	2856	-17248	742	-2146	-1457	-9216	5552	13680	-94	480	-315	-16200	7208	-11792	-742	832	-162	-20016	7936	-12696	-700	2401	-169	82	133	1
18308	-12360	11984	431	-4949	-1874	-12976	-848	592	16	-579	558	-26232	8232	-16560	268	-2628	-1579	-7800	6000	13464	149	469	-202	-20336	-4696	-9576	-1725	406	-155	-18744	-4136	-8800	-1195	2493	-244	129	127	1
7788	-10624	13888	-282	-4662	-2390	-4056	2576	-3800	739	-3180	-50	-19960	5360	-15544	-156	-3120	-1165	-7296	6672	13040	171	611	-194	-19000	-7904	-6432	199	211	255	-14208	-3744	-4200	-711	2854	574	143	104	1
-1932	-11216	14836	-547	-5073	-2897	-5472	-792	-4656	232	-4002	217	-10256	5704	-14400	148	-3230	-1015	-7800	6824	12504	244	742	-221	-18504	1600	-3592	1729	338	396	-15976	-2856	-3248	-37	3238	398	128	90	1
-7600	-10496	14376	-268	-5787	-3231	-5032	-128	-5168	263	-4791	-50	-4000	5424	-13856	264	-2869	-1131	-8368	7448	11320	277	778	-290	-15440	6344	-1552	1323	295	315	-15816	-2912	560	1367	3188	773	98	62	1
-7120	-5428	12748	-400	-6050	-3465	-6016	128	-4952	277	-5423	1	-3056	4712	-14160	3	-2232	-1082	-8288	7376	11112	174	684	-355	-15768	3168	-1536	595	350	113	-13912	-2872	1480	1638	2739	783	102	60	1
-9604	-5400	14104	-765	-5868	-3555	-9184	-2320	-6384	904	-6067	-320	-3680	2648	-13968	168	-1917	-891	-8128	6592	11664	69	615	-434	-14800	-176	-1464	834	551	78	-9912	1032	4264	490	2053	398	102	72	1
-9788	-5872	15336	-795	-5796	-3549	-11600	1800	-9728	506	-6208	227	0	2480	-13376	779	-1749	-597	-9616	5656	10384	29	549	-408	-15024	1768	-3680	671	631	108	-11288	928	-216	135	2249	804	105	81	1
-21940	-8796	24620	-961	-6206	-3414	-14344	-752	-11640	470	-6700	0	2104	720	-13840	1575	-1682	-369	-9408	7080	9872	-53	397	-382	-13904	2600	-1992	528	752	21	-20904	320	-4152	1677	2946	923	107	86	1
-26016	-11752	24728	-1074	-6295	-3697	-18920	-2464	-11760	724	-6970	-75	264	3968	-12544	2262	-1855	-106	-8960	7376	10936	-123	308	-470	-15992	1864	-1736	796	924	15	-20208	1416	-2680	1498	2332	877	108	86	1
-31264	-16776	25736	-684	-5692	-4266	-19624	-2968	-12192	831	-7023	-56	-2632	2584	-6032	1750	-1858	-107	-9216	7296	11608	-173	377	-577	-18384	600	-912	1336	1265	33	-19784	1240	2872	1153	1998	451	110	96	1
-32768	-16588	27588	50	-5005	-5028	-30584	-3920	-20784	1688	-6686	419	-8040	-1480	2240	1521	-2017	-501	-9296	5368	12456	-164	582	-589	-15640	2144	2392	1272	1460	-77	-17144	400	5920	1220	2319	580	130	124	1
-32768	-3768	18120	230	-4386	-5417	-20792	736	-23224	1567	-5455	1360	-10720	-2576	984	909	-1534	-916	-9048	5968	13584	-164	921	-587	-16840	3424	2464	537	1849	-332	-17648	-1848	4104	891	2132	470	131	127	1
-32768	-1616	-2480	556	-3513	-3909	-19536	-8072	-26880	1476	-4417	352	-32768	1600	32767	1054	-3835	-1140	-8608	5840	15952	-122	1512	-656	-21728	776	2720	-231	2237	-588	-27608	-2608	3960	545	1481	508	144	133	1
-32768	16764	-20380	55	-2243	-1831	-8944	-4560	-32768	1718	-2468	113	-21704	19040	16656	247	-2111	-1769	-8328	6632	17080	-38	2305	-880	-24528	-384	1880	-298	2656	-704	-28224	2808	5424	565	1146	-93	133	130	1
-32768	16844	-26868	-1133	-919	-311	-448	2312	-32768	-903	-84	-244	-13440	-2680	32767	-929	594	56	-8320	7416	18488	27	3191	-1136	-25584	1448	3656	-288	3056	-842	-27088	2040	7840	206	562	-64	130	124	1
-32768	17308	-24628	-1021	515	1466	-2240	-5712	-32768	-2166	2148	-964	-20200	4528	6832	-484	1758	218	-6872	12040	17768	141	4132	-1715	-27632	2816	5320	-543	3479	-1022	-30608	96	13288	-162	-406	-110	120	122	1
-32768	-6040	-7384	-744	1296	2288	-11200	-7200	-26296	-1532	3581	-721	-17992	4152	16456	-2220	2834	-308	-3456	16000	17144	302	5209	-2988	-28224	2512	6248	-517	3540	-1010	-26400	-4576	19736	-166	-1164	-555	65	51	1
32767	-15248	32767	2467	4038	2501	-32768	-24	32767	-161	1422	150	8416	-13872	-29912	-4816	4525	658	-4200	14528	21496	380	6975	-4588	-32768	-3784	7496	1186	3891	-283	-29080	-7160	31016	-651	-4326	-204	68	47	1
-32768	26080	32767	1225	5942	3312	-10536	-5776	-28520	7908	3029	-516	-32768	-32768	2648	2970	-562	-1270	-32768	22248	18904	102	8763	-5662	-32768	6272	-2640	2505	4137	-339	-25616	-18672	6064	545	-871	-1204	0	0	1
-32768	-32768	11456	2117	2313	1852	-20568	744	-28792	1056	4201	505	-27896	32767	-9120	5000	1775	-712	-32768	17736	31672	1550	8140	-5323	-32768	9584	-8408	1694	4652	-784	-25512	8864	-7152	5791	-2317	-572	9	0	1
-12888	12852	23320	480	617	640	-25528	19984	-18720	1008	2996	-1378	-8752	13424	-22728	-248	1232	-331	-32768	32767	32767	1311	6571	-5680	-32768	15640	-7152	842	3800	-660	-32768	16800	-25712	4919	-2044	179	88	86	1
-10260	-1308	15252	302	263	203	-4608	-4264	-18296	-1692	2409	-592	-8464	5584	-19592	-1268	1225	1034	-32768	31992	32767	396	1661	-4662	-23152	4232	-24928	-1438	2808	-219	-32768	8344	-13224	389	-3884	1119	185	192	1
-7840	-1660	15004	96	118	56	-14000	192	-16016	-2809	1873	-1048	-19432	-2592	-18800	-1572	1787	-147	2224	32767	32720	-48	-4150	-545	-19552	-896	-2120	305	1700	-1226	-32768	1552	-12632	-1668	-3540	623	186	185	1
-8028	-4944	13980	-30	122	-12	-26016	-14192	-12040	-2370	1153	-1109	-21960	-9216	-15520	-964	2377	-432	17800	21208	13984	-79	-4611	534	-13984	384	1408	1461	-600	-238	-29208	-5768	-16832	-492	-3122	528	183	180	1
-8172	-4388	14596	-186	208	-34	-15280	-9832	-10672	1154	894	-133	-23200	-2888	-11040	586	2383	865	13168	21336	9976	282	-4482	1199	-7424	720	-608	1454	-1950	495	-25592	-5712	-17168	-409	-3191	570	161	174	1
-8104	-4164	14352	-270	264	-53	-16248	1416	-7240	836	715	126	-16528	3512	-4312	781	2484	653	5224	18456	9384	440	-4443	2045	-4936	3760	-3184	1005	-3088	671	-17600	1512	-16808	-394	-3202	242	164	158	1
-7516	-5884	13728	-319	333	-23	-17848	-1680	-3888	-682	484	-359	-15112	-1808	-2424	285	2650	-5	-3168	14744	10208	984	-4771	3176	-6152	3280	-5168	-9	-4110	1137	-10312	200	-17288	-1044	-2978	91	135	149	1
-7592	-6532	13172	-246	388	68	-15256	-4320	-2976	-1309	367	-382	-17248	-176	-2416	-28	2574	241	-5632	13336	10032	1397	-5105	4000	-6824	1280	-5600	-562	-4844	1274	-5768	-856	-16600	-1337	-2599	188	140	137	1
-7956	-6352	13008	-169	408	135	-14576	-8240	-2376	-1040	374	-267	-16656	472	-24	-682	2298	293	-9608	13312	11832	1414	-5250	4447	-7616	1472	-7488	-862	-5524	1481	-4488	288	-15952	-1284	-1938	296	144	127	1
-8160	-6176	13052	-98	401	208	-16056	-4960	-2336	-317	444	-30	-12096	-312	488	-1244	2005	484	-14856	10760	17760	1537	-5506	4735	-11160	-448	-10904	-1242	-6263	1717	-2072	2032	-15808	-1563	-1551	224	143	127	1
-8104	-5544	13060	-97	392	270	-14648	-3048	-1504	-478	518	67	-11704	-2744	3816	-1006	1766	432	-14504	9240	24288	2292	-5780	4923	-15536	-5680	-12112	-857	-6650	1706	1256	1952	-15752	-2556	-1350	5	135	127	1
-8380	-5160	12732	-27	426	346	-13736	-2704	-1576	-646	615	-807	-14088	-2080	6360	-660	2567	214	-25392	10552	23960	2831	-5751	4678	-17288	-3072	-11984	5	-6725	1710	1488	1496	-15264	-2802	-1160	-158	128	130	1
-8648	-5592	12640	-67	413	380	-14552	-2488	-1056	-1141	836	-262	-17840	-56	-24	-1671	2618	663	-30824	21384	26384	2254	-5596	4802	-27632	3576	-17176	25	-6809	1816	-3240	528	-9624	-1785	-1608	-64	147	146	1
-8568	-5908	13532	-110	446	414	-15208	-3392	-1488	-1054	1047	-193	-18176	56	-624	-1666	2500	738	-32768	20688	23512	1548	-5099	5030	-32248	-1368	-19216	-784	-6939	2085	-5520	-816	-4648	-804	-1519	114	145	145	1
-8308	-5852	13596	-127	473	434	-17960	-2872	-984	-941	1293	-191	-20528	1440	6576	-885	1795	-252	-32768	8512	14872	2319	-4156	5140	-20128	5856	-23720	-2011	-6182	1883	-5768	1304	-3600	-954	-974	268	136	139	1
-9032	-5168	13944	-157	919	466	-16816	-2928	664	-936	1613	-88	-16000	-5616	7824	-1370	2340	294	-32768	4168	10648	1658	-2577	5588	-23808	-6456	-27272	-2330	-4986	1156	-22352	3544	16032	-1194	-2712	572	139	145	1
