#Activity	walking 
#ActivityID	1 
#Date 09-24-16-53
acc_rf_x	acc_rf_y	acc_rf_z	gyro_rf_x	gyro_rf_y	gyro_rf_z	acc_rs_x	acc_rs_y	acc_rs_z	gyro_rs_x	gyro_rs_y	gyro_rs_z	acc_rt_x	acc_rt_y	acc_rt_z	gyro_rt_x	gyro_rt_y	gyro_rt_z	acc_lf_x	acc_lf_y	acc_lf_z	gyro_lf_x	gyro_lf_y	gyro_lf_z	acc_ls_x	acc_ls_y	acc_ls_z	gyro_ls_x	gyro_ls_y	gyro_ls_z	acc_lt_x	acc_lt_y	acc_lt_z	gyro_lt_x	gyro_lt_y	gyro_lt_z	EMG_r	EMG_l	act
-9132	-1880	16008	-1364	13379	113	-20228	956	-2276	7430	15182	414	-19984	-496	3584	2986	9827	-649	-32768	-26712	-17592	-11943	4845	-15551	-4560	20636	-24876	17022	18562	5182	-20380	2804	5572	17080	-18198	569	126	138	1
-9332	-6424	15684	-1815	19330	1024	-23656	-128	-916	7605	16720	688	-23484	236	4596	1302	5314	341	-11832	-7172	11740	-17500	1177	-24058	-12356	9476	-11096	-8877	28160	394	-13384	12568	-2744	28141	-25	6889	127	133	1
-8924	-5544	16064	-1742	26009	3578	-23176	3896	-376	5069	19305	-1118	-22596	2956	9976	1131	3102	1099	32767	32767	32767	-21406	8405	-14235	-32768	-20700	25912	-15637	16564	274	-1360	6656	-9968	13966	14703	4083	128	106	1
-7928	-1088	19628	-4331	32767	3388	-28372	8868	2684	1825	22448	-759	-27156	6920	16948	-3872	-4968	594	-22000	-22384	12176	-19937	32767	-10851	-21360	6788	-17584	-32768	18207	1562	-31424	18548	9076	-25528	-6630	10653	128	119	1
-5332	-8412	20668	-7775	32767	2066	-32768	15456	10752	-1881	26699	-369	-26824	16896	27488	-3403	-20483	5489	-26252	-26336	32767	-2215	17530	-18039	-17412	-7172	-11740	-18042	21929	911	-20980	-20996	7400	-21199	25242	713	127	117	1
-14608	-17248	22728	-9437	32767	8848	-32768	9504	14248	-12805	24520	-3224	-17668	22708	14828	6232	-1263	8995	-14316	31696	9964	-2001	17350	-7182	-21316	2576	-9196	-1412	18844	4599	-15164	-18928	-13512	-4224	5543	-1015	125	118	1
-32768	-16652	19828	-3905	32767	23067	-32768	-12888	-7268	-15201	26308	-5359	-20128	6840	2456	-28520	-2249	9321	-14744	-3084	18272	-9854	12589	-9158	-9292	11656	-11864	-4959	14703	6736	-6336	12424	-11224	15732	6267	874	131	121	1
-32768	-13888	28112	-6245	32767	25650	-32768	1284	144	1886	29182	-4803	-32768	-3108	-13972	-19489	-2750	4212	-18732	3812	16576	-8560	7558	-6146	-19504	2348	-14576	-1005	12589	5771	-21716	4288	-9792	10792	14650	6411	128	120	1
-18628	-13696	29796	-16595	32767	19557	-28768	6920	92	-135	22677	-3931	-32768	6300	-10624	-13553	-14258	2148	-12436	3216	15496	-3555	3216	-2296	-18528	460	-10920	12029	9360	3759	-16848	8732	-8004	8413	10295	4736	120	110	1
-32768	-27096	32767	-13544	26144	5784	-17868	-3228	-10832	-10616	9786	-1291	-30156	6316	-8368	-9111	-18428	2990	-10008	1432	15640	-1801	1907	-829	-16256	6592	-8724	7955	7146	3345	-21760	3552	-7868	3835	13119	4003	127	115	1
-12500	-26432	32184	3977	-14914	-11992	-19112	-3516	-892	-3505	7138	-3242	-31100	2188	-10168	-6019	-18139	2268	-8132	2336	15108	241	2206	-16	-17628	4508	-6508	-3530	6422	2379	-15344	-680	-2044	1182	12756	2225	126	117	1
4004	-7452	17440	13489	-25726	-14877	-12384	-1316	5400	4085	-87	-2395	-27564	76	-11036	-3195	-19197	701	-9196	2416	14568	1633	2725	144	-17736	216	-6560	-3173	4886	2241	-17068	-416	-3384	733	14818	1529	122	132	1
6900	680	11560	11113	-25392	-9465	-5856	-4188	2164	1703	-11922	51	-19296	1324	-10996	-2718	-18195	264	-9516	3936	13848	2096	2810	391	-17032	756	-5288	4550	3001	2972	-15944	1792	-3684	1725	14538	-373	133	130	1
-692	776	10736	4038	-26312	-3604	-7020	-5224	-932	4877	-20645	1470	-16536	704	-11656	-3877	-18386	-1902	-9596	4472	13280	1589	2150	336	-15804	4464	-3416	8979	1976	2992	-16848	4444	-2328	1902	15813	-91	136	124	1
-6472	-2928	12520	2160	-32768	1414	-7012	-4212	-3448	10052	-23530	2486	-15800	328	-13988	-2835	-20881	-3300	-9652	4380	13252	983	1653	165	-15212	5712	-2064	7045	2140	2520	-15144	3736	348	111	14963	1233	132	126	1
-7460	-3336	12344	552	-32768	3007	-7760	536	-3400	9681	-27415	4166	-12732	-1488	-13120	-1744	-20331	-3134	-9708	4060	13056	427	1346	157	-14668	5044	-2036	3922	2716	1953	-14712	1384	568	689	13683	793	125	130	1
-7872	-3864	11544	-2933	-32768	798	-7696	1216	-3488	8999	-27893	4521	-10532	-3572	-12440	2475	-20473	-3015	-9468	4124	13080	18	1079	26	-14740	3200	-1780	4413	3177	1848	-14296	1076	1116	5442	12792	499	130	125	1
-10292	-6064	11716	-4330	-32768	-3293	-8020	3436	-3872	1897	-31968	7789	-7380	-1968	-13552	6911	-20154	-2062	-9496	3964	13156	-142	808	-245	-15068	3164	-1636	7465	3662	2051	-13688	952	2728	9655	11800	1149	128	126	1
-12372	-7768	13024	-3169	-32768	-7607	-11408	1052	-4864	-7344	-32768	9923	-6280	-68	-14300	9229	-19206	-2075	-9408	4356	12852	-243	619	-449	-14384	4872	-1640	9515	4416	1761	-12004	652	6532	10057	12613	3326	128	129	1
-15544	-7588	14768	-3752	-32768	-11868	-15412	784	-5556	-9600	-32768	9609	-5044	-244	-14584	11165	-17250	-2686	-9280	4104	12820	-544	264	-1096	-14564	4508	-1624	8221	5521	1514	-14152	2440	852	13102	14874	3872	125	130	1
-18640	-7880	16456	-8685	-32768	-15427	-20232	-700	-5012	-10480	-32768	8836	-3848	-516	-15332	11211	-14826	-4563	-9184	3932	13392	-671	162	-1479	-15088	3016	-1252	8210	6738	1396	-19412	7276	-1792	13121	11576	1646	126	129	1
-24812	-11872	19196	-12746	-32768	-17176	-26468	-4164	-8004	-7461	-32768	7858	-2820	-80	-13880	10439	-10286	-5535	-9168	3676	13628	-510	694	-1747	-15316	3044	-2320	6584	8081	1322	-18784	6120	-724	7483	8066	1561	129	125	1
-30880	-19588	24304	-10783	-32768	-21063	-32768	-4616	-11648	-3186	-32768	5962	-5800	3092	-5768	7845	-12753	-3750	-9252	3648	13400	-490	1309	-2072	-15332	3776	-3864	5679	8979	1118	-14380	4356	-92	4917	10991	363	129	125	1
-32768	-23568	26408	-2357	-32768	-28848	-32768	-2116	-15948	-693	-32768	4379	-12512	7380	1764	3260	-13534	1182	-9332	3880	13652	-697	2383	-2515	-16352	4128	-4300	4808	9383	942	-14264	4832	-1648	5758	13178	-514	128	121	1
-32768	-12112	15104	3115	-32768	-32768	-31308	-1932	-21380	-1115	-32768	2096	-18376	6120	10116	6508	-10681	2787	-9136	3688	13920	-539	4371	-3229	-17136	3548	-2580	4035	10292	624	-17988	5568	-44	3897	12824	-475	126	126	1
-32768	536	1904	-5351	-32768	-24771	-27920	-2024	-23216	-14840	-32768	-2236	-17392	17660	21012	5120	-16300	2957	-9140	2976	14488	-145	7143	-3149	-16016	2632	-864	1670	12502	-25	-18344	4832	4988	-298	9873	129	133	130	1
-32768	32767	-32768	-21467	-30251	3336	-8100	-1200	-32768	-26603	-21144	-14352	-7772	21632	32767	4516	-5611	-1628	-9396	2704	15340	466	10752	-2817	-16996	3412	-1544	-2652	15634	-782	-17976	4056	7344	-811	9394	-343	125	129	1
-32768	25656	-32768	-17775	1330	19170	5200	-8600	-32768	-16830	12928	-6264	-18148	10804	32640	2083	5121	-12108	-9668	2996	16216	1352	16287	-2142	-19788	2584	-2516	-3558	18679	-1553	-19880	2572	5116	558	9095	-1094	127	127	1
-26796	-52	-4228	32767	21247	21901	-18652	-4612	-23404	10691	30517	-2606	-16252	3668	-3956	-19175	12268	-15419	-9120	5520	16812	1658	23682	-3843	-23012	140	-1268	1521	20486	-653	-24948	2080	6104	4167	5953	-1304	122	127	1
32767	-13312	32767	13603	32767	-3260	-32768	32767	31352	32367	24581	7755	-16332	3360	-7292	-13009	14886	-7346	-8000	3824	18316	2582	32767	-5153	-29388	-1940	1396	5701	23134	-39	-31116	2156	11540	2841	-2602	-416	126	124	1
19104	-16032	32767	16415	32767	-394	-21988	5756	-21004	16188	14272	-2233	-32768	-8068	32767	24086	-9299	-3396	-6408	7336	19752	4083	32767	-6032	-32768	-8428	6552	8933	25758	181	-32176	-1160	19940	-2013	-16343	-1344	111	122	1
-20480	19216	27972	-5553	14497	13527	-25528	28476	-12180	31123	19938	228	-6960	10772	-25416	32767	17211	-70	-8844	11680	20484	4721	32767	-12822	-32768	-5668	9536	17624	25759	1002	-29304	-8604	32767	-16429	-32768	-8960	120	111	1
-10232	-32768	7844	212	20082	4670	-14024	-16956	-2860	4176	26671	-8777	-6040	16868	-18720	-16557	634	-960	-32768	14168	19580	4881	32767	-27681	-29728	14212	-4308	17343	25971	671	-12980	-14864	-6220	17359	-5099	-11543	131	113	1
-8132	-2392	13892	-856	2158	-133	-19412	7212	-3180	6132	4425	-3393	-16784	8368	-2244	-1332	14018	-1582	8112	10396	11212	-4175	-31045	5873	-9084	6972	-2360	10160	-9321	-1966	-22420	5132	-7908	-3314	-20118	-1101	120	139	1
-9660	-3072	13244	-1025	2822	-1379	-17552	2344	-2920	-6473	5764	-4842	-17440	-160	-3080	-5588	15432	-1116	4192	7312	7896	-5358	-26373	5197	-4868	6700	-3392	-1948	-15761	-2337	-16496	1812	-7976	-2901	-17250	49	124	131	1
-9284	-4780	12384	-326	2312	-1605	-16812	-4088	-2012	-11867	6097	-4163	-16348	-7852	-1968	-5079	16634	-1476	-3488	8348	10264	-3679	-27001	4543	-5012	5468	-5640	-9662	-20686	-3716	-14032	3340	-10096	-2177	-16417	1140	131	134	1
-9016	-4496	12320	278	1359	-1104	-15964	-6804	-2072	-6064	4551	-2435	-16436	-5976	-1524	-833	15009	-3380	-8512	9156	12276	-730	-32768	6442	-5928	4504	-6648	-9655	-25161	-4416	-14268	6176	-9784	-2340	-15006	2383	136	133	1
-8772	-3880	12584	394	789	-598	-15384	-3088	-2240	1321	3674	-861	-15272	-1248	-1344	2593	14676	-3482	-11416	10296	12332	1227	-32768	10171	-7256	3804	-7608	-7626	-29718	-5437	-10248	4528	-9836	-5602	-14564	2123	134	132	1
-8536	-3480	12796	359	479	-230	-16428	608	-1624	1397	3413	-527	-15904	3564	124	112	14318	-2975	-11388	9316	11028	2685	-32768	14013	-8880	2964	-7520	-6499	-32768	-6212	-9896	5156	-10704	-8568	-11926	1271	134	137	1
-8528	-3496	13016	138	544	9	-17240	1324	-1376	-3053	4350	-1498	-14204	3720	528	-5970	15548	-1990	-15740	10480	12036	4400	-32768	17840	-9848	2444	-8720	-5408	-32768	-6745	-7976	2600	-11616	-11413	-9127	-9	129	142	1
-8820	-3040	13016	-51	754	252	-16852	0	-2188	-5384	4708	-1593	-13484	2064	996	-10269	16166	-1209	-17768	11416	13356	4475	-32768	21141	-12556	4428	-9348	-3851	-32768	-6203	-6740	1248	-11956	-15370	-7657	-669	132	146	1
-8668	-3536	12928	-166	911	250	-16776	-1204	-1888	-5601	5301	-1896	-11352	1128	3128	-6500	15898	-2985	-19652	11380	14172	5862	-32768	23161	-16028	6412	-9780	-7001	-32768	-6032	-5272	108	-13032	-17894	-4360	686	133	133	1
-8888	-3684	12760	-173	961	224	-16460	-124	-1256	-5101	5827	-1499	-13672	384	672	-4394	16668	-3821	-25524	13600	17436	5738	-32768	25353	-17732	7556	-11544	-10686	-32768	-6949	-2712	-964	-13752	-20926	-4783	2028	134	129	1
-8552	-3076	13152	-267	1225	510	-15524	924	-152	-5375	6745	-1858	-22004	1244	552	-4875	12858	-889	-28984	16652	22708	3090	-32768	27804	-24048	9240	-15760	-13252	-32768	-8146	-6256	-72	-7376	-15573	-1712	2631	128	130	1
-8360	-2884	13488	-488	1916	390	-15964	-568	-1024	-3573	7772	-2003	-19548	-568	1936	-4429	9638	-1090	-32768	18644	24004	-308	-32768	31744	-27628	7096	-17588	-12707	-32768	-8890	-10104	1564	-4396	-10158	-5899	2078	128	132	1
-8632	-3596	13564	-894	3251	339	-18484	-992	-1676	-2335	9187	-1298	-16960	-1276	2528	-2842	13129	-235	-32768	10368	14192	-3256	-32768	32767	-22112	4400	-21904	-9625	-32768	-7244	-15232	1088	1020	-11246	-8725	1239	129	122	1
-8784	-4040	13020	-872	4348	1050	-16592	-984	448	-3305	9710	-1360	-18188	924	4800	-3602	14094	-870	-32768	-1088	-2732	6567	-30794	29137	-22724	432	-24200	686	-32768	1102	-18696	-12240	10836	-13107	-12296	2436	130	119	1
-8344	-3700	13692	-481	5953	1607	-15664	-2124	1392	-1417	12011	-1052	-18024	860	8332	-3249	11596	-2065	-32768	-32768	-26140	32767	-22429	17593	-8024	2224	-25660	10763	-22974	10020	-20132	-25900	32767	-12417	-3554	4082	130	129	1
-8624	-2652	15104	-1187	8730	1823	-18244	372	-1024	2454	14066	7	-18852	1544	5972	-3137	10435	-2241	-32768	-31764	-32244	30010	-4216	9395	7840	13844	-22508	26419	3149	9339	-26148	-6264	24192	13411	1370	-3880	129	122	1
-8760	-3276	16204	-2322	13813	995	-21760	564	-1420	2955	16296	950	-21072	-860	4596	-2290	10900	-1218	-32768	-18748	-15580	-14116	11045	-15707	-8792	17496	-24732	3601	21169	4113	-22104	3964	-2004	23271	-10514	7676	134	141	1
-9124	-5272	16320	-2705	20204	2000	-22496	68	-580	3336	18022	473	-23028	236	5920	-2874	6767	282	-22724	28252	14652	-21401	5977	-14841	-9428	9632	-17192	-22482	29344	1715	-5264	13396	-3412	19409	5801	7053	130	118	1
-8360	-4464	16956	-4048	27601	3394	-23288	4004	216	2892	20513	-495	-23100	3664	10564	-3855	1027	294	32767	31152	32767	-24369	16571	3092	-32768	-28852	31436	-32417	15870	-1663	2936	16020	-29268	-14007	13879	5069	129	143	1
-7644	-3596	20064	-5578	32767	3073	-29068	7604	3100	7	23496	-772	-25888	6084	17848	-4250	-6239	1324	-32768	-22240	6420	-15646	32767	-7881	-23428	10372	-24668	-32768	17300	-1585	-32768	7656	29692	-25001	-11267	9990	132	119	1
-4012	-6596	20388	-10710	32767	2025	-32768	15328	9828	-1669	26245	-622	-26836	14912	30412	-5182	-20985	7969	-26896	-18088	32767	-29	13769	-19435	-20548	-13712	-9924	-22122	23789	2883	-26076	-22824	-5436	-28964	23771	2605	129	103	1
-16728	-15196	22948	-11447	32767	7648	-32768	11256	12496	-13703	26257	-3015	-18116	16956	4560	5155	-128	7876	-7656	29616	7244	-7244	16893	-6086	-19052	5336	-8944	-3587	19762	6017	-9008	-21064	-18884	2800	5403	604	118	94	1
-32768	-14764	25260	-9621	32767	20665	-32768	-16000	-3848	-15543	27920	-4540	-20872	5520	2508	-21969	-2741	8731	-23120	-5792	19988	-8996	6540	-13481	-4940	8588	-14424	-4258	14783	9232	-3548	12988	-12076	19149	5531	2389	134	114	1
-32768	-20036	28924	-3655	32767	27925	-32768	-2924	-1140	2630	28372	-5064	-32648	984	-12644	-14537	-6758	4532	-13152	5424	16344	-9997	4067	-8233	-21012	280	-15180	2136	12491	6846	-24072	6292	-11636	13188	14997	6909	135	108	1
-19508	-14644	32767	-11298	32767	22268	-28876	4168	-3040	7739	22169	-6494	-30924	7532	-10528	-14761	-17429	2838	-10776	5864	13460	-2542	185	-2410	-18168	676	-9812	14838	9409	3900	-17840	11400	-8164	8361	9060	6925	127	117	1
-32768	-15048	32767	-22913	2055	7723	-18456	4356	-6240	-4130	12418	-1639	-31520	6800	-9484	-10219	-17957	2874	-8916	1924	15156	-1494	510	-1612	-14916	7604	-8816	6985	7714	3671	-20412	2456	-7336	230	11632	4559	132	120	1
1956	-22700	28540	-17132	-26596	2619	-19356	2156	6020	-14816	4209	-4709	-30540	7764	-11236	-8483	-19181	3966	-7088	2524	14792	-312	1657	-1068	-17976	1496	-6624	-5230	6871	2895	-15332	-4120	-2440	753	11396	2538	129	128	1
9596	-13876	16844	-1750	-29556	678	-9392	-3536	4236	-12552	-6496	-4309	-24284	4704	-10812	-8993	-18423	2475	-8912	2144	14216	1182	2499	-467	-17460	-1132	-6600	-5814	5615	2698	-16924	-680	-1988	742	13550	1208	135	119	1
6372	-6280	12664	563	-28294	-2659	-5484	-1148	1612	-4886	-16086	-3418	-17952	4392	-11148	-8964	-18448	1096	-9056	3608	13636	1183	2312	-389	-16476	184	-5368	3241	3675	3687	-15496	2548	-3928	-73	13820	-383	136	125	1
1752	-4332	11712	-3236	-28009	-6854	-8544	780	-624	-294	-22772	-1487	-16384	3448	-12676	-9144	-19746	-1072	-9700	4512	13228	566	1454	-953	-15388	5688	-4004	8109	2575	3620	-15284	7244	-4704	-1888	12913	304	135	138	1
-2576	-4864	12904	-5893	-29631	-10083	-9920	1812	-2380	-677	-28242	-31	-14084	1044	-11900	-8997	-20542	-1374	-9340	3996	13604	-145	946	-1005	-15232	6932	-2676	2896	3031	2515	-15324	4300	40	-4521	14545	1830	133	126	1
-7732	-5976	15120	-3965	-32768	-12900	-10140	920	-4076	-1843	-32479	1009	-13068	-2416	-13980	-7366	-23120	-2108	-9140	3068	13852	-184	1007	-739	-15444	6360	-2840	1942	3118	2412	-15284	-852	588	-3958	14716	1891	127	127	1
-10460	-4112	16456	-526	-32768	-15222	-9908	1752	-4792	-1268	-32768	2500	-9524	-2196	-12972	-1076	-21003	-2370	-9132	2956	13780	75	1179	-356	-15272	420	-3260	-755	3923	2074	-15648	-2480	548	245	14056	1496	131	128	1
-12844	-2004	17112	-616	-32768	-16566	-11964	2704	-5016	-2309	-32768	4162	-7580	-1684	-13344	2804	-20510	-2028	-9288	3168	13560	186	1238	-404	-15476	904	-3080	4184	4107	2848	-14024	-1780	1184	6758	13159	1297	133	136	1
-16444	-2244	19008	-1914	-32768	-16439	-15572	1992	-6156	-4125	-32768	5061	-4620	-1408	-14420	6215	-19238	-1965	-9180	3760	13320	114	1188	-706	-15044	4236	-3028	6380	4532	2668	-12804	1020	2336	10580	14375	2520	132	134	1
-22044	-3920	22208	-2855	-32768	-15648	-19192	984	-7168	-4407	-32768	5962	-3704	-1716	-14544	9770	-16941	-2843	-9148	3556	13272	-237	1047	-1376	-15048	4264	-3192	4673	5182	2472	-11996	1824	1516	8943	16380	4465	132	139	1
-26188	-4436	23740	-5432	-32768	-15941	-23168	1548	-7264	-2868	-32768	7778	-580	-2200	-15584	11538	-12144	-5141	-9128	3492	13452	-561	1093	-1896	-15236	2248	-2556	4891	5952	2447	-15972	4052	-1664	7807	17269	3184	132	136	1
-26912	-5224	25096	-9679	-32768	-16113	-30556	2028	-7788	-3699	-32768	10312	-1216	-3480	-10836	7790	-10222	-5003	-9092	3504	13808	-775	1634	-2399	-15100	3400	-2112	4535	7209	2527	-20512	6820	-4376	5754	11702	2087	134	127	1
-32768	-13144	27428	-10351	-32768	-17799	-32768	516	-14232	-7099	-32768	9393	-8696	680	-212	7416	-13415	-2111	-9164	2748	14132	-957	2938	-2828	-16236	2636	-3084	2684	8646	2489	-20072	6584	344	622	9610	2123	130	127	1
-32768	-17936	16564	492	-32768	-24145	-32768	-5636	-24296	-324	-32768	7098	-14896	1548	10668	8829	-14926	-663	-9332	2392	14484	-570	4640	-2492	-15824	2216	-2344	3834	10269	1953	-15704	4312	4288	3003	11346	1647	138	128	1
-32768	-11768	-2368	7181	-32768	-28568	-29916	-7688	-29564	5660	-32768	3446	-17908	9952	21428	15557	-16730	969	-8956	3484	14668	-178	7171	-2586	-16476	3896	-1184	2506	12577	1461	-17956	3060	5156	3466	11643	2053	131	127	1
-32768	15648	-32768	958	-26815	-19387	-12472	-1188	-32768	2043	-22626	-6299	-10620	28476	32767	15367	-4983	6682	-9124	2688	15300	-230	10632	-2954	-17412	1804	-2096	217	15218	1261	-18100	768	5764	3182	10923	2632	122	125	1
-32768	32767	-32768	-12388	893	-1382	2084	-10548	-32768	-14824	9305	-8473	-16584	14808	32767	14258	1021	-3014	-9288	2148	16720	499	16025	-2380	-19636	2872	-2836	-259	18118	298	-19568	3284	4268	3659	9354	1884	128	128	1
-32768	10244	-11644	7226	14919	10050	-13468	-11868	-31664	8242	23286	-2720	-19204	-1176	2396	-3476	8782	-12566	-9516	5068	16980	609	23971	-3575	-23664	1636	-1332	1383	20308	170	-20500	4272	4252	3967	8973	1696	127	125	1
5544	1608	32767	13104	20761	6562	-23688	12192	32708	32377	32539	-64	-18772	-588	-11148	-10886	19582	-10069	-8880	5492	18252	-720	32767	-6205	-26304	928	368	4647	22489	1095	-28416	5992	9800	4452	623	102	137	129	1
-1632	8508	4868	7714	32767	1	-29672	25888	32767	32767	29713	1368	-29544	1592	32767	20576	-3164	-5138	-8780	5924	19336	-389	32767	-9027	-32584	-2676	3812	5195	25161	1072	-30036	4476	17036	939	-8968	355	125	127	1
-18256	8996	896	6144	32767	-2255	-21372	13744	-16556	13538	20290	-3796	-4712	3824	7520	29320	12713	2220	-7624	13636	19692	593	32767	-14531	-32768	-9132	9736	11503	26454	2379	-31720	-2176	28240	-3507	-25864	-2410	112	120	1
-13692	-17988	11052	-5161	17169	11375	-20496	8168	-7588	15381	24683	-5795	-14448	22604	-19180	10190	827	-6784	-30572	15468	22708	-529	32767	-31964	-32768	5560	8048	24012	24819	3955	-18908	-13364	1084	4156	-15227	-9926	125	126	1
-25816	-1216	18084	8540	16412	7573	-14548	-16604	-10896	8117	15968	-11251	-13364	-4224	-13532	-21054	8679	1591	-32768	6540	20704	-5399	32767	-32768	-26908	16064	-8144	11789	27572	5000	-26080	-136	204	12431	-17928	-6065	127	129	1
-22916	8872	20740	7837	13192	8851	-17424	-920	-10924	2632	14925	-7510	-16472	-11712	-12716	-3930	11587	-5990	-32768	20020	29596	-2671	32767	-31880	-27848	2980	-8348	5464	22593	2174	-30160	9212	-17456	18333	-15429	-3533	120	119	1
-10996	-1512	15128	3666	1493	2418	-22564	9200	-8096	-5529	14009	-4157	-21924	-1284	-11216	-1942	12319	-8303	-14092	15408	30628	7115	32603	-20909	-20756	3200	-11748	-1499	17522	2414	-31788	-3424	-8352	1393	-21611	514	117	125	1
-8948	-2576	13748	1822	1121	1264	-19620	104	-5796	-13014	10478	-3948	-17672	1624	-7292	-884	12874	-4458	-27996	32380	32767	11313	-6355	-1325	-16080	5176	-12496	3157	10666	3412	-26852	-1664	-7068	118	-24555	1836	135	118	1
-7976	-748	14684	404	1356	561	-17408	620	-4096	-4186	7360	-4161	-16944	5792	-3100	1119	13504	-1602	84	18892	22172	2190	-24195	5768	-15260	-1760	-3184	10779	-673	5541	-27636	224	-8256	3087	-22694	-312	123	152	1
-8204	-1352	14196	-1006	1869	-327	-18864	2028	-3128	4282	4853	-3215	-16680	6268	-2036	433	14336	-1302	8456	7532	13276	1238	-23874	8859	-8952	1304	-3128	10406	-8407	4119	-23076	1612	-8644	5909	-21337	-571	128	137	1
-8864	-3468	13400	-1337	2395	-811	-18008	2328	-2964	1580	4139	-3786	-17216	2180	-2228	-1439	15232	-1062	5172	4472	11152	5757	-20263	11442	-5148	1188	-3724	2451	-15034	3779	-21656	2764	-8324	5695	-21569	-168	121	139	1
-9152	-4052	12508	-639	2393	-1528	-16832	-232	-2516	-3681	4910	-3469	-16100	-2864	-3580	-880	15743	-1430	-3180	5956	13868	6285	-22850	10475	-5492	3132	-5768	-3529	-20220	3050	-15452	-372	-9856	2939	-17350	1290	124	133	1
-9052	-4756	12156	423	1560	-1058	-16076	-3244	-1556	-6929	4421	-2634	-15804	-3876	-1960	156	16365	-2787	-6184	3524	15660	6357	-29992	10147	-5920	940	-6148	-5539	-25418	2859	-15088	2692	-10124	3265	-17501	2008	133	131	1
-8804	-3704	12552	749	818	-529	-16016	-3000	-1308	-3429	3829	-1725	-15492	-1976	-1908	1879	15094	-3039	-8596	2820	15248	8979	-32768	11691	-7184	-600	-6532	-3019	-30073	1510	-12332	3596	-10704	1805	-16351	1677	129	133	1
-8676	-2952	12880	551	683	-331	-16208	-716	-1764	1330	3548	-707	-15536	1544	-704	1657	15628	-2474	-9240	2728	15108	11550	-32768	14089	-8612	204	-7828	-1786	-32768	-6	-10916	5192	-10848	-1052	-14341	1355	132	135	1
-8588	-3360	12992	304	741	-175	-16656	1376	-1464	1076	4110	-469	-14868	3932	1216	-3429	14238	-1369	-12052	4312	15824	12733	-32768	16534	-10836	-172	-8548	-2087	-32768	-499	-7932	3080	-11552	-4312	-11631	264	133	135	1
-8580	-3420	12932	142	800	227	-17020	2928	-1544	-4454	5496	-1615	-11936	3892	3924	-6518	14658	-2164	-17144	6648	17152	11878	-32768	19101	-11124	1284	-9540	-2752	-32768	-1149	-6612	2084	-13072	-8652	-8826	-763	130	134	1
-8896	-3164	12724	55	905	614	-15960	264	-1612	-6536	6324	-1907	-11556	4416	4212	-6022	14462	-2460	-20316	7776	18432	10850	-32768	21996	-14028	3228	-10452	-6625	-32768	-1506	-4512	1580	-16248	-19707	-8101	-574	131	134	1
-8604	-3328	12992	245	867	942	-16376	-460	-576	-5419	6699	-1584	-17800	3480	776	-6574	15015	-1889	-22828	7720	19504	10412	-32768	25313	-18200	3832	-10864	-10900	-32768	-2812	-3320	228	-13408	-18632	-185	2257	134	129	1
-8444	-3252	13392	392	1217	1376	-16324	844	448	-3230	7596	-1454	-21448	1428	2624	-3756	13003	-1659	-25372	8448	21824	9779	-32768	27145	-24420	4428	-13324	-12300	-32768	-4769	-3860	-136	-11408	-14854	-306	2619	130	127	1
-8540	-2476	13484	216	2055	1354	-16088	1472	-368	-1935	8945	-1480	-19208	2188	2592	-2104	10135	-2159	-32768	13016	29348	7413	-31611	28565	-30320	7068	-18136	-12524	-32768	-7120	-10360	1084	-3412	-10021	-7504	2125	129	128	1
-8492	-2884	13796	-175	3312	1152	-17156	652	-1852	-864	10154	-1166	-15516	1112	2648	-3075	12284	-893	-32768	7216	21984	1102	-32768	32767	-23980	5352	-22056	-7829	-32768	-7658	-15968	2948	2276	-9371	-13264	2203	128	126	1
-8692	-3112	13820	-958	5167	1069	-17460	312	-1072	-1210	11290	-559	-16500	-512	4068	-1080	15939	-383	-32768	944	484	-1421	-32768	32767	-21260	5616	-25864	-6751	-32768	-4077	-17652	-3460	10292	-9582	-12089	3202	128	119	1
-8552	-2780	14272	-1070	7099	1483	-16612	-352	-204	248	12820	-439	-18184	524	6132	-270	11853	-1210	-32768	-32768	-30264	17806	-28334	17077	-11836	-1720	-25320	2321	-25906	6229	-14532	-18116	32767	-16449	-7325	4509	127	118	1
-8568	-2528	14316	-1030	7540	1469	-18308	884	-1500	3824	14601	336	-17260	1352	6220	-73	10616	-458	-32768	-32768	-32768	31341	-9576	-4929	7432	12108	-24036	17363	106	10403	-31196	-16300	32767	4811	4546	-2697	127	129	1
-9044	-2692	15024	-941	11703	1465	-20608	1584	-1900	5290	15820	1064	-19496	116	5160	657	9856	-42	-32768	-26320	-14156	-10257	3259	-20233	-2768	8184	-29436	7287	21669	4130	-14196	6512	6168	14754	-5663	1313	130	135	1
-8692	-5324	15884	-2394	21277	1379	-23116	2496	-376	4680	18761	1281	-22772	3664	7040	-1038	4663	972	-10000	12296	19200	-18882	-87	-20954	-15040	7852	-1244	-352	27761	1641	-11864	5012	-3236	27395	3986	6559	130	115	1
-7736	-1480	17408	-4693	29373	2270	-24152	7520	668	1732	21367	-99	-23432	5976	14168	-2954	443	2713	29324	32767	32596	-13651	24370	-10162	-32768	-17388	10932	-22224	14123	-3648	-11308	1320	-9128	9129	10340	3492	126	122	1
-7212	-3132	20688	-7501	32767	551	-32768	9336	5968	-1650	25457	1413	-31904	5952	22160	-5294	-9856	2433	-32768	-32768	23812	-12224	32767	-2144	-10764	-18124	-21500	-32768	22436	487	-32508	14908	32767	-32768	-10603	13603	130	117	1
-5228	-10976	22260	-6159	32767	4285	-32768	12496	12904	-3606	27067	-1912	-25816	17288	30224	4294	-24015	7987	-18712	2348	18548	6673	14939	-16401	-21760	-13124	-11508	-1834	23515	4326	-23948	-29412	-23492	-16804	19910	-2477	125	115	1
-32768	-18160	23648	-5643	32767	16935	-32768	-4876	400	-5714	26776	-3324	-17392	16444	2084	-7051	2155	6636	-21284	23680	13960	-12299	16707	-7136	-15520	16944	-11680	11761	16457	9423	-5952	-2852	-15460	21625	-381	-2887	124	112	1
-32768	-20996	25660	-30	32767	27776	-32768	-10580	-4464	-856	29303	-3436	-26428	-3512	-8624	-22048	-438	5457	-15172	8576	15196	-7488	5516	-10686	-11460	9016	-14136	-533	15153	7576	-15664	20696	-13352	17809	10270	4095	130	119	1
-30152	-18404	32767	871	32767	29852	-32096	2428	652	5276	27689	-4819	-32768	-1564	-13008	-11864	-8510	3455	-11780	-4712	19036	-4797	1215	-5203	-21732	1892	-13420	7009	11830	3574	-23180	12992	-11424	9333	13288	6455	128	111	1
-7224	-2480	30340	-13893	32767	20170	-24572	1268	-3704	2752	17769	-3530	-31752	5332	-6140	-6356	-18740	1618	-9884	3084	14632	-2501	554	-2050	-21016	2068	-12508	8339	11456	2957	-16612	8252	-6892	1445	11731	5289	126	110	1
-24004	-23744	32767	-21098	-6022	5622	-19420	1576	-3572	-6305	12295	2618	-29104	5748	-10532	-3669	-18244	2535	-8352	2732	15068	-890	946	-1180	-17388	4176	-7604	-3072	7650	1474	-20768	4	-5460	-2387	13921	2416	126	114	1
4716	-20884	23328	-7273	-23767	3498	-15864	-1236	4792	-8707	2940	-2400	-30600	6464	-11380	-3961	-19618	2023	-8984	2120	14528	644	1745	-455	-18052	312	-7544	-7219	6287	1110	-15276	-3588	-2068	-2368	14417	2455	124	123	1
8412	-11084	14108	6117	-25172	1721	-7828	-3060	2444	-4682	-7222	-1202	-22188	2188	-11160	-4030	-18335	1140	-9204	3184	14120	1449	2191	-171	-17604	-1672	-6564	210	4100	2144	-17452	-1160	-3572	-251	15996	322	132	132	1
5312	-5416	10672	4845	-24449	-2683	-6668	-2668	2116	-3799	-8734	-1034	-16244	3312	-11244	-3751	-18839	236	-9836	3936	13428	1643	2207	48	-16096	2584	-5480	8092	2378	2666	-16208	1076	-2636	2475	15844	-79	133	130	1
1380	-5712	10164	-366	-24904	-7265	-7248	-576	-1140	1812	-21479	2567	-15084	2648	-11888	-3985	-19475	-1481	-9584	4328	13160	1303	1829	218	-15824	5440	-3364	7967	1896	2655	-16016	4172	-2632	1382	15101	145	130	119	1
-3428	-8012	11008	-1202	-27673	-10713	-8164	-940	-2848	1646	-26793	3286	-14104	1812	-11656	-4034	-19099	-2002	-9208	4052	13364	852	1621	149	-14816	5528	-2252	3528	2145	2066	-13468	4264	-2404	209	14407	980	125	126	1
-6908	-8344	12392	2238	-32106	-13479	-8524	-1668	-3920	3151	-31003	3709	-10792	-1768	-11304	-1847	-20872	-1956	-9484	3972	13152	592	1398	142	-14656	3836	-2560	2028	2644	1423	-14396	1120	-440	1730	14670	253	126	131	1
-10040	-6108	13852	4204	-32768	-16241	-8768	-400	-4880	4206	-32768	5183	-8900	-1796	-13212	1602	-21111	-2807	-9480	4172	13140	288	1066	-221	-15032	2828	-2332	4322	2833	1682	-14312	-120	436	7611	14529	1452	127	131	1
-13588	-4596	15404	3065	-32768	-18564	-10436	776	-5132	2475	-32768	6771	-4836	-1616	-12708	6271	-19664	-2268	-9616	4024	12740	-8	805	-566	-14976	3212	-2504	7740	3079	1967	-11476	-52	5108	10118	13783	2246	131	131	1
-15056	-3760	16212	351	-32768	-19404	-14268	640	-4988	-813	-32768	7768	-5348	-1920	-13692	9448	-18025	-2125	-9572	3920	12596	-333	239	-879	-13880	3784	-2284	8373	3761	1809	-11268	868	1636	10484	15591	3485	128	135	1
-17984	-5492	18440	-2348	-32768	-18515	-18504	-324	-5552	-2453	-32768	8576	-4164	-2020	-15196	12849	-16816	-3074	-9120	4056	13108	-538	-90	-1213	-14884	3420	-792	7612	5016	1773	-18600	5668	128	12098	14972	2045	129	130	1
-23956	-7252	21808	-3665	-32768	-18036	-23748	-1344	-7064	-1780	-32768	10131	-3000	-1144	-15792	14864	-13135	-5028	-9012	4036	13524	-653	94	-1690	-15416	4344	12	4985	6797	1674	-21732	8080	-752	7967	9928	1925	128	126	1
-26856	-8700	24872	-5158	-32768	-18413	-29768	-104	-7612	-2148	-32768	11615	-3556	-1476	-12328	13244	-9240	-5682	-9068	4140	13580	-853	793	-2344	-15288	5072	-1364	1722	8528	1455	-16896	6948	1992	811	8715	2124	126	128	1
-32768	-13964	29284	-6243	-32768	-19175	-32768	-212	-11672	-7006	-32768	11381	-8032	2216	-2148	8167	-11560	-2152	-9252	3628	13700	-948	1827	-2815	-16036	3296	-2504	856	9728	1168	-15072	4556	1488	2341	12339	736	124	128	1
-32768	-20488	25796	1906	-32768	-20419	-32768	-6436	-18808	-5628	-32768	6691	-17292	1288	5468	1363	-14021	364	-8980	3140	14324	-746	3563	-3125	-16204	2560	-1872	3114	10921	1147	-17080	3540	1660	4381	12278	-684	125	129	1
-32768	-11304	7084	764	-32768	-21165	-32168	-7548	-24844	-4412	-32768	6218	-20508	11740	18096	9024	-17319	3543	-9156	3448	14652	-449	6363	-3177	-16396	3520	-1044	1638	13228	794	-19080	3568	3600	1516	10608	860	123	127	1
-32768	9828	-28244	-12198	-32768	-8760	-19760	1696	-32768	-15939	-28621	-7718	-9640	28668	32767	4108	-12379	8691	-9004	3240	15204	-251	9976	-2942	-17076	2432	-2544	-2276	15864	310	-17796	1760	4520	-749	8815	1513	135	124	1
-32768	32767	-32768	-30195	-8180	87	7940	-6992	-32768	-32729	-860	-10027	-18044	21252	32767	7451	3469	-2413	-9668	1548	16528	473	14966	-2273	-18968	2736	-4520	-3426	18374	-587	-17852	3720	2844	311	9714	948	122	124	1
-32768	12400	-21192	7936	14161	14865	-9644	-14356	-32768	-3718	23106	-3698	-16552	-1496	9192	-10406	6654	-15765	-9608	5348	16596	992	22113	-2451	-23148	1940	-2256	-539	19919	-700	-23200	4796	3360	3076	8569	-159	130	124	1
-19712	-6664	26140	23738	21535	9702	-23712	3948	9796	29691	32767	87	-14108	-7012	-12324	-18453	20726	-15509	-9012	5444	16464	335	31031	-5395	-23688	88	-404	3579	21699	648	-26704	3876	8772	3719	2182	-267	130	127	1
9276	-7536	28368	14162	32767	-6955	-32768	28256	9984	32767	9511	5362	-16612	-5476	-7752	17003	6800	-7125	-8020	5612	18192	1980	32767	-6802	-30384	-2788	3408	5881	24814	578	-29640	2800	15324	-189	-8057	376	119	122	1
-32768	24960	24548	4169	32767	-6629	-14700	9932	-17340	22613	12548	-1532	-27236	-2088	19408	32767	2597	-1105	-7864	11424	20220	1827	32767	-10636	-32768	-10692	8376	12279	26357	1717	-29876	1764	17164	-1018	-10891	344	123	121	1
-20728	9240	20352	-8896	15877	17697	-26912	24712	-10184	25368	20002	-3068	-26256	30496	-17568	30341	7946	-2703	-19732	17812	20784	2273	32767	-23821	-32768	3464	8304	24235	24905	1786	-22184	-12096	15608	-1380	-19761	-12136	108	120	1
-17508	-32768	10420	6726	21754	4066	-16472	-22036	-3512	4092	21356	-10005	-6608	11096	-13552	-20058	3602	-1276	-32768	8860	21080	-5532	32767	-32768	-27292	17708	-8804	11476	27742	2488	-25140	256	1676	14203	-14073	-7104	117	122	1
-16684	-10464	13468	8268	6506	10015	-10952	-4404	-8860	1850	14404	-8957	-11012	-20292	-12404	-17333	9435	-1959	-32768	19752	26032	-8605	32767	-32768	-29240	8408	-8020	4612	24171	1052	-31120	13520	-17436	19289	-14227	-3965	118	120	1
-10716	5280	14548	8061	1194	6449	-22776	3232	-10444	-4123	14472	-5490	-24244	-2232	-10104	-4523	12672	-10669	-26668	16280	30376	17	32767	-23040	-24124	3440	-10108	-7204	20007	866	-32768	-196	-8756	-1734	-19684	1018	116	129	1
-10488	-1432	14168	3483	431	2573	-22152	4324	-6340	-12815	13094	-1632	-17980	-2128	-8572	-4603	12227	-5208	-32768	23196	32767	12860	3798	-7311	-16088	4460	-16572	-4234	14298	438	-26604	-1256	-6740	-3647	-24764	2947	116	118	1
-8524	52	15048	1560	474	1522	-17724	-892	-4384	-5346	8947	-3079	-17320	4516	-4320	3109	13240	-1899	-3800	22480	26792	9008	-24766	2925	-15220	-3132	-4360	9912	2296	3295	-27328	372	-7632	705	-23109	-1173	122	150	1
-8544	-1124	14064	-99	1277	275	-17828	1820	-4184	8740	6073	-2548	-15916	10244	-2772	4139	13827	-790	6976	11816	14176	4210	-28229	6394	-10504	592	-2620	16193	-6324	1755	-24336	1900	-7948	3241	-21030	-2824	118	141	1
-8280	-1892	13960	-1311	2209	-896	-18184	6988	-3272	5761	4827	-3202	-17200	7308	-2140	-300	14947	-1107	8128	7096	8904	3647	-24314	7647	-5492	4008	-2776	7649	-13743	3190	-18312	1428	-8160	2330	-19500	-1002	118	134	1
-8904	-3172	13140	-1501	2549	-1807	-17272	1452	-2756	-4618	5744	-3957	-16976	-1460	-3780	-2408	15251	-647	168	7396	10212	2936	-22836	7530	-4004	3900	-4796	-3021	-18932	1946	-14916	-576	-9556	2336	-16637	-121	124	131	1
-9208	-4720	12332	-501	1924	-1333	-16484	-3336	-1996	-8741	5562	-3572	-15856	-4456	-2000	-169	15900	-2349	-4392	6360	12552	2340	-27357	7301	-5392	2768	-5952	-6326	-23735	1783	-12932	864	-9704	3738	-16555	661	127	134	1
-9016	-4064	12380	177	1072	-658	-16000	-4452	-1292	-4897	4538	-2012	-15916	-3096	-1276	2478	14865	-3297	-7728	4596	14084	5700	-32436	9304	-6692	788	-6844	-5925	-28464	1125	-12912	4192	-10692	3082	-15525	846	132	127	1
-8716	-3128	12608	375	633	-181	-15684	-816	-1248	1323	4197	-739	-15416	584	-564	3476	14020	-3079	-10228	4820	14792	9539	-32768	12927	-7800	444	-7976	-2695	-32768	-491	-12096	4640	-10464	2613	-15236	643	131	129	1
-8732	-2876	12932	322	659	18	-16564	1580	-1824	1662	4078	-428	-15416	4948	160	-1191	13932	-2522	-11048	5200	14368	11376	-32768	16297	-9668	356	-8004	-1218	-32768	-897	-8568	3564	-11500	-3108	-11492	-524	128	138	1
-8704	-2848	13004	48	786	140	-17432	2204	-1680	-1989	4713	-1275	-13916	4836	1524	-7130	14278	-1755	-14404	6108	15200	11602	-32768	18462	-10816	680	-8864	-709	-32768	-896	-7552	2224	-12100	-7160	-9377	-1697	128	138	1
-8644	-2948	12920	-29	1025	378	-16664	1056	-2208	-5942	6372	-1638	-14360	6096	3340	-12524	14623	-3478	-17812	6824	17368	11067	-32768	20109	-13344	3000	-10384	-2100	-32768	-852	-3852	1824	-13928	-17054	-8362	-1411	129	136	1
-8836	-3024	12848	-25	1030	578	-16132	144	-1760	-6364	6812	-1746	-12164	2376	2516	-5017	14748	-3473	-23380	8440	20940	10702	-32768	22511	-16320	5760	-11408	-6339	-32768	-1754	-4264	1956	-13128	-16143	-1534	1505	127	130	1
-8376	-3072	13104	-98	1086	624	-16072	932	-448	-4908	7574	-1462	-18268	3080	1684	-4822	16073	-2640	-27984	10008	24440	8840	-32768	26025	-20932	6656	-12088	-10360	-32768	-4349	-3952	2248	-11400	-13814	-386	2390	129	129	1
-8172	-2912	13468	-158	1541	850	-15724	1240	-144	-3421	8447	-1343	-21332	1384	1364	-3080	11476	-796	-32768	12224	28320	5832	-32768	28792	-29420	5860	-15148	-10089	-32768	-7312	-7540	2500	-7240	-8305	-4695	2759	125	128	1
-8968	-2744	13336	-178	1707	804	-16484	-56	-1328	-1463	9733	-1267	-17324	-1784	1820	-1843	9311	-1056	-32768	12920	24068	1429	-32768	31414	-27148	5964	-18780	-7327	-32768	-8154	-13216	4348	-1780	-4814	-9487	3134	125	122	1
-8824	-2952	13740	-145	3860	1087	-17824	-632	-1816	1314	9803	-538	-16528	-2200	2832	1168	14577	740	-32768	4948	4292	-1071	-32768	30528	-24192	7856	-21988	-11024	-32768	-5035	-20972	-752	7760	-9412	-15375	4726	126	120	1
-8384	-3364	13964	-532	5793	1501	-16792	1120	132	538	11774	-318	-17600	848	5816	569	13620	-465	-32768	-32768	-17840	10878	-28454	21526	-17956	-3268	-27568	-5851	-32740	4467	-19020	-15936	32767	-18546	-12804	5929	126	123	1
-8672	-2984	14492	-407	8407	1850	-16960	112	-700	2936	13949	-382	-17592	2040	7396	1019	10915	-289	-32768	-32768	-32768	32767	-13570	7566	4576	3540	-22200	19942	-9317	11248	-31280	-24672	32767	3507	5119	-1789	127	120	1
-8808	-1148	16156	-836	12651	853	-19828	1532	-2624	6722	15076	933	-18528	876	5088	1495	10177	-551	-32768	-22364	-20836	-15650	4134	-18828	-2556	16648	-24316	17341	14344	6641	-25988	-3020	13012	9826	-12551	1146	124	131	1
-9100	-4500	16148	-1819	18835	1119	-23616	1540	-1484	6290	17631	1773	-22816	1052	4536	113	6213	408	-2376	-17440	11088	-26560	12056	-29746	-12848	10692	-1528	-10306	27998	764	-17164	11240	-584	24502	-2889	6852	125	121	1
-8196	-4428	17636	-2305	25973	3093	-23992	4448	-964	4040	19900	263	-24408	1352	9872	-735	528	2460	2512	16652	32767	-11100	25134	-14313	-32768	-9588	1488	-28132	20351	-9218	-21004	-176	3952	13519	2323	5120	126	136	1
-5912	-2608	20392	-4759	32767	2964	-30560	7800	3000	2755	23649	1322	-30708	3868	17464	-3505	-7342	1815	-32768	-21844	29160	-10365	28569	-4350	-15756	-25712	-21724	-32768	27867	3428	-4316	8136	20680	-32768	-3627	14496	129	120	1
-5464	-12668	22140	-5255	32767	4052	-32768	16172	10068	164	26176	-168	-27944	14024	30100	4907	-24978	8825	-6412	-11140	16248	5506	16316	-12801	-11960	-6364	-10112	-673	22884	4712	-12444	-26016	-32768	-12562	24536	-3183	125	118	1
-14276	-16832	21804	-5792	32767	10815	-32768	9264	12948	-11824	25805	-2704	-15332	22380	7036	8805	1097	8593	-27164	32767	10464	-10736	14578	-11913	-14300	17380	-12248	12266	15297	8690	-8872	-1232	-13440	13234	-1211	-2265	120	109	1
-32768	-13240	20760	-3267	32767	23765	-29620	-15172	-5048	-14352	27528	-3057	-20584	4728	1064	-27019	-1195	6822	-19388	-1732	23584	-8885	2258	-12202	-17740	11944	-16076	-5343	14218	8574	-21428	20504	-11956	13919	11458	4511	126	114	1
-29684	-16904	30136	1980	32767	30483	-32768	-3196	708	3287	28180	-4304	-32100	-1864	-11460	-18810	-3894	3600	-10720	-3632	17508	-3940	-344	-4089	-20224	-464	-11888	1985	12033	2098	-22296	12332	-11768	2845	13148	8338	126	111	1
-14736	-16180	32767	-6833	32767	25480	-27228	4260	-1780	7196	19940	-5944	-31576	5184	-10048	-13874	-14250	2176	-9672	2576	14812	-1855	-766	-1994	-15268	4988	-9228	3998	9557	1936	-17148	1212	-6008	-1409	12965	5989	125	94	1
-32768	-15128	32767	-16898	6078	7905	-17568	2820	-8072	-4466	11115	-1105	-29668	5524	-8584	-8811	-18087	2630	-8828	2120	14256	-332	-77	-812	-17400	164	-8276	150	7238	2879	-17704	-2212	-4956	-67	12192	2078	125	118	1
-2064	-22060	27472	-14556	-21406	-318	-19580	668	4148	-11013	5315	-3311	-29780	5064	-10620	-6130	-18650	2533	-8516	2532	14180	919	863	-240	-17468	2504	-6704	-3129	6041	2016	-17256	-600	-2572	1231	13354	1626	125	117	1
7288	-13240	15248	-572	-25686	-1354	-10956	-3768	3080	-8155	-4186	-3398	-24532	3284	-10812	-5297	-18528	1089	-8680	3500	13992	1451	1355	42	-17228	732	-5608	-1778	4561	2580	-16656	576	-1908	194	14427	875	124	124	1
6556	-6536	10896	2933	-24026	-3586	-4944	-1748	868	-2627	-13446	-2533	-19204	3444	-11096	-6256	-17535	659	-9244	3540	13800	1485	1409	338	-16472	720	-5040	5851	2946	2860	-16188	764	-3188	1694	15075	927	129	122	1
1724	-5468	10404	29	-23607	-7242	-6708	-796	-844	1996	-19900	-667	-15400	2300	-11476	-6860	-18657	-1197	-9308	3768	13704	1384	1274	537	-15764	4644	-4184	8372	2072	2904	-15772	2384	-1380	3036	15579	207	124	123	1
-2776	-6276	11504	-2006	-26517	-10487	-8124	-88	-2624	2632	-25037	599	-15936	988	-11748	-6119	-18497	-2110	-9060	3904	13612	1207	1274	509	-15724	5036	-3076	4406	2085	2486	-16056	2836	-1332	2209	14307	770	127	130	1
-6172	-6096	12712	-1351	-30864	-13522	-8436	136	-3776	1559	-29406	1861	-12252	-1388	-12380	-4716	-20636	-3185	-9172	3668	13372	1030	1262	418	-15200	4052	-3184	1465	2362	2094	-14540	1348	796	2922	15960	193	117	129	1
-6748	-6048	12760	-1037	-31688	-14058	-9132	392	-4420	1509	-32768	3226	-10376	-3432	-11828	1377	-18866	-3427	-9236	3828	13304	821	1121	233	-15004	2424	-2508	3114	2422	1971	-14404	704	424	4779	14441	228	125	127	1
-11280	-3164	15164	712	-32768	-18032	-10476	1404	-4500	366	-32768	5037	-8816	-3036	-12384	4260	-19552	-3148	-9128	3928	13236	352	844	-337	-14816	3320	-2128	6019	2688	2317	-14696	984	1312	8868	14018	612	129	125	1
-14184	-2872	16180	-353	-32768	-18559	-13092	1208	-4900	-1569	-32768	6484	-5244	-2140	-12708	7782	-18733	-2045	-9240	3692	13144	-35	409	-622	-14008	4384	-2020	6560	3458	2048	-13892	2712	1548	10137	12734	1191	129	129	1
-17572	-4136	18232	-1337	-32768	-17532	-16844	480	-5816	-2285	-32768	6768	-4616	-1420	-14592	11936	-17964	-2557	-8940	4016	13128	-319	0	-966	-14696	4952	-1864	5237	4528	1609	-12140	2988	4428	8715	12614	3105	127	130	1
-18100	-4428	18692	-1612	-32768	-17294	-20752	-64	-6512	-1235	-32768	7847	-3636	-440	-14664	15580	-15064	-4310	-9064	4104	13416	-617	-161	-1561	-15400	3456	-1804	4680	5435	1674	-14444	1868	1600	6776	14900	4656	119	129	1
-24168	-5872	22032	-6165	-32768	-17505	-26780	1448	-6224	-320	-32768	10233	-2952	16	-12420	13993	-10403	-6008	-8820	4028	13568	-637	56	-1927	-15312	2780	-1196	6019	6532	1548	-19560	5352	-436	5654	13504	2775	133	125	1
-27552	-10196	25424	-7601	-32768	-17915	-32768	1796	-9864	-3074	-32768	10552	-5568	436	-4820	11207	-10759	-3829	-8856	3944	13692	-718	613	-2495	-15544	4700	-2012	3879	7933	1511	-19568	7744	-2320	4973	9814	1248	126	123	1
-32768	-22736	27196	-1712	-32768	-21259	-32768	-5384	-15980	-5370	-32768	8438	-14616	4832	6604	4099	-15490	146	-9188	3484	13992	-851	1678	-2877	-16124	3800	-2784	2312	9193	1252	-16364	6556	1308	2499	10866	1313	125	128	1
-32768	-15104	10548	5412	-32768	-26386	-27212	-8432	-24960	1049	-32768	6470	-21248	8264	17020	6833	-12883	3113	-9032	3756	14292	-934	3503	-3099	-16476	3692	-1464	2013	10680	981	-18192	3960	2508	2143	12220	871	138	129	1
-32768	-8052	-10028	2933	-32768	-20612	-25412	-5912	-28644	-4305	-32039	-1597	-14648	19500	26936	9410	-17055	4533	-8656	2476	15136	-728	6283	-3178	-16124	2228	-1028	538	13285	734	-18000	3092	5288	1448	9827	1285	125	127	1
-32768	29948	-32768	-22379	-21105	-6889	-3940	1980	-32768	-18267	-15737	-10996	-12124	31872	32767	9355	2510	2563	-8568	2276	16100	5	10333	-2737	-17800	3092	-2860	-2083	16226	-152	-18872	3620	4976	117	9438	1152	114	128	1
-32768	13956	-32768	-15790	5441	5664	-2996	-14484	-32768	-20687	13077	-7567	-17008	4128	26704	-1470	-1438	-9675	-9048	3100	17020	850	16432	-2386	-21504	2468	-3248	-2984	18888	-977	-21328	4156	2616	150	8535	499	120	127	1
-32768	6044	-6200	11432	13752	10815	-14000	-10416	-26056	11412	25874	-2987	-16124	-3468	-2588	-16256	9896	-15311	-9192	5384	16756	648	24120	-4044	-22784	528	-1844	1072	20227	-93	-23936	3488	4544	1819	5708	-572	121	125	1
9012	7284	32767	22868	18968	-2112	-26000	23712	30088	32767	29713	-2594	-13340	-6208	-12696	-3554	19424	-12756	-8904	4288	17776	-714	32767	-6283	-24472	832	-176	4330	22591	538	-25696	3496	9808	1915	-1048	-248	123	127	1
1500	21580	6492	11764	32767	-9381	-30568	10880	-12488	32767	9520	1766	-28244	-10280	18872	25713	-4509	-6483	-8128	6448	18332	56	32767	-8569	-31624	-2584	3520	5139	25286	361	-28964	380	17800	-129	-10198	474	126	123	1
-32768	32767	32767	-17	30148	7278	-21624	16780	-13828	32767	6924	766	-108	23148	10364	32767	9412	6003	-7816	10816	19548	-103	32767	-14271	-32768	-10296	8344	12656	26346	2372	-29032	-5828	27944	-4517	-27984	-4316	122	120	1
-12316	-29224	6828	-8704	17899	10837	-25856	12012	-628	12272	24688	-4859	-17604	26520	-13360	17442	1362	-2822	-21652	18712	20088	-969	32767	-29505	-32768	6600	7452	25619	24603	2649	-15628	-15408	-7908	16386	-10435	-10763	125	123	1
-21504	992	17048	10590	16461	7809	-16828	-22988	-9160	6594	14749	-12650	-15056	-3796	-10120	-21212	8250	449	-32768	11144	21812	-8384	32767	-32768	-26500	16856	-9360	12260	27134	4016	-25796	4276	-1520	16713	-16293	-6015	122	128	1
-16596	-18000	12664	8767	5495	7078	-15400	1244	-11484	2969	15029	-6872	-11364	-11244	-9760	-6942	12013	-7126	-30908	18496	25080	-8150	32767	-32768	-27716	6056	-7484	4237	22678	1686	-30492	9336	-16408	17291	-14768	-3551	127	131	1
-12120	-600	15256	4889	1232	3256	-21476	9096	-8144	-7020	14145	-4286	-24552	-1612	-10024	-7698	11975	-10000	-22328	18516	29436	4204	32767	-21550	-20800	2124	-11776	-6703	17726	2258	-32768	-1712	-8952	3253	-21774	970	121	130	1
-10012	-3584	13000	2806	661	1662	-20644	156	-5824	-15420	11210	-2826	-17252	-2676	-7028	-4707	12404	-4506	-32768	28872	32767	13564	-2925	-2873	-15000	4584	-15436	682	10439	1926	-26296	-1596	-6864	1178	-24191	1741	124	120	1
-8348	-1552	14380	857	897	835	-16680	-3440	-4240	-2192	8016	-3190	-17944	2776	-4396	4516	12798	-1258	-1008	20888	23784	7723	-27028	6396	-13588	-3468	-3156	12754	-1160	5033	-26932	-628	-8404	4181	-22579	-1699	123	146	1
-8340	-1360	13816	-463	1555	-44	-18972	2516	-3976	11711	4366	-2017	-15544	7120	-3064	6122	13140	-1258	8724	10424	11680	5157	-27559	10401	-13024	-3228	-3008	14236	-2643	4864	-22428	2084	-7820	6958	-20312	-1867	113	136	1
-9032	-2452	13496	-1124	2280	-935	-17716	5716	-4012	5564	3662	-2958	-17004	4792	-4096	2882	14640	-1491	6932	6336	8800	6111	-22063	12106	-4496	2732	-3400	4847	-16470	4652	-17380	520	-8992	5006	-17931	-215	126	136	1
-9180	-3768	12492	-826	2273	-1672	-17120	1472	-2940	-5125	4455	-3717	-16360	-1552	-4544	1762	15424	-1224	-2876	7688	11808	5050	-22489	11735	-4460	3464	-5252	-2756	-21337	3558	-14456	-772	-10132	4603	-16485	892	127	132	1
-9056	-4060	12424	-251	1527	-1400	-16640	-2328	-2124	-7733	4242	-3171	-16820	-2024	-1924	3038	15345	-3005	-5116	4316	13824	4254	-28042	11468	-5804	1820	-6060	-4779	-26212	3779	-13492	2648	-10236	6748	-16256	1602	132	132	1
-8788	-3208	12836	-191	1222	-986	-16484	-2288	-1344	-2573	3243	-1892	-15076	280	-1072	4956	14276	-2678	-8020	2676	14688	8285	-32156	12699	-7848	-52	-6724	-3460	-30931	2461	-11428	5956	-10812	3669	-15361	1478	131	130	1
-8612	-3204	12920	-150	1103	-788	-15676	16	-1420	2491	2969	-999	-14660	3088	-136	2941	15098	-2171	-11128	3332	15764	11970	-32768	14259	-8436	716	-7728	-1239	-32768	1217	-9148	4820	-10168	829	-13027	957	131	136	1
-8660	-3164	12996	-223	1080	-584	-16556	2420	-944	108	3491	-1498	-14692	5384	1496	-4802	14517	-1969	-13632	4248	16004	14095	-32768	16339	-10428	836	-8196	-971	-32768	1005	-7476	3280	-11468	-3937	-10859	411	129	141	1
-8620	-3636	12788	-276	1126	-167	-17224	1896	-1048	-5070	4413	-2597	-12292	3336	4364	-11038	14292	-2244	-16600	6224	16760	13943	-32768	18440	-12520	1716	-9320	-1405	-32768	585	-5464	2248	-11416	-9143	-8087	-130	124	135	1
-8912	-3968	12916	-271	1178	-127	-16040	-428	-1076	-7903	6309	-2384	-12348	4808	4616	-9444	12934	-5129	-20848	8032	18976	12747	-32768	20902	-15096	3848	-10496	-4823	-32768	212	-3792	2124	-13220	-16176	-6939	841	130	132	1
-8768	-3328	12452	59	757	472	-15100	-768	-244	-5961	6920	-1837	-18004	2548	1668	-6571	14617	-3430	-25872	9344	21892	10813	-32768	24818	-18500	5808	-11368	-9571	-32768	-1649	-3880	2084	-11604	-16901	-482	3640	130	129	1
-8524	-3144	13072	220	718	929	-16064	432	244	-3781	7811	-1327	-22060	1868	1980	-5952	13573	-2961	-29116	10972	24884	8046	-32768	29031	-24284	5760	-12736	-12541	-32768	-4405	-5952	2764	-9000	-13625	-780	4519	130	126	1
-8628	-3740	13276	233	1303	1228	-16352	1196	-584	-3686	9202	-1370	-20120	2132	1444	-4988	9422	-1895	-32768	15576	27892	2245	-32768	31572	-30896	8484	-15592	-13727	-32768	-7223	-11200	3024	-3404	-10971	-7213	4059	129	135	1
-8656	-2996	13448	3	2173	1424	-16988	-208	-1652	-3338	10424	-1321	-14244	-1492	1868	-5390	11057	-722	-32768	10640	19752	-5198	-32768	32767	-24084	7152	-20628	-15119	-32768	-8887	-18852	4324	4040	-11133	-12264	4526	128	132	1
-8608	-3720	13528	126	3511	2033	-17312	-1044	-1444	-1163	11078	-571	-17352	-1428	1748	-3511	13192	-622	-32768	2868	-7868	-6085	-32768	32767	-22080	512	-23064	-16697	-32768	-2581	-19952	-7708	16436	-17970	-13780	5505	129	114	1
-8376	-3136	14228	-109	5588	2446	-16704	960	-468	999	12311	-304	-17868	1684	4852	-1440	11039	-984	-32768	-32768	-32768	31112	-19568	14998	-6020	-3376	-24192	6324	-21927	8534	-15568	-22076	32767	-11615	-3083	2907	128	126	1
-8520	-3008	14244	-176	6009	2427	-17404	2464	-2260	4296	14084	297	-17388	1736	5448	1189	10439	-450	-32768	-32768	-23928	21118	-2647	-5940	4412	15528	-23328	21013	4386	9486	-26364	-11052	27164	1421	2764	-4651	128	122	1
-8780	-2936	16532	-1447	13851	220	-21336	80	-2320	6624	15412	1801	-20308	532	2396	2294	9193	-820	-32768	-27808	-9228	-17795	3959	-22841	-5868	9412	-24872	-856	23234	2368	-19284	5916	4448	9506	-12739	3866	129	142	1
-8652	-5624	15872	-2028	19323	2021	-23488	2192	-1360	5932	16952	1091	-22608	2328	4348	-821	5071	632	-14980	5416	26668	-24165	4994	-22415	-18916	384	4784	-15396	27811	1503	-14516	7384	-1192	19530	2408	6206	128	127	1
-8600	-3560	17796	-2263	26627	3508	-23392	5584	-932	2707	19917	-243	-24520	3396	10728	-1833	2140	1548	4940	17056	22600	-13057	26179	-9043	-32768	-14520	2352	-18187	19152	-5811	-16708	-3624	2904	3965	7069	2105	128	131	1
-6352	-4984	19444	-4403	32767	2528	-30544	7864	5380	2756	22916	1211	-29412	5016	18872	-2563	-8142	1868	-32768	-30456	23400	-6906	30022	-4284	-10508	-15928	-18124	-31659	22650	1202	-13452	796	6532	-21140	743	10427	127	121	1
-3988	-11132	20904	-5151	32767	4422	-32768	15356	10136	-96	25296	-663	-25220	16068	31388	3334	-23791	7370	-16480	2100	18240	3814	14798	-15323	-15028	-3384	-13200	-5393	22182	4019	-22240	-20660	-22544	-11945	16927	-1063	129	127	1
-13556	-17216	22932	-6369	32767	11416	-32768	7576	12508	-11112	25697	-3000	-14208	24824	7416	4788	1861	7650	-20316	22776	16120	-9700	16756	-7331	-18488	12224	-11264	5245	15184	8078	-9260	1256	-14832	16616	3476	-1989	126	117	1
-32768	-11592	20236	-4404	32767	24221	-30556	-13868	-5588	-13440	26909	-4876	-20332	4172	3328	-28675	-2073	8535	-17620	2624	17412	-6883	5012	-9933	-14500	9412	-15824	-4247	13144	7633	-21680	15312	-11064	10153	12289	5518	138	115	1
-32716	-16648	29000	-2164	32767	29912	-32768	-2460	-176	-461	29387	-4932	-32768	-4656	-13192	-20285	-3061	3623	-11376	-1992	17024	-3508	797	-3603	-20148	900	-12016	3380	11222	3147	-20848	9236	-9732	4101	10931	7429	134	107	1
-22384	-18096	32767	-9901	32767	25344	-28804	2376	-1964	2926	20974	-7009	-32768	2816	-9140	-13908	-14042	1790	-9696	2720	14708	-1741	436	-1549	-15812	4936	-9396	4703	8551	2847	-16988	1244	-6116	1926	11600	5679	130	104	1
-30604	-11512	32767	-17247	9164	12538	-19236	-100	-7208	-4471	11516	-1250	-30492	3620	-8956	-6869	-18139	2462	-8324	2784	14136	-135	740	-584	-17120	816	-7660	2900	6405	3233	-18300	452	-4932	2914	11349	2028	127	114	1
-4596	-22400	28220	-14391	-20915	1610	-18720	224	3372	-8942	6470	-2795	-30612	2420	-10716	-3446	-18659	1947	-8520	3096	14184	940	1625	-135	-17552	3372	-6692	-1250	5301	2288	-17576	-56	-1680	1710	12256	1976	126	130	1
7348	-14448	15400	-271	-25793	-1641	-12048	-2928	3300	-5722	-2842	-2083	-26232	2044	-11072	-2498	-19174	843	-9104	3156	14064	1804	2157	-79	-17420	1208	-5916	105	3903	2791	-16344	4	-1640	1211	13945	999	120	133	1
7036	-7756	10596	5568	-23909	-4839	-4804	-2480	1024	-758	-12407	-814	-18512	2952	-11668	-3583	-18695	102	-9644	3928	13752	1808	2164	142	-16704	2040	-5288	6053	2400	2982	-16472	2168	-2820	2703	15001	663	129	129	1
2692	-5540	9000	3944	-23252	-8705	-6264	-1104	-488	4394	-18793	1134	-15856	1364	-11660	-4348	-19388	-2008	-9756	4164	13328	1526	1978	387	-15968	5060	-4212	7125	1631	2764	-16032	3740	-2224	2456	15214	679	126	128	1
-2036	-6224	10604	2645	-25230	-11673	-7616	-1212	-2444	6004	-24179	2700	-15480	528	-12500	-3985	-20359	-3317	-9564	3864	13316	1087	1714	518	-15176	4848	-2944	4984	1680	2602	-15092	2592	212	1095	15591	1290	124	135	1
-5772	-6776	12084	3462	-29846	-14138	-7748	-1192	-2656	5992	-25062	2959	-13236	-1820	-13172	-427	-20521	-4108	-9528	3676	13360	913	1411	735	-14696	4032	-2460	3894	2056	1998	-14892	1488	-100	2889	13771	1094	127	133	1
-8904	-6060	13512	5253	-32768	-16210	-8572	-1048	-4392	6475	-32570	5792	-9836	-2940	-11392	4476	-20379	-4118	-9404	4152	13004	586	1205	476	-14808	4008	-1916	4681	2383	1928	-14640	1700	368	4706	13122	512	130	130	1
-10944	-4064	14108	4997	-32768	-17745	-10012	644	-4520	5365	-32768	7752	-9236	-1892	-13488	7732	-20212	-3486	-9416	3856	13124	196	920	-72	-14684	3520	-2044	6271	2941	2160	-13716	1816	1720	8895	13559	973	124	130	1
-13228	-3844	15152	2265	-32768	-18330	-12452	1008	-4844	2151	-32768	9526	-5300	-752	-13068	10305	-19218	-2345	-9348	4180	12796	-64	427	-382	-14000	4940	-1828	7410	3721	1770	-13164	2676	3136	9570	12440	2169	129	130	1
-17128	-5408	17524	75	-32768	-17543	-16028	-16	-5616	-1106	-32768	9682	-4672	-228	-14828	12914	-17824	-2783	-9388	3972	12876	-446	-15	-927	-14560	4920	-2072	6086	4647	1586	-12020	2284	2792	9484	14062	4525	128	135	1
-20624	-5756	19620	-4204	-32768	-16563	-21252	132	-5616	-2381	-32768	10213	-3536	-588	-15568	14743	-15070	-4671	-9148	3888	13264	-718	-111	-1482	-15508	3124	-1776	5817	5539	1456	-17116	3816	-688	9942	14029	3368	131	130	1
-24440	-7004	20908	-10706	-32768	-16616	-27668	-540	-7340	-3686	-32768	11880	-3232	-316	-13364	13463	-10471	-6233	-9148	3960	13616	-819	298	-2057	-15720	3900	-2468	5434	6468	1469	-20792	6988	-4148	7620	9670	1146	131	127	1
-32768	-17364	27608	-9630	-32768	-17950	-32768	-2696	-13896	-5478	-32768	10872	-6208	3580	-2244	10185	-15176	-3895	-9248	3720	13572	-880	942	-2395	-15552	3756	-3756	3627	7386	1452	-16396	6804	-952	3644	9326	1250	131	128	1
-32768	-24336	25612	896	-32768	-21354	-32768	-5568	-16104	-5099	-32768	6527	-14724	6144	5616	3123	-14625	1300	-9236	3508	13884	-768	2151	-2364	-16720	3252	-3176	3314	8258	1147	-16244	4672	572	3402	12457	508	131	130	1
-32768	-15436	9128	4379	-32768	-27121	-29716	-6920	-22336	5	-32768	3849	-18596	7780	10284	4957	-9830	2262	-8940	3520	14196	-180	3948	-2550	-16416	3308	-700	3755	9754	952	-18784	3924	3360	2835	11344	168	130	130	1
-32768	-3676	-5272	-6418	-32768	-22315	-27220	-1096	-25104	-7444	-32768	-2693	-15636	20028	25308	8998	-15809	2663	-8948	3724	14068	-199	4299	-2659	-15708	4256	168	1096	12573	454	-18340	4576	7000	776	9237	768	134	126	1
-32768	28736	-32768	-23501	-24150	-5906	-5352	1392	-32768	-25734	-17869	-12939	-9944	28768	32767	8902	-611	-506	-9020	2784	15492	128	10084	-3081	-17656	4080	-1796	-2806	15635	-334	-18392	3856	6352	181	9343	1059	119	128	1
-32768	23116	-32768	-12438	3960	9544	1960	-13472	-32768	-20705	12164	-7994	-18028	4944	31676	-4064	-25	-9645	-9384	3816	16652	579	15715	-2924	-20960	2584	-2560	-2634	18144	-1214	-20852	3380	2952	1430	9235	510	125	128	1
-32768	11628	-6840	10934	13318	14466	-12724	-5100	-28480	11477	27719	-925	-17060	-2480	-2800	-15708	11923	-16274	-9324	5560	16660	697	23188	-4708	-22700	248	-1640	1436	19652	80	-24140	2204	4920	3892	6289	-314	119	129	1
14712	-23936	32767	28182	18552	4572	-27844	20144	32767	32767	31129	-3917	-9492	-4112	-15900	-8145	26211	-11450	-8820	4308	18108	944	32767	-6345	-24860	-1252	-288	4616	22198	664	-26828	1892	10208	3163	-654	249	136	127	1
13056	10864	5092	12553	32767	-7879	-30912	12832	-8068	27486	7747	831	-24276	-6224	8512	23128	-2192	-2688	-7112	4864	18568	2390	32767	-6955	-32768	-6184	3092	5717	24922	803	-29464	-1564	16464	-1045	-10616	565	124	127	1
-32768	30544	32767	-1107	32767	1839	-18716	9392	-15720	26073	9763	-2169	-3096	18564	13896	32767	4117	6604	-8124	11056	19408	2132	32767	-11672	-32768	-11080	8300	15824	25250	2433	-27856	-6888	27596	-2218	-27547	-5244	150	120	1
-17880	-19816	10844	-10755	19148	10484	-28328	13284	-3960	17866	23554	-2238	-19232	31624	-10076	17087	2346	-4462	-26432	14756	18384	1648	32767	-26244	-32544	9576	5404	25291	24169	2737	-14044	-12344	-4036	16403	-10183	-12581	115	127	1
-14880	-7592	15624	6181	20619	3076	-17176	-13888	-4668	6646	15192	-11035	-12728	-1488	-13164	-24853	7048	1297	-32768	14864	17740	-2091	32767	-30896	-27032	16036	-8580	11502	27130	3435	-27324	7408	-644	17599	-15661	-6441	126	129	1
-16028	-18532	9676	6868	7822	6821	-14032	-3836	-10440	-4847	15288	-7474	-14896	-12432	-12696	-13617	11697	-5477	-32768	21516	24988	-5285	32767	-32477	-26192	5628	-7356	2909	23510	1531	-31168	13504	-17312	15876	-14347	-3751	127	132	1
-12256	4976	15576	5431	2199	4708	-21424	3520	-9628	-8366	13444	-5697	-22648	-4512	-9568	-11432	11393	-8333	-14240	13716	28004	3783	31979	-20968	-20944	4952	-10520	-7299	19585	1141	-30864	2044	-6816	-1944	-22735	1987	127	128	1
-8820	-3416	13560	2971	1532	1869	-22012	44	-4716	-13243	11487	-1995	-17424	-4384	-7592	-4788	11942	-2831	-29376	24616	32767	14196	-1800	-6774	-16264	3808	-12208	-1024	11541	-46	-26428	736	-6744	-1773	-22455	1828	129	119	1
-8752	-1848	14628	1041	1435	1004	-16704	-3276	-3816	286	7165	-2617	-19080	3604	-4956	5522	12719	-1158	-1752	20676	23768	8859	-23894	718	-13168	-1824	-3216	11371	737	1769	-26268	1172	-5396	-1252	-22588	1240	121	154	1
-8832	-1912	13868	-354	1888	118	-18264	2828	-3916	9823	4621	-2151	-14928	8020	-2488	5105	13053	-1339	6492	12428	12912	3213	-26893	4124	-9388	3940	-2820	13295	-7293	479	-23492	4104	-7556	1941	-19989	-1478	113	138	1
-8732	-3180	13176	-1055	2250	-855	-17920	5428	-3096	2305	4434	-3108	-16988	4332	-2876	539	14510	-1107	5660	9008	9036	737	-23914	5725	-5284	5152	-3428	3029	-14021	1215	-17964	1852	-8332	1154	-17668	128	122	132	1
-9212	-4620	12228	-628	2226	-1488	-16788	324	-2184	-6758	5222	-3952	-16124	-2692	-2856	40	15164	-681	-1680	9588	10560	-112	-23867	6671	-4992	4300	-5384	-5083	-19148	-94	-15716	880	-9408	1200	-16253	1133	128	133	1
-9220	-5048	12140	644	1731	-1282	-17096	-3392	-1756	-8116	5533	-3092	-16392	-3140	-1376	980	14752	-1984	-6876	8500	12864	537	-28929	8479	-5820	3060	-6700	-7112	-23811	-349	-16264	3044	-9576	2116	-16380	1862	129	133	1
-9132	-4040	12524	848	1224	-1004	-16132	-3196	-1240	-3255	4575	-1834	-15240	-1156	-324	2362	14774	-2505	-9460	7084	13648	3959	-32768	12409	-7572	1764	-7136	-5676	-28685	-976	-12708	4404	-9812	-38	-16089	1637	134	131	1
-8800	-4216	12432	672	939	-715	-16004	-1440	-1356	566	4216	-755	-15612	1040	-696	551	14061	-2443	-9220	6052	12344	7563	-32768	16256	-8604	952	-7336	-3213	-32768	-1863	-10404	4500	-9672	-3077	-14454	885	129	132	1
-8736	-4060	12584	656	695	-189	-16400	548	-1148	-1143	4747	-799	-14884	3144	768	-5107	13812	-2333	-11780	6332	13300	9590	-32768	18729	-9636	532	-8008	-2063	-32768	-1987	-8560	2756	-11004	-6207	-11839	231	127	131	1
-8724	-4036	12668	545	734	307	-15972	-876	-1060	-3786	6202	-567	-13396	2328	2084	-10972	13827	-2295	-16136	6832	15608	9616	-32768	20150	-10828	2244	-8824	-1484	-32768	-1664	-6868	1204	-11136	-9165	-9408	-1199	128	131	1
-8860	-3852	12656	349	888	597	-16748	136	-1508	-6244	6382	-1216	-10452	1204	4828	-8453	13879	-2775	-18764	6744	17324	10342	-32768	21272	-13776	3440	-10372	-3657	-32768	-1073	-4892	1148	-14088	-15858	-8192	-670	130	130	1
-9008	-3584	12484	248	930	722	-15952	268	-1164	-6391	6873	-1221	-14372	2572	1864	-7281	14440	-2710	-22844	8036	20240	10888	-32768	23132	-17076	5300	-10968	-7758	-32768	-2192	-4484	1820	-12044	-15218	-659	1880	130	130	1
-8804	-3660	12652	213	1031	984	-16176	688	-400	-5578	7872	-1088	-20916	3700	992	-7139	14325	-2211	-26792	10248	24180	9171	-32768	25740	-22324	6076	-12308	-10016	-32768	-4837	-4680	2128	-10860	-14398	709	2994	131	131	1
-8740	-3488	13172	118	1549	986	-15808	616	-624	-3687	8820	-964	-21648	1964	628	-6455	10090	-1137	-32768	14348	28116	5303	-32768	28306	-29368	7780	-15732	-9754	-32768	-7860	-8656	2732	-7240	-11384	-2769	3324	130	129	1
-8700	-3456	13388	-216	2394	1066	-16884	-732	-2196	-1160	9505	-593	-15240	-2048	1400	-2562	11014	-1214	-32768	15548	21380	-1907	-32768	32186	-29872	7652	-16792	-9631	-32768	-8153	-14296	4268	-2048	-8539	-6344	3475	128	130	1
-9028	-4196	13232	-325	3783	1624	-17776	-1160	-1620	254	9765	52	-17788	-2408	760	-1827	13159	-195	-32768	9304	1628	-3681	-32768	32767	-22308	5044	-22592	-16022	-32768	-4379	-20924	-3268	10136	-15655	-16115	4766	128	124	1
-8792	-3892	13236	-609	5341	2424	-16060	508	-264	382	11192	-102	-17528	228	5648	-201	12180	100	-32768	-28012	-26028	20577	-25832	22083	-12768	-4276	-27116	-219	-29615	6948	-18040	-21552	32767	-18316	-9907	6659	127	127	1
-8944	-2676	14340	-1102	7739	2062	-17104	1220	-896	2950	13428	245	-17016	1912	7144	889	9646	515	-32768	-32768	-31128	32767	-8383	11142	5504	7344	-21652	24222	-5833	12017	-29004	-21640	32767	5221	6771	-2257	130	123	1
-9176	-1476	15700	-2151	11802	661	-19612	1328	-2088	5776	14520	1382	-18336	1192	5416	2394	10437	154	-32768	-26844	-20100	-7717	4075	-14268	-2840	19832	-24844	16214	16267	5545	-19800	6868	11996	15455	-10952	-80	129	115	1
-8672	-5464	15568	-3169	17402	1068	-22620	1384	-1004	5730	16873	1856	-21600	2492	5244	-258	6834	734	-21120	-9068	8544	-25762	9090	-25650	-12368	8892	-11992	-13397	27270	2003	-16424	13832	-1432	18544	-1275	7250	130	128	1
-9208	-5772	17212	-3246	23987	2706	-22776	4980	212	3055	19629	245	-22972	3456	9252	-2153	2845	2411	32767	15576	32767	-16481	22703	-7544	-32768	-29076	13740	-26422	17478	-5237	-7952	5524	-4820	11212	9341	5088	128	115	1
-7264	-564	19840	-6041	32767	1583	-28244	7544	2808	1142	23014	1226	-23436	3492	10488	-2314	1960	2581	-32768	-32768	22212	-15429	32767	-14535	-18392	-8064	-20216	-32768	23688	2910	-9668	4236	-6992	3944	8441	4328	132	120	1
-4304	-9792	20336	-6834	32767	1811	-32768	12688	9688	705	25311	886	-27356	13160	29276	-1098	-20053	5108	-11656	-11936	21284	2567	15124	-15378	-16300	-16816	-11052	-6323	24216	4003	-16416	-29432	-22716	-12876	29156	-2249	133	97	1
-11564	-15048	21264	-7634	32767	6003	-32768	8364	13352	-7349	25545	-1310	-17260	19908	14856	8529	-1034	7889	-23028	32767	10932	-11272	14730	-9979	-16192	16348	-12224	6451	17925	7442	-9804	-16428	-12568	10314	-524	-841	134	108	1
-32768	-17012	21696	-6997	32767	20799	-31964	-13944	-5484	-9563	27179	-2990	-19320	5724	3996	-25220	-3200	9210	-16568	-4892	20464	-7253	4225	-11992	-11420	8788	-15780	-3283	15584	8148	-11224	22460	-11480	21632	8271	2076	131	126	1
-32768	-20964	25384	-3233	32767	29060	-32768	-5352	-3856	3277	28359	-3563	-32768	-3116	-11608	-15557	-2727	3660	-11732	-6544	19088	-4894	169	-4747	-21240	-8	-14852	3673	12447	4495	-27744	11112	-12348	7761	15614	8156	133	112	1
-27464	-18368	32767	-5682	32767	27108	-29356	2460	-1856	6685	23789	-6368	-31760	3216	-11020	-11342	-12537	2990	-9476	3400	14312	-1665	-291	-1435	-16208	5184	-9204	9440	9667	2576	-14924	5896	-5540	1605	8944	6375	127	121	1
-22244	-5008	32767	-13862	17726	15539	-20348	504	-7904	36	14045	-2105	-30252	5048	-6204	-7612	-17829	2032	-8640	2084	14720	-210	38	-767	-16332	3168	-8380	-208	8041	2954	-20548	304	-5752	189	11653	2843	126	107	1
-12096	-21056	30928	-17969	-17589	5000	-18492	2244	432	-8652	10204	-753	-29168	3540	-10164	-4695	-16935	2618	-8412	2492	14280	1070	1035	-390	-17828	2488	-7376	-5709	6860	2030	-16008	-2632	-1448	1220	11065	1546	127	120	1
5224	-14048	16168	-7172	-26179	3361	-13224	-3396	3416	-10601	508	-1748	-28028	2364	-10548	-2470	-18452	1366	-8984	3076	14332	1764	1856	97	-17840	156	-6180	-1803	5033	2722	-17576	660	-2400	1740	13654	1416	127	128	1
6904	-9176	9864	1050	-24426	2348	-5968	-4284	1204	-6190	-9029	-1003	-19048	3492	-10872	-2960	-17919	1434	-9152	3704	13840	1619	2087	297	-16236	2228	-5644	5442	3353	2998	-15916	2700	-2992	2328	14189	569	131	130	1
3824	-6468	7856	2095	-22111	-679	-5740	-2076	-608	940	-15827	21	-16928	2876	-11664	-5803	-19034	-858	-9828	4096	13336	1475	1902	667	-15680	5108	-5128	7437	2526	2715	-15996	4460	-2996	2579	14498	785	130	125	1
132	-7592	8956	1112	-22563	-4633	-7116	-1328	-2184	4249	-21064	1269	-16572	1244	-12512	-5277	-19407	-2611	-9232	3748	13508	1339	1655	813	-15192	4784	-3420	5030	2357	2263	-16068	3796	28	111	15796	1276	129	123	1
-2440	-8432	10128	1889	-25131	-8657	-7572	-644	-3384	3861	-26350	2354	-13720	844	-13476	-4218	-20983	-2775	-9180	3752	13488	1221	1666	822	-15532	3884	-3144	2246	2708	1918	-15200	1076	280	-195	13494	885	126	128	1
-6064	-8116	11772	3794	-28901	-12896	-7376	-892	-4316	4354	-30585	3500	-10756	-1380	-13892	-2041	-21701	-3052	-9128	3924	13388	1002	1643	553	-15008	2444	-2736	3088	2876	1928	-15732	328	1568	3237	14719	87	127	130	1
-9944	-6756	13768	5310	-32768	-16667	-8428	-764	-5052	4024	-32768	4978	-9840	-1476	-14140	3126	-19998	-3473	-9280	3744	13288	686	1583	98	-14852	3012	-2560	5262	3309	2262	-14320	864	1532	6844	13232	566	134	133	1
-13172	-5168	15176	4932	-32768	-18999	-10064	48	-5588	3337	-32768	6381	-7680	-372	-14276	5075	-19795	-2976	-9148	3788	13332	631	1657	-22	-14324	4688	-2540	6233	3968	2203	-13688	2840	1524	9131	12473	1063	130	135	1
-16024	-4248	16660	2144	-32768	-19628	-13432	832	-5740	291	-32768	7160	-4808	692	-14180	7486	-17350	-2864	-9372	4376	12916	16	1009	-596	-14240	5660	-3012	5054	4660	1699	-12724	2452	4104	7796	13390	2702	131	137	1
-20276	-4900	18892	-1547	-32768	-18962	-17440	112	-5964	-3185	-32768	7476	-3552	-68	-15604	10547	-15017	-3652	-9256	4044	13028	-403	749	-1154	-15220	4760	-3420	3631	5187	1446	-14104	3340	-884	7733	16569	3506	130	137	1
-21932	-4084	18996	-7561	-32768	-17618	-22436	1064	-5668	-5169	-32768	8118	-1972	-560	-16768	10804	-11152	-5499	-9184	3948	13312	-640	833	-1800	-15948	2740	-3436	4385	5634	1463	-18756	6104	-4568	7232	14623	1764	130	132	1
-27284	-6284	22508	-14083	-32768	-15766	-29608	12	-9344	-8018	-32768	9472	-2116	-1080	-12328	7825	-7674	-5447	-9104	3348	13792	-604	1603	-2042	-15672	2464	-3740	4874	6278	1594	-18968	5328	-3696	3562	10194	746	130	131	1
-32768	-15612	29192	-13308	-32768	-16675	-32768	-1668	-13600	-11526	-32768	7306	-7548	3132	2144	3350	-13204	-2083	-9240	3180	13748	-520	2869	-2157	-15816	2880	-3784	4513	7207	1484	-16276	3908	376	2600	10161	214	130	129	1
-32768	-16740	20860	-2878	-32768	-20146	-32768	-2900	-20796	-8548	-32768	4805	-19404	-2484	10988	6341	-13780	257	-9356	2968	14040	-71	4556	-2099	-16280	3036	-2240	4713	8611	1139	-16748	3660	3224	4295	11111	-196	129	128	1
-32768	-7348	1956	-3729	-32768	-22071	-29664	-4840	-25868	-14270	-32768	-334	-18540	10680	17140	6660	-11807	438	-8972	3652	14264	399	6950	-2141	-16256	4196	8	3520	11001	582	-19248	3912	6000	2488	9784	678	128	127	1
-32768	9304	-30252	-9638	-32768	-11097	-15028	-2592	-32768	-15119	-25647	-9004	-11280	28044	32767	3670	-9142	1354	-9264	4032	14900	429	9908	-2613	-16976	3812	-368	196	14009	91	-18600	3184	7200	1831	9317	1054	133	128	1
-32768	32767	-32768	-23308	-6979	182	7236	-6068	-32768	-22719	2567	-9702	-17012	13868	32767	-108	3402	-2719	-9328	2276	16060	821	14603	-2351	-18852	2988	-2388	-2182	16976	-703	-20148	4048	5924	2080	8574	787	126	131	1
-32768	11792	-18364	5665	15277	13405	-11620	-10172	-32768	952	22546	-3588	-14140	-2680	7812	-4653	7743	-15251	-9176	5080	16360	1600	21511	-2888	-22996	656	-1064	612	19340	-752	-23960	1864	5664	4492	6494	-104	124	128	1
5452	-6676	27436	30355	23624	8474	-24148	3320	15360	27229	32084	-4382	-14520	-8384	-10840	-7397	19717	-14675	-8712	5264	17044	2074	30822	-5005	-24244	-1236	-320	5280	21585	751	-26716	1628	9580	4465	-877	-531	143	132	1
9972	14816	30644	19569	32767	-2551	-32768	22164	11200	32767	7142	4496	-20436	-10332	-1640	20060	5975	-8022	-7156	4728	18040	3593	32767	-5183	-32204	-5928	3256	8696	24499	565	-30180	1308	16952	1406	-10615	-728	117	128	1
-32768	23504	24352	617	32767	-1771	-12784	19456	-17036	24387	12414	1116	-23416	6644	19864	32767	5619	-544	-7396	10464	19164	3939	32767	-8524	-32768	-11568	8848	17208	25492	1682	-26636	-7080	30016	-2650	-28177	-5317	112	126	1
-14484	-4744	11384	-8036	16571	11877	-27988	22108	-7812	23273	19681	-3175	-9820	19496	8164	32767	3972	3736	-21508	12108	21440	4718	32767	-21808	-32768	8692	6824	24417	24982	557	-15292	-13720	-3208	15554	-10847	-11437	129	127	1
-20972	-14656	13524	7549	17175	4923	-16100	-24864	-7760	8281	22330	-11068	-8492	9260	-16740	-21421	3853	1415	-32768	15612	17724	-2366	32767	-31693	-28232	17524	-9440	9965	27565	1056	-26708	6164	292	20081	-14963	-6024	139	127	1
-21892	-14548	13940	7449	5780	6147	-10876	-1120	-9768	-1352	16142	-8043	-10412	-18424	-14432	-17856	9143	-2009	-32768	23016	25896	-6196	32767	-32768	-27588	10744	-8116	3763	24106	349	-30164	14700	-15800	16108	-14886	-3276	134	130	1
-12200	-428	14952	6696	1117	4350	-21840	2188	-9412	-9375	14355	-6192	-22516	-1196	-9216	-7798	14455	-10514	-22192	19724	31280	-3509	32767	-26380	-22996	5008	-10036	-10932	19645	614	-32768	3492	-9272	-2523	-20961	3580	118	124	1
-9192	-2448	13388	2660	453	1562	-22132	3828	-5572	-16757	12855	-2535	-20128	-6148	-8260	-8011	12414	-3568	-32768	19072	32767	12014	7989	-8163	-14676	4284	-17308	-10066	12717	-1569	-25928	-112	-6556	-2505	-23081	2985	131	123	1
-8972	-1580	14468	926	565	791	-18140	-5920	-4288	-3522	8043	-2700	-18892	-5860	-7240	-6406	12171	-2862	-5596	22484	26428	8527	-23225	3796	-13604	-4128	-4408	9995	1783	1218	-26076	1524	-7312	-183	-22114	-1165	125	155	1
-8500	-2136	13748	-211	1120	164	-17544	136	-3984	11846	4724	-1638	-15144	6948	-2680	7404	12783	-2579	4528	11112	14172	2046	-28802	5964	-9980	2724	-3296	17927	-6721	90	-24328	2960	-8284	1440	-20069	-2139	124	139	1
-8700	-2388	13504	-890	2002	-1324	-18072	7288	-3356	6294	4359	-2364	-16780	5604	-3184	2355	14527	-2206	6248	7032	8808	270	-26719	6097	-5180	6620	-3428	7613	-13386	1072	-18848	2632	-8308	850	-18220	-45	122	141	1
-9036	-3776	12944	-924	2194	-2454	-17328	1788	-2800	-5416	5466	-3411	-16940	-1460	-3436	-825	14874	-1244	80	7032	8940	435	-25297	5335	-4328	5176	-4884	-4485	-18358	-11	-15568	1116	-9160	86	-16375	997	124	136	1
-8948	-5128	12328	-599	1655	-2044	-17020	1220	-2668	-6909	5538	-3482	-15968	-3492	-1720	-195	14883	-2066	-4420	7732	10776	1068	-28201	5062	-5480	3424	-6224	-7605	-23199	-788	-14224	1776	-9680	1219	-15978	2012	130	132	1
-8768	-4216	12536	-405	1329	-1263	-16404	-4052	-1292	-4878	4609	-2082	-15080	-1472	-92	1275	15022	-2064	-8924	7476	12752	3800	-32768	7523	-6240	1964	-7256	-6336	-27814	-1132	-12464	3936	-10084	-166	-15343	2491	133	128	1
-8568	-3940	12660	-286	1186	-691	-15648	-1428	-1416	895	3930	-759	-15232	1204	-272	424	14547	-1778	-11256	7728	12896	6813	-32768	12003	-7248	1612	-7732	-3946	-32128	-1965	-9048	3968	-9388	-2945	-14037	1522	131	130	1
-8584	-4040	12672	-290	1106	-160	-16552	684	-1108	-1084	4308	-813	-15420	3444	580	-5673	14820	-1569	-11696	7272	11964	8870	-32768	16361	-9240	572	-7740	-1954	-32768	-2044	-7948	2828	-9772	-5848	-11307	461	133	131	1
-8712	-4368	12440	-123	1068	410	-17072	1192	-1236	-6239	4913	-1616	-13428	2076	1460	-12999	14856	-1778	-15016	8092	12844	9380	-32768	19169	-10712	1232	-8480	-401	-32768	-1676	-7300	708	-10848	-8831	-8459	-428	135	133	1
-8668	-3872	12588	125	958	893	-16164	-880	-1712	-8206	6813	-1458	-11672	1432	4056	-10590	14051	-2564	-18524	8728	15360	8559	-32768	20685	-12916	3644	-9684	-1883	-32768	-746	-5640	-1344	-10952	-11140	-4834	-295	135	129	1
-8732	-4308	12380	526	729	1386	-15564	-2408	-988	-6115	6554	-1007	-14612	-348	2768	-5321	15867	-1310	-23416	9288	18844	8156	-32768	22680	-15748	5608	-10796	-7114	-32768	-847	-4348	-68	-11196	-13215	-1590	1806	128	132	1
-8276	-4000	12860	860	506	2184	-16216	-408	-36	-3911	7047	-493	-20584	1756	1124	-6353	14795	-2794	-26168	9492	21528	7593	-32768	25200	-20252	5028	-11180	-10629	-32768	-2643	-4376	420	-10832	-13282	1088	2844	125	128	1
-8520	-3664	13372	1035	1197	2744	-16952	536	-608	-2606	7842	-609	-20488	1184	1628	-8457	10531	-2701	-28652	10700	24332	6219	-32768	27079	-27908	5680	-13208	-11155	-32768	-5053	-7920	3268	-6092	-10875	-3	3119	128	128	1
-8592	-2856	13508	622	2347	2593	-17064	1088	-2304	-1990	9358	-822	-15988	524	1380	-4104	10028	-363	-32768	12672	25608	2340	-32768	28032	-29616	5072	-16848	-10626	-32768	-7050	-15008	5724	-204	-12525	-7630	3781	128	130	1
-8808	-3176	13896	154	4141	2324	-18556	-104	-2540	-1183	9745	-528	-16660	-656	944	-2772	13549	-233	-32768	8748	12624	-3403	-32768	30310	-23248	6504	-21184	-9774	-32768	-6189	-19124	2728	5660	-14220	-11025	4503	126	125	1
-8800	-3344	13840	-583	6143	2232	-17132	1260	-860	-885	11073	127	-18348	532	3520	-2128	11790	130	-32768	-20656	-13876	1316	-31496	22637	-16964	-2584	-22360	-8328	-32187	2605	-18552	-10388	29308	-17277	-11415	3080	126	118	1
-8880	-2848	14408	-791	8752	1833	-17260	1172	-1020	1450	12839	151	-17928	2144	6388	-687	10040	-17	-32768	-32768	-32768	32767	-14786	9865	3240	6360	-23824	17867	-10524	9460	-29172	-28188	32767	-3906	2919	-1223	130	126	1
-9100	-1180	15280	-1827	12597	536	-19188	2136	-2176	4887	14358	1073	-17836	2004	6516	113	10259	149	-32768	-19704	-23148	1181	2791	-6859	-1252	15956	-23888	15076	13317	5617	-19896	-6304	13464	12514	-333	-2634	125	112	1
-9160	-4312	16040	-2901	18151	-19	-22420	1160	-872	5865	16188	2133	-22664	1340	4896	1439	8613	53	-32768	-13608	-20260	-10846	5590	-11063	-11364	13672	-18768	-4779	25948	2363	-15672	9536	24	20863	-5276	5766	127	155	1
-8928	-4836	16368	-3836	24746	1701	-22876	4312	472	3719	18485	779	-24068	3264	10876	-1552	3537	1972	20224	22412	32767	-14308	22840	-9439	-32768	-23948	20992	-25216	18133	-4562	-10140	7648	-704	13858	4677	6465	125	135	1
-9112	-3560	19532	-6102	32767	1427	-23020	5164	584	3384	18917	566	-27604	3336	17032	-2600	-4253	3106	-32768	-27640	14796	-16070	32767	-14664	-19788	-3952	-19888	-32768	26591	3372	-32768	21984	22736	-31957	-6710	13803	130	112	1
-5212	-11548	20048	-6931	32767	935	-32768	9972	10564	-1989	25825	1474	-28396	9716	28900	-4395	-18702	5117	-6920	-12836	19548	1508	17020	-15124	-12412	-16356	-11168	-3869	23626	4420	-12832	-26956	-28228	-11296	24649	-3947	127	107	1
-14860	-12504	20688	-7398	32767	7983	-32768	4288	12420	-7801	26631	-2136	-16140	18412	20824	16483	-3721	7931	-16752	32767	9188	-8494	16626	-11392	-15196	14904	-11256	10295	17161	6896	-7888	-11692	-14484	7087	-1085	-623	130	126	1
-32768	-17044	18612	-7736	32767	21427	-32672	-13776	-5508	-7594	26679	-3443	-18536	8644	3012	-23225	-4932	8627	-13908	-7036	18728	-9675	7361	-13151	-13180	16056	-15356	-5443	14526	8849	-14976	23596	-11932	15781	10744	2098	133	114	1
-31816	-19872	25140	-2349	32767	30480	-32768	-5072	-2984	2954	29461	-4621	-31296	-2268	-12328	-17782	-2710	3116	-17896	-2976	20396	-9073	5011	-12979	-21656	316	-14476	-3418	12572	3189	-27576	7372	-11068	2077	14896	8229	131	118	1
-24676	-17824	32767	-7073	32767	27892	-28296	2848	-1072	6015	24185	-6714	-29624	2864	-10156	-13535	-13853	3188	-11212	3380	14008	-2261	-560	-2048	-16284	984	-9788	6124	9823	2125	-14688	392	-4204	222	9751	6985	126	122	1
-20632	-6540	32767	-15809	15936	13979	-19988	1472	-6172	-1962	14444	-2804	-32024	4100	-8132	-9149	-17418	2419	-9788	1680	14472	-767	-75	-867	-16356	340	-9380	4648	7436	3652	-19616	-3100	-6168	2677	11846	2479	131	110	1
-5980	-22216	31496	-17546	-18787	2430	-19124	2064	2980	-9761	8931	-1706	-29144	3580	-11004	-4057	-17668	2329	-8608	2156	14156	496	704	-82	-17572	1296	-7528	3169	5887	3409	-16608	-1804	-3396	6662	11368	612	130	124	1
7680	-16144	19132	-3671	-26205	600	-12656	-2724	4568	-9054	-1468	-2514	-27244	4364	-10812	-2360	-19151	1619	-9036	2512	14088	1478	1438	306	-16744	2944	-6188	-617	4687	3061	-16900	1648	-2136	4879	13163	501	116	131	1
7640	-8000	13404	4306	-25482	-1659	-11456	-2864	4304	-8287	-3196	-2193	-18936	3252	-10408	-4310	-18283	1407	-9548	3684	13240	1682	1539	431	-16536	3040	-5100	3866	3346	3077	-15412	4276	-3512	4322	14323	123	125	125	1
3824	-4088	11388	2426	-25332	-5634	-6816	628	356	1717	-18486	191	-16880	1012	-11136	-5580	-18843	-334	-9672	4432	13108	1149	1222	196	-15744	5444	-4248	7343	2206	2450	-16228	6216	-3768	3992	14473	252	127	121	1
-860	-4636	12092	-1144	-26897	-9329	-7992	928	-1752	2309	-24112	2274	-16764	292	-11724	-4821	-19191	-1470	-9828	4172	13148	479	763	-248	-15552	5756	-4028	7397	2152	2353	-16536	5992	-1052	590	15423	935	129	122	1
-5700	-6108	13404	-152	-31450	-12277	-8472	96	-3528	1569	-28636	3532	-15264	-1648	-14800	-2447	-21634	-1848	-9600	3304	13256	327	700	-281	-15428	4552	-2736	2495	2289	1333	-15120	1988	1164	-216	15587	1085	125	122	1
-8112	-5320	14056	3463	-32768	-14730	-8840	-268	-4148	3179	-32319	5306	-9584	-2864	-13204	2209	-19839	-2587	-9444	3156	13460	468	791	-303	-14964	2432	-2116	956	2930	1312	-15416	-256	2260	701	14507	-29	129	124	1
-9628	-3472	14548	4741	-32768	-16575	-10212	1724	-4332	3224	-32768	7395	-9584	-3516	-13212	6568	-18731	-2883	-9480	3316	13308	452	1013	-445	-15500	2136	-1804	2186	3586	1594	-14920	356	3328	4245	14090	-856	132	126	1
-13584	-3960	16456	4553	-32768	-17259	-13000	1320	-5212	1484	-32768	8985	-6920	-2380	-14376	9922	-18720	-2712	-9604	3440	13068	385	1002	-611	-14728	3268	-1428	4908	4368	1701	-14768	2428	3048	6849	13495	-138	131	127	1
-17004	-5008	18772	3075	-32768	-17119	-16768	928	-6368	374	-32768	10124	-4772	-1080	-16128	14126	-17778	-3152	-9692	3792	12904	92	785	-1029	-14792	4644	-1352	4810	5514	1577	-14304	3772	2628	7176	12142	836	126	133	1
-21256	-7360	20808	681	-32768	-17286	-21116	24	-6256	552	-32768	11755	-3092	-304	-16940	17569	-14908	-4751	-9520	3900	13148	-354	612	-1603	-15176	4484	-1648	3149	6714	1237	-13680	2484	4544	5977	13408	2681	130	134	1
-24260	-8524	23216	-2816	-32768	-17683	-27376	992	-7272	735	-32768	13326	-2132	1640	-13356	15955	-10609	-5447	-9516	3580	13196	-592	678	-2326	-15120	3020	-2008	2905	7727	1414	-13460	1272	2124	4913	13834	3804	129	132	1
-31684	-14276	26732	-5159	-32768	-18652	-32768	756	-11972	-5335	-32768	12733	-4256	5088	-5716	10587	-12835	-2565	-9468	3200	13504	-711	1072	-2747	-14972	2816	-2008	3015	9068	1608	-18008	3152	100	3193	13124	2141	127	129	1
-32768	-26252	22276	2525	-32768	-22384	-32768	-64	-12368	-6420	-32768	12096	-10960	7136	3584	2344	-14210	3373	-9616	3404	13816	-927	2099	-2937	-15476	3272	-1880	2334	10744	1659	-18884	4184	120	3132	12408	1570	129	128	1
-32768	-15660	6368	10086	-32768	-29384	-28288	-8160	-24960	10787	-32768	6212	-21392	6848	12128	12458	-15332	5640	-9760	3268	13988	-948	3859	-3282	-16192	3084	-2352	1349	12564	1480	-17628	4896	2796	318	10443	2638	118	129	1
-32768	-5312	-15424	2304	-30335	-25700	-24148	-640	-30740	2190	-29808	-335	-18204	17388	32288	19588	-18436	3946	-9500	2784	14648	-167	6795	-3234	-15968	3056	-2572	1419	12826	1341	-16112	2596	4572	529	10757	2365	129	132	1
-32768	28644	-32768	-21115	-15264	-13075	2640	-3484	-32768	-26382	-9600	-10383	-9864	32767	32767	17985	4739	-1772	-9344	1904	15508	515	10665	-3121	-16972	2624	-3864	-1675	17329	423	-17040	3984	4264	622	10107	1169	119	129	1
-32768	11764	-28556	-9338	8547	5221	-5220	-17328	-32768	-16108	16349	-5929	-19156	6532	15608	-11360	7878	-10803	-9508	3332	16520	780	16950	-2928	-21188	2812	-2500	-2093	19905	-396	-21600	5764	4436	-51	7680	510	129	126	1
-7892	11112	-7052	13428	28023	9733	-15908	-2896	-13492	21011	23364	-3598	-15368	-5412	-3192	-29380	15382	-10739	-9496	5548	17256	32	25391	-5232	-24532	236	-676	945	22082	876	-27020	4604	8988	938	2114	108	118	127	1
10528	-1760	32767	2834	32767	3314	-32768	29740	19160	32767	22253	7300	-26864	-10992	18128	12079	3168	-8000	-9020	5856	17764	-331	26831	-5632	-31184	-196	1652	4700	24929	1353	-29768	3544	15296	-228	-6390	334	116	128	1
-32768	12936	32767	-368	30678	6663	-28828	20144	-22624	12463	15061	-2951	-9756	10564	9676	32767	9025	3356	-7224	7188	21564	-1273	32767	-12803	-32768	-6868	5608	7780	27158	2170	-32768	-3536	25576	-3489	-22367	-572	130	123	1
-14308	-11972	13108	-4304	15230	9243	-20100	2388	-6752	6667	25739	-9120	-14628	22284	-22612	18343	737	-4605	-13316	17240	22260	-3016	32767	-22361	-32768	-7024	10540	20834	25750	3159	-21416	-15148	3356	4090	-15782	-8500	118	120	1
-22260	-2012	17348	3785	14751	5295	-12292	-15860	-12028	12997	17826	-9661	-9884	-1084	-11940	-17185	4589	1460	-32768	8108	23956	-8041	32767	-32768	-25472	16256	-8700	21149	25349	3572	-17824	-20892	-8368	14048	-9848	-9779	109	114	1
-11352	-18436	10592	6454	5112	5658	-15760	-3652	-9656	6669	14353	-7507	-14984	-13916	-14572	-2772	9785	-2415	-32768	15964	26420	-12848	32767	-32768	-27888	7888	-11816	9855	22192	3634	-30156	6532	-14356	23790	-15006	-5412	123	120	1
-11812	-840	15084	5226	1435	3864	-22668	8540	-8068	-5442	13463	-5626	-25860	-1916	-10872	-315	11076	-8894	-29808	19564	32767	-2966	32767	-26401	-22600	3376	-11756	-3012	18134	4275	-32768	-1436	-11284	9606	-19559	-590	113	130	1
-8884	-3740	13520	3962	1333	2519	-21080	-1344	-4764	-12802	11047	-3089	-17880	-1444	-6828	-1844	11510	-4434	-32768	14560	32767	17222	-1267	-9755	-15476	3928	-15892	651	11236	3742	-27044	12	-6400	2187	-25306	2976	127	129	1
-8060	-2440	14632	3995	1786	1864	-16708	-668	-3796	-1924	7524	-3000	-17040	4576	-2720	2660	12193	-1953	-3468	18136	23048	20604	-25478	-3274	-14796	-3908	-4488	12066	-185	7442	-26880	-1924	-8112	5693	-22721	-489	118	150	1
-9188	-1668	14160	2095	2037	168	-18912	3400	-4680	5488	5289	-2123	-17176	7344	-3208	1540	12877	-1650	7956	11168	10756	18183	-26778	750	-9684	-1668	-4180	16386	-8424	6755	-22924	-284	-8040	8675	-20352	-2368	121	142	1
-9036	-1952	13892	-72	2381	-797	-18528	4784	-4168	2772	4720	-2662	-17376	4840	-3004	-1916	14046	-1485	8180	8044	7924	15759	-19993	5765	-5100	-1236	-4352	11248	-15302	7297	-17784	1164	-8556	7718	-18559	-1354	123	131	1
-8844	-3628	12984	-718	2374	-1249	-16680	1676	-3184	-1865	4339	-2817	-15616	208	-2968	-351	14649	-1373	-240	8088	11272	12284	-16832	10301	-4592	-16	-4576	6230	-19779	5447	-14256	-880	-9324	5513	-16454	-428	124	129	1
-8976	-3924	12424	-395	1727	-756	-15344	-436	-2572	-6423	3766	-2976	-15804	-1400	-1696	1141	14685	-2386	-5588	7840	14384	6713	-22222	13711	-4864	944	-5492	2661	-23628	5379	-13664	420	-10936	5564	-16072	28	128	127	1
-8884	-3684	12360	-149	1076	-364	-16564	-2004	-1716	-4246	3533	-2213	-15320	-680	-84	2953	14033	-3184	-6012	3984	16040	3526	-28034	16820	-6080	1752	-7100	-2776	-27499	4813	-11920	4564	-10548	2669	-15785	519	127	134	1
-8704	-3340	12612	29	755	62	-15608	-652	-1612	855	3124	-1232	-14968	1340	684	3161	13595	-2760	-7564	1120	17632	6273	-31873	20406	-9100	-68	-7528	-5910	-31749	2494	-9836	7200	-9612	119	-14441	387	127	136	1
-8724	-3468	12636	215	475	278	-15744	924	-1292	1798	3665	-846	-15244	3388	1096	-823	12932	-2449	-10448	832	18732	9870	-32768	22425	-11320	-348	-8248	-6737	-32768	608	-10368	6288	-10568	-2965	-11968	17	130	133	1
-8664	-3728	12656	426	166	708	-15980	692	-1148	-835	4799	-1360	-13636	2408	2784	-6338	11686	-2259	-13760	2088	19492	10573	-32768	22445	-12332	480	-8900	-7188	-32768	-672	-7436	4436	-11280	-7430	-10345	-1803	127	130	1
-8576	-3724	12788	598	58	1136	-17052	732	-1004	-3521	5284	-1971	-14408	4652	4384	-8926	11216	-3710	-17408	3380	20724	9500	-32768	21791	-13844	1820	-10196	-9493	-32768	-2488	-5288	3400	-13320	-17292	-8164	-1751	127	129	1
-8692	-3208	13080	654	296	1466	-16832	368	-1844	-2682	6447	-1520	-13052	2640	2428	-2190	14074	-4043	-22276	5624	22412	7305	-32768	22682	-15776	3320	-10452	-12587	-32768	-4789	-5408	572	-12996	-18345	-1628	1318	128	127	1
-8652	-2968	13264	478	712	1534	-16748	1596	-2048	-1303	6947	-1217	-18388	4088	20	-2924	16374	-2220	-24768	6916	23132	5444	-32768	25690	-20132	2552	-11792	-14134	-32768	-7766	-3108	-1272	-13124	-15767	125	2269	125	127	1
-8636	-2228	13384	35	1369	1254	-16868	1960	-1828	-1210	7089	-1189	-20156	3088	-1376	-2865	11578	-1060	-29060	9860	26276	3886	-32768	28117	-29176	5112	-13768	-11102	-32768	-10463	-6788	1164	-7196	-11397	-3002	1609	125	128	1
-8620	-2260	13540	-325	2358	786	-16284	1804	-2676	-2962	8934	-2005	-16876	1056	-120	-1498	8805	-131	-32768	16456	26928	-1281	-32768	29270	-29204	9916	-18420	-11232	-32768	-11176	-15448	2108	2484	-9637	-11308	1051	125	126	1
-8820	-3252	13636	-592	3661	616	-17516	-764	-2516	-690	9201	-1190	-16308	-724	1152	-973	11958	-84	-32768	7760	7668	-4222	-32768	32712	-21248	4144	-22012	-13589	-32768	-8140	-18412	-2284	11804	-11027	-13276	2087	126	117	1
-8888	-3716	13492	31	5003	1284	-17016	32	-1108	1461	10209	-960	-18052	304	3632	-114	13101	-1307	-32768	-19164	-21352	17769	-29566	23565	-16124	-4060	-23480	1315	-31972	2868	-13848	-17344	32767	-23192	-8808	4883	125	130	1
-8608	-2908	14400	-282	7188	1390	-16960	1452	-756	3400	11872	-616	-17376	780	6892	2810	10635	-743	-32768	-32768	-32668	32767	-13297	13164	4504	6200	-21380	24650	-9090	11858	-31108	-32768	32767	-1680	6538	-1661	126	123	1
-8844	-1528	15944	-843	11114	590	-19712	1008	-1996	5850	13647	452	-18196	-684	5240	4089	11923	-39	-32768	-21760	-21832	1315	2794	-7231	-820	20824	-22608	22155	13198	5592	-22264	1008	20952	22694	-12571	-1294	125	120	1
-9020	-5140	15948	-1395	16596	910	-22568	1220	-1376	6337	15161	1253	-23372	1980	4112	1764	7673	-88	-32768	-7264	2644	-21609	5860	-23770	-10312	13120	-18456	-7962	26287	1405	-12312	13076	-72	27995	-3984	5089	123	137	1
-8968	-4784	16156	-1441	22304	2958	-21580	3492	-1064	4486	17668	-35	-21872	3008	8344	-683	4224	1660	28952	18000	32767	-18174	4448	-11398	-32768	-18432	27380	-23117	21642	911	-5028	9324	-5848	19971	10074	5016	123	118	1
-6576	720	18568	-3845	31239	2925	-26140	6028	1724	1982	20995	353	-25796	3004	13876	-2960	-858	1072	-12820	-6184	9608	-17115	30355	-13019	-31092	3936	-13184	-32768	19685	176	-25680	20272	-220	-22395	-4918	9865	125	139	1
-7468	-7076	20052	-4971	32767	3130	-31588	8936	6264	2999	23570	1289	-27364	8236	23096	-3294	-10786	2159	-27724	-31044	32767	-4451	24242	-9529	-10664	-11348	-12056	-21315	22126	1030	-12568	-16092	8076	-25293	18957	2097	125	106	1
-6168	-11328	19912	-3510	32767	7514	-32768	13112	13496	-3111	26759	-3240	-22736	21176	31004	7974	-20499	8619	-16284	29632	9640	2128	15562	-10545	-22068	4020	-11260	-4541	20714	4028	-15520	-20476	-14600	-16752	7132	565	125	93	1
-30936	-16300	21888	-2583	32767	18037	-32768	-1820	356	-6916	26736	-5128	-16772	15704	-2928	-12878	-2699	10247	-13288	676	17408	-9172	15599	-7322	-12160	10888	-11288	-8099	14243	8756	-5768	5792	-11440	11741	6220	-325	125	112	1
-32768	-17244	23040	2187	32767	28375	-32768	-8516	-5528	-6145	29177	-4769	-26396	-3808	-7280	-24276	-1245	5809	-19648	11424	14848	-7473	5424	-8718	-18112	1088	-15264	-3005	12727	6805	-22964	4368	-9144	11325	15068	6506	125	117	1
-26932	-15372	29248	-373	32767	29697	-30520	644	32	215	27132	-5492	-32768	-2424	-12580	-13088	-7512	2549	-12448	-3300	17592	-3427	2194	-4478	-18832	1556	-11280	10406	10071	4812	-18372	9764	-7764	11605	8581	6258	127	109	1
-9960	-12172	29900	-11510	32767	24061	-24116	-1156	-3744	1269	16892	-3979	-32768	5976	-8244	-6696	-15662	995	-10456	3032	14992	-2553	1394	-2008	-14556	7620	-8160	8925	8016	4276	-19100	6676	-6156	4062	10976	4231	127	112	1
-30064	-22556	32767	-14593	-1343	3906	-22476	-1644	-4876	682	15466	-3467	-27976	5740	-10456	-5576	-17694	1532	-8232	3856	14064	-962	1160	-1169	-17424	3820	-6688	335	6853	2914	-16208	1332	-3664	1854	10927	2195	125	120	1
1432	-18876	22892	-6170	-23445	-4040	-16960	2756	3172	-4361	4172	-4176	-30156	4932	-11024	-4864	-19423	805	-8188	2644	14228	-227	2215	-972	-16884	2616	-5748	-3939	5796	2308	-17256	688	-1328	1072	12535	2776	119	127	1
9052	-10188	13516	1619	-25053	-6915	-8564	-2052	2808	-5314	-6212	-2026	-22884	3144	-11204	-5273	-19135	224	-8860	3072	14176	579	2437	-803	-17216	116	-5868	-429	4390	2416	-15996	920	-2048	496	13723	1009	125	136	1
6284	-5908	10756	2016	-23141	-9327	-5048	-1108	640	-2060	-15606	-1162	-17244	3888	-11312	-4967	-19009	-633	-9508	3428	13952	779	1989	-455	-16216	1500	-5824	6530	2840	2877	-16724	1624	-3596	2668	14419	782	125	121	1
348	-4744	11412	1339	-24327	-11317	-6744	-1720	-1160	3746	-21419	62	-14516	2608	-11644	-3790	-19464	-2585	-10188	3996	13568	643	1399	-297	-16008	4324	-4700	7935	1953	2729	-16744	3264	-3120	1933	14398	356	128	120	1
-3300	-4092	12708	524	-28294	-12975	-7964	452	-2696	4947	-26596	1647	-14116	2296	-12556	-3834	-19973	-2899	-9436	3312	13784	569	1130	-27	-15700	4832	-3916	4431	1999	2362	-15532	2840	-948	991	14767	1227	121	128	1
-7164	-4260	14084	1144	-32768	-14438	-8884	1172	-3840	3772	-30985	3193	-12344	-1400	-12272	-1443	-20434	-3624	-9428	3316	13500	664	1098	317	-15212	3520	-3748	1939	2052	1893	-15304	520	-944	1635	14411	263	118	124	1
-9584	-2968	15108	2474	-32768	-15837	-9240	1552	-4572	2650	-32768	5245	-10252	-1860	-13360	2664	-20898	-3636	-9160	3248	13508	618	997	293	-15184	1736	-2612	3418	2247	2022	-15436	84	484	3339	12908	-116	129	124	1
-11500	-1992	15616	1983	-32768	-16732	-11376	2716	-4612	824	-32768	7167	-7432	-1528	-13056	6540	-19697	-3057	-9240	3460	13200	500	771	66	-14840	2932	-1996	6641	2635	2325	-14816	1984	1952	6707	14361	-94	130	125	1
-15064	-2964	17276	879	-32768	-16016	-14368	2400	-5324	-1728	-32768	8074	-5520	600	-13528	9372	-18616	-2631	-9292	3724	13228	343	435	-250	-14216	4944	-1588	6531	3637	2153	-14652	4072	1896	7748	12766	380	127	129	1
-19676	-4216	19916	-925	-32768	-14838	-17652	1392	-6612	-3376	-32768	8070	-4628	636	-14784	12198	-17590	-3025	-9036	4184	13200	-167	229	-868	-14976	5420	-1232	3987	4811	1782	-14072	4544	1948	7428	11532	768	126	132	1
-21360	-4136	19852	-5185	-32768	-14940	-22532	1880	-5760	-3227	-32768	9181	-2260	984	-14644	14546	-13069	-4440	-9024	3948	13396	-419	311	-1544	-15304	3068	-1288	3312	5970	1640	-15096	1696	4328	6165	12762	2837	127	130	1
-23608	-6856	21356	-10303	-32768	-14511	-28484	1596	-7388	-3649	-32768	10482	-2284	1628	-11688	10022	-8784	-5216	-8952	3576	13460	-610	468	-2146	-14824	2576	-1548	5244	7018	1841	-13484	308	2460	6060	12026	3697	124	131	1
-24852	-7756	22280	-10626	-32768	-14640	-32768	192	-11948	-5573	-32768	8809	-5176	4036	1340	5973	-11922	-1860	-9008	3696	13780	-855	876	-2740	-14780	2788	-1780	5363	7212	1850	-15668	1708	-524	6581	12223	3166	125	126	1
-32768	-19888	26880	-1179	-32768	-22000	-32768	-2148	-14564	-3319	-32768	7616	-13996	3988	9052	1588	-16959	1825	-9184	3412	13852	-1091	1654	-2927	-15928	3408	-3220	4252	9242	1694	-18000	6452	-2064	5667	11295	1760	121	124	1
-32768	-10316	10484	-13	-32768	-27432	-31940	-208	-22404	-6288	-32768	7397	-15740	7080	12808	3382	-9746	1900	-9388	3396	14032	-1193	3145	-3131	-16408	3196	-2716	3138	10449	1523	-20040	6228	-1040	3306	9782	2383	125	124	1
-32768	-1068	-10980	-5120	-32768	-18111	-23916	-3656	-27112	-18792	-29910	-4997	-12684	18864	31224	8853	-14631	2952	-8752	2520	14784	-1063	5225	-3277	-16172	3508	-2408	1322	12368	1061	-17048	5124	3116	1991	9436	1601	128	124	1
-32768	5816	-17860	-7818	-32768	-14830	908	-4304	-32768	-29140	-9406	-9709	-17588	19988	32767	3258	2593	3958	-9004	1848	15584	-180	8559	-2968	-17020	3808	-3184	-840	14886	188	-17392	6264	4000	1749	9291	720	122	122	1
-32768	13668	-28624	-3436	5670	16670	-5560	-15108	-31776	-9793	16132	-4489	-18036	1428	22540	-6066	57	-11972	-8976	3604	16496	565	13653	-2801	-19916	3184	-2792	-2089	17486	-514	-20408	4368	2912	1424	8433	615	111	125	1
-32768	8308	-1828	16859	11909	20154	-16440	-4800	-32556	21506	28652	-751	-13880	-1888	-1224	-12354	8967	-14935	-9284	5296	16804	433	20609	-4768	-23096	1352	-2064	1776	18952	482	-24652	2168	3928	2895	5777	-442	110	125	1
-7044	-18788	32767	24595	16471	14903	-28304	10180	24600	27044	32767	-3521	-12600	236	-13876	-4332	18948	-7614	-8596	3412	18156	522	29790	-6527	-24612	-2228	-2524	4420	21113	1367	-26156	1044	8492	4738	869	106	120	123	1
17268	-7392	17444	12036	29686	-472	-32768	24804	7184	24258	8997	-643	-14740	5256	10484	28701	2160	-3896	-8180	4180	19588	1486	32767	-6385	-31488	-3940	492	6141	23755	664	-28344	-1724	14496	1915	-4869	62	112	123	1
7108	5476	5780	10852	32767	-2950	-20456	2340	-17512	6754	11632	-1963	-11424	4016	15444	16301	4147	5119	-7556	7040	19172	2392	32767	-9680	-32768	-10140	6700	11218	24817	1839	-28760	-3324	23408	-542	-16676	-3773	109	119	1
-16556	2420	20312	-7543	18688	14181	-25676	13624	-8296	23646	16828	757	-23520	19132	-11516	19450	6800	-5029	-16076	17560	20316	3449	32767	-19951	-32768	-3896	8740	25508	23362	3154	-25052	-11364	21392	-6835	-24844	-13701	139	120	1
-11404	-19284	10356	2980	22634	627	-17956	-11180	-4016	8804	18330	-7774	-13340	5496	-11272	-10731	6304	-1240	-32768	7448	18204	-3359	32767	-32012	-25976	19524	-6788	18199	26291	3350	-21404	-2736	6360	10804	-13750	-9176	132	121	1
-15872	-2424	15200	2784	11425	8369	-13672	-580	-10964	3950	13345	-6605	-13808	-5788	-9772	-7153	10080	-4497	-32768	17996	27588	-5348	32767	-32686	-29424	11772	-5928	10128	24676	931	-29808	16400	-15256	19550	-13936	-4886	124	131	1
-13244	4656	19164	5600	4137	3649	-23092	2444	-9552	-3495	13489	-7171	-23284	-896	-9352	-8413	11884	-7359	-25696	17048	30160	-1872	32767	-27568	-25208	5776	-9096	-5482	19868	-631	-32328	5076	-10684	2617	-19417	-820	117	126	1
-10908	-6780	13060	2321	2548	1106	-20052	1544	-5912	-12565	12483	-3635	-17500	-3068	-8280	-8219	12074	-3716	-32768	15152	32767	14789	13853	-11704	-15656	6920	-15692	-9907	15031	-955	-27216	2100	-4080	-3084	-23308	3016	116	123	1
-9788	-3288	13752	1362	1749	752	-16312	-3008	-5456	-6880	7834	-4330	-18372	-944	-5212	-241	13418	-2753	-8076	26800	29692	8756	-23818	2457	-16580	-1280	-4056	6528	3947	560	-27708	3664	-6608	-3309	-22268	769	124	125	1
-9280	-2568	13616	-5	2133	-60	-19184	-292	-4180	3503	4713	-2973	-17096	4820	-2984	3142	13288	-2653	3928	15228	15924	449	-30052	7566	-10912	1860	-2560	13162	-4925	-1291	-25088	4856	-7632	-1374	-20323	-924	120	141	1
-8912	-2856	13764	-614	2500	-1128	-18772	4240	-2736	3088	3936	-3173	-17572	5800	-2316	639	14245	-2396	7364	9416	9000	-2262	-26370	9753	-7120	5704	-2688	6638	-12425	-778	-20168	5496	-8360	-979	-18423	366	122	135	1
-8988	-3756	13176	-784	2978	-2116	-17920	1396	-2516	-4051	4245	-4054	-16900	-120	-2412	-2653	15236	-1299	1764	8476	8908	-3041	-22850	10241	-5076	6200	-4328	-5165	-18088	-2542	-16672	2504	-9716	-1859	-15771	1451	119	132	1
-9424	-5000	12244	-194	2939	-2165	-17316	-2184	-1592	-8204	4563	-3486	-16644	-2604	-1612	-1434	15607	-2486	-6572	9904	11832	-3946	-26417	9861	-4892	6068	-6696	-10351	-22809	-3674	-15068	3496	-10848	-1732	-15245	2600	127	131	1
-9368	-4656	12108	239	2554	-1834	-16352	-3528	-1016	-5482	3689	-2616	-15440	-1656	-132	-640	14659	-2849	-10708	9088	13896	-3437	-32768	11763	-6424	4680	-7644	-11051	-27604	-4104	-12440	4260	-11656	-4209	-15388	3526	126	131	1
-9248	-3996	12432	-55	2304	-1609	-15416	-2208	-996	-1020	3619	-1424	-15144	-20	852	-1313	14438	-2605	-11344	7924	12968	-389	-32768	14683	-8748	2700	-8016	-9136	-32311	-5558	-10404	4556	-10936	-6680	-14500	2802	123	130	1
-9080	-4592	12144	-91	2051	-940	-16232	-612	-740	-1953	4392	-1266	-15108	1996	1364	-5884	14628	-2323	-12500	7332	12328	3663	-32768	17327	-9640	1360	-8464	-7132	-32768	-6423	-9572	4284	-11764	-8820	-10906	1634	127	134	1
-8916	-4464	12032	126	1704	-3	-16664	-480	-964	-6190	5165	-1527	-13388	972	2424	-12528	14594	-2271	-17688	9464	14744	5558	-32768	19407	-11240	2676	-9640	-4320	-32768	-6680	-6900	1844	-12980	-11598	-7750	359	126	132	1
-9336	-4032	12132	173	1616	595	-16512	-924	-1624	-7621	5825	-1671	-11004	-52	3804	-8413	13973	-2713	-19912	10192	15836	5938	-32768	20610	-15304	5236	-10460	-4949	-32768	-5898	-6536	1284	-15364	-18466	-6172	401	128	129	1
-9444	-3912	12020	135	1407	761	-15420	-1024	-1416	-6518	7070	-1361	-14560	1376	1632	-7899	15237	-2860	-23196	10212	16904	8192	-32768	22297	-19016	6072	-11276	-7569	-32768	-6796	-5388	-516	-12360	-19979	-602	2264	133	128	1
-9076	-3780	12540	15	1519	937	-16124	248	-724	-5733	7859	-1159	-19576	2360	364	-8136	14491	-2294	-30332	14448	22928	6811	-32768	23835	-23828	5800	-15400	-6990	-32768	-8043	-4264	-1852	-9028	-19980	-2823	2597	130	128	1
-9016	-3232	12936	-547	2582	1040	-16928	1340	-808	-4828	8532	-1242	-20840	2996	896	-8521	8681	-1750	-32768	15988	25332	3187	-32768	26815	-26244	7148	-16800	-2909	-32768	-7126	-7824	-84	-5916	-13674	-6259	2177	127	127	1
-9136	-3140	12852	-1327	4077	971	-16968	-572	-1424	-3772	10232	-1187	-16088	-1716	3000	-5710	10199	-583	-32768	15872	15176	141	-32768	29086	-23592	13872	-21700	-3708	-32768	-4356	-13128	-636	-2304	-4259	-5590	1448	125	120	1
-9356	-4844	12508	-1603	5403	1419	-17224	-2116	-496	-1123	9959	-734	-16820	-1396	4004	-4001	12200	-437	-32768	10124	-3500	184	-32768	26335	-22740	5552	-23140	-20569	-32768	2404	-21448	-4660	10984	-13167	-19079	2083	125	120	1
-9344	-4008	12896	-1354	6806	2111	-15616	-352	260	84	12267	-789	-17040	-16	7892	-1611	11402	-917	-32768	-29888	-24656	32767	-22761	23536	-10980	-11048	-26332	483	-28922	8647	-14280	-19832	32767	-20544	-7000	6322	125	110	1
-9304	-3524	13684	-1665	9396	1899	-15620	-208	312	251	12589	-722	-16032	984	8304	-113	10970	-1248	-32768	-32436	-27240	32767	-19368	23620	7428	16052	-20352	29989	-3776	11504	-27320	-10076	32767	3790	1730	-1446	127	118	1
-9656	-3204	15052	-2108	13861	956	-20284	744	-1500	5439	16061	454	-19628	-96	5432	1309	9463	-511	-32768	-30960	-18820	-19715	7124	-12025	-4056	23108	-24480	-2251	17313	4177	-15308	11380	8472	15543	-11139	2177	122	117	1
-9356	-5052	15012	-2961	19771	1568	-21980	2000	-524	5530	18186	153	-21940	1272	8520	46	4447	1206	-29576	-8260	7856	-30211	8083	-17236	-9896	5528	-20444	-30456	27799	1394	-11560	12736	-2120	16829	6079	6948	127	131	1
-8864	-4028	16128	-4743	27410	2079	-22560	6208	580	3216	21077	-1268	-21704	4872	14008	-1512	-408	2431	32767	608	32767	-14279	26780	637	-32768	-32768	17384	-32715	20447	-3824	1244	6920	-13332	-3900	11792	6464	127	111	1
-6668	-2688	19640	-7702	32767	919	-29964	9892	4404	-1456	24593	-1307	-26316	9988	23456	-6671	-12093	4198	-32768	-19776	10136	-13894	32767	-9410	-20952	2532	-19180	-29352	22067	3009	-32768	-308	26280	-23612	-1742	7424	125	116	1
-4472	-9732	20664	-10997	32767	204	-32768	15880	9248	-7023	26584	-1871	-22248	20632	32767	15526	-20042	8898	-27176	-4504	27052	1848	17283	-18348	-17368	-32	-12216	-11095	23738	5259	-28964	-24856	-13564	-23241	12385	1313	138	112	1
-24668	-13968	17616	-15852	32767	9545	-32768	-312	2688	-16596	27752	-3932	-14544	20028	-3280	-22937	-2091	10726	-26428	15624	15056	-14033	16849	-9400	-18196	12048	-14496	-8428	19974	8300	-7484	-888	-18208	13000	3102	-202	129	106	1
-32768	-18636	21080	-15350	32767	18977	-32768	-12216	-6732	-6978	27044	-3874	-28116	-2336	-6880	-28380	2439	5763	-17892	15472	14928	-8127	3602	-10483	-10688	4872	-16400	-5088	15170	9246	-13172	15656	-10484	5999	8732	5237	128	129	1
-32768	-20312	30148	-10085	32767	28823	-32768	372	-2128	302	28014	-6456	-32768	-96	-13016	-20033	-5751	3530	-12192	-3908	16868	-3129	-797	-3944	-22272	-1592	-13968	4685	13050	5176	-25760	8444	-12272	1344	10001	8253	133	115	1
-12416	-12220	32736	-13315	31425	21242	-26988	-2400	-5316	95	19000	-5927	-32768	5244	-7440	-10534	-17417	941	-9132	1900	14852	-1560	-363	-1923	-15740	5796	-7812	9324	10750	3894	-15772	1648	-3736	-690	7797	7451	129	110	1
-27336	-18588	32767	-22913	-8996	8760	-17160	3108	-5104	-6729	11703	391	-29020	3368	-11224	-6078	-16241	898	-8124	3556	14236	-967	14	-2044	-15188	6072	-7912	8424	10516	3859	-17936	1480	-6136	3356	8512	3049	124	112	1
3464	-16044	22380	-16482	-29214	7231	-14788	-920	2884	-13388	3107	-3016	-29872	5340	-12292	-4739	-17900	1781	-8764	1768	14076	-250	421	-2156	-17528	6196	-8384	-4978	7889	2680	-16508	2376	-2788	4687	9945	3014	127	127	1
8400	-11296	12488	-3954	-30624	6822	-7316	-5276	2256	-9231	-7459	-2158	-24148	5020	-12360	-5127	-18020	1002	-9156	2676	13900	374	967	-1726	-17560	256	-7780	-5537	6114	2995	-18208	680	-4040	2096	12123	2385	132	131	1
5588	-6288	9172	742	-28828	4257	-4724	-788	336	-1602	-15526	-2137	-16524	2540	-11856	-6103	-18454	150	-9144	2432	14176	631	1449	-1060	-16436	-452	-7004	2165	4304	3245	-16780	904	-2644	2374	12907	1776	135	128	1
1760	-5036	9160	-1578	-28387	-1101	-5584	1652	-1516	2173	-21210	-115	-13892	2308	-11740	-4838	-18579	-1659	-9324	2696	13940	1076	1999	-229	-16292	3020	-5344	5448	3173	3207	-16864	3248	-1964	2361	12661	804	129	125	1
-1224	-5804	10316	-3157	-29808	-7327	-6488	2584	-2652	-473	-26359	1321	-13152	1056	-12452	-5446	-19609	-1910	-9172	3452	13596	1114	2092	-72	-15528	4356	-3460	4117	3076	3043	-16568	3360	76	6	12416	1055	130	127	1
-4428	-6524	11804	-1369	-32103	-12662	-7568	1196	-3600	-1032	-30403	2458	-11148	-884	-13732	-2420	-19202	-2061	-9204	3328	13656	893	2281	-320	-15240	4744	-2936	1278	3591	2749	-14820	2116	1080	181	11400	1523	129	132	1
-7536	-5628	13644	2229	-32768	-16751	-8432	228	-4188	741	-32768	3647	-7404	-1664	-13640	948	-18149	-2532	-9680	3196	13128	588	2240	-718	-14548	3656	-3900	496	3922	2620	-15644	1752	1160	1781	11953	1247	127	134	1
-11240	-4096	15728	3470	-32768	-19078	-10772	800	-5112	1795	-32768	4796	-5464	-1224	-15096	3876	-17937	-2569	-9504	2976	13180	332	1892	-911	-14136	2972	-3848	2645	4075	2660	-13092	1640	708	4675	12278	1258	130	130	1
-15476	-3288	18156	1711	-32768	-19778	-14424	1324	-5460	1040	-32768	6239	-5140	-2284	-14756	8090	-16317	-3413	-9816	3076	13104	61	1668	-1161	-14724	4284	-4452	3187	4342	2592	-15308	2104	-824	7332	11672	1720	133	126	1
-17928	-3592	19140	-3899	-32768	-18702	-19636	1088	-5328	-918	-32768	8197	-5060	-2596	-16676	13538	-14499	-4741	-9712	2716	13232	-87	1538	-1082	-14880	3980	-5180	2631	4599	2206	-15624	2912	-1400	7642	12314	2195	131	131	1
-22516	-4728	20392	-10590	-32768	-17021	-26264	784	-8644	-1828	-32768	9480	-5268	-1080	-14628	15680	-11001	-6384	-9588	2628	13460	-100	1668	-1033	-15660	2284	-5492	3528	4640	2247	-14648	1396	28	7964	13825	2630	129	133	1
-32768	-9912	26852	-12048	-32768	-18532	-32768	2236	-13848	-4395	-32768	11482	-5236	2272	-632	12908	-15038	-5854	-9616	2540	13380	80	2133	-974	-15520	2396	-5444	5140	4623	2215	-14444	1284	-420	7363	15110	1742	131	133	1
-32768	-19680	22932	-5104	-32768	-18823	-32768	-3956	-14208	-11565	-32768	7565	-11580	6332	4684	1754	-13948	1179	-9516	2744	13652	214	2851	-992	-15344	3116	-4368	6106	5130	2275	-16016	4024	-1804	6100	14993	443	130	129	1
-32768	-20576	7392	1651	-32768	-19387	-30672	-12644	-22208	-10829	-32768	1186	-20376	7260	9412	-144	-8533	2568	-9436	2936	13968	360	4154	-1216	-16348	3140	-2920	5208	6368	2220	-19524	6844	-8	4110	11894	782	130	129	1
-32768	-6944	-588	-2215	-32768	-23387	-21024	-4988	-21116	9438	-32768	-401	-13648	7792	14832	10659	-7292	793	-9680	2608	13932	283	5928	-1452	-15872	2964	-2092	3851	8140	2094	-19112	6160	4252	748	9701	1318	143	128	1
-32768	4208	-15488	-9002	-24535	-20017	-20100	3292	-26660	-10435	-24767	-5697	-11344	18672	32767	20026	-7648	-1880	-9860	2264	14248	450	8064	-859	-15692	3892	-1168	1249	11000	1227	-16736	5216	8016	-139	10463	1969	125	129	1
-32768	32767	-32768	-10317	-8154	-3647	4348	-5256	-31712	-25516	-1071	-12508	-16348	12712	32767	4954	-1407	-3769	-9960	3156	14572	379	11023	-1094	-16580	3760	-544	-320	13957	945	-17920	3372	7404	664	9817	770	120	128	1
-32768	13160	-15936	-1434	8566	9402	5436	-8568	-31800	-23242	3304	-10909	-18156	5424	7024	-5959	13779	-13080	-9864	4600	14752	28	14991	-2233	-18324	3560	-616	144	16627	1138	-20132	3504	6552	1167	6272	-113	134	129	1
-296	18016	5324	25246	24339	6953	-16756	8624	-7332	28690	22694	-4736	-17260	4000	1628	-9838	16028	-12173	-10080	5052	15840	-529	20748	-4088	-21704	1632	-1408	2578	19046	1928	-23040	2896	8452	3553	2400	33	123	130	1
13768	5704	32767	10326	32767	-4800	-32768	31536	15876	32767	18404	7873	-17636	-5156	-1448	17040	-2772	-4619	-9656	4972	17428	-536	30171	-5817	-27252	252	-872	5625	21275	1973	-26184	1216	11336	2736	-4149	894	120	128	1
-32768	25356	29580	-1804	32767	7934	-23272	14004	-16476	11946	11901	-248	-20888	-5732	7868	12741	-4018	-2803	-8484	5532	18768	921	32767	-8593	-32432	-7588	1524	9171	23122	2947	-29324	-2840	17508	639	-15975	-608	139	125	1
-18564	-23780	11484	-3283	21021	7730	-22760	572	-10300	12646	19982	-4541	-18968	19940	-18336	12475	179	-3059	-7700	12084	19472	2404	32767	-13475	-32768	-10720	4428	21004	23010	4460	-25524	-12928	20300	-5395	-25511	-9732	120	123	1
-25276	132	19280	6789	15264	6558	-17684	-13312	-12180	13360	16321	-7872	-14656	-5136	-12244	-17077	3731	7	-32480	10120	19004	-1337	32767	-26156	-26344	10120	-5320	25389	22291	4523	-18820	-16256	3252	8838	-12585	-11049	138	127	1
-11364	-6960	15660	8158	5513	5265	-17128	-464	-8232	5428	14082	-6571	-17672	-12692	-15868	-123	8900	-3894	-32768	10976	14116	-3411	32767	-28936	-24376	8908	-12792	14280	22338	6355	-27416	7288	-5560	27797	-12615	-8432	123	131	1
-12204	-4068	14464	5017	1644	2694	-20000	5224	-7504	-3794	11309	-3505	-21360	1980	-9964	5564	8869	-8084	-32768	12664	23428	-986	32767	-27094	-22012	3468	-13384	12798	19154	4413	-32768	7620	-12332	22959	-10110	-5532	119	130	1
-9560	-3308	13424	2157	578	1114	-20924	2436	-4788	-5731	8481	-2568	-17632	4936	-6220	5142	8639	-4859	-23172	5972	26332	11995	26218	-17306	-18516	7888	-13292	4167	15551	3660	-29908	4664	-10236	6610	-18172	1483	125	121	1
-9092	-2564	13620	820	809	233	-16884	1404	-4052	1040	5439	-3807	-16532	7112	-3612	4434	9539	-1289	-32768	13836	32732	23622	-5512	-13635	-11928	4800	-15420	7313	10950	2548	-24484	2240	-7860	-912	-21769	2422	122	136	1
-8860	-2948	13276	-160	1210	-818	-17512	2664	-3072	3149	4169	-4019	-16016	7732	-1664	-163	10281	-1178	-5096	13284	15380	21097	-26431	-10921	-10700	724	-6112	12804	2009	4868	-23152	-164	-7748	1183	-19307	-6	124	145	1
-8820	-3640	12888	-326	1634	-1593	-18068	2544	-2072	-646	3789	-4567	-16928	2752	-1916	-4699	11225	-1172	4068	10144	5800	15074	-27187	-7354	-10596	444	-5744	12991	993	4778	-19780	2024	-7796	4819	-18112	100	129	137	1
-9324	-4492	12520	-85	1775	-2128	-17724	2364	-2148	-1594	3821	-4581	-16812	-1228	-2140	-5367	12098	-1756	6940	8884	2760	10071	-19948	-2548	-3580	120	-4576	4094	-9673	3541	-16220	1604	-7408	4903	-16282	1039	126	130	1
-9164	-4520	12628	-46	1464	-1959	-17036	-1464	-1416	-10910	3666	-2835	-17000	-3392	-740	-5085	12087	-2722	2840	10284	4904	5558	-13052	3538	-3492	-200	-5572	-667	-13933	1461	-15356	3892	-8796	1886	-14866	1245	132	130	1
-9000	-4376	12400	-219	1072	-1443	-16660	-3728	-1244	-6947	3241	-2144	-15740	-1208	488	-2461	11191	-2330	-1820	10304	9220	912	-12829	9822	-4216	1236	-6388	-2968	-18288	400	-13696	4416	-9152	-1517	-14437	1433	129	131	1
-8984	-4064	12244	-233	688	-1183	-15360	-1232	-796	-553	2713	-1478	-15692	1364	920	-1431	10875	-2108	-7740	9216	14072	-3012	-18903	16328	-4452	2904	-6920	-5868	-21962	-423	-13364	4532	-8636	-2379	-14456	1528	128	133	1
-8744	-4236	12540	-160	448	-866	-16468	464	-236	-1097	3083	-1409	-15560	2052	2576	-3683	11523	-1743	-8640	5568	14712	-3990	-27114	22087	-6508	2860	-6812	-9053	-25453	-1942	-12132	6052	-7880	-7862	-12533	1148	132	136	1
-8868	-4548	12344	59	293	-258	-16680	380	-380	-4701	3647	-1309	-15700	944	2688	-7361	11631	-1552	-8792	3548	14772	-1609	-30681	25470	-9944	2128	-7084	-11624	-29037	-4415	-11912	6360	-8712	-10667	-10788	1113	127	135	1
-8940	-4112	12428	153	295	-49	-16440	-744	-740	-5381	4287	-1149	-15244	-220	2056	-8537	11702	-1127	-12560	4376	16556	-1210	-32768	25717	-11448	2824	-8344	-13375	-32768	-6000	-10532	3768	-9616	-14020	-8350	716	127	135	1
-9020	-4104	12520	238	242	10	-16196	-1256	-860	-3804	5001	-685	-15220	-280	1936	-8566	11624	-1084	-16756	3504	17640	-465	-32768	24744	-11948	2424	-8196	-14519	-32768	-7905	-8840	2908	-12896	-15691	-6241	844	134	133	1
-8880	-4076	12484	292	149	119	-16656	-272	-656	-2916	5313	-545	-14140	712	3636	-6330	10102	-326	-18828	3940	15984	3235	-32768	24269	-14684	3248	-10136	-16147	-32768	-9680	-7524	616	-12360	-16576	-1474	2770	127	132	1
-8640	-4284	12696	310	325	513	-16732	-316	-976	-2633	5953	-350	-13668	1720	2740	-3510	8777	-2514	-22480	6936	15664	3052	-32768	23787	-17264	3096	-11524	-17983	-32768	-12335	-7212	-884	-11532	-18777	288	3564	129	130	1
-8836	-4000	12488	410	436	874	-16428	204	-1624	-2556	6256	-538	-17524	792	-504	-3757	9651	-2418	-28132	12032	20524	-2187	-31692	24177	-23584	5268	-14640	-18536	-32768	-13504	-8096	-2196	-6588	-18982	-307	2296	129	128	1
-8936	-3776	12656	459	539	1050	-16304	480	-2252	-1850	6743	-698	-19520	888	-2436	-1530	8570	-1247	-32768	17316	24508	-6656	-32768	27414	-25612	10016	-14348	-20273	-32768	-13542	-13772	-2688	140	-17199	-7945	296	127	127	1
-9008	-3804	12912	409	744	912	-16552	548	-3096	-1071	6754	-847	-16280	44	-1476	-2551	9498	541	-32768	17328	13620	-8080	-32768	32767	-24108	5356	-14924	-18170	-32768	-13515	-15888	-3756	3832	-16870	-8400	24	129	123	1
-8568	-3832	13028	166	1345	1052	-17724	-32	-2972	-828	6822	-659	-16216	1172	-1588	419	11313	265	-32768	12892	3848	-9735	-31326	32767	-18488	5656	-14768	-17085	-32768	-10178	-14756	-7284	12356	-20704	-4601	1185	127	125	1
-9084	-3916	12632	-94	1875	1489	-17136	384	-2788	-1146	7045	-736	-16908	2340	-876	583	12312	-487	-32768	-7172	-8488	1901	-25153	31398	-18700	-1416	-13200	-8120	-30155	-2264	-15248	-20648	21472	-25962	-3807	1848	128	120	1
-8944	-3340	12864	-136	2385	1521	-15392	812	-1724	-1173	8063	-999	-15448	1680	2496	663	11462	-19	-32768	-24620	-18980	27092	-12733	16451	-6084	-524	-14252	14128	-17268	7088	-20972	-17596	32767	-13130	-425	-752	129	122	1
-8924	-2788	13752	-605	3588	1097	-16352	-1164	-1332	1548	9039	-26	-16540	-1600	3684	1752	10279	-551	-32768	-27028	-11372	14519	-2524	-2036	-832	13324	-13284	18662	415	7131	-19232	-6176	24568	11130	-2853	-1854	130	133	1
-8764	-4196	13784	-1364	5944	1205	-18812	-1248	-1340	3213	10022	1040	-19808	-1328	1992	616	8312	-264	-32768	-16384	-6168	-4927	1298	-18743	-8440	8648	-16248	4638	14256	3261	-17156	2520	11688	20978	-11377	2933	127	128	1
-8868	-4840	14284	-1425	8251	2283	-18512	112	-1844	1815	11645	1077	-18748	504	2452	-2552	6762	989	-32768	-1636	-2744	-466	3163	-22706	-11444	5720	-16688	1318	21407	3417	-14352	1388	-52	26004	-2763	3668	128	136	1
-9292	-4532	14360	-1597	11407	2955	-19624	1420	-2212	882	13348	811	-19440	2660	4008	-4511	6683	2020	5124	18984	24724	-14475	8437	-14996	-21020	-2736	3316	-6441	21365	5931	-8540	-1124	-4804	21128	5916	4015	124	123	1
-8896	-3296	15960	-1934	16200	3246	-21876	3224	-2020	1011	14936	694	-21420	4828	6280	-6268	5283	-111	3340	11224	15228	-1175	22941	3470	-32768	-13068	4128	-10892	14542	-3925	-14844	5812	1952	-1862	1151	3881	127	124	1
-8608	-4104	16840	-2694	23667	3060	-22380	3432	-1904	964	15271	821	-22888	6724	9280	-5797	2447	-489	-27840	-8084	17424	-8049	31546	40	-11384	3040	-13196	-28521	15969	398	-16884	9656	8296	-18851	3036	8424	128	123	1
-8260	-3176	16888	-5094	32767	3429	-24444	6344	2048	1384	19000	549	-23392	6268	13320	-4565	-3391	1482	-25036	-15396	30732	-1127	13442	-13032	-19980	-1412	-11580	-22862	18343	6455	-23104	-8640	-3324	-25729	11170	3105	128	96	1
-8388	-6960	17072	-5664	32767	3116	-25840	8144	4364	188	21377	-100	-23316	4852	20000	-2599	-14131	6046	-10172	22628	8828	195	14322	-6340	-19788	-916	-9536	-10271	14861	4670	-14160	-8536	-13456	-10503	7404	1593	127	118	1
-11032	-11116	16960	-6655	32767	7041	-30304	6592	7676	-4690	22580	-2576	-17400	9624	21944	12371	-7830	7255	-18152	-1296	16872	-4727	4711	-8141	-12456	11908	-14576	-8219	10933	6804	-13984	604	-7100	-621	11949	4351	126	113	1
-32768	-15980	17280	-9027	32767	16690	-32768	-6268	-4364	-8038	22801	-5285	-15488	14824	644	-13687	-10291	10634	-14216	4388	15340	-3222	1606	-3085	-20532	-3404	-12380	-153	8516	6475	-22200	-696	-8224	5006	12790	6010	129	123	1
-31968	-13128	21172	-7057	32767	23619	-32644	-9124	-7316	-7640	22843	-5594	-27112	-672	-4900	-17404	-625	4712	-9760	2448	14884	-411	740	-508	-16648	-1084	-8376	12760	6314	4866	-16056	2988	-4976	9762	10151	6633	137	110	1
-27044	-13248	23500	-9062	32767	24971	-27460	1720	-1236	-1869	23813	-5747	-30672	2588	-14136	-15449	-4015	1604	-9016	3560	13956	-307	544	-331	-15096	6100	-6292	13338	4675	4991	-18008	5152	-3764	7978	10057	4155	136	117	1
-12288	-13708	23780	-13804	31471	20533	-21928	764	-5672	-6967	15370	-6229	-27212	7644	-6520	-14013	-13658	1248	-8292	3312	14192	285	795	-294	-17092	5476	-5380	4024	4493	4041	-16864	3768	-1712	5727	9653	2242	131	121	1
-30076	-20960	32767	-16523	-922	5648	-13268	64	-6816	-10228	10018	-1440	-24040	6604	-8932	-10905	-15333	1673	-8760	3068	14136	936	1422	-100	-16936	2348	-5160	-3536	4278	2825	-16444	2004	-288	1942	10764	2784	127	128	1
2392	-17280	20512	-9065	-20947	-2572	-14888	664	2848	-10474	5593	-5565	-24540	6244	-9204	-9039	-16713	1146	-9084	3676	14044	1000	1658	8	-16460	-52	-5356	-1196	3335	3223	-16268	1684	-660	1033	11012	2496	128	131	1
8632	-9424	11740	-2993	-21648	-5978	-8172	-2784	3008	-9427	-3707	-4603	-19540	5672	-9016	-9861	-15605	208	-9496	3748	13552	872	1334	353	-16160	1860	-5696	4129	2103	3576	-16496	1280	-2668	812	11782	905	126	131	1
6600	-4964	9152	-1778	-18667	-7177	-5196	-2300	1516	-4101	-11836	-4806	-16940	3068	-9624	-10225	-14540	-1242	-9564	3932	13508	817	1252	842	-16244	3616	-5128	5272	1540	3251	-16052	3408	-2444	-346	12678	1181	128	125	1
712	-4224	10928	-2106	-18952	-7259	-7780	-2436	-696	2337	-17871	-4143	-14992	1280	-9280	-6925	-14641	-3438	-9460	3624	13520	1071	1286	1254	-15696	3448	-4636	3223	1277	2828	-16400	1212	-2504	-1823	12762	1411	128	130	1
-3600	-4120	13376	-1308	-23539	-7281	-9168	4	-2572	4915	-23023	-3237	-15544	188	-9196	-5624	-17104	-4460	-9268	3904	13400	1231	1370	1460	-15128	2788	-4048	1959	1261	2594	-15288	488	-1504	-214	12707	800	128	127	1
-7492	-3236	15296	-959	-29453	-8318	-9880	2312	-3576	4408	-26921	-1503	-13228	-924	-8336	-781	-16849	-4386	-9212	4116	13268	1209	1350	1226	-15392	2484	-3432	3890	1282	2702	-15276	656	-1004	2739	12703	311	126	125	1
-10056	-1968	15972	-1648	-32768	-10278	-11272	3036	-3908	1973	-30294	711	-12412	-464	-9292	2666	-17456	-4114	-9180	4084	13360	946	1280	706	-15104	3036	-3336	5966	1339	2756	-14652	1720	-592	6271	12915	49	129	129	1
-10312	-1524	15852	-2944	-32768	-11934	-13384	3568	-3948	-86	-32768	2500	-10972	336	-9300	4490	-19066	-2743	-9300	4248	13300	851	1188	450	-15068	4504	-3524	5839	1760	2402	-14364	3308	-1452	7632	12929	458	127	132	1
-12612	-2952	16688	-2771	-32768	-12359	-16168	3408	-4660	-2430	-32768	3382	-9592	1668	-9764	6138	-19030	-2650	-9388	4192	13312	696	1117	207	-15448	4544	-3780	4885	2144	1901	-12736	1884	2124	6587	13484	2806	127	133	1
-15628	-3844	18244	-2287	-32768	-12155	-18972	2372	-5508	-4001	-32768	3201	-8896	2120	-10704	7760	-18784	-3500	-9624	4156	12960	432	963	-12	-15176	2888	-2940	5750	2565	1573	-12864	336	420	4507	14237	4816	127	134	1
-19252	-4920	20092	-1980	-32768	-12009	-20968	1376	-6520	-2986	-32768	3519	-6384	3000	-10412	6884	-15956	-5020	-9272	4028	12964	223	753	-287	-14288	2668	-528	7806	3615	1755	-18688	1636	228	4573	11711	2535	128	129	1
-21972	-4740	21480	-4094	-32768	-13199	-23612	2240	-6852	-1836	-32768	5152	-6360	2288	-9192	3260	-12591	-5088	-9032	4624	13192	-178	890	-848	-14508	5236	32	5690	5450	1630	-21676	7100	-1228	4816	6962	1766	125	128	1
-23848	-6084	23000	-7340	-32768	-14082	-28936	3256	-7028	-5340	-32768	5740	-6656	1204	-7232	924	-10201	-4305	-8880	4772	13260	-588	1117	-1807	-15664	4952	-1716	2286	7093	1365	-18080	6276	236	1441	5280	2204	128	128	1
-31192	-7972	26396	-7880	-32768	-14751	-32768	1344	-9696	-7814	-32768	4178	-9712	208	916	3714	-7563	-3546	-9164	4432	13376	-974	1394	-2859	-15912	3660	-3908	1725	7767	899	-14660	2904	-508	3624	9602	1952	127	130	1
-32768	-6812	25624	-6496	-32768	-15346	-32768	716	-13276	-7607	-32768	4252	-15404	2748	15252	6489	-10676	-217	-9292	4208	13560	-999	2318	-3670	-16264	2396	-3852	3560	8057	1063	-16020	1144	-2268	6353	11154	1283	128	131	1
-32768	-2440	13776	-4818	-32768	-14545	-28424	1888	-17436	-10934	-32768	3928	-13156	8184	19924	6239	-9063	-1004	-8928	3232	14436	-468	4478	-3514	-16624	1584	-2472	3757	9376	804	-18600	1452	-212	5245	8882	1389	129	129	1
-32768	2340	-14932	-3147	-32768	-6479	-28204	-2880	-17452	-8309	-32768	6504	-10484	17176	32767	5218	-9396	433	-9264	3296	14320	68	7438	-3055	-16580	1752	-1712	1708	11519	345	-18960	1344	696	4907	8229	1446	132	129	1
-32768	32767	-32768	-19692	-15512	3142	2992	-1560	-32768	-19606	-4941	-8808	-15640	12088	32767	3300	-780	3879	-9516	2844	14904	594	10552	-2531	-16296	3372	-2844	-821	14112	-77	-17176	3752	3904	2824	7013	1002	127	130	1
-32768	32767	-32768	-20480	-10210	4287	-8732	-9556	-30476	4843	14424	-1842	-17520	2244	18112	2318	-202	-8434	-9736	4368	15224	702	14961	-2513	-19620	4032	-2844	-1499	16380	-900	-20008	4868	1472	2179	7400	1044	142	130	1
-25516	12416	-1892	23982	16118	14190	-17744	-3656	-16080	23631	30735	514	-13476	3236	-1124	4687	11162	-14341	-9756	5920	15576	1414	20984	-4644	-21700	1220	-1884	2206	17816	-215	-23232	3732	4064	4563	4000	898	122	128	1
25920	-8900	32767	13679	20274	1906	-32768	32767	31228	32767	20379	3482	-15240	5812	-9036	2401	13674	-6539	-9152	4424	17516	1158	29855	-5831	-24588	380	-940	3925	20158	-478	-26172	3272	7912	4102	-364	1148	134	130	1
-23776	17808	2196	4292	32767	-1805	-26580	6400	-16948	9287	11049	-224	-32768	7152	24212	7842	-5411	-729	-8208	5208	17836	2339	32767	-6224	-29240	-4164	1936	2450	22943	-787	-28020	420	12880	-813	-9186	100	129	130	1
-31940	22044	32767	-1300	17641	8855	-30088	12952	-8984	18205	15692	-686	14268	15588	3108	21400	17297	3722	-9096	11772	18148	2283	32767	-9290	-32768	-8496	6220	7892	23918	194	-27564	-3508	21176	-3189	-19728	-3851	91	125	1
-7088	-20040	10812	-6616	19162	2706	-17032	5648	-396	3561	24026	-5069	-11900	15220	-15216	-3297	4106	-2317	-19024	14452	16232	2823	32767	-20624	-32768	1820	7672	19446	22980	1848	-25484	-10776	27564	-17666	-28286	-11313	122	122	1
-13440	-4144	13916	179	18034	4467	-15104	520	-1328	1874	23644	-5795	-14224	-10196	-8636	-18663	7045	2823	-32768	6188	15204	-87	32767	-31140	-25008	15372	-8888	10811	25318	3054	-15148	-5152	332	10449	-8616	-7868	120	126	1
-15496	-9960	10724	6502	8750	4916	-20816	-9068	-10144	-4009	12773	-6933	-18636	-8280	-9904	-6973	10629	-4540	-32768	16732	20860	-1900	32767	-32469	-27348	8572	-10740	7476	23614	2044	-30324	11776	-5036	16374	-16324	-3936	133	130	1
-13824	-376	13628	4480	2481	3608	-23220	-6576	-8984	-2144	13327	-6351	-21556	-2104	-6360	-6096	10654	-5842	-26856	15184	26432	485	32767	-28147	-21884	4036	-9280	2028	20164	1257	-28560	10060	-13796	7527	-12700	-1598	136	128	1
-9772	-2924	13764	3321	2014	1963	-17976	-852	-4264	-7039	9620	-2767	-16096	-1228	-2668	-1237	11184	-3049	-32372	4760	26836	15955	19293	-17000	-15544	6824	-13616	-5312	16747	-483	-25860	2652	-6160	-3728	-22085	2483	129	124	1
-8644	-2844	13932	1511	1769	626	-16676	-1084	-3400	667	7432	-2317	-17704	3576	-2948	2000	11523	-1020	-18608	24296	28644	13958	-14526	-4504	-15068	2116	-9096	4252	9291	-988	-23580	948	-6704	-3706	-20816	1944	121	133	1
-9224	-2300	13632	547	1946	-249	-19012	1692	-3096	3975	5671	-2336	-16392	3352	-1732	2451	11840	-1421	-1092	15704	14768	4034	-25094	284	-11440	808	-4564	11355	972	-1308	-24536	1876	-7016	-1617	-20240	-307	113	157	1
-9092	-3168	13516	-304	2188	-1319	-18116	1804	-3188	195	5319	-2618	-16700	3360	-1924	2241	11877	-1497	5868	9860	7500	-2640	-23578	1608	-7612	4844	-4232	9035	-5428	-1219	-21040	4308	-7372	738	-18577	-126	113	142	1
-9480	-4128	12596	-470	2093	-1784	-17152	-1160	-2788	-4035	4783	-2346	-17024	-1148	-2376	-1861	13709	-1715	4560	6876	5620	-4617	-18554	2502	-4768	5148	-4840	-1276	-11179	-1749	-17908	3632	-8392	83	-16618	1019	127	135	1
-9184	-4520	12360	-169	1745	-1418	-16796	-2584	-2156	-4816	4330	-1436	-16268	-1892	-1720	-447	14107	-2235	-408	8572	7288	-4095	-17024	3962	-4616	4420	-5984	-7279	-16272	-3538	-15332	2576	-9920	-1022	-16110	1985	131	135	1
-9308	-3700	12496	-176	1583	-1182	-16656	-2552	-2180	-4525	4247	-1321	-16008	1100	-892	1302	14389	-2517	-4892	10260	9832	-4321	-20409	5880	-5284	4068	-7212	-8986	-20897	-3745	-14884	3692	-10132	-3157	-16863	3129	129	133	1
-8960	-3728	12564	-363	1529	-980	-16448	-276	-1636	-2171	3426	-819	-15576	2808	-76	-1316	14028	-2359	-10280	10396	12492	-3708	-27615	9934	-5336	3880	-8368	-9812	-25123	-4358	-12216	3024	-8904	-5524	-16028	3019	124	132	1
-9124	-3864	12468	-362	1429	-517	-16496	-152	-1636	-3389	3513	-1106	-15360	1676	-288	-5719	14172	-1667	-11544	8952	12464	-924	-32768	15471	-7056	2808	-8084	-9358	-29143	-5077	-11748	3092	-9304	-7813	-14109	2283	136	134	1
-9196	-4040	12312	-363	1215	-188	-16444	-1300	-1252	-4605	4167	-1027	-14696	-532	188	-8538	13682	-1263	-12240	8684	11428	1988	-32768	19479	-9440	1544	-8256	-7530	-32768	-5265	-9304	1220	-10264	-10145	-12096	815	127	133	1
-9280	-3864	12276	-146	936	125	-16152	-1264	-1460	-4587	4639	-798	-13256	-836	1500	-9517	13273	-1267	-14552	8608	12168	3063	-32768	21003	-10280	2008	-8528	-4827	-32768	-4888	-10576	-1624	-7252	-10428	-7489	-108	128	129	1
-9108	-3884	12324	32	804	361	-16080	-1096	-960	-4802	5259	-668	-12780	32	3820	-6224	13240	-215	-17836	8036	14424	4506	-32768	21571	-12548	3552	-9444	-4476	-32768	-4175	-6504	-536	-10912	-12564	-4690	135	127	131	1
-8864	-4232	12148	329	844	940	-16672	-1428	-1228	-4016	5743	-557	-13744	780	2272	-1836	12989	-2795	-21792	8544	16736	7404	-32768	22159	-15468	5108	-10364	-6108	-32768	-3885	-5660	188	-11788	-13004	-1640	964	133	128	1
-9356	-3764	12480	415	898	1250	-16300	312	-1128	-3501	6466	-478	-19784	3444	104	-4607	13300	-2373	-26812	9752	20108	9768	-32768	23249	-19536	6004	-11648	-7777	-32768	-4462	-4448	808	-10940	-11876	2881	1335	123	128	1
-9072	-3412	13008	254	1238	1274	-15700	460	-1080	-3275	7336	-851	-21372	1016	-32	-4078	7975	258	-30236	12432	24264	9177	-32768	24455	-26380	7736	-15208	-8323	-32768	-6054	-7560	1244	-6680	-10328	421	1963	122	129	1
-9260	-3096	12684	-131	1750	951	-15896	-52	-1588	-1778	8249	-679	-16752	-176	2248	-2518	7522	237	-32768	16460	25652	4624	-32768	27065	-28988	6096	-17352	-8530	-32768	-7214	-13072	2060	-1748	-8235	-6302	2610	133	129	1
-8984	-3556	13108	-528	2519	999	-17032	-648	-1736	-1292	8633	-459	-15484	448	2860	-2577	10914	-222	-32768	9476	12872	519	-32768	32396	-22260	4996	-20792	-3658	-32768	-5624	-18500	2268	4760	-10251	-9845	3661	128	123	1
-8852	-3916	13132	-743	3816	1503	-17500	-272	-976	-1664	10147	-161	-18484	1552	2928	-3180	12050	-340	-32768	-1852	-11296	4732	-32768	26643	-20816	2564	-20888	-3079	-32768	3162	-22144	-9780	20676	-11801	-12859	6048	127	123	1
-8992	-2904	13548	-1259	5788	1742	-16628	628	-696	-573	11693	-124	-17332	1588	5476	-2047	9673	-359	-32768	-32768	-32216	32767	-18233	15006	-3920	1024	-21912	10105	-18486	10722	-21272	-21748	32767	2859	506	4402	126	113	1
-9408	-2060	14248	-1922	8606	965	-17204	500	-1844	3276	13251	748	-17052	-252	6432	737	9986	-122	-32768	-27476	-26188	21172	-1082	1664	4772	15940	-21068	20620	5919	8863	-25584	-3868	24940	9208	-2576	-936	128	114	1
-9044	-4164	15324	-2547	12845	306	-20912	-652	-756	6042	14643	1714	-21200	16	5564	2332	8255	105	-32768	-19800	-10892	-16874	9279	-15695	-8256	13192	-23312	-1850	22295	3623	-14708	11040	1340	19549	-8360	4872	126	129	1
