#Activity	walking 
#ActivityID	1 
#Date 08-22-18-36
acc_rf_x	acc_rf_y	acc_rf_z	gyro_rf_x	gyro_rf_y	gyro_rf_z	acc_rs_x	acc_rs_y	acc_rs_z	gyro_rs_x	gyro_rs_y	gyro_rs_z	acc_rt_x	acc_rt_y	acc_rt_z	gyro_rt_x	gyro_rt_y	gyro_rt_z	acc_lf_x	acc_lf_y	acc_lf_z	gyro_lf_x	gyro_lf_y	gyro_lf_z	acc_ls_x	acc_ls_y	acc_ls_z	gyro_ls_x	gyro_ls_y	gyro_ls_z	acc_lt_x	acc_lt_y	acc_lt_z	gyro_lt_x	gyro_lt_y	gyro_lt_z	EMG_r	EMG_l	act
-10984	-7816	16136	1002	-17	572	-13128	-712	-14648	1774	1880	-946	-4512	8384	-9448	-2555	1462	212	-21504	32767	32767	706	5651	-4411	-24144	9008	-10976	474	3994	-950	-28048	9248	-17120	3094	-1395	270	127	129	1
-9584	-4964	15672	545	-119	240	-24664	6344	-12320	-1663	1526	-296	-20160	-1640	-14192	-3905	1421	-542	-18640	32767	32767	1447	3201	-3658	-19248	976	-20464	-2378	2915	-1353	-29176	8744	-5120	1040	-2857	1036	123	135	1
-7780	-8132	12512	284	-43	90	-17640	-1464	-6904	-4692	768	-283	-23432	-4824	-7144	-2852	1768	-1226	10512	27640	28120	-1604	-1914	-845	-23256	0	-528	-1400	1443	-670	-32768	2568	-4968	-1222	-3526	643	123	132	1
-6876	-7240	12636	175	3	100	-15808	-5632	-6104	-4742	450	-578	-15608	-4216	-3616	-1768	1760	187	9272	13280	17616	-1273	-3093	-1226	-18344	-4864	-3072	43	-171	173	-26824	-448	-4928	-1737	-3501	887	119	134	1
-6916	-7512	12648	28	95	75	-15768	-13616	-2944	-2098	448	-384	-17184	-4320	-4920	-1314	1554	1026	8280	18568	14616	-1172	-4119	-389	-12056	-1448	-4584	781	-1142	238	-23864	-2328	-4136	-624	-3328	1274	125	131	1
-7564	-7388	12344	-46	125	62	-12800	-12584	-4432	1968	861	-116	-15400	-7032	-5168	-103	1420	1444	7328	13080	12360	-1594	-4341	928	-10856	-5240	-4712	1369	-1995	253	-21464	440	-5256	960	-3219	1288	66	130	1
-7168	-7860	11520	38	150	61	-15120	-7192	-4552	3785	1041	298	-12656	-4312	-2168	666	1374	1228	4288	9216	12120	-779	-4273	2044	-12440	-4136	-6024	1930	-2954	352	-20192	2616	-6704	1235	-2968	1466	139	129	1
-7684	-8088	11724	147	146	99	-17928	3712	-2712	2565	819	212	-15232	-1096	-2024	892	1460	892	2256	10088	12824	-195	-4133	2833	-12536	-3240	-6824	1949	-3117	359	-18048	3080	-8184	417	-2744	1273	128	128	1
-7516	-7188	12296	158	123	116	-16504	3632	-2528	-699	420	-179	-17688	1504	-576	715	1504	714	-2136	10216	15952	-10	-4272	3283	-9568	-128	-8432	1287	-4739	609	-16104	2160	-9408	-604	-2632	839	122	129	1
-7456	-7276	12080	86	168	132	-15232	-3232	-1440	-2197	298	-338	-15832	1952	864	441	1596	786	-4600	10712	16928	265	-4886	3325	-9704	1312	-7280	850	-5256	911	-12552	264	-9976	-1017	-2321	523	122	127	1
-7712	-7408	12180	78	151	162	-15056	-7528	-1240	-1841	417	-229	-14104	-1416	640	6	1908	974	-6496	13312	18056	280	-5480	3152	-11432	1032	-8520	202	-5686	957	-9648	-1040	-10104	-880	-2181	401	123	131	1
-7732	-7396	12164	62	149	182	-14368	-8064	-1120	-702	574	-104	-15008	-5408	1704	-518	2175	1010	-9024	14456	19064	413	-5834	3055	-13720	-264	-8888	-110	-6209	1069	-6824	-840	-9968	-831	-1708	364	124	132	1
-7376	-7480	12564	71	146	194	-14664	-6456	-2072	216	776	-70	-16240	-6440	1256	-578	2421	960	-10712	18496	17712	593	-5811	3040	-16032	-2440	-8672	-207	-6512	1110	-4608	-1616	-9512	-1385	-1484	268	123	130	1
-7648	-7472	12380	44	140	230	-16064	-4008	-1480	369	931	-18	-18792	-3640	-3048	-277	2290	614	-12168	23792	19032	343	-5051	3260	-17592	-2704	-12584	-256	-6617	1208	-3128	-3856	-8720	-2128	-1449	6	122	132	1
-7708	-7732	12540	5	177	347	-16712	-2824	-2688	-221	947	-51	-19680	840	-2992	-14	1596	332	-18920	25288	24112	552	-4234	4400	-21880	-784	-17256	-716	-6720	1247	-3224	-4088	-5712	-2614	-1391	-203	124	130	1
-7436	-7684	12768	108	369	531	-16864	-4144	-1744	-836	912	-109	-19416	1160	-2632	-10	1527	297	-28688	23176	24864	1150	-3316	5625	-25960	1448	-18832	-1213	-6550	1042	-3848	1264	728	-2401	-1290	-86	127	128	1
-8424	-7276	12648	83	508	622	-15688	-5584	-696	-1047	1040	-3	-17216	-4744	552	-1014	1312	245	-32768	20232	22168	1370	-2599	5543	-25224	3824	-21752	-1701	-5755	518	-7880	9048	8896	-1796	-817	627	135	128	1
-8280	-7364	13108	103	716	743	-15392	-6536	-1048	-817	1286	62	-16784	-5248	256	-1250	1109	188	-32768	20192	12832	-115	-2116	4555	-19496	7168	-21712	-2306	-4265	33	-20056	6328	19160	-1187	372	988	133	129	1
-9252	-7432	13732	245	966	882	-17512	-5224	-2400	-628	1537	120	-17256	-3944	-8	-1171	1055	80	-32768	-936	4008	-194	-1570	2475	-15336	6720	-24688	-3249	-2764	-181	-20992	5736	28832	30	201	20	116	129	1
-8480	-6936	14212	306	1319	969	-18872	-2360	-3680	-719	1748	204	-18216	-3296	-600	-1068	1065	160	-32768	2424	-3736	1011	-1525	206	-10888	-2576	-26296	-1154	-864	129	-22384	5584	24320	-520	200	180	117	127	1
-8656	-6384	15016	304	1841	1002	-19360	-2968	-3312	-812	1909	348	-17856	-3432	-1184	-1008	985	354	-32768	1440	-2048	396	-219	-1295	-3256	184	-20128	1695	1326	729	-17344	4264	16264	72	-137	-222	119	128	1
-8764	-7264	14816	240	2406	1147	-19344	-4584	-2584	-598	2098	475	-19152	-3904	-248	-734	712	476	-32768	8232	2936	-256	889	-1974	-9312	1384	-20448	2948	3074	444	-12640	3672	5776	714	7	-8	112	127	1
-9208	-8488	13932	141	2837	1479	-19296	-4264	-1344	-455	2329	520	-19624	-4720	2888	-644	395	555	-23600	16520	6992	-467	1295	-2079	-17224	7192	-17728	3026	3883	355	9504	-1904	-2144	2144	1158	-384	128	127	1
-9772	-9332	13568	22	3268	1953	-19416	-3088	-88	-726	2557	504	-19152	-4656	6056	-636	-53	490	-872	6720	9840	-268	1324	-1688	-13680	3552	-13272	972	3095	110	7696	-6200	-32768	4192	4512	-1397	109	127	1
-9980	-9212	12804	-84	3748	2562	-20592	-1504	1248	-1242	2769	450	-19312	-3248	9712	-502	-922	358	32767	5920	17304	-383	4488	-1515	-32768	-15664	32767	8566	-1040	-1561	-32768	19048	1448	1467	1000	-469	121	123	1
-8312	-9288	15844	-322	4556	3356	-24744	-2704	32	-1925	2842	450	-19400	-7936	17256	-1239	-2388	30	-32768	32767	32767	-1040	3710	-2901	-10720	32767	-32768	-4355	1041	1801	-32768	28192	32767	-3969	376	4322	139	126	1
-20220	-15288	13248	84	5434	4274	-30376	-3496	4760	-3040	2660	561	-16024	-3840	5064	-1697	-1167	171	-7560	14664	19840	-710	1983	-1478	-32768	-6328	-10800	-7459	4543	-1001	-29424	-17736	-2888	-3969	3034	-1921	102	126	1
-30244	-13280	22352	1824	4918	4861	-29560	-5536	5504	-3280	2653	561	-26792	-6048	4144	-1500	-1481	210	-2576	1864	18016	115	1876	-1043	-22056	-11120	-8304	-4154	2890	-759	-18864	-18520	-9888	-2434	953	836	124	126	1
-20032	-16164	23776	976	4702	4335	-24408	-15152	1128	-2424	3401	1099	-22016	-8944	-9240	-648	-919	-719	-12040	25760	9056	-593	41	-767	-1872	5184	-17504	-243	1668	734	3016	-32	-432	2098	1183	-40	114	128	1
-16692	-29664	23892	694	3798	4179	-22096	-9688	-13672	771	3401	1164	-28488	-3144	-9552	855	-1648	-1094	-5768	2880	18224	-395	89	-398	-13168	6384	-13344	25	1313	909	-11352	12776	-13952	3887	1944	-294	135	129	1
-26756	-32768	32767	557	-257	1323	-21120	-5680	-15000	2555	2527	800	-27720	1864	-6320	1444	-2501	-1260	-2800	9424	13392	-284	72	-174	-31320	-3344	-9416	1278	904	545	-29904	11984	-11496	2100	2225	778	131	130	1
3164	-21912	17488	1620	-1697	315	-23280	1712	-296	426	297	211	-30928	2536	-8360	1676	-2754	-1589	-3080	10560	12920	-211	56	-148	-17672	-3080	-7760	3073	1020	227	-17872	4104	-2744	118	1573	36	128	125	1
1664	-14624	14348	132	-1608	-597	-16728	-3168	-6472	734	-63	355	-26184	4224	-6248	987	-2646	-1743	-3176	8944	14136	-50	89	-132	-14320	1616	-4104	3488	812	408	-15456	592	336	-342	1612	-233	128	131	1
412	-18832	12748	-66	-1985	-1671	-12016	-1424	-6104	734	-1018	92	-23096	5048	-5376	208	-2427	-1698	-2624	8872	13600	164	113	-144	-16624	4888	-2272	1452	359	666	-16280	-1592	-536	-93	1660	-1070	132	131	1
-724	-11932	13732	-225	-2375	-2453	-9672	2736	-5192	125	-2036	-337	-20800	1720	-4808	-322	-2363	-1625	-2912	9472	13200	232	107	-173	-14288	4296	-2896	-555	440	496	-14504	752	-768	819	1560	-1147	127	133	1
-4656	-7760	15028	-1209	-2782	-3034	-10248	-160	-6552	-15	-2882	-301	-17760	-192	-4168	113	-2422	-1752	-3104	10768	12368	175	137	-214	-17216	6064	-3672	-1777	706	-81	-14200	4192	-1696	1014	1790	-996	149	131	1
-6044	-7484	13828	-1427	-3354	-3205	-10288	1184	-5640	279	-3475	-434	-14984	1328	-4760	1040	-2294	-1550	-3080	10688	12200	-67	118	-244	-17800	144	-3720	-1748	345	-57	-15824	5712	-2240	308	1983	-522	125	132	1
-6424	-5140	13324	-1217	-3691	-3054	-10728	2032	-5920	523	-4018	-594	-13168	3808	-5816	1505	-2139	-1259	-3720	10392	12352	-159	121	-237	-16032	-3464	-4040	-253	241	205	-14984	3008	-192	-463	1967	-549	115	132	1
-8444	-6236	14760	-1237	-3957	-2921	-11424	1600	-7264	824	-4418	-739	-11744	5704	-6808	1392	-2131	-989	-3976	9384	12856	-106	132	-183	-14160	424	-3424	1086	352	422	-13512	2064	1664	-802	2295	-623	111	131	1
-10380	-7744	16344	-1284	-4233	-3027	-12648	1192	-8760	1010	-4890	-703	-10320	6168	-7224	833	-2064	-760	-3952	9936	12968	-82	120	-145	-15536	5064	-1760	1109	511	349	-13296	4736	4256	28	2706	-563	135	131	1
-11860	-8212	16836	-1424	-4347	-3189	-13280	1136	-8400	1118	-5409	-735	-8904	4488	-8040	759	-1853	-626	-3904	10008	12400	-110	128	-152	-15984	7552	312	175	586	55	-16936	7624	1792	405	2758	-634	112	131	1
-14220	-10284	17740	-1430	-4284	-3369	-14136	1688	-9296	1321	-5745	-838	-7432	3496	-8192	992	-1568	-500	-3320	10752	12856	-199	108	-173	-15096	5016	2312	-404	853	-70	-21104	6952	392	-125	2026	-315	122	131	1
-16808	-12024	19092	-1379	-4037	-3633	-16880	1352	-10680	1415	-6052	-873	-4896	4696	-8920	1276	-1282	-284	-3696	10336	13224	-245	118	-237	-15800	2008	-920	-598	1164	-3	-18128	5984	2008	-385	1338	-84	128	131	1
-21988	-13936	21360	-1254	-3669	-4151	-19496	-1592	-14456	1838	-6379	-752	-2888	5880	-8512	1136	-1067	57	-3416	10032	13424	-241	115	-246	-17656	1288	-2976	-204	1386	35	-16304	5976	2328	127	1596	-147	123	130	1
-30200	-10732	20848	-1146	-3146	-4568	-22288	-4296	-15760	2126	-6374	-594	-4016	3448	-1920	1164	-957	209	-3592	10608	14008	0	242	-420	-18200	1968	-2216	253	1448	28	-16064	2736	576	198	1754	-166	121	133	1
-32768	-4620	18304	-1230	-2469	-4508	-26400	-7328	-19224	2041	-5831	-203	-10832	-6928	6160	709	-1013	-668	-1672	11816	13592	39	452	-654	-16680	3000	-2200	497	1617	35	-16472	240	1264	360	1382	-126	117	135	1
-32768	-2276	11704	-901	-2538	-4144	-21536	-4184	-23400	1374	-4437	-203	-20712	-7976	12240	252	-719	-1751	-4816	9960	15936	261	914	-794	-16552	3032	-1704	516	1649	24	-17600	360	3008	1088	1270	-2	152	137	1
-32768	13576	-3680	-334	-2900	-2891	-12784	-5200	-22944	422	-3056	-517	-24392	-2480	21776	195	-366	-844	-3616	10656	15960	206	1317	-1049	-17696	2432	-3768	519	1923	-42	-18848	504	968	2108	1230	172	129	135	1
-32768	30184	-13260	-2169	-1586	-444	-11760	-1248	-22336	-812	-1368	-839	-21152	-6312	18192	-1277	102	-5	-3832	9616	16680	277	1857	-1212	-20584	-296	-5352	841	2266	-172	-18552	6256	-2032	2469	1139	76	120	134	1
-32768	19516	-9068	-1567	-706	1576	-8344	-1560	-22568	-2513	395	-663	-15936	-8424	12536	-1698	64	610	-4024	9552	16744	472	2429	-1388	-20760	736	-4864	672	2533	-401	-17848	11368	-1192	1568	769	-170	127	131	1
-32768	18216	-8240	-1195	-655	1798	-6512	-2672	-22872	-3053	2193	-235	-16232	-8128	12008	-1699	134	-27	-3680	10608	15504	784	2970	-1682	-19824	1824	-2512	330	2738	-516	-17176	10136	4056	402	331	-405	128	125	1
13528	-32768	7912	6675	2095	4003	-12896	-17432	-3432	-4072	3272	-48	6888	-568	-9520	-2596	2123	117	-3184	10312	16800	1262	3449	-2182	-21528	-440	-1296	126	3022	-584	-20616	9552	11728	-147	-815	-375	125	134	1
26772	18460	11884	1465	4558	2381	-32768	832	2848	2835	2211	-469	-31504	-17920	64	-2121	1671	856	-1464	15792	17752	1531	4417	-2842	-32768	-2408	5488	822	3432	-865	-23816	9880	17928	628	-1984	239	125	133	1
-32768	-1608	32767	1133	3819	1791	-7712	-21800	-8488	7217	3513	857	-31568	-12736	15336	3953	722	-754	-5072	18840	21312	1359	5435	-4006	-32584	-7088	5072	1646	3578	-801	-22152	-4464	21008	-200	-2414	-181	123	136	1
-32768	-32768	14516	1217	-576	254	-19576	3744	-22552	2505	4129	739	-21288	11120	-13592	4596	1732	611	-14000	24968	24920	789	6333	-5017	-32768	4632	2712	2262	3877	-733	-21608	-4368	10288	106	-1728	-1108	91	130	1
-5340	7420	17512	867	108	649	-22808	-7184	-13256	2916	2482	-1185	-14224	11488	-20000	1865	1802	-114	-13288	22864	22440	-761	6675	-5531	-30632	10384	1944	1240	3694	-1039	-25048	5320	-5520	1852	-1415	-630	133	128	1
-9820	-7884	14044	593	65	218	-10936	2384	-13320	1752	1795	-328	-8480	5248	-9768	-1430	2183	453	-18192	27800	30952	-206	5779	-4719	-22488	6616	-16312	-690	4184	-837	-28104	12464	-11984	2201	-1505	246	123	124	1
-10216	-6832	14740	533	50	186	-12712	944	-10176	-918	1123	-411	-18544	-13080	-13152	-1329	2158	-22	-32768	32767	32767	594	1552	-3074	-17912	272	-26168	-2790	3095	-1281	-31816	4912	-8680	410	-2304	808	129	127	1
-7904	-7604	12956	152	28	-1	-24136	-4096	-6696	-2005	823	-196	-19672	-376	-5504	990	1849	-307	8544	21112	20720	-2413	-1727	-1583	-25312	-1032	-1952	-132	1543	-806	-32768	1176	-9232	-1499	-3421	618	124	125	1
-7280	-6032	13432	-3	80	10	-17960	-760	-4472	-2399	558	-631	-19440	7408	376	1127	1819	-58	4776	10936	14784	-1580	-2175	-1528	-15744	-2720	-8440	134	-10	-334	-27640	1560	-8872	-1856	-3290	1276	121	129	1
-6672	-5560	13824	-237	192	4	-14480	-6488	-2936	-1460	385	-725	-16800	7008	-640	-705	1636	983	8816	19504	9656	-1545	-2559	-162	-8928	-208	-6872	960	-771	-518	-25008	1392	-6664	-870	-3260	1959	119	128	1
-7368	-7428	12508	-387	254	-1	-13288	-10936	-3328	-145	477	-509	-15400	-3496	-5320	-2059	1727	1314	6752	11416	7952	-1830	-2473	1273	-10080	-976	-6128	1518	-1544	-518	-20976	1168	-6336	497	-2952	2024	119	129	1
-7216	-8540	11736	-380	256	20	-15544	-10760	-2368	1173	654	-83	-14256	-9312	-4864	-2034	1643	779	3024	11240	9128	-758	-2520	2385	-11136	3640	-7896	1052	-2742	-385	-19696	3480	-7288	691	-2653	2129	123	129	1
-7280	-9320	11000	-198	198	97	-17088	-2248	-1760	487	562	-86	-14648	-6912	-3928	-1116	1676	344	-552	14704	10752	-557	-2898	3112	-8240	4736	-8096	78	-3597	-382	-17512	4664	-7432	-213	-2554	2052	127	129	1
-7108	-7528	12432	-94	177	151	-15912	80	-1824	-1382	226	-268	-16504	-960	912	-693	1689	382	-2848	13296	11120	-663	-3562	3346	-7152	4368	-7368	-598	-4213	-145	-15120	3912	-7544	-1337	-2233	1613	127	127	1
-7484	-7276	12272	-126	223	144	-14184	-5064	-1048	-2229	171	-353	-14352	-1120	1584	-524	1956	672	-5112	12696	11144	-385	-4224	3191	-9056	4296	-7512	-1173	-4667	39	-13352	2984	-8256	-2350	-2134	1241	138	127	1
-7736	-7848	12048	-120	218	153	-14416	-9392	600	-1580	434	-216	-14560	-6696	3384	-1019	2310	705	-6992	15984	11472	-145	-4786	3057	-10384	2080	-8888	-1189	-5133	123	-10920	1232	-9128	-2803	-1898	995	128	127	1
-7768	-7940	11628	-46	171	176	-13032	-8768	160	-427	777	-72	-14808	-9816	1496	-1109	2332	477	-8264	17368	12792	-34	-5128	3232	-11080	1416	-10992	-1078	-5628	302	-9536	-752	-9280	-2982	-1664	759	121	127	1
-7748	-8140	11368	54	98	211	-12640	-6632	136	53	1068	-35	-16648	-9872	-3120	-518	1810	380	-10000	17352	13456	442	-5235	3464	-12616	648	-10304	-562	-5979	385	-8176	-2312	-9704	-3098	-1457	484	123	127	1
-7660	-7800	11972	110	41	296	-15040	-5504	-2992	224	1190	-62	-17832	-4432	-3600	-94	1405	375	-11272	21504	14792	718	-5103	3725	-13424	104	-11192	-89	-6258	637	-6448	-4360	-10576	-3242	-1350	258	125	127	1
-7616	-7444	12744	57	139	395	-17488	-4032	-3784	-73	1168	-99	-17088	-232	-3736	51	1390	376	-12624	23504	17760	976	-4788	4159	-16184	904	-12864	116	-6534	924	-4304	-7080	-9984	-2653	-1157	5	127	127	1
-6620	-8164	12844	-46	350	508	-17656	-3504	-3968	-561	1095	-106	-16504	664	-3640	-225	1498	398	-16696	30296	20536	962	-4293	4675	-22536	1816	-14880	43	-6763	1376	-5864	-9608	-5496	-2032	-968	-255	128	126	1
-7856	-7128	13456	-119	639	584	-16920	-3816	-3776	-970	1057	-121	-16864	-160	-2752	-427	1392	396	-27016	19752	25376	1722	-3706	5325	-25128	5456	-17096	-680	-6811	1684	-7176	-4592	2488	-1227	-918	-113	129	127	1
-7928	-8376	13304	-271	965	694	-17408	-4824	-1536	-1125	1132	-92	-19016	-1672	-712	-706	1211	331	-32768	22440	24328	2483	-3241	4945	-26328	6080	-21312	-1203	-5936	1284	-9168	5592	8672	-357	-419	822	112	126	1
-8188	-8196	13132	-235	1264	782	-16552	-6144	-1224	-1018	1353	-54	-17920	-3984	2272	-1184	1172	163	-32768	15504	19304	1135	-3097	3693	-22608	5480	-22032	-1535	-4546	880	-19632	5408	15288	283	423	1764	163	125	1
-9164	-8356	13356	-110	1590	911	-16904	-6568	-1232	-829	1650	16	-16648	-5256	2368	-1402	1265	9	-32768	1968	6768	561	-2605	1972	-15040	952	-25544	-1714	-2658	572	-22384	2944	28728	2074	-54	1061	108	125	1
-8660	-7736	13864	-43	2007	1094	-18784	-4208	-1600	-801	1925	74	-17624	-5344	1456	-1212	1225	86	-32768	-7064	184	1575	-1822	-101	-10792	-4008	-27832	758	-1155	899	-18912	12352	22976	2691	429	689	116	125	1
-8428	-6680	14316	-87	2556	1231	-18800	-2800	-1448	-871	2186	191	-18224	-5400	1504	-870	1038	319	-32768	-2256	712	863	-488	-1421	-2656	-1712	-23320	2637	1135	1101	-14056	11376	14504	2290	203	576	120	125	1
-8756	-7096	13876	-259	3171	1381	-18456	-2696	-1024	-752	2510	323	-18064	-4152	3648	-608	635	427	-32768	1632	6336	-338	1030	-1820	-7016	-1256	-22560	2892	3181	394	-12568	9712	5760	1546	318	403	122	125	1
-9008	-7120	13352	-441	3778	1634	-18480	-2440	536	-615	2812	351	-18320	-3816	6944	-522	47	457	-22608	13624	9328	-519	1539	-1547	-13800	-1896	-16576	2424	4146	-180	15432	4856	-17832	1564	3717	-1079	123	125	1
-9420	-6636	12568	-938	4660	2070	-21256	96	1600	-769	3172	340	-20352	-3328	12504	-425	-1151	300	32767	32767	20064	-1522	2218	-1476	-32768	24152	32767	1159	-752	-1097	-31552	32767	-5400	1664	1715	-651	126	124	1
-5632	-11292	15916	-1351	6161	2672	-31496	1640	8936	-2282	3227	386	-18896	-1424	15008	-1122	-2513	-130	-32768	29192	32767	-1153	3333	-2385	-4264	6480	-23648	-9353	-197	124	-29064	10624	23632	-7765	638	1281	133	125	1
-29332	-14212	18216	-1078	6884	3586	-32024	-1344	664	-3683	3234	401	-23720	4104	12672	-1492	-2087	581	-9136	16880	19304	-542	2482	-1417	-30280	-8808	-14280	-7949	4740	-2323	-30520	-25880	-14704	-6173	2376	-1721	119	127	1
-29384	-19432	22284	387	6461	4652	-28896	-15344	2552	-4031	3247	429	-28512	-3576	-3624	-2763	-1240	315	-10080	4456	21080	-1032	857	-1074	-17096	-1872	-12640	-4764	3175	142	-10168	-21528	-8160	-1048	-340	1100	126	131	1
-24564	-18652	24272	-665	6489	4087	-26512	-10336	-10344	-1317	3688	853	-29120	-8144	-13552	-2128	-1159	-681	-7240	11712	16240	-811	319	-459	-3320	-2080	-18784	-323	1792	1125	-5072	520	-11224	3738	1799	-193	125	131	1
-11976	-32768	15752	-2229	4122	2908	-21888	-4120	-18528	1235	3278	1254	-31032	928	-9128	156	-2989	-1062	-5800	11320	14712	-380	127	-216	-22568	-4712	-15024	3087	1554	1038	-22888	12240	-16608	5356	2724	1002	128	127	1
-11808	-32768	31864	1462	-1285	804	-22776	-5680	-5208	223	1807	333	-32576	1168	-6208	1225	-3412	-1141	-2784	11192	13096	-219	76	-74	-24344	4656	-7696	4897	1178	692	-22160	12320	-8000	2903	1674	1015	123	128	1
1004	-12284	18596	220	-2301	650	-20136	-3576	-5192	481	282	-26	-31744	1032	-8632	1103	-3452	-1525	-3240	9592	13800	-113	70	-82	-16840	5776	-5760	4292	595	630	-15144	8984	-2912	804	1484	-128	132	127	1
-1020	-19104	14876	-35	-3188	99	-13296	-5368	-7872	913	-592	150	-27464	3032	-7344	140	-3226	-1689	-2656	9152	14072	28	86	-78	-15496	10208	-2888	1513	752	495	-15728	7216	-2128	-140	1601	-972	133	132	1
160	-14768	12204	663	-3829	-568	-9112	-776	-6600	833	-1537	-72	-23192	-8	-7680	-650	-3035	-1656	-2296	9312	13136	76	59	-109	-14192	5584	-2272	-1210	470	289	-14520	2352	432	-437	1551	-1411	125	131	1
-948	-10560	11080	177	-3954	-1224	-10936	-328	-6552	208	-2568	119	-19872	-2664	-7272	-360	-2912	-1920	-2328	9224	13400	39	36	-182	-15128	4304	-3464	-2141	715	-104	-13664	1984	1544	-416	1538	-1096	135	129	1
-5100	-11964	11572	-157	-4151	-1870	-9496	-1000	-8520	12	-3554	121	-17528	-448	-7352	475	-2677	-1943	-2048	10640	12312	-87	72	-242	-18240	1072	-3000	-2250	670	-306	-13536	2168	1400	-377	1561	-1011	129	130	1
-7424	-9780	12152	-344	-4524	-2513	-8280	1232	-7712	-172	-4235	36	-15080	1992	-8064	1129	-2390	-1578	-3064	10000	13080	-217	99	-247	-17992	-2800	-3232	-528	362	227	-16040	3160	1040	274	1997	-211	115	131	1
-7820	-8772	12152	-706	-4630	-2992	-9456	392	-7456	-174	-4774	-36	-12136	3224	-9216	1237	-2151	-1248	-3480	9448	13208	-165	131	-209	-14912	-1656	-3936	1217	471	413	-14120	1536	1704	-15	1829	-370	119	129	1
-10592	-10364	13760	-728	-4731	-3390	-10488	232	-8544	-6	-5312	-162	-10424	4184	-10160	1005	-1983	-1021	-3584	9768	12920	-132	141	-160	-14656	4008	-1904	1913	638	375	-13072	4936	2000	-39	2115	-649	141	130	1
-12464	-9996	15336	-780	-4839	-3737	-11184	360	-9520	267	-5862	-256	-8736	3864	-10248	1044	-1843	-755	-3952	9584	13144	-180	148	-151	-15952	8304	-2336	818	680	225	-15216	9240	1440	741	2694	-824	121	131	1
-14484	-10536	16580	-935	-4829	-3923	-11256	72	-9616	297	-5943	-279	-5896	3816	-9656	1554	-1602	-457	-3176	9952	13008	-220	153	-189	-16400	6680	-2056	-680	705	-50	-17456	8248	-3376	752	2768	-1044	121	131	1
-18160	-14048	17572	-762	-4775	-3973	-14224	-352	-9912	1461	-6530	-565	-3072	5880	-9968	2090	-1383	-118	-3472	9792	13944	-257	187	-285	-16408	2696	-2440	-1092	821	2	-19176	3016	-2808	-173	2109	-581	126	132	1
-24828	-16916	19920	-424	-4579	-4318	-17600	-1512	-15056	2545	-6729	-534	-968	8384	-8920	2325	-1311	243	760	5552	14760	-199	256	-475	-17144	-224	-3016	-406	938	177	-17048	-56	792	-513	1639	-191	138	132	1
-32768	-15668	19568	28	-4056	-4918	-22696	-5832	-17824	3169	-6728	-188	-104	3552	-3952	2076	-1042	434	-3368	9528	14168	-99	362	-600	-16400	704	-976	681	1088	254	-17216	2808	4480	242	1569	-54	109	128	1
-32768	-7904	14500	48	-3361	-4936	-26696	-7560	-22352	3561	-6109	400	-5944	-7496	6376	2142	-1088	-358	-3224	9000	13944	40	473	-749	-16096	1200	-1168	821	1107	266	-16672	5288	6224	1231	1557	-16	111	135	1
-32768	-664	4040	-300	-2779	-4017	-24264	-5760	-26192	2689	-4647	666	-18872	-6480	14456	2396	-1259	-1771	-2776	10752	16176	167	792	-903	-18640	5912	-1632	1181	1789	145	-18704	6376	3408	1855	1463	-16	153	133	1
-32768	6228	-7476	-608	-2482	-2496	-11320	-4368	-25616	568	-3253	-30	-26224	3640	22016	2037	-248	-680	-3848	9488	16272	236	1185	-1117	-21360	2496	-2880	809	2034	17	-19352	5392	2800	1856	1218	101	98	134	1
-32768	17952	-13792	-1488	-1877	-826	-10976	-5320	-26992	-1617	-1708	-807	-23736	5352	18368	-1443	117	369	-9320	2704	18368	390	1762	-1246	-20424	1128	-4496	837	2240	-141	-17752	5664	1192	1879	1083	-14	130	137	1
-32768	18172	-15116	-1854	-940	836	-10240	-4392	-24056	-3215	-74	-984	-18472	-2344	11608	-3076	255	601	-3624	8952	17904	563	2369	-1368	-20088	1536	-4424	714	2524	-301	-17760	7488	392	1721	914	-84	126	138	1
-32768	9516	-10700	-741	37	2131	-7808	-8160	-20952	-3481	1706	-558	-16624	-12344	13816	-3416	-368	-342	-4944	10656	16808	738	2897	-1664	-20760	2128	-3080	438	2741	-450	-18072	8776	2816	1243	556	-228	126	134	1
-32768	-7336	-3416	1170	112	2471	-8864	-8696	-20632	-2396	3185	-326	5896	-6976	-15216	-4422	2988	-38	-2888	12104	16904	993	3375	-2122	-21712	1576	-856	412	3010	-447	-19040	9128	7688	625	-57	-293	124	131	1
32767	-28508	32767	1735	3471	2554	-32768	-752	32767	-4516	-49	44	-19208	-18792	1784	-1949	1409	1066	-2248	9704	19608	1393	3989	-2736	-26352	1360	-632	676	3230	-527	-22352	14784	14120	928	-1261	-151	124	138	1
-32768	-11328	23296	1232	4234	2986	-13768	-30520	-32768	3848	2962	-862	-29592	-24040	5144	-1668	625	723	-2664	9224	20840	1523	4181	-2845	-27800	1560	-912	746	3303	-580	-24200	7768	18832	401	-1748	154	124	137	1
-18728	-2268	28316	796	2231	1718	-12128	21304	-17832	4480	4131	945	-23056	12176	-7304	5069	2225	797	-12680	25568	24968	790	5886	-4768	-32080	1592	3296	2347	3664	-429	-21928	-2360	15560	-780	-2009	-585	118	121	1
-4244	-8568	12736	474	709	869	-23424	1872	-12736	3526	3117	-167	-15664	14512	-15088	2751	1914	42	-11216	25880	24008	-167	6422	-5295	-32336	11104	9272	2571	3959	-735	-22584	688	1904	335	-1701	-464	141	125	1
-10596	-5660	11208	247	154	319	-13616	-2920	-14984	1115	1673	-956	-13848	15920	-13808	2200	1847	-59	-21512	25808	32767	-11	5870	-4740	-22856	8056	-17808	-659	4504	-747	-28072	8512	-11656	1498	-1306	249	126	126	1
-10040	-10352	10964	151	49	74	-14832	968	-10064	-1010	1106	-876	-14320	-5520	-11864	-2809	2031	797	-24424	32767	32767	779	2333	-3524	-21880	-3624	-18008	-1979	3461	-1255	-29776	8936	-12672	1392	-1449	438	124	124	1
-8052	-9240	11820	27	85	49	-19560	-3056	-4424	-3100	825	-447	-19640	-6824	-7616	-1470	1821	-114	8584	24856	21872	-2156	-879	-1636	-26440	-840	-2768	17	1798	-558	-32768	-3696	-7512	-1241	-3376	847	123	128	1
-7648	-7424	12344	-24	94	83	-16160	-5200	-4920	-3863	732	-382	-17384	-2136	-2328	-286	1831	-255	6992	11776	16544	-769	-1262	-902	-25408	-2256	-2272	171	1528	-438	-28768	-1376	-6440	-1463	-3547	1063	120	125	1
-7440	-8028	12048	-109	151	72	-15480	-12520	-2288	-1749	606	-489	-16720	-2040	-2976	-780	1752	511	10120	17088	11928	-492	-1624	495	-10816	-4744	-5808	1494	-447	-94	-25712	-2928	-4664	-270	-3293	1623	111	128	1
-7724	-8412	11632	-128	140	114	-14032	-10032	-3904	862	718	-297	-15696	-4840	-4872	-1002	1653	1391	8472	7744	10768	-377	-1722	1918	-10792	-2592	-5432	1847	-1353	41	-23368	-424	-6608	1125	-3231	1662	122	129	1
-7520	-8368	11440	-55	150	121	-15368	-7384	-3984	2163	870	184	-14920	-5072	-3320	-371	1553	1232	4800	7792	12464	271	-1854	2763	-9944	-144	-5936	1067	-2525	208	-20656	1656	-6480	1429	-3036	1914	119	130	1
-7996	-9472	11020	91	96	137	-17104	-512	-3120	1611	818	154	-14744	-3160	-3376	239	1629	839	888	9752	15288	166	-2431	3161	-7448	688	-6808	123	-3404	339	-19024	1520	-6936	756	-2900	1895	191	129	1
-7760	-7924	12032	112	75	150	-17304	2336	-3368	-186	535	-154	-16704	1416	-1168	531	1614	777	-2104	8232	16592	-13	-3535	3195	-6944	832	-6872	-666	-4090	509	-17528	656	-7480	-276	-2751	1557	112	128	1
-7656	-7476	12012	22	136	132	-15248	-1512	-2408	-1530	373	-279	-15424	3240	184	459	1836	895	-3728	8432	17016	183	-4688	2938	-8536	-744	-6768	-1078	-4576	648	-14672	-696	-8056	-1169	-2595	1120	118	128	1
-7988	-7956	11724	-19	159	150	-15632	-5928	-1648	-1515	442	-206	-15032	-24	600	-93	2319	935	-4848	10736	16984	357	-5657	2843	-10144	-3216	-8680	-1029	-5267	736	-11608	-2080	-8704	-1460	-2444	758	122	128	1
-8292	-7480	11732	-23	155	170	-14432	-7568	-1920	-673	549	-137	-14984	-4672	2008	-710	2732	888	-5048	10248	16384	514	-6018	2707	-12208	-4656	-7728	-296	-5853	889	-8224	-3008	-9368	-1442	-1890	573	124	127	1
-8096	-8028	11500	22	101	187	-14016	-5208	-232	-5	744	-97	-15904	-4888	-1720	-528	2619	529	-7224	10856	18968	1066	-5959	2614	-13856	-3800	-10560	124	-6430	979	-7400	-2448	-9680	-1396	-1558	375	125	127	1
-7948	-7920	11500	22	83	196	-14024	-4608	-1592	133	915	-98	-18304	-3176	-4240	-89	1692	287	-10568	15448	20648	1490	-5743	2549	-15216	-5624	-10696	1122	-6766	1111	-5904	-2632	-10904	-1790	-1408	242	126	129	1
-7708	-8372	11964	122	66	342	-13976	-4368	-1360	106	933	-93	-18528	-3432	-2048	153	1324	268	-15632	22800	24016	1123	-5257	2823	-17736	-4672	-14896	2198	-6749	1523	-4016	-3632	-9832	-1952	-1434	-21	135	129	1
-7580	-8852	12412	129	265	496	-18000	-4712	-2528	-436	1057	-93	-17320	-3112	-1256	-390	1509	364	-22872	21736	27568	1260	-4713	3971	-22832	1752	-22328	1586	-6729	2064	-4056	-1160	-5024	-2157	-1792	-173	124	128	1
-7832	-8052	12808	168	520	640	-17856	-4088	-1304	-727	1094	-68	-18072	-1760	-1192	-503	1427	461	-32768	21272	26752	1527	-4145	4974	-23768	4744	-21280	-268	-6506	1761	-6152	3432	4368	-2323	-1751	68	118	127	1
-8644	-7900	12412	174	782	719	-16336	-4864	-192	-833	1317	67	-18376	-3256	696	-366	1193	341	-32768	9384	23448	1203	-3379	4317	-23520	5592	-22888	-2439	-5333	1145	-15464	9608	14336	-1374	-1441	805	156	126	1
-8900	-8704	13644	292	1088	804	-16008	-5976	-504	-568	1633	110	-17672	-4368	3000	-745	1129	153	-32768	4944	17328	170	-3087	2630	-18288	3240	-30568	-3665	-3503	-63	-14920	3920	16480	379	531	632	130	126	1
-8832	-7716	13800	306	1501	973	-18656	-4488	-1672	-338	1947	188	-17664	-4216	3320	-820	1142	126	-32768	608	2560	-338	-2234	1056	-13136	-5360	-26904	-1832	-1913	-206	-21840	1384	24200	1042	188	196	118	126	1
-8376	-6720	14556	259	2061	1150	-20344	-2840	-3088	-415	2176	276	-18864	-2280	48	-1044	1065	279	-32768	-3872	-1560	258	-637	-88	-4688	-1992	-27208	1139	-101	676	-17584	4216	19296	1531	157	520	120	125	1
-8404	-6892	15348	76	2647	1359	-20600	-1664	-2872	-667	2313	358	-19104	-3408	-752	-895	861	456	-32768	18088	3552	-2249	2654	-2183	-10352	8720	-16648	3202	1926	712	-11840	8624	22392	2487	-1137	269	128	124	1
-8624	-8092	14940	58	3195	1623	-20224	-2112	-1848	-851	2460	444	-18960	-3560	-184	-863	829	478	160	27216	32767	-2221	4845	-3277	-32768	1760	6512	3826	3250	330	-3744	14960	4864	3595	2237	-239	119	123	1
-8180	-9720	15072	206	3871	2012	-22584	-4032	64	-749	2664	611	-21952	-8616	3328	-330	183	391	-14376	-2744	20464	-320	3466	-1760	-30968	-6240	456	-212	2731	-706	-29992	12640	7440	1381	1998	271	107	125	1
-9692	-7772	15384	303	4675	2584	-25376	-3848	3528	-562	2920	825	-24216	-12128	9752	163	-841	361	-15240	20152	19720	-486	2561	-1318	-9192	3688	-11136	-1489	2773	-747	-18376	160	-9760	-2302	1588	-326	105	123	1
-16100	-14720	16228	649	5744	3319	-29688	-728	11208	-1129	3264	986	-23528	-8992	17648	47	-2932	76	-6312	4256	14576	-302	2135	-1513	-10200	616	-7760	-2241	2936	-460	-13112	-3352	-9656	-2450	1118	-338	139	125	1
-22496	-22068	22068	1801	5813	4236	-29336	-10792	5288	-1661	3590	704	-19576	1600	12064	458	-2668	435	-10032	12984	17136	-360	1720	-1281	-15440	5480	-10904	-3541	1791	-53	-18464	256	-952	-1262	1478	20	132	126	1
-24680	-12372	26404	2172	5928	4288	-26144	-11960	6624	-1491	3642	603	-20600	-664	-3152	-335	-1586	37	-2808	1448	14552	-709	149	-460	-23896	-1400	-12048	-3516	1511	-18	-21192	1488	-11576	-45	2161	579	107	121	1
-21244	-19908	23224	283	6010	3927	-21544	-8856	-12168	616	3787	1084	-25224	-4304	-12256	-589	-1307	-692	-6376	11184	15352	-290	95	-122	-23128	-6600	-12136	-1854	1232	-51	-20048	584	-6352	312	2195	272	125	126	1
-32768	-21264	32767	388	2922	3200	-21304	-1920	-21136	1820	3136	941	-32304	4480	-9504	452	-2358	-1144	-4104	9208	14496	-64	63	-44	-15616	-5504	-7064	590	1086	341	-19632	-248	-1928	614	1982	94	126	131	1
-6740	-30096	28952	1211	-1815	812	-23064	-112	-3048	21	1360	356	-32768	7424	-9032	538	-3086	-1035	-3296	8584	14184	64	63	-50	-13248	-1528	-4944	2417	773	658	-16424	1704	-560	917	1810	-236	123	131	1
1348	-11520	18760	177	-2393	485	-19024	-976	-5432	-410	10	8	-27640	2504	-8672	358	-3154	-1348	-3416	8848	13656	95	81	-68	-16016	3480	-4496	3298	552	953	-13208	5272	184	1320	1743	-543	130	128	1
-844	-19228	14756	-381	-2817	-554	-14104	-2056	-6640	-646	-867	256	-23176	2296	-5472	-210	-2968	-1803	-3584	9328	13528	99	68	-71	-19416	9136	-2840	2081	330	716	-13840	8104	-488	1216	1586	-687	158	130	1
-56	-15108	12072	191	-3262	-1424	-9840	312	-5632	-1278	-1845	17	-21864	-80	-6208	-970	-2711	-1888	-3416	9360	13696	58	27	-111	-15816	6536	-2192	-23	415	296	-15896	5744	-584	660	1515	-652	147	131	1
-900	-9680	10928	-353	-3233	-2026	-11200	-3808	-5864	-1331	-2757	51	-20016	-2808	-7040	-682	-2517	-1875	-3224	9432	13344	41	8	-130	-15464	4760	-2720	-1131	570	-3	-16064	3680	-776	524	1583	-722	81	131	1
-4804	-10312	11384	-825	-3294	-2482	-9440	-4464	-7264	-22	-3369	-66	-18048	-1312	-7496	454	-2417	-1776	-3336	9936	13288	-27	20	-139	-16840	2264	-3712	-1188	315	48	-14680	2984	-1872	600	1830	-713	145	131	1
-7404	-10060	12164	-894	-3648	-2855	-9328	-3856	-7328	193	-3460	-91	-15472	1664	-8352	1398	-2291	-1385	-3576	9192	13568	-99	23	-131	-17256	-1096	-4368	-218	71	251	-13552	3560	-136	434	2018	-672	138	130	1
-9588	-9752	13356	-964	-4076	-3150	-8784	-1080	-8512	1500	-4368	-259	-12032	3672	-8856	1472	-2126	-1143	-3688	8792	13632	-49	43	-99	-16440	-1208	-3656	1146	116	355	-13736	3536	1952	142	2371	-699	123	129	1
-10220	-9656	13552	-1012	-4478	-3366	-10512	-856	-8024	1730	-4876	-337	-9088	4800	-8960	1139	-1925	-939	-3664	8872	13192	-10	62	-61	-15928	2912	-1440	1704	251	345	-13424	5240	4304	505	2817	-703	144	129	1
-11492	-9524	14256	-1203	-4562	-3509	-12360	-624	-9032	1775	-5466	-222	-7632	4160	-9576	1037	-1685	-710	-3712	8856	13072	-25	85	-78	-14920	7792	1024	1032	352	181	-16256	7768	3792	822	2975	-857	119	129	1
-13936	-11032	15408	-1410	-4546	-3602	-13032	624	-9912	1533	-5975	-223	-6040	3912	-9328	1393	-1438	-520	-3184	9688	12824	-105	100	-133	-13896	7960	5040	64	668	-24	-20440	11264	3104	47	2190	-709	115	130	1
-17684	-13552	16776	-1563	-4415	-3678	-14576	1592	-10424	1122	-6353	-409	-4648	6336	-9504	1802	-1287	-241	-3232	9456	13448	-237	125	-228	-14320	6312	3872	-661	1138	-129	-19144	10128	5816	-772	1268	-213	124	130	1
-24092	-17968	19560	-1459	-4212	-4066	-18096	-936	-14384	867	-6717	-583	-3752	9216	-8704	1907	-1226	218	-3000	9448	13320	-263	140	-237	-16104	2816	720	-751	1455	-144	-15936	7016	5232	-526	1309	42	127	128	1
-25108	-18160	19840	-1399	-4161	-4173	-23120	-3784	-15080	857	-6812	-792	-2552	7168	-4600	1833	-950	697	-2808	9472	14296	-341	260	-371	-17712	2088	-1808	-184	1583	-92	-15328	2336	3632	455	1617	-32	81	132	1
-32768	-5436	21124	-1723	-2990	-4796	-27888	-8040	-21040	1094	-6425	-627	-6704	-3848	3952	1671	-1154	24	-4000	8992	14968	-248	364	-428	-16352	1792	-2200	261	1676	-40	-14984	1784	2016	984	1489	-165	136	134	1
-32768	-1924	14796	-2294	-2832	-4273	-25776	-5168	-18440	494	-5185	-436	-18120	-9480	14280	958	-1260	-1530	-3160	7672	15736	-42	514	-495	-16168	2816	-2496	567	1927	-83	-14760	3496	1016	1297	1308	-167	122	132	1
-32768	9640	908	-1093	-2921	-2941	-12728	-6248	-24440	306	-3776	-661	-25552	-5128	23376	-46	-304	-1434	-3616	5568	17040	437	716	-690	-18504	1728	-4000	576	2110	-169	-16656	2544	48	1530	1300	-25	148	130	1
-32768	28380	-12700	-1485	-2281	-705	-10448	-256	-20912	-1127	-2014	-784	-22912	-2552	22688	-1787	186	-517	-3272	11024	16392	557	1266	-979	-19824	2936	-4600	655	2278	-160	-18448	3520	-32	1843	1171	-40	125	129	1
-32768	21220	-15540	-968	-1189	1260	-9592	0	-21112	-1482	-1654	-858	-18712	-7464	13320	-2430	3	-72	-3456	9112	18048	511	1872	-1170	-21944	-176	-4704	763	2460	-155	-20968	7392	544	1877	1062	-85	121	138	1
-32768	9084	-8496	1159	151	2022	-7496	-5704	-22000	-1284	2330	-45	-13648	-12064	5320	-2116	527	-265	-3544	9088	17712	692	2560	-1392	-21344	448	-3928	642	2787	-383	-19376	10328	1952	1153	598	-242	122	132	1
-32768	572	312	1748	1148	1491	-12784	-6456	-20512	37	3585	348	-2192	-9832	-2960	-1379	-94	-736	-2904	9704	18528	1095	3199	-1803	-21856	1080	-2344	407	3116	-418	-19288	9456	6936	259	-105	-367	122	120	1
32767	-32768	32767	4021	3314	1441	-25776	-17392	32767	-3520	2085	276	1064	-1696	-18392	-1478	2863	1071	-1984	8288	20232	1985	3924	-2358	-26464	-760	-3288	347	3449	-495	-20880	10312	14424	322	-1493	-136	123	129	1
-32768	-3024	15224	1777	4541	3585	-32768	-14216	-18960	4695	3222	-1345	-32768	-21816	26888	2838	-926	-261	-1880	18184	18512	2180	5064	-3196	-32768	-9376	4464	1158	3757	-844	-23976	3576	19560	120	-1763	-72	122	132	1
-14032	-6724	15128	1033	1574	1781	-18392	26616	-12184	4689	3980	1195	-23256	14216	-8304	4624	2508	564	-9672	22688	25984	2320	6452	-4531	-32768	-7216	1608	2517	3920	-541	-25256	-8048	19752	-810	-2081	-793	132	128	1
-12016	-5140	15260	593	1344	864	-21832	4064	-9080	1315	3004	-170	-16368	15544	-11784	2554	1925	94	-11808	21808	26360	947	7160	-5372	-32768	7552	2336	3133	3941	-647	-25944	-992	6272	1161	-2046	-997	115	121	1
-22532	-9460	22876	273	726	622	-6176	-2504	-18528	-846	1447	-1024	-6536	9248	-5960	-1725	1771	47	-22048	32767	25440	1024	7058	-5360	-27160	13520	-2064	1554	3997	-1112	-24528	9560	-14040	2951	-1378	-99	128	125	1
-7584	-6724	14292	260	179	144	-15040	-3104	-11152	-1498	1150	-1153	-11160	-8808	-14456	-3506	2136	739	-2768	30872	32767	-237	4620	-3473	-22000	7288	-14840	-1178	3654	-1259	-31032	9432	-11128	1465	-2242	905	132	128	1
-7712	-7348	12888	89	209	12	-28288	-6696	-8616	-1029	1024	-331	-21496	-10512	-10784	-1310	1767	-43	5600	26728	31952	-1026	-538	-976	-22032	4752	-6856	-2821	2325	-1191	-32768	6464	-5656	-888	-3375	1012	120	125	1
-7044	-7352	12740	-51	235	38	-14480	-2488	-4280	-1555	902	-93	-19792	2664	-3496	553	1869	-10	10104	13312	16568	-1511	-1596	-1600	-22008	-2992	-3032	-506	577	-569	-32768	2360	-7752	-2004	-3658	1071	118	126	1
-7580	-7512	12348	-221	297	29	-13240	-6280	-3424	-993	537	-442	-16624	2168	-3240	-435	1949	485	8192	16952	12944	-1412	-2588	-840	-9744	-360	-7552	-85	-518	-451	-24632	-136	-5320	-1238	-3244	1704	121	125	1
-8028	-8064	11996	-290	239	51	-16480	-6072	-3856	-305	346	-536	-14784	-2936	-4296	-1201	1738	1215	10208	14400	8464	-1841	-2986	543	-5736	-960	-5264	955	-1239	-402	-22656	688	-8128	218	-3053	1642	114	124	1
-7356	-7956	12012	-318	223	47	-17288	-6344	-1536	55	456	-219	-15720	-4616	-1856	-494	1537	1124	6592	10552	7232	-1256	-3068	1675	-9384	1032	-5760	1309	-2394	-334	-19816	3568	-7408	1082	-2796	2009	122	128	1
-7776	-8672	11028	-272	249	110	-15912	-4016	-1328	130	499	-60	-15424	-3376	-1912	194	1578	929	2952	12840	8456	-586	-3054	2596	-10328	3720	-6656	879	-3464	-192	-18216	4896	-8080	485	-2633	1928	121	126	1
-7780	-8308	11596	-188	238	151	-15408	-2296	-888	-690	331	-277	-16424	-1472	1296	209	1714	779	-1616	15344	10904	-523	-3394	3266	-7592	4568	-7872	380	-4227	26	-16192	3672	-8528	-636	-2379	1588	123	126	1
-7960	-8012	11724	-182	257	155	-14648	-4960	-336	-1264	356	-292	-14304	-1992	3128	-32	1974	639	-3784	14504	11536	-426	-4122	3654	-6848	5864	-7912	-378	-4728	126	-13760	2672	-9088	-1595	-2136	1175	123	127	1
-8120	-8384	11208	-152	272	164	-14800	-6072	1384	-1086	597	-145	-14280	-5536	4528	-720	2230	570	-5544	14816	11768	-203	-4757	3659	-9472	4400	-7744	-849	-5259	216	-10552	904	-9744	-2076	-1967	914	124	124	1
-7852	-7584	11392	-118	330	170	-13328	-6440	792	-655	866	-102	-16264	-7360	3144	-962	2384	438	-7792	16096	13344	121	-5269	3549	-10168	2792	-10280	-1061	-5856	437	-7576	-1152	-10616	-2189	-1480	860	126	127	1
-8136	-8296	11004	-94	342	191	-13976	-5848	-64	-174	1153	-45	-17472	-6112	-1936	-446	1933	370	-9528	17400	14816	473	-5673	3484	-11792	1784	-10880	-1049	-6376	587	-7008	-2032	-8824	-2336	-1115	764	125	127	1
-8544	-8084	11372	-46	343	231	-15656	-4856	-3632	83	1276	-36	-17328	-1840	-4568	-159	1556	325	-11416	20136	15552	841	-5746	3418	-13376	32	-10200	-502	-6688	749	-5936	-2744	-11776	-2619	-946	551	122	127	1
-8408	-7520	11888	-118	417	221	-16792	-3528	-4728	-57	1228	-45	-14448	-1184	-4864	-269	1562	461	-13384	24896	18584	989	-5484	3642	-15000	-80	-13216	-67	-6847	1048	-3880	-6736	-11632	-2661	-842	212	120	126	1
-8464	-7676	11860	-130	441	219	-16624	-4008	-3320	-308	1133	-46	-15696	-488	-3616	-442	1655	601	-19688	32240	22128	775	-4981	4423	-21896	-248	-14648	220	-7059	1468	-3936	-9208	-7440	-2206	-738	-315	125	126	1
-8464	-9444	11496	-92	657	502	-16128	-6176	-2552	-601	1095	-85	-17464	-1352	-2008	-304	1558	523	-26944	21632	25368	1980	-3992	5414	-27904	1472	-17128	2	-6986	1695	-4168	-8912	-5552	-2090	-747	-354	128	126	1
-8808	-8960	11808	-12	940	677	-17208	-3968	-464	-767	1263	-82	-19680	-2960	432	-335	1268	279	-32768	22296	27208	2294	-3131	4958	-28688	6648	-22736	-83	-6232	1458	-6816	7240	9400	-1323	-396	872	192	126	1
-9296	-7896	12104	13	1168	772	-16088	-4200	288	-911	1507	-18	-17488	-3872	3856	-798	1222	107	-32768	16432	19336	925	-3202	3613	-21864	8168	-21032	-1156	-4680	1128	-21592	8608	23040	-277	164	1895	128	125	1
-9132	-9160	12324	-95	1524	941	-17088	-6656	-824	-635	1804	-12	-16968	-3336	3240	-1105	1359	60	-32768	-2432	4920	370	-2570	1872	-10928	3928	-21592	-2852	-2655	334	-22968	4720	32767	1428	627	1208	105	124	1
-8420	-8664	13052	35	1907	1148	-19792	-3080	-1944	-406	2083	10	-17808	-3208	568	-908	1344	135	-32768	-9296	-1120	1681	-1411	-129	-12272	-6456	-28424	-951	-738	557	-19704	10440	25664	1770	394	592	125	125	1
-8844	-6380	14164	-133	2508	1175	-19392	-456	-1912	-499	2300	238	-17744	-4056	-248	-580	1123	343	-32768	-4776	1896	348	215	-1467	-1256	-3408	-23520	1954	1643	765	-14360	8504	13200	1850	135	322	122	124	1
-9608	-7880	13672	-283	3146	1322	-18808	-2392	-800	-452	2528	296	-19744	-2728	3544	-378	667	493	-32768	1320	7984	-340	1245	-2108	-7360	-880	-23336	2849	3585	290	-10880	4928	3104	1556	518	257	116	124	1
-9744	-8960	12488	-377	3799	1708	-19944	-2040	1792	-450	2829	272	-21152	-3632	8104	-439	10	471	32767	-32768	13456	-4513	2960	-4198	-32768	14152	32767	9120	2294	109	-264	11192	-9200	2350	1878	-546	137	123	1
-7800	-7532	14912	-686	5118	2116	-24960	-1256	3488	-719	3217	461	-23064	-7560	12464	-419	-1050	28	-31080	11408	32767	504	5098	-2947	-32768	13248	32767	5826	1581	263	-28880	32767	16760	685	1550	1688	127	124	1
-13876	-12752	13332	-730	6940	2881	-32768	6496	7496	-1894	3396	637	-28408	-5056	27656	-502	-3776	-312	-22968	21496	25752	-189	2789	-2657	-19736	1424	-15592	-3807	4745	-1462	-19656	-17888	-6648	-5915	2146	-2279	141	125	1
-29332	-12460	25724	127	6937	3837	-32384	-5160	5184	-3762	3473	407	-19728	4376	10512	-1529	-2455	692	-6904	11864	16128	-336	2121	-1242	-19480	7016	-12104	-4404	3100	-534	-20352	-19360	-15384	-4573	183	60	141	128	1
-18264	-13556	23384	-469	6875	4082	-29256	-13056	1280	-2176	3617	813	-26528	-520	-6656	-2240	-1323	57	-6032	13680	13680	-636	810	-1001	-12672	4888	-11976	-5678	2558	-116	-9168	-4032	-7520	1055	508	302	122	125	1
-27248	-32768	29724	-361	5770	4069	-24792	-13632	-5496	-568	3417	955	-29744	-408	-15592	-1126	-1895	-815	-6544	1184	19624	-611	165	-286	-12392	-5768	-12272	-2586	1294	334	-7944	-4528	-8808	2020	846	-284	115	129	1
-32768	-30844	32767	-57	1498	2342	-18840	-5624	-20968	2165	2881	719	-30536	1776	-6784	-465	-2949	-900	-5496	11744	13024	-348	111	-91	-22848	-8136	-11544	2127	1388	419	-21560	6984	-11072	2701	2623	1231	122	129	1
-4112	-25280	26820	559	-2737	1031	-24936	-2256	-808	221	856	233	-32768	-736	-8448	392	-3427	-1394	-4304	10328	13816	-180	20	-33	-19944	-352	-7960	4384	1116	763	-18952	6680	-2824	1458	1465	639	123	130	1
-1444	-13796	19656	-286	-3959	920	-15272	-4072	-6792	-307	-501	-227	-27528	-488	-9304	492	-3196	-1572	-3736	9088	13904	7	32	-38	-15912	2960	-4664	4356	862	766	-15664	5064	232	409	1546	-348	128	130	1
-1248	-18200	13980	-192	-4807	168	-11688	-4080	-5856	-455	-1537	-28	-23552	776	-8736	-255	-2864	-1553	-3800	9160	13696	115	61	-54	-16408	8752	-2872	3029	511	709	-14712	5744	-1120	183	1474	-1027	135	130	1
-1188	-13444	10172	308	-5177	-377	-10088	-1040	-5944	-1062	-2407	-109	-20416	-1128	-8664	-838	-2652	-1604	-3120	9696	13096	185	73	-68	-14448	10256	-1080	-239	516	321	-13480	4800	312	317	1487	-1020	114	130	1
-3128	-11608	8804	-101	-5026	-1057	-11088	-3160	-6800	-1151	-3357	71	-16872	-3272	-8648	-335	-2507	-1765	-3224	10104	12648	106	16	-132	-14616	7400	-2656	-2545	786	-240	-14760	5184	488	260	1677	-857	86	131	1
-6448	-12960	9020	-411	-4790	-1842	-8648	-2696	-7688	-618	-4041	45	-15048	-1736	-8472	769	-2331	-1702	-2768	10712	11984	-67	35	-194	-17832	1544	-2768	-2895	621	-307	-14880	3024	504	442	1808	-621	147	130	1
-9376	-12776	9880	-607	-4671	-2718	-8504	-2320	-7640	-167	-4562	-41	-12584	1288	-9264	1501	-2052	-1514	-3352	10368	12040	-297	99	-246	-17712	-5296	-3968	-932	315	135	-15104	2736	376	471	1838	-562	122	130	1
-10304	-12392	9900	-777	-4594	-3361	-9792	-3352	-7688	480	-4925	-238	-10016	3656	-9752	1437	-1873	-1301	-3744	9488	13216	-372	131	-235	-14872	-2624	-3520	1948	439	500	-10264	9400	2720	-34	1862	-279	126	130	1
-13176	-12872	11808	-932	-4510	-3790	-10896	-2520	-9760	1394	-5326	-262	-6400	5056	-10280	1179	-1644	-921	-4160	9792	13384	-304	145	-195	-15008	4712	-1864	2665	541	565	-14704	6640	3408	401	2124	-674	150	130	1
-15956	-13512	13832	-1100	-4531	-4087	-12248	-2936	-10568	1765	-5772	-401	-7000	4016	-9576	1454	-1506	-727	-4072	9624	13280	-238	144	-158	-16200	9504	-48	1333	673	264	-15032	11032	3664	912	2587	-890	118	130	1
-18468	-14448	15056	-1374	-4554	-4161	-14136	-1624	-10456	2276	-6113	-605	-5888	5752	-8704	1923	-1432	-364	-3976	9296	13576	-198	131	-175	-16240	8216	424	-500	881	-92	-17264	9344	960	573	2768	-771	115	131	1
-21388	-16312	16588	-1478	-4316	-4196	-17720	-128	-12672	2477	-6430	-786	-4688	8848	-7824	2362	-1361	120	-2920	9680	14040	-171	153	-229	-15912	3680	264	-1219	1128	-199	-18392	4608	944	-214	2022	-291	122	132	1
-28732	-15160	19972	-1574	-3724	-4661	-22024	-1264	-15704	2101	-6645	-626	-2968	7176	-5160	2057	-1043	601	-3928	9712	13920	-154	231	-335	-15952	1256	-984	-939	1272	-45	-17192	3176	2536	-523	1516	-104	129	135	1
-32768	-7424	20176	-1807	-2853	-4955	-26312	-1952	-18264	1127	-6373	-367	-4576	-2240	1616	1832	-723	168	-4104	9320	14024	-87	334	-412	-16088	704	-1608	12	1496	125	-15600	3984	4576	197	1467	-127	107	135	1
-32768	-4812	15468	-1620	-2199	-4451	-25832	-4040	-17544	-399	-5561	-281	-12800	-7816	10600	1252	-767	-1095	-4128	11464	13376	11	457	-598	-16528	5656	-1648	715	1759	159	-14392	5536	3808	1051	1482	-61	115	133	1
-32768	1272	3376	-20	-2619	-3128	-15160	-9088	-23832	7	-4096	-754	-25224	-6104	20512	724	-744	-1899	-2560	12136	15784	-18	784	-888	-18264	4520	-2848	835	1921	205	-16776	5640	864	1494	1526	59	118	133	1
-32768	24796	-10560	-805	-2543	-1210	-9736	-4736	-22416	54	-2256	-898	-21512	-576	21760	-395	112	-521	-3392	9000	16848	243	1235	-1000	-20608	-208	-3584	1029	2178	9	-18328	3784	680	1520	1251	39	129	136	1
-32768	24324	-15096	-1862	-1134	488	-6848	-2912	-21344	-84	-106	-613	-18976	-3480	14416	-1690	44	225	-3824	10608	18192	432	1811	-1158	-20048	2608	-3680	1001	2419	-51	-18880	4152	1968	1456	1001	-137	125	128	1
-32768	7800	-9752	642	108	1425	-7344	-512	-22152	-282	1866	21	-14712	-7744	5960	-2233	685	205	-4320	10048	18032	593	2488	-1447	-21792	3400	-3040	573	2667	-136	-20912	6968	2720	1319	717	-161	124	132	1
-32768	5120	-2428	1810	930	1428	-11160	-3816	-23272	-857	2970	110	-14120	-9040	8800	-1629	487	-366	-3864	8536	17744	1013	3110	-1811	-22312	1040	-2152	304	2957	-321	-19048	9384	6848	1084	173	-111	123	129	1
32767	-3204	4116	1910	3691	1280	-18728	-11752	4752	-1546	3254	-34	4024	-4592	-10392	-1484	1935	186	-3448	8632	18760	1706	3745	-2311	-23392	-1736	-2680	450	3319	-384	-19056	11216	12968	1257	-1019	6	123	136	1
-19376	6464	9008	-177	5059	3004	-32768	8208	-808	2574	2096	-94	-32768	-15384	11816	603	718	300	-2704	16488	19784	2303	4736	-2915	-24320	-1080	-2488	539	3366	-396	-22440	8264	17936	884	-1486	175	123	139	1
-32768	-14392	32767	1024	2525	2474	-7544	-25416	-9184	4374	3279	1129	-28512	1760	8752	4370	1867	468	-3448	17360	22384	2794	5885	-4238	-32768	-9928	4984	2232	3556	-276	-24696	-7048	20976	-624	-2347	-404	127	132	1
-32768	-32768	13800	1666	291	1100	-17192	-6944	-19088	1788	3761	-344	-21288	10848	-13096	3221	1921	366	-12696	32767	30568	1996	6627	-5213	-32768	6104	1928	3596	3912	-235	-24536	-7512	9896	473	-2164	-926	121	120	1
-12084	-2820	18696	1246	342	766	-16504	-10968	-11936	2923	2458	-1155	-8448	3488	-15488	302	1744	-213	-15824	27176	29888	732	6941	-5863	-29808	13856	4616	3060	3824	-615	-27664	7712	-13120	3378	-1322	-370	143	134	1
-8228	-4816	16124	985	-48	432	-8784	448	-13000	3092	1945	-147	-3680	-1176	-9448	-1986	2030	196	-12592	28648	32208	1124	4899	-3991	-25296	8152	-18040	-374	3551	-863	-32696	14376	-11576	2558	-2207	811	130	134	1
-8596	-6532	14572	576	-109	167	-21184	7384	-12088	540	1446	-445	-21368	-7968	-13600	-940	1889	-4	-5080	32767	32767	-99	-606	-1452	-21824	5656	-14704	-2351	2475	-882	-32768	8488	-3944	-355	-3326	1234	122	131	1
-7424	-8048	13020	310	-11	86	-22168	3344	-5360	-3034	710	-258	-22776	4816	-4024	633	1763	-428	9312	11528	19816	-2303	-2057	-1126	-24008	-1232	-1112	80	664	-358	-32768	2472	-7920	-1788	-3664	924	122	130	1
-6980	-6476	13380	28	157	67	-17032	-1344	-5888	-4257	442	-814	-18952	5824	-1680	29	1986	187	7672	13832	14800	-701	-3017	-609	-12704	-2088	-6872	-404	-751	-63	-25712	-1136	-5584	-1528	-3257	1713	124	127	1
-6968	-7592	12588	-195	250	35	-15376	-12960	-3128	-2270	324	-677	-15504	-680	-3544	-1568	1900	1041	9968	16048	10336	-1419	-3305	763	-7672	-3984	-5384	768	-1426	-230	-23024	-1136	-6976	2	-3062	1611	121	129	1
-7120	-7636	12084	-167	218	90	-12400	-11504	-2680	819	616	-347	-14488	-5736	-4072	-1182	1787	1255	5736	7376	10688	-933	-3260	2123	-10200	-2632	-5704	1113	-2429	-154	-19656	1720	-6920	1109	-3005	1881	119	131	1
-6848	-8992	11340	32	221	183	-14976	-6712	-1728	2293	800	101	-13912	-7120	-2288	-110	1651	981	2232	10240	12064	-233	-3350	3030	-10128	-408	-7056	888	-3557	-39	-17280	2832	-7496	879	-2565	2065	127	131	1
-7344	-8364	11832	242	150	250	-17536	256	-2408	1527	751	-141	-15984	-2784	-976	522	1699	565	-1600	11640	14240	-282	-3758	3482	-8400	488	-7144	608	-4305	79	-15040	2648	-8968	-257	-2406	1716	123	130	1
-7132	-6480	12708	204	167	270	-16456	1648	-696	-493	521	-388	-15952	2704	3216	698	1757	602	-4256	11152	14840	-181	-4552	3638	-7400	2184	-7760	173	-4902	368	-13216	1608	-8888	-1368	-2198	1167	123	130	1
-7688	-7160	12232	100	204	253	-13920	-4224	392	-1631	570	-398	-13728	320	3000	338	2090	640	-5344	12712	13600	6	-5248	3454	-9960	1784	-6920	-201	-5348	533	-12632	1528	-8944	-1583	-2169	1032	126	130	1
-7668	-7160	11960	104	170	274	-13552	-7648	496	-1309	747	-296	-14736	-5904	3432	-653	2527	424	-7336	14912	15080	66	-5592	3236	-10968	264	-9256	-428	-5925	689	-8952	-1584	-10152	-2203	-1770	675	125	132	1
-7840	-7524	11796	175	131	307	-13320	-8104	-1080	-493	944	-219	-15384	-7768	-1136	-810	2452	307	-9536	15968	17016	436	-5839	3235	-12464	344	-11120	-636	-6438	878	-6632	-2904	-10216	-2296	-1235	494	126	132	1
-8048	-7684	12472	254	102	361	-14832	-5592	-1496	126	1150	-169	-17824	-5160	-5336	-544	1780	209	-11752	20464	17320	756	-5868	3231	-14912	-1016	-9080	-292	-6687	951	-4744	-3720	-10528	-2630	-1160	209	127	132	1
-7816	-6768	12876	227	141	406	-16608	-3232	-4016	70	1219	-166	-17312	-1520	-4688	-308	1439	237	-13304	25352	19616	646	-5272	3595	-16800	-1752	-13176	-345	-6863	1215	-3016	-7256	-10184	-2981	-1075	-138	128	131	1
-8016	-6704	13228	82	253	472	-17800	-2264	-4648	-593	1119	-213	-16440	232	-3360	-475	1507	376	-20296	26232	23848	641	-4418	4687	-23224	528	-16576	-513	-6942	1394	-3160	-7152	-5568	-2761	-1055	-428	124	129	1
-7704	-5732	13332	-49	464	555	-16864	-3496	-3048	-1091	1030	-202	-16024	464	-2456	-548	1544	350	-30400	23392	25056	1462	-3246	5659	-24552	1008	-15832	-544	-6942	1407	-4368	-400	4272	-2611	-972	-135	125	128	1
-7624	-7332	13892	-115	705	699	-16528	-5792	-1112	-1058	1155	-150	-17976	-808	-520	-732	1292	224	-32768	18864	23928	1728	-2491	5360	-26848	6752	-22632	-1897	-5549	819	-10104	8432	13656	-1836	-445	998	143	129	1
-7736	-7392	14088	123	994	808	-16200	-6032	-776	-1038	1190	-150	-18520	-4296	2256	-1323	1277	11	-32768	14696	11920	231	-2092	4002	-17200	7584	-22976	-3030	-3797	244	-26808	4960	27544	-447	302	1348	147	128	1
-7932	-7204	13876	114	1055	830	-19056	-4960	-920	-699	1736	-13	-19080	-5144	2096	-1563	1259	-213	-32768	-7096	3704	475	-1369	1798	-14400	2512	-27072	-3335	-2224	-40	-23352	6504	29888	1077	582	573	107	128	1
-9260	-6132	14856	5	1945	1132	-19672	-3520	-3512	-870	2014	38	-17840	-5008	-288	-1305	1122	9	-32768	-3016	-2168	426	-908	-403	-5936	-2976	-26160	-300	181	346	-18776	7440	23264	1150	169	419	119	127	1
-8592	-7272	15424	12	2033	1129	-19456	-3536	-3064	-943	2200	170	-18128	-5600	-160	-1050	968	324	-32768	-1616	1704	-399	481	-1869	-4000	-576	-23456	1960	2477	701	-14752	7704	11608	1236	-107	124	120	127	1
-8652	-5620	15104	-60	2678	1247	-19488	-3728	-1824	-814	2442	307	-19496	-3784	2304	-754	650	458	-32768	7592	7840	-522	1186	-2478	-11600	3160	-22952	3000	3924	243	-6824	4720	14536	2307	-1557	509	135	125	1
-9388	-6628	14904	-431	3699	1916	-20984	-1648	472	-959	2653	260	-20944	-3992	5568	-700	95	504	32767	7304	4112	-1869	3272	-4050	-32768	-32	32767	9838	1164	-773	-9616	7512	-9992	4421	2781	-1181	132	126	1
-8008	-7224	16980	-478	4529	2334	-21160	-1248	-576	-994	2698	263	-23240	-8320	10976	-639	-743	140	-32768	15320	32767	443	4974	-2767	-6344	21656	-32768	-1695	1133	1130	-32768	30712	23976	437	547	1310	122	126	1
-12256	-12540	15452	-467	5717	3127	-31560	232	10696	-1997	3094	621	-24768	-7736	18640	-1024	-2614	-291	-15560	15552	20896	-194	2575	-2043	-29432	920	-13504	-3262	4782	-1244	-19608	-4568	-4376	-4212	1906	-627	125	125	1
-23656	-13204	20692	-16	6831	3934	-31456	-488	3680	-2664	3378	546	-20536	2304	12752	-1191	-2526	499	-6808	7240	18368	-12	2297	-1168	-19464	1520	-10752	-4417	3071	-522	-15208	-12568	-10584	-4023	860	272	141	129	1
-21112	-22520	25124	1296	6525	4762	-28608	-15544	7328	-3071	3226	843	-23480	-880	-3600	-1292	-1355	223	-21024	19320	32767	-307	1163	-1280	-10320	1000	-22200	-4515	2259	-465	-13872	-7032	1400	562	696	415	115	129	1
-29124	-22288	23972	768	6374	4302	-23992	-11424	-10544	-1400	3463	699	-25520	-8160	-13392	-1282	-1287	-739	-5328	3608	19096	-485	75	-313	-15184	-952	-13008	-2514	1380	671	-18096	8272	-13112	2482	2423	-408	119	127	1
2448	-31796	20780	-853	4320	2421	-21800	-2728	-14344	1081	3088	1251	-32768	1952	-9320	289	-2564	-1260	-3552	8896	14384	-282	34	-121	-25648	-7328	-10624	-78	1174	353	-18400	8216	-9344	1390	2355	574	129	128	1
-14168	-32768	31320	1559	-107	-323	-20688	-4176	-8272	715	1564	607	-32120	3544	-8168	840	-3139	-1184	-3880	10680	14256	-122	34	-58	-18888	-1560	-7448	2752	1190	431	-19464	4232	-4328	326	1891	223	127	131	1
3608	-8456	20440	732	-1369	-760	-19584	-1736	-4024	80	-156	75	-28888	3040	-8672	1169	-3116	-1359	-3208	9616	13440	-47	31	-61	-15088	568	-6152	3774	851	680	-15560	4016	-1664	-29	1776	-112	127	129	1
124	-13528	16420	-895	-2157	-1106	-13728	-4432	-6856	903	-800	242	-24176	5368	-7352	367	-2879	-1614	-3160	8768	14048	29	42	-57	-16736	4568	-3480	3411	437	777	-14432	3232	184	-67	1739	-654	130	131	1
-1736	-16212	14028	-115	-3246	-1472	-8832	-1560	-6096	720	-1726	-147	-23960	5144	-6776	162	-2860	-1595	-3168	8896	13648	135	48	-65	-15832	6688	-1560	1066	306	630	-15904	384	696	168	1729	-931	228	131	1
-4760	-11024	13764	38	-4048	-1924	-9384	480	-7744	156	-2676	-332	-18768	-336	-7336	-991	-2557	-1594	-3016	9448	13216	152	69	-81	-15152	7864	-2184	-1274	691	174	-16008	1392	-40	710	1778	-945	152	132	1
-8500	-9016	13500	-507	-4771	-2299	-9576	-824	-7816	-90	-3491	-220	-16744	-1584	-5816	46	-2404	-1766	-3032	9912	12944	106	83	-103	-17296	5664	-2840	-2905	683	-301	-15208	2680	-736	1231	1824	-723	115	131	1
-7604	-7156	10820	-881	-5275	-2345	-9096	424	-6528	-163	-4114	-354	-14800	1048	-6992	1075	-2345	-1557	-3312	10488	13120	4	81	-111	-17160	-2344	-4032	-2186	282	36	-14224	4360	-592	1016	1966	-536	121	131	1
-8320	-6580	10320	-1143	-5281	-2199	-10208	520	-6384	20	-4649	-601	-11696	3976	-7712	1501	-2180	-1247	-3448	9008	13504	-16	82	-114	-15200	-5856	-4680	433	323	314	-13520	3400	464	308	1962	-509	120	130	1
-11080	-9208	12028	-1317	-5216	-2347	-10880	584	-8216	156	-5048	-719	-8840	5608	-8312	1021	-2040	-986	-3464	9256	13352	28	109	-96	-15008	-8	-2960	2274	496	529	-13936	3880	2136	-11	2331	-576	120	130	1
-13360	-10924	14356	-1372	-5252	-2735	-11800	440	-10272	45	-5500	-753	-7456	5288	-8872	505	-1842	-759	-3448	9608	13040	27	121	-77	-16384	6304	-1520	2205	516	454	-14920	6120	3528	674	2856	-794	136	128	1
-14572	-10184	15184	-1714	-5145	-3077	-12192	104	-10216	8	-5581	-768	-6752	3928	-8200	469	-1665	-597	-3656	9360	12824	-27	124	-103	-16536	7416	-1264	2063	495	402	-17864	9944	456	827	2745	-910	114	130	1
-17060	-12984	15840	-1872	-4862	-3229	-15208	264	-9376	330	-6185	-1223	-5840	4736	-8152	916	-1513	-414	-3216	9976	12944	-123	104	-181	-14696	7176	2624	-486	880	-56	-19200	8616	928	38	1800	-278	114	131	1
-20072	-14420	18612	-1842	-4408	-3448	-17992	-48	-13152	793	-6428	-1510	-4416	6616	-8240	1053	-1301	-33	-3328	9488	13568	-191	110	-238	-14984	3688	-24	-996	1227	-80	-16880	6952	4032	-398	1265	50	123	127	1
-26836	-12280	21704	-2186	-3626	-4110	-21960	-2752	-15552	1459	-6578	-1427	-3920	4792	-4720	989	-1100	394	-3640	10240	14168	-156	158	-310	-16608	1152	-1928	-437	1491	-17	-16224	4744	4368	141	1413	30	119	128	1
-32768	-5752	21344	-2498	-2848	-4397	-26048	-4680	-18208	1567	-6234	-1027	-7368	-2712	2048	963	-1075	-20	-3640	9872	13848	-112	298	-450	-17528	1240	-1928	379	1617	56	-15760	2664	2600	779	1384	-49	121	130	1
-32768	680	19076	-2515	-2243	-4132	-26376	-1992	-20192	608	-5310	-554	-16088	-10504	5832	-94	-794	-1212	-3096	9560	14752	124	489	-586	-17344	2136	-3488	901	1808	59	-15488	2208	1128	1239	1265	-33	126	130	1
-32768	4292	7636	-1010	-2771	-3250	-16128	-1976	-24536	-419	-3998	-720	-24352	-8120	16688	-1308	-541	-1454	-3592	9704	14880	403	812	-930	-18872	4056	-3576	930	2020	3	-17264	984	616	1583	1296	0	122	132	1
-32768	22952	-8080	-611	-2640	-1170	-12536	-1824	-21360	-1423	-2472	-817	-21680	-6488	19832	-1605	379	-609	-256	16392	20248	585	1239	-1248	-20512	1176	-4608	921	2117	77	-19168	2808	-256	2024	1200	-56	124	123	1
-32768	25984	-12668	-1424	-1440	815	-8952	-4312	-23704	-1510	-439	-830	-18984	-10624	13760	-1102	118	23	-3080	10808	17160	561	1946	-1310	-22328	-1272	-4304	1017	2330	-183	-20008	6528	264	1955	984	-35	123	136	1
-32768	12172	-8456	298	-209	1569	-7384	-2920	-22464	-339	1773	-80	-13792	-11528	7632	-721	454	378	-3064	4896	17840	847	2668	-1432	-21256	1216	-2432	879	2653	-330	-19048	9184	3688	1297	591	-226	120	127	1
-32768	7332	-1968	1741	797	1577	-11584	-1720	-22432	235	3232	366	-7864	-9040	3424	-192	-344	-299	-2352	11608	16864	1230	3246	-1806	-22000	2824	-824	191	3000	-471	-19240	9480	8016	576	58	-337	123	134	1
27752	-31696	31924	4940	3593	2252	-26088	-18064	32767	-4580	1867	275	-4352	1304	-18432	-1140	2523	845	-2360	10680	18728	1958	3894	-2433	-25808	-896	-2344	-80	3340	-580	-20496	12520	14136	494	-1225	-270	123	146	1
-32768	21756	7648	1212	5002	2370	-32360	-7280	-13312	4874	2925	-1470	-32768	-17464	24520	2080	-33	307	-1112	17920	17240	2122	5140	-3374	-32768	-11112	4944	1059	3588	-852	-25768	4592	20848	-41	-2007	-5	123	136	1
-29316	448	31900	423	2861	2020	-13792	21448	-16136	5538	3806	1901	-25352	5584	14680	4621	1668	187	-10816	22288	23136	2159	6469	-4692	-32768	-4800	4120	3053	3697	-450	-22392	-7312	19616	-666	-2521	-765	122	120	1
-7892	-29784	11508	362	2118	1055	-27896	6408	-1752	977	3428	197	-16960	19224	-16216	2403	2256	595	-13624	22792	26424	2106	6556	-4832	-32768	13184	3048	3075	3783	-702	-23144	344	4472	1316	-1828	-900	103	130	1
-860	6124	17784	938	473	685	-14352	-10976	-12528	128	2095	-1306	-9152	8000	-21728	-1940	1895	145	-9400	30976	30752	-279	6752	-5564	-26304	14584	5352	1192	3694	-1160	-27168	13576	-15768	2858	-1126	23	134	125	1
-10180	-7316	12912	588	26	285	-11304	-4168	-12896	1013	1753	-367	-6320	-6536	-13096	-3851	1828	299	-17520	20696	19312	633	5620	-4130	-22336	5040	-22480	-2090	3535	-1097	-29056	13512	-9504	919	-2322	936	132	128	1
-8340	-8376	12628	293	26	103	-18952	1016	-10176	44	1299	-60	-18856	-12864	-11824	-1956	1841	-223	-11072	32767	32767	-439	-1002	-481	-16424	5208	-19792	-4363	2525	-1419	-32768	8888	-5296	-1752	-3066	974	117	131	1
-8172	-8068	11412	93	73	104	-21272	2232	-5752	-2663	724	-212	-20608	1360	-5008	380	1721	-2	15872	7688	15688	-2552	-2366	-1407	-27840	232	5816	858	898	-936	-32768	3184	-8784	-2880	-3354	931	118	130	1
-7256	-6812	12588	-119	171	20	-17048	-3624	-4064	-3362	297	-573	-20088	2600	-3696	472	1704	65	5600	11280	14760	-1223	-3151	-1476	-10784	-840	-9056	-770	-649	-338	-24912	-1272	-5496	-1982	-3134	1778	124	130	1
-7636	-8564	11636	-268	194	23	-15064	-11608	-1680	-1794	316	-510	-16600	-2280	-3296	-906	1717	1177	10256	21048	8280	-1826	-3725	301	-4000	-3304	-5736	195	-1265	-596	-21032	-2096	-6632	-378	-2908	1490	120	129	1
-7320	-8192	11284	-247	207	52	-12592	-12368	-1648	871	677	-141	-14048	-5240	-2672	-505	1558	1247	6048	10984	7400	-1973	-3645	1738	-8264	-3168	-5424	1875	-1980	-664	-18904	1704	-7048	935	-2828	1634	122	129	1
-7840	-9736	10324	-42	169	116	-14368	-6360	-1616	2130	771	218	-12888	-7056	-2664	278	1521	1070	4088	11144	6560	-809	-3661	2734	-10640	3584	-6696	2039	-3219	-306	-17208	4496	-7344	805	-2618	1778	122	129	1
-7784	-8740	11104	169	102	167	-17352	936	-2800	842	657	-121	-15648	-2752	-520	707	1645	726	672	13408	7448	-593	-3564	3165	-9592	3928	-6720	1411	-4260	14	-14968	3824	-7808	-231	-2321	1608	125	127	1
-7900	-7292	12040	89	136	143	-16192	-8	-1352	-892	470	-232	-16056	2096	1864	688	1850	653	-2024	13128	9344	-420	-3727	3337	-6760	5816	-6808	320	-4837	365	-14048	2280	-8680	-1398	-2154	1174	124	127	1
-7756	-8104	11256	18	157	113	-14744	-5208	680	-1781	533	-227	-14760	-984	4496	-225	2332	708	-4912	14912	10824	-153	-4113	3372	-8952	5320	-7752	-697	-5066	437	-11312	368	-9232	-1898	-1975	878	119	128	1
-8124	-8064	10856	54	124	150	-13160	-9040	1600	-1274	738	-131	-15544	-4592	4384	-1294	2685	536	-7288	17320	13136	-37	-4552	3385	-9728	3016	-10392	-1282	-5487	454	-9008	-1448	-9808	-2038	-1755	756	119	128	1
-8104	-9152	10820	143	55	203	-12296	-8280	2064	-277	1059	-83	-16856	-7512	-80	-772	2090	359	-9352	17312	15304	382	-4995	3479	-9896	2832	-11064	-1371	-5576	498	-7584	-2344	-9424	-2118	-1216	669	124	128	1
-8200	-8352	11460	215	-24	268	-14112	-5632	-1288	243	1323	-65	-18536	-4784	-2848	-338	1465	39	-11448	19240	15768	837	-5317	3379	-14320	848	-10000	-1387	-6472	732	-6840	-2624	-10088	-2499	-1182	493	125	129	1
-8172	-7792	11840	192	-10	319	-16416	-3864	-4696	98	1343	-98	-15024	-1880	-4040	-543	1377	130	-12744	22816	17320	1146	-5245	3412	-15256	-1224	-12432	-994	-6668	966	-5512	-6088	-11568	-2807	-1058	165	125	129	1
-6668	-9572	11420	156	82	421	-17336	-3912	-4824	-483	1225	-121	-15176	56	-4968	-1041	1561	427	-16928	31664	21936	965	-4757	4116	-20288	-904	-16080	-302	-6890	1290	-5312	-9592	-8736	-2440	-814	-447	128	128	1
-8192	-7828	11792	-26	172	655	-16312	-5584	-4648	-970	1114	-168	-16336	-80	-4448	-843	1528	469	-25672	19912	25864	1608	-3881	5280	-26872	592	-16768	0	-6982	1484	-5560	-4960	-1784	-1802	-728	-534	128	128	1
-8264	-7516	12848	-192	483	922	-17640	-4968	-1176	-1167	1134	-200	-19168	-2664	-3280	-573	1247	305	-32768	19608	27736	2712	-3167	5141	-28160	4464	-22728	254	-6327	1220	-6128	5424	5448	-963	-237	461	125	127	1
-8384	-6444	13572	25	755	1115	-17240	-4880	-1496	-1218	1307	-121	-18912	-5880	1144	-906	1167	128	-32768	19808	22672	1377	-3408	3818	-24480	6840	-21176	280	-5089	1128	-19672	8528	18576	-5	-33	1547	155	129	1
-8220	-8428	13596	142	1185	1190	-18032	-4992	-480	-1172	1595	6	-18384	-5560	3136	-1161	1181	-18	-32768	-3336	10040	433	-2911	1927	-14448	6480	-25208	-1709	-3350	699	-24456	8984	30016	1942	450	1269	114	127	1
-8752	-8420	14024	121	1744	1334	-20440	-3800	-2128	-856	1913	92	-19296	-2736	2088	-981	1211	116	-32768	-5720	-2608	1466	-2438	-212	-12224	-5016	-28208	-281	-1353	685	-20112	9864	29824	1606	635	777	116	126	1
-8096	-5884	15708	45	2433	1379	-20328	-1016	-2536	-772	2168	227	-18432	-3608	1504	-759	1111	465	-32768	-5448	-2280	384	-437	-1543	-1400	-2704	-23064	2000	1397	792	-17256	9864	15792	1642	400	336	113	126	1
-8012	-5744	14868	-184	3163	1387	-19448	-1144	-1144	-659	2430	456	-18416	-3312	2712	-609	800	573	-32768	5776	6016	-886	1289	-1734	-7448	40	-23872	2391	3858	61	-11072	7632	3912	1342	708	308	110	127	1
-8928	-7732	13676	-465	3796	1621	-19088	-1952	976	-628	2691	470	-19768	-2312	6440	-556	214	579	32767	8536	21040	-6376	4088	-2756	-32768	23624	21880	6369	4119	-75	-2384	10296	-3096	1874	165	156	128	125	1
-9952	-7936	14388	-599	4498	2100	-21272	-3352	1464	-1014	2963	462	-20360	-6696	10368	-828	-677	404	-30536	-24016	18136	-496	5710	-1734	-9776	-8576	-6632	-3570	1708	582	-24832	32767	4448	1298	2467	621	132	122	1
-8020	-9316	15120	-718	5878	2631	-30672	-2112	4824	-1517	3179	826	-23192	-11952	15840	-1031	-1862	-316	-25368	-1568	32767	-337	2860	-1729	-14744	-23424	-14896	-7564	4422	-1578	-32768	2320	5528	-5061	2212	-1135	91	125	1
-16792	-12320	17016	-454	6996	3892	-32368	-952	6312	-2752	3343	795	-23416	-2192	10072	-1346	-2658	182	-2064	22528	4864	-162	2150	-1449	-27976	-6288	-5552	-3905	3674	-1668	-19856	-30664	-22112	-7674	1365	-1066	135	125	1
-31040	-15552	22640	1536	6347	4716	-29904	-15496	4968	-3512	3330	703	-25128	-3264	64	-726	-1677	436	-19600	5304	27480	-114	2324	-1142	-8072	6696	-15216	-3615	2448	202	-11816	-14208	2464	-1247	-320	516	136	129	1
-22588	-20440	29824	927	6273	4389	-24392	-14928	-8232	-1087	3880	1181	-23608	-7696	-12584	-382	-1277	-628	-3464	18544	14376	-595	521	-466	-6672	-1752	-13528	-2273	1581	744	-11992	-608	-13280	2877	1997	-722	103	129	1
-8660	-24644	23024	-1199	3914	2838	-23688	-4816	-11344	2156	3418	1444	-31840	1144	-8688	1025	-2562	-1196	-5704	12568	14136	-224	150	-207	-32768	-9008	-15280	841	1616	331	-21992	5096	-15288	4415	2785	1346	116	127	1
-9232	-32768	32767	1358	-975	1157	-22264	-5456	-4776	1655	1839	712	-32768	5600	-7632	1176	-3169	-1244	-4560	10008	14528	-218	44	-99	-20216	584	-8600	3875	1147	615	-19928	10584	-6688	3564	1937	1202	124	129	1
2952	-14284	21756	412	-2227	863	-18888	1336	-3368	1295	243	134	-30192	4968	-7704	1086	-3348	-1317	-3544	8152	14352	-87	30	-84	-13208	-408	-4904	4412	797	764	-15776	8152	-1896	1667	1638	-92	127	130	1
1408	-19852	17236	-358	-3187	-35	-13896	-576	-6896	601	-794	248	-24840	7000	-6296	60	-3164	-1464	-3352	8272	14472	126	71	-87	-16584	5336	-3456	3940	508	890	-15600	4456	-1664	318	1539	-1067	128	130	1
1216	-15608	14148	-15	-3922	-902	-9488	3208	-5920	-564	-2020	-143	-21264	3432	-7016	-1161	-2911	-1284	-3032	9408	13040	205	50	-110	-15672	8072	-696	1125	465	578	-14160	2832	688	-27	1383	-1345	122	131	1
-1240	-10856	12872	-545	-4247	-1749	-10504	2216	-6872	-1814	-3166	-266	-18360	-1080	-6952	-1114	-2684	-1291	-3520	9592	13520	212	30	-149	-14664	9760	-1664	-1657	872	35	-13984	4384	432	78	1495	-1161	140	131	1
-4920	-9164	12556	-929	-4495	-2296	-9304	-152	-6752	-2131	-4031	-334	-15560	-736	-8152	-273	-2525	-1320	-3000	10696	12008	73	50	-177	-17472	6112	-2656	-3194	849	-409	-14792	4400	-1008	120	1807	-717	61	132	1
-6512	-7176	12508	-1228	-4716	-2600	-8936	-312	-6488	-2078	-4133	-366	-13184	1584	-8832	459	-2324	-1177	-3312	10328	12368	-194	114	-240	-16872	-3304	-4232	-2276	416	-31	-14720	2816	568	73	1942	-406	136	134	1
-9008	-8180	13804	-1443	-4847	-2797	-8664	-2168	-7016	-412	-4930	-774	-10400	3680	-9552	899	-2026	-979	-3256	9984	12632	-228	105	-247	-15456	-5496	-4016	759	498	327	-13552	2728	1504	-227	1900	-450	120	130	1
-11572	-10796	15388	-1352	-5162	-3077	-10632	-1784	-8224	831	-5316	-914	-8056	5200	-10160	537	-1842	-800	-3936	8952	13784	-231	223	-206	-15400	-4544	-4184	1154	524	362	-13720	5248	3672	-15	2410	-457	121	129	1
-12828	-9472	16708	-1575	-5341	-3277	-12880	-1392	-8472	1392	-5833	-854	-6304	4856	-10032	231	-1649	-590	-4032	9480	13208	-213	228	-188	-16480	8640	-1336	1607	680	308	-15712	8776	1912	812	2873	-823	126	129	1
-16076	-12736	17592	-1856	-5279	-3470	-14568	504	-9344	1901	-6220	-865	-5144	4264	-9520	463	-1456	-434	-3368	9760	13144	-285	228	-253	-15848	9040	1520	18	801	-72	-18576	8664	-48	548	2683	-834	125	131	1
-18508	-15392	18828	-1608	-4963	-3733	-17528	2280	-11608	1924	-6585	-954	-3984	6256	-9008	830	-1302	-181	-3224	9936	13344	-408	268	-378	-15504	5240	680	-910	1049	-98	-18704	5224	1192	-235	1884	-274	98	130	1
-24996	-14492	21828	-1721	-4234	-4279	-18344	2136	-12032	1882	-6661	-937	-2288	4992	-7736	1311	-1165	329	-3312	9344	13968	-483	369	-526	-15728	1456	448	-844	1331	11	-16936	5288	4648	-277	1494	5	108	132	1
-32768	-12700	21428	-1778	-3400	-4820	-24384	-3496	-17376	988	-6811	-656	-2944	-208	-2384	2057	-1049	392	-5400	7504	15704	-248	431	-574	-15792	432	-2656	-268	1561	74	-15928	5584	4648	248	1679	-67	55	132	1
-32768	-3572	19560	-1947	-2537	-4663	-28168	-5680	-20672	535	-6113	-558	-9640	-8048	6520	2160	-1128	-639	-7232	8736	15448	32	504	-683	-17080	1528	-3160	572	1847	63	-14592	3712	2536	753	1628	-122	144	133	1
-32768	-1656	9732	-1594	-2499	-4082	-19768	-4288	-23944	510	-4662	-661	-25008	-11320	17984	1184	-1458	-1720	-2264	12184	16224	243	669	-899	-18288	3816	-3208	983	1981	144	-15544	2224	1272	1131	1607	-103	114	128	1
-32768	19656	-8512	-728	-2532	-2311	-10200	-5680	-22688	-265	-2899	-669	-22240	-5712	25992	-47	101	42	-5560	11576	17360	279	1176	-1209	-19416	2536	-3840	896	2200	-11	-18072	2168	864	1418	1546	55	128	144	1
-32768	29652	-17000	-1408	-1237	-51	-7896	-3416	-23424	-539	-554	-663	-20984	-4264	18720	-1000	-11	-91	-4784	6104	19136	223	1760	-1318	-19320	1072	-6080	889	2465	-39	-18088	5040	-120	1856	1294	-77	125	131	1
-32768	11092	-12420	689	6	1183	-4960	-3712	-24072	-295	1863	-36	-16680	-7944	8592	-1501	513	-35	-4480	6856	18680	561	2423	-1422	-21680	-384	-4744	674	2685	-369	-18408	8208	-96	1686	1019	-123	122	125	1
-32768	5320	-5104	2628	1042	1299	-10152	-6160	-21920	53	3414	328	-7872	-12952	5504	-1061	-446	-650	-4408	8704	17928	950	3098	-1643	-21624	832	-2328	772	2937	-433	-19160	11064	5888	844	389	-365	122	123	1
32767	4448	8592	2190	4362	938	-17736	-7648	-4312	847	3840	271	6728	-3712	-23176	-2356	3119	422	-3032	10768	17016	1492	3786	-2206	-24232	2328	-1752	631	3281	-568	-19448	14000	13072	533	-845	-258	124	132	1
-20452	17152	13720	13	6024	2736	-32768	12800	-608	4022	2247	120	-32768	-14728	15344	1943	-389	259	-1392	18712	19912	1363	4808	-2979	-32768	3664	7408	1304	3482	-924	-23128	13952	17960	473	-1415	125	124	133	1
-32768	-3116	32767	888	3303	2349	-13112	-11256	-21296	6625	3903	1544	-29896	7120	7576	5214	1689	-153	-2984	19792	24400	1618	5926	-4445	-32768	-2760	9568	1544	3910	-843	-28248	2608	20360	-572	-2192	-122	123	126	1
-29688	-32768	13132	1159	908	1375	-18160	-6992	-16528	1721	3849	-158	-21176	13640	-10568	2711	1935	610	-17160	32767	32767	1078	7088	-5912	-32768	6560	6432	2773	4167	-821	-25480	-2160	9416	-590	-2319	-439	123	120	1
-740	6976	13652	538	34	598	-16536	-5768	-15368	1613	2272	-1360	-7400	3968	-18544	-777	1675	-453	-14976	28960	32767	-1436	6656	-5244	-31936	14296	-7256	1949	4678	-1082	-27432	4712	-14200	1142	-1456	107	120	131	1
-8500	-3700	15316	513	-124	221	-11544	-672	-14400	648	1712	-499	-3848	-3464	-14312	-2914	2219	467	-32768	32767	32767	-286	4410	-4503	-22528	2584	-25216	-2590	3685	-1535	-32768	4992	-9040	373	-2334	968	130	126	1
-7128	-6548	13052	308	-40	100	-19616	1816	-11528	-379	1184	-365	-22744	-9512	-14040	-1534	1897	323	19088	32767	27168	-1820	-226	-1243	-30200	-2288	8	-1522	1937	-604	-32768	-2872	-5640	-972	-3744	975	126	129	1
-6908	-7612	13004	135	26	90	-20600	4248	-6112	-3325	721	-310	-21496	4744	-4536	603	1881	-224	8984	15728	18600	-628	-682	-829	-19912	-7232	-8240	-315	241	193	-32768	-3920	-7160	-1106	-4086	976	122	127	1
-6736	-7168	12672	-138	220	45	-17464	-7088	-4320	-3282	347	-610	-18904	4056	-3056	-243	2043	387	12344	19416	14416	40	-1805	557	-11104	-3856	-5328	1093	-746	196	-27328	-6040	-5744	-249	-3893	1586	116	127	1
-7164	-8160	11816	-207	260	90	-15720	-13808	-3464	-460	400	-627	-16208	-640	-4784	-1312	1948	1213	10280	9240	12864	51	-2461	1836	-9952	-4120	-5184	1308	-896	236	-22720	-3296	-7256	1536	-3401	1548	118	127	1
-7156	-8260	11792	-140	296	117	-13296	-6864	-2016	1720	581	-141	-15080	-4760	-2784	-659	1749	1377	5240	8440	14448	660	-3009	2802	-8440	-1232	-5168	1992	-3030	984	-19416	-40	-8672	2412	-3335	1761	120	129	1
-8064	-8980	10956	30	232	164	-14984	-2520	-2336	1580	762	124	-12680	-5776	-2552	415	1743	1068	872	9280	17208	531	-3749	3439	-8064	-432	-5848	1178	-3885	1123	-15592	2384	-8968	1943	-3077	1792	128	126	1
-7568	-7736	11936	98	177	189	-17968	2040	-1432	239	597	-198	-15376	-1488	1328	1058	1685	834	-2000	7120	18256	530	-4760	3638	-6936	32	-6104	469	-4484	1241	-13688	2544	-9432	748	-2707	1589	123	130	1
-7508	-7384	12244	40	193	170	-15240	-1984	-1104	-1103	517	-455	-16096	1448	2800	1022	2046	883	-3456	7704	17344	452	-5653	3225	-9184	-104	-4888	-168	-5060	1351	-12176	1432	-9600	-804	-2356	1141	118	128	1
-8048	-8156	11656	7	180	167	-15104	-6024	576	-1311	685	-303	-14960	-2688	4360	-224	2648	837	-4968	9120	18048	407	-6160	2717	-11520	-2504	-6816	-789	-5649	1514	-10136	-984	-10808	-1474	-2316	824	122	127	1
-8224	-7924	11276	45	117	190	-13272	-8432	-520	-739	877	-130	-15984	-5240	1640	-847	2915	555	-6136	10744	21144	872	-6404	2549	-13744	-3744	-10368	-1246	-6351	1523	-6888	-3296	-10672	-1604	-1927	704	125	126	1
-7988	-8940	11308	179	-23	308	-13568	-6216	-368	169	1038	-171	-17864	-5216	-4224	-450	2291	392	-9832	13928	23952	1546	-6547	2556	-17392	-6008	-10120	-565	-6885	1347	-5576	-4168	-10768	-1616	-1586	427	124	127	1
-7184	-10032	12896	357	6	575	-16632	-3960	-3160	212	1124	-206	-19040	-248	-5152	-258	1639	253	-12736	17336	24856	1643	-6037	2742	-19280	-7904	-12592	669	-7081	1502	-4880	-4120	-10640	-1832	-1626	182	126	126	1
-7996	-6084	13088	278	258	664	-18840	-1784	-3928	-514	1081	-236	-17016	592	-3176	-578	1527	310	-18536	25128	27984	1399	-4864	3648	-22976	-6416	-19736	1630	-6914	1798	-5560	-1240	-7280	-2685	-1877	44	130	126	1
-7796	-7028	13476	240	541	630	-16992	-3160	-2064	-1132	1109	-110	-17456	-2352	-776	-1130	1537	307	-30504	21024	31224	1654	-3669	5157	-26840	3016	-23648	620	-6718	1990	-5968	3936	-824	-2984	-1910	258	125	126	1
-8080	-8388	13260	211	846	715	-15816	-6912	-696	-919	1303	-16	-17904	-3936	232	-842	1335	166	-32768	14704	28616	1043	-3068	5289	-22392	7968	-25784	-2066	-6032	1315	-10488	11472	8568	-2544	-1525	970	132	125	1
-8080	-8128	13124	202	889	750	-17504	-6312	-608	-498	1654	64	-19560	-7200	1760	-582	1168	197	-32768	8216	18432	183	-2569	4028	-17248	7080	-31880	-5071	-4314	-7	-10960	9120	11936	-1193	445	828	132	125	1
-8720	-8332	14500	224	1630	1162	-20344	-4256	-600	-479	1953	155	-20360	-6632	3464	-809	1231	212	-32768	5024	1104	-1014	-1613	2917	-14232	-2040	-32768	-4896	-2264	-769	-20208	-1424	28992	-1283	403	181	107	126	1
-8872	-8304	15568	214	2185	1446	-21376	-2640	-504	-895	2213	184	-20344	-3184	3384	-739	1151	265	-32768	-5984	-5896	57	261	1566	-7360	-1432	-31032	-1905	-115	-77	-23096	-2032	22048	-835	522	498	104	125	1
-7604	-8152	16104	179	2813	1721	-21592	-2800	-752	-1097	2451	286	-19920	-2232	2832	-572	904	335	-32768	-3392	2984	524	1746	153	-5080	3808	-29144	10	1878	540	-17472	6064	17920	1110	201	-75	121	125	1
-8208	-6964	15500	87	3532	1957	-21168	-1472	680	-999	2706	465	-20480	-3840	5272	-579	477	374	11600	7088	6648	-782	2620	-978	-9352	4960	-22672	1100	3405	293	8624	208	-2520	2765	2318	-509	91	124	1
-8776	-7932	15356	9	4238	2433	-21912	-1776	3096	-898	2992	559	-21280	-5352	10704	-762	-294	349	32767	8128	32767	-754	4714	-3518	-32768	-7856	32767	6161	1683	-1040	-23384	14392	-4608	4847	2726	-202	125	119	1
-7660	-10592	18568	203	5210	3150	-28872	-5384	6560	-1063	3259	718	-25808	-13152	16744	-898	-1717	-31	-31560	20688	32767	-52	3951	-2169	-19448	28424	-24968	-85	1267	986	-28064	26232	13168	-1271	1102	1187	93	124	1
-21068	-23516	19268	974	6280	4412	-32768	-3920	14728	-1886	3442	821	-21784	-6656	9504	-1413	-2710	-319	-7720	10512	18224	-342	2230	-1665	-20440	-4440	-11144	-1934	4190	-1220	-18776	-10048	-13272	-3816	2229	-1231	146	130	1
-25320	-19888	28092	1700	6254	4773	-31216	-16056	11392	-2786	3788	733	-25440	-4568	5624	-356	-2192	160	-7680	10184	16696	-114	1926	-1502	-13384	4912	-11312	-3005	2941	-154	-15840	-19208	-8712	-1260	853	213	117	127	1
-22240	-22608	28400	1370	5985	4808	-22800	-13752	-6776	-385	4015	809	-22128	-4728	-12784	101	-1302	-720	-9920	12072	18224	-150	1851	-1453	-13536	5752	-14112	-3066	2698	-106	-16024	5952	-15032	2726	1914	49	126	128	1
-32212	-14448	32767	-78	3424	4017	-23960	-2848	-20352	1630	3606	922	-32768	984	-10400	1074	-2562	-1217	-4176	14576	13376	-477	199	-188	-26256	-3976	-12456	-2845	1303	366	-18608	10360	-15624	2975	2106	48	124	127	1
-7436	-32768	30072	1239	-1697	1224	-26320	-288	-2360	-340	1615	494	-32768	8688	-10312	1096	-3243	-1329	-3568	9688	14968	-186	84	-74	-19880	-8848	-8064	609	1120	205	-20872	4024	-5304	343	1990	84	131	128	1
2836	-13824	19672	367	-1948	392	-20672	432	-6312	-346	-12	-51	-30776	4392	-9616	668	-3514	-1455	-3152	9040	14536	-2	100	-66	-14712	-2144	-5888	2720	1140	420	-17584	-216	-1120	3	1843	-150	127	128	1
2452	-21220	14556	-615	-2273	-1041	-13608	-352	-6760	-509	-902	304	-24344	6288	-8184	86	-3308	-1837	-2952	8352	14416	109	121	-87	-15728	1360	-4304	3653	701	963	-14816	2536	464	449	1782	-432	129	131	1
3520	-15512	12424	-231	-2698	-2043	-9208	2024	-6248	-1330	-2144	-168	-22784	4448	-8176	-1045	-2964	-1837	-2504	8424	14048	206	112	-116	-17808	6824	-1784	2248	359	773	-14496	4088	1136	498	1824	-810	133	131	1
-368	-9504	13352	-908	-2859	-2877	-8568	-2272	-6648	-1431	-3167	-403	-18640	720	-8200	-1203	-2558	-1803	-2632	9096	13520	217	114	-154	-15712	6864	-1496	156	508	451	-14552	5160	536	342	1628	-919	200	131	1
-6516	-9564	14860	-1279	-3438	-3387	-7208	-2744	-6920	-89	-3891	-575	-14824	-16	-8320	-331	-2446	-1761	-2504	9912	12920	83	110	-208	-15840	7184	-1112	-1554	782	-97	-13816	4536	592	175	1722	-818	106	135	1
-8340	-6936	14612	-1375	-4144	-3510	-7072	-688	-6576	964	-4378	-669	-13904	1656	-8040	652	-2250	-1542	-2784	10240	13280	-100	120	-248	-16120	2040	-2952	-2093	537	-26	-15312	3184	152	-137	1930	-543	120	132	1
-8472	-6512	14592	-1410	-4233	-3493	-8976	-216	-7080	1719	-4820	-781	-11088	4280	-8816	1298	-2083	-1228	-3432	8952	13592	-171	132	-252	-16416	-1888	-3264	-968	386	218	-13800	2432	2648	-383	1916	-600	117	131	1
-11940	-8220	15656	-1605	-4905	-3218	-12280	1080	-8600	2311	-5255	-885	-8432	6640	-9336	1142	-1906	-910	-3656	8528	14088	-146	163	-221	-15768	-1576	-2224	746	573	396	-13640	3768	5024	-270	2235	-379	125	131	1
-13848	-8584	17240	-1874	-5042	-3308	-14416	1792	-9152	2007	-5826	-608	-6560	7168	-9632	713	-1757	-620	-3832	8944	14408	-91	180	-206	-15616	3936	-1152	1362	830	371	-14784	6080	5240	743	2768	-309	131	131	1
-16968	-11888	18284	-2014	-5011	-3425	-15200	3768	-10008	1161	-6319	-666	-5152	6904	-9000	731	-1643	-425	-3544	9496	13752	-122	191	-237	-15464	7056	272	752	931	186	-17464	8848	864	1360	2910	-727	118	131	1
-20412	-14464	19596	-1856	-4715	-3765	-16776	2800	-11600	256	-6708	-883	-3768	6832	-8576	917	-1451	-238	-3640	9576	14256	-153	215	-335	-16568	5688	-800	-208	1013	133	-18720	6752	-1400	627	2529	-557	119	133	1
-26280	-15372	21840	-1715	-4155	-4439	-20336	-992	-15464	46	-6942	-1033	-2512	4960	-7904	1183	-1303	56	-4112	8104	14776	-40	286	-436	-17464	1352	-3560	-606	1167	154	-17128	4496	-1072	-350	1802	-261	123	135	1
-32768	-8832	22384	-1885	-3401	-5049	-23592	-6056	-18336	597	-6800	-1055	-2536	-848	-2272	1557	-1205	168	-4520	7696	14960	134	439	-512	-17304	208	-1288	68	1391	192	-16992	4768	2480	-527	1591	-238	109	136	1
-32768	-468	19900	-2553	-2754	-4645	-26680	-6560	-20704	980	-6012	-804	-8024	-7952	7128	1547	-1428	-785	-3608	10288	15296	249	677	-612	-15688	3744	-296	403	1635	195	-15944	5864	5112	-99	1488	-208	45	135	1
-32768	3392	12216	-2054	-2845	-3710	-20616	-3816	-23184	546	-4560	-709	-22312	-9624	18528	237	-1218	-1561	-2984	10192	16000	249	737	-626	-18824	5776	-2480	328	1935	139	-16880	3064	3264	695	1536	29	124	131	1
-32768	19156	-4820	-732	-2854	-1906	-12200	-2192	-23384	-447	-3015	-523	-23696	-4152	23624	-1123	25	-506	-2704	11024	16328	270	1045	-880	-21464	944	-3320	451	2138	80	-19840	1976	1760	1155	1455	109	126	141	1
-32768	30276	-14428	-1414	-1726	290	-9880	-696	-25360	-1791	-926	-726	-24144	-4832	17688	-2008	164	-487	-3280	8776	18192	482	2045	-1221	-20968	-704	-4120	778	2376	-52	-19048	3656	1912	1734	1250	39	126	136	1
-32768	17200	-12408	-386	-369	1647	-7152	-3744	-23224	-1916	1321	-291	-17256	-9248	9104	-2414	567	74	-3408	8256	18120	801	2687	-1418	-20880	640	-3168	919	2622	-139	-19184	5576	2832	1901	951	-81	124	136	1
-32768	6768	-4816	1498	778	1916	-9424	-4640	-23960	-838	3147	231	-15096	-12808	14896	-1770	65	139	-3168	9912	17240	1246	3283	-1720	-21640	2088	-1200	640	2891	-337	-19456	9320	5672	1373	309	-186	123	134	1
17092	-32768	10652	5603	3685	1871	-15000	-12600	-6304	-596	4045	434	6384	-6184	-16624	-2224	2705	726	-2336	9112	17800	1914	3914	-2288	-23824	336	-1816	446	3247	-431	-19328	13784	12488	1043	-1002	-89	120	134	1
-21368	25548	11912	486	4852	2599	-32768	6280	2904	3910	2229	-475	-32768	-27920	8136	1421	530	516	-2064	15632	19968	2197	5039	-2914	-32768	-3784	7944	1285	3559	-870	-22728	12800	15136	1038	-1423	182	124	137	1
-32768	-8908	32767	912	2562	1947	-6256	-720	-19720	8157	3901	2138	-32768	4768	10360	6562	1487	46	-7584	22864	24256	2524	6301	-4149	-32768	-7304	6256	2223	3549	-690	-27576	-536	19968	-297	-2629	-138	119	133	1
-24652	-27216	17176	840	1294	1387	-17640	704	-8088	2279	3546	467	-19200	21040	-13632	5212	2152	1322	-18448	32432	27824	969	7078	-5104	-32768	8696	4128	3184	3765	-697	-22040	-2624	7296	-152	-2053	-766	112	135	1
-8672	-4948	14756	1264	857	924	-15784	-10200	-11808	1404	2081	-1266	-7128	12600	-14616	475	1462	370	-18408	28472	32767	-620	6891	-4857	-27848	16336	-1400	1551	4249	-1227	-26800	7544	-14200	1595	-1236	-17	129	129	1
-7284	-4492	11976	828	-85	444	-12240	-1040	-14384	1803	1878	-647	-8064	2736	-11976	-3181	1898	449	7168	26632	30816	1044	4030	-2895	-25904	14568	-3608	902	4299	-1315	-30432	9376	-9376	862	-2288	926	123	131	1
-8228	-5804	13776	397	-68	143	-23808	4720	-12368	-498	1592	-75	-21808	-7072	-13520	-2693	1750	-219	7280	32767	32767	-1093	-967	-1444	-25560	3920	-5184	-2467	2225	-997	-32768	2416	-4616	-907	-3266	948	122	132	1
-6924	-8148	12884	192	15	80	-17616	248	-3704	-3347	797	-176	-20856	-264	-3616	-1133	1691	-650	7424	13200	19808	-1957	-2223	-1671	-21616	-5128	-5656	-694	574	-281	-32768	0	-8160	-1663	-3469	882	120	131	1
-6756	-7684	12408	44	98	88	-16216	-2016	-5048	-4461	475	-659	-17632	-336	-2816	-1196	1893	128	9480	19744	13624	-1037	-3263	-592	-12104	-1792	-6128	195	-569	-120	-26456	-3056	-5336	-1140	-3351	1537	118	127	1
-7196	-7984	12424	-67	164	93	-16008	-13408	-2656	-2572	346	-419	-16464	-3312	-2176	-1610	1620	1026	9072	14496	10056	-1556	-3469	947	-9520	-4312	-5888	1606	-1439	-80	-23424	-1400	-6056	566	-3296	1491	114	129	1
-7084	-8212	12092	-81	162	96	-12952	-11032	-2448	626	765	-128	-14664	-6472	-2976	-825	1462	1322	6072	7888	9600	-550	-3457	2251	-11192	-2632	-6632	2067	-2611	185	-20080	2144	-6704	1464	-3084	1681	132	127	1
-6496	-8048	11804	-53	127	144	-15152	-7912	-2376	2442	974	305	-13344	-5352	-1104	-2	1365	1131	2320	9344	12128	147	-3427	3021	-10576	-136	-7184	1868	-3643	340	-18328	3448	-7544	943	-2887	1657	139	127	1
-7196	-8900	11256	143	91	190	-16656	760	-2264	2106	878	164	-14872	-2472	-1640	417	1420	905	-2056	8560	14544	358	-3800	3296	-7656	-112	-6664	1471	-4271	613	-17696	3816	-7792	670	-2845	1613	105	127	1
-7104	-7856	12096	182	71	175	-16640	1920	-1880	-105	645	-143	-16624	856	112	476	1480	770	-4688	9912	15544	533	-4484	3212	-8416	2816	-6656	624	-4676	863	-14504	1768	-8424	-1436	-2506	950	126	128	1
-7912	-7636	12024	136	96	170	-15048	-2624	-880	-1468	564	-201	-15112	1712	1328	405	1649	704	-6280	11640	16456	206	-5132	3001	-10592	1136	-7696	-516	-5021	926	-11712	-840	-9008	-1886	-2581	626	123	128	1
-8012	-7752	11976	139	95	187	-14552	-5648	-1032	-1412	688	-165	-13600	-1528	848	13	2008	900	-7136	9912	17912	513	-5471	2863	-12592	-1208	-9992	-1372	-5633	863	-8624	-1592	-8272	-1875	-2345	494	121	128	1
-7396	-7800	11808	129	112	190	-14592	-6648	-1896	-719	793	-113	-14824	-5592	2576	-630	2457	944	-9440	11216	17584	1048	-5631	2722	-15440	-3584	-9736	-1253	-6103	671	-7344	-2264	-7896	-1920	-1887	365	124	129	1
-7408	-7944	12024	133	115	223	-15024	-6816	-2176	-13	920	-50	-16536	-6320	-872	-740	2777	856	-12208	15184	16880	1032	-5174	2512	-15568	-6248	-11144	-213	-6267	733	-6272	-3848	-8312	-2181	-1729	230	123	127	1
-7480	-8828	12320	176	117	372	-16552	-4680	-3280	381	969	-63	-18432	-2456	-6288	-255	2291	778	-15408	20800	20560	858	-4444	2909	-14680	-6464	-16000	1320	-6123	1033	-4448	-4456	-6928	-2318	-1715	26	124	126	1
-7636	-8064	12560	105	193	519	-17992	-2272	-3976	-187	923	-122	-19864	1520	-4648	267	1706	599	-20168	22152	22768	1048	-4035	4098	-20624	536	-18888	1677	-6099	1574	-3944	-2680	-3488	-2297	-1836	-48	126	127	1
-7496	-7416	13132	71	411	632	-18144	-2240	-3680	-373	904	-118	-17392	-1752	16	-30	1442	510	-27928	18824	23728	1032	-3399	5110	-21472	1520	-18384	1579	-6101	1620	-4440	24	2632	-1715	-1512	-32	126	127	1
-7504	-8264	13452	132	668	658	-14960	-5712	112	-1037	1077	-21	-17704	-6128	2520	-426	1351	353	-32768	10040	23640	1227	-2905	4842	-19512	5776	-21272	-2736	-5265	746	-8680	7456	9888	-270	-927	198	127	125	1
-8756	-6872	12840	119	906	711	-16120	-6688	-184	-688	1466	117	-18240	-5280	3440	-591	1201	246	-32768	10144	14696	-67	-2832	3317	-18984	3704	-27112	-3558	-3817	-281	-14544	8600	11872	952	458	648	132	126	1
-8472	-7652	14176	150	1281	803	-18216	-5536	-1392	-312	1789	208	-18008	-2952	2544	-900	1214	250	-32768	6504	1736	-977	-2226	1835	-13376	-2848	-26792	-2133	-2419	-661	-18872	4632	19504	996	702	716	123	126	1
-8360	-7756	14788	83	1797	1015	-20688	-2576	-2400	-457	2050	250	-20176	-1600	1032	-998	1155	335	-32768	1696	-5064	-228	-623	695	-7408	800	-25792	-30	-710	277	-20496	4392	19200	741	322	313	115	126	1
-8248	-7396	15444	75	2396	1165	-20944	-1160	-2632	-927	2211	325	-19192	-1688	656	-996	1003	402	-32768	2208	-1968	582	907	-1	-6848	3488	-24400	777	1048	606	-15376	7352	13944	697	158	12	131	126	1
-8320	-7008	15352	3	3039	1332	-20400	-1384	-2200	-1026	2359	427	-18992	-2416	1952	-928	742	427	-32768	21512	-4856	-507	5424	-2091	-12784	3216	-8800	1938	2452	227	-6424	8136	15688	1194	-385	-286	113	124	1
-7884	-8640	15852	-162	3650	1605	-20560	-2872	-424	-964	2544	560	-19672	-5320	3672	-1030	347	466	1688	24816	32767	-945	4542	-3295	-32768	10016	15608	3508	2208	-711	-26176	23368	6952	2822	2063	180	107	124	1
-9436	-11084	15548	-45	4323	2052	-23368	-7016	2296	-739	2787	818	-21952	-10656	6312	-776	-109	305	-17064	7048	24608	-23	3471	-2097	-17760	11056	-15904	-2771	1962	4	-23232	9768	-840	-1427	2148	346	107	125	1
-9956	-12656	14752	122	5036	3091	-26912	-7696	3920	-504	3057	906	-24832	-17896	13272	-410	-1921	52	-10000	10736	14848	20	2244	-1677	-9792	-5728	-11616	-1886	3660	-977	-13208	-5280	-7824	-3303	1541	-389	119	125	1
-23984	-25824	12504	867	5575	4518	-30208	-6968	8160	-1757	3279	663	-21608	-5696	10136	-549	-2917	39	-7504	11504	17048	-212	2049	-1253	-16504	7608	-8624	-2102	2421	-258	-12816	-6448	-2072	-1732	943	-41	128	123	1
-27528	-13984	21484	2192	5221	5318	-27496	-13888	4944	-2743	3436	278	-21016	64	4464	982	-2050	248	-12464	16048	20320	-789	864	-1028	-17768	1384	-13904	-3494	1617	151	-18600	1128	-3344	594	1457	769	118	125	1
-27120	-12304	22720	1399	5167	4935	-21784	-12008	-8152	-1463	3791	694	-21960	-3712	-10440	-1	-1240	-685	-10752	11504	21472	-661	335	-306	-21552	-3904	-13272	-2405	1597	141	-19800	2048	-5064	893	1573	775	126	123	1
-9388	-24188	27824	-202	3388	3751	-23912	-5592	-13736	710	3627	968	-31272	-1136	-12264	343	-1786	-1329	-5400	11568	13856	-435	109	-201	-19800	-4504	-9080	-92	1272	198	-19016	5520	-3744	747	1951	234	123	126	1
-16136	-32768	31304	819	-515	1838	-23192	-4552	-9336	948	1690	452	-32768	8752	-9976	718	-2505	-1490	-1952	6624	16128	-179	68	-92	-15096	-2304	-5968	1244	1244	265	-18392	1568	-1448	106	1730	5	133	128	1
2420	-18572	16352	1608	-1422	598	-19696	2048	-3832	-91	682	94	-30304	6072	-10696	600	-3017	-1527	-3480	8696	14544	-30	36	-43	-15800	160	-5536	1610	868	535	-16192	2152	-504	150	1655	-371	124	129	1
3308	-12464	11976	121	-1129	-494	-13368	576	-6232	-217	-301	314	-23904	3136	-7984	30	-3048	-1880	-3744	9224	14112	88	45	-28	-17928	1304	-5320	1609	583	592	-14592	4848	-152	397	1687	-619	130	130	1
2516	-14180	10352	-269	-1334	-1595	-7552	1464	-6904	-627	-1246	186	-19024	4080	-6792	-660	-2682	-2108	-3376	8936	13944	154	56	-18	-17392	2200	-3864	1122	461	455	-15376	4680	-16	206	1612	-585	135	130	1
1140	-9524	11540	-404	-1682	-2474	-5632	1296	-6648	-889	-2167	-336	-18400	2720	-7480	-1175	-2188	-1854	-2520	8928	13160	195	52	-40	-16120	2896	-1960	179	510	289	-16264	2424	1264	128	1679	-540	157	132	1
-3736	-7056	14116	-980	-2309	-3099	-6944	-848	-7816	-379	-2896	-512	-15768	1016	-6624	-591	-2052	-1616	-2120	9040	12944	138	60	-128	-15768	2040	-2176	-758	560	214	-16384	392	2296	187	1677	-621	123	132	1
-6744	-5904	13864	-1337	-3254	-3291	-6984	760	-6272	470	-3516	-633	-14864	2088	-5904	461	-2087	-1464	-2696	9176	13160	15	124	-221	-16168	816	-2704	-922	425	285	-14928	344	3208	553	1632	-645	127	132	1
-7968	-3844	13544	-1535	-3872	-3093	-7136	1952	-5800	977	-4044	-830	-13904	2904	-5752	1239	-1971	-1133	-3176	9784	13080	-123	162	-231	-16480	-32	-3104	-121	270	367	-13792	2016	1600	1071	1725	-492	103	130	1
-10124	-4812	14228	-1663	-4327	-2919	-9768	1648	-6912	1470	-4350	-1027	-11120	4256	-5992	1732	-1958	-863	-3728	10472	12952	-221	136	-199	-16096	1144	-3080	824	287	450	-14088	4432	624	1134	1748	-390	125	130	1
-11596	-4904	15352	-1694	-4529	-2858	-13904	2840	-7800	1686	-4734	-1064	-8768	4960	-5640	1511	-1983	-617	-3600	9784	13064	-275	117	-165	-15512	3160	-1944	1015	405	398	-14088	4872	1656	849	1820	-466	130	130	1
-13636	-6224	15928	-1924	-4527	-2964	-14888	3624	-8400	1269	-5141	-813	-7456	4840	-5432	1218	-1921	-410	-3864	8552	13280	-265	117	-141	-15320	4840	-992	425	521	255	-14504	5640	2272	549	1926	-617	126	130	1
-15492	-8316	16660	-1722	-4401	-3166	-13832	3784	-8968	727	-5376	-841	-7352	4256	-5264	1081	-1835	-253	-3472	8960	13952	-224	140	-160	-16160	4728	-64	-303	688	130	-15072	8272	5488	540	2154	-590	119	130	1
-15928	-7856	17992	-1598	-4038	-3506	-15496	2544	-9552	465	-5606	-841	-5792	3256	-5248	1002	-1533	-90	-3592	9088	13664	-182	167	-191	-16328	3104	-208	-587	933	44	-16240	9656	3264	492	2596	-677	120	131	1
-18516	-9800	19476	-1657	-3660	-3737	-18240	816	-9752	144	-5872	-830	-4528	1584	-5624	1193	-1149	87	-592	4544	11984	-247	165	-249	-15736	2896	-288	-463	1113	50	-19136	8960	-64	-220	2373	-508	104	132	1
-23364	-11748	21676	-1349	-3515	-4004	-19480	-2632	-11688	451	-5910	-988	-4592	2240	-3136	1142	-735	289	-3784	9504	14376	-213	281	-352	-16056	2336	-1680	-96	1277	132	-18864	5128	-432	-911	1703	-245	121	134	1
-28296	-8528	23096	-1110	-3179	-4335	-23096	-5760	-12208	1475	-5731	-796	-7568	-720	1392	631	-462	177	-3648	8720	14448	-113	356	-420	-17304	1440	-3984	177	1406	142	-15712	4272	392	-614	1583	-244	110	132	1
-32768	-3196	19992	-1055	-2874	-4079	-25464	-6992	-13096	1947	-5099	-115	-13592	-5176	9008	-967	-551	-349	-1552	7840	12928	92	428	-533	-17304	2344	-2568	459	1534	134	-15552	3096	1928	115	1710	-269	148	134	1
-32768	-1292	8820	-138	-3057	-3118	-19696	-2288	-16368	1957	-3810	67	-22360	-9448	20648	-1496	-842	-984	-2816	7896	16328	260	805	-731	-17200	2248	-1584	478	1720	111	-16592	1976	2704	529	1545	-192	123	131	1
-32768	17840	-2952	-633	-2454	-1675	-14000	408	-18304	408	-2633	-38	-21480	-8232	20992	-1305	-89	-843	-3360	11128	17064	519	1098	-942	-19504	1744	-3696	407	1974	35	-18720	712	2008	866	1381	-19	124	140	1
-32768	20200	-9992	-1599	-1673	218	-7304	-1520	-19464	-1993	-1171	-489	-18032	-8744	16120	-910	-188	100	-3968	7568	17120	745	1681	-1045	-21040	-1496	-5040	637	2195	1	-19704	1824	2192	1331	1208	9	124	133	1
-32768	12188	-9180	-333	-707	1434	-6744	-5000	-18648	-2543	627	-292	-14680	-8864	9048	-1352	180	543	-5256	7600	17712	1076	2301	-1171	-21032	-1192	-4600	718	2420	-125	-18936	3816	1584	1856	1064	-128	122	125	1
-32768	3272	-5220	1125	133	1705	-9672	-7056	-20640	-1702	2286	291	-10392	-9096	2384	-711	533	100	-3176	11664	17712	1232	2864	-1346	-21096	1288	-2232	615	2640	-263	-18368	7744	3264	1762	788	-327	120	128	1
-26772	-6536	-376	1538	972	1437	-12568	-11888	-17464	-616	3154	372	-2296	-8688	-5480	-514	311	-264	-3768	11168	16496	1565	3399	-1820	-21496	864	-2448	329	2937	-372	-18896	11120	7704	1089	176	-350	122	127	1
32767	-18800	20880	191	5178	1707	-32768	12440	32767	2053	1520	526	-20984	-8264	-4976	-741	1624	710	-2152	12408	18472	1996	4147	-2442	-28224	256	-696	433	3307	-570	-23904	15352	14296	750	-1078	-122	118	136	1
-32768	-7008	31672	1693	4814	2493	-15080	-24144	-24544	3884	3045	12	-32768	-6248	22384	3639	214	725	-568	18888	18400	2105	5318	-3600	-32768	-8376	8824	1493	3530	-778	-25376	8056	21192	178	-2188	-11	133	127	1
-22064	-8332	22648	631	1772	2080	-20528	12792	-13080	2592	3718	170	-20080	9632	-6144	3584	2101	959	-14480	32696	27728	1438	6434	-4758	-32768	3696	3296	3125	3509	-499	-24384	416	16304	-363	-2176	-562	119	136	1
-29532	-22484	21084	744	540	753	-19648	-6672	-15040	1749	3086	-196	-14328	11136	-13216	1650	1608	-215	-17744	32767	29744	166	6923	-5533	-32768	17216	3600	2177	3833	-988	-23528	6984	248	908	-1867	-209	125	130	1
-14828	-14516	11976	798	219	665	-7880	-5480	-14144	971	1985	-494	-4080	6424	-9912	-2389	2072	49	-14368	28112	28856	-988	6435	-5026	-25872	12040	-7632	-62	4661	-1276	-25984	12424	-15104	1059	-1498	694	137	126	1
-12940	-6628	14632	701	-85	309	-14576	232	-13104	204	1515	-627	-12176	-7928	-11000	-3230	1638	264	-17456	32767	32767	1247	2551	-4065	-20968	528	-20384	-3880	3457	-1737	-32336	6616	-5712	-905	-2559	1124	124	132	1
-8132	-6276	13292	335	6	130	-25224	2376	-7696	-1832	1084	-258	-23520	-5152	-6720	-1010	1764	-204	13864	32767	24000	-2533	-1199	-1736	-27096	-176	-624	-1731	1691	-740	-32768	-608	-6072	-2325	-3464	933	121	130	1
-7536	-7820	12256	118	90	135	-17656	-240	-5600	-3864	775	-400	-19024	4256	-1880	58	1673	205	10072	12304	16568	-1664	-1835	-1179	-18024	-5744	-5936	-703	25	-109	-30168	-3480	-5800	-1967	-3726	1109	119	128	1
-7412	-8400	11672	-77	209	118	-14424	-11272	-2768	-2472	571	-498	-16584	408	-3264	-1012	1724	728	12000	19856	12104	-624	-2603	214	-10256	-3792	-4352	894	-930	-128	-24448	-5280	-3384	-467	-3337	1739	120	124	1
-7628	-9068	10644	-59	195	168	-12976	-12496	-3256	236	730	-400	-14368	-6064	-4696	-1406	1635	1292	8336	13192	12224	-852	-2964	1789	-9352	-4784	-6080	2121	-1925	142	-22232	-2648	-6184	1349	-3245	1537	111	127	1
-7668	-9372	10660	125	112	238	-14720	-9000	-3584	1824	909	47	-13456	-8752	-2984	-576	1525	1142	4592	9352	12392	15	-3318	2954	-10216	-1280	-6432	2541	-3053	530	-20128	1936	-7128	1832	-3105	1784	143	127	1
-8376	-9072	10756	349	39	313	-16736	-2048	-2640	1701	877	187	-14136	-6360	-2480	350	1509	810	1720	9680	13112	352	-3701	3431	-9336	1248	-6200	2024	-4055	798	-17584	2720	-7664	1198	-2760	1658	110	127	1
-7920	-8020	11988	370	33	326	-17184	1432	-3256	112	698	-116	-17152	-784	-536	814	1575	745	-2064	9848	15400	419	-4197	3463	-8192	2464	-5856	947	-4697	1024	-15496	1632	-8344	66	-2530	1324	125	127	1
-8148	-7212	12168	223	113	277	-16072	-1856	-2560	-1130	577	-237	-16024	2056	216	874	1813	913	-4824	10736	16832	509	-5044	3232	-9048	2048	-6776	-219	-5162	1202	-13184	-152	-9624	-926	-2276	869	118	126	1
-8040	-7836	11852	117	145	254	-15520	-5776	-2424	-1168	668	-169	-14560	552	-312	407	2184	1055	-6240	12200	17496	620	-5855	2909	-10496	-824	-8040	-646	-5661	1308	-11072	-2288	-9704	-1238	-2219	677	123	127	1
-4280	-4196	11668	72	154	314	-15072	-7816	-1064	-736	767	-171	-14520	-3688	984	-214	2583	1078	-7504	13024	19000	1016	-6225	2754	-13184	-1760	-8720	-801	-6307	1475	-6680	-3632	-10440	-1358	-1551	634	123	128	1
-8020	-7160	11912	124	175	312	-16512	-5056	-216	-223	730	-260	-15784	-4456	-640	-566	2903	879	-9824	17448	19760	1564	-6373	2731	-15728	-4016	-9272	-314	-6780	1525	-4760	-4392	-10104	-1347	-1184	374	124	126	1
-8004	-7228	11984	156	274	314	-15384	-3032	-2680	100	910	-114	-17560	-1648	-4040	-216	2459	812	-10752	22632	22352	1448	-5751	3292	-16352	-6592	-13320	188	-6957	1750	-3176	-6680	-11056	-1568	-1257	148	122	127	1
-7820	-6012	13120	52	515	346	-17536	-2072	-3064	-108	977	-82	-20072	1304	-3768	151	1770	616	-17536	23120	27224	1792	-4803	4478	-16928	-5992	-14416	267	-7012	1771	-3464	-4936	-7304	-1972	-1394	-137	125	127	1
-8124	-6972	12844	-61	784	377	-18144	-3816	-440	-488	1032	-56	-18816	-1168	560	171	1578	515	-27768	23576	29112	2001	-3668	5563	-22856	-3248	-16360	626	-6971	1856	-3840	2512	-8	-1991	-1396	132	127	126	1
-8612	-9020	12388	-25	979	507	-15448	-7512	336	-472	1210	-41	-18040	-5328	2408	-323	1564	448	-32768	18056	27816	1266	-2728	5497	-26152	5872	-23048	-1324	-6157	1449	-5808	12864	11504	-1560	-1165	1061	142	127	1
-9196	-8840	11748	155	1149	742	-14776	-7808	912	-274	1563	16	-17848	-7352	2704	-557	1359	385	-32768	14280	18416	393	-2444	4375	-19632	6592	-26992	-3327	-4489	431	-17360	12592	13304	-726	404	1735	129	126	1
-8984	-9516	12260	325	1347	953	-16032	-7032	-400	-295	1904	107	-17072	-6648	1912	-691	1238	194	-32768	3864	3072	-895	-1750	2856	-13144	3408	-27272	-4043	-2523	-113	-20568	4992	29368	-354	201	-108	99	127	1
-9816	-8420	12896	350	1686	1261	-18368	-3752	-2176	-674	2146	102	-17992	-3120	1920	-887	1113	97	-32768	-8320	-2488	293	-459	980	-11512	-2896	-31352	-2960	-464	11	-24768	8552	25192	-852	132	362	116	125	1
-8964	-6140	15116	327	2273	1439	-20144	-1160	-2752	-1180	2342	192	-18160	-672	1392	-971	1064	172	-32768	-560	2104	-19	821	-514	-4400	-1376	-27312	178	1778	359	-15568	7560	15000	-433	119	18	125	125	1
-8268	-6076	15244	22	2994	1602	-21320	-1400	-1504	-1174	2529	393	-20208	-752	2656	-1020	741	312	-32768	-688	8016	-992	1602	-1639	-6872	2232	-24784	1440	3366	177	-11368	6688	16320	783	-1209	248	124	124	1
-9708	-7344	14888	-331	3695	1995	-21520	-2296	896	-1050	2764	445	-21944	-2464	7424	-1058	31	483	-23336	11032	8760	-980	1255	-2155	-11448	-448	-25272	1661	4215	110	10736	-6568	-23480	3924	4654	-1479	112	124	1
-9688	-11176	13500	-594	4473	2747	-24296	-1232	5792	-1240	3138	382	-24352	-3344	16552	-788	-1479	283	32767	-1256	23000	-1722	3598	-3762	-32768	10416	32767	10824	-1435	-1289	-32768	31568	5576	2768	1412	-570	114	121	1
-13432	-14916	19284	-512	5962	3631	-31584	-880	11384	-2788	3271	486	-17928	-5504	18424	-2040	-2965	-249	-32768	31392	32767	-53	4613	-1709	-3336	23896	-32768	-4073	48	654	-30216	20760	32767	-4178	342	3272	140	125	1
-22768	-18064	19416	848	6580	4598	-32768	-9024	7776	-3615	3539	831	-22760	-7704	11856	-2615	-2051	-159	-8632	8104	24704	-449	2052	-1187	-31008	-11296	-17248	-5010	4622	-2135	-22104	-15848	-13400	-3460	3053	-1833	126	122	1
-25732	-13636	22856	2312	6547	5544	-27568	-24656	3312	-2543	3786	1029	-27512	-16240	-7952	-2218	-997	-578	-5088	8408	15544	153	2076	-1118	-16080	-272	-10024	-2896	2507	-199	-11680	-23400	-11000	-373	191	1129	114	133	1
-23664	-31580	26628	906	5259	3794	-27976	-10504	-9448	720	4149	1361	-29688	-10976	-14240	912	-1680	-1098	-22800	28320	27704	-313	886	-994	-2072	1400	-21368	-2230	1688	470	-2696	6000	-3384	3044	1643	-660	141	124	1
-32768	-32768	32767	1231	1881	1549	-23000	-4616	-19944	3285	3339	1434	-32768	984	-8104	2720	-3112	-1316	-7064	8240	15896	-387	354	-258	-24800	2696	-12184	-679	1246	900	-21984	22776	-16704	3343	2490	121	122	125	1
448	-24504	24108	1937	-291	-75	-24400	-2488	-736	1746	1215	711	-32768	3584	-11376	3184	-3754	-1365	-3240	11552	13408	-266	140	-50	-25776	-2824	-7792	1821	1179	228	-23112	6888	-6976	84	1882	636	129	124	1
732	-15316	19940	411	-897	-702	-17040	-3552	-8192	1964	29	701	-30976	5408	-8408	1844	-3620	-1721	-3976	8832	14288	-84	140	-81	-14728	-448	-6272	3610	1049	399	-16280	2488	-2424	-729	1832	-28	131	126	1
1548	-17956	16564	467	-2047	-1496	-9544	-1280	-7536	1342	-1157	758	-26208	7480	-9128	91	-3095	-1721	-3080	8048	13616	121	182	-91	-15184	6336	-1824	2649	575	391	-16120	-1568	1000	-641	1725	-523	127	132	1
540	-10608	14588	389	-3059	-1946	-6608	1128	-7560	-48	-2427	411	-21768	3552	-9568	-933	-2790	-1509	-3648	8592	13840	256	164	-132	-15384	2136	-2856	672	144	697	-15168	-1448	1184	167	1878	-928	126	129	1
-4520	-9556	13836	-142	-3983	-2163	-6880	632	-7768	-233	-2611	410	-16608	72	-9016	-719	-2511	-1523	-2928	8664	13512	354	165	-166	-15432	4800	-2320	-334	719	387	-13864	3056	696	839	1791	-1042	106	131	1
-8616	-9900	13316	-268	-5023	-2269	-7824	-2720	-8656	-823	-4350	83	-12488	360	-8880	-178	-2203	-1445	-3912	10432	12256	229	117	-189	-18392	5808	-2096	-1414	880	-65	-14616	5344	-208	1069	1912	-708	109	131	1
-10212	-8668	11956	-551	-5773	-2468	-6112	-1992	-6472	-577	-4948	-72	-10888	992	-9680	407	-1858	-1295	-3624	10136	12792	20	93	-203	-16592	480	-3032	-1255	485	159	-15336	3736	-176	533	2012	-381	123	127	1
-11764	-9968	11148	-925	-6060	-2604	-6968	-2312	-7440	-113	-5345	-202	-8720	2816	-10192	876	-1566	-1238	-3624	9200	13304	-72	122	-220	-14712	-3136	-3640	228	460	355	-10136	-2752	496	-610	1991	-271	120	130	1
-14256	-12356	11280	-1061	-6149	-2844	-10672	-1216	-8616	547	-5713	-320	-5016	5856	-10392	819	-1425	-973	-4120	9672	13288	-66	150	-218	-14912	1448	-3616	1409	523	640	-13824	1984	1608	-245	2389	-632	123	131	1
-15532	-12360	12060	-1370	-5906	-3122	-12920	-800	-9616	659	-6269	-499	-5032	5608	-10528	1126	-1382	-891	-4320	9616	12920	-68	154	-172	-16496	6128	-3496	1059	599	479	-14608	5160	1832	821	3260	-353	127	131	1
-19204	-14836	14436	-1896	-5469	-3390	-14160	-1352	-11248	744	-6660	-806	-3936	5624	-9328	1565	-1372	-542	-4512	9032	13048	-88	150	-160	-16256	5496	-1912	170	626	212	-16896	8664	-1424	849	3070	-492	137	131	1
-24896	-19168	18144	-1972	-4996	-3835	-18024	-2904	-12928	1096	-6918	-1109	-3336	8296	-7624	1663	-1570	-100	-3744	9320	13392	-76	185	-179	-14512	3392	2288	-53	899	145	-19928	5032	2136	196	1974	-85	123	133	1
-32768	-15644	19876	-2307	-4375	-4708	-22368	-4416	-16256	1651	-6854	-1192	-2832	5656	-3240	1778	-1659	453	-2624	9328	13944	17	300	-242	-14768	3752	1736	-196	1260	138	-19008	6688	5960	-199	1373	71	118	135	1
-32768	-9456	17400	-2530	-3568	-5118	-23768	-7800	-21192	1326	-6448	-967	-3936	-4368	432	1506	-1187	219	-3216	9488	14112	182	472	-382	-17832	2304	-488	-163	1600	159	-16800	6360	5864	205	1397	164	119	133	1
-32768	1428	15104	-2832	-2688	-4673	-25976	-4312	-21976	780	-5524	-800	-13536	-9728	7072	673	-1044	-1135	-3360	9384	14288	234	482	-401	-18272	3272	-3528	179	1933	156	-14560	3864	2120	978	1409	129	251	136	1
-32768	6052	5476	-2438	-2486	-3375	-17952	-3712	-25608	-768	-4229	-804	-26576	-8136	18152	-689	-988	-1492	-3208	11032	16744	654	1165	-790	-20384	1712	-4568	522	2001	158	-18672	3056	-376	1384	1567	116	130	138	1
-32768	21628	-6580	-1876	-2511	-932	-12608	-3480	-25032	-2808	-2684	-1151	-25520	-6480	18680	-2799	330	-790	-3504	9176	17896	814	1768	-1047	-22672	-848	-3944	858	2153	137	-21392	1544	1040	1637	1406	6	113	132	1
-32768	24748	-14068	-1716	-1764	1129	-8064	-4880	-24488	-3286	-459	-1119	-19440	-11656	13736	-2702	499	-246	-4000	8648	17520	1263	2479	-1223	-22456	-1456	-3240	1109	2419	33	-20576	3928	2144	1745	1110	-151	141	143	1
-32768	10240	-12280	182	-220	2011	-6024	-5352	-23064	-1668	2059	-169	-13056	-15736	7016	-2015	1094	16	-3008	10080	16872	1622	3084	-1516	-21112	2472	-1560	813	2721	-168	-19680	8584	4096	1574	734	-206	127	136	1
-4836	-32768	5652	5372	2390	1689	-11560	-8368	-18064	-232	3742	295	-12120	-15568	6064	-1753	1073	5	-2928	10720	15872	2208	3707	-1946	-22272	864	1048	417	3049	-280	-19168	11168	8304	1159	-68	-203	123	127	1
32767	23020	31632	1506	5403	1254	-32768	11984	7920	5370	2217	807	4544	-9680	-12888	-672	1168	-200	-1640	11080	18840	2703	4830	-2445	-29776	-2080	4448	738	3250	-608	-24392	13024	15816	861	-1405	74	123	128	1
-32768	13644	32767	1777	3702	2604	-7032	-16808	-4592	9131	3957	911	-32768	-11832	19760	7683	-40	-225	-2592	17992	17864	3738	6308	-3614	-32768	-12352	10304	1690	3557	-693	-27792	1872	27320	-300	-3575	81	127	131	1
-26944	-24728	12080	785	1884	2191	-21408	12568	-15640	3544	4376	1057	-23232	26880	-15648	6801	2558	2121	-19136	29736	22968	2708	7283	-4998	-32768	4368	1552	3335	3777	-370	-19528	-6584	9944	549	-2450	-985	124	128	1
-3244	7588	21760	1691	1016	762	-20728	-13560	-14448	2426	2602	-1166	-8952	12736	-22280	2229	1846	1003	-21864	32767	32592	236	7569	-5482	-32768	17664	1896	2780	4035	-840	-28456	8056	-8960	3258	-1307	-376	111	131	1
-10304	-17920	5832	1370	49	477	-8408	-3816	-13328	2807	2086	-545	-3688	3648	-12552	-2202	1937	271	-8112	19752	31016	2332	5251	-3456	-26808	5456	-8320	-2112	4125	-1818	-32744	14448	-18568	1793	-1789	1230	143	129	1
-8552	-5236	14060	649	-139	190	-17688	8416	-13184	-191	1548	-55	-19760	-5808	-15096	-2882	1933	-579	-8384	32767	32767	603	283	-1498	-23328	6336	-22464	-3775	2868	-1451	-32768	5192	-1592	-1198	-3588	886	129	131	1
-7100	-7304	13076	350	-68	55	-23848	4320	-6056	-3931	747	-207	-21040	2032	-3072	-1214	1763	-1287	8104	12888	24600	-2973	-1968	-1062	-24880	-3696	-1208	-796	1132	-566	-32768	1136	-9464	-2605	-3707	544	120	131	1
-6980	-5972	13620	96	51	25	-18496	720	-6384	-5944	160	-950	-18928	4824	-504	-1055	1886	-75	7552	14168	18200	-1313	-3898	-1013	-13344	40	-5552	-402	-429	-309	-25456	-1456	-5776	-1752	-3492	1299	122	128	1
-6596	-7464	12792	-161	209	12	-15248	-17544	-1592	-3181	195	-550	-18504	624	-2696	-1959	1766	1224	10080	16824	10768	-2321	-4686	-272	-9680	-992	-4488	745	-1410	-374	-22952	-1480	-7248	-19	-3317	1517	117	129	1
-7084	-7940	11848	-221	306	41	-9400	-15624	-1672	1855	916	-273	-13920	-7400	-4712	-1413	1634	1465	6304	8120	8712	-2116	-4815	588	-9160	-4736	-5272	1777	-2498	-201	-19912	896	-7952	1591	-3133	1684	119	127	1
-7204	-9200	10632	-80	354	68	-13344	-9456	-2632	3987	1092	310	-13200	-8496	-4448	-1262	1608	1441	2864	12072	8584	-1163	-4748	1403	-10200	-2576	-8592	2665	-3585	10	-17368	4704	-8200	1273	-2773	1782	120	127	1
-7776	-9388	10716	268	208	162	-19344	4880	-2976	2395	906	95	-13632	-6896	-1416	834	1601	610	208	13352	9512	-1033	-4621	2169	-8496	1008	-7600	2681	-4217	122	-16816	5120	-8824	1043	-2716	1746	125	127	1
-7076	-6712	12752	248	230	194	-17448	4984	-2232	-976	432	-302	-17728	1600	2264	1392	1595	615	-2624	12344	11344	-483	-4696	2751	-8680	3328	-7336	2138	-4903	466	-12256	2448	-9944	-1066	-2166	1039	123	128	1
-7236	-8480	11616	123	303	192	-14656	-4840	344	-2482	356	-408	-16176	2128	2376	862	2237	775	-5624	15472	12368	62	-4992	3205	-9448	3960	-8480	1132	-5367	722	-9632	864	-10512	-1702	-2043	776	125	125	1
-7652	-8424	11512	151	235	234	-14720	-6192	496	-2471	390	-396	-14528	-3088	3776	-805	2760	823	-6904	17056	13472	86	-5193	3450	-10464	2008	-9104	308	-5797	858	-7608	-424	-10480	-1950	-1824	648	124	127	1
-7900	-8212	11644	207	131	270	-13096	-10184	40	-212	908	-103	-15440	-7616	-584	-1031	2604	781	-9760	17072	15368	428	-5241	3572	-12104	2096	-9640	-345	-6192	1143	-5984	-1712	-10400	-2191	-1475	529	123	129	1
-8048	-8000	12108	293	12	349	-14696	-6368	-368	728	1158	-70	-18864	-7208	-3664	-326	1939	533	-11648	20912	15864	633	-5158	3680	-14608	1544	-9456	-1007	-6327	1213	-5512	-2960	-9832	-2720	-1375	292	124	129	1
-7536	-8336	12484	276	5	447	-16616	-3416	-1880	502	1268	-82	-19224	-2464	-2424	109	1505	373	-12712	24944	17648	481	-4654	4034	-17000	512	-11792	-1828	-6506	1191	-4864	-6016	-10448	-3157	-1313	-92	124	127	1
-7704	-8708	12824	293	117	593	-17744	-2648	-2248	-571	1175	-190	-17488	952	-792	-468	1647	226	-17216	32056	19960	239	-3899	4901	-23296	392	-14088	-2475	-6757	1089	-5400	-7112	-6392	-3039	-1200	-509	123	128	1
-7420	-7332	13288	305	305	686	-17120	-3824	-1504	-1406	1111	-212	-16952	-128	-160	-980	1692	236	-27112	24768	25544	776	-2823	5942	-28688	528	-16120	-2650	-6721	780	-6304	-2824	184	-2609	-993	-418	129	127	1
-7600	-7612	13388	178	655	771	-16672	-5304	-768	-1379	1266	-142	-17840	-1736	-896	-1012	1342	214	-32768	24184	24712	1145	-2241	5788	-28672	4360	-22360	-2292	-5961	282	-8224	5920	9824	-2333	-473	683	181	126	1
-8232	-8220	13576	195	682	783	-16552	-5896	-1696	-1014	1548	-106	-17864	-4320	104	-1055	1099	236	-32768	19688	14328	-316	-2338	4679	-20256	5720	-23896	-2110	-4448	192	-24768	8088	26792	-1529	-213	1577	147	125	1
-8516	-7024	14152	236	1423	919	-17504	-6344	-2144	-560	1829	15	-16432	-4168	680	-1327	1171	11	-32768	-6304	3136	621	-2165	2062	-14360	6280	-25664	-2477	-2656	-64	-20408	3544	31400	190	499	555	93	127	1
-8876	-6672	14524	165	1887	1055	-19064	-3728	-3432	-561	2041	76	-16976	-3016	-1040	-1169	1198	7	-32768	-3992	-4120	1051	-2071	-707	-7496	-2192	-28520	132	-641	579	-23184	2816	26016	877	-79	-79	115	125	1
-7940	-6036	15412	97	2434	1149	-19056	-3400	-3360	-809	2164	173	-17936	-4408	-1816	-904	1114	296	-32768	-536	-1224	38	-588	-2340	-1624	-400	-24600	2831	2023	780	-14904	5520	14560	2072	-216	-102	105	125	1
-8632	-7324	14284	-111	3002	1364	-19472	-4016	-2440	-817	2312	288	-19088	-3376	-376	-747	822	396	-32768	9472	3064	-861	426	-2944	-9456	3896	-24128	4288	3952	351	-11288	2544	2712	2767	290	197	188	124	1
-8916	-7596	14280	-360	3474	1778	-19888	-2200	-840	-958	2481	236	-20504	-1968	3392	-674	269	480	32767	32767	800	-3430	3589	-2995	-32768	18736	32767	12960	2578	-95	5976	3208	-12984	4018	2327	-1132	117	124	1
-8844	-8112	16436	-466	4121	2171	-21984	-4600	2344	-1614	2619	362	-20296	-6696	7336	-872	-375	231	-32768	22896	19008	1050	5648	-2480	-6600	25752	-15056	-1957	1629	1668	-32144	32767	16032	2608	2178	1039	100	123	1
-10424	-11660	14460	-288	5028	2834	-28472	-4016	3920	-1624	2872	630	-25504	-11040	13824	-631	-1694	-260	-25592	12464	32767	-725	2428	-1948	-15712	8504	-21664	-4056	5082	-829	-20600	6712	-712	-3853	1837	-773	113	124	1
-18824	-19956	17200	213	5928	3951	-30440	-5984	9720	-2377	3078	491	-21648	-4864	12736	-1503	-2856	-98	-8	12896	8984	-263	1750	-1133	-25224	-280	-6104	-6095	3267	-1035	-18672	-9336	-16584	-5329	905	267	135	125	1
-30576	-24132	23352	1204	5767	5002	-28320	-13976	2736	-2635	3374	449	-22680	448	6184	-902	-1917	225	-14616	11264	22176	-331	1497	-779	-14400	2976	-17688	-5294	2312	-530	-16176	-13192	-1256	-1397	615	715	120	129	1
-20484	-14660	26332	1213	5782	4589	-24344	-12784	1408	-1805	3517	404	-22952	-400	3160	-899	-1794	145	-3632	11768	13664	-473	322	-379	-9592	-6208	-13712	-2623	1223	441	-18384	4256	-11384	1605	2719	-715	122	124	1
-14896	-18764	22824	-589	4518	3317	-24880	-5432	-15120	98	3368	998	-31032	-2360	-10696	-73	-1964	-1462	-3984	7776	15856	-215	116	-90	-25632	-11320	-13024	1476	1202	735	-19312	5440	-10208	1006	2619	759	134	128	1
-21780	-32768	32767	512	-117	873	-21640	-5320	-12336	1105	2088	636	-32352	6688	-8496	800	-3009	-1405	-3448	10936	14064	-23	12	11	-20920	-1696	-7168	4254	1045	612	-19104	1312	-1704	450	2119	555	127	128	1
2676	-14760	19964	1466	-1522	40	-20560	840	-720	-450	231	-167	-31224	4776	-9800	958	-3189	-1483	-2248	8016	14608	169	-16	-5	-14952	3080	-3520	4053	724	714	-16472	632	1072	218	1808	-181	128	128	1
2228	-10016	15648	-754	-1668	-674	-14888	-1816	-7456	238	-380	208	-25064	4848	-7880	329	-3113	-1747	-2440	8256	14120	353	4	-58	-15184	4984	-1584	2312	386	836	-14416	520	888	305	1651	-717	133	130	1
860	-15728	13072	-690	-2384	-1389	-8456	816	-6112	-57	-1318	-16	-21112	5808	-7192	-597	-2800	-1781	-5112	5960	15288	548	9	-97	-15120	4936	-1152	-1	404	609	-15512	1264	280	830	1594	-933	201	131	1
192	-9220	12984	-484	-2966	-2080	-6608	2520	-6776	-509	-2233	-470	-17984	3168	-7072	-1254	-2460	-1577	-2616	9688	12392	531	14	-167	-15928	5448	-1152	-1399	781	180	-14592	3504	1208	1001	1569	-775	127	133	1
-3612	-6800	13400	-985	-3370	-2625	-8240	288	-6104	-580	-3106	-499	-15600	104	-7160	-816	-2330	-1603	-2024	12008	11152	429	85	-211	-18176	2176	-1832	-1739	683	55	-14480	3784	680	903	1706	-410	156	131	1
-6168	-5840	13540	-1174	-3939	-2812	-8152	280	-5720	-105	-3736	-554	-14312	296	-6816	201	-2279	-1542	-1968	10376	11280	168	160	-293	-16520	-3240	-2240	-447	544	333	-13864	3176	2064	988	1706	-550	128	129	1
-8184	-4916	13892	-1331	-4416	-2862	-7960	1480	-6864	501	-4230	-663	-12696	2040	-6448	1046	-2103	-1188	-2032	11320	11272	-80	280	-415	-14872	-1432	-1064	1965	430	680	-13448	5648	3488	277	1786	-295	122	130	1
-8880	-5560	13808	-1409	-4713	-2814	-10512	976	-5720	979	-4594	-830	-10192	4440	-7264	1442	-2022	-938	-4592	12056	12664	-283	275	-361	-14792	5720	-1168	2429	719	599	-13032	8008	6240	422	1954	-273	128	130	1
-10752	-6384	15496	-1493	-4846	-2848	-12872	1824	-8560	1408	-5039	-815	-8576	6128	-7792	1139	-2008	-685	-3408	11080	11680	-359	148	-313	-15392	8904	-800	1010	818	262	-15120	9264	4224	889	2417	-456	121	131	1
-13404	-6932	17840	-1869	-4915	-2985	-14200	2320	-8608	1247	-5517	-672	-7824	5408	-7064	991	-1947	-416	-3184	10056	12944	-433	77	-289	-15648	7040	-448	-572	991	-50	-18968	11152	80	689	2367	-735	125	131	1
-15540	-9564	19160	-1948	-4901	-3153	-15280	2808	-9520	979	-5879	-782	-7192	4384	-6496	1116	-1760	-160	-3304	10160	13712	-377	92	-310	-16656	3392	-2008	-1462	1165	-160	-18416	7288	-904	-290	1979	-542	119	133	1
-16664	-9548	20812	-1903	-4618	-3344	-17824	2184	-10112	479	-6258	-808	-5256	2864	-7488	1284	-1337	180	-2680	9712	13760	-254	160	-345	-17656	632	-3568	-1180	1283	-100	-16128	3280	-1584	-650	1756	-374	179	132	1
-21464	-12720	23472	-1915	-4199	-3622	-21048	200	-13104	257	-6547	-878	-3344	1880	-6784	1658	-965	458	-4128	10568	15784	-87	238	-360	-17472	1136	-3608	-438	1324	-31	-15256	2240	-960	-387	1782	-292	111	133	1
-29336	-10208	26192	-1787	-3701	-4264	-24112	-3344	-15240	663	-6513	-750	-5504	664	-1664	1376	-778	378	-4160	9216	13720	4	325	-443	-16272	2352	-2496	209	1379	14	-15720	3024	712	-16	1657	-223	147	132	1
-32768	-4428	24416	-1923	-3215	-4396	-26536	-6144	-16912	749	-5964	-352	-6040	-104	-728	1363	-777	305	-2592	10008	14528	221	486	-568	-16712	2024	-2080	558	1542	1	-16704	2888	1872	313	1455	-210	129	136	1
-32768	-2584	12768	-920	-3497	-3645	-22088	-6120	-18192	448	-4675	-268	-21280	-9424	18872	-34	-1143	-1367	-4096	10448	15336	246	897	-779	-17912	3400	-2080	589	1778	-30	-17712	2656	3000	839	1353	-172	125	137	1
-32768	18512	-4996	-497	-2898	-1834	-13488	-4136	-21040	634	-3078	-470	-22904	-1968	25328	-1193	-328	-778	-2520	11192	15648	473	1292	-1000	-20960	1760	-3576	459	1987	-85	-19632	2064	2648	1285	1395	-59	127	129	1
-32768	25368	-11972	-1699	-1415	123	-9032	-1368	-24800	-419	-1046	-486	-19736	-3176	17912	-1777	-71	-139	-2968	10336	17840	554	1873	-1170	-21784	-1096	-3472	591	2192	-150	-19952	4160	3032	1415	1257	-92	126	139	1
-32768	15464	-9200	-377	-312	1185	-6872	-2336	-25440	-1819	976	-156	-16472	-7232	8224	-2736	310	162	-3160	9344	17112	859	2550	-1301	-21104	-256	-3008	559	2539	-348	-19120	6848	4256	1257	929	-191	124	137	1
-25480	7976	-4144	947	1116	2304	-8640	-8664	-23192	-2281	2490	161	-14440	-9088	3520	-2129	747	-145	-3512	11080	17352	1277	3158	-1597	-21448	920	-1872	264	2903	-501	-19320	9000	7664	1058	399	-337	121	134	1
9500	-14620	32767	3533	2919	4820	-32768	-10968	9400	-2215	1674	-682	-19872	-21568	3616	-2343	58	-666	-3792	11520	19872	1434	4004	-2173	-27888	3328	-712	74	3255	-778	-24400	16752	13000	909	-613	-234	121	123	1
-19372	2564	24396	2099	2914	2261	-24520	-4256	-10520	5408	3491	196	-30952	-27840	5432	1660	1522	-10	-1728	22112	19064	1723	5242	-3127	-32768	-4256	10504	799	3428	-1162	-27776	16856	17616	821	-1927	155	125	133	1
-14696	-3400	19300	458	2428	1534	-14784	15624	-10560	1835	3621	1119	-15024	17080	-12176	4611	2018	2094	-10728	27920	24696	1358	6660	-4726	-32768	-3192	5408	2376	3638	-976	-27640	2152	18992	-697	-2837	-177	108	128	1
-12768	-13888	9784	427	2309	1179	-9960	-8288	-9152	-219	2373	112	-6456	20352	-8624	4299	1364	601	-8576	29608	25424	-188	7109	-5699	-32768	13680	5296	2397	3945	-1103	-22688	-3904	6224	-1716	-2650	-562	134	126	1
-22344	-14080	14684	1160	249	491	-11312	-15216	-13784	1697	2091	-901	-9768	6624	-9224	-1150	1076	455	-10120	29456	32767	-1842	7255	-6104	-25640	14864	7288	495	4034	-1178	-24056	2824	-16144	143	-1723	20	122	127	1
-10600	-2608	16036	700	-2	361	-13920	-13056	-11448	2229	2051	-949	-20632	-2056	-12648	-2766	1806	-198	5288	17976	32767	944	3860	-3533	-22064	2432	-20768	-3103	3809	-1291	-32768	5568	-8408	915	-2430	805	120	126	1
-10640	-4608	14964	625	27	294	-19688	6288	-5904	-170	1352	405	-21696	616	-6848	-1730	1850	-661	9064	32767	32040	-840	-1615	-1268	-21624	3488	-3896	-2233	1786	-1051	-32768	-208	-5336	-48	-3484	1201	122	128	1
-7100	-7268	12920	134	71	68	-12488	1968	-4560	-3800	595	-593	-20560	752	-5904	-1640	1879	-617	13384	9672	16280	-2424	-2480	-1193	-21448	-5592	-968	212	-50	-218	-31416	1392	-8032	-505	-3729	1008	119	128	1
-7192	-6924	12900	15	123	80	-15096	-2968	-4720	-4881	265	-825	-15104	-2984	-1008	-1744	1703	552	10808	13704	12512	-625	-3254	-337	-8984	-3344	-5448	528	-1285	12	-21720	-424	-5344	-773	-3200	1777	58	125	1
-7064	-7808	12120	-95	195	83	-19160	-14776	-1064	-3119	364	-547	-17160	-6616	-2816	-1372	1583	1098	10696	15728	8472	-1005	-3451	1107	-3984	-5728	-4176	2089	-1911	-120	-19384	-2912	-6872	570	-3165	1464	127	128	1
-7492	-8184	11524	-82	185	125	-12704	-14360	-992	1006	981	7	-13432	-7616	-1080	-422	1435	1216	5472	9144	9376	-478	-3438	2374	-8976	-2320	-5048	2758	-2845	325	-17328	-64	-7784	1563	-2808	1294	104	128	1
-6888	-8768	10768	54	160	194	-12424	-7424	-1744	2891	1178	206	-12800	-6312	-760	448	1501	1107	1264	11080	11752	199	-3626	3278	-10008	2176	-7848	2175	-3933	710	-15648	2416	-8024	1173	-2532	1256	126	127	1
-7332	-8664	11316	358	116	304	-15464	-112	-2360	2361	1073	-3	-14624	-2584	-616	906	1633	917	-1640	9848	13320	308	-4017	3580	-7912	2744	-6128	1302	-4664	916	-14104	2152	-9272	256	-2236	1081	121	127	1
-7348	-6940	12564	354	138	311	-15960	568	-2832	2098	1040	-65	-15968	656	-448	1034	1746	810	-4472	9608	14712	538	-4574	3390	-7512	2720	-5856	150	-5228	1151	-12784	208	-9656	-795	-2073	651	122	127	1
-7644	-6960	12688	325	149	310	-16560	-1792	-2408	-1254	717	-294	-15392	1376	-464	930	2073	836	-7104	12624	16240	562	-5203	3002	-9432	1328	-7768	-730	-5474	1260	-9032	-1352	-10176	-1255	-2048	374	123	128	1
-7688	-6536	12696	122	192	275	-14984	-5008	-2360	-1475	723	-310	-14992	-1240	848	-34	2555	971	-8664	12608	18144	645	-5620	2755	-12808	-8	-9560	-1353	-6043	1240	-5168	-2488	-9696	-1339	-1921	460	124	129	1
-8212	-7004	11948	91	190	235	-14064	-7472	-2752	-847	787	-240	-15072	-1712	1208	-218	2611	987	-10824	15728	18592	1083	-5783	2596	-16648	-2520	-8792	-1155	-6478	1173	-3000	-2688	-8232	-1258	-1261	340	129	129	1
-7408	-7060	12212	94	207	248	-14456	-7592	-1792	26	961	-173	-17384	-4232	-2392	-775	2906	987	-12624	20944	19848	979	-5429	2836	-16808	-4384	-10432	-464	-6556	1133	-3208	-4080	-9016	-1461	-1181	120	118	128	1
-9344	-6980	12992	66	266	312	-16416	-5088	-2120	266	1089	-121	-19408	-480	-3848	-162	2211	402	-13984	24784	21968	678	-4575	3648	-19672	-3536	-13992	256	-6664	1204	-4064	-4144	-7832	-1961	-1055	-49	115	127	1
-8400	-6652	12484	52	271	316	-16232	-2008	-1360	-475	1183	-116	-18040	-2336	-2064	98	1506	107	-22320	23512	26960	960	-3392	4783	-27864	1376	-14928	443	-6698	1459	-4112	-920	-4360	-2029	-653	-74	126	127	1
-7536	-9608	13940	-71	593	377	-14904	-5072	-912	-917	1253	-101	-16392	-6920	-280	-335	1521	316	-32768	23576	28656	1805	-2863	5542	-28704	6496	-21152	-710	-6286	1233	-7184	5968	6008	-1554	-524	388	137	127	1
-8020	-8008	13396	81	899	555	-17264	-7424	-776	-730	1420	-103	-18208	-6824	-48	-450	1410	551	-32768	25128	17952	1314	-2831	5354	-25904	8648	-18368	-1535	-5113	607	-21408	12624	24528	-1089	-1138	1264	136	127	1
-8392	-7828	13720	79	1204	715	-17408	-8480	-912	-413	1722	61	-17232	-5248	512	-250	1350	468	-32768	-3304	6024	828	-2088	3610	-15520	9304	-24480	-3576	-3450	440	-23240	6552	30104	228	603	1140	117	126	1
-8828	-8004	13876	194	1602	928	-18440	-4808	-2080	-200	2012	108	-18560	-2952	992	-293	1430	182	-32768	-4912	-5272	2160	-1813	926	-12328	-2776	-26096	-2723	-1204	97	-23824	5560	31320	602	76	696	123	125	1
-8360	-6268	15312	239	2133	1030	-19712	-2192	-3072	-510	2187	172	-18952	-1864	776	-582	1378	221	-32768	-2408	-2720	869	-657	-1190	-992	-3008	-21776	1833	1409	921	-22688	6304	28088	722	-27	482	104	125	1
-8068	-6568	15744	175	2781	1142	-20464	-3408	-2376	-691	2365	330	-19720	-1880	376	-840	1129	405	-32768	7832	2160	-643	442	-1994	-6168	896	-22496	4007	3328	556	-11944	8336	5296	1447	144	334	105	123	1
-8768	-6576	14520	12	3349	1478	-20144	-3456	-1488	-627	2578	369	-20448	-2248	1600	-824	575	500	-25232	11128	7464	-862	1167	-1717	-17688	5856	-18944	3887	3669	194	-5560	9552	10872	2160	-840	328	128	123	1
-9756	-7448	14620	-260	3914	1873	-19200	-1904	-384	-835	2806	379	-19064	-3192	4784	-793	-155	446	32767	-25864	28480	-3537	4565	-1940	-32768	15296	32767	8319	1063	-1219	-1200	23232	-14920	3251	2602	-1225	136	119	1
-9408	-8088	16956	-133	4685	2321	-22656	-5280	648	-1524	2938	542	-19560	-8944	8760	-1078	-1022	74	-32768	600	32767	-1477	4513	-2522	176	27264	-32768	-7383	1429	50	-32768	26920	30456	-3758	688	2565	95	123	1
-13080	-12608	14864	-481	6016	3090	-32768	-1704	4096	-1770	2986	875	-25528	-12000	14088	-1152	-2406	-592	-14696	14112	19744	-381	2860	-1900	-24128	-9312	-14432	-7439	5563	-2159	-20688	-21104	-8960	-7452	2018	-1071	130	128	1
-27964	-17628	15192	-226	6382	4139	-32768	-208	6696	-1897	2948	854	-23616	1472	10152	-759	-1906	522	-11688	14608	21696	-909	2497	-997	-22824	-6792	-14368	-5424	2886	-249	-21200	-25072	-9216	-5974	491	41	141	125	1
-29024	-19404	25480	1720	5475	4956	-25144	-15288	3304	-4367	3020	495	-21280	1288	-3960	-496	-1420	322	-16560	16328	23032	-769	380	-1110	-9040	-8056	-20568	-3713	2042	389	-4736	-15288	-2504	232	897	-606	139	127	1
-21484	-17440	26548	494	5153	4046	-21320	-11496	-8440	-1019	3564	990	-24520	-3792	-12272	-861	-1206	-767	-4968	1312	20160	-474	113	-355	-15896	-8408	-17232	521	2135	808	-20528	-952	-16944	3547	2608	194	107	126	1
-32768	-32768	32767	-1142	2364	3123	-19336	-4752	-22976	2137	3239	1259	-32064	2112	-7000	164	-2530	-1486	-4416	9808	14640	-243	64	-98	-23112	0	-11552	4131	1481	907	-21512	8808	-12056	4858	2658	1530	126	129	1
-10544	-32768	29032	1852	-2236	1126	-23152	-1048	-2184	697	1311	76	-31672	6248	-9168	765	-3149	-1358	-3256	9360	13952	-78	52	-49	-18104	3528	-7728	3967	915	587	-18624	11864	-5568	3034	1813	755	124	128	1
