#Activity	walking 
#ActivityID	1 
#Date 09-23-16-53
acc_rf_x	acc_rf_y	acc_rf_z	gyro_rf_x	gyro_rf_y	gyro_rf_z	acc_rs_x	acc_rs_y	acc_rs_z	gyro_rs_x	gyro_rs_y	gyro_rs_z	acc_rt_x	acc_rt_y	acc_rt_z	gyro_rt_x	gyro_rt_y	gyro_rt_z	acc_lf_x	acc_lf_y	acc_lf_z	gyro_lf_x	gyro_lf_y	gyro_lf_z	acc_ls_x	acc_ls_y	acc_ls_z	gyro_ls_x	gyro_ls_y	gyro_ls_z	acc_lt_x	acc_lt_y	acc_lt_z	gyro_lt_x	gyro_lt_y	gyro_lt_z	EMG_r	EMG_l	act
-10604	-7356	10656	83	75	356	-17184	-744	-4400	-1152	1106	-630	-19832	-1152	-11280	310	1222	-578	-32768	18496	32767	247	1255	-2034	-10624	3528	-13816	-102	1541	106	-23536	-3696	-12208	-1231	-2606	768	133	133	1
-10660	-6684	10800	-34	67	355	-16880	-3912	-5576	-1354	859	-634	-20088	-2408	-10864	183	1236	-494	-5192	20616	23840	452	-3333	346	-12128	1704	152	47	328	-200	-23288	-2544	-9416	-742	-2916	801	131	128	1
-10380	-6720	11208	44	81	346	-17408	-4992	-4184	-904	678	-340	-13528	-528	-6216	11	1191	-132	8496	11360	10048	-667	-2962	784	-9344	-1792	4080	681	-471	134	-22512	-304	-11936	-189	-2430	836	137	129	1
-10656	-6048	10732	166	52	304	-16584	-5728	-4616	-252	691	-178	-14696	-3256	-6160	-254	1342	-109	4960	8008	9512	-602	-2570	1152	-6288	2600	-1536	814	-1250	325	-22024	616	-12560	-163	-2345	916	137	133	1
-10504	-6020	10760	298	33	274	-17304	-3624	-4200	285	549	-39	-16168	-3600	-5912	235	1385	-90	-4368	9000	13424	-644	-2847	1466	-3368	5168	-4800	179	-2196	503	-15224	-2728	-12192	30	-2091	1148	132	127	1
-10200	-5460	10928	235	54	209	-17304	-1312	-3072	423	530	-4	-16216	296	-4600	516	1317	-68	-9328	8368	15152	-747	-3898	1895	-3488	4256	-5984	-1114	-2878	598	-13024	-2848	-11776	94	-1964	1185	128	127	1
-10112	-5232	11116	107	88	154	-16504	1384	-2776	82	519	-61	-15664	2264	-4720	312	1390	-189	-8248	6232	13536	-908	-4842	2201	-4856	1320	-3960	-1806	-3611	442	-12488	-1432	-12680	-14	-1805	1238	120	125	1
-10156	-5972	10796	25	91	143	-15832	4280	5552	3	523	-3	-13376	3488	-6784	-420	1370	-43	-8280	2624	11864	-859	-5309	2323	-7392	-2120	-3200	-1683	-4276	250	-10112	-872	-13720	-207	-1586	1160	121	127	1
-10576	-4700	10572	33	101	120	-15296	-816	-4976	-409	229	-56	-13208	1856	-6960	-650	1661	-371	-11704	1128	13232	-548	-5621	2424	-9304	-2048	-4840	-1290	-4834	47	-8728	-1120	-13488	-452	-1421	1242	122	124	1
-10332	-4996	10776	5	113	96	-16736	-2560	-3808	-424	510	-251	-12744	952	-4528	-981	1984	-143	-14632	640	15488	-421	-5916	2434	-12272	-1856	-5856	-1124	-5427	-217	-6864	-1672	-12680	-589	-1219	1214	118	121	1
-10068	-5804	10656	16	69	116	-16400	-4128	-3560	-5	296	-118	-13560	-1232	-5112	-626	2164	-283	-17488	-2024	15872	-185	-6071	2288	-16168	-4352	-6800	-958	-5960	-389	-5056	-2448	-12952	-907	-969	1030	118	121	1
-10096	-5152	10856	20	41	121	-15928	-1280	-3344	208	303	-151	-16736	2320	-3456	-183	2251	-280	-25352	-3272	18472	510	-5766	2105	-22400	-5816	-10888	-330	-6142	-638	-5792	-3720	-11296	-1732	-885	699	116	126	1
-10256	-5720	10660	-29	29	85	-16752	496	-1912	-57	344	-85	-13928	584	-584	-31	1850	-245	-32768	-480	21552	984	-5712	1731	-24048	-5504	-9608	332	-6110	-680	-4560	-2440	-6880	-1317	-734	399	124	127	1
-10192	-5676	10808	14	35	141	-15880	24	56	-305	409	-162	-15784	2152	424	115	1233	-476	-32768	9992	21968	530	-5320	1167	-28944	-3344	-12584	935	-5867	-573	-5768	-976	-3232	-1184	-618	399	122	128	1
-10364	-5552	10360	2	14	142	-14032	-1288	216	-295	674	-186	-17424	-48	480	-79	754	-315	-32768	14920	19192	-663	-5172	1448	-28880	-888	-19424	262	-5722	-435	-10744	704	1704	-1342	-1063	560	124	123	1
-9864	-5424	11000	47	40	198	-15336	-1400	-184	-132	858	-242	-19600	-1160	-2608	-699	848	-27	-32768	12248	11240	-1153	-4984	2861	-26512	-928	-17320	-862	-5471	-483	-17960	1912	5040	-1616	-1434	570	121	125	1
-9680	-5712	11112	8	136	219	-17760	-592	-1424	-94	1048	-238	-21592	496	-4784	-1101	1357	-43	-32768	2560	736	-1484	-4187	3291	-21704	1176	-16968	-1358	-4639	-794	-28512	4904	7840	-1983	-2125	688	120	122	1
-10532	-5272	11116	-53	320	258	-19184	-192	-2504	-197	1170	-309	-19008	1656	-3800	-708	1681	-230	-32768	-2192	-10256	-1813	-3205	2871	-17816	2216	-21600	-1928	-3512	-763	-23008	376	11336	-1936	-2065	586	117	121	1
-10596	-5060	11428	-198	550	273	-17424	360	-776	-231	1323	-375	-16248	3168	-648	-280	1453	-460	-32768	-8776	-22752	-1733	-1674	1563	-13376	-432	-21792	-2131	-2226	-661	-6888	-9616	25888	-1019	-539	236	121	118	1
-9968	-5096	12840	-215	883	216	-16392	-328	-2368	102	1567	-294	-17768	3928	-480	-335	1089	-328	-32768	-7256	-31144	-473	-478	678	-11936	-272	-22184	-2035	-1856	-554	-14496	-2064	23312	-256	972	60	116	114	1
-11412	-4316	12300	-217	1393	170	-19560	232	-3472	257	1808	-243	-21160	728	-2968	-494	948	-224	-32768	-2728	-22384	-188	737	202	-7352	2720	-21744	-598	1359	345	-19456	-4056	13256	307	1433	-316	113	113	1
-10796	-6352	12436	-214	1982	194	-20440	-48	-3472	313	2038	-350	-20168	-3224	-3320	-75	557	25	-15480	-808	-9080	-426	1943	14	-13968	536	-11264	334	2429	407	-18808	-1496	2560	762	2279	-63	110	112	1
-11328	-6416	12092	-220	2696	313	-19536	-648	-2200	266	2203	-464	-21144	-3296	-1680	295	-13	317	23160	-1856	32767	873	2470	-40	-32768	-14200	32767	2149	1375	-544	-9456	-2056	1056	1046	2959	550	110	112	1
-12480	-7160	12544	-313	3363	551	-22760	-3312	-2320	161	2349	-431	-23496	-3104	912	200	-237	447	-14992	-2992	10608	1327	3192	-2051	-19880	-2008	-3344	-351	1607	1132	-28136	7696	-1360	2279	1080	-153	113	115	1
-13820	-10384	10692	-898	4250	953	-27984	-728	-1776	268	2483	-614	-26824	3400	3936	271	-723	254	-29368	5368	14416	994	2477	-260	-8488	-13032	-8432	229	1944	218	-21664	15448	4752	-148	-574	482	114	108	1
-13100	-11708	13408	-1154	4982	1415	-27296	4400	1280	-463	2632	-1166	-29168	9672	12736	451	-2317	406	-13080	11032	17200	704	2191	-69	-25104	3728	-2872	2231	2326	313	-11240	-8144	-3672	-1049	338	-371	109	108	1
-13052	-14256	13764	-1204	5898	2119	-32768	6776	4184	-1670	2582	-1660	-32184	21800	12864	2875	-4593	1258	-14032	10304	13680	193	2385	-410	-15168	5776	-4968	202	1883	590	-12872	-3056	-4608	589	723	-94	104	103	1
-13460	-11476	14836	-1371	7279	3319	-28192	4384	7384	-2021	2220	-1927	-4040	22632	-4072	-1227	-1833	1530	-17160	10976	18904	220	1299	-488	-17112	2064	-3480	-187	1533	229	-14016	11552	-7936	941	875	244	113	108	1
-27832	-5824	10656	-2356	6815	3353	-18232	-2712	-7432	-2631	2649	-1656	-16328	2856	-4312	-3494	-531	427	-11232	8720	13008	-272	874	-456	-17968	6456	-7432	-617	1454	259	-12952	6560	-9264	181	886	-269	118	116	1
-32768	-3500	13716	-3871	4210	2159	-18024	-4920	-15352	-3080	3250	-1185	-29232	-8696	-18664	-5579	253	-136	-15648	784	15960	-169	311	-518	-18192	-2136	-5872	-2074	965	54	-17368	3480	-5480	-262	1097	-47	118	121	1
-26120	-26520	15444	-3095	2750	1582	-25232	-6840	-19776	-3160	2943	-888	-32768	-10224	-15920	-3997	-1507	-1213	-11248	4144	13920	-122	137	-224	-17888	-8040	-4088	-1097	979	171	-16688	-720	-5648	-463	1468	-40	121	115	1
-14172	-14764	32767	-1481	326	1143	-17016	-5040	-1448	-2066	1403	-376	-23784	6992	-19128	-1062	-1970	-785	-9696	3432	14456	125	93	28	-16104	-2896	-3472	754	1064	187	-15912	1944	-7616	-261	1234	-187	122	117	1
-3712	-21096	22792	-699	-1639	545	-11696	-6664	-1488	-824	331	-113	-21184	736	-14272	-391	-2432	-316	-10296	5840	13208	222	58	-7	-16944	3336	-5232	1320	914	164	-14648	2536	-7304	231	1283	-295	122	117	1
5608	-14536	13432	108	-2037	525	-6416	-3008	1136	181	-681	20	-18080	-2320	-12720	-10	-2196	-256	-9824	5728	13088	160	41	-25	-17752	2856	-3936	932	650	186	-14680	4192	-6104	423	1420	-190	125	123	1
2964	-11924	13604	24	-2286	-214	-5128	-360	-1288	560	-1349	-108	-15184	-248	-13640	231	-1825	-231	-8864	4312	13352	-1	80	-18	-17320	432	-2992	220	439	113	-15680	3240	-5280	344	1504	-239	127	122	1
-1360	-13328	14028	195	-3023	-1290	-6080	-384	-4048	578	-2050	44	-12120	2064	-12424	198	-1919	-233	-8528	4368	13320	-159	128	-94	-16864	-64	-2440	-206	321	16	-15592	2520	-5984	290	1593	-303	127	122	1
-1792	-11292	12360	606	-3613	-1938	-7456	-896	-2088	579	-2704	192	-10816	1816	-11112	219	-1702	-221	-8832	4752	13504	-309	145	-181	-16400	1912	-1952	-736	162	-43	-14904	2664	-5888	328	1621	-318	127	120	1
-4160	-7064	11780	950	-3929	-2469	-8792	-1792	-3664	763	-3311	389	-10936	-432	-11568	366	-1633	-281	-9304	4824	13256	-292	78	-233	-16040	-656	-2048	-850	122	-72	-14992	2144	-2792	511	1624	-392	127	120	1
-7020	-4200	11728	989	-4126	-2641	-10008	-440	-3200	1090	-3907	621	-9840	-2672	-11840	773	-1736	-325	-9096	3752	13320	-257	20	-283	-15696	-2592	-1360	-345	190	-38	-14696	1336	-1984	608	1599	-434	126	120	1
-11672	-3400	13308	790	-4443	-2606	-11288	432	-5096	1211	-4371	856	-7680	-1000	-11728	1070	-1789	-276	-8712	3608	13088	-186	-54	-224	-16056	-1640	-160	373	312	-27	-14872	2464	-1376	675	1647	-439	124	123	1
-16204	-4536	15684	636	-4832	-2555	-13208	960	-7200	1321	-4687	1014	-6160	8	-11040	1203	-1751	-174	-8224	3832	13336	-133	-129	-272	-16704	392	752	493	388	68	-15280	2472	-744	697	1797	-407	124	124	1
-16312	-4732	16084	511	-5055	-2610	-17168	1560	-7264	1489	-5014	1283	-4936	-128	-9992	1402	-1538	-42	-8880	3928	13208	-124	-164	-271	-14968	1160	-16	75	382	81	-14768	2800	392	631	1872	-535	121	120	1
-19256	-5204	17504	374	-4832	-2628	-21520	3448	-8992	1260	-5309	1708	-4344	-192	-8784	1811	-1003	-32	-8536	3200	13312	-43	-151	-198	-15544	-1920	-312	-222	435	0	-13296	1776	344	565	2009	-560	123	120	1
-23004	-6704	19400	237	-4465	-2518	-23008	4440	-8728	516	-5433	1944	-5096	1768	-5584	1988	-831	70	-8456	3456	13712	43	-80	-109	-17312	-1416	456	-294	581	-32	-13600	-224	2984	637	2402	-417	121	121	1
-29668	-11956	22076	232	-4376	-2441	-23400	4376	-9176	398	-5431	1947	-7488	4552	-1976	1800	-1027	315	-8504	3088	13344	90	-13	-68	-16840	-1872	168	-163	832	11	-16728	336	-1840	230	2394	225	125	122	1
-29040	-13956	17592	183	-4187	-2832	-27936	1280	-11552	203	-5451	1383	-10480	6032	264	1395	-1176	527	-9216	3896	13456	110	47	-33	-16040	-216	168	91	832	36	-17928	2792	-6816	133	1074	-85	125	125	1
-30044	-13624	16376	157	-4103	-2953	-22584	-3536	-11816	320	-5030	1168	-13800	6096	-152	788	-924	730	-9976	3808	13048	97	126	-64	-14432	80	552	156	975	32	-22504	7144	-7616	475	414	-570	130	132	1
-32768	-8704	5132	482	-3556	-3313	-21208	-6496	-11976	535	-4466	1093	-19512	7072	3584	741	-998	738	-9448	4744	13432	116	209	-114	-16048	-32	-760	176	1139	-3	-17968	4472	-2296	336	795	-254	129	130	1
-32768	-1088	-2392	446	-2985	-2653	-26920	5320	-11720	-156	-3151	1128	-23040	5128	10344	752	-1890	744	-9200	3848	13592	107	317	-114	-17160	-1224	-48	143	1253	-23	-16328	-1000	96	451	1127	-56	123	134	1
-32768	1692	-8420	-119	-2176	-2061	-16600	-3512	-14752	934	-3019	1138	-20976	13440	7928	1279	-1511	219	-9360	3752	13928	170	468	-57	-15504	-2200	1448	278	1497	-13	-17608	-2400	992	878	1113	-145	116	128	1
-32768	1776	-12416	-501	-1683	-1655	-9888	-2552	-18224	122	-1887	545	-14680	16128	14184	-405	-676	424	-9304	4224	13696	235	659	-130	-14928	272	624	-101	1702	-21	-18736	2688	-1056	817	838	-123	115	131	1
-32768	7000	-22120	-456	-1188	-673	-10320	120	-16312	-970	-671	53	-12400	8616	14208	-997	60	293	-9448	4456	14184	309	970	-187	-19088	1072	-2368	-594	1874	-109	-19208	7008	-5840	563	699	-124	125	131	1
-32768	8400	-23620	-707	-23	215	-7600	-5648	-13192	-1090	692	-609	-16296	4760	11152	-903	771	110	-10144	4408	14528	398	1420	-230	-20736	-1432	-3752	-710	1982	-125	-18800	6848	-6976	523	507	-248	132	133	1
-29212	504	-15300	-607	945	979	-9920	-5280	-12472	-611	1804	-900	-17976	3784	4384	-770	1535	-310	-8240	4520	15176	514	2002	-203	-19472	-2016	-3800	-526	2161	-90	-17848	4680	-5816	424	186	-476	136	134	1
-25836	-14164	-1900	1524	2434	1736	-18864	-3936	-4816	123	2362	-1111	-15168	2488	-3920	-802	1828	-624	-11032	4656	13024	587	2710	-317	-18344	-912	-4064	-509	2269	-51	-18112	2328	-2200	420	-123	-598	139	138	1
11844	-7696	32767	731	2159	850	-30584	11088	22336	1848	1419	-135	-10616	-1464	-6296	-65	2082	-1362	-10456	4280	13600	630	2783	-322	-20896	-952	-2528	-432	2370	-50	-20360	1968	1120	343	-411	-569	140	139	1
-6556	14476	23456	-1212	2280	2308	-26648	11152	-3536	2760	1397	-440	-24360	328	5664	19	890	-575	-11112	5048	14440	861	3419	-402	-24440	-1792	-824	-323	2564	80	-24464	2144	4888	178	-933	-456	149	142	1
-27252	-1624	6512	-1551	2333	1304	-11176	16512	-10384	268	2032	-483	-27520	6328	4568	1675	99	-420	-11448	10584	14760	912	4603	-828	-25504	-1616	3312	78	2803	347	-27912	3120	14544	26	-2252	-399	147	140	1
-21260	-20988	17956	-1614	2190	362	-31800	6504	-16448	-4201	2122	-1600	-21624	7696	-6032	1465	201	-540	-13080	16896	15144	689	5557	-1672	-29488	-1576	4768	487	3027	708	-32080	1872	25600	-1535	-4013	-459	128	129	1
-15620	-12984	9324	-1070	2002	399	-14528	-14856	-10496	-2180	2682	-1101	-8376	7904	-6944	35	522	-10	-13592	13680	16304	730	6944	-2815	-32768	-856	6264	851	3021	1078	-4192	-6280	-4432	551	-1963	-480	115	126	1
-23788	-17484	13660	-471	1456	386	-14104	-6728	-7136	1162	1766	-317	-12944	1536	-6696	-1525	973	-764	-27664	7072	17648	1717	7801	-3542	-24408	1104	-1864	1350	3215	1110	-15808	-1216	1904	2328	-1320	-521	127	122	1
-12084	-10024	10544	288	764	267	-18920	-4336	-7264	1054	1573	-525	-8832	-8032	-9512	-1798	477	-346	-32768	17624	18600	482	6381	-5123	-23848	9672	-9200	1919	3555	923	-32768	14328	-26968	3509	185	515	129	126	1
-14180	-9152	11432	270	398	160	-15624	-2808	-7744	1137	1211	-456	-18888	-12560	-9312	-50	840	-182	-32768	19688	21056	413	3608	-5310	-21952	7240	-17376	1426	3383	961	-27104	6368	-13584	500	-1749	1167	128	129	1
-9264	-8564	10688	175	382	-2	-17464	1240	-1616	137	1015	-353	-15960	-3216	-8136	968	797	-414	-18480	5520	32767	658	1301	-2373	-19432	3864	-19048	304	2616	404	-28336	2328	-14512	-965	-2481	1269	128	129	1
-9824	-8952	9860	63	335	79	-17488	-1544	-4840	-902	900	-376	-16176	-1432	-6296	967	1014	-393	3032	32376	30320	1982	-1849	-608	-15320	168	-16	514	1075	-51	-24848	-5440	-12664	-1494	-2860	671	130	134	1
-10408	-8016	10968	5	325	-3	-16968	-792	-5368	-870	720	-224	-16336	2880	-5784	911	1011	-308	11160	21600	13048	41	-1422	60	-7648	152	1408	627	19	385	-20992	-6408	-11712	-447	-2519	643	136	130	1
-9024	-7544	10632	-69	324	-12	-17880	-1096	-3872	-690	558	-118	-14368	3352	-4664	317	1162	-82	8816	12680	11064	-479	-1000	1375	-1960	360	1112	144	-870	371	-16936	-2144	-13192	35	-2125	1095	137	130	1
-10060	-7804	10476	-43	353	-22	-17880	-968	-3360	-463	497	-155	-14568	1992	-3080	-125	1288	-117	560	11176	15816	-745	-1247	2343	-3568	2992	-584	232	-1719	424	-13992	-2248	-11192	77	-2129	1303	131	130	1
-9616	-7320	10392	-72	340	-73	-17424	-1136	-2248	-7	492	-187	-16304	616	-4392	-99	1341	-159	-7576	6840	20008	-791	-2545	2735	-4848	4240	-4368	-204	-2474	498	-13200	-1048	-9096	189	-1860	1231	131	130	1
-8384	-7752	9528	-81	376	16	-16968	-1408	-1856	307	440	-138	-16104	-64	-4232	-122	1256	-100	-5552	2224	16664	-349	-3825	2876	-6848	2344	-1456	-696	-3199	451	-12536	320	-9992	205	-1727	1235	126	130	1
-9192	-8576	9544	25	412	130	-17336	-2720	-11848	1098	-118	-48	-14344	2080	-1360	-285	1049	57	-5632	1544	13440	-175	-4353	2517	-8704	1512	-2184	-872	-3770	465	-11824	432	-11304	-50	-1556	1142	125	125	1
-9804	-8240	9412	39	262	246	-15560	584	-640	-42	232	-47	-14608	1104	-3976	-269	1239	-248	-9368	1096	13080	-202	-4546	2053	-9928	1096	-3800	-1139	-4390	430	-8960	512	-8608	-239	-1416	1139	123	125	1
-9440	-8536	9204	143	160	377	-15312	-1968	-1384	-765	402	-237	-14656	408	-3960	-687	1372	-238	-13544	824	15752	-142	-4687	1813	-12160	-288	-6792	-1455	-4938	260	-8192	-416	-9352	-435	-1191	1198	121	128	1
-10444	-7932	9744	205	14	477	-16088	-3184	-2600	-675	362	-260	-14248	-304	-3120	-814	1620	-292	-18128	824	18344	31	-4981	1770	-16536	-4272	-7208	-1438	-5395	-72	-7344	-1480	-8104	-810	-998	1187	124	126	1
-11392	-6908	9708	196	-116	466	-16288	-3080	-2104	-578	448	-269	-14912	-472	-3152	-800	1828	-275	-22120	2240	19712	248	-5270	1898	-17328	-4888	-7632	-1408	-5445	-98	-7256	-2936	-8744	-1119	-836	854	124	125	1
-9512	-7460	9228	294	-211	396	-16504	-2576	-1640	-95	472	-165	-15752	-616	-3440	-645	1972	-228	-24864	4560	19504	174	-5320	2063	-19384	-5904	-8688	395	-5526	-346	-5776	-2376	-7544	-898	-530	586	125	127	1
-9816	-7716	9848	336	-192	503	-16760	-2000	-2344	128	470	-54	-14976	-616	-3056	-528	1967	-122	-27232	5944	20280	-196	-5003	2179	-24352	-2208	-8368	688	-5598	-379	-5512	256	-4520	-562	-235	647	124	129	1
-10664	-6540	9952	390	-308	553	-15928	192	-792	-28	513	-80	-14936	-40	-2528	-383	2030	-67	-29464	4448	21432	-619	-4672	2087	-27232	-1184	-7936	426	-5627	-349	-8952	1416	176	-652	-303	828	127	132	1
-9524	-7976	9504	439	-484	671	-15120	-672	-680	-429	669	-208	-16568	-480	-760	-240	1943	-113	-32768	2616	20296	-690	-4447	1625	-27376	576	-9096	203	-5521	-346	-15080	4416	5104	-1160	-1066	656	124	126	1
-9892	-6416	10732	320	-228	645	-15360	-744	-2000	-212	797	-215	-16800	1232	-3080	2	1765	11	-32768	-1960	14232	-265	-4698	1322	-24912	104	-13768	-454	-5048	-373	-19744	6448	6504	-1113	-1462	613	123	126	1
-9860	-6400	10412	190	-27	524	-18264	2192	-1456	-99	882	-113	-15688	4008	-1640	-208	1833	-50	-32768	-2816	1552	265	-4573	1349	-24112	-2944	-14696	-666	-4075	-686	-26136	4864	8632	-1752	-2238	657	119	121	1
-9636	-6892	10344	100	171	472	-19072	360	-296	-327	1072	-143	-16680	2600	-368	-460	1920	-349	-32768	-2096	-7104	-107	-3340	1167	-16952	-3280	-17168	-612	-3079	-793	-19384	-1920	18696	-1319	-2298	584	116	122	1
-10444	-6200	11284	3	407	466	-17072	-688	992	-275	1373	-225	-19824	1392	72	-555	1897	-375	-32768	-4552	-16160	-344	-2112	386	-11000	-3904	-19128	79	-1870	-472	-9808	-8448	20736	112	-531	587	115	114	1
-11060	-5792	11452	-227	714	338	-16096	1264	416	-207	1678	-106	-22344	2040	-1728	-300	1125	24	-32768	-9104	-21784	1465	-1365	151	-6688	1392	-17624	1487	-353	256	-14192	-7672	19888	1689	682	190	112	112	1
-12028	-4636	11780	-476	1097	201	-17936	2192	-3000	-526	1976	-50	-21016	2936	-1288	-655	581	-21	-32768	4384	-17672	1250	-472	-372	-9968	5384	-16336	1574	968	485	-13592	48	15760	1715	720	-418	110	113	1
-12248	-4812	12480	-907	1611	-153	-18432	2528	-3136	-552	2029	-60	-17168	1152	-840	-324	378	-13	-27528	10600	-14288	-710	698	-758	-14632	3016	-13208	660	1872	392	-20064	7536	6152	809	2032	-157	104	108	1
-10660	-7180	12704	-1199	2246	-11	-20520	1656	-2760	-634	2414	-101	-19000	1808	-360	-11	40	124	-9776	-9344	10808	-2107	1371	-1077	-18176	-6448	7928	-59	2184	145	-8360	5952	-3312	-11	4092	629	101	103	1
-8636	-8708	12804	-1197	3122	165	-21840	1648	-848	-374	2598	-85	-22712	3040	3704	150	-413	448	22176	-20312	27920	308	2756	-1836	-32768	-3360	23056	-562	1389	64	-18488	4216	-16608	597	1959	787	104	107	1
-9420	-10020	11656	-1379	4171	314	-25888	-1768	616	-121	2859	-49	-32640	-248	10008	266	-1192	916	-32768	-2560	15392	1354	3283	-1697	-6616	-8704	-23184	-2104	1943	493	-27248	17224	10312	-822	-511	41	106	106	1
-15236	-15460	10788	-2589	5766	1143	-28560	2944	5784	-102	3047	-343	-32768	-304	11384	341	-1356	943	-12880	29328	17064	82	2289	-191	-19528	1744	4760	568	2683	-350	-10072	-1824	3128	-2728	-332	-759	117	113	1
-11396	-19192	14272	-3032	6362	2175	-32768	6136	7000	-867	3021	-805	-11592	17648	5864	1411	-2799	1539	-14832	976	12976	-590	2973	-576	-21056	10888	-7648	-1556	2095	707	-14968	-8232	-3072	-1216	954	-682	113	111	1
-18980	-21844	12036	-2581	6651	3134	-23408	-1384	2864	-1068	3264	-973	-11504	10200	-720	-1858	-1113	1188	-18544	8776	20816	-744	1085	-1131	-13024	-5304	-7384	-1659	1694	247	-15120	-16	-10000	415	783	45	114	113	1
-25988	-11628	14316	-1166	4859	3768	-18704	-14776	-12328	-1276	4198	-601	-23696	-9536	-15984	-3182	225	127	-13072	4128	17704	-588	1077	-567	-18576	3832	-9536	294	1883	433	-10928	696	-9456	1570	791	31	114	118	1
-32768	-32768	19952	-2673	1907	2325	-27224	-11216	-20904	225	3535	-78	-32768	-10264	-11832	-3311	-1573	-505	-13352	3216	15584	-135	232	-551	-17896	-2424	-8176	-466	1399	329	-16424	6832	-9704	1309	1062	257	114	110	1
-7084	-32768	32767	579	-688	2190	-30440	-8904	-2224	969	1922	-60	-31400	1128	-15560	-770	-2001	-572	-11872	3704	13928	-174	68	-264	-17848	-480	-4736	570	1338	232	-16560	8704	-7632	773	1103	23	119	107	1
4800	-25604	22680	762	-2255	1710	-21024	-3744	2760	1284	754	-372	-28304	4000	-14504	-200	-1935	-48	-9784	4464	13352	-151	60	-133	-16800	3392	-3648	817	1213	124	-15912	7424	-7392	245	1090	-191	118	106	1
8944	-19236	17476	770	-2479	1323	-12072	1608	4840	183	-279	139	-23448	-3904	-13824	-69	-2195	-398	-6648	4496	13736	-24	141	-165	-18320	2856	-1968	747	960	111	-15072	5280	-8432	243	1348	-333	120	118	1
7748	-18660	15916	532	-2718	493	-9760	-776	1232	-776	-1146	230	-18440	1016	-12488	427	-2171	-141	-10256	4624	12848	41	134	-250	-17040	3768	-6144	111	664	79	-15216	5136	-9688	459	1526	-311	118	115	1
5084	-16492	13628	548	-3117	-318	-10576	-2080	-864	-789	-1969	143	-14104	3600	-12656	436	-2000	-142	-10552	4312	12680	-76	124	-127	-16840	2184	-6920	-405	364	-104	-14744	4600	-8288	405	1531	-303	123	116	1
2800	-12748	10336	579	-3385	-1206	-10392	-2864	-2136	-294	-2673	294	-12808	1536	-12672	347	-1875	-88	-10160	4104	13032	-149	107	-89	-17704	664	-5528	-811	120	-189	-15768	2344	-7808	418	1671	-363	123	119	1
-1568	-12248	9772	659	-3439	-1856	-9400	-4248	-3672	233	-3361	506	-11632	-1472	-13056	379	-1889	-72	-11632	4344	12928	-88	167	-25	-16632	-992	-5184	-488	175	-204	-15568	984	-4544	474	1727	-515	123	118	1
-6320	-12396	11024	808	-3622	-2259	-10632	-4336	-5072	747	-3966	627	-9672	-2016	-13344	789	-1944	-196	-9016	3808	12920	12	152	-1	-15904	-1248	-1456	299	143	-150	-15144	440	-1232	549	1685	-437	122	112	1
-11304	-11472	13080	720	-4047	-2597	-12768	-3304	-7768	1202	-4449	688	-7504	-1160	-12944	1195	-1915	-279	-8184	2992	13760	155	151	-35	-17104	-600	-40	1054	150	-97	-15656	2088	-1184	828	1663	-478	118	117	1
-12524	-8156	10636	386	-4176	-2907	-14184	-2328	-8912	1627	-4847	928	-5768	-968	-12944	1378	-1810	-247	-9272	4888	12608	206	109	-15	-16400	-432	-368	1147	220	47	-14960	3296	544	983	1576	-340	122	121	1
-15496	-8412	10276	168	-3798	-2987	-13280	528	-9408	1712	-5131	1306	-5056	632	-12576	1354	-1450	-217	-9280	4816	12808	202	66	-19	-14928	2504	-160	947	310	0	-13232	4664	1576	888	1648	-309	121	120	1
-22152	-11744	16108	136	-3656	-3034	-17296	1616	-10856	836	-5162	1394	-4792	800	-12232	1327	-1391	-233	-7832	3024	12880	138	1	-67	-15440	2832	2128	647	341	-120	-12664	3296	1248	996	1946	-431	120	124	1
-22232	-15912	17892	431	-3699	-3150	-24304	-2632	-11792	287	-5282	1072	-3824	968	-5928	933	-1400	-200	-7552	3472	13216	133	-7	-53	-15864	3248	2728	686	298	-145	-16024	984	-608	1328	2470	-544	128	122	1
-23516	-18236	15148	598	-3450	-3382	-22536	-4816	-11928	461	-5417	1176	-6944	-296	-2360	1058	-1518	-109	-9432	4352	13136	180	-71	-136	-17664	-1824	768	825	539	-149	-16104	536	-1512	1913	2903	-413	126	123	1
-32676	-17560	11984	371	-3144	-3971	-20112	-4816	-11944	710	-5237	1410	-9936	392	-1760	847	-1218	36	-9256	4640	12808	196	-15	-110	-16352	-1320	1048	1230	973	28	-17304	3240	-2856	1672	2126	-129	125	123	1
-32668	-12404	5520	233	-2654	-4213	-23184	-3352	-10008	521	-4836	1297	-14880	2720	1112	834	-1115	234	-10312	4496	12160	90	47	-203	-12440	1064	936	994	1159	63	-17456	4272	-600	757	934	56	126	122	1
-31212	-8176	264	56	-1927	-3607	-24904	-4496	-12712	609	-4354	1046	-21216	6464	8128	1225	-1637	380	-9568	5024	12296	31	133	-186	-12344	2736	936	547	1317	-102	-16320	4952	-848	607	409	-23	125	129	1
-32768	-6132	-1736	157	-1435	-2663	-20984	-1672	-15656	445	-3768	821	-27136	10296	8184	1375	-1643	617	-9680	5056	12592	-23	312	-195	-16704	2816	216	-258	1467	-178	-21688	6608	-8504	1169	933	-491	118	126	1
-32768	7056	-8884	273	-930	-874	-20144	1440	-28224	-1838	-2267	122	-20744	8568	3032	359	-776	122	-9872	3944	13416	27	548	-271	-18408	-1632	-2256	-660	1605	-211	-20032	4792	-3472	827	1179	-305	104	124	1
-32768	7032	-10024	-529	-1129	574	-9960	-4816	-20208	-1314	-1487	-70	-10656	12344	14888	-939	-1372	-360	-9600	4368	13944	198	932	-247	-19720	-2368	-1040	-269	1935	-159	-18032	3560	-1680	1004	894	-238	108	121	1
-32768	7976	-17632	-1565	-1946	387	-6904	-3208	-15712	-1361	-78	-542	-11584	7544	13784	-1257	-110	-469	-9672	3688	14024	438	1439	-216	-18088	-1376	-1160	-234	2196	-112	-19024	4024	-568	586	187	-320	115	122	1
-27816	4116	-21952	-1408	-969	1445	-12032	-4464	-11464	-1139	1043	-891	-17104	3616	8056	-1054	810	-473	-9984	4160	14880	620	1963	-193	-19456	-672	-3912	-663	2316	-143	-19360	1688	-2432	395	-3	-427	121	126	1
-25728	-3400	-13396	-429	541	2348	-14704	-2720	-13984	-431	2037	-1229	-16304	3080	2488	-831	1399	-536	-11456	5208	13776	697	2977	-222	-22232	-2072	-4248	-987	2468	-148	-20432	2208	1280	-62	-486	-498	128	130	1
-14576	-18940	1712	3201	2188	2505	-17944	360	-7392	487	2289	-1055	-17616	3912	6432	44	2221	-865	-11040	5440	14008	1054	3764	-231	-22176	-2856	-1360	-1049	2626	-67	-24552	2808	5944	-645	-880	-750	131	131	1
-3252	-9736	32767	2212	2602	189	-25184	8288	16072	1855	1837	-267	-920	696	-11792	848	1230	-1077	-11304	2664	17704	1291	4452	-373	-23544	-2888	-872	-845	2792	87	-25720	1664	12256	-1108	-1742	-769	128	131	1
-3376	-15464	32767	2076	2605	184	-31512	6912	3624	3565	1457	24	-32768	-7040	-1768	-311	1461	-1238	-8352	13944	17208	1314	5589	-457	-30432	-3824	2760	-179	3019	276	-21424	-3208	16760	-1610	-2909	-727	146	139	1
-31252	4028	13612	-999	1652	2605	-9424	-32768	-32768	1206	3061	-1	-27304	2816	-6112	2324	-166	-210	-11104	15576	16168	1776	6999	-741	-31360	-4288	2960	-50	3038	326	-17216	-6448	8080	205	-3144	-980	136	137	1
-10056	-29980	5084	-828	2820	924	-25952	4520	1328	-570	1268	-628	-9112	8872	-1552	2516	-280	794	-12672	18120	18976	1865	8602	-1993	-32768	-448	14016	1203	3251	939	-27688	-2368	15584	1092	-2546	-1215	131	132	1
-27056	-10412	9500	478	900	1332	-18760	-22688	-15176	-2093	2255	-1511	-4600	12496	-1920	2585	-116	970	-32768	16696	14992	2470	9768	-3073	-29576	4504	928	2196	3079	801	-25504	15952	-664	3023	-1533	-535	115	129	1
-14320	-212	16192	510	477	949	-14792	-4792	-8120	3372	1929	-302	-15320	704	-12680	-979	966	-695	-32768	8928	7840	2113	8194	-4588	-24344	8808	-9800	2417	3233	560	-27904	19392	-20528	3132	-604	405	134	126	1
-14640	-12364	10292	762	58	876	-19328	3136	-5968	1917	1592	-157	-9096	-3032	-9864	-1768	949	-157	-29728	21248	16224	2027	4426	-5391	-26680	13096	-13512	1493	2991	256	-31304	8184	-16560	-343	-1412	958	123	128	1
-14144	-2544	13704	674	-81	511	-15632	1056	-7232	-153	1290	-665	-17832	-7408	-10128	-988	974	-502	-29136	16320	24248	2742	3522	-2140	-16696	9576	-12512	-725	2247	83	-29344	2136	-14224	-1793	-2392	1112	134	132	1
-10244	-7784	10556	317	-41	326	-18056	-1784	-4480	-1427	1183	-663	-14000	-6328	-6808	-116	897	-473	-32768	32767	32767	1058	-478	-1687	-4728	9512	-18464	-1152	720	-382	-23160	-1288	-13408	-1549	-2581	940	134	131	1
-9156	-5676	11676	99	33	287	-16744	-5016	-4432	-1613	937	-461	-17136	-2392	-6992	328	1103	-341	-6024	26576	21592	-924	-5058	-99	-4264	3888	3352	-225	-387	-364	-20928	-2584	-14128	-689	-2337	635	139	130	1
-10448	-5432	11372	-17	103	187	-18128	-1880	-5232	-1210	683	-201	-18136	1696	-8176	68	1102	-219	7320	12048	6296	-1893	-5299	463	-6168	2552	2672	129	-1230	-10	-19216	1112	-15704	-358	-2118	1055	140	128	1
-10772	-4820	11220	-30	155	120	-17464	-2000	-5440	-846	526	-155	-14696	664	-5752	-410	1166	-137	4672	6552	3920	-1086	-4703	1404	-2376	-864	-992	-185	-2396	-44	-15464	-896	-14184	-310	-2202	1317	137	132	1
-9952	-5488	11104	-9	185	32	-17448	-3968	-4752	-473	494	-197	-14104	-2048	-5216	-518	1417	-138	-6072	11832	8984	-619	-4776	2068	-2608	4728	-3264	354	-2834	-87	-11744	-1512	-12904	-237	-2136	1281	134	130	1
-9984	-6112	10792	36	192	54	-17552	-4328	-4624	-378	495	-189	-15872	-2616	-5256	-443	1531	-72	-10504	13088	11400	-1248	-5534	2284	-2040	5848	-5168	-173	-3716	-53	-8616	-2064	-12464	-305	-1971	1186	133	135	1
-10288	-5896	10720	20	179	66	-16144	-2856	-3000	437	395	18	-15632	-1704	-3832	-282	1515	-4	-9056	7040	8712	-1581	-6167	2469	-4552	4040	-2992	-841	-4469	-48	-7064	-800	-12744	-421	-1497	1066	130	132	1
-9692	-6072	10864	27	139	105	-16008	-368	-2056	367	319	122	-15832	-552	-3720	-270	1588	17	-9360	4488	6824	-1074	-6156	2747	-8808	2520	-4176	-1292	-5155	-150	-6496	-160	-14048	-484	-1072	1270	127	129	1
-10196	-4752	10432	3	20	140	-16128	2992	6448	-735	912	-36	-13624	-800	-4912	-303	1468	105	-15424	5760	10680	-944	-5903	2757	-12840	-1120	-7096	-1119	-5612	-373	-6696	-952	-13048	-848	-719	1296	122	131	1
-10676	-5180	10632	-2	3	143	-15712	-704	-1944	-879	384	-22	-14800	1592	-3144	-481	1757	-291	-26600	2120	16624	-821	-6158	2573	-17784	-2192	-10112	-867	-5930	-361	-6240	-2472	-10568	-1396	-477	1100	128	131	1
-10144	-5748	10804	-10	-44	131	-15360	-3344	-2432	-1011	530	-160	-14096	-136	-2112	-943	2003	-228	-29336	2136	16568	-103	-6517	2329	-19560	-4016	-9672	-567	-6097	-413	-4904	-5744	-11024	-1832	-350	751	129	133	1
-10088	-5280	10528	37	-65	131	-16088	-2736	-1272	-441	528	-142	-17136	1888	-560	-850	1984	-105	-29384	8128	16224	-285	-6214	1856	-22192	-1504	-11184	-151	-6048	-240	-4280	-6408	-10400	-1794	-307	649	129	135	1
-9592	-6188	10828	75	-72	221	-16568	-2968	-912	-266	558	-19	-14240	608	480	-689	2058	58	-30376	6296	15984	-654	-5488	1947	-27864	-6536	-11584	-612	-6120	-264	-8888	-3032	-248	-1244	-695	311	127	132	1
-9584	-6204	10124	38	-15	339	-16200	-1256	1016	-432	684	79	-17176	-120	1368	-775	2095	-158	-32768	1760	19160	-389	-4709	2191	-27360	-2248	-14344	58	-5710	-365	-12568	2616	3544	-985	-1028	343	130	132	1
-9868	-6136	10608	-43	132	373	-16880	968	104	-916	917	-47	-17960	-808	376	-883	2162	-263	-32768	-1896	13512	-223	-4802	1987	-29240	1168	-16816	39	-4913	-360	-19672	6120	5040	-1137	-1046	733	126	126	1
-10300	-4788	11056	-128	302	367	-17024	1096	-640	-1219	1197	-154	-16576	1488	2112	-642	1968	-333	-32768	-3528	-4240	-118	-4281	1871	-23600	-176	-18744	-737	-3875	-605	-32768	5368	11064	-2008	-1513	1086	118	123	1
-10308	-5092	11100	-161	338	365	-17176	-560	-16	-937	1541	-123	-18952	4376	1304	-622	2028	-282	-32768	-2592	-17056	-588	-2367	505	-12960	-3920	-19696	-894	-2914	-342	-17600	-7816	21032	-870	-701	1209	108	111	1
-11084	-4456	11860	-440	898	146	-17392	616	-776	-338	1820	4	-19760	4816	40	-612	1576	-36	-32768	-10240	-22112	1132	-1371	-108	-8992	-136	-19808	568	-891	169	-14184	-11056	26992	-681	-500	1294	106	107	1
-11556	-3208	12880	-650	1363	-131	-18768	3216	-1912	-321	2062	62	-21760	624	-1216	-575	1152	151	-32768	2808	-24184	1167	-444	-193	-3592	2088	-19976	746	669	544	-12160	-5336	19672	1422	857	-430	106	112	1
-9772	-6976	14212	-877	2034	131	-20928	3056	-2024	-526	2326	32	-22112	-48	-96	-293	505	186	-32768	3352	-22664	-1400	1551	-994	-10168	1992	-18000	673	1956	526	-18072	936	11344	1423	1519	-375	105	108	1
-11200	-4928	13120	-972	2787	355	-21320	816	-2056	-361	2527	-51	-20048	488	3008	232	-215	241	-12824	2168	32752	-1772	882	-289	-24616	-12216	20968	1010	2197	-227	-8544	7280	15032	307	3727	879	106	109	1
-10732	-7720	13132	-1030	3667	449	-23456	1392	832	-251	2769	-28	-25360	3080	11312	710	-833	597	-1520	-23296	19888	964	2858	-3170	-32768	-208	5752	-2205	1606	643	-32768	9088	-7384	507	2185	1056	109	110	1
-10092	-8008	13860	-1023	3848	455	-29472	512	3720	-219	3086	-29	-32768	688	18440	1501	-1970	1178	-32768	13504	9952	449	3559	-1525	-4672	-17648	-16792	-2210	2203	104	-27048	13536	2400	-1825	-991	166	116	114	1
-14232	-13344	12956	-3111	6561	1599	-32768	7200	7784	-450	3181	-495	-21608	13664	6136	1801	-2109	1810	-14544	11088	17176	-63	2896	-86	-22776	5544	-1368	541	2954	70	-1216	-10024	464	-2463	16	-1184	118	105	1
-15084	-21568	14168	-2803	7326	2159	-28328	3304	3872	-1011	3223	-729	-10408	21200	2184	-1306	-1084	1580	-20600	6304	18136	-223	3080	-410	-16272	7248	-8248	-1689	2052	634	-14792	-8056	-7336	-836	922	-203	110	115	1
-24440	-12880	17128	-1661	6563	2971	-21712	-10160	920	-1562	3872	-639	-23376	-7168	-11824	-2780	84	118	-18480	5024	13144	-62	1066	-180	-17952	112	-9736	-1051	1846	519	-16016	4752	-18896	1180	841	372	113	113	1
-32768	-29512	17448	-1322	4111	3933	-26368	-14768	-17712	-1249	3840	-369	-30560	-13256	-15112	-4118	-1269	-315	-16400	5040	15520	-40	-230	-624	-17080	3864	-10600	-252	1825	445	-11680	5024	-8768	1022	758	-11	116	109	1
-22132	-32768	32767	26	893	2606	-26080	-12120	-10984	257	2747	-27	-29112	-3928	-12720	-1362	-2452	-596	-5840	1008	16344	8	-118	-291	-16688	-4936	-4704	-243	1377	344	-15440	4104	-9056	718	1178	199	120	107	1
-2708	-25108	31260	1016	-1396	1729	-23392	-7432	3952	1519	1007	31	-28808	3784	-15984	407	-2062	-17	-9752	4632	13320	-41	85	-188	-18856	1344	-4856	685	1387	325	-17480	4776	-9800	560	1266	55	117	106	1
10808	-17868	18912	1075	-2154	1263	-15992	-4104	4672	1277	41	-141	-25816	-3336	-14256	250	-2273	-268	-9320	3400	13808	15	140	-54	-16568	1728	-5536	643	1071	209	-16032	4440	-8296	476	1197	-217	113	108	1
7484	-16716	16292	875	-2428	737	-9328	-352	2392	711	-878	286	-19824	-1952	-12112	310	-2106	-258	-10264	3848	13248	75	124	-23	-17640	1016	-7016	869	854	194	-14384	3128	-7896	567	1416	-243	120	116	1
3800	-16816	15516	705	-2866	-115	-9192	-1632	-96	109	-1681	263	-16672	216	-12000	378	-1912	-356	-9504	3600	13424	116	117	-66	-18008	1664	-5488	576	571	234	-16352	1648	-7168	840	1607	-302	126	117	1
1136	-14272	12836	742	-3381	-893	-11312	-2360	-1264	-38	-2358	355	-14112	-208	-12504	465	-1902	-215	-10656	4120	13040	68	162	-2	-16112	1640	-4400	317	401	172	-15944	2088	-5320	1066	1544	-271	121	115	1
-1864	-11996	10520	714	-3696	-1652	-11016	-4056	-3544	113	-3003	516	-11968	-944	-12408	656	-1966	-87	-8952	4024	13608	66	179	62	-16560	2104	-1688	195	315	6	-14568	4472	-2768	1189	1563	-317	122	116	1
-4912	-11812	9972	763	-3841	-2150	-9792	-4448	-4432	584	-3643	719	-10984	-2152	-13104	1030	-1942	-190	-8680	4704	13400	132	156	-32	-17240	1232	-824	388	420	-14	-16296	5336	-2824	1122	1523	-341	115	120	1
-8612	-11556	10556	805	-3959	-2465	-11904	-4696	-5944	1073	-4203	841	-9096	-1472	-13344	1216	-1993	-290	-9168	5080	12976	112	59	-59	-15424	2496	-1528	1028	596	-36	-13840	4888	-1712	1196	1591	-382	120	117	1
-13648	-10740	12172	592	-4226	-2751	-12432	-2208	-8272	1444	-4597	1040	-6840	-936	-12960	1395	-2005	-313	-9168	4856	13032	169	5	-64	-15744	2864	-1080	1265	305	14	-12960	4736	-1984	1157	1598	-308	119	120	1
-15316	-7404	11220	318	-4272	-2976	-15312	-2040	-9752	1545	-4966	1276	-5848	-456	-12544	1562	-1928	-251	-10000	4184	12608	182	15	-12	-14784	992	-2648	915	583	77	-14992	4176	-3104	1206	1749	-383	124	121	1
-18264	-6884	12356	14	-3879	-2829	-15496	-216	-9616	1043	-5220	1576	-4736	520	-10096	1514	-1635	-195	-9616	4080	12352	74	-14	-105	-14576	2840	-1648	460	631	-88	-15376	4792	-2832	1037	1728	-402	122	122	1
-24428	-11304	18588	-182	-3886	-2744	-22056	-32	-11296	348	-5272	1294	-4488	1704	-5808	1312	-1603	-96	-8944	4528	12704	-47	-25	-118	-16976	2152	-1592	-96	622	-122	-13832	2672	-1968	1032	2032	-414	124	121	1
-24328	-14492	17112	11	-3851	-2976	-22152	-1992	-9872	69	-5310	1253	-6456	1056	-3104	1194	-1681	-35	-8600	3752	12824	-63	58	-121	-16984	1576	-1696	-159	634	-92	-15896	320	-1104	1034	2271	-259	125	120	1
-24680	-16372	12320	279	-3374	-3077	-22200	-3320	-9808	-24	-5310	1347	-9512	1312	-2904	1136	-1529	127	-8744	4840	12944	-59	78	-252	-16328	-544	-848	-8	999	-44	-17904	1304	-3104	1449	2062	-327	121	123	1
-27148	-23112	11028	-79	-2779	-3165	-21976	-4968	-11088	459	-5102	1119	-11608	5120	-3744	1073	-1182	254	-8688	4216	13376	-69	109	-291	-15328	224	-736	97	1211	101	-16304	2376	-3128	1361	1581	-159	123	123	1
-32768	-11188	-1536	956	-1879	-2957	-23904	-5600	-15240	1012	-4480	743	-15488	5744	3304	1210	-1470	658	-10152	3352	12792	56	303	-244	-15920	-288	-2416	55	1332	40	-16104	3648	-1856	1112	1308	-107	119	122	1
-32768	-8928	740	530	-1510	-3468	-20160	-5832	-15552	1529	-3661	704	-20864	6032	7904	1644	-1778	740	-9760	4560	13168	179	554	-165	-16888	416	-1488	-175	1465	-42	-15856	3144	-1568	913	1272	-112	116	124	1
-32768	-6716	-3656	716	-1746	-3456	-20040	-8376	-864	1484	-3603	868	-22184	6128	8896	1694	-1723	702	-9800	4352	13384	222	805	-183	-16264	1584	-1416	-515	1551	-37	-15224	3248	-1472	872	1253	-132	111	122	1
-32768	2160	-16252	1044	-1117	-2763	-12968	-4016	-13744	2109	-2557	653	-13192	11864	7272	1115	-679	-288	-9440	4328	13800	282	1111	-226	-17480	336	-1520	-593	1727	-50	-20736	7256	-4800	938	958	-345	108	124	1
-32768	3700	-23540	888	-68	-1482	-11992	-3584	-18032	1321	-768	77	-14192	7128	16944	782	-440	-139	-9528	4800	14256	404	1485	-250	-19784	208	-4184	-394	1955	-56	-18144	5528	-4696	568	544	-338	115	125	1
-32768	7208	-26788	661	1216	-482	-9680	-7232	-15496	1358	737	-637	-20352	4840	11720	931	587	-120	-10584	3992	14488	486	2108	-342	-22232	-392	-4768	-286	2134	-30	-18848	4888	-1648	103	412	-343	129	128	1
-30768	11764	-30912	255	3050	674	-13992	-3216	-13184	1836	1874	-1008	-24920	7120	6616	919	1273	-209	-10728	3568	14416	701	2959	-307	-21336	-608	-2632	-463	2245	14	-20184	4480	3336	-63	44	-457	128	127	1
-30352	3556	32767	2356	6234	1701	-32768	20600	5048	3194	2311	-703	-25224	7392	2808	740	2029	-864	-11776	5944	15472	1177	3731	-447	-24216	-816	168	-555	2493	6	-24824	4808	7680	-247	-424	-558	135	134	1
-32768	16916	32767	-554	2722	2767	-24304	14568	-8784	2980	2212	-726	-21912	14120	7240	1785	513	-1202	-8216	9040	18360	1244	4825	-254	-28040	-2584	4160	-415	2777	201	-32768	6408	15872	-423	-1110	-776	133	132	1
-28204	-18304	6924	-688	2495	1350	304	6568	4440	585	2271	-1320	-15744	6408	-2208	563	831	-862	-12472	17176	16640	1279	6167	-794	-32768	-2936	7416	186	3183	622	-32768	3344	14192	-1644	-2695	-682	125	131	1
-12728	-18036	6280	-772	2619	446	-22072	-10328	-6592	-3407	2430	-1972	-744	1688	-10232	-1013	-155	231	-13440	18192	19048	1416	7972	-1910	-32768	-4136	9480	1073	3279	1103	-15176	-11152	16576	-160	-3876	-810	127	127	1
-23472	-10352	13588	67	433	1158	-9952	-24008	-14192	-67	2267	-1261	-13104	-2184	-10048	-247	717	-730	-22528	6392	14192	2358	9547	-3109	-32768	-3600	9152	1245	3234	1139	-23872	-2416	9664	1718	-1544	-421	127	125	1
-13936	336	12868	387	-93	777	-16936	-9120	-9336	3983	1866	-477	-12248	-6872	-14152	-382	850	-791	-32768	18632	21592	2828	8768	-3909	-29392	6104	-2688	2829	3815	811	-30312	22080	-27264	4167	-1193	473	131	127	1
-14100	-9504	9888	766	-328	786	-17320	4848	-5080	2736	1343	-206	-15688	-5304	-10872	44	1014	-421	-32768	17776	27848	1163	6254	-5518	-28496	6464	-2504	2487	3286	728	-28520	11344	-13968	701	-2846	719	124	125	1
-11448	-5536	11212	525	-254	573	-17128	6480	-5472	-754	1277	-911	-16016	-1456	-9216	711	877	-379	-32768	28064	30960	1771	2719	-3624	-15776	12728	-29064	925	2960	845	-23776	-4560	-7072	-880	-2640	888	126	137	1
-11592	-5832	10796	499	-217	519	-18968	-3568	-4528	-1485	1138	-852	-15568	2064	-4792	700	1064	-567	-32768	32767	32767	1885	-3629	-698	-14248	13456	-29296	472	2800	706	-25704	672	-13112	-1289	-2513	729	136	135	1
-10264	-5200	11360	-73	17	187	-17912	-4656	-4792	-784	1052	-760	-17368	4688	-4560	190	1390	-490	19808	21360	17880	-395	-4729	645	-18696	1936	14952	718	-614	-186	-31416	80	-15552	-579	-2244	893	136	135	1
-10300	-5656	11560	-120	39	211	-15864	-3568	-4256	-128	965	-567	-14328	-80	-4232	-687	1476	-330	6264	13248	16456	-1396	-3818	1603	-4920	2736	2288	-902	-1929	298	-20152	-1344	-14888	-172	-2321	1357	136	134	1
-10528	-4848	11064	25	129	179	-16112	-4824	-4968	388	862	-506	-14216	-1984	-4928	-748	1421	-267	-3000	8064	19736	-1220	-4785	2832	-3480	-512	-2472	-914	-2793	-149	-14360	-560	-12912	-666	-2547	1295	132	134	1
-10152	-5624	11132	115	98	161	-16160	-2016	-3320	774	808	-408	-15456	-1520	-5088	-420	1306	-188	-4104	5144	16728	-1054	-5560	3170	-9208	2720	-1216	-436	-3934	-226	-14824	-1280	-13856	-667	-2547	1201	128	133	1
-9300	-5428	10948	101	86	180	-15968	240	-2112	101	692	-342	-16208	-2144	-3640	-328	1209	-281	-9648	424	14392	-820	-6177	2725	-10072	4600	-3968	-857	-4712	-84	-12888	424	-15112	-550	-2257	1198	133	127	1
-9072	-5408	10928	-22	58	189	-15864	-1088	-2368	-777	675	-366	-16168	-1992	-3352	-348	1216	-287	-13544	-200	10472	-92	-6548	2298	-9440	-160	-6784	-1082	-5398	-260	-8368	-1704	-14936	-771	-1793	1304	121	126	1
-10692	-4796	11060	-22	41	158	-16376	-2632	-3072	-1643	1569	-370	-15456	-2896	-448	-837	1552	-321	-18128	5408	10992	174	-6332	1866	-13128	-952	-9880	-839	-5744	-252	-7720	-2200	-14776	-828	-1704	1289	126	124	1
-10432	-4948	11424	1	11	222	-14408	-4088	-2472	-629	836	-195	-16656	-3176	-584	-369	1220	-225	-25184	7680	16064	-166	-6219	1772	-17400	-2464	-13216	-657	-6028	-402	-5760	-7272	-12016	-1191	-1161	907	126	127	1
-9928	-3632	10936	-119	-5	23	-13960	-6056	-3272	-36	874	-179	-16696	576	-824	274	1371	-120	-29680	6936	17272	89	-6353	2320	-19576	-5296	-14320	351	-6017	-412	-5280	-6080	-10904	-565	-1033	672	126	130	1
-9476	-4804	11544	50	53	326	-17128	-232	-888	151	919	-250	-14960	1528	304	460	1218	77	-29136	7632	15344	184	-5999	2588	-21592	2256	-13576	1173	-5927	-190	-5104	-2656	-7376	28	-935	641	127	129	1
-9300	-5820	11432	-30	130	302	-17496	-784	-3168	-107	919	-227	-18032	2736	-3432	351	1339	-45	-32768	3320	15040	465	-5423	2184	-23592	3160	-15464	678	-5908	68	-6696	-1080	-4136	203	-937	815	129	129	1
-10480	-4532	11012	-115	142	414	-16328	328	-5160	-367	1031	-434	-15072	6112	-1400	-94	1332	-195	-32768	1824	14216	787	-5049	1403	-23712	3528	-19768	570	-5701	244	-8520	496	-568	301	-1019	795	127	128	1
-10252	-3768	11456	-281	205	367	-16768	520	-2968	-810	1204	-551	-14272	4088	1608	-694	1485	-450	-32768	-6544	6632	1419	-4692	820	-24224	-7224	-24096	309	-5066	193	-15112	2504	5024	-64	-1658	812	127	131	1
-10500	-6132	11560	-374	386	424	-17224	-2864	-1672	-833	1232	-525	-17224	824	856	-838	1533	-401	-32768	-13040	-5568	1999	-3620	558	-16680	-9408	-25152	2016	-3408	-6	-25120	5648	6656	-160	-2168	935	124	126	1
-10540	-4444	12084	-336	719	592	-18320	-1880	-4872	-344	1397	-570	-17496	1912	1216	-699	1393	-275	-32768	-10480	-9536	1011	-2599	-602	-10624	432	-26464	3497	-1736	-36	-20856	-3768	8360	363	-1398	1509	110	117	1
-10232	-2844	13200	-338	1179	472	-20328	3296	-4976	-390	1555	-603	-19120	4176	3328	-323	1090	-228	-32768	-12176	-16736	1302	-1847	-2014	-11408	2208	-23760	2746	-694	429	-5696	-2200	21536	2331	522	1588	105	116	1
-10640	1988	13316	-501	1785	245	-18848	8592	-5208	-1066	1739	-639	-17168	10120	5952	87	945	-83	-32768	48	-21472	2189	-798	-2294	-10480	-1864	-19952	1718	697	517	-8560	-608	24200	2931	1889	-437	107	114	1
-10652	-2600	14164	-797	2737	-3	-20992	6768	-4840	-1657	2082	-546	-18912	10960	5080	-541	974	94	-32768	11808	-11384	-1064	1163	-2045	-9632	-7448	-17544	1367	2027	320	-3520	3792	8488	2577	2570	-631	115	110	1
-11756	-4736	13540	-1356	3749	-102	-24176	1056	-4296	-1184	2362	-708	-19536	8240	7896	-833	657	722	-8960	2000	19688	-1422	2544	-306	-17200	-10416	12792	2184	2446	-433	-14584	15752	-12872	2183	2456	317	116	120	1
-13092	-9568	12664	-1468	5017	-259	-27472	-2232	-3864	-617	2615	-928	-22584	3448	12760	-1136	322	1150	2568	-22056	24440	-577	2825	-2607	-32768	24008	19328	-647	1814	308	-32768	26240	-2632	-2258	87	875	113	116	1
-12572	-10172	15900	-2311	6476	53	-32768	512	3640	-331	2953	-1168	-30384	248	10072	-496	-53	1023	-32768	20848	14176	-801	3297	-1867	-10376	-22120	-21752	-4512	1658	-323	-3152	424	15200	-4158	-1813	-772	115	115	1
-11512	-12668	15840	-3084	8203	232	-32768	10816	5576	-530	2942	-913	-30400	9696	4432	-506	-1068	919	-12488	5064	17776	-1286	3282	-334	-20376	13280	-13720	-2086	2403	-826	-11288	-9280	-11344	-2326	1257	-1039	110	116	1
-13448	-13844	17788	-3156	9385	1278	-32768	-1784	-19800	-1414	2277	-810	-26704	-312	-3608	-1733	-1257	877	-24504	5672	20656	-1458	2479	-979	-20696	13848	-15424	-2748	2095	-574	-21584	-4088	-11536	-476	710	-122	113	113	1
-31628	-13084	11684	-2284	8244	2583	-15776	-12976	-8760	-3057	3035	-799	-26256	-20520	-11696	-2616	-1161	410	-12176	1032	17784	-988	801	-530	-19928	-2968	-10464	-956	1663	-4	-22792	-4160	-11624	-203	597	-117	113	123	1
-32768	-9188	12572	-2177	3505	3040	-23192	-15072	-20832	-2532	2780	253	-27776	-18248	-13280	-1269	-1988	-209	-10600	3016	15512	-72	71	-540	-19832	-5576	-6160	370	1548	186	-16920	568	-5328	587	543	-31	113	111	1
-23088	-32768	30876	1054	1605	1307	-18488	-27856	-20088	-751	2459	1505	-31496	-14792	-14040	1023	-2066	1	-9416	1752	15080	-81	82	-428	-16400	1320	-6144	866	1356	255	-18448	-1928	-7928	758	747	-344	113	113	1
-20080	-25008	32767	2938	-2847	2043	-16672	-18888	528	2668	916	1377	-26984	-4384	-16144	2103	-1527	297	-11936	4152	12832	-166	79	-393	-16032	1928	-8192	818	1033	321	-17536	320	-9992	1319	843	-150	122	123	1
872	-11644	17108	2762	-4071	2493	-11816	-12232	-320	4072	-66	1558	-23592	-6088	-14488	2106	-1701	285	-9200	3728	13088	-216	64	-317	-18592	3672	-7008	482	721	256	-17640	3448	-7768	2096	1037	-193	122	122	1
2408	-13360	10952	1914	-4774	2298	-7840	-1776	-416	3853	-786	1807	-20272	-5616	-15656	2260	-1759	163	-9432	4136	12360	-84	35	-314	-18272	3960	-6440	419	685	261	-16112	8184	552	2365	763	-197	126	123	1
-2116	-21184	9324	1299	-5413	1294	-4128	4584	-888	1714	-1254	1803	-19776	-5560	-16032	2344	-1806	179	-4856	3152	14320	176	125	-236	-18272	-48	-760	623	343	24	-17344	7296	-1864	2151	917	-83	119	120	1
1576	-22664	4584	1257	-5868	194	-6696	1208	-912	-464	-2082	1802	-10648	656	-13688	2844	-2135	677	-6544	4800	13384	385	175	-72	-18568	-576	104	1262	318	11	-16536	8984	-912	1478	809	-113	122	117	1
1832	-19812	-112	1222	-5393	-1263	-8008	-4232	-3288	-940	-2801	1882	-8136	1200	-14200	2752	-1989	622	-12224	5936	12688	597	303	95	-17040	3352	-3200	1323	436	19	-15976	6520	376	1392	717	-578	124	122	1
-2120	-17836	-1456	1375	-4848	-2735	-8168	-5912	-3816	-633	-3333	1885	-8824	-496	-14960	2840	-1971	528	-11000	3248	12856	583	178	134	-14760	2856	-3424	681	304	-86	-16072	312	-336	1520	639	-666	125	114	1
7992	-12200	-1368	2655	-4369	-3111	-11368	-7736	-4392	105	-3643	1885	-8488	2216	-14224	2528	-2165	478	-9608	5440	13552	553	222	204	-15400	568	-1664	1298	467	-92	-14392	2880	-2216	2312	611	-463	123	126	1
-11588	-10660	5332	2284	-3877	-3111	-14216	-9208	-8384	1364	-4289	1891	-6296	4280	-12384	1945	-2235	450	-11160	8368	11128	339	365	54	-14088	7552	-3464	1421	554	-112	-12248	10640	-5168	2705	660	-369	122	123	1
-17180	-12116	8480	-254	-3695	-3113	-13112	-9408	-11680	1582	-4132	1320	-5544	2592	-9632	1256	-1899	471	-10208	7216	11544	-65	215	-263	-14136	7976	-3288	548	480	-182	-11952	12144	-4240	2254	655	-358	119	120	1
-19904	-12716	7956	-516	-3686	-2940	-16296	-4992	-11832	2218	-4478	1404	-6432	1576	-7672	1256	-1467	379	-10280	6352	11728	-324	26	-468	-15600	2760	-2592	187	482	-323	-13632	9760	-1392	1606	821	-428	119	118	1
-23100	-16660	9964	-798	-3064	-3223	-17904	-960	-11960	1526	-4477	1759	-8584	1256	-4936	1617	-1328	341	-10280	4232	12584	-282	-101	-502	-15360	1040	-2448	38	603	-431	-15744	5472	984	1080	857	-559	129	119	1
-25848	-17764	13780	1078	-2696	-3754	-18736	-2744	-12056	1385	-4308	1834	-9216	1040	-4320	1686	-1296	328	-10272	4680	12688	-198	46	-517	-16144	-1696	-3392	12	706	-417	-17392	-176	880	1036	914	-633	131	123	1
-26208	-11308	13124	2189	-2788	-3385	-20464	-5352	-12096	1299	-4198	1898	-12464	-664	-4904	1748	-681	8	-10400	4224	12240	-150	53	-419	-13664	-936	-1272	552	915	-318	-15488	1976	1560	1593	655	-607	127	123	1
-30080	-12940	14428	1650	-3406	-2856	-22200	-7264	-13640	1081	-4267	1767	-12152	4600	-7000	1719	-556	302	-9760	5472	12248	-73	125	-401	-16120	2896	-1888	948	1054	-260	-13912	4616	1240	1715	535	-401	124	128	1
-23396	-9844	7132	791	-3508	-2408	-22472	-6704	-13504	1179	-4289	1707	-13760	5784	-4008	1687	-533	799	-9800	5616	12096	-25	150	-508	-16976	2288	-1792	658	1165	-172	-15664	4504	-304	1498	588	-346	128	127	1
-20452	-5560	3312	51	-2589	-2091	-19528	144	-9424	466	-4118	1193	-16760	2528	-2640	1699	-240	799	-9568	4128	12600	73	66	-706	-15080	-528	-3568	254	1154	-132	-16432	2408	-1736	1275	721	-280	128	128	1
-32768	-10728	12668	-54	-2342	-1953	-16752	-3208	-14376	46	-3444	910	-25704	8184	4744	2144	-453	834	-9776	4016	12656	203	145	-649	-15400	-72	-6312	264	1247	-224	-13952	2016	-4792	1366	781	-408	130	130	1
-25684	4652	-3868	-78	-2450	-1673	-20088	-3848	-19272	-519	-3558	587	-11944	13688	10000	2960	-670	366	-10632	4720	12344	266	383	-550	-17344	1128	-5832	106	1271	-277	-14760	4480	-4176	1119	871	-496	125	132	1
-30576	5244	-7188	-497	-1633	-300	-11672	-3200	-12696	-355	-1593	317	-13024	16464	11832	1546	-770	379	-9688	3496	13376	240	459	-620	-14664	-1880	-3976	-158	1150	-193	-16256	5120	-2400	411	849	-469	127	132	1
-28188	3388	-12172	-481	-933	591	-8088	-3544	-11264	-202	-782	-80	-14664	11280	12144	173	-173	105	-9544	3240	13240	323	735	-506	-18224	-1264	-4872	-184	1263	-255	-18616	3336	-3000	154	894	-726	125	131	1
-23440	2216	-14160	110	490	1345	-9424	-4248	-9264	-604	155	-253	-10048	8712	8336	-713	148	90	-10576	3864	12272	412	1108	-466	-18296	-2280	-7144	-314	1268	-223	-17792	-624	-2072	-12	934	-900	126	134	1
-28476	-948	-7388	237	1315	1660	-10320	-6048	-10272	-617	1021	-483	-8056	7992	6544	-844	406	-330	-11216	3440	13184	509	1330	-467	-15400	-3392	-6008	-164	1349	-139	-16424	-1872	-200	14	971	-922	126	129	1
-28880	-1736	-6404	139	1326	1632	-13400	-6944	-11352	-411	1760	-678	-17040	8520	5408	-626	629	-649	-12152	3560	12920	605	1509	-453	-19040	-1608	-5608	-35	1482	-68	-18480	248	2080	74	958	-803	138	139	1
-5832	-10136	10692	1404	2047	1624	-19552	-2816	792	358	2072	-831	-16896	5048	-3024	-1704	837	-1377	-12824	4040	12864	687	1669	-567	-21256	-2400	-4336	-20	1555	21	-21040	1032	5144	151	788	-743	143	144	1
8672	-11956	32767	282	3255	1773	-32768	12176	23952	1676	1350	363	-23032	3584	-1128	-1906	1227	-1687	-16584	6056	14336	549	2877	-488	-26424	-1112	-1160	189	1794	114	-25584	3960	11384	310	409	-593	148	142	1
-32344	-5860	10716	343	3565	2122	-19696	7048	-7912	90	1826	-858	-32768	7176	1520	-1344	250	-1751	-12056	7568	14896	891	4030	-577	-25848	-3656	1536	179	2113	371	-31088	2216	12272	325	48	-317	133	138	1
-29392	-15424	16356	274	3287	1133	-19976	13264	-8336	-1239	2344	-1258	-18768	-920	-8488	-537	-302	-1401	-13112	10024	14376	1242	5316	-894	-27568	-5776	824	722	2396	649	-26456	1408	12840	465	-810	-680	122	128	1
-14948	-3420	14640	19	2956	330	-19048	-6488	-4824	92	2255	-936	-7608	-2552	-6176	-192	59	-482	-12456	4608	13352	1860	6706	-1282	-29912	-4056	4208	956	2522	848	-22160	2120	14680	612	-1457	-601	121	123	1
-32768	-7460	29532	594	1325	875	-13008	-11136	-15896	2197	1912	-265	-13088	-3808	-9040	303	757	-804	-14568	6576	11952	3037	7995	-1582	-27984	-5896	4136	901	2504	823	-20392	9184	7496	970	-1542	-404	129	121	1
-17796	-15952	12884	290	522	357	-20112	-1360	-10096	3309	1517	-241	-13360	-4736	-10264	324	789	-761	-25896	18976	19176	3058	7879	-2664	-26088	2080	-3408	1949	2993	444	-21768	17472	-6288	1074	-919	123	129	123	1
-12324	-3172	13412	486	162	137	-17832	-1896	-8944	3649	1144	-385	-16040	-1952	-10752	1666	1026	-269	-32768	1104	17952	-73	5447	-4867	-21376	9152	-6264	1815	2957	733	-23848	10600	-13168	-137	-1242	72	129	122	1
-12408	-4368	11228	242	78	-29	-17792	8080	-4768	1487	918	-436	-15696	3064	-8664	1661	1072	-332	-32768	14080	20264	944	2169	-3745	-19408	10272	-15216	877	3118	411	-22456	8144	-6392	-1407	-2044	-10	123	121	1
-9452	-4972	11396	-13	95	-23	-17048	5640	-3680	-685	757	-791	-15464	8368	-8232	1100	937	-653	-18528	15728	32767	610	435	-687	-18704	120	-3824	-245	1901	-239	-25184	2512	-11352	-1765	-1856	87	122	121	1
-10020	-6540	11156	-191	136	153	-15976	-832	-3584	-1782	569	-990	-16208	5888	-5656	-474	831	-961	5584	20256	23416	590	-1631	347	-17224	3248	4992	411	729	-514	-23104	-2072	-9920	-1759	-2004	78	115	121	1
-11280	-5084	10848	-129	159	132	-16520	-4856	-6000	-1752	522	-1046	-14368	2024	-5128	-1487	1021	-956	3048	9624	20656	-675	-1276	460	-10776	3336	5928	83	-259	-393	-20560	736	-9168	-1099	-1830	538	125	120	1
-11372	-5120	11020	-117	163	113	-16464	-7912	-5736	-580	422	-742	-14464	112	-4560	-2011	1063	-1018	-4048	10344	23344	-815	-1976	1094	-7544	3456	-384	-954	-950	-445	-16768	336	-8192	-923	-1833	875	126	118	1
-10020	-5476	11320	11	239	-41	-16928	-3496	-3176	253	389	-641	-14928	-2752	-3640	-1742	1060	-784	-5408	11944	22392	-1368	-3244	1478	-9624	2680	-1424	-1048	-1968	-597	-16736	4696	-8032	-920	-1946	973	125	123	1
-8932	-5436	11524	5	204	39	-16544	176	-664	7	246	-402	-15280	-3520	-5056	-1510	1233	-569	-3232	8320	17920	-1686	-4044	1547	-11416	1600	2056	-775	-2691	-682	-16736	7144	-10088	-1123	-1831	888	126	120	1
-10268	-6428	10244	-49	190	232	-14720	-32	-3816	-1080	189	-505	-15928	-1664	-6944	-1277	1400	-660	-4104	7904	14816	-1467	-4613	1691	-11928	2992	-912	-709	-3211	-823	-15320	-592	-13632	-1760	-1946	862	125	123	1
-10768	-4716	10628	-118	33	350	-15872	-2736	-4280	-1955	58	-646	-15864	-2792	-5832	-1825	1483	-903	-6464	12376	13112	-1489	-4889	1727	-11712	5000	-3928	-830	-3908	-1016	-13432	2560	-12272	-2214	-1731	775	125	126	1
-11540	-3648	10028	-90	-116	157	-16528	-6048	-6128	-1555	-407	-569	-12656	-5288	-1888	-1810	1520	-810	-12120	15624	13400	-1998	-4948	1795	-13008	6104	-5776	-1548	-4657	-1041	-11288	-1368	-12704	-2507	-1620	826	120	121	1
-10608	-5340	10804	18	-153	214	-15280	-6240	-2728	-679	322	-304	-16624	-6448	-3208	-1178	1238	-288	-15808	13840	14088	-2027	-5177	2278	-15848	2120	-7984	-2091	-5208	-1176	-9816	-4352	-12016	-2363	-1654	785	122	124	1
-9924	-5888	10772	75	-160	298	-16576	-3312	-4424	95	309	-107	-16880	-4856	-2224	-456	1429	-217	-19536	16656	14312	-1799	-5206	2622	-19784	1944	-8584	-1546	-5457	-1376	-10432	-4296	-9264	-1958	-1558	565	126	128	1
-10536	-5052	10900	37	-102	254	-18528	-448	-4856	-18	300	-46	-16984	-1408	-2864	-160	1655	-130	-21928	16040	14312	-1841	-4977	2735	-22360	1976	-8832	-1081	-5643	-1301	-9496	-3736	-7344	-1362	-1416	541	127	127	1
-10260	-5124	11264	-34	-52	229	-16672	-944	-3344	-430	476	-185	-16432	520	-3496	-220	1519	-198	-23552	16304	15096	-1569	-4415	2599	-24952	3728	-9672	-552	-5642	-1149	-8120	-1840	-6104	-1023	-981	645	124	124	1
-10064	-5520	10744	-98	-43	217	-16496	-1664	-1984	-692	538	-274	-14752	1504	-1552	-544	1658	-319	-30832	20032	19008	-1587	-4044	2182	-25536	7760	-10832	-276	-5722	-918	-9440	-1752	-2336	-1097	-695	717	122	124	1
-9520	-5756	11148	-141	7	273	-18096	-4256	-1448	-704	638	-248	-17536	2280	-96	-997	1872	-474	-32768	12424	18600	-1311	-4544	2327	-21728	5040	-13264	-932	-5635	-764	-10336	1440	-2256	-1395	-842	960	124	125	1
-9356	-6076	11072	-210	115	429	-18456	-968	-1264	-495	784	-281	-16944	2592	-1192	-1215	1911	-549	-32768	12184	9736	-624	-4708	2429	-24576	-240	-14928	-777	-5245	-786	-13296	-120	-2288	-1756	-1045	1144	122	122	1
-9648	-4744	11512	-271	262	523	-17968	560	-496	-722	932	-284	-17976	1600	-600	-1507	1797	-716	-32768	5928	-536	-459	-4265	2045	-21176	816	-18616	-466	-4495	-522	-14240	-1832	-1152	-1659	-1495	883	121	122	1
-11372	-5152	10764	-367	459	531	-16976	-1232	-488	-797	1195	-318	-19432	-752	1720	-1393	1436	-611	-32768	6120	-5024	-562	-3511	1786	-16824	1120	-22120	-293	-3525	-478	-18416	-2848	11032	-1760	-1645	616	117	119	1
-11116	-6304	11248	-494	677	542	-16256	-1080	144	-650	1484	-415	-19496	592	1696	-1013	1147	-411	-32768	-2888	-16424	-272	-2856	822	-13984	832	-20864	110	-2585	-89	-16920	-6960	19968	-840	-524	687	110	115	1
-10776	-3160	12876	-311	1198	589	-18032	1768	-3200	-371	1747	-468	-18264	3416	-120	-832	1060	-405	-32768	-1696	-24128	1321	-1852	358	-10560	2440	-22048	758	-1061	489	-12264	-2280	16912	737	890	218	109	116	1
-11188	-3112	12624	-399	1770	364	-19336	2496	-4000	-314	1976	-512	-19248	3360	-1688	-707	892	-259	-32768	4112	-19656	450	-684	-266	-8808	2640	-21192	551	495	660	-19776	-3000	11192	710	865	-92	112	112	1
-11372	-4076	12468	-452	2481	210	-20144	704	-4656	-91	2154	-500	-19264	2424	-360	-378	453	-193	-32768	-1408	-15320	131	161	-404	-10072	-1056	-18888	537	1730	591	-18616	1864	4128	486	1281	61	109	114	1
-11452	-5436	12976	-513	3190	476	-20776	488	-3304	171	2335	-614	-19496	3208	2456	-109	104	-181	-9664	2304	-6136	-1390	1566	-860	-16800	-4264	-4944	643	2320	554	-2200	2232	7128	290	2502	748	110	106	1
-13284	-5992	12532	-773	4042	259	-23032	536	672	161	2502	-738	-23312	3720	7632	167	-391	-150	32767	-8720	32767	997	2860	308	-32768	-16904	32767	1194	1202	-465	-20128	3552	-12616	1947	2356	730	117	117	1
-13992	-8768	13100	-1643	4961	409	-27536	1120	1288	-348	2775	-1151	-32656	3208	18832	1023	-1934	374	-32768	-8528	18512	1886	3930	-2180	-19928	-3064	-15168	-1251	1803	773	-32768	15456	9544	-832	126	19	115	114	1
-14152	-13004	12448	-2553	6129	693	-32768	5008	4784	-1171	2895	-1528	-22040	13856	13832	-278	-1292	1549	-18872	27832	16432	1073	3242	-378	-18440	-8664	-7480	-519	1821	-227	-12616	-2856	7352	-3281	-156	-526	113	118	1
-13044	-14152	14672	-2709	7604	1575	-32768	7240	4816	-2155	2969	-1894	-21936	25840	-2336	-1236	-637	926	-22376	16304	15528	270	3215	269	-28448	9960	-7624	-889	2272	564	-21680	-2712	-4304	-1177	1186	-84	108	112	1
-19324	-11320	12412	-3222	8758	2453	-24464	2752	3760	-2280	2521	-1649	-30208	3032	-7552	-3670	-616	186	-10888	-1920	16128	391	2103	32	-14400	-3888	-4960	-2706	1847	344	-12784	-1424	-10960	-158	544	-77	112	112	1
-32768	-8492	13056	-4177	7419	2236	-22144	-9080	-11232	-3034	3292	-1410	-29888	-17744	-19368	-5618	-1450	-341	-17360	25208	11192	-243	1439	-497	-16064	7064	-8592	-526	1896	453	-11656	1816	-10280	458	874	-5	111	112	1
-32768	-22572	7452	-4690	3795	3079	-25264	-10832	-15360	-3414	2603	-750	-29544	-7336	-16880	-2599	-2833	-1274	-14560	-4312	19856	-465	1100	-589	-16368	-2712	-7592	-1629	1275	432	-14304	5240	-10112	561	1066	237	116	108	1
-6324	-32768	23456	-3368	1648	1273	-17328	-7712	-16424	-2258	1955	-392	-24816	-256	-17176	45	-3025	-25	-9704	8920	12680	-341	690	-280	-19464	-5416	-6352	-52	1255	406	-16936	2088	-10048	56	1271	129	118	117	1
-26984	-32768	32767	671	-2200	316	-7440	-7784	-5016	-532	472	-386	-19936	6208	-16992	579	-2328	89	-9768	2280	15576	-105	562	-311	-17616	-2952	-5168	1033	1099	259	-17128	1632	-10616	407	1399	-22	120	115	1
5804	-17680	20080	2225	-4010	-74	-9040	-10144	2960	494	-834	89	-20920	6920	-14736	488	-2148	19	-12624	5792	13528	108	339	-213	-17456	-448	-6800	1804	926	266	-14904	1552	-9376	766	1470	-137	121	118	1
5860	-5876	13988	1990	-4238	174	-7144	-1160	2144	2097	-1672	158	-18160	4792	-15904	19	-2092	-265	-10640	5112	13560	321	188	-84	-17464	2008	-5016	1641	674	313	-15328	2792	-6416	836	1547	-253	130	120	1
2452	-5292	13112	847	-4672	-662	-4384	3408	-1560	1844	-2367	113	-11928	4408	-15280	-277	-2173	-343	-9368	5232	13312	293	168	-48	-16920	1944	-2648	811	413	275	-15744	1736	-4992	842	1560	-330	130	122	1
-528	-6584	12616	206	-5190	-1335	-5000	3632	-520	778	-3248	232	-8648	4056	-13120	-484	-2148	-234	-10432	4760	13088	353	211	85	-16696	616	-2024	-298	217	146	-15832	1888	-2808	653	1475	-515	124	120	1
-4000	-5544	11708	10	-5488	-1646	-8144	3248	-2160	-115	-3935	343	-8296	1584	-12840	-588	-2073	-341	-7976	4656	12904	410	278	97	-17392	-2872	16	-638	173	-40	-14952	1752	-1360	589	1571	-704	123	119	1
-8972	-3528	12740	-232	-5644	-1973	-11024	1224	-3536	-596	-4505	500	-6328	-1784	-13352	-445	-1873	-501	-9160	7160	12120	342	279	98	-15224	-2520	144	101	345	12	-15280	1848	-1152	929	1544	-489	123	117	1
-12228	-4156	12840	-328	-5832	-2252	-11456	920	-4160	-634	-4590	515	-4792	-3152	-12816	5	-1684	-565	-9360	7384	12176	189	246	-81	-14400	1176	-112	1266	572	90	-14712	5816	-1032	1242	1615	-179	124	120	1
-12796	-1708	11600	-448	-5518	-2043	-15544	-1672	-6240	-12	-5272	681	-4416	-2824	-12560	431	-1462	-625	-9128	6112	12152	140	118	-251	-16096	2552	32	1181	658	156	-14640	5144	-1056	1088	1644	-370	120	119	1
-20600	-4400	15580	-793	-5086	-2020	-17560	-2384	-11088	760	-5488	855	-5048	-696	-10528	958	-1233	-619	-8376	6232	11856	-83	-17	-430	-15896	3824	160	793	662	93	-16392	4888	-4280	1105	1979	-452	122	120	1
-25024	-5836	18916	-1017	-5026	-2190	-22760	3856	-10304	640	-5707	1374	-4792	-56	-6352	1011	-1053	-559	-8552	7232	11304	-477	-110	-640	-14968	4520	-1672	-276	601	65	-13176	5856	-4088	732	1867	-447	123	120	1
-29428	-10364	21980	-1099	-4725	-2341	-26696	4408	-13384	-346	-5723	1388	-6488	656	-760	1161	-1414	-153	-9168	6376	11992	-918	-142	-728	-15640	1176	-2304	-956	509	-18	-12088	2144	-3576	271	1971	-379	120	121	1
-32768	-14076	21752	-756	-4746	-2865	-28656	2520	-14376	-915	-5640	1109	-9424	1296	4936	1100	-1690	277	-9960	4352	12888	-815	-223	-699	-15632	-656	-1872	-977	643	-67	-15080	1064	-1616	234	2114	-221	123	122	1
-29116	-11332	13948	-101	-4091	-3651	-26272	-2368	-13048	-325	-5527	783	-11520	-648	376	619	-1018	345	-10080	3256	12976	-660	-231	-599	-16560	-1864	-1240	-233	866	-45	-15048	1456	-152	710	2263	-277	121	123	1
-32768	-4428	7792	316	-2823	-3861	-18976	-2960	-12224	269	-4781	1184	-18328	1392	1216	585	-727	55	-9760	3600	12984	-511	-153	-482	-15448	-2376	1904	117	1153	19	-19832	2152	-3016	672	1778	-430	120	120	1
-32768	-5500	8176	786	-2407	-3213	-28416	-2576	22440	5794	-3782	1784	-24616	4424	1080	542	-1301	116	-9496	3640	13504	-345	-34	-399	-13296	-160	1928	-301	1270	73	-17832	1704	1208	185	987	-363	112	117	1
-32768	-1244	-2064	1123	-2952	-2267	-16488	-4296	-10704	1259	-4233	885	-18296	10440	4248	1227	-1833	179	-9768	4024	13312	-148	214	-296	-16912	-2440	-200	-757	1421	3	-17872	-2216	4008	66	908	-37	100	119	1
-32768	13476	-13476	-187	-2500	-1306	-11960	-352	-12248	1170	-2426	561	-15456	14632	12648	596	-1444	945	-9400	3272	13480	1	585	-221	-17440	-1864	72	-840	1941	58	-19448	872	-968	579	1035	64	109	121	1
-32768	13752	-14304	-519	-2317	-1268	-9968	2568	-15912	-181	-1110	78	-13344	10024	19368	126	-503	983	-9512	4128	13112	79	909	-203	-16520	1664	-736	-884	1956	-17	-22224	9800	-9352	921	731	-209	119	121	1
-32768	5440	-20540	63	-335	-126	-8160	-4040	-15416	-533	380	-351	-19184	7312	14408	664	604	743	-8896	4096	14808	211	1255	-328	-19784	1032	-4112	-829	2156	-6	-20928	9288	-5272	726	234	-294	114	126	1
-31576	7944	-17608	393	943	482	-9384	-4056	-12776	67	1666	-396	-20568	6368	8808	712	1183	275	-9648	4736	14400	391	1991	-454	-23216	-2776	-4632	-653	2241	60	-14888	688	-3088	90	104	-177	120	125	1
-18792	-12636	-2984	147	1761	1008	-15968	-4736	-11360	476	2602	-737	-15872	5312	2864	249	1298	-63	-11856	2984	13344	689	2727	-449	-20624	-2920	-6568	-679	2282	137	-16880	-1216	-2656	116	-231	-376	128	127	1
232	-11960	22144	1558	2660	1002	-26256	1008	8784	1487	2345	-695	-9568	4944	-4568	-4	1582	-310	-12096	3032	14720	1022	3511	-426	-20656	-3784	-4776	-679	2356	133	-19264	-1176	2368	-168	-508	-549	127	125	1
13692	-3376	24396	-269	2893	1482	-32768	7720	20576	2878	1246	67	-16152	8344	-992	878	1508	-874	-10464	3960	16120	1103	4224	-34	-23600	-2400	-1216	-464	2543	138	-24528	3640	5232	-364	-925	-592	138	131	1
-32768	6904	17616	-978	2675	2304	-24584	-8608	-32768	2135	1442	-566	-23336	2208	8456	551	681	-1007	-11456	8688	14832	1029	5121	-264	-25656	-2544	1720	-323	2602	329	-32768	6424	17184	-1349	-2373	-615	145	137	1
-22760	-7344	10220	-898	2008	1768	-21040	14192	-12704	-1466	1828	-760	-19616	-208	-9080	1046	422	-954	-9080	10368	16104	1270	6387	-784	-32768	-4568	6896	201	2812	616	-23016	-1808	9136	-1759	-2911	-977	140	135	1
-12316	-18568	8592	-866	2003	941	-20520	-4952	-2008	-2529	2219	-1063	-5312	6976	-7208	-298	105	164	-10848	12184	17776	1350	8133	-1548	-32768	-6120	9168	965	2805	836	-14232	-13152	9312	-176	-2804	-1172	128	129	1
-14248	-8920	11444	-12	1853	1384	-13920	-10792	-9544	133	1927	-793	-11616	6192	-6200	-1097	1222	-919	-25616	13144	15928	2176	9330	-2404	-26224	352	2952	1888	2867	884	-27408	-256	7392	1739	-1416	-740	134	126	1
-20696	-13592	10864	1071	626	1524	-18344	-5096	-7960	776	1531	-586	-15144	-6984	-9912	-1694	772	-872	-32768	5488	9520	1979	8636	-3732	-23216	4320	-8704	2431	2983	646	-23336	18648	-19056	4256	81	-45	128	127	1
-14816	-3896	15156	1325	254	1210	-18880	-2088	-8920	565	1338	-541	-15872	-9000	-6328	-834	1176	-428	-32768	12968	14840	2453	5292	-3921	-25120	6824	-7928	2359	3257	275	-31056	13216	-18408	1595	-1118	715	131	127	1
-12020	-3624	12660	753	45	589	-18912	984	-5536	1183	1152	-277	-17104	-6352	-8248	1064	1023	-180	-32768	19064	16376	2753	4213	-3237	-22976	9808	-6248	1876	2161	271	-30328	3416	-11544	-1228	-2235	1134	126	129	1
-11648	-6168	11500	372	16	400	-18352	-616	-4408	308	1027	-390	-15088	1368	-6728	1279	1198	-285	-18512	13168	32767	2415	2765	-987	-12392	9104	-18248	-243	1546	-44	-25216	-4640	-12912	-1344	-2558	844	128	135	1
-10064	-4760	11984	212	42	255	-16256	680	-4304	2	837	-289	-16480	4248	-6184	886	1157	-263	-26312	32767	32767	511	-3592	-170	-7704	4768	-10088	-453	239	-329	-21296	-2944	-10408	-705	-2772	820	136	137	1
-10060	-5340	11524	177	63	185	-17336	-272	-4368	-312	682	-370	-14744	2672	-5240	145	1267	-194	-4264	16744	18704	-2138	-5416	446	-7256	-1664	4904	264	-763	-207	-22336	-944	-13152	-388	-2496	824	146	133	1
-9480	-5628	11576	167	94	168	-17584	-808	-3152	-881	622	-426	-14712	-1624	-5912	-424	1385	-201	-1824	13632	15480	-2152	-5498	561	-7120	232	2952	491	-1710	17	-17592	-128	-13112	-449	-2376	1221	140	131	1
-9984	-6020	11256	126	117	177	-17256	-3600	-4376	-968	598	-431	-16240	-2712	-6824	-530	1514	-168	944	4240	8184	-580	-4877	1633	-4072	144	-440	694	-2565	-12	-13856	-3160	-12552	-204	-2230	1069	129	130	1
-10156	-5152	11244	88	133	157	-17232	-3896	-4488	-664	468	-342	-15992	-2608	-6920	-498	1512	-170	-10328	10032	11280	-292	-5309	2010	-3576	5200	-5304	425	-3211	186	-10376	-2936	-12488	166	-1972	1054	132	128	1
-9528	-5664	11268	64	143	134	-16656	-1152	-3152	-232	305	-140	-14880	760	-5464	-564	1607	-282	-10136	9936	10536	-958	-6043	2172	-3640	4824	-4104	-664	-4114	238	-8000	-1232	-12496	57	-1826	1023	128	127	1
-10380	-5256	11000	-29	111	51	-17472	-632	-7888	-425	55	-20	-13184	-472	-3824	-781	1854	-405	-8328	5928	8760	-1202	-6201	2238	-6856	1496	-3496	-1373	-4859	143	-7064	696	-12944	-317	-1522	1040	121	125	1
-9856	-4816	11164	13	104	84	-16416	-1312	-2320	-608	456	20	-15536	568	-4904	-795	1808	-271	-13592	3872	10208	-969	-6084	2356	-12120	-1896	-3904	-1305	-5301	-133	-6072	-216	-12896	-749	-1102	1065	124	128	1
-9788	-5268	11304	-43	101	111	-17088	-1640	-2152	-357	330	-41	-13856	1736	-3048	-937	2244	-178	-18992	4344	13456	-621	-6088	2524	-14992	-2672	-8936	-1163	-5813	-280	-6848	-3608	-10848	-1187	-726	1159	121	129	1
-10112	-5212	11008	-89	95	96	-16416	-1408	-2240	-542	385	-48	-14608	544	-2856	-1263	2691	-183	-25448	2880	17032	-400	-6090	2603	-15848	-2488	-9232	-1187	-5889	-320	-5736	-6184	-10176	-1907	-668	813	123	127	1
-10848	-4980	10628	-68	50	78	-17384	-1448	-2240	-607	354	-99	-15144	-1760	-2728	-1195	2872	-274	-30712	3528	18520	-212	-6093	2581	-19752	-7216	-9552	-29	-6016	-517	-4280	-5928	-8032	-1437	-441	152	123	131	1
-10136	-5260	10864	-56	17	132	-15968	-808	296	-778	465	-72	-17488	-1992	-1080	-685	2417	-162	-32072	6056	19616	-408	-5893	2403	-24400	-5064	-10536	904	-5903	-420	-5192	-3936	-5120	-1145	-460	163	126	135	1
-9600	-5960	10820	-35	-12	183	-15256	-2928	1024	-540	616	-35	-18592	-1976	-608	-245	2051	-30	-32512	5712	19880	-516	-5580	2147	-28800	-2808	-9936	934	-5819	-217	-8560	-1280	896	-1053	-744	405	128	130	1
-10304	-5464	10752	39	-12	295	-15000	-2008	808	-88	834	-51	-17336	-752	-768	26	1522	-48	-32768	4104	19568	-306	-5221	1900	-26728	1048	-11920	284	-5507	-111	-13672	2880	2608	-854	-1082	359	122	126	1
-10072	-4840	11044	47	80	321	-16584	-296	336	74	1063	-26	-16664	1080	848	141	1161	-75	-32768	3968	12760	-297	-5124	1769	-27776	760	-14856	-583	-4978	-363	-22848	5920	5480	-863	-1410	695	121	121	1
-10020	-5056	11428	13	200	320	-16848	512	560	20	1327	-100	-17768	2608	2056	4	1084	-255	-32768	9376	-1048	-966	-4159	1850	-24784	-3392	-18264	-1533	-4184	-495	-25840	6976	7776	-1065	-1576	840	114	120	1
-9832	-5008	11556	-109	379	325	-17120	1272	336	-137	1558	-129	-17312	4336	2024	-472	1060	-466	-32768	-3016	-18416	-998	-2387	1193	-13864	-4456	-17608	-2431	-3036	-522	-15960	-7184	20904	-2585	-1523	939	105	105	1
-10516	-5108	11988	-258	671	305	-17832	1040	-1352	-88	1805	-218	-20008	4528	-2592	-979	1278	-304	-32768	520	-27896	929	-1024	1763	-6032	-464	-22184	-596	-1076	46	-13216	-11096	27784	-346	181	54	103	105	1
-10724	-4900	12236	-251	714	297	-17848	1416	-2888	11	2069	-213	-20168	3880	-3640	-1034	1296	-288	-32768	2752	-26496	-48	429	1259	-6640	5296	-19040	-55	782	471	-17104	-3816	22440	990	652	-408	106	107	1
-11564	-4592	12972	-267	1770	230	-20456	416	-4872	227	2245	-141	-20784	-1032	-4984	-405	469	28	-32768	1392	-22648	-520	1876	256	-6840	5576	-18744	-27	1013	502	-15208	936	10960	1209	1063	-97	104	108	1
-11296	-5204	12308	-283	2496	268	-21128	-56	-4728	406	2387	-161	-20272	-2160	-3160	10	383	286	8176	-13896	32767	-1447	1372	-539	-25456	-10656	21744	598	2317	136	-13352	4304	-1456	770	2458	542	110	112	1
-11008	-6736	13540	-347	3282	319	-21224	-584	-2040	224	2546	-210	-21968	-3104	-248	195	-177	584	-576	-23720	23096	1179	3438	-2225	-32768	-7512	8160	-2151	1407	670	-20816	5200	-920	842	2681	1057	109	109	1
-13360	-8964	13052	-660	4145	570	-25984	-2712	-2240	79	2738	-233	-25480	-1552	3472	488	-608	699	-32768	-2056	10648	1546	3614	-1393	-5160	-17024	-19360	-2276	2128	489	-26848	10808	4136	-622	-49	177	109	107	1
-14248	-11676	13320	-1327	4986	1224	-27984	2424	1768	-219	2922	-634	-27976	5376	8704	459	-1644	630	-21448	16936	20448	715	2992	-206	-19856	-3000	-3176	594	2476	268	-16488	1952	3160	-2198	-655	-390	111	106	1
-15200	-16048	12812	-1229	5750	2048	-30840	5416	3032	-1020	2913	-1058	-31016	11464	15912	916	-3296	929	-15880	15408	12160	185	3300	-282	-22888	10960	-5928	511	2575	756	-8272	-11208	-1976	-991	412	-889	110	100	1
-14348	-15964	13980	-1020	6582	3146	-30264	3160	6728	-1399	2799	-1418	-18312	19360	6360	3485	-2855	1570	-13112	5376	16768	137	2341	-485	-14760	3392	-4256	-1262	1954	582	-14592	2248	-10968	445	899	506	107	102	1
-28080	-11064	15520	-1367	6336	4366	-17584	-5288	-5632	-1503	3726	-1147	-3952	6504	-656	-2451	-202	512	-19616	11152	13200	-404	1046	-794	-16680	6792	-8536	-835	1899	641	-12608	10288	-14592	1073	673	38	112	109	1
-32768	-21156	22580	-2436	3233	2907	-19712	-13640	-19736	-2045	3800	-782	-23040	-8848	-14592	-4465	468	-53	-14768	568	18336	-303	454	-904	-16520	5888	-8832	-952	1863	622	-13008	4736	-8032	175	910	62	119	117	1
-11524	-18036	32767	-209	1119	2234	-30136	-6880	-14392	-846	3427	-523	-32768	-5216	-18640	-3074	-1614	-736	-10872	3448	14392	-230	32	-491	-19904	-9200	-6904	-1085	1272	301	-18944	-2288	-7976	-48	1402	260	119	113	1
-6740	-19000	29812	-736	-1255	1582	-21584	-2320	-40	-208	1690	-248	-26576	10720	-16112	-1505	-1986	-606	-10552	3024	14232	-60	-8	-73	-16280	-5608	-4952	760	1332	366	-17672	928	-7392	475	1318	2	120	113	1
7368	-25480	17548	-131	-1786	1296	-15472	-1272	1384	-385	404	-257	-22112	3352	-15552	-809	-2049	-322	-9920	4152	13664	52	11	-74	-16712	-216	-5552	2072	1232	210	-15096	3384	-7248	605	1263	-30	121	114	1
13280	-17080	12364	47	-1911	444	-8120	1632	3520	-721	-503	-145	-22280	-2744	-14024	-133	-2281	-398	-9464	4992	13272	123	4	-120	-18320	5328	-5248	1932	994	356	-15744	-2904	-8312	790	1390	-166	120	119	1
10348	-15100	11652	-454	-1410	-791	-8024	-1872	-608	-809	-1373	-124	-15688	576	-13216	55	-2019	-242	-10088	5344	12976	7	34	-205	-17368	4832	-5584	569	585	366	-15080	4912	-6712	663	1501	-292	128	119	1
-520	-18260	14904	-116	-1973	-1796	-8528	-3792	-3296	-460	-2124	-123	-13136	3112	-12792	293	-1903	-268	-9536	4528	13160	-97	125	-144	-17632	1312	-4048	-698	252	224	-15600	5072	-5528	468	1653	-344	125	120	1
-1820	-10568	13988	416	-2846	-2368	-8776	-4992	-2848	274	-2841	14	-12512	1328	-12728	286	-1800	-332	-9544	4400	13512	-77	192	-67	-17536	1184	-3496	-1176	241	2	-15888	3560	-4376	298	1690	-367	125	118	1
-4200	-6108	13588	323	-3442	-2710	-9392	-3992	-3776	1211	-3527	277	-12144	-1272	-12936	362	-1782	-372	-9016	5136	13312	-42	163	-61	-16064	-992	-2120	-902	352	-192	-15128	1352	-3192	413	1695	-457	124	111	1
-8480	-7372	14560	280	-3979	-2718	-11040	-1448	-5200	1609	-4150	437	-10184	-808	-13488	667	-1780	-441	-9000	4904	12904	-36	65	-135	-14704	-2192	-1392	188	541	-77	-14592	1112	-3328	865	1775	-375	120	116	1
-9296	-3980	13272	42	-4318	-2675	-12688	-104	-6784	1767	-4631	565	-7424	8	-13736	935	-1895	-362	-9672	4928	12672	-34	-32	-199	-15624	-304	-2760	1065	596	-3	-13872	1720	-3616	1299	1850	-264	119	117	1
-14596	-4464	13848	-313	-4288	-2828	-13344	1304	-9232	1773	-4877	788	-5824	128	-12752	1014	-1851	-385	-9304	4112	12840	-4	-33	-222	-16704	968	-2024	959	453	98	-13880	3304	-2600	1267	1823	-227	120	120	1
-17496	-4768	15028	-239	-4189	-2836	-13760	4400	-7256	1168	-5090	1350	-4192	184	-10280	1112	-1627	-326	-9512	3808	13160	2	9	-224	-16680	904	-1928	431	381	41	-15840	3184	-1528	1055	2156	-423	125	118	1
-19032	-3500	17380	-269	-3788	-2464	-21648	2840	-8976	7	-5196	1517	-3728	-688	-7960	1243	-1438	-338	-9552	4288	12760	-44	52	-166	-16088	168	-2520	-273	375	-40	-16048	1288	-1208	951	2406	-561	125	122	1
-28240	-7708	23528	-595	-3985	-2316	-25544	-656	-13880	-528	-5341	1276	-4856	-1512	-4528	1276	-1497	-239	-9568	3808	12704	-45	62	-113	-14824	-1600	-64	-323	536	-62	-13584	1768	-184	727	2405	-507	129	129	1
-27012	-8272	18032	-806	-4055	-2267	-26272	-832	-12144	-709	-5362	1024	-8152	1736	-1552	1376	-1613	81	-9280	3728	13088	-17	115	-129	-14928	-288	-200	-265	734	1	-15224	1592	880	380	1974	-64	128	127	1
-25064	-10956	12076	-814	-3230	-2081	-26880	-1856	-14024	-358	-5205	766	-11552	4464	-176	991	-1440	395	-9408	3736	13392	-21	120	-126	-14624	-1064	-952	-301	860	58	-16440	1360	920	13	1304	173	127	126	1
-28180	-17408	9828	-246	-2284	-2324	-23168	-3712	-14808	707	-5136	644	-15768	6360	2136	866	-1264	569	-9320	3880	12896	36	188	-130	-14688	-1704	-184	-92	1073	89	-17616	2488	-2032	23	611	-252	126	128	1
-32768	-10240	10412	-138	-2182	-3463	-16648	-3320	-15136	1309	-4675	855	-19016	5664	4664	832	-1337	617	-9504	4464	12680	62	285	-138	-15144	-96	80	-28	1304	130	-18896	5968	-2872	725	669	-468	128	129	1
-32768	-9840	9972	-197	-2247	-3792	-19184	-1008	-14480	965	-3931	1042	-32360	5152	4336	1127	-1683	560	-9568	4472	13112	85	425	-187	-16768	144	-1512	-199	1428	96	-18016	3104	-2224	745	1161	-114	121	129	1
-32768	4688	-3264	826	-2174	-3432	-21032	-3048	-21240	218	-3931	435	-17272	9488	6168	841	-1566	13	-10168	4392	13560	110	585	-235	-17936	-520	-2968	-369	1542	85	-17024	-1552	-2928	723	1435	-39	114	129	1
-32768	5068	-13012	1020	-1681	-2240	-12184	-2752	-18808	626	-1751	590	-11752	13520	11400	-47	-1076	-84	-9504	3528	14224	214	913	-221	-17792	-1408	-3408	-494	1698	68	-19128	2328	-5368	486	1074	-252	114	125	1
-32768	15648	-20360	380	-1083	-825	-6696	-2008	-14280	464	-669	148	-15552	10024	16320	70	-143	351	-8920	2872	14904	288	1332	-244	-18856	-1032	-3632	-470	1855	49	-19784	5440	-4816	353	648	-321	115	127	1
-32768	8344	-21112	-510	-209	-360	-8808	-3848	-16416	12	675	-453	-18064	3864	10312	22	689	438	-9040	3768	14472	412	2038	-160	-20224	-1368	-3832	-486	1999	57	-19592	4760	-3952	345	472	-337	121	128	1
-32080	3700	-14052	183	724	432	-11176	-3992	-16008	350	1760	-789	-17808	3904	3352	277	1475	3	-11216	3720	13176	589	2728	-172	-19992	-904	-3616	-565	2141	115	-19840	4712	-2312	173	176	-449	134	131	1
-13140	3768	-3048	1684	2243	1592	-17912	-3768	-10568	584	2526	-895	-16760	7136	1768	332	2258	-707	-12448	6240	16168	878	3305	-319	-20408	-1384	-2192	-540	2317	152	-20776	4472	1240	118	-177	-590	136	136	1
13784	-16556	32767	670	2443	852	-32768	15600	32767	1991	1148	122	-2968	6680	-4664	1445	969	-1293	-12224	7792	16888	942	4014	-259	-24048	-584	-208	-265	2552	200	-24760	4784	5728	26	-666	-561	143	139	1
-15552	17224	12572	-984	2209	3058	-24304	9808	-7952	1734	1792	-823	-30792	168	6848	-871	1314	-986	-10872	11728	15496	908	5001	-493	-28976	-48	1840	-219	2791	346	-30408	4368	14472	-341	-1787	-461	146	143	1
-25888	-13424	6916	-886	2727	1217	4168	-17992	-28912	-1441	2823	-768	-21128	1136	-10616	31	583	-231	-12360	15272	16008	1021	6293	-1217	-32656	-3648	6552	95	2914	817	-32768	616	24720	-1366	-3499	-568	141	130	1
-13188	-14828	9052	-793	2654	1094	-23480	-11000	-12488	-3624	2277	-1475	-10344	7848	-3168	895	68	-355	-11792	12744	17192	1350	8090	-2223	-32768	-7592	8376	997	2853	1185	-18168	-10200	3608	-759	-2343	-1047	115	123	1
-15448	-6620	13392	-485	2431	915	-12632	-8424	-8800	326	1901	-692	-12040	3472	-3888	-286	702	-572	-23512	8880	16824	2654	9344	-2768	-32768	-7488	8792	1134	2817	1212	-15680	-7544	5384	1682	-1824	-649	124	121	1
-25520	-15280	10440	491	836	1020	-19976	-4816	-9664	1090	1801	-355	-13176	-1624	-10216	-973	848	-511	-32768	6912	10392	3067	8277	-3588	-21440	2424	-9152	3205	3132	794	-26456	11304	-18648	4470	-213	-8	127	123	1
-14564	-3600	15196	935	568	751	-18480	-968	-9440	940	1512	-554	-16592	-5544	-10056	-695	1006	-269	-32768	17104	11016	3030	4682	-4143	-24064	3048	-8432	3092	3264	511	-28000	12944	-20712	2831	-842	795	126	122	1
-13216	-6464	11376	542	185	373	-16688	-1224	-6656	1226	1214	-395	-13912	-4728	-9824	521	915	-303	-32768	15688	16352	3113	4306	-2780	-22888	6632	-11856	2750	2329	476	-29328	2152	-12424	-637	-2171	1082	124	127	1
-11556	-5364	11492	245	110	203	-17192	-752	-5240	238	1056	-309	-15904	600	-8128	614	1185	-453	-25632	22824	32767	1842	1901	-1649	-10400	9408	-15848	942	1411	97	-24128	-2056	-13728	-1387	-2538	751	129	130	1
-9704	-5480	11424	-9	179	86	-17720	-16	-3872	-379	835	-368	-16664	-480	-7808	442	1122	-331	-18056	29360	32767	38	-3133	-98	-7344	5264	-9096	-24	239	-107	-21280	-2400	-10528	-904	-2872	847	132	133	1
-10804	-6924	10888	-125	254	78	-17432	-1432	-4536	-649	675	-339	-15200	-272	-5640	104	1203	-188	-792	13224	14008	-1682	-4158	756	-8112	-192	4056	333	-567	-35	-21504	1400	-13184	-308	-2420	876	133	137	1
-10924	-6740	10548	-123	292	4	-17360	-2264	-3920	-863	615	-334	-15136	-1272	-5312	-195	1337	-174	6576	4920	5488	-1227	-4107	1287	-7072	1656	-312	285	-1443	141	-17240	1128	-13440	-227	-2076	1197	136	133	1
-10228	-6492	10756	-125	307	-49	-17696	-3920	-3608	-597	525	-247	-15992	-1160	-5512	-179	1387	-205	1808	5872	6920	-796	-3567	1506	-4280	4336	-1296	335	-2309	135	-13936	-960	-13056	-110	-2103	1213	136	124	1
-10000	-6536	10392	-124	290	-41	-16976	-2848	-4088	-110	420	-187	-15520	-376	-4832	-174	1423	-221	-8488	8248	10464	-719	-3945	1686	-3144	5072	-6368	-785	-3010	433	-11144	-1304	-12160	13	-1967	1181	128	129	1
-9348	-6248	10628	-71	241	33	-16656	-1000	-2200	63	297	-101	-14952	-104	-4520	-298	1487	-172	-10664	8792	11048	-987	-4887	2038	-2288	3808	-5640	-2045	-3634	314	-8160	-608	-12032	-218	-1638	1117	129	128	1
-9860	-6208	10700	14	150	182	-17032	-528	-3664	-873	655	-181	-14832	56	-4520	-344	1498	-172	-8808	7696	9824	-1330	-5343	2288	-4704	200	-3712	-2154	-4238	84	-6464	-728	-10864	-526	-1486	1031	126	127	1
-10184	-7096	9820	56	6	305	-15536	-1856	-1240	-465	250	-90	-14328	-136	-4712	-730	1733	-329	-11144	6144	9288	-1438	-5315	2427	-10048	-1352	-3528	-1788	-4773	-167	-7616	-400	-12392	-956	-1214	1115	125	128	1
-10300	-7120	9884	53	-16	319	-15568	-1928	-1432	-604	327	-228	-12856	-432	-3104	-905	2066	-263	-15264	5544	11976	-1330	-5327	2651	-13672	-896	-6344	-1731	-5244	-466	-7952	-6832	-12080	-1456	-1030	1107	124	129	1
-10564	-6204	10288	270	-224	272	-15672	-1880	-2480	-573	334	-209	-14056	1984	-1160	-748	2456	-354	-22344	4976	16392	-1280	-5395	2715	-16904	-3008	-8368	-1676	-5721	-759	-6240	-3992	-10672	-2019	-888	935	121	128	1
-10612	-5568	10368	316	-284	239	-16304	-1232	-608	-418	427	-257	-15648	1528	-176	-927	2748	-485	-23928	4544	17232	-1278	-5424	2700	-20384	-5488	-8688	-1124	-5952	-861	-4512	-5536	-9880	-1818	-743	436	116	122	1
-9336	-6432	10584	296	-318	330	-16544	-1912	184	-370	473	-157	-18120	-80	-96	-984	2539	-423	-30800	2448	20040	-694	-5851	2297	-22240	-4056	-7720	189	-5954	-918	-3392	-3272	-7216	-1306	-390	235	117	125	1
-10264	-6112	10768	235	-313	367	-16448	-1000	-48	-418	669	-133	-16472	-1432	-1320	-663	1958	-246	-32720	6968	20616	-441	-5832	2003	-22736	-3672	-8136	338	-5935	-890	-5680	-2000	-3320	-1122	-291	389	121	124	1
-9444	-6316	10944	184	-207	402	-15208	-128	-592	-557	852	-160	-16168	-456	-1760	-256	1478	-425	-32768	10312	20616	-784	-5511	1744	-29776	-1032	-8640	505	-5956	-556	-12016	168	2664	-1515	-810	427	119	126	1
-10328	-4952	10768	119	-93	337	-15784	-744	-904	-740	1090	-208	-16096	-384	-2032	-172	1396	-415	-32768	6232	16984	-885	-5340	1605	-27904	128	-12392	94	-5583	-432	-18576	2264	4000	-1525	-1154	380	119	119	1
-9640	-5744	10864	77	30	307	-16880	-1968	0	-740	1331	-174	-19256	-2024	-2672	-557	1372	61	-32768	1200	6472	-384	-5189	1854	-28256	256	-14800	-353	-4804	-582	-29688	2576	12520	-1872	-2129	622	118	117	1
-9676	-4828	11332	20	254	319	-17200	-1872	520	-730	1362	-170	-19192	-968	-1232	-618	1276	-7	-32768	3224	-10440	-365	-4042	1750	-22296	848	-19616	-1133	-3992	-602	-20968	-4024	9344	-1958	-2062	846	114	112	1
-10324	-5032	11748	-138	551	282	-18472	1176	-1280	-231	1754	-105	-19296	3504	-784	-345	1203	-292	-32768	-7384	-24816	-329	-2369	606	-8176	-2728	-23856	-1147	-2286	-217	-14680	-18976	27000	-332	-585	708	114	110	1
-10656	-4348	12380	-316	904	182	-17688	1760	-1320	-33	1943	-148	-17608	7064	-2872	-436	944	-185	-32768	-2952	-32768	848	-1282	758	-3960	-592	-21296	316	-259	213	-11232	-6544	26992	1088	42	539	110	109	1
-11556	-4696	13104	-550	1305	-52	-17440	-784	-2200	323	2136	-88	-20536	968	-5816	-643	533	118	-32768	-8	-28296	-134	518	-33	-7560	5296	-20096	538	1589	532	-19864	3280	16800	1401	341	-259	109	116	1
-8468	-7880	15088	-577	1921	-62	-21040	-184	-4240	561	2303	-44	-21112	-1832	-3744	-328	547	185	-21512	-6720	-20872	-1382	2328	-1057	-16432	3784	-10352	692	2780	540	-20672	5704	2688	1370	2065	89	108	114	1
-12044	-7064	12576	-456	2768	451	-22888	80	-4400	450	2419	-152	-21160	-2472	-2144	27	254	217	12536	4392	32767	786	3674	-810	-32768	-11880	32767	395	1585	-553	-22008	3944	2232	478	3436	720	111	110	1
-10500	-8044	12912	-503	2917	479	-23936	-3168	-2624	191	2633	-254	-24632	-3688	1992	265	-513	467	-30536	-9832	8320	1102	3722	-1879	-16256	-13040	-20264	-2956	2144	1305	-19592	8192	4848	703	883	448	108	110	1
-13596	-12036	11904	-1370	4823	846	-27520	-1216	-88	215	2728	-400	-28592	1080	10408	687	-1575	665	-25152	9936	24096	890	3297	-355	-10144	-13896	-368	-369	2650	-185	-19960	12320	-1016	-1752	-501	-236	104	100	1
-14304	-13556	11708	-1966	5558	1830	-31248	4288	3048	-315	2939	-1030	-32232	8880	16952	1260	-2894	890	-10296	17040	10232	552	2915	37	-25424	11376	-7472	2379	3291	327	-2872	-12944	-6376	-2090	460	-1192	108	104	1
-14420	-17940	14596	-1699	6623	2751	-32768	7112	15472	43	2335	-1443	-19944	20560	560	3087	-2970	1624	-13488	6592	14096	-116	2978	-476	-11152	10064	-5560	-732	2126	513	-14248	-3432	-10640	-213	758	-321	112	103	1
-18232	-13216	13388	-1597	7634	3838	-25816	1264	3192	-1634	2737	-1402	-13632	17960	-584	-1925	-1379	1055	-28992	17960	17536	-774	1112	-1218	-18480	7952	-8896	-623	1748	537	-13984	10920	-13896	1169	878	455	115	114	1
-32768	-7584	16148	-2827	6874	3381	-16096	-5872	-9608	-2656	3670	-977	-20656	-5520	-11416	-3627	-200	5	-13032	-2144	20616	-687	527	-999	-18224	3016	-10256	-1761	1361	264	-12840	7904	-8608	378	924	-7	116	114	1
-32768	-9344	15268	-2966	6316	3150	-26480	-9176	-17496	-2290	3421	-570	-30488	-8976	-13136	-4706	-627	-409	-14856	3944	14888	-145	-66	-595	-20448	-9344	-7440	-1966	1153	63	-19704	2016	-9088	-175	1453	295	120	117	1
-6256	-28424	29332	-1355	1769	2419	-23928	-10408	-14600	-1715	2821	-495	-31856	360	-13016	-2008	-1798	-1056	-10840	1240	14056	-203	-5	-294	-16904	-4736	-4080	-221	1210	171	-16920	848	-5384	43	1371	91	126	115	1
-18628	-26408	30092	254	-948	1652	-17528	-3344	-3944	41	1033	-216	-25400	6448	-17568	-619	-1783	-278	-7976	3640	13944	-10	29	-97	-16144	-824	-2944	749	1067	155	-15832	2448	-4392	35	1335	-16	120	118	1
5268	-21240	17760	401	-2183	739	-11608	-3752	2168	71	-88	-72	-24208	-2800	-14960	-261	-2294	-364	-9856	4056	13568	93	-2	-144	-16832	976	-4728	1387	962	249	-15488	1552	-6360	185	1418	-242	120	118	1
6264	-14404	13984	472	-2317	202	-7080	-1128	824	266	-962	120	-19536	-1640	-14064	142	-2243	-325	-10808	4096	13032	83	-11	-223	-17480	3032	-4936	988	691	306	-16088	1872	-5440	452	1463	-416	129	120	1
2444	-14200	13452	225	-2602	-815	-5104	-256	-2048	156	-1667	46	-13560	168	-13696	277	-2044	-298	-9848	3824	13408	-11	64	-173	-17936	1528	-4160	137	411	262	-15968	1696	-4672	663	1513	-301	129	122	1
-1376	-15172	13064	446	-3331	-1594	-6040	-1400	-1840	-30	-2482	128	-10648	2776	-12776	325	-1934	-269	-9008	4072	13576	-72	113	-90	-16976	1288	-2520	-505	281	155	-15744	2624	-4928	824	1588	-169	129	121	1
-2228	-10228	10900	918	-3893	-2100	-7488	-4232	-2696	19	-3088	166	-10160	792	-13080	301	-1803	-264	-9440	4136	13232	-52	131	-73	-16896	944	-2488	-785	306	10	-15200	3176	-3320	855	1597	-267	125	121	1
-3848	-6428	9328	873	-4216	-2373	-6888	-4592	-3568	699	-3703	277	-8896	-1440	-14112	424	-1719	-382	-9472	4104	12456	-7	86	-101	-15464	-1688	-1304	-397	415	-89	-14872	1928	-2456	1044	1534	-376	123	118	1
-8984	-5300	10412	528	-4613	-2639	-7880	-3256	-5152	1168	-4206	514	-6400	-2768	-14400	723	-1678	-469	-9536	4032	13240	-6	4	-107	-14760	-1392	-960	489	587	-25	-13392	2608	-2776	1332	1647	-180	123	120	1
-12028	-5780	12108	83	-5003	-2719	-11472	-2128	-5136	1398	-4744	730	-4528	-3312	-13856	939	-1613	-531	-9480	4544	13016	12	-45	-140	-15944	1544	-2448	907	628	46	-12880	3640	-4152	1509	1705	-258	124	119	1
-14436	-6396	11800	-171	-5118	-2675	-14408	-1792	-7680	1786	-5111	851	-4552	-3112	-14256	1588	-1563	-491	-9624	3160	12728	13	-46	-153	-16824	816	-2496	643	413	83	-13576	2280	-3448	1377	2037	-362	125	121	1
-18332	-8152	12276	-217	-4737	-2824	-15424	-544	-9792	2188	-5334	1224	-4600	-968	-12496	2174	-1336	-371	-9376	3240	12944	57	6	-102	-16752	456	-3048	557	394	87	-14872	64	-960	1360	2332	-562	122	123	1
-20284	-9260	14604	-36	-4037	-2877	-21832	5680	-7808	1434	-5464	1752	-3904	688	-8528	2221	-1127	-342	-9528	3944	12816	41	18	-77	-16072	-232	-600	-48	416	-62	-14456	856	984	1205	2527	-382	126	124	1
-31644	-13812	23844	-65	-3840	-2963	-27296	1704	-12800	384	-5593	1698	-4680	1896	-3288	2003	-1513	62	-9392	4024	12848	5	1	-84	-15072	-560	-160	53	523	28	-13688	3176	-624	457	2234	197	125	123	1
-32352	-14020	18660	-162	-3930	-3411	-30792	-392	-12584	-169	-5446	1390	-8504	4664	192	1873	-1814	575	-9440	4032	13136	46	20	-109	-13768	264	-40	147	699	92	-16800	4664	-5872	-113	1146	12	130	124	1
-31828	-16636	11596	282	-3352	-3330	-29840	-3888	-15688	274	-5163	822	-13392	8144	3176	1361	-1546	1091	-9344	3888	13096	66	34	-136	-14328	968	-888	-169	826	96	-21744	5632	-6088	62	402	-585	126	126	1
-32768	-12196	9580	771	-2947	-3701	-18368	-5800	-18752	1492	-4912	640	-19168	5504	3936	1097	-1068	886	-9464	4352	12872	65	70	-112	-16032	-600	-1408	-199	955	72	-18440	4728	-2592	313	804	-491	127	125	1
-32768	-3888	3012	784	-2895	-4227	-15952	-2992	-14688	2315	-4414	1374	-24208	6264	7024	1409	-1227	704	-9120	4432	13128	65	226	-136	-17664	32	-816	76	1115	106	-16416	1448	-584	637	1316	-230	122	129	1
-32768	4492	-1080	1158	-2616	-3244	-22696	3336	-15912	1255	-2194	1340	-23048	7736	1416	2004	-1442	263	-9208	4960	12936	47	332	-203	-15520	-48	832	182	1370	138	-17160	-992	1920	909	1347	-47	113	127	1
-32768	10380	-10060	1072	-2119	-2218	-14608	-4336	-15088	285	-2118	956	-11816	16512	8648	530	-1526	138	-9136	3936	13416	101	401	-241	-15248	-1000	-320	31	1570	122	-17824	-640	1336	860	1218	120	112	127	1
-32768	15652	-23628	537	-1488	-426	-6936	-2600	-16408	19	-1279	362	-11536	16968	17408	46	-227	258	-9752	3656	13936	162	657	-204	-17368	-1424	-1408	-143	1745	67	-19312	3504	-3424	670	946	-62	116	124	1
-32768	12732	-26484	-1282	-415	-90	-5648	-3488	-16776	-704	438	-320	-18080	9888	14024	-424	447	522	-9360	3208	14592	226	1139	-179	-19856	-192	-3808	-218	1966	25	-18640	9080	-6472	659	806	-172	127	130	1
-32768	1136	-19828	-574	627	747	-8000	-6136	-16384	-700	1745	-875	-18472	8912	12904	-513	590	503	-10112	4128	14168	251	1761	-244	-20168	16	-3024	-307	2139	40	-19856	7616	-4864	418	368	-365	131	130	1
-13524	-2340	-10112	977	2641	1578	-18248	-6328	-8664	51	2582	-1010	-15200	4504	-1568	-986	2015	-572	-10576	3688	13592	388	2308	-274	-18080	-416	-2744	-439	2326	81	-18808	5920	104	125	-55	-553	138	136	1
13428	-20400	32767	421	2819	878	-32768	9128	31464	1856	1243	39	-1152	-320	-11656	285	1378	-1682	-10416	4312	14928	640	3105	-266	-19944	112	-384	-382	2596	97	-21552	5432	4600	46	-473	-557	139	139	1
-17052	18152	24844	-402	2645	3040	-32768	11056	32767	1907	818	288	-30744	-4824	8688	-1302	1137	-1024	-13608	9192	15992	909	3815	-442	-25288	-1160	792	-376	2964	229	-26112	4352	8792	-294	-1126	-440	150	144	1
-25960	1288	3320	-779	2855	2107	-10456	12808	-9648	-119	2057	-567	-25784	-2600	-4952	1222	85	-594	-11216	13360	16184	564	4675	-859	-26792	-1440	2896	-132	3324	572	-25560	2096	15712	-491	-2201	-408	142	140	1
-19060	-21936	6896	-1290	3194	947	-32768	-2248	-24464	-2154	1492	-835	-7808	3520	2288	1847	-278	839	-10304	14304	18792	358	5874	-1750	-32096	-3056	-208	481	3495	1007	-30656	-3216	21264	-1642	-3524	-607	122	130	1
-32768	-22556	10032	618	1217	1321	-14920	-24832	-10968	-1239	1924	-1275	-19272	8576	-5728	1234	1149	-332	-13864	12048	22704	746	8162	-2532	-32768	-3800	7744	1384	3002	1179	-3128	-13520	-13288	1031	-1701	-851	122	124	1
-17980	-2288	19372	950	669	936	-16576	-1416	-6464	3175	1837	-176	-10040	-2144	-8040	-925	458	-372	-32768	7016	26440	-77	8035	-3701	-20968	5552	-7104	1288	3532	1200	-20048	1360	-6328	2892	-573	-368	124	116	1
-14884	-13880	9460	1069	-9	843	-15776	-3744	-5712	2485	1710	-77	-10664	-8440	-9376	-729	845	-265	-32768	-3848	32767	199	3709	-4450	-20432	5896	-28424	1259	3859	1074	-28832	14128	-25576	3872	-44	791	124	118	1
-12332	-2188	13292	807	-188	662	-15232	2400	-6920	1464	1336	-357	-13264	-7472	-8968	974	709	-422	-5600	8984	32767	2522	-1110	-3468	-30112	-3472	1856	2192	2316	129	-32768	5416	-18232	570	-1935	819	127	121	1
-11176	-5812	11844	425	-91	402	-19536	1680	-4656	-16	1206	-482	-15064	-1296	-6872	1566	922	-403	10552	23424	22512	1527	-1150	-3094	-18824	-2720	-1688	2293	1465	536	-27384	-9536	-13424	-429	-2416	664	133	128	1
-10104	-6496	11320	144	-38	347	-16872	-3352	-5088	-825	1077	-535	-18384	-704	-10904	1041	1162	-207	7328	22856	14824	855	-643	-951	-5688	-1944	-624	2141	376	159	-21168	-6384	-6248	-546	-3237	646	128	131	1
-10636	-6264	10760	159	-29	350	-17088	-2904	-6880	-847	846	-488	-16360	448	-9240	458	1171	-335	6576	20720	14968	102	-522	1059	-7912	6040	-664	1907	-463	238	-18872	-3576	-9992	417	-2474	498	132	131	1
-10620	-5128	10928	179	45	267	-17336	-2024	-6336	-653	649	-313	-15024	272	-8360	-139	1140	-338	1664	9360	16776	-359	-925	1925	-8192	7472	-2448	348	-1738	570	-18072	-3792	-12912	306	-1983	830	136	130	1
-10644	-4856	11008	148	122	109	-18120	-1184	-6432	-559	534	-152	-15208	-480	-7304	-225	1217	-335	-3208	2696	18264	-99	-2065	2042	-7000	4696	-3504	-893	-2657	737	-16680	-2048	-13120	396	-1944	1092	129	126	1
-10496	-4364	11320	34	180	-37	-16632	-2624	-4848	-379	338	-80	-15840	368	-5576	-17	1135	-249	-5928	-160	17824	256	-3298	1700	-7256	1816	-4816	-1520	-3286	693	-14032	-1456	-12648	703	-1867	1211	123	128	1
-10184	-5220	10932	-60	194	-79	-16512	-3280	-3896	-144	239	-71	-15016	1384	-4528	-303	1175	-207	-6072	648	15384	385	-3988	1502	-8688	-792	-4776	-2069	-4003	406	-11776	1264	-12704	695	-1709	1169	126	128	1
-10032	-5732	10812	-56	158	-29	-16008	-1096	-2256	-20	180	-45	-14800	232	-3856	-719	1305	-218	-10136	488	15928	94	-4272	1575	-9880	-3824	-5664	-2012	-4520	-35	-9568	2136	-12840	153	-1457	1191	124	127	1
-9792	-5532	11188	-59	137	33	-15992	-56	-2232	-277	190	-49	-15616	-424	-4008	-903	1533	-155	-11824	-512	14520	-67	-4521	1840	-11024	-5632	-7000	-1200	-4803	-446	-7320	1136	-13272	-653	-1146	1194	122	128	1
-9952	-5748	10772	-62	113	88	-16312	-7256	18376	-3230	888	-116	-14928	-192	-5464	-1050	1826	-217	-15968	-1992	15616	-43	-4533	1950	-13608	-4472	-8840	-203	-5077	-712	-6352	-848	-12312	-1451	-943	1189	120	127	1
-10156	-5872	10728	-39	72	77	-16224	-1936	-1576	-900	-226	-113	-12856	-1448	-4464	-870	2013	-425	-22016	-4160	19352	218	-4780	1613	-15400	-3072	-7232	664	-5253	-778	-5512	-3000	-9856	-1603	-828	852	122	128	1
-10028	-5224	10928	-58	36	63	-16576	-2160	-4440	-958	267	-135	-14344	912	-5496	-761	2404	-181	-25488	-3856	19920	781	-5045	928	-21368	-1408	-9888	1162	-5263	-655	-3480	-3656	-9408	-1738	-480	579	130	131	1
-10484	-4572	10672	-13	9	22	-15568	-2536	-4880	-251	149	-36	-14936	1384	-5696	-654	2493	-76	-28344	288	20144	1061	-4958	253	-25616	-544	-11824	967	-5441	-315	-4888	-1688	-3680	-1447	-475	428	128	129	1
-10252	-5124	10912	5	15	-11	-15912	-544	-3112	-8	128	87	-12272	-920	-4872	-802	2411	-131	-32048	6344	21768	1216	-4910	390	-25272	-4272	-12744	885	-5409	-272	-11384	-208	4576	-1532	-1312	267	126	130	1
-9932	-5144	11188	25	-16	3	-17192	-64	-2040	-275	163	113	-13896	-1064	-3224	-337	2272	-141	-28720	10384	16384	783	-4738	1313	-25512	-4056	-11064	622	-5213	-326	-12424	-352	4912	-1613	-1412	169	124	127	1
-9916	-5540	10820	-58	-30	57	-17224	136	-640	-819	243	5	-14528	-96	-1200	-228	2018	-249	-28408	8176	10984	-175	-3891	2424	-21744	-520	-10000	-103	-4771	-557	-20528	3864	7536	-948	-1724	399	121	123	1
-10164	-5340	10284	-69	-29	70	-16048	112	616	-1186	458	-60	-15680	608	3360	-349	1401	-492	-32768	1088	11752	-1307	-3332	2579	-21440	136	-10384	-190	-4700	-618	-18728	5960	6992	-435	-2069	783	115	113	1
-9664	-5924	10616	7	-56	149	-14168	-3504	4136	-1027	784	-91	-20880	2512	2296	-341	834	-262	-29456	-3584	-2512	-872	-3264	2005	-19024	800	-12888	-421	-4157	-700	-12232	-3248	9648	-629	-1608	640	111	112	1
-9100	-5472	10856	97	-35	233	-13016	-1648	3880	-12	1153	-20	-26696	1760	-32	-936	724	-37	-32768	-7896	-8288	602	-2418	1390	-12616	-1232	-13584	-816	-2504	-326	-11472	-8696	20304	-581	-965	-171	108	111	1
-10084	-4292	11496	80	145	159	-16352	2048	1048	330	1531	98	-19400	2728	-1048	-652	948	12	-28800	2384	-20440	594	-1425	1011	-11032	-1664	-14568	-165	-1344	34	-17512	-2592	21736	-241	-363	-289	104	109	1
-10264	-4480	11796	-108	451	123	-19736	976	-1544	8	1789	8	-18032	3200	-2704	-502	1400	-42	-31904	688	-20312	-60	101	777	-11720	2744	-14256	350	147	176	-22936	1232	15440	-396	529	147	101	107	1
-10476	-5560	11876	-244	738	134	-19280	-520	-1048	-9	1980	-61	-18872	-1112	-4008	-374	1403	-133	-30800	2824	-14944	218	1255	828	-12320	4440	-13664	55	1286	411	-23440	-960	5864	580	1830	360	104	110	1
-10952	-5520	12380	-402	1092	172	-18744	-1360	-2200	115	2162	-36	-21296	-2104	-3016	-68	767	-99	-28352	10216	-16480	-546	2882	347	-16128	3784	-12416	-691	2100	661	-14224	-824	2840	662	1543	624	108	109	1
-11184	-7684	13688	-743	1603	25	-20936	1080	-3392	358	2374	69	-22864	-440	-2848	-80	102	143	-4128	-12512	32767	-1019	4611	1238	-28688	-11952	25528	-726	1603	-238	-3000	10648	-6968	171	1725	781	109	111	1
-11448	-8428	14804	-639	2572	414	-24296	1376	-3448	243	2584	126	-22488	424	-1864	-33	-312	547	-28024	-29184	19000	763	2769	-1847	-21992	-8944	-10600	-4161	1471	701	-21448	12280	2712	189	1387	395	111	113	1
-10340	-6924	12176	-595	3637	805	-24472	680	-1944	225	2749	46	-24600	2280	1032	220	-1040	782	-25632	12632	17072	771	2795	-963	-11336	-19632	-8088	-1991	2021	-42	-25648	2488	1456	-2693	713	-74	106	104	1
-14396	-10344	12908	-1129	4835	1376	-25216	1472	2280	-53	2890	-137	-26712	4768	7008	139	-1891	822	-9456	18592	11328	509	2448	302	-22952	3456	-1864	875	2259	493	-15328	-9800	-5656	-1957	137	-1044	106	100	1
-15052	-14680	12776	-1508	5682	2331	-29880	4696	3696	-273	2893	-596	-28424	8536	13440	583	-2958	912	-22512	6464	21360	173	2496	-344	-15992	6880	-6528	192	1974	778	-12320	-10072	8	-571	674	-709	107	102	1
-19464	-21320	14844	-601	5714	3087	-29288	1800	4840	-1003	2907	-1066	-23952	17064	15176	3336	-3727	1221	-15736	9264	10120	-122	739	-388	-17968	3320	-4552	-654	1512	764	-13256	5720	-11656	1065	1015	954	106	111	1
-21932	-10112	16964	-292	6215	3856	-22432	-6304	-448	-1297	3540	-1131	-88	5992	-7776	-2179	-327	645	-12384	3736	17448	343	351	-810	-18992	3024	-6256	-640	1465	601	-11872	11392	-12080	1740	1202	152	116	116	1
-32768	-17004	18732	-546	4560	4537	-26352	-9176	-19344	-1180	3594	-734	-21312	-7328	-15440	-3064	427	46	-11600	5280	14416	70	-256	-560	-15192	-1272	-6016	-874	1197	397	-13288	6992	-7864	264	995	295	116	115	1
-25788	-24876	32767	-261	902	2683	-28464	-6640	-15280	-77	3100	-341	-32768	-1304	-18328	-2582	-843	-677	-11712	4096	13552	-40	-229	-231	-18224	-5192	-3904	-31	1104	249	-18560	2592	-7280	176	1412	99	122	108	1
536	-18796	23248	-76	14	1649	-22440	1352	536	50	1691	-277	-32024	5064	-16288	-1905	-1605	-805	-10000	2872	14008	-113	-112	-129	-17600	-1632	-3824	910	1073	171	-15408	3328	-4656	-193	1234	-169	120	111	1
4488	-17664	17588	135	-510	1126	-17568	-1528	-40	-618	575	-589	-20712	7792	-16064	-994	-2003	-520	-9320	3720	13576	-34	1	-91	-17520	1344	-2688	1065	955	219	-15632	-192	-3872	-103	1230	-273	124	120	1
6356	-14008	14300	-384	-876	361	-9296	328	1480	-760	-303	-330	-20336	-704	-13456	-606	-2386	-688	-8816	3680	13600	-12	62	-120	-16936	2568	-3048	733	715	302	-15920	992	-5824	450	1337	-312	123	121	1
7080	-14152	12368	-880	-1040	-437	-7504	-1400	32	-959	-1029	-500	-16568	1416	-12544	-315	-2199	-399	-9408	4096	13064	18	118	-67	-17728	1712	-4152	80	499	248	-15144	3312	-6752	716	1422	-212	127	121	1
2320	-14528	12784	-603	-1380	-864	-8160	-3272	-2128	-564	-1841	-556	-11536	2656	-13048	-163	-1987	-257	-9592	4136	13352	35	155	-14	-17256	1960	-3408	-691	364	122	-15576	3240	-5624	716	1387	-181	124	118	1
-2528	-11776	13900	-341	-2178	-1797	-6608	-2800	-3952	-28	-2401	-396	-10128	2040	-12032	-152	-1843	-357	-9512	4088	13032	29	151	25	-16216	-792	-3720	-805	368	-68	-14960	2984	-5768	706	1532	-266	125	118	1
-2424	-8760	13032	-96	-2807	-2483	-6552	-3024	-3656	39	-2514	-359	-10816	-1184	-12256	-179	-1674	-529	-9360	4200	12784	-2	108	11	-15376	-2184	-2136	120	514	-97	-14616	1488	-5096	914	1547	-321	127	123	1
-5696	-7164	13644	115	-3150	-2708	-10448	-1808	-4376	947	-3729	13	-10664	-3128	-13064	115	-1597	-621	-9496	4400	13248	13	62	-48	-15784	-1272	-3488	1337	533	-27	-14768	2736	-5616	1185	1563	-316	124	120	1
-9332	-5840	15340	120	-3609	-2798	-12328	-656	-5768	1311	-4248	163	-9440	-2416	-13280	637	-1671	-666	-9752	3800	13008	58	21	-55	-16968	456	-2808	1579	430	59	-14608	2960	-5072	1167	1682	-282	125	120	1
-11916	-4312	15148	-102	-3961	-2929	-13256	-712	-8232	1786	-4640	359	-7112	-1976	-13408	1010	-1717	-569	-9688	3928	13040	69	17	-57	-16832	304	-1600	1221	244	59	-14728	1640	-3000	955	1771	-512	123	119	1
-15148	-3572	14144	-269	-3972	-3028	-14680	704	-9856	2275	-4915	643	-5704	-1560	-12968	1371	-1604	-448	-9056	4040	12784	62	83	-22	-16336	-24	-416	633	211	-5	-14320	1416	-2792	949	1843	-536	125	121	1
-19340	-5796	16020	-165	-3713	-2993	-15656	5208	-8200	1905	-5132	1350	-3848	-504	-11224	1606	-1157	-421	-9680	3824	12800	20	87	10	-14552	392	-656	299	314	-54	-13968	2304	1232	730	2003	-503	124	127	1
-25444	-7612	22008	-71	-3656	-2766	-22968	5200	-11000	767	-5232	1527	-3304	1576	-6856	1773	-1074	-254	-9464	3784	12992	-27	52	4	-13968	-504	480	238	455	-66	-13264	3096	1928	569	2045	-304	124	129	1
-30348	-9684	22136	-142	-3966	-2859	-28608	608	-12304	-9	-5274	1297	-5992	1824	-3616	1767	-1376	72	-9080	4192	12984	-23	7	-50	-15472	-272	272	235	629	17	-14376	2440	896	86	1857	128	127	130	1
-30052	-12472	15748	69	-3635	-2767	-28280	-856	-13880	52	-5119	1063	-11200	4712	1400	1670	-1617	564	-9200	3792	13024	-16	-33	-77	-15576	-672	608	130	873	62	-17720	1624	-4600	-10	1013	-90	131	132	1
-30944	-12548	9936	683	-2949	-2734	-25232	-1888	-17280	885	-4944	711	-17432	7544	2504	1363	-1281	817	-9312	3968	12776	20	1	-83	-15304	680	-1456	-293	920	38	-19792	4088	-7424	434	686	-566	133	134	1
-32768	-5196	5672	818	-2406	-2912	-16248	-4432	-15904	1406	-4523	887	-21720	8400	3568	1017	-984	668	-9152	4032	13392	19	63	-55	-16216	-8	520	-323	1041	-7	-19888	5320	-2216	209	909	-315	132	131	1
-32768	1004	2832	603	-2685	-2967	-17480	-2832	-17352	1413	-3848	1157	-26240	6568	8280	1146	-1763	593	-9088	4320	13240	33	144	-83	-16304	168	1224	-377	1225	38	-17864	688	1864	323	1122	-43	125	134	1
-32768	9852	-4464	297	-2437	-2864	-14024	-464	-9200	73	-2132	1360	-19008	6064	2536	853	-1890	360	-9104	3688	13328	83	269	-127	-15224	-80	1080	-504	1399	1	-17712	-1480	1760	582	1027	-39	119	133	1
-32768	10656	-13448	793	-1885	-1609	-11896	-4064	-15024	-524	-1559	715	-9360	13152	9576	-319	-893	37	-8696	4208	13936	191	501	-181	-16400	-232	664	-637	1725	-41	-20008	3768	-1416	516	706	-49	119	131	1
-32768	14340	-24276	611	-1104	329	-6288	-2304	-17208	-278	-677	324	-11080	14416	13632	-514	238	71	-9280	4056	14120	247	780	-223	-17712	-616	-2552	-606	1845	-33	-18272	7304	-3928	568	645	-71	119	130	1
-32768	12100	-22840	-1295	-203	382	-8352	-3352	-15056	-668	827	-374	-15200	8080	11632	-874	514	432	-9240	3376	14328	320	1190	-220	-19584	-1032	-3888	-523	2052	-15	-17840	5576	-6456	518	490	-210	131	131	1
-32768	-9740	-19620	146	1203	1796	-12592	-5800	-15688	-727	1730	-894	-17072	4912	5872	-547	1357	273	-7792	6080	15696	442	1751	-192	-20176	-1688	-4184	-483	2133	10	-17944	3112	-5432	314	142	-413	135	133	1
-5996	-10032	21216	497	2432	1049	-25008	1520	14632	638	2106	-519	-22736	1520	2160	-138	2645	-772	-9936	4568	14456	515	2508	-203	-20272	-1336	-5128	-513	2245	-26	-18936	3112	-2880	205	-117	-542	143	143	1
-832	2568	21964	-942	1703	2670	-32768	2752	3288	1794	1313	15	-20584	8672	-5312	569	1284	-941	-10872	5744	14648	807	3357	-233	-22960	-416	-3464	-589	2371	-67	-22952	3304	-1080	34	-322	-505	147	143	1
-28484	-4396	10492	-944	1945	1883	-10080	5736	-11352	236	2234	-875	-23176	-3256	6456	-317	165	-792	-21424	8376	13456	1029	3828	-543	-23520	-2632	-456	-594	2463	118	-26200	2360	5648	-83	-1215	-518	145	139	1
-14920	-17288	12604	-938	2315	681	-18920	7296	-1088	-1365	1961	-389	-15384	-2208	-11128	279	166	-127	-9808	9544	17256	945	4944	-657	-27592	-3576	2000	-157	2705	337	-29728	1664	13944	-576	-2761	-625	136	132	1
-13620	-8116	6924	-915	2150	710	-18176	-8400	-13336	-3805	2078	-1372	-6024	7032	-5424	641	616	-289	-12944	13552	14728	1023	5077	-699	-31176	-4064	4632	383	2885	799	-28864	-5424	19272	-2265	-3636	-778	117	120	1
-21104	-11032	10248	398	760	835	-14712	-14408	-10392	-204	1785	-675	-17176	-4056	-9872	-497	1037	-645	-12232	10440	17488	907	7541	-2190	-31456	-3112	5976	1112	2793	1024	-6208	-11512	-912	987	-2279	-625	120	119	1
-15800	-6024	14720	781	283	752	-19056	-3200	-7792	1169	1493	-348	-11760	-6024	-11344	-840	878	-402	-21520	7120	14624	1546	8320	-2771	-22064	784	-2680	1425	2668	948	-21040	472	-32	2526	-1311	-566	122	118	1
-11532	-7708	10976	811	25	462	-16200	-3208	-6992	1325	1136	-183	-17200	-7128	-10392	33	1124	-117	-30928	5512	8232	1615	7295	-3672	-20096	2680	-9584	2001	2852	675	-26384	11000	-18920	4157	-231	231	122	122	1
-11504	-5480	12212	502	-30	306	-17992	736	-4056	1029	905	-54	-15192	-1968	-6712	1143	828	-307	-30208	10608	9680	2041	5068	-3722	-22672	1656	-11664	1908	2787	428	-27336	9336	-17400	2215	-628	921	125	124	1
-10400	-5860	11680	297	89	157	-18184	696	-3128	159	795	-97	-16920	3736	-5760	1214	1006	-306	-32768	11264	10032	2751	3998	-2608	-20288	3280	-12424	1556	2216	219	-26368	1632	-12776	-403	-1512	1137	123	129	1
-10044	-6272	11292	94	159	173	-17616	1016	-2936	-1	658	-178	-16576	4056	-4376	771	978	-162	-20840	16960	24992	1189	2873	-2069	-10008	8720	-15408	805	1418	110	-21416	-3592	-11728	-1405	-2269	698	130	126	1
-9984	-5760	11224	107	166	187	-16720	144	-3448	-640	614	-382	-14496	2712	-4128	210	1157	-108	-24456	22864	32767	334	-1570	-977	-5040	4232	-10512	485	528	-51	-18104	-3384	-8272	-908	-2601	561	131	132	1
-10204	-6224	11048	125	157	189	-16928	-2304	-3512	-914	549	-365	-14448	1552	-4312	-463	1323	-229	-3928	11936	16680	150	-3461	384	-7592	-1992	936	1011	-256	-23	-19576	-1456	-10880	-366	-2312	656	130	133	1
-10136	-6348	11068	94	129	183	-16976	-2688	-3416	-924	541	-351	-15184	-2344	-4544	-877	1433	-266	4744	8944	6560	81	-3694	968	-8336	-744	1088	1382	-826	157	-17904	-960	-11328	-295	-2123	1029	130	127	1
-10340	-6556	10480	81	40	209	-16312	-1320	1016	-751	609	-233	-14392	-4848	-6520	-860	1326	-148	3920	7768	6008	-407	-3121	944	-4296	2600	-1336	1291	-1676	311	-13880	-2760	-10680	-73	-2041	960	125	124	1
-10292	-6584	10336	134	-51	257	-15352	-2896	-1456	-517	359	-52	-15424	-3280	-5680	-624	1322	-350	-4328	6608	8968	-665	-3090	1165	-2512	5456	-3424	272	-2381	477	-11472	-1216	-9848	168	-1790	844	127	123	1
-10212	-5596	10632	133	-48	201	-15984	-736	-2472	-362	392	-34	-15240	-1016	-3920	-419	1284	-216	-10168	6776	12456	-601	-3954	1691	-1992	3280	-5704	-1298	-2849	519	-9184	-328	-9632	9	-1561	887	125	128	1
-9724	-5452	10976	128	-62	191	-16568	-360	-1896	-424	348	26	-15112	1672	-3016	-377	1401	49	-7264	5928	11624	-584	-4660	2138	-4880	296	-3320	-1629	-3484	319	-9536	1120	-9608	-283	-1481	848	124	127	1
-10076	-5572	10824	128	-71	167	-16032	-688	-1688	-414	369	4	-13936	2456	-1184	-650	1642	-38	-8288	4408	11312	-709	-4794	2283	-9744	-976	-2120	-1257	-4060	160	-10152	576	-10720	-494	-1253	908	118	120	1
-9812	-5620	10856	100	-57	151	-15856	-1896	-1384	-259	493	-55	-12920	1720	-264	-801	1977	-205	-11536	3616	13184	-703	-5026	2394	-12600	-1064	-4200	-1305	-4538	22	-9424	648	-10760	-769	-1047	1015	115	121	1
-10164	-5224	10984	95	-32	156	-16592	-536	-760	-51	607	-38	-16784	1664	1776	-482	1812	-289	-13744	3432	16080	-743	-5114	2464	-14424	-896	-6568	-1375	-5137	-217	-8536	272	-10816	-1109	-667	1011	109	119	1
-10284	-5684	10832	118	-60	154	-15384	280	-528	-131	736	-71	-20888	1464	-1496	-370	1633	-539	-21648	2440	20224	-832	-5210	2341	-20304	-3504	-7608	-1253	-5646	-572	-7488	-944	-9200	-1593	-556	798	107	118	1
-9844	-5444	11104	81	-49	171	-15200	-56	-1264	-337	855	-131	-17288	-2360	-4616	-396	1059	-244	-26296	1712	20768	-591	-5529	2191	-21752	-5656	-7992	-936	-5810	-767	-5816	-1696	-9720	-1642	-154	518	117	117	1
-9712	-5444	11240	42	-5	152	-16248	-448	-2152	-308	925	-115	-16024	-992	-4464	-216	1004	-59	-30672	7208	19872	-412	-5603	2047	-21432	-4688	-7992	160	-5712	-770	-5632	-3704	-8192	-1464	202	515	119	122	1
-10084	-5472	11032	0	55	139	-15456	-1400	-2816	-99	1038	-110	-15760	-24	-4432	-115	682	-60	-32768	12000	20608	-736	-5554	1997	-24752	648	-8968	471	-5792	-543	-8440	-4752	-4624	-1277	90	499	119	125	1
-9440	-5740	11012	-19	89	169	-15944	-1904	-3472	-42	1025	-73	-12824	-816	-4056	-165	771	14	-32768	12792	19976	-931	-5389	2066	-32768	464	-6864	115	-5764	-411	-13792	-3696	4312	-1134	-730	292	122	124	1
-9544	-5392	11204	-27	151	243	-17488	-1736	-4848	43	1015	-50	-12712	-40	-5456	-268	1280	-43	-32768	2584	15856	-470	-4801	2342	-29928	-1896	-6400	-342	-5551	-316	-18056	6056	8848	-1145	-1487	58	119	124	1
-9952	-5316	11188	-96	243	296	-18704	-752	-5768	-28	1005	-40	-14344	1072	-8192	-507	1828	-87	-32768	5304	7896	-67	-4389	2336	-27064	2488	-11360	-471	-4593	-319	-30272	6232	18592	-1977	-2401	765	120	125	1
-10400	-4860	11200	-160	370	270	-17408	-808	-6152	-243	958	-44	-16232	24	-12144	-795	2065	-38	-32768	1744	-7992	-441	-3413	2025	-17720	1336	-16896	-1364	-3921	-358	-21376	-832	17720	-1889	-1401	1224	120	122	1
-10612	-5104	11332	-217	532	191	-17064	-112	-4824	-249	976	2	-16944	1328	-8928	-468	1245	-44	-32768	-10088	-17608	494	-2087	1387	-8264	-6112	-14176	-1179	-2346	-298	-10000	-13440	22952	-420	-1161	368	117	115	1
-10492	-4444	11480	-237	677	101	-15368	920	-2280	-23	1091	7	-14464	4320	-1936	-45	647	-1	-32768	-4752	-20344	1360	-1288	553	-6104	-2336	-14096	1617	-615	203	-13584	-5800	22632	1526	-631	233	117	118	1
-10352	-4844	12192	-268	941	-10	-15544	-536	-4328	452	1214	151	-17080	3448	-2816	-308	589	91	-31992	-1120	-17616	1138	-378	-304	-8656	4304	-13208	2024	894	641	-15440	2808	15272	1725	-105	-61	120	120	1
-11092	-6488	11344	-210	1342	58	-19152	-488	-3280	474	1439	121	-18672	-576	-3616	-527	750	268	-26560	3808	-10560	393	167	-653	-11032	2080	-11704	1281	1831	619	-18312	5792	9184	880	740	175	116	121	1
-10092	-7668	11480	-186	1742	257	-18824	-1712	-2992	298	1625	-81	-20328	-3176	-4272	-82	646	296	-19528	18080	-8672	-1136	1293	-445	-16520	552	-6872	141	2356	408	-20200	5032	416	617	1735	535	119	121	1
-11384	-6104	10604	-225	2218	524	-19064	-1168	-4600	182	1740	-112	-20480	-456	-4056	1	619	259	13088	-6216	31968	-702	2988	201	-26160	-8768	22904	-797	1812	-284	-15800	1392	-8144	175	2590	645	116	119	1
-11544	-6336	12336	-346	2790	649	-22704	-624	-3792	18	1860	-108	-20824	1056	-2304	-206	401	290	16440	2928	32767	-221	3074	133	-30816	-6424	4216	-2829	1290	436	-18360	3712	3224	-880	1629	295	116	115	1
-13732	-8288	11608	-733	3564	828	-24328	-1400	-1864	11	2084	-177	-24488	3440	1288	-174	-103	183	-32768	-5144	15072	795	3127	-968	-10456	-16848	-18392	-3311	1482	314	-18008	11800	4288	-843	-203	198	117	114	1
-11864	-9192	12232	-1019	4047	1288	-21896	1296	2256	-25	2340	-390	-29872	5056	8912	-152	-1083	200	-16816	20024	19400	913	2716	-2	-20856	-5576	1080	155	1963	96	-16440	2880	2472	-1346	520	-431	114	111	1
-14032	-12364	10288	-925	4594	1803	-25912	2344	2840	-401	2617	-697	-27368	7032	14472	120	-2010	463	-14440	14784	9240	470	2880	-7	-20896	12712	-5048	1496	2383	512	-13688	-12104	-5448	-1020	869	-1242	107	98	1
-13716	-15340	10584	-568	5171	2783	-29776	4264	3192	-949	2656	-1287	-30680	12296	18776	1114	-3549	1082	-18424	4728	18440	-530	1444	-966	-14888	6152	-6872	-35	1820	544	-17368	2640	-4464	-367	1037	353	111	105	1
-16276	-12912	10424	-849	6259	3874	-32768	3880	9216	-1207	2203	-1760	-9120	12264	-240	73	-2037	1644	-12456	5936	14248	-328	962	-387	-19232	1616	-5688	-445	1579	537	-10776	8480	-9688	804	882	231	113	110	1
-24040	-5128	7508	-2146	6968	4087	-23432	-296	-7288	-2466	2699	-1213	-16080	-2424	-6464	-3418	-459	1006	-11088	5304	14120	-343	489	-641	-16408	2360	-6488	-946	1382	225	-11560	1752	-7744	526	1130	-132	117	116	1
-32768	-14216	12600	-3142	4761	2891	-21080	-8424	-12792	-2815	3149	-568	-31224	-8240	-22128	-3696	299	-412	-12696	2616	13592	-214	34	-412	-16608	-5760	-5784	-1335	1045	76	-19696	-320	-7184	554	1356	453	119	112	1
-32768	-23500	19020	-2897	2180	2709	-19920	-8248	-17352	-2531	3004	-589	-31184	-4872	-11424	-2480	-1437	-1367	-9152	3240	14200	-56	61	-211	-18128	-6520	-2912	123	1048	207	-16040	4136	-4768	432	1121	125	120	108	1
4212	-22828	32420	-295	649	1751	-15096	-6640	-12976	-980	1830	-114	-24224	5152	-16808	-1125	-1644	-982	-9016	3880	14368	236	28	43	-17288	-928	-2960	1398	1036	233	-16112	1872	-5912	51	1158	-192	124	116	1
-13292	-24364	25048	244	-2030	407	-13320	-4704	-3720	440	561	53	-19608	3504	-14720	-261	-2121	-390	-10096	5008	13200	414	43	48	-17736	2536	-4368	1555	891	295	-15984	560	-7016	517	1266	-329	120	120	1
6104	-17168	10752	961	-2306	224	-10088	-1456	808	436	-301	77	-18640	1088	-13560	203	-2386	-263	-9432	5256	12512	394	135	60	-17624	3144	-4608	832	596	370	-15048	3408	-6704	877	1440	-126	127	119	1
4404	-9508	9468	689	-2277	-418	-5928	400	-1424	457	-896	43	-16792	1528	-13328	348	-2086	-185	-10048	5280	12752	389	208	112	-18072	400	-3408	-24	329	238	-16168	4264	-5216	751	1362	-213	127	115	1
2608	-9884	9048	205	-2506	-1326	-4480	16	-2672	304	-1599	-30	-12384	1824	-13680	191	-1926	-196	-9408	5040	13232	400	281	166	-17552	-864	-2496	-359	269	73	-16776	2976	-3472	567	1364	-330	123	121	1
-632	-11284	9740	205	-2892	-2133	-4976	-1096	-3544	245	-2282	62	-10512	2744	-12248	189	-1747	-231	-9648	5784	12648	404	305	177	-16288	-360	-1624	-53	341	-39	-15592	2376	-2552	800	1312	-258	126	118	1
-2796	-9484	9532	688	-3300	-2565	-6320	-3784	-3480	519	-2885	110	-10368	1496	-13232	185	-1518	-320	-8920	6824	11648	363	253	103	-15544	544	-976	827	426	-7	-14768	4056	-2856	1267	1336	-217	122	117	1
-4764	-5368	10000	837	-3714	-2738	-6504	-3832	-3616	587	-2977	115	-9296	-1408	-13416	179	-1524	-450	-9360	6296	11920	293	179	-66	-15696	1432	-688	936	440	5	-14200	4744	-2168	1443	1305	-163	124	122	1
-8908	-2920	10996	414	-4170	-2833	-7768	-3344	-3696	1269	-4011	440	-7624	-3536	-13344	435	-1521	-499	-9424	6120	12104	286	151	-141	-16136	1808	-1048	1329	485	62	-15256	5560	-3560	1493	1369	-249	125	120	1
-12244	-3632	12028	-258	-4792	-2892	-11272	-1864	-5088	1474	-4497	695	-5392	-3504	-13168	991	-1531	-420	-9448	6616	11120	29	77	-278	-15344	2184	-1576	993	449	35	-12840	4672	-2448	1259	1463	-408	122	120	1
-12764	-4292	10140	-604	-4763	-2731	-15280	-2368	-8704	1927	-4789	739	-5024	-1808	-11944	1847	-1450	-380	-11328	5616	11456	-123	63	-276	-15192	2296	-1504	873	454	37	-13424	3816	-912	1037	1667	-370	122	123	1
-19452	-6800	11476	-496	-4329	-2706	-14464	456	-8936	2127	-5023	1217	-6240	-1216	-9576	2086	-1112	-400	-8968	5472	12160	-115	70	-225	-16160	-1808	-376	51	466	-141	-14888	1264	-2536	929	1835	-427	128	124	1
-21956	-6432	14544	-483	-3858	-2550	-21632	8080	-6480	516	-5024	1722	-6120	544	-4096	2107	-1104	-380	-9424	5232	12472	-14	146	-210	-17056	-1496	-2264	173	613	-74	-14376	-72	-1424	1003	1798	-359	126	125	1
-30652	-11112	19824	-735	-3800	-2365	-27496	-872	-12416	-880	-5110	1271	-8104	664	0	1862	-1495	3	-10712	5056	11920	-8	94	-173	-16112	-1920	-2824	516	689	-46	-13144	696	-1696	1035	2070	28	124	126	1
-28868	-10172	13592	-1049	-3906	-2563	-27896	-3800	-10344	-1049	-4973	757	-12200	3120	3616	1635	-1701	360	-9984	5656	12024	-8	102	-135	-16040	1320	-2016	618	779	4	-12680	1160	-2320	1005	2119	96	127	123	1
-29944	-10620	8372	-1467	-3347	-2423	-27552	-3928	-10368	-1014	-4916	666	-17560	5760	4544	1063	-1498	426	-9936	5408	11440	-176	55	-211	-13728	2672	56	293	801	-6	-16968	6072	-8016	451	975	-525	123	125	1
-32768	-16292	7944	-1282	-3028	-2517	-18712	-5672	-12760	-258	-4346	18	-22072	9864	2136	1130	-1459	238	-8640	6312	12352	-333	-50	-397	-12392	4752	-360	-487	838	-62	-17288	7576	-6664	-288	509	-569	123	126	1
-30016	-14068	6224	-244	-3217	-2866	-14800	-4880	2712	237	-3832	322	-14232	8376	-1416	-325	-1683	628	-10560	4800	12472	-158	50	-325	-17144	-3360	-6008	-965	843	-296	-16200	608	-7496	-158	1138	-328	122	128	1
-24308	-5908	5156	208	-2703	-3167	-15752	-2784	-7312	1471	-4126	591	-10480	8288	4752	-29	-1345	-436	-10160	5240	12624	-23	262	-157	-20816	-6808	-3720	-61	1035	-202	-15896	-4672	-6152	733	1579	-525	119	128	1
-26816	-4656	6720	345	-2173	-3145	-21728	1088	-8168	762	-3353	413	-12152	5968	8240	-353	-869	-406	-10312	4304	12624	103	424	-49	-15008	-1320	-1544	446	1271	-73	-18200	-1440	-2896	853	1171	-519	122	127	1
-28768	-928	592	331	-1858	-2646	-20744	1384	-8848	113	-2612	204	-14824	6408	9304	-718	-364	-445	-9608	5104	13000	196	614	9	-14912	1280	1088	307	1350	-193	-19200	1824	-144	425	717	-340	125	127	1
-27872	7712	-8040	-30	-1177	-2110	-11728	-1432	-8888	118	-1859	-156	-20096	5104	13456	175	48	-244	-9408	5696	13248	179	835	-143	-18088	2312	-184	-447	1394	-232	-19712	3888	-2960	356	635	-278	126	126	1
-30572	10572	-11780	-402	-407	-1365	-6296	-440	-8016	298	-714	-366	-24000	5000	13552	921	566	-54	-10248	5872	12888	227	1148	-175	-19272	-1296	-2704	-652	1570	-312	-19128	5160	-5248	748	744	-244	127	131	1
-28076	8588	-11688	-9	420	-478	-7688	-1112	-9328	551	628	-682	-21280	6064	9584	759	857	-212	-9024	5848	12624	317	1484	-184	-19160	-1224	-1984	-409	1965	-263	-18192	5112	-4560	847	615	-295	130	128	1
-23944	3352	-6928	369	1504	273	-11200	384	-11880	1083	1632	-769	-15872	5360	5480	666	694	-297	-9976	4752	13584	502	2042	-272	-17776	-2104	-2424	-315	1986	-238	-19672	3328	-1952	695	199	-447	129	131	1
-23976	10472	-5508	2504	2936	1516	-16656	104	-13000	1406	2428	-901	-12816	6408	720	703	704	-383	-10848	4600	12968	862	2581	-321	-19536	-3208	-2504	-230	2177	-217	-20640	336	568	694	-93	-513	127	132	1
9696	-3748	32767	1209	3277	1029	-32768	3088	-15152	2736	1284	54	-8720	5808	-6704	874	1623	-484	-21272	11696	8968	1010	3097	-268	-22128	-3352	-1792	-125	2349	-171	-22848	472	2648	666	-546	-552	130	131	1
-15852	29232	25040	-666	1876	3861	-30848	17056	-11848	2624	1699	-889	-24832	2640	14576	557	526	-381	-11616	9640	12104	1593	4494	57	-25664	-3728	168	-137	2550	-106	-27384	1928	6416	388	-1118	-490	142	138	1
-20220	-11300	-4420	-1052	3079	1617	-10896	16216	-5352	-493	2069	-305	-25848	7960	4824	784	566	-208	-8480	11896	14672	2218	5348	-79	-23656	-3912	3720	-35	2784	112	-28104	3128	15272	88	-2547	-494	141	137	1
-21288	-19828	11940	-884	3212	914	-25080	-8600	224	-3135	2545	-1319	-19472	-552	-5472	97	493	-139	-11056	15696	14136	2295	6234	-759	-30176	-3632	5144	395	2966	366	-30192	1568	20976	-1539	-3956	-724	129	130	1
-32768	-19524	21900	-414	2241	1214	-13760	-16216	-6120	-995	2305	-1119	-10552	2208	-3256	235	306	-255	-14568	17496	13216	2107	7379	-2123	-31336	312	5104	825	2950	585	-6064	-2944	-6880	-554	-1328	-746	119	124	1
-10712	-5280	8952	1244	1125	996	-13928	-7184	-10976	1929	2185	-594	-10104	-272	-13448	-838	814	-1024	-28512	11712	13560	2715	7593	-3006	-24504	4880	-2344	831	3108	510	-11688	3184	-3176	1933	-1094	-569	118	122	1
-17916	-3468	15124	1049	55	1000	-18256	-2776	-8384	1933	1828	-328	-9112	-2768	-10624	-1538	669	-594	-32768	13976	11336	1392	6131	-4722	-24776	4824	-11736	691	3144	452	-32768	11848	-19944	2332	-48	280	121	123	1
-13160	-4428	11720	887	-74	488	-16096	1656	-7336	621	1483	-413	-15952	-7440	-12440	-846	983	-457	-32768	17984	19680	1323	3953	-4188	-24712	6536	-8152	515	2786	186	-27592	5856	-15128	223	-1273	943	125	125	1
-11580	-6316	10616	345	37	288	-18896	1680	-6112	-676	1272	-446	-14480	-3632	-11552	458	1008	-404	-25688	13088	25784	2337	3537	-2166	-17488	2288	-13400	-518	2475	118	-24896	2776	-14280	-1084	-1821	761	125	126	1
-10784	-5668	11296	21	120	225	-16856	-3560	-6848	-1140	984	-510	-16896	1240	-9704	523	1269	-364	-32768	28992	32767	968	626	-1372	-9440	5304	-16400	-620	1423	-304	-22144	680	-13168	-1616	-2433	513	129	131	1
-10820	-5616	11132	-144	207	120	-17992	-1840	-5072	-976	761	-460	-16952	-144	-8824	118	1266	-169	-8136	23120	23728	-557	-3502	15	-9632	5104	-1592	345	240	-740	-22848	784	-11720	-1175	-2503	436	130	132	1
-10668	-6068	10968	-143	259	16	-17968	-4632	-5200	-799	631	-316	-14616	-2072	-5752	-260	1269	-126	1200	10496	10640	-2102	-3615	-308	-10392	4024	1600	1037	-355	-387	-20152	2320	-13224	-808	-2299	858	128	126	1
-10236	-5952	10696	-95	285	-34	-16952	-5576	-4048	-80	526	-165	-15256	-3136	-5088	-83	1340	-83	5144	3728	6240	-1667	-3530	-372	-7632	4848	-1416	707	-1394	-117	-17440	712	-12344	-632	-2305	1217	132	129	1
-10040	-6704	11540	-132	282	11	-17472	-2608	-2584	241	390	-14	-16800	-2432	-4760	104	1307	-144	-1528	5720	8744	-663	-3533	-70	-4208	5632	-3224	226	-2080	-92	-13864	-224	-11728	-484	-2333	1131	130	128	1
-10276	-6480	10332	-176	293	-7	-16176	-1808	-2640	26	358	-10	-15416	-1424	-3544	6	1307	-153	-6752	13216	11792	-378	-4301	510	-2992	5992	-5496	-665	-2658	-144	-11480	-896	-11088	-367	-2165	1080	127	124	1
-9904	-7064	10012	-174	216	78	-15296	-656	-1248	-449	342	-6	-17312	-864	-4360	-346	1481	-178	-7680	14240	11672	-461	-4453	589	-4776	5120	-4080	-1202	-3451	-162	-10792	120	-10880	-434	-1883	1172	126	124	1
-10144	-6784	8948	-166	100	153	-16800	-1864	-4200	-762	-152	-165	-13336	152	-3136	-814	1795	-396	-5432	11944	7360	-1572	-5167	1205	-8024	2120	-2112	-1224	-4027	-215	-11208	1648	-11920	-724	-1629	1150	124	125	1
-10652	-7412	10096	-82	146	176	-15552	-1312	-4064	-974	496	-175	-14952	1624	-3144	-952	1646	-262	-10520	11176	9056	-1323	-5079	1693	-11176	1392	-4616	-1067	-4488	-343	-9616	88	-11768	-1100	-1428	1186	120	126	1
-10244	-5968	10480	-66	79	58	-16256	-1704	-1816	-590	408	-121	-13904	1888	-896	-1172	2010	-267	-13912	12128	11488	-1127	-5258	2247	-12560	1400	-6168	-907	-4952	-377	-7960	-2200	-11592	-1539	-1368	1215	119	126	1
-9908	-6504	10080	-43	67	84	-16792	-2880	-1688	-382	510	-117	-14288	840	-2288	-1295	2185	-363	-16664	11792	13208	-1110	-5242	2624	-15824	1720	-7056	-1070	-5417	-329	-6496	-4208	-10520	-1788	-1164	1168	116	123	1
-10116	-6556	10288	-20	60	92	-15392	-2960	-1960	-171	551	-134	-15448	24	-656	-1039	2280	-468	-23248	11160	18216	-1185	-5148	2784	-21352	1136	-8984	-1083	-5809	-340	-6376	-3808	-9208	-1774	-898	935	112	118	1
-10448	-6240	9936	143	-158	269	-15192	-696	-968	-290	648	-192	-18072	352	-1752	-592	2279	-453	-26120	7952	20064	-1072	-5128	2687	-24856	-672	-8312	-1248	-6131	-535	-5760	-3264	-6880	-1712	-714	637	110	120	1
-10252	-6608	10092	278	-291	379	-14976	-2080	-296	-595	756	-230	-16528	-4096	-4984	-726	1824	-438	-29664	7072	19392	-724	-4848	2389	-25184	-3648	-8136	-891	-6068	-538	-6464	-2640	-4088	-1595	-652	428	116	121	1
-9544	-6636	10128	285	-265	474	-15152	-2952	-3176	-369	904	-210	-16632	-3840	-4904	-623	1214	-49	-32768	9720	19648	-747	-4549	2080	-25792	-2640	-9528	-305	-6048	-373	-10040	-2448	1584	-1540	-915	611	120	121	1
-9764	-5592	10992	137	-87	370	-17312	-1184	-4856	-66	958	-72	-14936	1456	-6224	-57	1260	-27	-32768	4312	20424	-552	-4724	2088	-23784	-1376	-13616	-425	-5603	-418	-12896	1256	3480	-1196	-970	687	123	124	1
-10688	-5728	10740	48	67	346	-18984	336	-3744	-295	999	-124	-13224	1160	-5360	-371	1785	-124	-32768	-784	9704	-218	-5216	2007	-27256	-2776	-12448	-5	-4882	-544	-18512	1688	7744	-1116	-1345	799	118	124	1
-10404	-5284	10412	-80	260	288	-17104	-1016	-1832	-829	1173	-157	-14912	840	-3800	-522	1770	-260	-32768	-2256	-632	-178	-4358	1621	-24944	-4104	-15896	-218	-4093	-550	-27552	2776	19792	-1620	-2216	724	114	121	1
