#Activity	walking 
#ActivityID	1 
#Date 08-20-12-52
acc_rf_x	acc_rf_y	acc_rf_z	gyro_rf_x	gyro_rf_y	gyro_rf_z	acc_rs_x	acc_rs_y	acc_rs_z	gyro_rs_x	gyro_rs_y	gyro_rs_z	acc_rt_x	acc_rt_y	acc_rt_z	gyro_rt_x	gyro_rt_y	gyro_rt_z	acc_lf_x	acc_lf_y	acc_lf_z	gyro_lf_x	gyro_lf_y	gyro_lf_z	acc_ls_x	acc_ls_y	acc_ls_z	gyro_ls_x	gyro_ls_y	gyro_ls_z	acc_lt_x	acc_lt_y	acc_lt_z	gyro_lt_x	gyro_lt_y	gyro_lt_z	EMG_r	EMG_l	act
-4224	-16800	4392	-5593	-6925	-28440	-5760	-3636	-1544	17209	-21000	4829	-13576	-7844	-8180	13920	-17292	-4506	-8512	6876	12632	173	1383	-1507	-15484	2816	-16	6216	3653	1145	-14120	-1124	-936	7182	11338	3870	131	118	1
-7404	-15620	8144	-1961	-11551	-32768	-7684	-4300	-1368	18771	-24518	6143	-12236	-8548	-8196	19767	-16804	-3966	-8324	7032	12660	336	1228	-2123	-15756	4228	376	7525	3800	1446	-15044	-1080	-1388	4752	10227	3777	138	120	1
-7992	-8484	8424	-4193	-15011	-32768	-9544	-5208	-2340	21498	-27877	7050	-12096	-8736	-8964	26631	-15018	-4159	-8284	7000	12592	342	1238	-2244	-15160	3052	-64	6655	4413	1363	-16160	2808	-284	4541	9201	3478	139	118	1
-11116	-8528	9956	-9883	-19504	-32768	-10512	-96	-280	18007	-32298	15399	-9836	-3364	-10760	32767	-12446	-4095	-8448	6444	12724	542	802	-2332	-15408	3356	-248	6664	5036	1522	-19496	6648	-408	5350	6107	3505	117	112	1
-15088	-10136	10476	-10304	-22532	-32768	-12092	-1636	-2296	10964	-32768	12063	-7420	2468	-9272	29535	-9174	-1368	-8304	6552	12732	334	1181	-2150	-16244	3608	-488	4134	5790	1775	-18048	6920	-512	1557	4458	2634	122	119	1
-15732	-10640	10356	-10191	-23833	-32768	-12236	-2824	-2444	10825	-32768	12587	-6804	4788	-9312	19301	-5159	-1269	-8196	7080	12768	385	1227	-2847	-16520	3388	-684	3206	6273	1742	-16280	3280	-316	68	6116	1986	130	122	1
-15928	-11792	10288	-10055	-23588	-32768	-17472	-3980	-4592	9343	-32768	15717	-7368	4616	-10044	4835	-1228	1033	-8516	6264	12840	344	1986	-2879	-16256	3204	-1460	2967	6880	2050	-15572	1348	-952	845	7156	1682	142	124	1
-19832	-15140	15712	-11593	-22450	-32768	-23752	-3536	-3272	3022	-32768	14012	-8208	5228	-11436	-5174	3000	328	-8496	6556	12616	592	2683	-2895	-16472	3116	-1172	2980	7465	2241	-15976	80	-1580	2347	7105	1712	137	133	1
-26516	-20524	22180	-14546	-22387	-32768	-31904	-5964	-3644	422	-32768	13823	-7868	6652	-9128	-11316	6195	-1493	-8796	6400	12892	858	3334	-3391	-16448	3536	-1592	3092	8048	2412	-16584	-504	-1356	3852	6189	1679	126	134	1
-32768	-17832	25516	-18547	-23906	-32768	-32752	-7564	-4880	-298	-32768	11225	-8772	2676	-1740	-8450	4359	-4597	-8852	6456	13592	1499	4390	-3494	-17476	3812	-1924	3675	8960	2203	-18640	816	-480	4537	6048	1758	123	125	1
-32768	2108	29316	-26559	-22200	-28079	-32768	-8748	-10920	-8555	-32768	13006	-15040	-784	5644	-1380	-1093	-5363	-8352	5124	13084	2644	6766	-4513	-17348	2604	-1140	4121	10083	2530	-17656	2656	2124	5381	6349	2044	117	121	1
-32768	4708	25036	-18129	-21230	-20844	-32224	-3872	-18108	876	-32768	10359	-29188	-988	24232	-3560	-15037	-7960	-10404	6788	13956	824	9689	-5006	-17960	3076	-1292	2537	11652	2554	-17988	952	2344	4825	6142	2047	123	112	1
-32768	6856	23164	-14646	-20126	-20114	-19040	-2984	-21372	-12713	-20363	6202	-22856	-9884	26484	3272	-11848	-10359	-9620	7616	13920	460	12474	-5797	-18592	2472	-1520	1458	13224	3031	-18304	624	1816	5051	6489	1219	116	119	1
-32768	32767	-4624	-7196	-10644	690	-9224	-11996	-28444	-2255	-4716	-5195	-6676	-16	31384	1933	10374	-9335	-9908	6028	13776	183	15493	-6160	-18008	1788	-2116	605	14953	3099	-18156	2872	2196	5628	6603	312	117	127	1
-32768	26156	-44	-51	5030	7570	-10060	-5120	-27220	13770	10655	-7352	-13380	4096	15956	15914	20899	2772	-10324	6512	12984	313	18815	-6814	-18108	1956	-2144	619	15291	3098	-18744	2612	1172	5214	5831	-192	131	120	1
-32768	11856	9620	21485	15862	3022	-16736	-2976	-23424	15306	23553	-8989	-14936	2264	6420	21394	13640	10294	-11388	7992	12024	996	22011	-9533	-19100	3024	-1540	636	16779	3376	-18772	-132	2924	7439	4714	-617	142	120	1
11708	4060	20932	32767	30934	5166	-22556	2272	16380	17882	24846	-7937	-7788	1024	-8972	6769	15990	5740	-11336	8276	12432	2531	26070	-12373	-21128	416	-1624	7098	18802	5359	-18824	-600	3280	8372	4257	-791	139	123	1
32767	-32768	16584	-10062	10354	31282	-32768	32767	32767	10205	-8099	2931	-16860	6008	-27212	-1135	21867	-1708	-11208	8804	14644	5203	32767	-16512	-27704	460	-1380	10018	19398	4192	-23884	-5172	8276	13276	-3445	-3266	138	130	1
-32768	23556	7888	29782	15458	-1720	-12852	-19784	-32768	-6128	4538	-13319	-32768	-7436	19572	17076	-11299	7869	-13532	8684	14412	9133	32767	-23284	-30588	-6152	6648	24242	20160	4555	-23632	-3100	8636	15982	-10959	-7764	109	126	1
188	11280	29912	-358	4077	-357	-32768	1852	3880	14432	14259	-18634	-25208	11956	18552	32767	-5250	-8824	-16360	12204	13796	5007	32767	-28905	-26828	2280	2320	17876	20390	3418	-20892	-9532	6576	6064	-12660	-9322	111	139	1
-8904	-15604	11316	2838	5514	-2525	-7140	14136	2196	11726	12844	-7801	11736	12732	-304	-3764	32767	-26234	-20020	12312	13592	6401	32767	-30264	-20524	9316	-6020	9880	23594	4446	-19396	992	3192	16986	-12459	-6448	99	134	1
-4956	-9504	12432	3946	3134	-261	-13960	-8464	1276	5030	7920	-8164	1044	-10696	-29848	-30367	29385	-5737	-27232	14744	16820	16739	32767	-30819	-24196	10088	-2300	885	21959	2204	-25544	10436	-7128	28781	-14580	-4919	109	140	1
-7724	-8072	13624	342	976	-481	-19824	1940	1528	3046	5388	-6711	-26132	-18756	-6528	9285	-2294	10998	-26868	21768	18132	19524	20286	-29001	-19876	12204	-5264	-10915	19542	3405	-25032	7496	-15072	23574	-15384	-366	135	152	1
-8516	-10552	11064	1787	1516	-355	-19220	-4344	432	-5792	4701	-6049	-14564	-7844	-4600	8951	13245	-3239	-12248	28140	14576	5878	9086	-30339	-15564	8420	-8980	-7005	15264	2243	-26196	5688	-12008	5868	-23465	2160	131	131	1
-4968	-7180	13360	1126	1882	-350	-17756	-452	448	-1167	1623	-3284	-13228	6464	-8788	1063	20683	-5577	-18632	32767	21136	-6902	-21429	-10910	-13196	8972	-7188	11266	8399	465	-24788	7012	-9172	-6219	-26574	2201	115	114	1
-6060	-7808	12700	-1290	1751	-1206	-17332	616	3256	-309	691	-3698	-14208	-176	-5412	-2293	12958	-3798	-2020	13900	6920	-14624	-29735	-7151	-8068	4756	-676	11487	2050	725	-21748	4228	-7260	-8493	-24820	1497	159	105	1
-5740	-7180	12528	-996	2104	-386	-17336	784	5068	-5881	932	-2635	-19916	3552	3720	-1311	9703	-3358	1768	2220	2868	-5934	-29096	-6519	-4664	2564	-1512	5421	-2674	-1365	-16176	1852	-5908	-9674	-22958	1372	179	93	1
-5560	-7916	12472	-841	2129	-297	-13120	-980	8460	-16105	3226	-837	-17868	784	8896	-2986	7031	-10464	-708	5904	3332	5968	-27279	-1887	-3936	4320	-3332	367	-7165	-4213	-12820	4436	-4716	-11558	-18818	1190	84	130	1
-5748	-10056	11344	3087	2177	2465	-12040	-4040	11844	-18690	5594	-580	-19740	368	11548	-10096	2729	-10975	-4492	16480	5020	5528	-28601	4443	-7268	4804	-3356	365	-12348	-6159	-13876	5464	-5476	-12721	-15543	1097	143	129	1
-6188	-9832	11444	3995	203	4292	-13092	-3432	8948	-12567	7444	-1537	-20456	-4572	9296	-14619	1214	-8130	-4216	15800	4068	-2128	-30083	10820	-8236	4264	-4140	174	-17429	-6657	-16008	5000	-6836	-13640	-14014	595	145	125	1
-6388	-7684	12952	3609	-345	4700	-16224	332	4872	-8478	9486	-1831	-19240	-1356	3452	-11643	1578	-7666	-2536	8616	3612	-778	-26423	18361	-9256	2916	-5292	-3166	-21664	-8414	-18316	6140	-7676	-19204	-13640	1822	131	135	1
-6784	-7760	12456	2239	133	3663	-16380	-1156	3560	-4745	10507	-2558	-15832	-356	-876	-8191	1399	-5508	-7712	9408	5932	5097	-21263	25215	-9884	4176	-6336	-5863	-25492	-9422	-17280	4088	-9744	-25339	-14496	2606	126	135	1
-6296	-8084	12352	1175	449	3088	-16272	-2476	2840	-215	10804	-3235	-14636	-3664	-1312	-5873	1793	-3479	-14308	12896	9152	3842	-22175	29367	-10656	6652	-7596	-8785	-29232	-9285	-14400	1576	-8844	-25527	-14200	1447	120	123	1
-6812	-8148	12280	1058	726	2931	-16072	-1636	2256	608	11236	-3284	-14728	-6416	72	-4300	2593	-3125	-15760	8224	9724	3172	-24764	31087	-11832	5632	-7228	-10972	-31929	-9913	-12108	-1156	-6528	-20113	-12826	-696	118	126	1
-6468	-8144	12308	850	455	3559	-16132	-2120	1536	-1000	11418	-3428	-14364	-5040	-960	-2332	2724	-2425	-15832	8168	9512	5636	-24415	31137	-12528	5544	-7612	-14056	-32768	-9982	-9928	-3896	-5592	-11668	-9561	-87	120	123	1
-6588	-7872	12012	650	594	4362	-16372	-2248	1236	-934	11486	-3564	-14000	-2456	-2104	-2505	3709	-1339	-16152	11664	11784	4496	-23104	31236	-14872	4476	-7852	-16740	-32768	-10661	-8892	-5704	-5716	-1499	-4034	969	119	131	1
-6616	-7924	12416	-17	559	5054	-17656	-2064	-508	-1178	10878	-4256	-14488	-1396	-3944	-2689	4189	-662	-19768	12396	16484	4353	-22333	32767	-15232	4284	-7956	-16573	-32768	-10913	-7272	-5896	-6476	9600	2094	3783	118	126	1
-6868	-7456	12452	-763	821	5970	-17808	-1176	-2096	-2639	10161	-4005	-14588	348	-6060	-4579	5231	-1133	-26272	16188	20464	5608	-24966	32767	-22240	6944	-8928	-12595	-32768	-12469	-6320	-4284	-6876	15525	8267	4603	118	125	1
-7552	-6988	12564	-1698	2117	6205	-17416	-2156	-2916	-4861	9441	-4037	-14192	112	-6388	-6021	5601	-1658	-31336	17304	20168	5023	-26949	32767	-26900	9528	-8784	-11638	-32768	-11866	-5984	-544	-5500	5926	10403	4875	117	125	1
-7868	-7312	12912	-2107	4457	4469	-17544	-2104	-2624	-4338	8853	-3321	-14440	-1176	-5364	-6085	6502	-2105	-32768	9068	16512	7426	-25867	32703	-27924	2028	-10588	-10572	-32768	-9205	-7612	2436	8	-10769	4577	6909	116	129	1
-7956	-6120	13016	-931	7195	5225	-17684	-1516	-2244	-3957	8934	-3425	-16140	-2536	-2436	-6009	6685	-1755	-32768	-4476	15388	19082	-18604	28105	-26324	5576	-13888	3427	-32768	-8216	-20764	2736	8044	-20736	-9711	4614	110	129	1
-7900	-6616	12528	-1037	8644	5043	-16520	-2396	-720	-3514	9724	-3262	-15548	-3988	1036	-4791	6367	-1895	-32768	-8688	11072	12863	-16589	19430	-21204	7024	-18824	-396	-29705	-5809	-28220	-4644	21772	-12877	-18138	1380	115	129	1
-8408	-7320	12496	-1367	9826	5664	-17348	-3268	184	-2383	11005	-3139	-16324	-5132	3428	-3231	6888	-1138	-32768	-22380	-4200	6701	-18037	5491	-10624	8240	-21456	13920	-16064	28	-18316	-2912	28420	1449	-7163	2541	119	136	1
-8692	-7512	12264	-1359	11736	7271	-18528	-2544	896	-2013	12495	-3282	-18012	-4456	4316	-3962	7747	96	-32768	-32768	-17876	15337	-11498	-7730	-1124	9664	-21320	5343	-41	5235	-13768	-1012	26812	597	14130	4812	115	129	1
-9432	-8248	12372	-551	14171	9209	-19092	-2080	808	-3010	14105	-3957	-19024	-1308	4164	-5153	5867	640	-32768	-672	-10456	348	8326	-13879	-9508	6656	-19788	-5461	11911	6644	-16324	-2056	7328	-5462	11516	-844	90	122	1
-9264	-10688	12264	1884	16811	11133	-20736	-1328	1048	-3069	15615	-4759	-19176	3660	5972	-6715	2940	392	-22236	2916	10640	-25803	7820	-4912	-16364	-1340	-9840	-6483	19299	9279	-12408	-3780	-108	-7932	4597	-64	102	125	1
-6308	8336	16808	-98	19126	18309	-23268	-236	872	-4974	17391	-4586	-20552	8048	10032	-11607	-744	1634	32767	8864	32767	-9726	24012	3611	-32768	-22328	26652	-25707	8534	511	-14416	1820	-15856	5518	8483	-1163	129	117	1
-10028	-10144	14064	2081	27821	17878	-29080	1452	6076	-13428	20782	-4862	-25016	6136	20196	-7827	-9443	4794	-32768	-24680	32767	-7847	23722	-27606	-15344	4336	-27988	-32768	16499	10868	-32768	3028	7652	-32768	-7828	-3073	138	127	1
-9464	-12228	14636	626	32767	25523	-32768	2580	12548	-16667	23135	-4009	-25056	1740	11304	-8843	-7955	6632	-4000	28408	10300	-2034	6783	-2599	-28312	4472	-2580	-4156	16099	10590	-3884	-21888	16812	-32768	1289	6814	137	150	1
-15088	-16636	20096	1304	32767	32767	-32768	6548	11824	-12740	22380	-6106	-29016	6952	11284	-11615	-12558	7891	-148	29488	7120	-4184	8801	-1886	-10944	8212	-1816	-6030	14084	8958	-5172	-4740	-11956	26688	31545	14767	152	140	1
-25424	-12712	15804	-11461	32767	32767	-27764	4116	3160	-23260	24205	-3023	-24368	128	6600	-24680	-16867	8422	-11468	15956	8944	-7500	463	-5453	-12336	6168	-3168	9337	9430	7776	-1364	6332	-13396	30648	5066	13247	140	116	1
-32768	-26396	25920	-12261	30889	32767	-29848	-19988	1528	-16393	22666	-267	-26832	-9204	-7212	-24422	-14879	6441	-7748	4736	14512	-6351	-867	-6317	-19344	3732	-2620	16177	7316	5601	-17348	29860	-7064	8078	2399	4842	118	141	1
-22128	-21820	19556	-18841	9473	32767	-22696	-5748	5132	-141	15475	-4321	-27660	-6196	-11664	-18830	-15338	-1033	-8840	2732	15016	-2294	-1400	-3910	-19712	5040	-5056	10744	7041	5347	-21656	8664	-4740	-3855	19102	7078	116	137	1
-17380	-25316	26052	-9033	1553	32767	-13600	-1496	-7724	751	6401	-1769	-26236	1824	-8764	-6339	-19074	-2616	-7736	6628	13776	-1362	1313	-694	-15380	6556	-2760	-8750	6988	2214	-16124	-3528	-5132	-4814	12816	-1136	129	144	1
-25736	-32768	30836	-12969	-25065	7113	-11652	-8400	-7172	-16900	4501	889	-22788	1148	-6008	924	-22704	-3206	-8444	7476	12628	-1164	2121	-406	-17624	500	-1064	-5688	6138	1545	-11164	4136	-3620	-4658	13981	-1392	140	126	1
-416	-29952	2232	227	-32768	-13788	-11016	-2168	5760	-7633	-1544	-1205	-23480	-44	-4236	-1081	-23127	-2989	-8052	7888	12624	-662	1401	-1707	-16044	652	420	12117	4843	2739	-18796	636	-2556	-2687	13676	5018	145	139	1
3912	-11372	-1052	6628	-29353	-16219	-10176	-444	3424	768	-9638	-914	-20836	-3188	-5024	-234	-21553	-3175	-8144	7168	12872	-616	1491	-2934	-16668	5744	20	18951	4559	2719	-18168	356	1492	7373	13106	6580	124	139	1
4620	-4176	716	-9873	-22074	-18713	-8980	616	480	3737	-16937	1802	-16408	-5584	-6348	3644	-20041	-2944	-8688	5776	13180	-219	984	-2369	-15620	5256	-328	6288	4689	2273	-13052	-772	1992	10149	12969	6968	130	96	1
-1216	-16708	5316	-19940	-18028	-25371	-9976	-264	12	6666	-22047	2590	-16300	-3212	-6276	6711	-18515	-497	-8164	6756	13012	-80	1808	-2040	-16000	1156	940	5500	5235	1279	-15020	-2440	2028	8045	12375	4682	139	116	1
-5892	-19960	9276	-12641	-18895	-32768	-9960	-1320	-184	7231	-26386	4579	-14004	-4388	-7264	10322	-17730	-1121	-8552	7396	12560	-42	1816	-2668	-15840	4988	1188	7310	5783	2206	-15908	-1008	84	3720	12922	5520	145	110	1
-4444	-9476	10972	-9829	-20231	-32768	-11488	-984	-868	12051	-31118	4812	-12780	-5768	-8160	13717	-15668	-1852	-8436	7444	12340	-257	1631	-3157	-15892	5124	1192	6709	5931	2129	-17720	1608	404	3492	10503	6245	139	117	1
-5972	-7716	13008	-15353	-20481	-32768	-11868	1052	-1692	12992	-32768	8425	-10708	-4296	-9188	16048	-12969	-2043	-8896	6720	12604	-231	1596	-3377	-15556	2744	-652	4077	7524	2498	-17860	5656	-340	5919	6561	4801	130	122	1
-10544	-12144	17312	-17294	-22958	-32768	-13388	1856	-2504	10206	-32768	10470	-7616	-2708	-11440	20093	-9525	-378	-8288	6536	12800	-99	1813	-3361	-16164	3008	-1532	2879	8274	2485	-17632	5228	-2760	1526	5056	3559	134	126	1
-12028	-12068	18616	-15326	-25054	-32768	-16484	1556	-3632	8725	-32768	13342	-4276	-252	-12648	21966	-6131	1185	-8624	6188	12824	71	2908	-3212	-16084	2548	-2388	2182	8685	2841	-14740	1740	-3124	459	6171	2873	144	120	1
-14656	-13240	21696	-16244	-25715	-32768	-19680	824	-4776	6850	-32768	16234	-4588	652	-13584	16349	-2601	800	-8712	6520	12952	479	3795	-3345	-16292	2664	-3060	3112	8910	2923	-13516	244	-3104	3204	7765	2344	148	128	1
-18512	-19556	24596	-15945	-25571	-32768	-27164	-820	-4848	5322	-32768	16959	-6564	1892	-14240	5393	1262	2691	-8920	6184	13128	1022	4696	-3390	-16912	3032	-3500	2429	9098	2743	-15576	1452	-4536	3289	7435	2027	150	131	1
-28328	-25584	28852	-12394	-22940	-32768	-32768	-3296	-6232	2949	-32768	18989	-6620	2132	-9828	-695	5415	998	-9404	7136	13804	664	6497	-3758	-18072	3072	-3892	1614	9166	2701	-16888	2720	-4988	3149	7204	1826	144	130	1
-32768	-13584	30968	-10474	-19634	-32768	-32768	-9568	-9948	-2442	-32768	20786	-9424	-1176	2568	3373	-667	-2509	-9812	7100	13392	-137	9698	-4301	-19196	1776	-2252	2731	9723	2801	-20232	3388	-1304	3054	7355	1851	138	126	1
-32768	-6676	17248	-11629	-21621	-32768	-32768	-19320	-16728	13196	-32768	14326	-10748	-1968	3916	5193	-2801	-3169	-9560	6612	13668	-522	11674	-4736	-16988	3724	-904	1523	11270	3054	-18392	1320	3804	2515	6915	2874	135	117	1
-32768	20088	-2448	-5915	-10733	-29164	-25196	-7328	-26236	10920	-28940	7907	-26204	-5348	32767	15358	-6769	-12537	-10596	8712	12968	-585	15021	-6153	-18324	2680	-180	356	13395	2994	-18724	-2284	4480	2933	5974	2922	137	117	1
-32768	32767	-9332	-10070	4056	-14298	-7472	-10580	-31720	-5172	-7269	-915	-15828	25740	32767	17854	8062	-1297	-10292	4924	13896	-1681	16905	-7080	-17904	2160	-1112	-1461	15225	3474	-17692	1112	4716	3621	7047	1436	133	128	1
-32768	32767	-4016	-1855	11056	1233	-10496	-20232	-29260	5082	13044	-9519	-19996	23344	23676	20076	17837	1687	-11548	7104	13116	-2605	21010	-7754	-18996	2988	152	-2088	17439	3262	-20208	5116	3920	5120	7247	293	145	126	1
-32768	3020	-2960	32767	31868	17354	-17100	-10896	-18436	25521	23162	-12773	-18820	2004	5884	-2956	2221	9407	-12296	8580	12092	-2380	25460	-10820	-20976	2636	756	131	19009	4453	-21044	1432	4372	7149	4770	-255	149	125	1
19820	-23572	20536	31691	31362	8366	-27088	13164	32767	32767	24255	-15851	-4324	364	2624	1613	5929	216	-12688	9236	12896	43	29338	-15872	-22712	1232	1516	5472	20205	5755	-20580	-1820	7132	10870	978	-1249	144	125	1
21208	27764	3136	-6167	24083	32767	-32284	27184	19976	9502	-2195	7684	1780	-13204	-32768	-28095	24505	-18784	-12980	10700	12984	1456	32767	-22560	-31588	-460	1940	10162	20317	4752	-26164	-5460	12612	11372	-6744	-2870	128	127	1
-32768	-3972	14736	26767	31338	20518	-7384	-6312	-16976	1441	14438	-17375	-32768	-7396	17460	32767	-25563	7794	-17340	13836	14532	4318	32767	-30468	-28732	-1764	8508	24069	21707	5319	-23612	-8700	11752	10044	-13667	-8039	132	124	1
-6400	-9104	15956	11318	7958	5219	-32768	-6436	-820	9081	16417	-15627	-32768	19600	2588	6683	13751	-11663	-31768	16368	17668	1553	32767	-32768	-25932	9392	-3156	12552	22098	5982	-19924	-9608	1560	14410	-10863	-5717	136	138	1
-10204	-6276	15068	6576	2956	3567	-9700	792	-2460	4081	13144	-9983	6932	3320	-8600	-32768	31171	-18157	-29716	5684	19624	12048	32767	-32768	-24512	5928	260	15373	24587	5196	-23176	8040	-1112	23452	-16705	-3658	143	142	1
-9544	-7668	14316	6298	14	2216	-16492	-564	-1520	-6703	11155	-8298	-4824	-13688	-24988	-27090	2704	-1237	-28004	25784	18016	13220	25514	-32768	-23256	15384	-2292	647	19304	4407	-26784	10324	-13388	32767	-15526	-3149	118	139	1
-8328	-8784	12420	3040	270	2062	-17392	-1040	172	-7712	9568	-6008	-23964	-22076	-2936	14667	2587	1679	-16992	14876	16164	7496	18937	-32768	-18008	7692	-9700	-11222	16412	5984	-26924	4780	-16752	17609	-19007	4869	126	131	1
-6828	-6664	13632	1744	-51	1411	-19204	-2040	32	-9775	8841	-5432	-22144	-6164	-776	12379	9601	-5074	-32768	32767	26496	7723	-1525	-14951	-17156	5112	-13256	6932	10926	1543	-26552	2236	-12540	-3546	-28163	5348	112	133	1
-6684	-8168	12416	1163	536	595	-17976	-4248	1904	-3939	7808	-4625	-14104	6160	-1216	440	12905	-6285	-9304	25880	12536	-5379	-17960	1293	-10960	5212	-2936	18128	3846	2747	-24832	-220	-7340	-7563	-29018	2069	146	123	1
-6644	-7752	12348	774	349	636	-16924	-3232	720	4774	5975	-3648	-10800	-2636	-1788	-4333	12019	-3759	-568	10452	5404	-7447	-21907	6245	-7560	3912	-1648	10204	-2375	2961	-20832	-1720	-6412	-1273	-26396	2823	136	101	1
-6356	-7360	12820	391	565	499	-17580	1104	1556	696	5650	-3304	-17236	-4900	-5308	-764	12052	-409	708	3804	4384	2165	-19789	8769	-5412	3580	-2592	807	-7677	2096	-17708	484	-6440	-3148	-22693	2932	153	123	1
-6464	-8036	12224	270	361	1519	-16700	1312	2188	-7415	5280	-3136	-20148	1944	-1640	-3222	13549	-4213	-2536	8804	6124	10945	-19700	12810	-6360	3276	-3136	-7253	-12911	1055	-12712	728	-5964	-4734	-19867	2446	132	105	1
-7116	-7292	12680	267	522	2046	-17544	-1716	404	-11680	5144	-2550	-14700	1900	88	-11711	14476	-4807	-4388	13912	7808	9951	-22514	17199	-7008	1724	-3160	-7653	-18412	689	-13344	-1428	-6940	-6396	-17835	380	132	138	1
-6612	-6584	12816	-100	1269	1635	-17204	-1548	472	-4184	4315	-2088	-14344	476	-988	-11457	14274	-3687	-3236	9724	7864	7299	-23128	21861	-8552	-900	-3264	-6925	-23343	445	-12288	-1920	-6344	-6157	-18033	-587	126	132	1
-7188	-7556	12264	-942	1243	1418	-15420	-268	2288	-4331	4730	-2101	-15244	-584	-440	-8738	10889	-3042	-3148	5772	9736	10630	-21557	27321	-8512	-1224	-3824	-5822	-27434	-690	-11740	-1116	-6824	-6503	-17255	-1000	136	121	1
-7112	-7972	11980	-139	509	2376	-15292	-1900	2892	-6094	5392	-2279	-15908	-2268	1904	-8061	9645	-3849	-7480	7512	13632	13042	-21211	30885	-9572	376	-4840	-7126	-31758	-1924	-11052	-12	-7984	-8670	-15105	-1804	121	110	1
-7004	-7448	12272	253	-79	3308	-16080	-1224	2152	-5179	5993	-2630	-15884	-1372	3312	-3340	11071	-4161	-12004	6888	17724	11984	-24782	32424	-11116	1164	-5760	-8752	-32768	-3388	-10228	968	-8580	-9983	-12441	-2247	124	117	1
-6804	-6572	12640	326	-337	3600	-16184	-1196	1360	-4431	6799	-2644	-15932	-1072	2052	1583	9049	-5423	-13452	5508	20128	12566	-29621	32617	-13208	536	-7276	-9569	-32768	-5913	-8496	448	-9396	-11094	-8836	-1615	60	121	1
-7200	-7296	12416	509	-120	3691	-16588	-1012	1280	-3214	7647	-2725	-16032	-2312	-256	-1988	6015	-4838	-15376	6092	22244	13880	-32344	32285	-16384	772	-8144	-9810	-32768	-8454	-7064	772	-10784	-9998	-5258	-584	135	130	1
-6528	-7180	12732	124	93	3909	-16708	-1812	580	-2240	8127	-3186	-16300	-4872	616	-1230	6196	-2901	-19856	8804	27112	13543	-32768	32761	-20372	1552	-11032	-9883	-32768	-11970	-7020	1340	-11624	-5503	-1634	722	132	134	1
-6660	-7380	12760	-779	582	4425	-17896	-1452	-196	-801	8441	-3317	-16872	-3940	-1116	755	7230	-2695	-24216	8692	29248	12505	-32768	32767	-25268	-1904	-12920	-4506	-32768	-15241	-7620	2048	-10608	1805	2561	1415	125	137	1
-7112	-7228	12984	-2606	1138	4792	-17668	-1356	36	-2584	9321	-3260	-16456	-2072	-1556	222	7573	-2601	-32148	1384	30504	13492	-32768	32767	-29040	1468	-15208	5391	-32768	-16427	-8804	2824	-6640	4371	4210	2644	124	141	1
-7160	-5752	12824	-4635	2237	4709	-18356	-1044	24	-1732	10180	-2991	-17560	-1316	-64	-465	7568	-1945	-32768	768	32196	14273	-32768	28047	-32768	14108	-18224	6778	-32768	-16792	-13432	5552	6240	5946	-1253	4892	122	135	1
-8204	-5948	13828	156	8168	6445	-18468	340	-176	-1271	11723	-3096	-18256	-1040	3488	-1858	7717	-1306	-32768	-7160	13868	8410	-32768	17448	-30436	9116	-20584	3351	-32768	-11516	-28852	3596	19580	11094	-14872	6840	122	127	1
-7708	-7288	14004	-487	11661	6917	-18936	-128	320	105	13327	-3590	-18148	2460	4452	-1746	6763	-1157	-32768	-25972	-14268	12783	-28930	4994	-13948	7496	-28532	3736	-23920	-3883	-24696	9292	32767	-9364	5282	5347	128	121	1
-8064	-7600	13920	-750	15158	8377	-19756	684	164	670	15212	-3974	-17924	3420	4564	-2226	6702	-767	-32768	-32768	-22440	16740	-7938	-141	1444	7388	-29164	10115	-1086	2638	-14960	-19028	32767	-19900	11693	4714	134	111	1
-7812	-7068	14100	357	18299	9589	-18912	472	312	903	17540	-4351	-17420	-636	5384	-3612	7144	1002	-32768	-16780	-16244	-12226	9625	-4765	-5652	13704	-27856	-12565	18014	5806	-24396	-24244	13256	-19104	11177	-5036	126	120	1
-9332	-9916	13916	3396	21575	11348	-21140	-464	2056	880	19822	-4585	-19052	-2176	7236	-5798	4654	2823	-15044	6944	24472	-13101	12819	-477	-19448	-5292	5296	-12134	25689	6061	-12024	-6564	-1612	6979	2227	-8796	126	127	1
-11216	-9612	12300	4903	25960	16932	-26844	1800	3092	-5050	21617	-5203	-22052	2688	13888	-11880	-2985	3840	32767	15556	15516	-9881	20851	-24479	-32768	14612	15808	-32768	7891	11985	-10612	-7232	-13620	1412	4041	-5136	131	123	1
-10368	-17012	16572	7343	32767	24447	-32768	1476	13232	-17333	25886	-3490	-29868	3900	27052	3527	-17889	8173	-32768	19644	32767	-20789	23167	-12521	-6160	-8616	-19144	-20439	22045	2846	-28104	15328	18908	-32768	-14753	5921	137	122	1
-19892	-19816	13396	8246	32767	32767	-32768	-324	13560	-12743	24807	-3178	-28404	5388	8112	-9311	-7551	8056	9676	-3460	18888	-12745	3479	-7677	-25236	-400	-1440	-1937	18759	13653	-32588	-48	-10448	-3732	15424	20077	151	142	1
-13444	-8	20180	951	32767	32767	-28788	10796	8128	-17618	25012	-5145	-27640	-96	8396	-17759	-14283	7508	-17184	8744	10796	-7112	4317	-10437	-7016	8192	-9628	8770	14086	8718	972	-18992	-10708	21898	10648	16325	146	117	1
-32768	-27512	25568	-7074	32767	32767	-29352	-14716	-636	-22365	24712	5210	-22588	-8488	-6180	-23085	-12956	6133	-3328	5664	14080	-6557	2221	-6450	-18620	6560	-1820	13368	10717	7451	1464	12888	-14728	32767	4298	3591	131	127	1
-26400	-23040	25508	-11267	10982	32767	-24928	-10936	4544	2032	19116	-3713	-23576	-9784	-8496	-20502	-13311	5344	-11584	6696	13892	-2403	1323	-5551	-17800	7504	-5320	4703	9609	5348	-27564	32767	-5672	-4041	6520	-861	136	143	1
-15480	-25324	16844	-12	3857	32767	-15944	-1052	-4636	4807	10644	-1438	-27004	-1224	-7616	-2296	-17460	-1414	-8948	6292	13552	-1533	1294	-3316	-16660	6592	-4076	1036	8679	3690	-21440	4140	-6312	-13043	13017	5076	128	157	1
-30352	-32244	31748	-1523	-17113	18367	-14364	-7976	-8544	-10294	7834	1581	-23720	56	-7156	2173	-19494	-2083	-8884	7548	13212	-968	1104	-1870	-16040	4788	-2672	2569	7706	1968	-11768	-3952	-2020	-5016	10598	1188	116	139	1
-2884	-30404	6652	-2235	-31731	-9244	-11692	-1676	3672	-6612	3519	2246	-24156	-1764	-3936	1170	-20367	-1465	-8260	7380	12864	-456	1280	-2114	-16312	3812	-1044	6378	6702	1911	-14352	3556	-2088	475	12499	3634	128	147	1
2512	-16104	-2832	8943	-26025	-12981	-10024	-2476	3092	-174	-4733	2938	-23244	-6252	-5168	2008	-20583	-5243	-8140	7256	13032	-251	1707	-2728	-16036	4044	-1488	9166	6113	2242	-19260	2948	-2168	1872	12556	4637	141	137	1
2880	-8192	-1036	2104	-19048	-15580	-8408	-2000	-844	7048	-12269	3813	-18372	-6868	-7164	6458	-18673	-4344	-8292	6456	13232	-72	2075	-2406	-16232	5228	-2164	6295	5282	1770	-16624	-984	-1592	7443	13857	5653	133	122	1
-1148	-13320	2696	-9903	-15698	-23370	-8228	-2152	-1068	11898	-17451	5556	-16556	-4908	-8316	11669	-17952	-3722	-8328	6468	13064	30	2232	-2071	-15744	4124	-2764	3177	4642	1325	-14056	-232	-692	14819	15321	6376	147	104	1
-5016	-19992	5088	-7535	-15586	-31884	-8508	-1640	-328	12480	-22265	7331	-15584	-5004	-8340	16197	-17752	-3379	-8776	7004	12548	11	2004	-2167	-15748	4188	-2184	6699	3951	1239	-13692	3164	-908	17092	16461	5566	152	76	1
-6188	-14428	7044	-3368	-16518	-32768	-9788	-2888	-528	16832	-26766	7667	-13432	-5768	-8804	19925	-16874	-3449	-8684	6908	12436	94	1543	-2618	-15920	4984	-1884	7900	3365	1175	-14648	4064	-1920	15942	16077	5695	141	102	1
-7192	-9548	8448	-7009	-17013	-32768	-10884	-352	-580	19569	-30597	10695	-10080	-5200	-9772	23951	-15642	-3174	-8412	6652	12536	93	1487	-3055	-16252	3556	-1400	7766	3259	1299	-13956	1968	-2716	9532	14190	4623	133	129	1
-9076	-11652	10360	-8835	-17753	-32768	-10336	-1164	-2148	21299	-31858	13439	-6856	-1884	-10968	27308	-11956	-1153	-8264	5912	12808	544	1563	-3120	-15596	3404	-1016	7771	3833	1576	-15780	2064	-688	2605	12394	3465	131	112	1
-13060	-13668	13676	-7990	-21230	-32768	-13348	-1724	-2564	16850	-32768	12883	-6084	2012	-11968	25722	-8232	890	-8320	6660	12596	278	1736	-3152	-15044	3524	-580	7821	4760	1751	-17912	1972	1492	329	11197	3379	134	116	1
-14580	-12848	15648	-9375	-22633	-32768	-16472	-840	-3420	14692	-32768	16433	-5232	2464	-13512	21881	-2818	-663	-8584	6872	12592	420	1691	-3317	-15268	3468	-564	6124	5810	1954	-16328	2112	488	4153	6141	2894	134	118	1
-17140	-15468	19240	-12009	-23776	-32768	-21632	-72	-3832	9165	-32768	18625	-6432	5132	-14140	10516	180	4081	-8960	6540	12712	554	2008	-3351	-16228	3604	-1736	4865	6744	2016	-16816	3024	-844	3593	5081	2428	140	124	1
-21644	-17544	25532	-15486	-24143	-32768	-22352	48	-4116	7999	-32768	18760	-6692	4808	-12592	-1175	2960	4530	-8948	6588	12800	952	3077	-3322	-16876	3624	-2200	4489	7387	1972	-17724	3308	-1056	3648	7488	1966	137	129	1
-32768	-23376	31840	-18007	-26558	-32768	-32768	-5904	-5968	-8365	-32768	20593	-6536	5396	-8056	-3092	2748	2271	-9000	6820	13372	1950	4811	-3868	-17816	2720	-1548	4602	8086	2229	-17508	440	-1280	3596	7964	2290	126	128	1
-32768	-9900	28128	-18355	-29404	-32768	-32768	-10496	-9508	-8795	-32768	15637	-10136	2208	-1096	-963	1595	-2658	-9320	6936	13332	1871	5331	-4107	-18152	3340	-760	4085	9419	2764	-19392	-1268	664	4989	6508	2523	110	124	1
-32768	6840	18376	-25426	-28091	-25593	-32768	-13860	-17528	1591	-32768	12235	-26640	-1564	16748	1739	-13474	-5274	-9188	6344	13936	140	10072	-5333	-17124	3120	-300	1812	11680	2989	-18472	668	5748	5077	5889	2949	125	123	1
-32768	17808	9064	-17803	-18277	-20935	-25484	-6608	-27528	-4347	-28675	6608	-29676	-1072	32767	4782	-19167	-5321	-8936	5644	14496	-370	12834	-5715	-19372	5616	-200	130	13678	2466	-18064	2036	5116	5665	6543	2082	141	119	1
-32768	32767	-5192	-2447	-5708	-11367	-7468	-13796	-32768	-8985	-8338	630	-14844	14020	32767	2050	-331	-9839	-10456	6696	14188	-1333	16382	-6154	-18716	2372	-884	-2139	16007	3402	-18864	5860	3432	5774	8266	843	134	123	1
-32768	32767	-7040	-611	5960	4829	-8132	-16612	-30268	8053	13284	-7295	-16168	11412	22668	9222	16373	-2008	-10896	7864	14252	-2616	20149	-7518	-19660	3980	-496	-2559	18034	3412	-19732	7120	1580	3957	6581	-712	135	126	1
-32768	-348	8012	26040	25962	12630	-19136	-11632	-21500	23084	24576	-12671	-19784	2064	8332	2024	4928	11228	-11652	8304	13164	-2095	24807	-10786	-21440	3200	-608	-1293	19376	4380	-20348	2460	3484	3935	5021	-1327	139	123	1
32767	-32768	32767	32767	31075	6253	-32768	26240	32767	32767	19480	-13071	-8240	-3380	-11136	-2996	13258	3544	-11720	9484	14520	-850	29972	-15029	-23460	2468	1376	4202	20679	4958	-21208	492	8268	8501	2989	-2164	136	133	1
-18224	-964	27808	8135	26230	27272	-20480	5280	-2220	16405	355	-545	-13212	-10660	-30084	-3232	19899	-12230	-12400	10944	13092	-15	32767	-21656	-31064	1596	464	3714	20475	5160	-26976	-2812	12980	7880	-3963	-2735	132	131	1
-32768	-2012	27728	27810	32767	12010	-13556	-15340	-12676	3237	16559	-14545	-30040	-420	19016	32767	-25130	8043	-14532	13796	15216	3984	32767	-29913	-32224	-3688	11512	23712	22079	5502	-25708	-7416	9664	14028	-13219	-7323	119	128	1
-16064	-10700	13076	10186	6111	7393	-32768	-1820	-1348	16055	16599	-7760	-27428	648	18312	32767	-21102	8362	-26236	9332	12048	697	32767	-32768	-28236	7136	-680	11758	22210	6394	-20440	-11844	5096	5027	-14022	-8665	117	134	1
-11836	-6936	14136	9984	4691	971	-12032	-224	-2928	5181	13498	-13142	-796	2828	-7440	-20754	25292	-19308	-32052	1436	21732	12555	32767	-32768	-23492	3896	268	17651	24648	6560	-22036	6268	1564	21063	-18087	-5500	136	137	1
-8112	-9088	13712	7800	538	3030	-16716	1292	-2244	-3456	10603	-8300	-6208	-10412	-19052	-26218	4536	-4827	-31552	28356	22220	16311	31287	-32768	-22564	16076	-1120	8152	19916	3992	-25536	9292	-12900	32767	-17624	-5543	114	139	1
-7692	-5708	14632	3924	230	1820	-18112	936	-580	-8875	10146	-5769	-21276	-17400	-2972	9993	3450	-972	-20016	14952	15924	8384	17603	-32768	-17932	12296	-9300	-11420	17456	6741	-26244	6268	-16516	17947	-18919	2914	116	138	1
-7280	-7624	13244	2254	228	1526	-17528	-2400	220	-11445	9652	-5730	-20324	-6036	80	11898	9026	-3472	-32768	30032	29640	3450	-3175	-18518	-16344	5308	-13476	3813	12041	2052	-27096	3084	-11524	-208	-26893	4006	113	138	1
-6548	-7644	12808	1242	583	557	-17408	-4496	944	-3388	8552	-4491	-15440	5212	-452	503	12144	-4475	-8820	24744	12272	-6233	-19830	-283	-10376	3708	-3012	16286	5208	2574	-26428	64	-7956	-5517	-29224	1825	126	128	1
-5852	-8184	12556	1048	478	581	-17156	-2692	1584	5486	6507	-4423	-11828	288	-1264	-4004	10676	-5047	2800	11344	4148	-6457	-19488	5532	-8444	3392	-1720	8794	-1518	1378	-22380	-1412	-6148	-2312	-27259	1687	130	108	1
-6356	-7496	12528	581	211	694	-17332	1928	1644	962	6288	-4174	-15716	-3796	-1812	-3520	9885	-1509	2656	5684	3336	1316	-14551	9494	-6356	3236	-2668	-54	-7444	665	-19348	1604	-6144	-2739	-22104	3432	145	110	1
-6396	-7832	12628	549	254	915	-16588	-704	1468	-7310	6375	-3413	-18848	-1696	-1840	-4252	12276	-3592	-3172	10884	6760	7647	-13760	15426	-5784	4644	-3920	-9031	-12302	-675	-14700	964	-6228	-4580	-19530	2537	144	114	1
-7056	-7780	12224	1047	95	1412	-16992	-2024	748	-11084	5963	-2356	-15940	-1420	-3076	-10860	13627	-5557	-5936	14836	9380	4935	-18506	21403	-6564	3584	-4176	-11960	-17943	-1552	-13992	-676	-6876	-6119	-17916	1207	131	130	1
-6276	-7224	12752	297	35	1337	-17264	-1724	416	-7060	4888	-2360	-14332	-1992	-3220	-11337	13830	-4292	-5572	8480	10280	2779	-22369	26718	-7696	492	-4012	-12206	-23051	-1990	-13440	-532	-6336	-7438	-17240	563	121	134	1
-5824	-5952	13648	-219	537	1284	-18236	-32	384	-947	4162	-3304	-16172	968	-1252	-8719	13851	-2759	-6068	4908	11820	7686	-24533	31239	-8200	-488	-4296	-9220	-27065	-4089	-12400	344	-6764	-9246	-16668	-358	119	122	1
-6112	-6320	13048	-685	968	1978	-16120	416	1812	-3795	4424	-2065	-15676	2564	472	-8284	11511	-2062	-8252	5616	14076	10224	-26389	32650	-9500	252	-4044	-8135	-31243	-5955	-11608	1100	-7552	-11872	-14767	-1709	122	109	1
-6800	-7548	12252	53	642	3321	-15304	-2232	2400	-10685	5359	-1905	-15992	-1944	2668	-12239	10139	-1849	-12328	5612	17044	9253	-30798	31353	-11124	1256	-5112	-8869	-32768	-7548	-9604	1692	-8556	-15497	-11739	-2407	120	113	1
-6388	-7192	12420	729	-244	4349	-16028	-1936	2516	-8238	6131	-2103	-15888	-4064	2424	-8548	10725	-4436	-11580	1808	18812	9676	-32768	28913	-13348	272	-5936	-7412	-32768	-10209	-7848	1480	-9452	-16076	-8556	-2474	79	118	1
-6892	-7340	12592	553	-294	4626	-16364	-1980	1676	-4906	6929	-2072	-15672	-1560	2156	-2314	10448	-5924	-15744	5176	22716	12208	-32768	27164	-16548	720	-8612	-6642	-32768	-13182	-6972	1864	-10684	-15102	-4868	-1381	136	131	1
-6732	-7276	12884	-52	90	4673	-17176	-1380	940	-1112	7757	-2602	-16480	-2208	3740	2948	9989	-3595	-20068	7860	25924	13827	-32768	28065	-19508	-448	-10244	-1142	-32768	-15819	-6956	936	-11928	-10067	-1104	-186	131	144	1
-6540	-7056	12904	-169	575	5476	-16952	-1364	292	-2569	8616	-2741	-17060	-4788	-256	-2592	7407	-2512	-24508	12488	26316	12483	-32768	30099	-24984	1628	-11648	1807	-32768	-17455	-6372	464	-11852	-3032	4465	786	125	139	1
-6764	-7240	12880	-1185	794	5963	-16868	-2224	-100	-2028	9375	-2826	-16576	-3760	-1836	-486	5697	-2669	-31920	8600	27920	9672	-32768	31701	-30140	3968	-14804	2768	-32768	-17190	-7336	1712	-6976	2541	6923	2009	123	133	1
-7268	-6920	13452	-3193	1398	6486	-18368	-1168	-392	-435	9896	-2752	-18632	-2580	88	332	6937	-2875	-32768	5332	27772	11216	-32768	29586	-32768	14236	-16580	5525	-32768	-15834	-12644	2116	4112	7722	1373	4993	124	130	1
-7412	-4712	14632	1206	7399	7948	-18336	1080	-604	-1505	11282	-3193	-17668	996	2112	-1557	6956	-2623	-32768	-7988	9048	7240	-32768	18857	-29784	11276	-21136	-4818	-32768	-9536	-25524	1228	19432	8414	-14222	6429	113	128	1
-8972	-7432	13292	1329	9639	7474	-15652	2040	-960	-2395	12794	-3467	-17024	5568	3760	-3061	5905	-2058	-32768	-29952	-12068	8469	-21292	8503	-14140	7628	-28980	-4396	-22687	-6121	-29264	5872	32767	-18798	2710	2705	128	111	1
-7752	-6500	14500	480	13625	8675	-19616	-440	-16	1242	15035	-3903	-17104	3892	5284	-2252	6785	-993	-32768	-32768	-23624	7180	-8998	-481	3108	10700	-29080	10882	618	4049	-17132	-24384	32767	-28509	6615	5341	129	107	1
-7792	-6420	14712	2141	16932	9445	-18756	-272	-20	1750	17553	-4057	-17536	-4368	6428	-3753	9018	2179	-32768	-20288	-17968	-11942	14166	-13921	-8428	14000	-27460	-13276	19619	7262	-22796	-25312	14092	-9328	8715	-4976	124	113	1
-8896	-8256	13800	5564	19907	11469	-21264	-332	1724	2124	19910	-4514	-18828	-5240	5116	-4493	6009	3476	9552	17436	32767	-12459	21442	-1918	-29092	-26012	30028	-13394	20942	2321	-14704	-9344	-6312	16989	3093	-9866	122	120	1
-10224	-9416	14508	7004	23754	16970	-25804	1032	3100	-2739	21921	-5081	-21644	-504	11712	-7239	935	3639	12092	-5040	14296	-6174	31758	-32768	-32768	18712	-8876	-28807	14959	17757	-18368	-13568	-3500	-3416	-60	-6424	131	121	1
-10232	-14624	15960	8549	31339	24681	-32768	612	10092	-9872	24996	-4320	-31244	-852	22352	-751	-12547	5814	-32768	32767	32767	-32768	9733	-2138	-12168	12764	-8592	-6331	21238	4993	-15440	17956	11896	-14033	-5191	6403	133	111	1
-14732	-24132	19220	13786	32767	32767	-32768	964	14976	-14696	24808	-3390	-27828	10788	7888	-426	-6782	8765	96	-2288	15488	-11813	7686	-10134	-24580	2672	-7100	-11706	17450	13513	-27364	7180	-17852	3407	16676	16257	157	147	1
-16560	-7920	14816	2813	32767	32767	-29528	6276	5528	-13539	24055	-8281	-25960	10132	9692	-11942	-14174	8303	-23596	6892	12092	-6048	-530	-7016	-7996	6472	-12108	12329	13845	8699	-1584	-10792	-13948	13191	7306	15764	126	122	1
-32768	-19036	21756	-11997	32767	32767	-26384	-6512	2596	-27771	25182	3910	-23940	-7920	-4340	-32768	-13268	8151	-7984	6048	14716	-1173	84	-4658	-20568	5984	-5336	20820	9448	7481	-10772	22076	-7960	19845	11400	4511	124	123	1
-28336	-25348	24200	-5051	14546	32767	-26680	-17648	1908	-8382	19767	-2609	-25516	-10676	-12388	-27339	-14233	2162	-8576	4664	14396	-649	616	-2219	-18272	10068	-3984	5360	8846	4771	-26880	19936	-10076	-12428	10667	5595	127	145	1
-16512	-29940	20592	7904	5744	32767	-16952	-2096	-4244	6271	10709	-3096	-28052	-3568	-10112	-7590	-16953	-5366	-9532	5988	12988	-442	1087	-1358	-15368	4452	-4328	-3671	7576	2816	-16524	-4028	-3284	-8470	12575	3164	126	167	1
-28536	-25284	20332	5198	-6910	21997	-15316	-3316	-9052	-9471	8521	498	-24632	796	-9484	2143	-20102	-3564	-8428	6056	13300	198	1397	-1205	-17304	2844	-3180	2833	6261	1869	-14224	-5684	-4316	-7016	11696	3077	114	148	1
-552	-28976	6220	-4295	-22181	-8126	-11804	-1984	1564	-8551	4507	1998	-24048	1064	-5228	3220	-20616	-2540	-8260	7260	12888	843	1780	-1728	-16288	2884	-384	11262	5281	2079	-16948	3368	-2076	3620	12886	2243	103	153	1
2104	-15388	-1160	2116	-16720	-15148	-9848	-1500	2508	-3311	-3872	1711	-23324	-4440	-4132	1041	-20833	-4980	-8572	7968	12620	958	1577	-2944	-17524	5660	-436	17069	4771	2491	-19012	5120	-520	3255	12646	4069	138	135	1
2468	-9868	-1536	-2712	-11738	-17409	-8616	-3020	540	3023	-11021	1539	-18904	-5868	-6988	3938	-18989	-6044	-8608	6832	12672	1043	1489	-2695	-16248	7992	-1864	8686	4155	1194	-16284	2476	-868	9821	14878	6108	130	126	1
-2364	-14364	3220	-8397	-9186	-22168	-8344	-5408	-1172	12852	-17272	1884	-15868	-4256	-7580	6114	-17650	-5366	-8860	6428	12604	84	1243	-2336	-15320	3932	-2256	4118	3778	159	-14796	2048	420	16254	17155	6625	135	99	1
-5900	-19000	6628	-6177	-10975	-30092	-8224	-4200	-640	17542	-21689	2905	-15700	-7440	-8264	10067	-17393	-6201	-9104	6412	12412	-104	930	-2244	-15788	4268	-2020	6884	3346	65	-13236	4116	1260	17212	17693	6512	138	77	1
-5748	-14244	7844	-3154	-13330	-32768	-9812	-2320	-256	20700	-25944	4631	-13724	-7536	-8788	15537	-17968	-6619	-9008	6820	12308	-409	537	-2652	-15548	4024	-880	7692	3387	415	-14464	1572	1028	15218	18199	6179	144	110	1
-5144	-10096	9004	-6818	-14945	-32768	-9764	-2368	912	23239	-31221	6725	-10996	-6904	-10080	21834	-17372	-5792	-8760	6576	12504	-434	261	-2845	-15332	3040	-32	7220	3903	743	-14080	-724	-624	8140	15027	3650	140	124	1
-11288	-13060	13460	-10838	-18502	-32768	-9092	2500	-1176	24140	-31174	16288	-8152	-4492	-11232	27715	-14491	-3778	-8656	5512	12944	319	822	-2796	-15388	2020	-316	4968	4898	790	-15376	1028	-1564	-515	13173	2326	118	119	1
-12092	-14132	13076	-8647	-21725	-32768	-12772	2072	-2004	15215	-32768	11351	-6740	-672	-12256	32164	-10677	-2019	-8312	4852	13096	-325	1332	-2473	-14936	1928	-804	806	6546	1403	-19300	4792	828	-3890	10172	2050	131	123	1
-12092	-9956	15256	-9825	-23151	-32768	-15164	-16	-3052	15344	-32768	16629	-4828	3596	-13884	30398	-5754	-633	-8932	4864	13072	-64	1515	-1952	-15120	2412	-1732	-930	7763	1783	-16872	3696	-1000	-3260	4933	1600	133	126	1
-16696	-14564	20372	-12380	-25106	-32768	-18672	-1480	-3744	10900	-32768	19334	-6412	6584	-14924	19700	-1508	2915	-8872	6508	12716	232	2167	-2037	-16580	3088	-2644	-885	8149	1928	-15376	-332	-1936	-3939	6098	1534	129	124	1
-23952	-21304	26084	-12101	-29493	-32768	-27732	-3332	-4864	8897	-32768	18777	-5744	6468	-15368	3637	1974	4189	-8824	6576	12928	984	3008	-2649	-17552	2916	-3008	1988	8171	2353	-16500	-1364	-2856	463	8813	1087	135	130	1
-31280	-23492	27196	-13231	-30318	-32768	-32768	-2148	-5132	2039	-32768	19900	-6552	6556	-10304	-3367	3709	2074	-9016	6600	13436	1409	5346	-3760	-18408	3048	-2264	4254	8383	2715	-18224	-904	-3432	2116	8060	2191	130	123	1
-32768	-3804	26760	-14728	-24961	-32768	-32768	-9032	-8964	-3210	-32768	19148	-9456	2908	1044	4165	-2133	-1493	-9328	6352	13808	216	8686	-4488	-19020	2160	-900	3272	9865	3070	-20748	-1648	12	3372	6077	2760	123	114	1
-32768	5304	26312	-13689	-20569	-26293	-32768	-14060	-17768	4001	-32768	14757	-20760	976	15088	5850	-12579	-7132	-9012	5268	14372	159	11178	-4906	-17336	2544	-612	841	11994	3265	-18868	-1208	6748	4288	5410	3398	109	115	1
-32768	16272	13724	-14203	-22032	-23004	-24568	-2660	-28000	-4256	-28974	11549	-29960	-1808	32767	6758	-15013	-9846	-9668	7568	14120	-684	14470	-5477	-19512	2764	-656	-370	14166	3493	-18628	-672	4800	6290	5644	2354	121	113	1
-32768	32767	736	-13863	-14559	-6822	-12032	-19072	-31824	-17065	-10736	-1947	-19648	21744	32767	-2651	2366	-4622	-10200	5604	15688	-1322	17343	-5796	-19248	-652	-924	1075	16500	3978	-18432	5584	4032	7520	7352	503	129	117	1
-32768	32767	-2556	113	786	14285	-8696	-16524	-31496	373	8811	-7521	-12452	14284	25416	885	15417	-1885	-11500	7864	13520	-1680	22034	-8066	-20000	3620	144	-2945	18649	3862	-20336	8376	3616	6381	6507	-467	131	122	1
-32768	14736	1748	32767	19465	17247	-16288	-5104	-17064	13613	24599	-9084	-21872	284	8152	-6042	1099	10573	-11588	8664	13136	-1101	26631	-11680	-22584	1732	40	-154	20124	4954	-20936	2140	4796	6096	3718	-811	135	126	1
32767	-32768	32767	26034	29602	23383	-32768	32767	32767	22072	7799	-6023	-20012	-2712	-10048	-9374	10755	7782	-11012	9348	15972	999	32767	-16624	-26448	2264	812	4654	21135	4877	-24020	-1196	9612	7249	-1937	-2772	130	123	1
-32768	29180	9180	9572	23205	16721	-12512	-12856	-25404	7745	10067	-12166	-26624	-12864	-2444	25760	4619	-5562	-12324	11748	14384	4615	32767	-24738	-32768	-3396	9396	18451	21892	4124	-27640	-1644	11132	9184	-10719	-7278	132	130	1
-20140	-19916	32767	4622	9914	3190	-28280	-13792	6312	13580	20948	-17501	-13140	-5324	5564	23123	-172	188	-19968	18892	14680	2231	32767	-32768	-30008	3248	6172	16055	21662	5335	-23352	-11904	12524	-9746	-15072	-11135	105	136	1
-5732	-13368	4564	6618	7381	3895	-16056	-5388	-2780	17192	14503	-10522	-9612	6184	-11108	-15258	19080	-14039	-32768	5116	17100	4263	32767	-32768	-23952	2412	-6212	15912	23283	6259	-20664	-9784	5304	11596	-15927	-8286	137	136	1
-11880	-5036	16788	10745	2367	2454	-15740	-4840	-5604	-479	12761	-10955	-4756	-5120	-15148	-26401	1979	-7583	-32328	16036	19852	18717	32767	-32768	-23132	12600	-1380	21786	22909	2139	-25800	8568	-5392	32767	-16907	-6371	125	143	1
-9408	-7800	14832	6872	847	2535	-20620	-1036	-3564	-5747	9653	-5090	-18724	-23372	-11420	2925	7786	867	-20952	17752	16804	13938	20701	-32768	-21872	15848	-564	-1649	17036	3389	-27596	9504	-18448	31115	-14141	-47	122	135	1
-6776	-8012	13452	4261	964	1583	-19316	-1064	736	-7870	8580	-3793	-24008	-5428	-2656	11410	12825	-5324	-16868	20684	12408	2448	18651	-32768	-15096	5384	-6620	-9453	11925	1708	-27632	5332	-14036	11565	-20756	5411	123	129	1
-7328	-7896	12860	2493	811	708	-17496	-4480	-232	-2815	7083	-4713	-15188	4336	-2836	4885	10676	-6669	-23468	32767	21284	917	-3655	-22347	-12488	7980	-13864	179	6418	172	-25516	4804	-11680	-4698	-27972	3904	127	127	1
-6296	-7484	12952	1428	955	270	-17196	-2672	772	4389	5761	-3624	-12220	-804	-484	500	10588	-4020	-12044	25520	15156	-6769	-15802	286	-9540	4656	-8592	8080	1142	102	-23068	524	-7060	-6258	-28471	1762	126	124	1
-6296	-7960	12368	748	1169	311	-17328	676	2448	1876	5611	-3365	-15760	-1288	-16	-51	11487	-1501	-6628	13708	8556	-6683	-24696	12434	-7640	2640	-3552	11186	-4427	-384	-20736	1000	-5944	-3174	-23807	2645	139	106	1
-6200	-8780	11724	952	1319	607	-16068	-712	3188	-5135	5771	-2778	-17928	-1892	456	-2074	12046	-4061	-4116	6676	6124	-649	-28297	16728	-5180	5240	-2220	4911	-9934	-1096	-17716	836	-6168	-3669	-20927	2231	139	118	1
-5756	-9220	11172	2271	923	1553	-16336	-1204	3852	-11100	6004	-1887	-15760	-604	936	-7324	12291	-4865	-2904	6360	4788	5052	-28018	16773	-6396	5072	-1564	-6066	-15746	-1913	-13676	2436	-6304	-5746	-18735	2090	120	130	1
-6500	-8696	11996	2796	395	1815	-16276	-2400	2528	-13849	5971	-1427	-14388	-1728	-108	-11049	12730	-4780	-4536	8184	6484	7967	-28394	18413	-6888	2400	-3068	-11634	-20971	-1979	-12392	1552	-7248	-8424	-16217	1244	118	135	1
-6576	-7052	13296	2582	44	1721	-17068	-2412	700	-7591	5206	-2133	-15332	-1008	-868	-11173	13007	-3936	-6400	9484	8012	9016	-28763	23070	-7456	212	-3384	-9535	-25039	-3788	-10976	1552	-7132	-10269	-15887	-262	104	141	1
-6856	-6436	13072	1061	637	463	-16672	-780	336	373	4522	-2412	-15236	624	-20	-11003	13495	-2753	-7564	9432	9244	8660	-28724	28970	-8664	56	-3676	-7320	-28720	-5198	-8472	1692	-7376	-13763	-15118	-289	112	122	1
-6232	-7276	12728	507	896	-13	-16508	4	2080	-1637	4995	-2509	-14892	804	-1096	-10193	13510	-1699	-10008	7996	11196	9482	-28751	32767	-9352	1584	-4184	-7427	-32155	-6328	-7544	2336	-7944	-17731	-13398	-714	120	118	1
-6220	-8080	12160	1284	750	1056	-15888	-1384	3256	-6593	5330	-2510	-15604	-2164	-384	-7890	11977	-3005	-10184	7844	11436	9536	-28662	32767	-10244	2828	-4336	-10406	-32768	-8034	-7004	1992	-8648	-21250	-10072	-1065	117	110	1
-5476	-8220	12036	2815	1256	2930	-8868	-10896	1100	-6137	4628	-9165	-16072	-1876	356	-5494	11307	-6398	-14540	9756	15400	6132	-30511	32767	-13332	3484	-5592	-15485	-32768	-9692	-5924	900	-9776	-21885	-6543	-564	71	115	1
-8060	-8252	11748	92	276	3234	-18888	-1132	820	-4974	6111	-5719	-16192	-1128	1904	3053	9643	-6510	-17268	7728	18224	7544	-30058	32767	-16912	2508	-7776	-15628	-32768	-12860	-6100	-144	-10644	-17344	-3769	220	135	123	1
-7024	-6116	13288	600	1134	3210	-14240	968	388	-4092	6420	-2126	-16120	-4212	1204	-477	7488	-5391	-24036	12080	23320	8819	-31985	32767	-21472	3084	-10312	-11984	-32768	-15799	-6764	-1252	-10164	-5995	890	185	125	128	1
-7420	-7160	12508	632	1411	3102	-16164	-1716	1996	-3874	8152	-3037	-16564	-3692	1708	-259	5548	-4305	-29968	13596	25080	6208	-32482	32767	-27240	124	-12360	-8847	-32768	-17523	-7408	-3096	-6092	4007	3243	-122	115	131	1
-6372	-7572	12860	13	917	4202	-16320	-2512	2076	-2110	8872	-3674	-18076	-1496	3572	805	5440	-3010	-32768	2280	27256	8773	-29727	32767	-29328	7216	-14316	5997	-32768	-18574	-10320	-32	1464	4752	2095	982	107	134	1
-7148	-7700	12652	-603	1550	5473	-17040	-996	2680	-2506	10897	-4032	-17964	-1164	5964	-1549	7404	-2031	-32768	-556	18752	8216	-32768	27909	-31232	20088	-15508	4626	-32768	-12643	-19872	2064	13212	9146	-8895	4600	115	130	1
-6644	-7140	13060	-1219	2479	7471	-16836	-1504	2252	-1980	13104	-4746	-17688	744	6056	-3458	6731	-2383	-32768	-15628	-2636	8260	-32768	9723	-22872	7568	-22748	-4021	-30135	-6162	-28304	1452	18896	9379	-4840	5590	120	136	1
-8844	-5200	14148	-3395	4984	7496	-18644	-188	1052	-477	15292	-5203	-17280	4180	4620	-3967	4650	-3044	-32768	-32768	-16044	20347	-20193	-12	-10000	4428	-26820	11928	-15237	-1362	-21088	-4676	32767	-16183	4398	2801	126	123	1
-7760	-6148	15536	-103	12913	9152	-19924	448	-1036	-352	17545	-5818	-17240	-604	3828	-5823	6148	-538	-32768	-22584	-18432	14227	-3829	-1814	-2544	14260	-26192	6968	4431	5726	-20324	-21976	26260	-17536	10397	2824	126	114	1
-7612	-6928	15268	676	17131	9932	-20640	-124	-388	959	19757	-5797	-17660	-1524	3892	-5852	6341	-333	-32768	-14440	-10036	-10759	9279	-6510	-10588	11152	-23712	-12047	19800	8556	-18460	-11792	12348	-1615	2319	-6401	126	110	1
-8072	-10344	14580	1406	22414	12964	-23572	-956	1324	-687	21300	-6696	-19560	-1128	6436	-7573	2203	2681	-4724	5172	20468	-14004	16173	2957	-21284	-9112	5316	-14412	24107	6430	-9688	2624	-5056	8668	5193	-3588	123	120	1
-11240	-10036	15304	4356	26784	18201	-28796	2008	4496	-8892	23393	-8092	-23568	5100	14796	-12877	-6166	4117	32767	8320	17524	-3728	31077	-11900	-32768	-3248	27352	-32768	6888	6245	756	8056	-24448	11995	18076	7360	128	114	1
-10612	-18496	17468	10226	32767	26392	-32768	224	12640	-18103	26742	-5575	-23548	8884	19828	5429	-11583	7188	-32768	-3204	29328	-12232	30912	-25110	-32768	4580	19640	-32768	7646	9788	-32768	8760	13268	-32768	-18792	5545	129	132	1
-15484	-3824	11760	5271	32767	32767	-32768	5460	10836	-15784	26437	-8272	-29820	11252	10264	-11792	-10399	9163	-15128	20148	16464	-19854	8536	-12866	-27772	10060	-5916	-362	15292	15720	-32768	-20468	-1232	-13901	15837	11506	149	142	1
-19204	2496	17416	-6447	32767	32767	-30672	8644	7636	-29013	26217	-5180	-27184	-2992	6452	-24705	-12985	9422	-16180	672	17020	-5840	1421	-10587	-12724	2128	-10136	7477	14035	7511	108	-7692	-10796	30991	15489	16969	127	123	1
-32768	-28364	32767	-8415	32767	32767	-30084	-20512	728	-26878	24950	3843	-27884	-8996	-8192	-28635	-11969	6227	-10208	2604	15768	-4410	-633	-4872	-15176	3624	-4744	23014	11502	8127	-6540	14160	-17292	25827	3088	5550	127	131	1
-22300	-19656	21624	-11903	12279	32767	-24596	-9644	4544	460	17937	-6089	-28408	-8792	-12108	-19946	-15847	-630	-10020	7060	13108	-2376	-235	-3800	-15888	5644	-4120	23442	10842	7997	-20488	21556	-2924	-3767	9599	2248	127	151	1
-18336	-32768	22420	-3606	1823	32767	-14316	-2284	-7324	7630	7416	-2078	-27720	1080	-9884	-2727	-19992	-3033	-9204	7276	12628	-342	1429	-1474	-17152	8220	-3928	2718	9831	3318	-19556	4204	-6192	-6455	13293	4466	119	141	1
-28204	-32768	32360	-3307	-20086	12107	-11644	-5792	-7012	-13006	5114	-33	-24372	2364	-7372	3782	-22804	-1737	-8600	7344	12432	-673	1580	-723	-16432	5492	-2088	-4306	8484	1766	-12792	1528	-2864	-2090	12105	-208	120	144	1
5052	-29896	1000	-1885	-32218	-14610	-10228	-720	5256	-6431	-1029	-1112	-23680	2504	-2732	-2323	-21616	-1877	-8472	7872	12508	-555	1811	-1799	-17032	2640	-692	23	6738	1243	-15692	5324	-2912	358	14159	2946	120	127	1
7012	-10872	-3836	3200	-21726	-16669	-10348	1600	3296	103	-10340	-284	-24392	976	-4284	-1932	-21820	-3273	-8688	7508	12224	-664	1790	-3354	-16004	3424	-1924	10317	5468	2427	-18372	2980	-2824	305	14186	5336	131	134	1
4460	-5864	400	-12772	-13655	-20136	-7980	-612	-200	2984	-17558	1310	-17460	-3768	-6900	997	-18794	-3458	-8488	5972	13060	-412	1779	-3020	-16844	3872	-3096	7060	4870	2152	-16200	-1112	-2488	5458	15478	6142	143	119	1
-3688	-18880	6276	-18632	-12553	-27103	-8708	-1420	-284	7668	-23025	2336	-15060	-2784	-8052	6787	-18180	-3204	-8508	6232	13048	170	2440	-2288	-16752	2624	-2700	1833	4802	1166	-14492	-2348	128	12955	15464	4499	136	104	1
-5008	-16728	9120	-10620	-14516	-32768	-9204	-948	-168	10842	-27574	1995	-12676	-1064	-7412	9132	-17516	-2709	-9112	6756	12444	277	2533	-2082	-16212	2956	-1760	5929	4637	1275	-14900	288	296	13162	15014	2802	137	98	1
-4460	-7880	11648	-12031	-16054	-32768	-10324	1660	-1780	13377	-32269	3796	-11840	-2084	-8132	9628	-16116	-2701	-9768	7216	11956	360	2394	-2689	-15356	4712	-1064	8666	4584	1781	-15848	608	-672	9579	14303	3758	130	113	1
-7440	-9812	15488	-18784	-18223	-32768	-12100	5796	1344	13697	-32768	11856	-9204	-1704	-9192	10995	-13522	-1512	-8936	6612	12160	264	1878	-3108	-15296	4600	-1268	7093	5057	1802	-14292	2336	-1104	7702	13647	4437	131	98	1
-9860	-11836	18128	-17166	-21022	-32768	-14596	3192	-1976	8782	-32768	7211	-8388	-3168	-10872	15504	-10418	-357	-9100	5792	12844	171	1504	-3370	-15540	2108	-1952	5540	5645	1494	-16124	2272	-1400	3010	12761	4910	134	120	1
-10692	-11784	18832	-17152	-22126	-32768	-17032	1660	-4176	10058	-32768	11336	-5016	-1380	-12416	21602	-7193	72	-9264	5244	12792	-84	1920	-3115	-15240	2436	-2368	4567	6387	1727	-16356	3636	-2856	1372	9121	3858	124	128	1
-14492	-13256	23852	-18483	-25195	-32768	-20356	1056	-4348	7170	-32768	14522	-2440	-4240	-14364	20002	-4187	-1569	-8836	6264	12788	34	2651	-3281	-16316	3132	-2676	2403	6793	1698	-15688	3084	-3580	516	6690	2415	132	127	1
-17764	-17808	26768	-17511	-25687	-32768	-26856	-32	-5240	5100	-32768	15777	-5276	296	-13552	10905	-726	2758	-9108	6312	13272	-145	4663	-3761	-17472	2220	-3544	2504	7027	1539	-16848	2420	-2948	-96	7886	780	149	131	1
-25788	-22116	30424	-15183	-23593	-32768	-32768	96	-9096	4733	-32768	18435	-5028	584	-9696	2815	2511	1995	-9548	5860	13324	284	6519	-3673	-17560	2416	-2896	4442	7524	1554	-17488	2348	-2380	582	9364	865	141	138	1
-32768	-12336	32767	-15943	-20592	-32768	-32768	-7412	-10344	-6811	-32768	21845	-7392	-456	-1584	4727	-396	-728	-10472	7540	12888	435	8957	-3924	-17444	1896	-520	2658	8970	1635	-20904	1748	-100	435	8573	766	127	133	1
-32768	-272	20716	-10845	-20573	-32768	-32768	-19368	-16280	5820	-32768	17024	-23848	-2536	19656	607	-16638	-5342	-9964	6052	13592	-468	10276	-4528	-17212	2632	-124	74	10823	1831	-19980	220	5348	754	7381	1502	113	122	1
-32768	17140	4808	-10048	-20095	-26615	-25632	-6716	-24252	8541	-30876	10339	-30888	-5392	27092	4077	-11502	-14628	-10880	7836	13168	-1079	12959	-5676	-19020	2548	56	619	13050	2349	-19656	-4152	5960	3177	6271	2582	120	104	1
-32768	32767	-6952	-5765	-4544	-9871	-12748	-11112	-30028	-4255	-13957	12	-11968	11180	32767	22458	5866	-2148	-10644	6428	13380	-1930	15667	-7242	-18472	2492	-728	-29	15085	2602	-17384	-2524	4260	4766	6017	1503	113	112	1
-32768	32767	-4920	-2420	47	-196	-5604	-20136	-32768	7313	9283	-4947	-16288	30720	25180	31816	20193	3972	-10788	6680	13720	-2916	19505	-7935	-18948	2360	-592	-1424	17386	1975	-18788	4832	4060	7004	6904	79	127	118	1
-32768	18916	-7888	32767	22637	14821	-15580	-10840	-22032	24805	21609	-10032	-26084	11416	11632	4382	3984	9828	-12096	7820	12684	-2053	24192	-10543	-21404	1676	492	-551	19379	2508	-19204	5612	4000	7240	6919	-144	129	119	1
30104	-32768	32767	32767	27866	4569	-30044	21036	32767	32767	23570	-16600	-13212	136	-6380	-7237	3591	2442	-11684	9656	13552	-17	29128	-14925	-23744	688	2260	3327	20688	3440	-21900	1936	7392	8772	3305	-2436	128	124	1
4364	-12544	10724	2453	19276	30585	-27096	11012	3960	13542	674	3857	-5788	-2164	-25452	-15943	17965	-12913	-12224	10944	12780	1632	32767	-21364	-31984	-1204	2408	5271	20998	2962	-27248	-1584	13228	7465	-4083	-3830	122	127	1
-32768	-2908	20012	24334	32767	11070	-11652	-14992	-14740	-3699	17329	-17967	-32768	-4008	17188	32767	-15917	2504	-18764	10192	16052	5876	32767	-30387	-30836	-2496	13456	27572	22473	2181	-25444	-3444	10320	13082	-12637	-8453	115	129	1
-11340	108	23096	10203	6168	8134	-32768	-6840	-4784	11450	14892	-10884	-31716	10160	-7900	-4342	16373	-9022	-32768	17652	16764	-4152	32767	-32768	-26052	14028	-4868	6198	23466	4274	-21404	-6060	8752	773	-15213	-7650	136	130	1
-15600	-8144	13268	6256	3362	2706	-9624	-1912	-5284	-2369	12355	-10869	712	-2388	-8996	-27925	19943	-18699	-32292	15480	18568	10166	32767	-32768	-26780	10284	-356	8216	26941	-682	-22360	11540	-1524	17376	-15794	-1993	127	138	1
-8160	-6920	15936	4875	741	2097	-19708	-2564	-2484	-5822	9958	-7496	-5128	-21316	-20728	-19756	3128	221	-32768	26220	21376	5739	18273	-32768	-24904	17108	212	-7637	20938	3887	-25940	13968	-14400	24294	-12843	-980	115	147	1
-7920	-8528	12332	3009	653	735	-17852	-2276	-24	-4650	8495	-5593	-23948	-22476	-6356	23979	8278	-1362	-18064	24444	15572	-7310	15328	-32768	-17784	8188	-11664	-20933	18810	3734	-28396	6140	-14888	6764	-19734	3551	97	135	1
-6352	-7116	13420	1709	668	555	-17996	-28	532	-5902	7079	-4509	-22228	4084	-2988	16500	16099	-6841	-30228	32767	25084	-3064	-7589	-8591	-18416	3736	-11856	2823	12638	-367	-26632	1792	-12396	-8756	-27253	3649	93	147	1
-6056	-6728	13284	697	979	564	-17660	-416	1076	-4179	5970	-3897	-20428	9428	-3444	13967	15188	-6933	-6388	21076	11588	-7923	-15516	5131	-11552	3232	-2540	12054	5168	671	-25364	-2872	-8496	-10045	-29426	364	129	124	1
-5748	-7344	12816	-272	1214	872	-16764	-684	2416	-2018	5081	-4046	-11784	476	1480	-7455	11837	-1632	828	7448	5552	-2705	-16782	9308	-7888	2480	-1888	8743	-660	61	-20548	-2472	-6864	-4984	-27862	598	128	121	1
-6076	-8560	11996	-697	1131	856	-16648	-1360	3772	-5100	5225	-2885	-17460	-4400	-188	-8513	12742	-1462	-96	6936	4608	4603	-16683	10444	-5420	4416	-2468	3182	-6485	-1050	-17528	-1492	-7400	-5097	-23794	2206	165	74	1
-6276	-8856	11832	-140	815	1463	-16864	-1500	4444	-8674	5319	-2755	-17812	-2680	544	-9472	13530	-5187	-3112	11120	6304	6606	-19665	11860	-5136	4588	-2872	-4527	-12504	-827	-14804	-1308	-6864	-4544	-20304	1688	87	108	1
-6732	-7864	11920	785	279	2020	-15788	-1916	2776	-11573	5658	-2161	-15148	-1472	1640	-13852	14003	-6858	-4344	11928	7612	5360	-23704	15044	-6176	1460	-3600	-6759	-18181	-945	-13488	-676	-7348	-5367	-18192	537	122	118	1
-5912	-7724	12668	949	362	2164	-16984	-1864	2960	-6722	5316	-2297	-15172	-200	2448	-15100	13015	-4186	-4144	9544	8020	6677	-25609	20976	-7188	-184	-3584	-4105	-22724	-1714	-11900	-440	-7168	-6887	-17504	-434	126	128	1
-6460	-6808	13124	475	553	2608	-15816	328	3316	-3640	5826	-2438	-16236	1196	3876	-12232	10602	-2939	-4628	8416	9324	8352	-25292	26286	-7900	416	-3304	-4536	-27140	-2464	-11256	-368	-7208	-8414	-16143	-747	139	145	1
-6908	-7576	12196	-5	258	2922	-15040	-1352	3188	-4231	7105	-3005	-14920	1236	3276	-8180	9393	-4614	-6840	7972	11568	8305	-25788	29517	-9244	900	-3956	-8005	-31370	-3315	-10404	-84	-8092	-10353	-15077	-2099	126	118	1
-6588	-8028	12312	660	-128	3421	-15532	-2260	2468	-3140	8016	-3515	-14912	-1948	4840	-2639	10657	-3975	-8944	6496	14684	8981	-27015	31489	-10832	744	-5164	-10803	-32768	-5280	-9160	1600	-8064	-11344	-12485	-2984	119	111	1
-6680	-7100	12316	1545	-153	3488	-15576	-2108	2204	-2827	8085	-3400	-16700	-5720	628	-984	8292	-4957	-12540	7604	17988	10848	-28994	32767	-12768	932	-6684	-12558	-32768	-8291	-8200	2344	-9360	-13631	-8888	-2005	118	113	1
-6784	-6924	12812	1212	-113	3521	-17360	-1300	172	-351	9331	-2959	-16160	-4908	-4004	-435	4103	-5555	-15748	9008	21212	10865	-31077	32767	-15904	668	-8056	-11905	-32768	-11370	-7252	1820	-10948	-14293	-4958	-446	124	126	1
-6524	-6880	12880	717	567	4179	-17436	-1580	-824	-1067	8994	-4164	-16036	-3772	-1764	658	5530	-3780	-19284	9944	24716	10438	-32768	32767	-19432	1372	-9332	-10029	-32768	-14208	-7324	1504	-11116	-13974	-4288	-217	121	130	1
-6972	-7244	12980	-366	1111	4891	-17948	-1824	-1312	-3162	9089	-3632	-15180	-2564	-3044	-492	7690	-2800	-24376	13220	27088	8076	-32768	32767	-25188	2192	-11000	-8403	-32768	-17342	-7260	720	-10456	-236	2797	344	118	132	1
-7336	-6984	12928	-1147	1856	5511	-17812	-2608	-1328	-3535	9048	-3354	-15676	-1768	-4024	-1143	7773	-2886	-32768	9100	29608	5806	-31305	32767	-29828	3928	-12464	-2501	-32768	-19133	-8128	2940	-5880	4887	5004	1913	115	133	1
-7544	-6568	13392	-2397	3383	5618	-17836	-1436	-720	-2669	9737	-2934	-17644	-1924	-88	-2321	7751	-2372	-32768	6584	29188	7441	-32768	32423	-32768	15116	-15504	-213	-32768	-18170	-13256	5328	4548	-580	-302	5056	117	137	1
-7004	-6652	14112	365	8578	6823	-17784	-16	-60	-3334	10828	-3487	-17928	-836	4504	-4045	7939	-2007	-32768	-936	12892	5617	-32768	21557	-31368	10648	-18468	-3590	-32768	-12877	-25920	3072	19736	-42	-16181	6472	124	122	1
-7964	-7496	13496	-3	10382	6795	-18140	-788	992	-2419	13037	-3743	-17876	-284	5184	-4238	7902	-2073	-32768	-26872	-12644	12146	-27653	8663	-15888	6252	-25692	6275	-26048	-4885	-27800	3040	32767	-11558	-231	2145	128	123	1
-7896	-7376	13828	556	13691	8464	-19412	-376	284	-925	14921	-4514	-17816	2848	5600	-4716	7124	-846	-32768	-32768	-21888	17704	-10785	89	2016	12800	-26836	14867	-3503	3449	-17240	-23684	32767	-20320	8550	3492	121	114	1
-7880	-6232	14064	883	17473	9863	-19148	-148	16	-93	17450	-4870	-17648	-2640	6024	-6277	8036	1269	-32768	-22492	-14980	-4083	2831	-11199	-6532	16180	-25936	-6787	15797	7174	-24172	-23740	13672	-9228	13173	-3263	123	123	1
-8844	-8424	14580	3451	20689	11975	-21792	-688	1540	617	19612	-5202	-19260	-3412	6304	-7066	5943	2697	-32768	6676	7816	-19791	16314	-6239	-17404	1832	-12012	-14708	26123	9976	-14720	-7468	4544	2620	-949	-9058	123	120	1
-10452	-10360	13608	3312	25565	16935	-25916	1180	2360	-4117	21197	-6646	-21508	2636	11764	-10343	1046	3268	32767	14740	32767	-4552	25699	-1407	-32768	-24920	30100	-24997	12219	3011	-11080	-5384	-5396	-9225	-1518	-7255	127	118	1
-8764	-11608	17336	4637	32767	22493	-32768	4096	9104	-15576	24742	-6098	-27308	5736	22252	-5446	-11407	7087	-32768	-6008	28836	-10931	32767	-27692	-14756	15192	-26556	-32768	21442	13130	-25188	11120	6464	-26478	-5085	6761	132	128	1
-17820	5156	19468	-2110	32767	32767	-32768	176	14292	-17929	25323	-2653	-27368	8820	9576	-12284	-9338	8923	-32	10720	13168	-12092	5132	-6927	-27876	6160	-7480	-13078	20013	14075	-32768	5692	-1232	-10715	9930	15100	127	133	1
-20992	-8404	22240	258	32767	32767	-31892	6944	6784	-14720	24841	-6710	-28900	9036	9592	-13238	-9771	8940	-16884	3384	17616	-10078	7888	-11736	-9220	7920	-8796	3560	15458	10971	-4688	-9344	-9836	16030	12678	15771	126	140	1
-32768	-27268	29248	-13075	32767	32767	-30592	-12796	3712	-24878	26827	4150	-27048	-9112	-2768	-28105	-13725	7540	-6652	9380	11704	-5890	-158	-5070	-16972	488	-4080	23299	12280	8890	2616	4788	-17364	32767	5559	10631	128	116	1
-29604	-25824	28348	-8750	14154	32767	-26836	-14904	3640	-1872	20775	-4588	-26540	-9608	-11420	-16487	-15613	1046	-10220	6424	15312	-3743	-1263	-6947	-18496	8188	-4544	15756	9794	8696	-23960	30052	-3400	7089	6239	3364	129	134	1
-18356	-20744	24408	2202	4351	32767	-16980	-2264	-3324	7483	11124	-2002	-29324	-420	-9168	-3713	-18021	-2121	-9768	6380	13928	-2196	434	-3705	-16724	9860	-5252	762	10341	4617	-25748	30336	-5792	-449	8139	3224	128	158	1
-32768	-31204	27064	396	-11782	25441	-15316	-4372	-10112	-8061	8126	87	-25812	1372	-8580	2189	-20847	-2923	-8708	7012	12840	-1825	1569	-1710	-16024	3960	-4368	-5545	9413	2587	-14428	-5388	-3776	-6878	9639	1306	122	154	1
-1324	-32768	7796	-5314	-32426	-7624	-10456	-2140	2084	-8456	3549	1439	-26352	2376	-6028	2696	-21160	-293	-7996	7176	13132	-892	1591	-1821	-17364	2644	-3372	2903	7705	2387	-12396	2868	-2588	853	13532	1645	119	151	1
4380	-17772	-3876	6206	-26470	-13866	-9984	-116	3296	-5579	-4456	1943	-25076	-2652	-6440	-653	-25484	-3531	-7956	8148	12892	-753	1886	-2271	-15920	4388	-2200	9559	6218	2304	-19540	7316	-3312	1272	12463	4627	140	155	1
5764	-6068	-2404	-847	-16621	-15360	-8180	-216	-276	-15	-12995	2676	-18096	-4984	-7048	3449	-20701	-5397	-8392	7304	12884	-899	1787	-2924	-16564	5116	-2700	9901	5365	2437	-18428	3656	-2876	-588	13706	6927	114	141	1
-1560	-12776	4104	-15134	-12985	-21848	-7544	-3072	-1736	7010	-19180	3768	-16280	-3612	-8752	7848	-18289	-3387	-8360	6436	12980	-724	1851	-2321	-16644	4840	-3872	3856	4912	1522	-17936	2352	-2880	190	13767	7143	127	106	1
-5928	-20344	7148	-12426	-16099	-30691	-7548	-2312	-400	8713	-23654	4215	-14756	-1748	-7792	10920	-17433	-3308	-8344	6280	13116	-217	2120	-1835	-16144	2472	-3516	293	4247	805	-14860	-1108	-2448	9900	15087	5477	137	83	1
-4572	-10836	8760	-8283	-18562	-32768	-9600	-1352	-644	13755	-29028	3890	-13004	-2196	-8284	11660	-16876	-2745	-8700	7028	12488	-58	2197	-2187	-15948	3060	-2940	5715	3498	1556	-14580	1464	-916	12560	16331	4769	146	107	1
-6496	-7500	10876	-14487	-19142	-32768	-9744	-276	-3060	16603	-32584	5311	-10328	-2836	-9140	13492	-15164	-2587	-8788	6648	12588	71	1840	-2710	-15812	3924	-3304	8349	2828	2178	-15028	-708	-548	14865	17080	4753	143	120	1
-8348	-10348	14152	-17666	-21154	-32768	-11496	836	-2124	11476	-32768	10009	-8024	-2708	-10168	16680	-12757	-633	-8640	6272	12620	421	1671	-2901	-15780	3368	-2616	9301	2798	2137	-13764	-844	-1688	14302	15965	3928	130	111	1
-10368	-11016	16936	-16413	-23241	-32768	-14404	2504	-3260	9005	-32768	11224	-6520	-1760	-12076	21464	-9511	1179	-8400	6212	12852	570	1711	-3066	-15656	3584	-1648	9418	3321	2042	-14488	2088	-548	7585	15865	4664	130	107	1
-12748	-11064	19812	-17012	-24077	-32768	-16712	1500	-4540	8206	-32768	15171	-3772	404	-13176	22857	-6045	1709	-8372	6368	12740	685	1945	-3171	-15832	3928	-1332	6287	4233	1885	-16688	2336	-1844	-324	12947	5052	131	115	1
-15684	-14976	22660	-16806	-25008	-32768	-21308	-432	-4732	6301	-32768	16280	-3988	1416	-13840	15667	-2119	1230	-8660	6104	12708	792	2668	-3173	-16008	3036	-1644	3843	5189	1775	-16776	3960	-420	1355	8500	3470	133	117	1
-21060	-21212	25676	-14964	-24939	-32768	-29348	-1832	-5400	7064	-32768	17664	-6296	1904	-12736	4251	2762	3254	-8104	5820	13184	1244	4265	-3723	-16992	2920	-2220	4621	5972	1837	-18344	7540	-992	1855	6287	1982	139	132	1
-32760	-26888	29720	-12227	-22833	-32768	-32768	-5208	-7572	8567	-32768	19279	-5404	448	-5532	98	3234	1832	-8828	6840	13476	668	6698	-4073	-18088	3692	-1192	4672	6963	1780	-18948	6532	32	-590	8626	1500	133	130	1
-32768	-15408	25712	-10101	-19899	-32768	-32768	-16188	-10112	2437	-32768	20868	-11884	-1912	4296	7389	-4751	-2054	-9140	6836	13596	238	8677	-4342	-17356	2972	448	1994	8991	2224	-20740	1980	3932	-1288	8924	1541	130	127	1
-32768	6728	11340	-13169	-21156	-32768	-32768	-16652	-21408	18164	-32768	14043	-32768	-3388	22576	10583	-22851	-9826	-9540	7936	13912	-665	11033	-4514	-16976	2680	700	1749	9397	2238	-20316	-2892	7936	249	7198	2745	121	119	1
-32768	20504	300	-7595	-9185	-26097	-18952	-8512	-25720	2797	-24579	8056	-26308	-256	32767	14032	-9372	-9643	-9928	7660	13996	-1441	13883	-6158	-19560	2232	-400	-449	14128	3095	-19488	-5896	6320	3510	6075	2207	133	113	1
-32768	32767	-3760	-5587	-5488	-5796	-11328	-18972	-28916	-7515	-6112	-2498	-11044	23612	32767	17650	11797	-1665	-9244	5048	15404	-2429	17038	-7218	-19280	4476	-3016	492	16290	2862	-17980	1028	3676	6942	6992	783	131	117	1
-32768	32767	-2328	-2185	-373	11729	-11820	-16368	-29168	5642	12249	-9033	-19760	21724	22132	19441	13383	3759	-10620	7444	14624	-3171	22018	-8366	-21020	1700	-300	-2522	18759	2892	-20768	6372	2240	7469	6582	-481	129	126	1
-32768	-2508	11852	32767	20232	15062	-16324	-6436	-22096	18091	24022	-14606	-18848	3508	2268	-11883	-48	8434	-11128	7932	13296	-1650	27507	-11994	-22108	1472	96	563	20273	4144	-21468	3892	4504	7245	4657	-1156	132	123	1
32767	-32768	32767	28943	27052	3099	-32768	32767	32767	30781	16279	-12130	-2976	1752	-6052	12377	5524	1930	-11088	9748	15288	-107	32767	-16825	-24384	1904	2808	4485	21698	4614	-21180	2948	5436	7709	4050	-1477	112	128	1
-28928	13048	21048	7094	30855	20173	-19532	-4640	-10932	25858	1617	-4701	-14472	-5432	-18312	-4478	19285	-12506	-12624	10668	11404	1892	32767	-24838	-32768	-1780	3236	8027	21317	4626	-26812	-3208	15340	8109	-8053	-4194	121	127	1
-32768	-32768	32767	32767	18863	-2452	-20592	-13632	-4024	3933	16444	-15977	-30692	-3136	14528	32767	-8928	3514	-19968	16944	16164	4510	32767	-32768	-29160	1312	10200	23369	22896	5316	-24040	-8780	13692	5004	-14423	-10373	136	126	1
-11104	-1944	13956	7591	6254	6276	-25332	-4096	-6072	9786	14850	-11018	-24980	18108	-5872	-1050	16584	-12866	-32768	7996	17548	2846	32767	-32768	-25652	8960	-5968	11949	23748	6451	-20456	-8188	2296	14402	-14155	-5412	117	133	1
-10864	-7612	15648	6086	3838	754	-13420	-4372	-3100	-6759	13229	-11434	-3336	-992	-10388	-32768	15563	-11471	-30768	18340	19952	18156	32767	-32768	-25436	10136	308	17700	24880	2234	-24980	13324	-3372	29200	-16552	-3038	114	141	1
-7108	-8632	12916	4275	1751	1053	-17588	1504	-160	-10268	10489	-8035	-8512	-18028	-13816	-12053	1939	-60	-24144	22840	18696	13405	21158	-32768	-23048	15364	-536	-314	19325	4631	-26400	11548	-18036	27912	-14898	-1374	99	139	1
-5848	-8496	13368	2659	898	1266	-18028	-2152	668	-11009	9308	-5737	-22136	-18880	-660	15531	9982	-4594	-21000	25468	8340	-2522	21117	-32768	-16892	3636	-7100	-10519	13813	3213	-27692	2576	-15752	6657	-22750	3760	122	136	1
-7056	-6092	14124	469	1320	150	-18492	-3780	-216	-4236	8320	-5481	-21568	3916	-2748	7842	13404	-5658	-23112	32767	20692	1025	-1748	-20030	-13656	7288	-14440	2216	8787	1247	-25124	1568	-11708	-7879	-29429	3907	99	141	1
-6912	-7948	12556	-201	1399	36	-17752	-5112	440	3116	6387	-4961	-12068	1876	-1408	-992	8494	-4705	-11156	27096	14032	-4504	-11638	5021	-9976	4376	-7224	12148	3090	1984	-23536	-688	-6220	-5711	-29336	1641	128	121	1
-7028	-7824	12580	-67	1552	3	-17104	864	648	911	5628	-3997	-12288	-4172	-1540	-3090	11724	-1852	-5604	14624	7784	-7673	-19798	16053	-6864	3776	-3396	11991	-2423	1080	-21244	-1552	-6416	-1369	-25529	2528	155	117	1
-6308	-8236	12576	-624	1472	891	-16724	-8	2764	-5804	5395	-3226	-18724	-2656	-3048	1677	13051	-3761	-3016	7176	6176	-2347	-23493	20698	-4292	7368	-2940	659	-8223	660	-17800	956	-7356	-2159	-22517	2201	163	78	1
-6256	-8092	12196	22	1527	2179	-16964	-1540	2128	-11151	5199	-2983	-18832	260	608	-3930	12047	-6510	-2080	6144	5248	4337	-25898	20965	-5764	4948	-2144	-9875	-14415	-201	-16000	2704	-7376	-3910	-19982	2698	145	133	1
-6772	-6640	13180	-378	1422	1820	-17392	-4288	28	-6274	4664	-2793	-14376	-1072	-512	-11398	13588	-5637	-1712	7484	5988	7039	-26530	20460	-6268	1100	-1992	-13488	-20303	-537	-14732	912	-8596	-6373	-18153	1656	88	121	1
-6656	-7084	12752	-793	1321	1335	-16984	-844	764	741	4075	-3027	-14436	-1392	-1416	-10619	15774	-4122	-3880	7680	8304	7204	-26486	21644	-6948	168	-4048	-13652	-25496	-2404	-12208	-32	-8148	-7818	-17198	769	133	133	1
-6556	-7280	12336	-1043	1230	1729	-16440	336	1848	-4317	4280	-2047	-15292	-172	-916	-8990	15190	-3448	-8028	7700	12308	9306	-28675	27837	-7828	-992	-5576	-9694	-29486	-4644	-11008	636	-8132	-10689	-16385	526	120	130	1
-6912	-7528	12400	-1308	611	2947	-16156	-1820	1668	-7835	4642	-2712	-15312	132	-1004	-8927	14789	-3404	-8980	7848	12780	10734	-30575	32767	-9300	-1372	-4664	-4123	-32768	-6382	-9696	880	-9152	-13333	-13840	378	109	124	1
-6316	-7692	12188	-1557	266	3715	-16480	-2320	1664	-7109	4955	-2568	-15488	-1860	1484	-8939	11377	-2418	-10296	6268	14424	10094	-30808	32767	-10788	1144	-5080	-7031	-32768	-7284	-7904	928	-10492	-16075	-10639	-690	125	114	1
-6340	-6864	12388	-1024	1116	4332	-15108	-600	2280	-5204	3716	-2041	-15564	-2316	1668	-8264	11698	-2827	-15428	6604	18552	10181	-32415	32767	-13220	2176	-7276	-11759	-32768	-9252	-5788	12	-11164	-16865	-6559	-485	133	120	1
-6940	-7212	12544	-1883	-12	5209	-16720	-1264	1776	-6911	6719	-4067	-16640	-472	2196	-27	10150	-5934	-18912	8016	22360	11574	-32768	32767	-16292	2116	-8544	-11585	-32768	-12247	-4140	692	-12208	-13289	-2106	311	119	121	1
-7324	-7500	12372	-1871	-56	6008	-15748	-2232	1276	-8471	7539	-2826	-17428	-2884	1032	-9675	6821	-3961	-21880	9412	25280	11698	-32768	32767	-21220	2464	-9240	-12379	-32768	-15141	-5068	476	-11204	-4016	2107	1157	123	128	1
-7392	-7448	12212	-2040	-308	5877	-16812	-2716	956	-5981	8157	-3017	-16400	-5960	-524	-5571	5828	-3489	-28984	14176	30792	11848	-32768	32767	-28776	3116	-11508	-11287	-32768	-18161	-5620	452	-8900	3430	6039	1761	125	134	1
-6940	-7076	12936	-4166	1045	4855	-17500	-300	-452	-4726	8974	-2748	-17080	-3176	-412	-2810	7920	-3028	-32768	7228	32767	11763	-32768	32767	-32768	3392	-13604	-689	-32768	-19883	-8644	2924	-2084	687	5915	3434	120	137	1
-8024	-6924	13332	13	6483	6240	-18836	20	-656	-3606	10218	-2698	-17488	100	564	-2462	8032	-2910	-32768	4216	28560	9549	-32768	32706	-32768	12112	-13912	774	-32768	-19065	-19616	3716	17532	-4139	-12606	4329	135	133	1
-7764	-6052	13640	70	10155	6216	-18324	428	-336	-1788	11755	-3254	-17800	948	2148	-3130	7080	-1594	-32768	-13032	2584	4543	-32768	18185	-25752	9216	-22036	3906	-32768	-10318	-32768	656	25484	912	-15205	3631	133	129	1
-8032	-6948	13300	-727	13745	6684	-19004	-168	336	-305	13843	-3406	-18068	1704	5168	-2002	6622	-1372	-32768	-32768	-18076	24002	-21907	649	-3576	8224	-26048	16094	-16153	-376	-16984	-7192	32767	-15405	2565	4949	123	126	1
-8172	-6468	13672	-2171	16753	7995	-18368	632	-564	-58	15925	-3924	-16984	560	5908	-1756	7343	-447	-32768	-24896	-18336	11651	-3667	-6867	1960	15280	-26284	6432	7525	4460	-23704	-29556	26644	-15453	12952	-356	117	118	1
-8524	-7676	14832	-393	20586	8495	-20340	-768	656	1053	18369	-3445	-18532	-3948	4212	-1941	8055	2328	-32768	-9440	-6848	-10605	7304	-11648	-13136	10992	-23068	-2006	22740	8773	-20900	-15732	8496	2532	5494	-8904	86	120	1
-7336	-4472	16060	406	22920	13654	-23272	180	3092	-1008	20150	-4127	-21492	-3660	6136	-6275	5814	3985	-5784	15176	19916	-14767	13735	-1339	-21196	-4768	-816	-5637	26277	9269	-12448	-3964	-1404	12478	-1717	-5714	99	122	1
-11112	-12472	12664	-750	29925	17165	-26072	3124	4644	-8881	22445	-5149	-22216	5120	16156	-10652	-2980	4667	32767	10504	22244	-6115	30021	-6366	-32768	-2044	26068	-32768	11559	5026	7912	7284	-29256	29115	9263	-61	127	107	1
-9996	-17084	13904	2539	32767	23541	-32768	4060	14440	-21150	26343	-2601	-29324	13156	31464	16745	-21423	9321	-32768	1316	32672	-16088	32767	-26892	-16388	6440	-25144	-32768	19189	10396	-32768	22316	27624	-32768	-18474	11518	138	124	1
-16200	-20084	12228	9	32767	32767	-32432	-120	12848	-15883	25488	-783	-27524	7468	2588	-20421	-7152	9054	-4252	24976	11436	-17273	8727	-10385	-25236	6604	-5336	2926	17432	14367	-32768	-22480	-27880	-17466	16705	10892	140	146	1
-30152	-11084	16948	-11236	32767	32767	-25564	-1244	768	-18326	28125	-1586	-24192	-10696	7644	-29478	-12966	6292	-16396	-4208	21228	-13190	3052	-14670	-12308	3432	-10052	7812	13960	10118	4308	-11248	-18104	22568	7885	12715	133	129	1
-32768	-32768	20312	-4341	25958	32767	-32768	-18808	4144	-7622	27056	1656	-27116	-18272	-9668	-22316	-11175	3231	-10688	15592	11348	-9212	3342	-7656	-16432	9776	-3804	24089	10919	9156	-8308	18288	-8616	32767	9728	8349	124	132	1
-23736	-26616	24232	-13656	5635	32767	-23688	-6116	7608	9341	18341	-1040	-28984	-11784	-13204	-5309	-15859	-3417	-9404	3820	15320	-1421	2209	-4508	-19980	5052	-6668	4178	10233	5898	-25224	27576	-5860	-9078	9401	3361	129	148	1
-19296	-29776	23660	-1575	-4028	32767	-16592	-4924	-7012	11205	10607	-526	-26468	-1152	-9740	8656	-20842	-1925	-9420	3220	14076	-648	2665	-1708	-15612	5784	-5984	2817	9618	3888	-19544	356	-7824	-13184	11562	2848	132	154	1
-24104	-32768	25028	-321	-26416	8185	-15268	-8312	-9464	-4841	9383	2800	-26200	3240	-8264	9879	-21899	-1359	-8828	7216	12888	43	2623	-1223	-16792	6132	-2876	1780	7614	2648	-14008	-1828	-3504	-4207	12172	925	113	144	1
-2408	-28068	1988	9772	-32768	-12268	-11124	496	3188	-1496	3288	3050	-25776	1940	-6040	2411	-22433	-435	-8536	8516	12664	597	2536	-2103	-16384	4484	-1156	6787	5814	2457	-15796	5228	-1716	98	12439	2124	118	151	1
4412	-10984	-3244	16441	-27702	-12984	-9564	-1092	2068	1667	-5136	4113	-24884	-3616	-7736	-303	-24846	-5134	-8684	7932	12328	791	2441	-3136	-16708	5860	-2592	11823	4578	2726	-18332	5472	-2188	-1309	13669	4616	134	150	1
3928	-4356	-2240	2145	-20757	-13866	-7432	-960	-2332	5707	-13257	5989	-18732	-6116	-9152	6131	-19969	-5671	-8720	6432	12720	614	2850	-2640	-16516	6828	-3144	5047	3924	1525	-17480	1748	-2844	3778	15210	5744	140	143	1
-2128	-14856	3256	-13527	-18829	-22135	-6508	-2180	-2656	8152	-18649	7930	-16312	-2724	-10252	10688	-18328	-3964	-8832	6768	12524	717	2926	-2350	-16484	3396	-3104	1552	3265	800	-15248	8	-3080	8941	15700	5097	137	86	1
-4556	-21604	2976	-9155	-19461	-32165	-7112	-2584	-260	8504	-23810	7876	-14572	-1396	-9548	14295	-17871	-3308	-9188	6820	12492	635	2977	-2322	-16276	3332	-3216	5783	2540	1114	-14928	2576	-1528	11690	17875	5176	141	71	1
-4112	-11268	4416	-4413	-18830	-32768	-8096	-2460	-980	13908	-29565	7982	-12464	-1312	-9584	13712	-17326	-3495	-9480	6748	11960	871	3119	-2253	-16228	4864	-2764	7854	2172	1100	-14856	3772	-540	13992	18752	5957	142	129	1
-7760	-8660	8428	-11038	-18036	-32768	-9204	-1108	-3180	19081	-30217	9796	-9680	-3424	-11076	15025	-15132	-2138	-8936	7424	12076	975	2356	-2662	-15696	4632	-1408	8334	2085	1096	-14136	1120	-560	12404	17044	4469	126	112	1
-10188	-12580	11880	-13577	-21814	-32768	-10340	-3500	-2192	12011	-32768	10088	-5720	-1704	-12632	20699	-11266	-93	-9384	6836	12020	1216	2240	-2570	-14688	3720	-160	8942	2944	1314	-14072	972	388	5347	14858	3816	136	118	1
-12464	-10192	15276	-11409	-25254	-32768	-11300	-2268	-2088	11922	-32768	9268	-3924	1632	-13348	25169	-7227	1159	-10312	6796	11848	1208	1984	-2812	-14704	4696	240	8588	4107	1640	-16196	620	1996	351	14135	3766	127	110	1
-15140	-10280	19788	-17751	-27042	-32768	-17364	1232	-4544	8218	-32768	16243	-1816	3324	-13332	21272	-3393	2182	-9600	7164	11948	785	2381	-3478	-14868	4972	276	8364	4259	1645	-17456	1940	2664	132	10591	3829	135	114	1
-18604	-17244	23820	-19557	-28832	-32768	-22064	-996	-4752	4370	-32768	17212	-5328	4692	-12852	7938	-411	4416	-9608	6164	12044	-214	3352	-4256	-15084	2972	-444	4463	7067	2205	-18072	4148	1116	2483	6212	3515	139	129	1
-24632	-23284	27420	-16590	-29779	-32768	-31688	-2672	-4872	1488	-32768	17290	-5864	3368	-11552	-2926	4198	3367	-9332	5672	12404	251	4462	-4251	-16176	2624	-1664	3393	8429	2359	-16328	3932	884	1709	6859	1903	139	134	1
-32768	-23792	29344	-15439	-27722	-32768	-32768	-7700	-8144	2060	-32768	18369	-7996	-124	-2912	-2811	350	-880	-9748	6532	13024	421	6447	-4072	-17520	2592	-748	3325	9780	2487	-18672	172	288	1107	7497	941	128	128	1
-32768	-7056	28100	-20956	-26197	-32768	-32768	-16368	-10980	-630	-32768	18178	-14956	-3308	7304	5314	-9545	-6254	-10048	6132	12976	423	8720	-4429	-17564	2552	-592	1047	11541	2818	-19044	-752	1492	221	6358	1449	126	119	1
-32768	4388	16072	-13770	-23206	-32161	-32448	-11944	-20060	14921	-32768	11580	-31892	-2780	22904	4284	-19400	-11243	-10012	6888	13364	137	11590	-4790	-18372	2792	-232	-945	13760	3051	-19244	-1768	5208	2377	5581	2571	104	111	1
-32768	32767	3500	-9323	-9040	-19975	-17296	-7928	-25808	-7219	-19998	5183	-24564	5504	32767	8900	-8671	-5789	-10228	6908	13316	-375	14701	-5839	-18788	2652	-948	-1345	15704	3771	-17880	-564	4756	4106	5590	1791	117	113	1
-32768	32767	2880	-8321	-6310	-2195	-8988	-21436	-30392	-8733	-1586	-3086	-9844	17404	32767	10841	12119	-2291	-10664	6324	12992	-589	18458	-6450	-18236	3648	-1048	-2315	17721	3644	-17988	5200	3560	5205	7372	541	138	119	1
-32768	30464	2252	3834	-482	13267	-11152	-14592	-28168	8019	15841	-8962	-17788	7440	18688	5064	7388	7012	-10748	8368	13076	69	22863	-8982	-21956	3624	64	-1868	19363	4114	-21980	6412	2844	6222	6123	-910	139	123	1
-25204	-10680	12580	32767	20725	17580	-19392	-3896	-14804	9609	25083	-14127	-16800	-1432	2520	-7667	4383	6818	-11728	8736	12200	2913	28360	-13396	-23896	-288	-112	3671	20460	6076	-22104	-484	5492	9443	2158	-1761	125	125	1
32767	-32768	32767	32767	23718	11083	-31472	19272	32767	20641	19694	-14179	20508	-18336	-25740	-32768	25804	-15028	-10844	7996	14024	7623	32767	-18623	-29336	-4080	1332	14711	21090	6067	-23220	-8700	13224	13314	-6225	-3136	129	122	1
2648	-14980	4476	12112	28491	23552	-23316	4468	-2960	29577	-2797	55	-32768	-10836	-16204	32767	3583	262	-12904	13528	14964	8709	32767	-25911	-32768	-1336	10172	25104	22595	4008	-28916	-15796	21224	-2153	-14763	-11120	129	126	1
-32768	-1288	32767	24015	32767	3712	-24652	-11772	-9248	6484	15948	-15200	-26652	12048	23092	32767	-2954	883	-23484	11944	10108	9474	32767	-32768	-25924	852	784	16752	22580	4024	-18368	-8012	8320	15530	-10188	-8208	119	125	1
-24468	-10200	24476	9590	6292	3923	-24236	-2464	-8148	12524	15434	-11349	-17924	28496	796	7576	18919	-16701	-32768	6792	17380	22886	32767	-32768	-25120	12828	-1696	20773	27339	-634	-27220	16444	3720	30415	-15037	-2540	134	148	1
-8464	-5440	16080	4915	3714	2153	-14496	-996	-2660	-6692	14390	-9463	-3056	-4384	-19796	-32768	9806	-10072	-32768	21240	14044	22575	32767	-32768	-29160	26952	448	-1999	20144	2350	-28416	22052	-18432	31135	-11637	-1265	107	140	1
-9900	-8392	13520	3881	807	1697	-16324	-8500	-2720	-7702	11193	-9939	-7068	-25808	-13912	-16318	-911	3370	-20472	16912	20132	11815	9435	-32768	-19100	11552	-9024	-24501	19357	4032	-27828	21316	-19800	25114	-12895	-293	117	138	1
-7592	-7660	14272	2363	570	1843	-19888	-412	-1136	-11377	9453	-4399	-26128	-21540	-4824	15768	16215	-8336	-32768	32767	29132	2667	-8769	-21094	-17524	4528	-13532	-4007	12700	-1744	-29448	3752	-10856	-14449	-29827	1016	139	139	1
-6324	-6280	13508	907	1075	1050	-18152	-6396	-952	-5336	7553	-3181	-19692	7696	-6808	9390	13677	-4800	-9312	26492	12604	-8146	-28686	-2414	-17576	5168	-12432	369	11196	-1907	-27648	-4104	-7800	-13180	-30724	-196	141	127	1
-5976	-7652	12860	250	1247	1284	-17536	-3576	228	2647	4926	-4223	-11716	4388	-1612	-2186	11490	-4878	2272	11788	4256	-10855	-30043	1536	-9272	2448	-928	9386	-3051	-553	-23320	-3360	-6436	-3238	-28882	287	119	127	1
-6108	-7540	12736	-687	1599	1270	-17236	1520	1036	-2288	4560	-2873	-14148	-1996	-2616	-6885	13173	-1780	2496	6184	3332	-3480	-25617	3863	-6156	1600	-1980	3528	-9162	-2623	-18336	0	-6216	-1658	-24742	450	154	114	1
-6628	-7996	12040	-1019	1815	1568	-17148	1244	1212	-3707	4600	-2846	-18748	-3456	-3608	-6678	15973	-3416	-1696	10232	5212	4308	-24026	9862	-5012	3664	-3596	-3833	-14281	-4198	-13992	2460	-7552	-5027	-21413	2252	51	122	1
-7052	-8676	11680	-283	1476	2645	-16604	-2860	2156	-14348	4070	-1848	-16460	-1488	-2352	-12858	16628	-6307	-4220	15728	6100	4337	-25822	17109	-6100	3392	-2884	-4773	-19724	-5206	-12288	3932	-8296	-9745	-18226	2277	135	122	1
-6704	-6504	12884	117	1108	2523	-17368	-2952	336	-8625	3408	-2225	-13780	-2936	-2072	-13828	16017	-4271	-4676	12024	5912	1924	-26812	23216	-7092	2632	-2956	-6457	-24675	-5310	-10884	2200	-7520	-11999	-17416	1137	113	129	1
-6712	-6480	13092	-881	1303	2034	-16432	136	1740	-4525	3366	-1583	-14680	-260	1196	-10260	14263	-2628	-6424	9172	7832	3764	-25380	29254	-7368	2868	-3188	-10093	-28416	-6307	-9736	1508	-7704	-14542	-16541	258	107	126	1
-6964	-7984	12368	-928	889	2872	-15372	-2360	3660	-9586	4406	-1343	-15568	720	2792	-10062	11791	-3558	-11812	10932	11176	4167	-27759	32767	-8820	5484	-4752	-14741	-32157	-7473	-9080	1508	-8240	-17210	-13895	-894	121	115	1
-6864	-7288	12112	247	98	4121	-15264	-3000	3744	-9791	4601	-1541	-15320	-1256	7032	-2016	11753	-5156	-13296	9028	13028	5048	-31654	32767	-11104	3252	-5576	-18597	-32768	-9223	-7880	644	-9360	-20236	-10728	-1992	132	115	1
-6820	-7972	11480	667	-57	4045	-15332	-2692	2832	-5027	6824	-2389	-16800	-4320	4488	-2128	9368	-6568	-14628	7780	14644	8509	-32768	32767	-13164	1348	-6268	-17238	-32768	-11838	-6300	-1384	-10300	-19803	-8021	-2988	127	125	1
-6772	-6820	12864	268	-367	4266	-16292	-72	1272	-823	7913	-3388	-18960	-3996	-1168	-5197	4539	-6224	-15040	7860	15196	9056	-32762	32767	-16244	2504	-8268	-14797	-32768	-13579	-5720	-1656	-11280	-12591	-5551	-3541	125	127	1
-6764	-7668	12784	-656	-224	4567	-17876	-928	880	-4256	8879	-3114	-17472	-3552	896	-1734	7055	-4199	-23292	13640	24444	9943	-32768	32767	-20476	2968	-10008	-12498	-32768	-16087	-5772	-1408	-10496	-737	-1450	-2765	122	129	1
-6952	-7780	12876	-2318	363	5416	-18220	-1352	336	-2915	9307	-3371	-15652	-1212	-1468	-1311	8639	-2116	-26888	10880	27532	8507	-32768	32767	-26828	1344	-10912	-4872	-32768	-18478	-7448	-152	-7296	7579	261	-1631	120	130	1
-7168	-7976	12732	-3703	1208	5984	-18112	-2520	968	-4209	10139	-3496	-17252	-656	-1088	-3978	8340	-3052	-32768	1968	28608	11290	-32768	32767	-30536	9752	-13720	5159	-32768	-19472	-10700	5432	-1140	3617	838	1907	121	126	1
-7112	-8252	13440	-2095	5895	6805	-18688	476	984	-2832	11450	-3240	-19780	-1832	3380	-3832	8025	-3195	-32768	-1908	23376	13562	-32768	24682	-31600	15696	-19472	304	-32768	-16234	-17424	5956	14544	3943	-6801	7708	117	131	1
-7032	-6856	14308	-17	11582	7536	-18692	676	1180	-2092	14200	-4026	-19488	-2096	7632	-3082	8656	-1846	-32768	-12012	4340	10934	-32768	11817	-24200	9292	-24648	7129	-31458	-10902	-26024	2220	25176	3086	-3070	4826	125	119	1
-7676	-7476	13788	-250	16202	8621	-20248	564	1852	175	16825	-4574	-19524	3144	7516	-1627	7453	-1200	-32768	-30164	-16284	15459	-24232	-283	-8908	9740	-29144	11837	-15432	-832	-21384	-6828	32767	-12246	7455	3289	127	121	1
-8700	-7240	14040	-282	21203	10734	-20336	1020	1316	836	19696	-5605	-18820	2776	8148	-1919	7448	-256	-32768	-32768	-18168	17046	-20604	-1779	-396	14644	-28748	6982	6469	5224	-21276	-26280	28524	-16887	8810	-1272	118	114	1
-8300	-8856	14480	1985	25774	13230	-22596	684	2612	537	22475	-5926	-19832	360	8364	-4237	6418	2110	-32768	-16936	-8844	-15260	16866	-12577	-9788	12208	-28048	-12897	24378	8920	-18736	-7848	12992	2244	3900	-8485	117	120	1
-9440	-8972	13412	3480	32321	16942	-25888	3444	2992	-2687	24423	-7308	-20132	3504	11124	-10377	2081	4078	32767	32767	32767	-5602	21712	8925	-32768	-32768	32767	-19141	13248	-1617	364	-11232	-10072	-5333	4332	-7312	93	120	1
-10496	-10012	13092	-2051	32767	23105	-32768	10528	9348	-17296	27733	-7034	-28788	6784	17116	-11819	-10779	7245	-32768	-4580	18096	-14336	32767	-31225	-10424	9256	-29404	-32768	22184	16297	-32768	-3148	12588	-17784	-5587	6836	119	121	1
-12608	-24984	14108	-342	32767	32520	-32768	-200	18656	-26817	27523	553	-27180	8652	2364	-17461	-8638	12331	5788	-2160	25184	-8452	16770	-9858	-26808	-1564	-5000	-9018	20468	14914	-17328	14908	-17448	6829	15263	17543	136	139	1
-23228	15804	18448	-16463	32767	32767	-26616	0	4412	-19579	29037	-5365	-27104	-4448	6272	-25804	-18289	9977	-30112	21600	10820	-12562	13197	-13984	-8380	12572	-12888	12358	14591	12132	-5568	-13668	-14028	19573	6858	14676	154	133	1
-32768	-32768	27936	-11451	32631	32767	-32768	-23104	4528	-14079	27455	3262	-29192	-21052	-10336	-24864	-12427	4873	-1756	2496	14672	-8617	909	-8140	-19184	9904	-3728	15800	12027	9306	-6956	20724	-6056	32767	10163	5912	127	127	1
-22440	-27236	19708	-18250	6266	32767	-23648	-9032	9932	9419	17699	-3247	-26320	-10564	-13824	-6789	-16677	-3014	-10212	8760	13616	-8588	2980	-8600	-19132	7152	-4520	5238	10380	6508	-24628	32316	-8356	-7207	7833	5000	114	134	1
-19912	-32768	24500	-1918	-492	32767	-14236	-5500	-10664	14513	8969	-2084	-28336	-3164	-9516	6158	-21436	-2433	-11200	4188	14372	-3293	2908	-4500	-16256	7604	-5820	629	9776	4080	-21076	2152	-5192	-19380	11072	6035	118	174	1
-19504	-32768	25052	-4086	-29289	2689	-15740	-7736	-9536	-5807	8882	4070	-26456	3272	-8508	9155	-22358	-2374	-10276	5156	13440	-1006	1497	-2498	-15984	3644	-5048	1699	8537	2728	-13100	-6216	-4752	-9034	11973	1881	126	158	1
-2232	-29256	60	9714	-32768	-18776	-10720	988	4104	-950	1274	1288	-27476	4012	-7160	3961	-22998	-681	-8716	6924	13000	7	1645	-2219	-15900	3352	-4720	2369	8215	2525	-14852	508	-3392	-1826	13437	1216	129	141	1
5804	-10612	-3320	15510	-30536	-19379	-8692	104	2548	1743	-7442	3065	-24928	-1340	-8224	1155	-25439	-3465	-8676	7328	12652	697	1399	-2733	-16652	3920	-2160	12283	5470	3258	-17816	3100	-2860	-1730	12469	2127	135	158	1
4220	-1632	-508	-1127	-22921	-18054	-7200	152	-1688	3643	-15547	5780	-19704	-3080	-8788	5595	-21039	-5084	-8660	7000	12616	1198	1009	-3278	-16060	5360	-2036	11243	4562	2964	-16944	-188	-1124	1096	13696	4604	164	139	1
-2752	-14352	6024	-17253	-21661	-24236	-7288	-336	-1936	5850	-21488	6336	-15908	248	-10236	9150	-19896	-1938	-8360	7272	12560	941	1572	-2634	-16376	5776	-1696	5696	4270	1880	-16736	800	264	7548	14883	5547	142	111	1
-4004	-19364	5996	-11793	-23120	-31843	-8076	868	-240	4090	-26739	7120	-13716	936	-9380	11101	-19352	-1408	-9036	7436	12328	324	1638	-2793	-16380	5000	-2364	2940	3707	1544	-15988	4108	-220	11693	16749	7034	131	88	1
-2160	-7284	7356	-9445	-21790	-32768	-10300	1368	-1024	7142	-31899	7093	-12144	-176	-8848	9114	-18029	-587	-8996	7336	12244	66	1848	-2802	-16120	4344	-3220	5294	3128	1309	-15284	4192	-188	13976	20207	7847	135	98	1
-5008	-6432	12284	-15754	-20579	-32768	-11328	420	-2584	12149	-32768	8769	-8816	-528	-9836	9197	-15177	-148	-8884	7100	11952	-185	1990	-3219	-16160	4312	-3020	5662	3084	1208	-13832	1696	-760	16014	19792	6166	139	139	1
-11604	-12164	17928	-18978	-24164	-32768	-12300	-1928	-4208	7380	-32768	8887	-6064	324	-11024	11424	-11532	1815	-9396	6904	12232	215	1356	-3483	-15268	3356	-1024	11168	3168	1690	-13036	148	-136	11253	17056	4112	126	111	1
-11052	-9660	19316	-17099	-27662	-32768	-14948	2688	-3924	7656	-32768	12459	-3916	-912	-12372	14974	-8220	2522	-8660	7364	12148	586	1598	-3922	-15788	5348	228	8199	4263	1952	-17220	2332	1720	6236	15562	3826	120	122	1
-13660	-11012	21792	-19092	-27889	-32768	-18224	1760	-5404	5555	-32768	16545	-1728	-652	-14376	14037	-4976	2091	-8744	6624	12284	197	1951	-3799	-14948	3744	1036	5307	6214	1729	-17900	4084	2784	-273	11923	4004	131	115	1
-18044	-18016	26216	-18859	-28530	-32768	-23664	-1036	-6024	4240	-32768	16502	-4444	-1668	-14840	8356	275	701	-8480	5996	12168	555	2286	-4369	-14844	3688	48	2579	7782	2216	-17068	2372	1376	83	6795	2540	137	124	1
-25388	-25544	28444	-15257	-28041	-32768	-32768	-3464	-5728	5295	-32768	19660	-6172	512	-12456	4111	3848	2661	-8680	5472	13332	-1015	4659	-5063	-16916	1556	-2636	1921	9061	2324	-17036	3240	-432	3202	7184	1585	135	129	1
-32768	-16548	32380	-11602	-23874	-32768	-32768	-4444	-8524	2255	-32768	21930	-6852	-1608	-2284	7649	843	181	-9384	6340	13452	-341	7240	-4902	-18704	2380	-2004	2407	10242	2538	-19344	2216	820	2534	10512	1201	128	128	1
-32768	-4076	27556	-25677	-28289	-32768	-32768	-21108	-18108	6441	-32768	18170	-18636	-4136	13964	10262	-14179	-4767	-9664	6096	13564	-579	9756	-4754	-16636	3628	-828	31	12221	2610	-17752	1176	2900	481	8856	2579	128	120	1
-32768	17116	6688	-16918	-23939	-32768	-25732	-3036	-25044	5883	-30168	6755	-32768	-2464	27292	9723	-20072	-11807	-9516	5884	14216	-875	12519	-5519	-19612	7572	-1132	-2350	13923	2251	-19344	-2172	4096	1488	6305	2843	130	109	1
-32768	32767	-2796	-12846	-5815	-14202	-13264	-14444	-27580	-10556	-14815	452	-12952	15560	32767	8288	363	-1718	-10456	6352	14420	-1518	16424	-6570	-19436	1840	-1328	-1247	16324	3487	-18320	944	5244	5006	8205	1021	122	118	1
-32768	32767	-2296	-10073	-2268	3828	-10768	-21856	-30024	-8922	5412	-5642	-10828	25560	30784	17578	16439	1551	-10560	6400	14548	-2704	21105	-7258	-20008	2736	-560	-2003	18631	3042	-19792	5568	3364	6319	8411	-962	127	127	1
-32768	16088	-40	17075	14807	18524	-13200	-16956	-28328	12145	19284	-12899	-22576	9208	14228	-217	3782	8182	-10464	10188	13384	-2861	26544	-10530	-23580	2488	672	-1163	20416	3969	-23384	3764	3224	5895	4947	-2226	131	127	1
18880	-22116	29960	32767	22118	6925	-27296	20644	29424	32482	24441	-14398	-14548	-300	6264	4423	-2416	4469	-11292	8432	14008	401	32402	-16094	-25224	584	1424	4368	21563	5363	-22216	-168	10368	8290	-795	-3109	131	113	1
16080	-6520	13084	-2128	24156	22988	-32708	14868	11316	29677	2619	1581	-940	-12672	-32768	-27548	23753	-19567	-12292	11108	14392	2741	32767	-23408	-32768	-1544	8872	16497	22543	3554	-30536	-5580	17576	-871	-13586	-5652	136	121	1
-32768	1632	16384	20151	32767	16437	-9376	-3700	-14900	9893	15393	-17991	-32768	-1208	12664	32767	-11882	3217	-17624	19192	13420	3048	32767	-32768	-30612	3672	7516	17118	22470	5746	-23040	-14692	13380	1801	-13712	-10592	126	126	1
-12300	-14128	8424	6684	9446	11934	-32660	5420	-356	2791	14327	-10812	-31068	25684	-8824	6975	16179	-5764	-32768	2604	18576	9675	32767	-32768	-25680	256	-4968	19772	24776	6729	-23396	-3096	7384	15131	-16946	-7757	131	133	1
-18544	-10044	17396	7310	8161	581	-15180	-6960	-3356	-4549	14574	-13768	-1300	3928	-6764	-32768	14259	-10068	-32768	31672	19944	18709	32767	-32768	-26292	20500	-256	26968	22958	-681	-26796	16432	-4896	32767	-14639	-2977	128	139	1
-7712	-10836	11676	7014	2581	3553	-15656	-4804	-3264	-7254	14257	-13415	-11112	-19052	-20716	-31381	1025	-2909	-26376	24488	21664	11777	14419	-32768	-20768	20348	-3904	-15149	19632	6480	-23408	17252	-19044	23410	-13468	1274	115	141	1
-7468	-5948	15208	4670	1553	1497	-18236	-2412	-4	-9405	9724	-6185	-17792	-29408	-1212	7998	10789	-6607	-32768	32767	16476	-651	7623	-32768	-15888	2812	-11340	-13651	16553	832	-27456	7836	-13140	-2606	-22375	4025	124	139	1
-8168	-8920	12448	2546	1499	888	-18280	-4332	-992	-3451	8271	-4319	-21500	396	-5660	15040	13495	-4036	-12544	32767	16140	-4218	-22398	-5059	-15072	4680	-4384	10089	9082	-436	-27468	-568	-10840	-15024	-27998	2358	105	141	1
-6688	-7252	13100	1017	1451	507	-18180	-3496	-560	3716	6297	-4625	-15084	6468	-2464	4497	10662	-3741	-556	17952	6792	-13383	-21370	2989	-10356	3064	-1372	5920	1310	603	-24408	-4108	-6528	-9243	-30157	-970	125	133	1
-7200	-6812	13236	-55	1637	453	-17956	1908	-60	-457	5590	-3335	-13804	384	-2644	-2434	12388	-2125	3404	7220	3724	-8666	-16586	7731	-7556	1096	-2664	-282	-4473	-1173	-21680	400	-5668	-2327	-26084	1833	171	119	1
-6584	-7288	12700	-431	1458	1418	-16336	1228	1412	-9464	5241	-2628	-17104	-1044	-3012	-1265	14602	-2513	-396	8360	6652	1249	-14358	14137	-5932	4396	-4080	-6077	-9998	-3533	-16844	1624	-6732	-2971	-21243	2816	169	90	1
-6892	-8404	11724	-623	854	2519	-16856	-1700	2204	-16232	5078	-1710	-18184	712	-736	-7725	13908	-4473	-4696	14084	8740	1916	-17990	19552	-6052	3396	-3640	-9774	-16210	-4369	-15908	1404	-8852	-7301	-19306	3632	0	122	1
-7040	-9164	11456	-697	973	2471	-17292	-3748	1424	-13158	4711	-1760	-14932	-856	-684	-14131	14883	-3806	-5772	10660	9636	-1247	-23555	23698	-6512	1884	-4092	-11324	-21621	-4999	-14084	1644	-8564	-11839	-18822	2486	149	121	1
-6660	-6848	12644	-969	1052	1877	-17140	-1588	624	-3903	3857	-2064	-14860	-3760	-88	-11966	16435	-2837	-5944	5572	10272	2407	-26434	27382	-7560	-396	-4068	-11975	-26259	-6204	-11272	-648	-8156	-13383	-17801	1158	109	124	1
-7012	-7920	11928	-1846	1067	2353	-16092	520	2916	-6632	4189	-591	-16328	-2952	1820	-7686	15996	-3164	-8816	5488	12176	7517	-28761	29799	-8392	-672	-4496	-8449	-30381	-7461	-8836	-2628	-7844	-14816	-16005	-974	101	124	1
-7436	-8544	11484	-1314	265	3528	-14980	-3104	3044	-11508	4803	-1587	-14788	-1312	2060	-9194	14222	-2651	-10740	5172	14196	9224	-32023	29849	-10336	-900	-4932	-7266	-32768	-7851	-7916	-3404	-7976	-14479	-13169	-3662	121	120	1
-7100	-8432	11656	-1003	-1057	4520	-16024	-2972	2728	-5885	4883	-1981	-14444	-2332	1744	-7575	13474	-2646	-10996	5072	14424	9417	-32491	29719	-11932	-300	-6512	-8257	-32768	-8919	-6296	-1896	-8840	-13626	-9846	-4921	116	117	1
-6380	-7676	11908	-358	-1037	4932	-16288	-136	2616	-3185	5551	-1647	-15236	-660	4240	298	15100	-4803	-15236	6400	19588	12524	-32768	31157	-14300	276	-7860	-9521	-32768	-11252	-4956	-1216	-10088	-11219	-6132	-4973	127	125	1
-6372	-7536	11976	-439	-888	4988	-16016	-628	1800	-2932	7478	-2741	-17564	624	3540	2335	10390	-5028	-17184	8012	22616	11848	-32768	32767	-17888	44	-9288	-9767	-32768	-13786	-5032	380	-10456	-6800	-1945	-3710	125	131	1
-7160	-7428	12272	-890	-518	5253	-16684	-256	1100	-2084	8627	-3268	-18112	-1260	612	-4915	5595	-4176	-22496	11124	27556	10377	-32768	32767	-22684	1476	-11352	-11838	-32768	-17357	-5352	1584	-9760	-613	1432	-2185	124	130	1
-7608	-7768	12720	-2159	208	5382	-17676	-920	744	-2653	9797	-3283	-18128	-3284	2188	-2546	6648	-2867	-30996	8468	31096	7974	-32768	32767	-26712	2292	-12540	-4741	-32768	-20902	-7388	3288	-6768	236	3305	495	123	126	1
-7552	-7688	12396	-3285	1314	6006	-18408	-2128	1356	-2078	10844	-3150	-17712	-2916	2032	-364	8165	-2208	-32768	824	29556	4444	-32768	32767	-32080	13216	-14488	-1415	-32768	-21306	-10240	7104	108	923	2511	4444	120	129	1
-8600	-9724	12692	-521	5160	7654	-17636	-304	1828	-1554	12021	-3805	-17828	-1656	2508	-1969	7118	-2952	-32768	-220	16336	-2328	-32768	21622	-32388	12380	-18580	-9315	-32768	-19692	-25480	5852	17016	793	-13497	4882	131	136	1
-7748	-7460	13000	1482	9327	8884	-17720	524	812	-463	14735	-4244	-17232	2132	6012	-2452	6087	-3036	-32768	-32352	-4492	8585	-32768	6734	-18164	7772	-27112	4321	-27099	-9919	-28312	488	27200	-8399	965	3217	123	140	1
-8280	-6764	13628	1292	13888	9745	-20368	2044	32	1319	16915	-4972	-18104	4244	6756	-2186	6547	-1570	-32768	-32768	-19844	23083	-15836	-4590	-2568	11036	-25428	21684	-9013	856	-16100	-22792	32767	-24344	8853	498	122	123	1
-7416	-6440	14816	1177	18444	10535	-20680	2096	-436	1245	19579	-5394	-18136	96	5080	-3248	8278	2096	-32768	-15900	-14216	415	2238	-9987	-2100	18912	-26288	6316	11579	5002	-22512	-32768	19728	-10845	9853	-6586	120	127	1
-8020	-8548	14604	3325	23251	13159	-23104	924	1976	1445	21742	-5151	-19912	-2640	5540	-4387	6895	3905	-32768	-14400	-6880	-7674	14242	-16790	-12652	10364	-17092	-8246	25367	9758	-18168	-7952	4844	19116	1088	-10342	125	124	1
-9664	-9344	13496	4611	28746	18825	-25064	1856	3752	-2599	23403	-6160	-20340	1296	10240	-9237	2008	4314	32767	29860	32767	2891	25831	-8263	-32768	-19052	32767	-18096	12966	3026	2256	-6272	-13060	20486	7173	-6781	130	121	1
-10664	-13116	15376	8016	32767	23791	-32768	3356	10624	-12651	25949	-5568	-28740	2736	19736	-6547	-11809	7243	-32768	8516	25832	-19127	32767	-17942	-8892	14616	-20208	-27740	22568	14181	-32768	5316	11576	-20517	-7419	9801	132	131	1
-15652	-20932	12132	5649	32767	32767	-32768	-3392	16208	-15566	25778	-2408	-25872	4540	6276	-8989	-8700	9853	7968	-1464	27576	-8635	16648	-14885	-27836	176	-6300	-18219	18981	14942	-23492	20188	-19612	4704	15071	19918	134	131	1
-28444	-16300	17892	-6412	32767	32767	-27720	2616	4940	-14989	26890	-6719	-26532	-720	9128	-17136	-16510	8225	-30844	15728	11104	-16405	8909	-13175	-8076	12764	-13512	11292	14006	11587	-4620	-11324	-14656	11997	5745	15882	135	138	1
-32768	-32768	26944	-7650	29223	32767	-31936	-16228	6552	-18080	26815	1689	-27632	-17584	-5696	-28701	-12873	5855	-4292	5696	14988	-7192	1539	-7152	-20368	6728	-3696	17587	11107	8713	-10428	20772	-9616	24589	11257	7544	123	135	1
-20956	-28344	20764	-10476	9213	32767	-25160	-9380	8012	-680	19053	-2984	-27044	-11784	-12864	-15622	-15889	-1894	-12356	4720	17932	-6161	2131	-6743	-19016	6960	-5240	6716	9472	7074	-26612	21868	-7676	-13375	8192	5003	118	141	1
-19252	-29420	24416	-1052	3476	32767	-13876	-4196	-10952	11639	9728	-857	-28152	-3280	-10500	937	-18800	-3731	-10976	9368	12972	-1746	2179	-2518	-16732	6956	-7168	1132	8782	4511	-19316	-4400	-6260	-13782	11784	6047	117	170	1
-27364	-32768	29852	-5602	-24541	431	-15876	-9744	-8504	-8549	10121	2562	-25420	1408	-8200	8676	-21850	-3495	-9156	5348	13352	309	2230	-1319	-16376	2392	-4972	3696	7147	3677	-11800	-4248	-5540	-3589	12347	2263	121	142	1
444	-29600	1116	13538	-29632	-19693	-11048	-200	3988	-281	2257	1525	-25984	2680	-4560	3210	-21712	-2873	-8832	6428	12964	1025	2373	-1634	-16700	4916	-3152	8904	5276	3829	-16172	5160	-3964	2357	13744	886	123	135	1
3292	-7712	192	14175	-22252	-18770	-9584	0	2376	3194	-5734	3982	-25580	-4084	-6372	1181	-25370	-4450	-8944	8184	12396	955	2361	-2266	-17332	4712	-1372	11458	4491	3632	-18052	7212	-3468	-829	12971	4844	129	162	1
4048	-2140	580	-3807	-16596	-17701	-9288	96	1732	3392	-6888	4229	-18924	-4192	-7972	6620	-19105	-8024	-9064	7320	12356	871	2036	-2882	-16288	5300	-2200	10394	3354	3111	-17188	1144	-2184	-159	14988	6481	138	144	1
-1928	-15488	3744	-11760	-16114	-20517	-8068	-3184	-1172	10762	-20230	6477	-16160	-1760	-9624	9900	-17795	-4056	-8808	6416	12788	1085	2594	-2294	-16584	4160	-2436	6663	3121	2240	-16316	-1168	-804	6817	14698	6640	136	104	1
-5676	-18912	7492	-5699	-18964	-27279	-8188	-1716	-2088	12524	-25376	6636	-15228	-972	-9400	12641	-18047	-4337	-9160	7096	12208	1048	2614	-2073	-16024	5124	-2312	5904	2632	1677	-14968	2740	1148	15292	16905	6758	102	101	1
-6308	-10884	9944	-8034	-21644	-32768	-9924	-196	-1996	12580	-29277	8085	-13328	-2240	-8824	14778	-17217	-3879	-9152	7640	11732	872	2267	-2344	-16064	5124	-1500	8057	2285	1473	-14408	4236	768	17996	17648	6540	135	64	1
-6216	-9236	10556	-13009	-23021	-32768	-11132	-684	-1408	13052	-32768	8445	-10288	-1468	-9920	17092	-15265	-2298	-9616	7720	11820	429	1760	-3275	-15752	5396	-628	11127	2364	1993	-14384	2676	552	15915	16350	5975	135	132	1
-9880	-10456	13716	-13913	-25339	-32768	-11620	-2460	-2528	9297	-32768	11337	-7848	-840	-11752	21109	-11897	-522	-9640	7296	11824	353	1411	-3727	-14600	4936	536	10711	3336	1692	-14420	2204	1804	11520	14235	5277	133	99	1
-11496	-10420	15884	-15216	-27481	-32768	-14364	496	-3452	8522	-32768	13243	-5324	628	-13596	24996	-8338	435	-8808	7196	11960	394	574	-4150	-15376	4784	592	7495	4564	1832	-16944	2804	2124	4664	14044	4479	120	116	1
-14536	-12724	19192	-18513	-28059	-32768	-17048	372	-4444	6058	-32768	15786	-996	1228	-13876	21776	-4438	-14	-9076	6272	12332	540	1037	-3880	-15844	3196	-112	5229	6060	1689	-15688	3184	1884	-1169	12992	4351	134	113	1
-17636	-17168	22944	-18880	-29051	-32768	-21916	-440	-5000	5257	-32768	16641	-3876	3388	-14400	12473	-448	1998	-8696	6028	12548	1031	2475	-4549	-15296	2388	-500	5971	7491	2475	-19320	1548	-588	3574	6918	4093	136	124	1
-23968	-23532	27372	-18933	-28731	-32768	-31744	-2220	-5304	4040	-32768	16682	-4576	3480	-12880	2544	4729	2595	-9636	5592	13132	-574	4667	-5009	-16836	2752	-2112	2667	8754	2373	-16172	1740	-316	1853	5565	2511	132	130	1
-32768	-26848	29528	-15958	-25941	-32768	-32768	-7120	-9484	3386	-32768	18120	-6964	2976	-5336	-694	4018	386	-9460	5620	13424	-73	7007	-4735	-17932	2184	-1964	2122	9915	2519	-19012	2652	308	1554	7342	625	123	129	1
-32768	-6848	30564	-6331	-15235	-32768	-32768	-6264	-5632	3939	-32768	18156	-14384	-548	6540	6939	-5448	-3245	-9812	6448	12996	-35	9608	-4906	-17816	2476	-880	1279	11441	2929	-18732	1524	1932	541	8000	1219	121	123	1
-32768	6660	32767	-6286	-32768	-27785	-32696	-10040	-23556	12224	-32768	9729	-32768	764	29484	6312	-25557	-9335	-9716	6400	13376	-154	9906	-4980	-17400	3236	-268	78	13695	2999	-17896	-1180	4608	2102	6084	2638	113	117	1
-32768	32767	10492	-20857	-17827	-22105	-28212	-8032	-25104	8865	-32768	5413	-24104	840	32767	11143	-13510	-8838	-10616	7104	13288	-708	14903	-5964	-18316	2960	-1488	-1684	15737	3492	-17156	-2312	5156	2589	5349	2050	127	109	1
-32768	32767	-7692	-11778	-4342	-198	-9056	-21232	-32152	-7076	-493	-4884	-10980	24572	32767	7831	16067	-5313	-10868	6224	13844	-1231	18543	-6757	-18640	2428	-1172	-1906	17849	3534	-18264	5116	4684	5007	8213	-165	124	122	1
-32768	19060	-6988	17353	12180	19322	-11304	-14448	-28928	9087	16764	-11244	-20828	13952	19496	4092	8157	7272	-11672	8196	13828	-930	23928	-8499	-18868	2476	-964	-2042	18260	3524	-22528	6652	3832	5997	7189	-2034	129	126	1
8504	-18076	16804	29875	20817	10516	-23244	11508	17896	26693	26057	-14217	-13708	-3036	-6228	-15326	3471	7618	-11304	9028	13964	2427	30411	-13196	-24988	-124	1244	3111	21689	5595	-22332	32	9124	8108	1207	-2225	132	118	1
21872	-12040	19280	3052	24522	25223	-32768	13668	9840	28207	4093	312	-17236	-16956	-14844	-9074	11186	-4845	-12068	11356	15308	6140	32767	-18993	-32768	-1560	4472	11464	22541	3852	-30408	-6004	16100	4742	-10187	-4004	142	119	1
-32768	5348	22604	15796	32767	16848	-6988	-8516	-14996	8505	18403	-19564	-20280	-3364	7996	32767	-9540	1610	-13316	17640	14224	7210	32767	-29169	-32768	1636	11312	20654	23366	4706	-27736	-12832	19904	-11358	-19425	-12759	117	127	1
-18528	-24768	15100	14394	9639	5992	-13184	-7860	-7548	8579	19338	-20012	-29312	17680	-3252	7198	14403	-2863	-30788	9868	14240	10980	32767	-32768	-25980	-3476	-3916	17423	24101	5249	-22000	-6856	6340	15653	-12270	-7128	125	133	1
-14552	-1660	20132	10931	4953	352	-12968	2996	-4724	2069	15232	-14727	-1640	4056	-11920	-30363	7459	-12313	-32768	27072	17644	19324	32767	-32768	-27516	18160	-2248	27801	25141	-2918	-26820	15348	-4764	32767	-15468	-3146	134	147	1
-7980	-10304	14072	7703	1257	1723	-18704	-2008	-2268	-7983	11837	-9111	-12980	-15516	-19172	-20340	3475	-4005	-26660	22092	19952	11440	19518	-32768	-23292	22384	-160	-17446	18853	5946	-26920	16172	-18328	20919	-14266	658	127	157	1
-7124	-5140	14824	3806	602	1535	-18256	-488	-1460	-11649	10648	-5952	-19804	-20356	-1740	4802	12632	-7376	-21112	28436	16048	2078	9976	-32768	-16560	5128	-11656	-23163	17115	1732	-26824	5732	-13556	-851	-23167	3751	124	131	1
-6612	-6572	13700	1452	890	912	-17860	-3880	-1972	-8224	8786	-5520	-19644	3232	-4708	10413	12139	-3773	-20904	32767	21640	-1232	-21019	-6884	-15704	3344	-8276	5977	9737	-2099	-26652	1372	-9336	-11619	-28566	1224	140	128	1
-6280	-7664	12752	792	1219	439	-17148	-5632	-416	5151	5960	-4890	-13620	2420	-2224	1629	12472	-3057	-4232	20648	9212	-12543	-27680	2212	-14788	3080	-5724	8568	8745	-1375	-24744	-4316	-6928	-8659	-29195	-2198	125	124	1
-6052	-7748	12832	234	1316	695	-18320	1700	2416	4633	5174	-4275	-14684	-2308	112	-2401	12113	-1231	2908	7300	3704	-10207	-25658	3487	-8064	2408	-1356	3679	-4974	-169	-21392	-1796	-5736	-1511	-26328	-687	111	114	1
-6436	-7920	12872	152	1091	1143	-15224	-788	2840	-8717	5837	-3030	-17680	-6300	-432	-1544	13618	-3865	1776	5272	4724	759	-22384	6728	-6932	2844	-3388	-2780	-10684	-2640	-16884	672	-5644	-614	-22111	243	144	107	1
-6800	-9764	11412	694	531	2005	-16336	-2884	3324	-15337	5925	-1556	-17448	-1916	908	-5533	14388	-5683	-2852	11976	7364	5603	-22982	12347	-6280	2156	-3840	-5819	-16270	-4152	-16116	1744	-7824	-3142	-19069	1778	124	127	1
-6316	-8312	12460	1494	299	1989	-17164	-3924	1516	-10522	5477	-2677	-16756	-1372	848	-6899	14419	-5988	-4684	13576	8528	3213	-25500	17915	-7104	1468	-3644	-4656	-21875	-4910	-13940	2540	-8572	-7683	-17933	928	126	123	1
-5680	-6200	13404	795	1055	975	-17952	-1000	-516	2663	4148	-3114	-15332	-1308	-1516	-4467	14240	-3384	-5208	7904	9388	3404	-26923	23367	-7468	464	-3900	-4589	-26278	-5563	-12292	1868	-7500	-9947	-17261	244	110	130	1
-6000	-6576	13428	-761	1478	869	-17312	2284	780	1375	4116	-2487	-15808	1844	-1052	-3220	15867	-1878	-7644	6800	10864	7602	-27748	28388	-7772	1148	-3820	-4680	-29704	-6929	-8560	1096	-7292	-11997	-15623	-837	96	125	1
-6848	-7392	12952	-1573	1475	1715	-15876	-1464	1324	-7557	4503	-2465	-15716	300	868	-7045	14716	-2690	-10172	8060	12264	7224	-30246	29679	-9580	2748	-3868	-7569	-32768	-7632	-7304	936	-7816	-14645	-12810	-2433	104	122	1
-6264	-8156	12008	-730	872	3080	-16748	-4120	2760	-8320	4551	-2538	-15340	-2404	720	-9945	14214	-4440	-11500	5572	13556	7847	-32521	29162	-10432	2032	-5444	-13229	-32768	-8809	-5948	600	-8820	-15907	-9301	-3641	134	123	1
-6444	-7616	12344	-1	878	4358	-17368	940	1404	-5686	3902	-704	-15016	-1800	1312	-5568	13623	-6024	-14776	6788	16760	11975	-32768	31033	-12600	656	-7228	-12778	-32768	-11683	-4516	804	-10104	-15833	-5344	-3827	114	123	1
-5896	-7268	12664	-1296	338	4201	-15956	-1764	1828	-5468	6592	-3954	-17264	-900	4620	1323	10780	-5424	-17372	10848	19968	12754	-32768	32767	-17104	1616	-8220	-9826	-32768	-13701	-4468	100	-10560	-10960	-1690	-2578	128	131	1
-6720	-6824	13060	-2005	240	4738	-16788	-604	536	-5264	7096	-2982	-17372	-2168	608	-6703	6474	-4928	-22068	13696	24600	11038	-32768	32767	-22536	3260	-10132	-8160	-32768	-16450	-5352	-1084	-10224	-2702	1997	-2000	125	129	1
-6736	-7356	12928	-2981	883	5245	-17184	-1500	360	-6592	8085	-2811	-17024	-2980	-128	-5923	5229	-4332	-30020	14476	26104	8210	-32768	32767	-27028	2156	-12088	-5248	-32768	-18526	-7408	488	-6864	2701	2897	-1527	119	130	1
-7888	-6808	13012	-4002	1566	5260	-17576	-2200	924	-5999	9204	-3005	-17500	-2996	900	-5201	6818	-3303	-32768	4352	26796	10009	-31945	32767	-29344	12404	-13752	5376	-32768	-19041	-11996	5268	-1440	-463	1388	2284	123	131	1
-6756	-8664	13168	-954	6559	6561	-18488	-660	1452	-5017	10569	-3096	-18580	-2920	3948	-5446	7649	-2895	-32768	1244	17876	7499	-32768	25156	-32188	18080	-16688	-4677	-32768	-13865	-24612	3972	13824	3091	-12910	6288	124	129	1
-7016	-8072	13480	-891	10290	7011	-17728	-476	2116	-4410	13188	-3512	-17880	-1016	7768	-4913	8295	-2002	-32768	-16892	-5088	9208	-32454	10741	-21324	8480	-26164	774	-28251	-7007	-29164	5608	27820	1987	-6653	4883	121	128	1
-7580	-7524	13616	-1252	14143	8223	-19816	204	1488	-2010	15772	-4037	-19120	2296	7020	-3577	7298	-1241	-32768	-32768	-17056	19357	-16355	303	-5528	8596	-28136	14745	-10600	602	-16780	-14908	32767	-15896	8028	4665	124	118	1
-7280	-6496	14824	-710	18884	9270	-19740	1216	252	-1053	18610	-4849	-18212	-556	7324	-3790	8289	1065	-32768	-20968	-15508	5744	-3704	-7018	-2328	19280	-27100	6409	9804	7547	-25128	-27832	19980	-17595	12953	648	119	117	1
-6516	-8460	15368	799	23378	11377	-22576	780	2204	-242	21257	-4841	-19664	-1916	6792	-4600	7086	3084	-32768	3740	-7012	-22765	14208	-12821	-10740	12996	-22584	-11628	24704	10600	-15516	-8820	8900	6810	-792	-7366	95	119	1
-7348	-3624	12240	-769	28848	18436	-25220	2264	3212	-3555	23118	-6463	-20184	3572	10404	-10115	2357	4075	16876	26552	32767	-16639	10513	4379	-27776	-20284	21844	-15533	24114	3248	7912	-4168	-9116	-12645	651	-5867	120	117	1
-11304	-9864	15492	1955	32767	21835	-32732	7396	7484	-15971	25819	-7226	-26240	10132	17564	-13880	-8448	7598	31668	-792	-1528	-9879	32767	-16857	-32768	-29904	31120	-17975	19853	-254	-13380	14460	-26096	12596	12617	14991	136	111	1
-9412	-24024	12776	2692	32767	30236	-32768	-148	16396	-23434	27252	-1797	-24524	13092	8068	-16813	-9795	11484	-32768	7928	32767	-12451	21254	-7057	-18848	4388	-18328	-8911	20640	7928	-32768	5236	32767	-26397	5826	-1579	144	139	1
-16228	3812	16368	-8217	32767	32767	-28524	7624	8788	-17892	28078	-7987	-29468	-4636	10132	-23734	-16834	9939	-32768	6252	28212	-10672	21234	-2231	-17460	7320	-6548	1684	14058	15652	-14572	-25488	-3856	-1368	14729	8774	136	143	1
-32768	-32768	-2032	-9365	32767	32767	-32768	-22956	1812	-24182	28405	6427	-26480	-21868	-6320	-32768	-9292	5864	-20284	1432	18308	-5576	4048	-9840	-12180	5036	-6072	21151	12132	8959	10100	-1020	-20680	32767	3940	14902	137	133	1
-22804	-28608	24608	-12940	11239	32767	-27644	-14472	9044	6240	21330	-4272	-29424	-15232	-13128	-12694	-15751	-2185	-7348	13016	14412	-6289	2863	-8876	-18036	12684	-2280	13380	8885	8920	-20404	32767	-4148	15561	2483	5846	129	130	1
-11416	-22192	16240	-418	7351	32767	-15700	-2372	-4768	15723	9764	-1571	-28488	-4840	-10532	7202	-19114	-2945	-10164	7572	13700	-1126	3075	-4879	-19124	4744	-4976	6482	8875	4430	-26020	19092	-10460	-15354	14719	6431	127	144	1
-32768	-32768	32767	-1912	-16360	20741	-14352	-9716	-12900	-3389	7895	1953	-25908	-1016	-8524	11241	-22435	-1599	-9256	4892	13064	784	1887	-2209	-15524	7592	-5272	1573	8148	3514	-16388	-1636	-4652	-10328	10754	2172	131	174	1
-2116	-32768	6308	3010	-32768	-14973	-11652	-1488	4888	-1678	3527	2097	-26384	2104	-5116	7601	-21310	-1313	-8224	7560	12932	478	1776	-2433	-17084	3504	-2788	2828	6302	2757	-12840	-2392	-3952	-1297	13837	919	136	164	1
4756	-14968	-4776	18558	-28744	-16842	-9424	504	3388	2104	-5091	4130	-25724	-1400	-6880	2224	-23538	-4591	-8180	7596	12912	920	2096	-3356	-17088	1256	-2076	12004	4642	3305	-16772	2352	-2596	893	13810	3935	138	156	1
6240	-644	-3092	5949	-20451	-14839	-7732	664	-628	3395	-13243	6537	-19092	-4820	-8504	6892	-20230	-6141	-8788	7424	12688	1295	2560	-3215	-17048	5432	-2360	14694	4342	3198	-18392	2472	-1968	3175	14976	5199	132	140	1
-1288	-9788	3888	-14833	-17175	-19696	-7040	-2632	-2516	6522	-19380	8098	-15900	-2820	-9892	11006	-18559	-4333	-8868	6980	12720	1098	2349	-2581	-15756	6596	-2332	4828	3901	1935	-15644	348	-268	11210	16283	6878	134	100	1
-6716	-24068	5952	-12394	-20769	-29315	-7328	-2860	-336	5617	-23874	9159	-14400	-2104	-9008	13392	-17918	-4196	-9012	7628	12308	807	2481	-2328	-15796	3924	-1860	5335	3571	1485	-14736	2004	780	17493	16517	5484	136	40	1
-5472	-14528	6564	-2821	-21937	-32768	-9648	-2952	-516	11556	-29077	8128	-12928	-2716	-9032	14270	-17310	-4002	-9100	8440	11816	624	2513	-3025	-16116	5408	-1392	9137	2980	1881	-15092	5296	-1076	16206	16277	5927	134	124	1
-7284	-7464	9624	-8141	-21740	-32768	-9628	-188	-3688	17682	-29962	12718	-10112	-2920	-10028	15516	-14862	-3526	-9660	7224	12128	522	1637	-3674	-15772	4676	-1464	8271	3080	1874	-15056	3548	-988	12707	16075	5341	134	108	1
-9976	-12864	11512	-14298	-23307	-32768	-11480	-1820	-1908	14572	-32768	10510	-7004	-2808	-12520	21170	-11823	-1571	-9040	6944	12360	564	1644	-3658	-15180	3244	-1160	7324	3735	1814	-13488	1564	-624	8153	14280	4075	136	107	1
-13616	-13380	14276	-12669	-25566	-32768	-13596	-1088	-3388	14764	-32768	12393	-4668	1016	-13476	26146	-8477	-283	-8936	6788	12420	614	1721	-3727	-15532	2952	-648	7452	4742	1813	-16320	428	436	1759	14725	4612	125	110	1
-15540	-12064	17976	-14990	-26634	-32768	-16700	-280	-4108	11511	-32768	15904	-1400	2272	-13928	23888	-4542	1544	-8500	7264	12352	842	2579	-3629	-15772	3124	-268	5940	5969	2052	-17532	-76	260	-521	10379	3944	143	116	1
-17896	-16556	21724	-16965	-27057	-32768	-21992	-1088	-5060	9245	-32768	17484	-4060	4332	-14652	12702	-634	3039	-8488	6976	12316	-289	4147	-4164	-15792	2996	-716	4182	7338	2520	-17768	2020	656	2302	6443	3016	139	125	1
-24112	-23768	26144	-15176	-26290	-32768	-32392	-1672	-5480	4486	-32768	17828	-6412	4392	-13216	1375	4273	3354	-9100	6052	12892	-236	5946	-4120	-17188	2888	-1788	1936	8686	2263	-18012	5416	1376	246	6503	1867	132	131	1
-32768	-24344	29924	-14825	-24407	-32768	-32768	-8508	-10808	32	-32768	20363	-7556	2376	-4848	620	3038	685	-9448	6768	13012	35	8354	-4210	-18368	2464	-1404	1166	9867	2434	-19880	3500	1220	-57	8324	1144	122	123	1
-32768	-10028	27984	-19943	-24155	-32768	-32768	-17716	-10916	-2700	-32768	18129	-15044	-2396	5984	8533	-7825	-5190	-10028	6972	12708	-94	10697	-4637	-17376	2160	92	1092	11735	3129	-18996	192	3048	-832	7638	1984	119	123	1
-32768	7848	13972	-15318	-21804	-31187	-32156	-8920	-21232	8720	-32768	7800	-32768	-1128	22592	6814	-18674	-10481	-10132	7948	13052	-612	13096	-5186	-18032	3452	632	-1517	14099	3420	-18552	-3880	5956	331	5934	3538	105	114	1
-32768	32767	1868	-11033	-8103	-17374	-16108	-9160	-28328	-6529	-19575	1824	-25024	5988	32767	12163	-5331	-3907	-10164	7112	13264	-954	16355	-6631	-19092	2000	-1164	-2379	16171	4037	-17304	-3320	5376	3099	5770	2157	124	112	1
-32768	32767	-3320	-4539	-3226	-377	-5216	-21368	-31920	-7876	1091	-6782	-10524	24004	32767	11251	15309	-6225	-11388	4744	14140	-1244	20644	-7252	-18652	1528	-1016	-1797	18579	3985	-18696	5220	4340	6427	9014	319	135	124	1
-32768	31872	788	3698	5335	14289	-11388	-13464	-30648	9718	18754	-9734	-19452	9528	19332	1846	5217	6459	-11916	8216	12852	-832	25581	-9055	-21252	2556	584	-1313	20335	4846	-21204	5156	2840	7484	6396	-844	134	127	1
-32768	-3056	19488	24119	23578	17239	-19620	-732	-15460	13755	28489	-15431	-14576	-3976	4928	-4773	-508	8690	-12152	8620	12244	3033	30829	-13717	-22560	-592	1136	3096	21633	6962	-20720	-2292	6216	9287	1746	-783	132	119	1
32767	-32768	32767	25665	25140	7995	-32768	32767	32767	24407	13110	-12139	25080	-16024	-32768	-32768	27990	-15486	-10520	9188	13596	8292	32767	-19589	-30408	-3268	1104	12238	21847	6897	-23972	-8352	14672	12702	-7718	-3005	122	125	1
-32768	24740	-2008	16397	32767	32767	-15756	-20448	-31468	15603	-314	-3571	-32768	-17396	19800	32767	-11557	4634	-13680	12704	12404	12076	32767	-27155	-32768	-3532	9564	28714	22887	5352	-27828	-15720	19940	-2773	-15588	-12012	141	122	1
-32768	-32768	27620	21245	17691	3733	-32768	-14544	-1080	8362	16694	-16079	-32708	13536	16736	21974	9855	-5164	-32768	14928	12524	13279	32767	-32768	-24092	7324	-4304	21148	23883	6171	-19604	-6116	5792	22578	-11831	-6995	114	126	1
-10796	-896	25748	13724	6823	1818	-16140	7048	-2404	14778	18782	-12868	-5712	9648	-5904	-18720	22697	-17724	-32768	18848	16772	23113	32767	-32768	-29396	14748	1236	17071	26424	717	-28860	20652	-2864	32767	-14069	-1887	144	143	1
-9468	-10356	11164	5889	2089	587	-11380	-5216	-2592	-4216	14370	-8942	2720	-5364	-21608	-32768	-3723	-6679	-32768	30200	19640	22048	19993	-32768	-24412	21156	-1744	-8354	21096	6157	-27064	17184	-19540	25786	-12879	-558	118	149	1
-9772	-6152	14004	3890	-1352	3592	-17948	-3380	-4256	-9512	10899	-9707	-13776	-28952	-5212	5603	5498	6992	-19984	28156	17492	6165	7617	-32768	-19512	8064	-7352	-12114	16820	4235	-29248	4896	-16412	1597	-24484	1262	125	130	1
-8896	-8124	13672	3675	-1042	3010	-22516	-2760	-1648	-5552	9777	-5164	-28948	-3292	-9312	16324	16028	-7890	-20044	32767	21124	3254	-22837	-20117	-16992	5260	-9620	7345	9557	1489	-28780	-80	-9892	-12196	-30607	1625	135	136	1
-6636	-7448	12904	374	1010	1587	-18284	-2896	628	-2645	7625	-3908	-14736	7740	-2376	4898	8518	-6400	-5564	22456	10124	-5693	-28197	-6885	-9576	2764	-3516	15097	2483	1408	-27700	-5104	-6712	-6012	-30769	-332	148	135	1
-6856	-7240	12728	62	1067	2155	-16984	-2104	-348	-1721	6205	-3907	-12068	-1908	-1716	-5798	11165	-4028	792	12184	4296	-5891	-26778	-226	-7640	1772	-2528	11766	-4376	660	-21828	-3572	-7312	3163	-28285	1531	132	97	1
-6756	-7964	12388	-411	1537	1928	-17128	-2008	2044	-3541	5923	-3520	-15424	-5252	-2560	-3657	12186	-1744	2908	8148	2000	-328	-21641	5451	-6020	2716	-3240	4503	-10402	-668	-17024	-620	-7240	2437	-23573	2395	144	107	1
-7464	-8616	12016	-588	1167	3274	-16652	-1552	2288	-10025	5441	-2487	-19548	-3260	-1856	-3800	13869	-4660	-1808	11280	4812	4712	-19050	12558	-4308	2316	-4092	-4770	-15907	-1780	-13816	3412	-8484	-2874	-19768	2552	124	119	1
-7700	-7036	12472	-813	689	3157	-17576	-3256	-48	-8156	5007	-3138	-16128	-828	-2744	-10404	14064	-5895	-4844	14236	7592	4291	-21952	20636	-5212	2948	-3880	-6820	-21508	-2267	-13404	2256	-8848	-7363	-16951	1456	125	125	1
-6904	-6236	13072	-2027	1050	1676	-17156	-1364	-116	-1614	4548	-3003	-14708	-2500	-2640	-8560	15177	-3609	-4660	9392	8252	4091	-24397	26879	-6756	1356	-3576	-7923	-26485	-2608	-11180	572	-7880	-8703	-16753	-23	114	130	1
-7096	-7284	12084	-1843	1452	1762	-16140	-888	672	-4304	4491	-2187	-14680	-1096	-1516	-7288	15550	-2195	-7376	6912	10800	6915	-26142	31116	-7188	2028	-3924	-9997	-30546	-3599	-9420	-152	-7564	-10547	-15469	-1053	103	119	1
-7440	-7288	12056	-1666	1163	2335	-16436	-2852	288	-5705	4342	-2669	-15204	340	364	-8156	13737	-3332	-10668	7072	13176	8971	-29567	32767	-9368	2624	-4124	-11852	-32768	-5120	-8236	1900	-8476	-13627	-13057	-1953	120	117	1
-7172	-7660	11888	-807	939	3282	-15960	-2796	1400	-7037	4235	-2032	-15468	-864	1060	-8628	13574	-4325	-11464	6132	14104	10424	-32133	32767	-10796	1492	-5076	-13713	-32768	-7134	-6508	2768	-9792	-17739	-9485	-2640	111	116	1
-13772	-8020	12288	-5489	-1774	2849	-23976	-140	6332	-1538	7274	-8208	-15552	-552	1612	71	10633	-6159	-14272	4124	15624	12933	-32768	32767	-12124	764	-7004	-14986	-32768	-10177	-4760	2220	-11460	-19565	-5298	-1670	128	122	1
-5652	-6740	12424	1364	641	4544	-15248	2260	1160	-4558	5813	-6206	-17204	-2252	-920	-5708	5792	-6888	-19844	11056	21996	13427	-32768	32767	-16568	2628	-9736	-11721	-32768	-13698	-3464	1452	-12744	-15394	-1547	-1236	127	127	1
-7184	-6588	12356	-2170	663	3818	-16004	-868	68	-7317	5572	365	-16572	-4312	40	-5880	6642	-5030	-23800	13196	24880	9906	-32768	32767	-21484	2668	-10644	-8859	-32768	-16804	-5480	992	-11460	-5085	1213	-2214	118	128	1
-8008	-8208	11736	-198	2569	4741	-17796	-2500	752	-8036	6901	-3333	-16240	-4560	124	-5265	8134	-2788	-30164	9108	26584	7078	-32768	32767	-27296	2584	-13044	-2035	-32768	-18586	-7304	2852	-6488	2257	2223	-1807	118	129	1
-7980	-7496	12280	366	4671	5658	-18140	-2144	920	-6172	7774	-2160	-18084	-3016	1180	-4280	7737	-2948	-32768	2908	27816	12164	-32768	32767	-32496	14780	-14756	7095	-32768	-19560	-12792	7688	460	1126	-610	3687	119	132	1
-7740	-6748	12720	-244	6998	6046	-17232	192	1632	-5033	9797	-2857	-17948	-1360	6332	-4215	8136	-3102	-32768	4392	15668	8279	-32768	24519	-32768	19720	-17132	-7246	-32768	-13568	-23932	3376	13084	8781	-11597	9185	126	140	1
-8028	-6664	13648	-118	9562	6182	-18108	-176	2016	-3192	12399	-3706	-18868	2172	8592	-3276	7877	-2181	-32768	-16340	-10648	8783	-32523	10766	-20580	9264	-26640	-5176	-27845	-5915	-29720	8640	26568	-2013	-3590	8921	125	121	1
-8252	-6528	13508	-487	13251	7308	-19356	488	1924	-1080	15423	-4160	-18400	3320	7416	-3685	7016	-1020	-32768	-32768	-20072	20488	-8342	5682	-5356	6112	-29476	6917	-9405	1143	-17712	-18948	32767	-24062	7268	3158	125	124	1
-8232	-6024	14000	-1848	18361	9330	-19320	436	892	814	18254	-5025	-18168	-1684	7832	-3701	7917	682	-32768	-17252	-16452	3524	6421	2504	-3372	19692	-27860	2716	10431	7871	-23564	-32768	17540	-26527	12347	1186	114	118	1
-8856	-8820	13880	1601	22571	10522	-22156	-252	2480	2365	20707	-5072	-19712	-4352	7252	-3770	7177	2744	-32768	-8992	-1636	-25838	23514	-261	-12216	8472	-20204	-22826	25168	11441	-14704	-8588	7508	8452	799	-7796	100	113	1
-11944	-13216	14344	412	27687	16060	-22948	-108	2920	2124	21067	-5135	-21556	2152	9684	-8286	2215	2945	32767	24852	32767	-13788	20460	11145	-32768	-32768	32767	-27385	11361	-2166	-2452	732	-4688	-11741	-1393	-6016	125	114	1
-9840	-11312	15372	1641	32767	20878	-32768	7460	9372	-15191	25662	-6673	-28440	5624	19472	-11965	-10370	6302	-32768	-18636	29200	-11380	32767	-32768	-15936	7492	-32216	-32768	19207	14868	-32768	12636	7736	-26814	-5937	10790	137	127	1
-12088	-25200	14168	2361	32767	30665	-32768	3676	17872	-22716	26256	-904	-25540	12276	7792	-7947	-7253	11322	-1244	24168	9824	-16128	10020	-5540	-27344	3968	-4936	1163	17783	14807	-31288	-3652	-972	-11861	11649	10104	139	129	1
-28640	-9388	13612	-11670	32767	32767	-27236	6264	4636	-18910	28084	-5925	-29644	3624	9012	-18810	-16899	9969	-21336	428	21504	-12101	8981	-14222	-11540	8444	-9888	3371	14220	10872	12	-9680	-10256	24759	13403	13854	132	121	1
-32768	-32768	22264	-10977	32767	32767	-32768	-19080	4220	-19459	27295	5501	-24504	-16676	-6644	-31167	-10194	6038	-6712	14044	11460	-9442	1036	-8541	-15400	6668	-2168	22416	10791	8190	-1012	12392	-14344	32767	5253	8380	115	122	1
-21448	-23436	21064	-17987	10827	32767	-26240	-11516	7924	8300	18843	-5355	-27788	-11532	-13148	-16479	-16382	-1613	-10164	8400	14308	-2915	656	-6150	-21248	6152	-5904	6551	9645	6063	-26360	32767	-8100	-889	9377	5197	123	140	1
