#Activity	walking 
#ActivityID	1 
#Date 09-30-14-32
acc_rf_x	acc_rf_y	acc_rf_z	gyro_rf_x	gyro_rf_y	gyro_rf_z	acc_rs_x	acc_rs_y	acc_rs_z	gyro_rs_x	gyro_rs_y	gyro_rs_z	acc_rt_x	acc_rt_y	acc_rt_z	gyro_rt_x	gyro_rt_y	gyro_rt_z	acc_lf_x	acc_lf_y	acc_lf_z	gyro_lf_x	gyro_lf_y	gyro_lf_z	acc_ls_x	acc_ls_y	acc_ls_z	gyro_ls_x	gyro_ls_y	gyro_ls_z	acc_lt_x	acc_lt_y	acc_lt_z	gyro_lt_x	gyro_lt_y	gyro_lt_z	EMG_r	EMG_l	act
-16160	-6192	17272	-2379	-32768	-20514	-10848	2696	-11080	3517	-32768	8519	-7496	3980	-7188	12143	503	-2549	-7868	5156	14060	-440	-117	-1102	-15860	2764	-884	3108	4649	1504	-15612	4144	-404	-2551	15791	3396	148	162	1
-19056	-8092	20004	-4178	-32768	-21683	-17056	5060	-12964	-4001	-32768	10161	-7772	5008	-5260	13395	1081	-303	-7992	4964	14076	-426	256	-1305	-15760	2248	-76	1464	5548	1687	-16928	6516	-1280	-1251	9363	2642	180	191	1
-26164	-8868	23072	-6934	-32768	-22117	-20536	5096	-12588	-12032	-32768	9636	-7492	4984	-4776	13341	1020	9	-7980	5052	14004	-378	576	-1517	-14700	2128	-36	319	6924	1987	-16724	5276	380	-255	5643	2333	228	229	1
-32768	-8792	22760	-10222	-32768	-22102	-20960	1100	-12448	-22431	-32768	5167	-9436	2352	1664	6352	-280	-193	-7660	5256	14812	-287	1184	-1831	-14680	1948	-156	128	7141	1996	-17692	2188	3492	261	6579	1889	252	253	1
-32768	-9680	16604	-11120	-32768	-20122	-25776	-5696	-12040	-19010	-32768	-66	-16616	-2380	7008	2298	-4202	-3668	-7880	5468	14924	-297	2232	-2658	-17460	2204	-920	1284	9648	2804	-17796	1616	4548	793	8010	2475	252	253	1
-32768	-2812	4192	-10636	-32768	-12870	-20140	2884	-12012	-10092	-32768	-4345	-23492	-7072	16160	2235	-4170	-4955	-7612	4800	15456	-3	3902	-3138	-17148	1844	-1180	498	11176	2831	-17120	1348	2112	3404	7971	2961	252	240	1
-32768	12704	-6176	-16295	-26573	-7338	-14444	-424	-9348	-16436	-22871	-5597	-20628	-9420	29512	3970	-3878	-2831	-7692	4212	16188	386	7170	-3250	-17360	260	-520	1332	13182	2934	-18248	1884	1076	4172	6591	2629	252	225	1
-32768	14748	-19388	-14840	-13386	-1231	-7772	-3400	-6648	-14358	-5754	-5953	-15916	-14004	26804	-8922	3399	-1665	-6892	4312	17244	873	11318	-3544	-17848	932	24	883	15897	3244	-19112	3548	4420	5827	5226	865	222	209	1
-32768	12932	-17956	761	-626	7239	-6000	-5768	-7396	-13779	-2601	-5922	-13420	-10288	12644	-20674	3508	1714	-7360	6112	17124	535	15945	-4804	-19056	1308	536	169	18563	3802	-20692	4328	4984	7036	3254	-713	176	196	1
-30560	-3100	-13904	30608	15768	19827	-11352	-6296	-13556	16662	21273	-2354	-9372	-8372	1880	-16789	734	2992	-8124	6676	17416	292	21753	-6812	-21120	624	-1420	-16	20999	4853	-20784	2016	3624	8208	935	-913	148	187	1
-2876	1244	32767	11129	12916	-1722	-19632	4004	11376	27396	16996	2516	-7576	-8432	-716	-16832	5977	-876	-7092	5660	19060	658	29170	-9498	-24076	-1168	-3068	2187	22728	5738	-23008	-324	5868	8149	-1744	-966	106	174	1
14020	-12028	7804	4566	28998	-8266	-32768	20508	2392	32767	11645	1861	-23892	4352	6312	1090	-4431	2553	-7824	11228	21540	1156	32767	-12977	-32768	-4380	4568	5652	25139	5933	-27052	1080	13300	3880	-7405	-2097	56	172	1
-31640	26972	32767	4772	32767	4178	-14620	7668	-9896	17047	13264	2719	-27796	-19656	3112	21241	2974	3078	-10428	11060	21340	1413	32767	-22225	-31644	-2912	3556	6674	25389	8218	-24432	-3408	11108	2289	-10256	-5285	8	168	1
-20772	-6680	22380	4197	13003	12079	-12552	-1232	-9592	1599	15129	-1183	-17896	9504	1592	7601	11876	4477	-23040	13268	22208	2094	32767	-27116	-31024	-240	1344	11261	26278	9064	-23092	-5604	7852	-659	-18252	-10839	0	146	1
-13132	3336	16256	10084	3640	6676	-25540	-9372	-11756	-1654	17799	-9530	-14288	16316	-18484	-4514	17759	4076	-25164	11136	19760	6552	32767	-28194	-26536	9196	-4340	12412	26136	7060	-24916	6648	-2612	17182	-22500	-6803	0	135	1
-14708	-13256	10884	4980	1747	2421	-13560	3648	-9224	4526	12341	-4400	-12736	-1156	-2568	-9524	2341	-807	-31080	4512	17568	5421	32767	-28791	-20344	10556	-13728	2313	22379	6161	-23428	12348	-11560	27764	-30173	-4081	0	139	1
-8876	-216	15032	3182	1587	1630	-16748	6476	-8056	-6154	11528	-2872	-17304	-6324	-6540	-8297	14621	-417	-27168	15540	23952	10011	32767	-25417	-15112	7188	-9744	-8381	16915	5685	-24008	9324	-17476	14937	-27127	-1184	21	134	1
-8292	-2368	14756	1245	2123	852	-19820	84	-6740	-8949	9616	-3295	-17040	1528	-5024	-7071	10703	2986	1536	24636	30108	-1704	23406	-24073	-9320	9828	-13880	-6056	9900	1722	-23404	3780	-8344	-6380	-27087	2131	61	123	1
-8752	-4872	13248	723	1828	3	-17276	-5064	-6172	622	7030	-2351	-17044	-2772	-3872	-8661	9774	6393	-30660	16432	25036	-6676	-6039	-6191	-5564	4592	-18628	-1164	1201	639	-21636	8096	-664	-13241	-25597	2944	11	35	1
-8876	-4480	13188	705	1946	-57	-17660	-176	-5260	4611	5423	-2121	-16596	-7104	-4316	-5268	11231	7976	-720	9348	18500	-2791	-30115	15686	-4588	1060	-5804	5266	-3510	-968	-20724	3328	-1916	-5419	-21510	2848	29	31	1
-8552	-5344	12580	325	1868	-140	-16760	1464	-3496	-3439	5229	-638	-14260	-6484	-3864	-1248	10721	7147	8088	10632	8396	-2993	-32033	19857	-9308	-416	-2348	5476	-10771	-4652	-21340	3120	-4532	179	-18233	1402	45	34	1
-8364	-5668	12560	150	1834	407	-16508	-1568	-2788	-6357	4690	-1055	-16560	-4184	-2628	1504	11285	6746	5224	7396	6444	-8250	-28355	17152	-5864	6740	-5480	318	-18485	-4538	-16788	3104	-6256	551	-16918	921	51	30	1
-8484	-3992	13352	30	1878	517	-16720	-1720	-3048	-874	4287	-1096	-16980	-1692	-364	4152	11338	6074	-2168	2768	7788	-8215	-28747	14805	-2352	6744	-6832	-10515	-24484	-5770	-12460	4532	-7100	-1672	-14901	1208	53	26	1
-8756	-3900	13168	-472	2045	169	-16864	1888	-2996	2959	4207	-262	-15496	68	-316	5597	11295	5969	-5424	900	10320	-2492	-32768	14449	-1208	3432	-8380	-13299	-28516	-7089	-9320	5168	-7544	-5042	-11173	1681	51	34	1
-9156	-4104	12704	-719	1935	149	-15184	1312	-3256	91	4458	-503	-14912	500	-1216	1944	12177	5819	-6640	2804	12028	2099	-32768	14668	-3484	1592	-8668	-8542	-32526	-10217	-7712	5376	-8056	-7372	-7763	2089	58	43	1
-8672	-4704	12288	-522	1542	333	-15296	124	-2552	-3021	5171	-1425	-14724	-1772	-1368	-2257	12945	4725	-9432	3472	13416	3933	-32768	14946	-5072	2508	-8132	-4172	-32768	-12649	-7500	4444	-8984	-10558	-4417	2322	67	53	1
-7576	-5776	12324	-763	1348	1353	-16956	-1480	-3156	-8261	4247	-3373	-15572	-2860	428	-6254	12273	4943	-12236	4596	15180	5511	-32768	16497	-7276	2048	-8940	-4088	-32768	-14131	-5740	3380	-9692	-12693	-2141	2916	72	57	1
-9412	-4572	12828	-801	2026	1442	-17416	1080	-1856	-6912	3730	-1421	-16032	-3148	868	-5725	12794	4977	-13792	5372	17984	5889	-32768	17853	-8800	2580	-9628	-3066	-32768	-16613	-4032	1944	-10488	-12381	-599	3163	72	64	1
-8788	-4300	12676	-810	1633	975	-16812	-112	-2268	-4749	4165	-1389	-15852	-3012	672	-5409	13356	4894	-13924	3824	19232	7066	-32768	18708	-18452	296	-10640	-1025	-32768	-19179	-5164	2108	-9184	-10903	485	1217	68	80	1
-8676	-4660	12308	-206	1717	897	-14652	-856	336	-373	8255	-895	-15132	-5328	-1204	-2278	13798	3615	-22060	5156	26488	11475	-32768	15881	-22644	428	-11288	5889	-32768	-21629	-8672	1972	-5276	-11483	-672	405	64	99	1
-8880	-5296	12432	397	2168	1590	-16024	-516	-1156	-1640	8515	-583	-15376	-6860	-2900	-64	10287	1983	-32768	12216	31112	14787	-32768	12109	-22960	204	-11916	7792	-32768	-21415	-13756	5084	3248	-11739	-7251	699	75	109	1
-9508	-4724	12732	689	2090	1912	-15560	-460	-3656	295	9747	-440	-15368	-3844	-3520	-1128	7340	1743	-32768	10568	19252	16027	-32768	13385	-18996	9268	-10584	13066	-32768	-8501	-18128	2084	8516	-6027	-8142	252	91	109	1
-9408	-4484	13268	95	2747	1981	-16796	496	-3888	1192	10503	-436	-16380	-2384	-2344	-3485	7011	2273	-32768	4172	5576	14886	-32768	12133	-19676	4712	-8056	4619	-32768	-4750	-16332	-4824	15976	169	1907	-2205	103	105	1
-8692	-3708	13908	-57	3950	2112	-16272	1152	-2400	-1167	11394	-564	-16148	-3184	-444	-5174	6439	2417	-32768	-7444	-904	16831	-23073	13872	-19208	596	-11432	4978	-26833	-2420	-21172	-11412	32767	-5544	2271	-1009	100	78	1
-9036	-4992	14152	-124	6245	2316	-18332	-692	-2060	-437	13239	200	-17564	-3480	1188	-3759	6518	2002	-32768	-12796	-11676	12103	-11716	12374	-5788	2748	-2312	17112	-10767	2593	-20420	-11888	32767	-12023	-2093	877	102	80	1
-9080	-4924	15096	48	9581	3465	-18856	820	-3744	2602	14510	523	-18232	-2476	-316	-4543	4462	1917	-32768	-15036	-15904	2189	1952	1256	-2568	12652	-8764	3911	8092	6437	-15608	764	22936	11668	-1613	2216	109	106	1
-9012	-4572	16024	103	13543	4318	-19184	3168	-4080	1537	15929	411	-19036	-4072	-2140	-8147	1873	2858	-26316	3928	-13136	-26169	24383	-7885	-13016	7304	-13128	-15572	19582	7957	-15836	3040	11188	14735	524	1029	129	108	1
-9220	-5356	16240	-695	18351	5402	-20336	3204	-2808	-1292	17891	24	-20576	-3752	-656	-7611	-478	2619	-4060	2036	32767	-14565	24469	7869	-19148	-10720	8316	-20185	20191	3204	-15288	3268	8692	14016	837	1245	142	96	1
-8416	-5260	16776	-1767	24220	7104	-21828	2636	-1144	-3155	20383	-168	-22064	-5140	5680	-2751	-3050	985	-2288	-13568	9240	-6013	28549	3036	-32768	1120	-1536	-28026	13782	3087	-10740	11788	-12784	825	13190	5750	151	110	1
-8640	-7116	18656	-3093	32767	9641	-28964	1752	3216	-5127	23219	795	-24212	-9492	11140	-1115	-8789	-1491	-32768	-15036	32767	-3808	25336	-8654	-17968	-10336	-9724	-27540	18401	4834	-27468	6404	12568	-32768	1253	-1378	161	114	1
-9088	-11784	19564	-3890	32767	17976	-32080	8992	4244	-5602	24864	-1319	-26192	-8592	18856	-8831	-22208	-2605	-12052	13556	18444	-3699	12564	-8225	-15140	-256	-7264	-372	16609	5918	-19284	-1272	-1984	-10746	10622	2131	172	143	1
-17696	-11828	21744	-3748	32767	25061	-30972	7928	2400	-12121	26603	-3648	-25304	-808	10872	-3363	-18607	-174	-16260	-2216	18432	-6628	4455	-5045	-18004	17368	-9696	1979	15829	9543	-14788	-3728	-1640	-856	12387	4786	182	129	1
-28820	-10328	20032	-6894	32767	25600	-29588	-2184	-5880	-17792	30259	-1274	-24376	-4256	924	-2692	-21478	-1030	-9968	12404	14664	-4678	2720	-3444	-20440	16456	-10228	-1761	14449	10397	-14412	1892	-8896	19683	8927	6264	205	95	1
-29196	-15360	16244	-5344	32767	28791	-29696	-3936	-7336	-17153	29527	-555	-19332	-9492	-15392	-6626	-13157	-5679	-7104	2188	15912	-2193	822	-1769	-15772	-2196	-6744	7642	10479	5672	-14996	4968	-4008	9735	7420	5789	222	82	1
-28284	-12944	19044	-9263	32767	28236	-20672	-5972	-11224	2643	19089	2739	-28212	-1132	-9940	6034	-17510	-10844	-7736	4204	14464	-837	1019	-1039	-17188	4404	-6132	11119	8811	5137	-15536	5252	-988	6697	8577	4410	218	89	1
-5808	-20028	23692	-3044	27824	27961	-12064	-5184	-16156	13907	10646	4440	-25056	-72	-8404	13429	-21118	-10956	-8500	5148	14140	-339	1406	-447	-17208	9140	-6088	2396	7788	3961	-16184	6536	-2128	14408	11167	2461	225	136	1
-31736	-12892	13164	4744	2801	14092	-5932	-480	-17876	14192	3945	2069	-23604	-3864	-6444	12496	-23402	-10980	-7956	5524	14384	-711	1575	-292	-16896	4684	-4416	-1564	6362	2534	-17052	8856	-2336	10210	11156	1940	221	135	1
-4768	-9756	21040	2787	-26253	-8242	-4024	688	-10296	4016	-1797	-774	-23520	-808	-5348	7630	-20186	-10833	-7600	5540	14448	-292	1731	-324	-16876	1556	-2984	1191	5365	1191	-15976	9244	-900	2817	13223	1432	214	129	1
9152	-10528	11548	1447	-29047	-17687	-9252	5056	-1152	3990	-10461	-617	-21420	-1072	-7400	3691	-17499	-10293	-8016	5636	14340	-2	1842	-771	-16892	3052	-3700	4883	4554	1208	-15868	8976	-840	1972	13528	1198	199	127	1
5116	-8516	9032	3538	-28645	-18886	-6720	372	-5368	995	-19165	1107	-17808	-592	-7500	3436	-16586	-10277	-8196	4840	14384	240	1857	-825	-16124	3760	-4228	2728	4038	1151	-16032	2632	-1200	1646	15330	2013	189	122	1
-1308	-4912	10020	4350	-30657	-18910	-2724	-2532	-6732	3167	-25383	1234	-12392	8	-7392	1483	-14748	-9041	-8136	4660	14120	378	1793	-851	-15896	2224	-3212	-675	3667	1106	-14984	844	-444	3969	16106	1677	172	129	1
-5496	-2628	11164	2254	-32768	-20316	-2960	-1728	-8324	3962	-31189	2412	-9152	32	-7360	1673	-9368	-7595	-8084	5152	14112	454	1782	-967	-15208	864	-1864	805	3732	1276	-15144	932	448	4725	15241	1546	144	131	1
-7104	-2684	11624	259	-32768	-20775	-5572	-616	-8948	4613	-32768	3741	-9044	944	-7700	2786	-6843	-7330	-7980	5392	13968	543	1807	-1281	-16416	2024	-1972	2746	4091	1714	-16928	1860	1244	3741	13932	2142	132	134	1
-7892	-2776	11780	-1131	-32768	-19963	-8364	1016	-7924	4266	-32768	5548	-8204	1368	-9284	4149	-3723	-6854	-8268	5400	14036	579	1797	-1354	-17028	2864	-2616	2558	4361	2005	-15652	1296	1936	4298	13490	3150	122	141	1
-11500	-3748	14092	-3115	-32768	-18501	-9328	1932	-9812	3714	-32768	6820	-6872	2948	-8832	5905	-1237	-5222	-8536	5052	13796	333	1485	-1621	-14172	2604	-2216	3254	4358	2032	-14180	2324	1876	1834	14998	3707	127	154	1
-17104	-6932	18204	-4459	-32768	-18349	-10760	276	-11488	1130	-32768	7283	-6616	4684	-7724	8248	-953	-2643	-8524	4516	13384	64	914	-1488	-13900	1408	-372	4558	5742	2063	-14168	4328	356	683	16499	3452	142	170	1
-19896	-7620	21828	-5929	-32768	-20049	-17272	4432	-13964	-3872	-32768	8852	-7644	4752	-6084	10874	-1469	-942	-7876	5596	13948	-350	898	-1617	-15244	4152	-132	2444	6692	2285	-16300	8008	-2136	-156	11071	2845	212	226	1
-25944	-8324	23364	-8911	-32768	-20885	-20368	8608	-13300	-12949	-32768	8643	-7376	4916	-2856	13028	-1784	170	-8060	5344	14400	-377	1763	-2267	-17508	3512	-2360	-2048	7460	1860	-18072	6220	-1644	-2412	6177	1638	250	253	1
-32768	-6280	22144	-13780	-32768	-21028	-16976	1012	-12588	-24885	-32768	3355	-8024	3724	-112	10524	-184	-631	-8392	4848	14532	-187	3007	-2373	-15932	332	-3148	-1534	8351	1987	-16232	3068	376	-1607	7638	1853	252	253	1
-32768	-8588	16264	-15470	-32768	-19217	-25408	-3784	-13444	-23872	-32768	-3024	-14868	-4184	3588	5086	-4375	-3685	-8148	4172	14716	101	4371	-2251	-15764	196	-1332	1749	9276	2863	-15928	2076	2264	1614	10271	2781	251	246	1
-32768	-772	6820	-14761	-32768	-13928	-23088	-956	-13380	-13610	-32768	-5910	-21088	-10028	15216	2715	-6907	-5154	-8052	4588	15252	630	6313	-2101	-16504	3344	712	601	11869	2876	-17580	1180	4156	565	9629	2950	249	230	1
-32768	9392	-7628	-14872	-24681	-11714	-13652	-4552	-12224	-5380	-25781	-4808	-22984	-11752	32444	7424	-5107	-3872	-7760	5468	15960	570	9325	-3037	-18596	2184	588	-1989	14181	3073	-20300	124	5672	669	6412	2918	240	217	1
-32768	16396	-21696	-8325	-10972	-8327	-3708	-312	-7484	-4355	-6307	-4085	-15448	-14668	28488	-8202	4894	-2602	-7828	5056	16856	443	13646	-4019	-19132	-488	-152	-1126	16843	3608	-20440	1896	6256	4839	5108	1581	215	206	1
-32768	13628	-19780	11894	12017	-445	-7688	-6836	-13444	125	14399	-3722	-13916	-7808	13156	-16828	1161	1939	-8040	5724	17340	557	19381	-5027	-20252	916	-160	923	19421	4230	-20372	4524	2556	7251	3727	-517	179	190	1
-17272	6296	-10980	27030	25942	11355	-12252	-7076	-13380	18373	22511	-252	-11944	-7144	560	-18282	3173	3365	-8340	7084	17276	1209	26303	-7137	-22368	164	-852	561	21714	5169	-21820	3172	2316	8940	471	-1207	125	184	1
13088	-16648	32767	8565	19106	-10388	-25976	6672	22064	32767	11629	3552	-8216	-8400	-7688	-19953	10693	-1106	-7272	6524	19904	2033	32767	-10553	-26612	388	3176	4226	24246	5214	-26052	1592	11296	5208	-4993	-1225	70	175	1
-7400	3508	13168	17230	32767	5013	-32768	13948	-13136	32767	12826	777	-26188	-5904	16608	9444	-13600	2043	-9784	13864	21152	1546	32767	-17894	-32768	-3788	4156	6616	25382	6451	-25844	-244	10928	3957	-7104	-3899	36	164	1
-32768	1408	30248	3641	16963	9665	-3784	11596	-7120	12207	15934	2042	-30260	-14352	3240	28673	7253	1723	-15164	15084	22440	1941	32767	-25927	-32768	-1788	4560	9295	26208	8480	-27908	-7184	10616	-2202	-15312	-9523	0	151	1
-16752	-32768	1096	4514	5707	-1832	-15696	-2388	-13364	-2284	17868	-4696	-15216	21756	-4500	7572	18330	4124	-26284	12704	20996	5012	32767	-28178	-28876	4088	-4840	10123	25564	8047	-25052	-224	-904	10728	-21973	-8408	0	99	1
-12104	13096	19964	6806	3725	6665	-22068	-4512	-12764	5902	14115	-8211	-10584	9540	-20312	-10427	9540	3449	-19468	6244	14036	6106	32767	-29679	-21064	9848	-9396	9254	23845	6053	-24720	1656	-1500	12260	-21994	-7306	0	77	1
-8084	-6992	14292	5877	2380	2479	-16736	2984	-9428	2793	11884	-3369	-12580	-5116	-564	-10193	4734	-786	-32768	9540	21152	12648	32767	-25204	-19288	6828	-10848	-2712	19721	6462	-22612	7960	-17024	27389	-27992	-1760	1	78	1
-8596	-3448	13892	2494	1988	1001	-17076	5144	-7972	-6794	11154	-2457	-19588	-6160	-7488	-7581	15290	1521	-14804	21088	28048	14143	27659	-22945	-14604	8100	-10564	-4605	12942	4263	-25092	4996	-14548	3902	-26729	661	1	76	1
-8468	-3620	13640	1291	2203	493	-18772	-4196	-7256	-5779	8696	-3203	-17676	3024	-4508	-4772	10409	3877	-16904	21460	8376	-4715	10023	-18140	-7804	7428	-14768	-3430	4436	2436	-24280	4648	-13452	701	-26659	1052	34	53	1
-8556	-4996	13356	937	2237	176	-17096	-2116	-6264	2947	5965	-2290	-17656	-3588	-3372	-6211	10926	7767	-16472	12688	25172	-7239	-26973	7218	-4476	6384	-11904	4589	-1036	1238	-20424	5620	-1312	-8982	-26080	2982	61	56	1
-8380	-4940	13552	805	2239	125	-16720	3360	-4232	1035	5820	-1638	-15472	-5136	-3048	-3472	11129	8125	6816	11028	12924	-5355	-32768	18974	-7988	-1896	-3196	3555	-7338	-1068	-22116	2868	-3192	-1140	-22086	1931	81	70	1
-8320	-5316	12968	-775	2255	-460	-17244	-556	-3236	-5803	4987	-820	-15156	-5024	-3364	-1329	10788	7585	6860	5964	7676	-7267	-32768	18964	-7348	2584	-4996	3011	-17289	-2923	-20152	2856	-5892	1185	-19282	1616	83	63	1
-8036	-5460	12960	-630	2079	202	-16344	-2592	-2808	-3725	4566	-1401	-15900	-3788	-1728	521	11054	7175	2256	-344	7540	-7202	-30731	15188	-3048	4496	-6316	-7046	-23730	-4704	-14960	3640	-7100	-433	-17662	1725	85	51	1
-8340	-4336	13076	-591	2017	284	-16636	-520	-2608	1440	4308	-938	-16268	-2584	-280	3273	11164	6331	-2820	-2196	9524	-1174	-31913	12696	-2200	3876	-7588	-14500	-28357	-6073	-10508	5248	-8200	-2985	-14277	1956	87	47	1
-8556	-4224	12992	-792	2088	223	-16288	1576	-2652	1982	4232	-318	-14956	-1308	-144	4043	11511	6029	-5352	1868	11708	3144	-32768	12052	-1988	976	-9184	-10208	-31774	-9075	-7524	5320	-8764	-5669	-10624	1706	87	61	1
-8712	-4400	12648	-711	1743	333	-14932	556	-2560	-943	4672	-901	-15344	-1244	-968	1901	12866	5249	-8972	3284	13788	3861	-32768	12207	-4076	1256	-9792	-3682	-32768	-11630	-6256	4480	-9344	-8356	-6769	1405	91	69	1
-8236	-4028	11880	-856	485	399	-16916	8468	2232	-19142	5846	-2314	-14772	-2488	-936	-2132	12654	4833	-12448	1620	14792	6440	-32768	15826	-7564	784	-9608	-4177	-32768	-15103	-5232	3892	-10060	-9940	-2996	1802	91	77	1
-8216	-5356	13196	-1228	1495	1426	-13912	-2956	-3936	-5211	11856	969	-16364	-3712	628	-4756	11784	4138	-13204	5312	16644	8145	-32768	18864	-6872	2012	-10344	1336	-32768	-16378	-3540	2700	-10140	-12493	-823	2678	92	78	1
-8876	-4436	12716	-587	1503	1328	-17752	-1200	-1556	1204	6708	-1556	-15320	-2908	304	-4756	12995	4487	-14724	4892	18100	7954	-32768	20703	-13812	2300	-11340	1295	-32768	-18384	-4868	3176	-10620	-13803	580	2222	81	88	1
-9072	-3684	12704	-296	1469	675	-15248	336	-1812	6233	9137	-1776	-14752	-3452	-300	-1588	14444	3857	-20000	4680	22884	10863	-32768	18862	-21032	3512	-12560	3422	-32768	-20402	-7940	2256	-7232	-13439	-91	357	68	105	1
-8524	-4816	12748	-108	1742	739	-15360	568	-1028	1672	8760	-312	-14504	-4532	-100	-923	13834	3658	-32768	9656	30364	13130	-32768	15316	-23508	6232	-12676	10399	-32768	-17719	-13016	4888	396	-11874	-4464	130	69	119	1
-8864	-5056	12640	351	2240	1717	-15728	468	-1784	-3150	8091	-1047	-15564	-4276	-2636	-1049	11230	2626	-32768	9608	21560	13342	-32768	15119	-21152	9252	-11388	11694	-32768	-10571	-17516	2656	7752	-5666	-7816	-366	84	120	1
-8804	-4508	13348	245	2811	1806	-16972	-52	-3300	-1589	9820	-1144	-16932	-3988	-4316	-2463	8888	2223	-32768	4220	7560	11102	-32768	13210	-20876	4664	-9668	2201	-32768	-7435	-17648	-2588	14432	-1975	-259	-1958	92	111	1
-9036	-4088	14060	-430	3978	1718	-17256	336	-2980	1424	10865	-797	-17228	-3424	-1004	-2406	8558	2471	-32768	-5852	752	13295	-24948	14384	-18900	880	-9892	-151	-28103	-4611	-18760	-7908	29060	-7460	4664	-1148	93	105	1
-8972	-4100	13928	-803	5800	1805	-16452	552	-600	-306	12058	-84	-16600	-4184	2156	-4754	5896	2267	-32768	-12528	-10384	8703	-12959	14170	-9996	2760	-4796	10844	-13542	-551	-20264	-10744	31844	-13867	2015	-567	97	97	1
-8752	-5684	14052	-533	8099	2698	-17396	-992	-884	365	14515	68	-17520	-4168	3244	-5957	4401	1532	-32768	-16856	-17000	831	46	5309	-3328	10216	-7720	5367	4612	4495	-17676	-3680	24772	4263	147	-169	103	88	1
-8548	-5296	15572	-248	11661	4119	-19696	784	-3040	2437	16436	-48	-18572	-5144	-1056	-7378	1860	1395	-32768	-1428	-7380	-16765	23769	-4853	-11908	11844	-12632	-8700	16707	6249	-16804	1048	13180	15702	1987	-541	123	93	1
-8720	-5276	16680	262	16845	5537	-21340	3528	-3176	1842	17810	63	-20480	-5012	-2468	-8330	-486	1560	-12216	-280	28500	-18007	21879	-4792	-17092	-2236	416	-18626	20846	5218	-14840	-4280	10636	-5417	3802	-344	143	95	1
-8328	-5772	17172	-715	22928	7259	-22260	4628	-1612	-487	19916	-447	-22764	-4232	3704	-2709	-2196	636	6016	6400	16620	-2720	15366	4958	-32544	-13892	3412	-18844	11968	1649	-5452	10472	-14960	11069	11656	8002	156	109	1
-8292	-5960	19368	-2389	30933	9440	-26284	2384	1916	-4123	22990	-468	-24060	-7296	12788	2350	-7172	-780	-19104	-7324	27956	-6704	32767	-6783	-23884	-4548	-8772	-25963	15771	5694	-30748	3824	6104	-25980	3216	-851	168	128	1
-8340	-14088	19396	-3603	32767	15745	-32472	8784	4344	-5477	25140	-2021	-24628	-10352	18504	-8886	-22525	-3479	-17872	1548	22192	-1166	14181	-10068	-16024	-1900	-8020	-4003	15713	4812	-21872	6108	2144	-13128	8395	619	170	162	1
-10688	-10420	21628	-5078	32767	23184	-30380	7992	468	-11876	26918	-4547	-23996	748	11684	-2293	-19647	-1136	-22356	16064	13056	-5683	6896	-4848	-13748	10824	-9628	3802	14806	7202	-18284	-6364	-3056	-5324	13076	3545	178	151	1
-27824	-9792	20776	-7152	32767	24921	-28200	1352	-6772	-19783	30108	-3557	-23196	-2220	-600	-5574	-17574	266	-8580	4888	15948	-2708	2432	-2278	-16756	-372	-6984	-5747	11658	8435	-11516	-1364	-8856	14156	8179	5578	181	128	1
-29112	-13700	15084	-7086	32767	26200	-25948	-7708	-13268	-19205	27926	-70	-21708	-8888	-11444	-10377	-16711	-3403	-7336	1992	16144	-2305	851	-1834	-16716	2896	-4524	3789	10394	5801	-13588	7368	-3816	12641	10396	5212	195	116	1
-28776	-7136	14244	-7980	32767	27772	-20740	-6396	-13512	-5130	20522	2060	-25844	-3608	-12548	-696	-17683	-9688	-6872	2220	15856	-1910	934	-1720	-17572	4760	-5932	5727	8471	4979	-15736	9116	-3708	4114	7897	4929	222	90	1
-15884	-15764	21148	-14158	32767	24107	-14416	-4512	-11372	13697	12208	5816	-24692	-1772	-10332	14850	-22062	-11029	-8568	6076	14468	-1247	1435	-1707	-17380	4132	-5776	2202	7213	3333	-15640	4988	-888	5686	11229	3079	224	127	1
-14956	-22416	10640	4553	20024	25512	-7680	-6632	-13560	12579	4743	4471	-22776	-3744	-3920	15379	-23586	-11603	-7676	4972	14296	-893	1068	-189	-16712	2968	-3492	1840	6322	2551	-16636	5728	-1572	6891	10665	1265	218	136	1
-18836	-12472	21616	5379	-20017	9	-4496	-1180	-18348	7302	-1328	-331	-23028	-640	-6484	10454	-19772	-10990	-7460	5512	14216	-884	1412	-301	-16776	3588	-2656	1976	5195	1915	-16332	8040	-672	4486	11955	449	212	129	1
4308	-9400	14552	2713	-30481	-15762	-6060	4460	-2828	5401	-6196	-1368	-20568	-908	-5752	4805	-18154	-9719	-8028	5960	14244	-631	1569	-571	-16904	3460	-2216	2045	5069	1659	-16224	7292	-624	1609	13134	1609	199	120	1
5536	-7820	8356	3244	-32768	-20289	-9664	3960	-4732	2395	-15937	339	-18492	-680	-5568	3139	-17057	-10293	-8244	4900	14284	-250	1444	-603	-16068	2812	-3328	2143	4015	1007	-16392	3728	-512	82	14117	2477	193	121	1
2972	-5184	8540	4597	-31340	-20119	-4332	-1600	-5512	1644	-22134	1354	-14512	512	-5588	2953	-14567	-9347	-8236	4916	14284	79	1320	-506	-15456	2480	-3044	969	3908	912	-14728	728	-296	1328	15090	2408	183	124	1
1688	-4496	8624	4721	-31287	-19949	-3240	-1104	-5884	5036	-27643	1241	-11236	280	-6044	2621	-9739	-8224	-7788	4852	14064	26	1036	-480	-15100	1104	-1784	1010	4024	1185	-15456	684	88	2467	13706	1973	156	124	1
-4884	-2172	10612	2065	-32768	-19100	-4672	-612	-8212	5895	-32768	3569	-9712	452	-6976	2407	-7953	-7675	-7612	5572	14060	-60	946	-968	-16448	2876	-1944	1081	4052	1416	-16292	1872	1060	4002	11794	1866	148	129	1
-7736	-2512	11696	717	-32768	-18732	-6432	860	-8480	5640	-32768	5075	-8020	1008	-8088	3500	-4797	-7759	-8160	4976	14036	41	858	-1233	-16200	2764	-2868	1066	3937	1640	-16376	2096	1012	4447	11421	1832	138	136	1
-11124	-3492	13300	-560	-32768	-18585	-9144	1848	-9556	5710	-32768	6716	-7568	1432	-8136	6128	-1525	-6119	-8304	4792	13816	19	593	-1283	-15044	2368	-3156	2651	3972	1587	-14820	3248	-1212	2653	12807	3789	138	147	1
-15348	-5052	16144	-2181	-32768	-19192	-9604	928	-11336	4097	-32768	7350	-6628	3336	-7336	9793	-75	-3523	-8464	4252	13624	-219	116	-1058	-14168	1284	-1956	4753	4531	1650	-13712	3488	-1004	1100	13842	4368	160	166	1
-17296	-6248	18740	-3547	-32768	-20407	-13588	3916	-11288	360	-32768	8435	-6876	4164	-6932	12647	130	-1146	-7568	5400	14120	-557	20	-1116	-15264	3464	-192	3454	5304	1842	-15068	2916	-356	-48	13072	2893	203	206	1
-19368	-6932	20944	-5384	-32768	-20964	-19188	7396	-12604	-6297	-32768	9397	-7788	5956	-4612	14329	72	707	-7996	5336	14024	-921	118	-1886	-16400	3472	-120	-130	6117	1940	-17164	3848	1184	-435	9435	1661	247	247	1
-27056	-6404	23416	-8049	-32768	-21091	-19424	4400	-12908	-15346	-32768	8361	-8064	5692	-1068	10160	-206	1666	-8112	5360	13920	-888	206	-1968	-15292	1776	-640	-88	7482	2256	-17372	5584	1168	144	6279	2819	250	250	1
-32768	-8496	21952	-8491	-32768	-21211	-21428	-1864	-12096	-23575	-32768	3938	-11704	888	1004	5075	-1607	-431	-7860	5220	14784	-670	1463	-2799	-17020	724	-1504	2664	8545	2664	-17848	4256	420	2313	6073	2936	251	241	1
-32768	-7784	13740	-5124	-32768	-17422	-27304	-3928	-13344	-15825	-32768	-1794	-19104	-9532	9580	954	-4980	-4953	-8004	4488	15148	-403	2839	-3321	-17040	2532	-1920	2096	9686	2748	-17192	2404	2124	2572	7769	2889	252	226	1
-32768	2808	1280	-6450	-30971	-11481	-18612	3888	-15188	-3068	-32683	-1550	-23084	-10524	24760	2941	-3641	-3679	-6740	4628	15944	-248	5401	-3376	-17680	2132	-232	-242	11326	2611	-17668	1720	3204	3434	8305	2693	247	213	1
-32768	15736	-12276	-14201	-22693	-7328	-8404	2936	-7292	-13189	-18381	-3470	-15568	-13228	31596	9837	1177	-1485	-7500	4248	16300	161	8584	-3706	-17080	428	752	-502	13802	3028	-18696	1528	3884	3819	5855	2155	227	198	1
-32768	18288	-21144	-12780	-13230	2070	-6032	-10140	-7804	-14398	3471	-4831	-17528	-9980	22480	-15431	2050	1857	-7284	4744	17324	263	12762	-4288	-18172	1368	320	-527	16792	3407	-19680	4384	5308	5029	3909	470	178	189	1
-32768	7504	-16448	6257	1601	15875	-9604	-8760	-11364	1577	16389	-2615	-12596	-6872	9268	-18523	-2167	4337	-8260	6344	17220	35	17942	-5925	-20848	700	-1004	-574	19128	4050	-20720	4896	3452	7861	2681	-510	152	176	1
-24672	-8660	3992	21120	15573	19446	-9980	-2892	-13008	17361	21538	-652	-12228	-5308	1920	-17953	2496	4020	-8384	5744	17620	48	24104	-8286	-21668	-1840	-1916	1578	20901	5248	-21140	192	2488	9232	909	-602	115	165	1
5948	-11220	32767	9127	3080	-1233	-23004	9296	10660	21059	14511	-1294	-1128	744	-18692	-18785	16027	209	-7692	5100	19448	315	31488	-10688	-23704	-1080	-276	3794	22824	5915	-22780	-1372	7280	6449	-4048	-1102	86	164	1
19008	-10368	2088	4219	32031	-8669	-32768	12248	2180	27571	13631	1597	-21028	9872	7852	7118	-3597	5061	-8560	10196	19524	289	32767	-15763	-30648	-2152	1384	4375	24231	6820	-23048	-2224	12756	1657	-5895	-4183	52	160	1
-32768	24860	32767	3222	31926	5264	-15048	2412	-11284	17625	10015	1648	-32768	-30508	5692	13927	4094	-733	-12136	11232	21112	605	32767	-22655	-30816	-3312	3716	8066	25215	8420	-24820	-5248	12036	-195	-10854	-7225	14	145	1
-20784	-5240	23336	1235	12663	9715	-14908	1040	-8316	11379	14091	-29	-19764	6660	3868	15483	13447	799	-25060	11348	21444	2489	32767	-25222	-29448	3316	-2640	11655	25586	8898	-24500	1964	2076	11713	-19337	-9671	0	127	1
-13604	-11916	13816	6766	7835	3411	-21260	-3780	-8176	1961	14796	-7899	-13388	17160	-16116	-1384	14288	4132	-24216	10324	18664	5793	32767	-27366	-24228	9612	-6088	12581	24329	6802	-23876	11208	-5344	23079	-24160	-6264	0	128	1
-12792	-8500	13312	2435	4424	1738	-13944	-100	-9136	591	12742	-5255	-9168	624	-4184	-11501	4609	1119	-32768	4852	21084	7267	32767	-24683	-19548	9368	-11896	4039	20986	4440	-22224	12020	-12748	18880	-27797	-2945	1	133	1
-8152	-1420	15060	3046	2553	1176	-17404	-1688	-8544	-6095	11006	-3534	-17868	-8216	-7036	-10316	14195	190	-27296	15076	22816	12780	32767	-22558	-14404	7848	-8772	-7328	15886	2372	-24048	8292	-12292	4411	-25275	-25	32	124	1
-7700	-5048	13632	1578	2354	389	-19444	1588	-6228	-5644	7833	-3499	-17540	-1664	-4752	-5937	10294	1916	-224	24708	26200	-788	19767	-21615	-8796	10624	-12412	-5862	10684	-659	-22724	5920	-7740	-7644	-25722	2168	91	117	1
-8260	-4912	13352	36	2513	-155	-16968	-2176	-4704	-393	6984	-2067	-16656	392	-3544	-5817	9796	2779	10740	30116	25504	-4909	15370	-20979	-6004	8608	-19920	-1294	2521	-928	-20764	7232	-1416	-13040	-24739	3227	53	69	1
-8084	-4212	13488	-1	2539	-143	-17100	1016	-4220	427	6480	-2547	-16744	-4516	-2148	-5612	9989	7065	-22016	17516	26944	-9203	-15887	-752	-4244	1432	-4936	447	-3534	-1971	-21364	4464	-1944	-7504	-20757	3224	38	33	1
-8976	-4996	12984	-767	2380	-241	-17336	692	-3688	-4461	5927	-1865	-15420	-3652	-1984	-4741	9049	6803	6164	8828	8456	-9279	-32768	16853	-8460	-12	-2888	307	-9763	-5305	-20236	2664	-3696	-3535	-17446	3110	43	34	1
-8120	-6148	12312	-658	2151	198	-16196	-1800	-2464	-6661	5131	-1714	-15800	-3928	-1740	-3822	9110	6347	4212	5256	6356	-11406	-31624	14068	-5716	5952	-5804	-4050	-17534	-5274	-16400	2468	-5876	-3024	-16523	2443	47	20	1
-8048	-5828	12504	-121	1995	719	-16460	-2112	-2072	-4213	5323	-1886	-15612	-4108	-1536	-2276	9484	5368	-1224	592	7420	-7109	-31921	11467	-2236	4736	-6368	-13310	-23452	-7309	-12000	4176	-6332	-4528	-13925	2382	46	31	1
-8296	-5564	12580	17	1906	762	-16836	-840	-3160	-919	4606	-1202	-14668	-3688	-592	850	9678	4891	-3404	1388	9552	-328	-32768	10845	-1664	1608	-8208	-13634	-27643	-9339	-9124	5264	-6784	-7337	-10342	1632	52	36	1
-8712	-4752	12772	197	2003	654	-15784	812	-3528	-1144	4337	-904	-15292	-1632	-1000	1349	10137	4929	-5692	4232	11120	3234	-32768	11261	-4172	760	-8188	-6421	-31376	-11612	-8568	4808	-6908	-7804	-9588	1714	64	40	1
-9048	-4272	12640	-112	1741	326	-15732	1488	-3368	-3631	4968	-1591	-15916	-1304	-1028	-899	10867	5357	-9348	4200	13240	4790	-32768	13286	-7040	1156	-8892	-1987	-32768	-14273	-7568	3600	-7796	-12612	-4632	2174	71	51	1
-6904	-5184	11060	-26	1027	290	-19652	-2344	-852	-9428	-4101	-1795	-15340	-2468	-1140	-4837	11604	4823	-13140	5984	15420	5598	-32768	16467	-8804	3456	-9400	-759	-32768	-15231	-7020	2684	-8304	-13196	-2174	2481	75	59	1
-7420	-5876	12172	-503	1463	801	-18788	-2444	-3468	-4740	3145	-1326	-15792	-3656	-760	-5869	11896	4540	-15096	7572	17684	4905	-32768	19457	-11328	1692	-8704	-3200	-32768	-16121	-6336	712	-8816	-11814	-327	2237	76	67	1
-9036	-5008	12832	-650	1893	787	-16356	-420	-2796	1942	7361	-1240	-15412	-4608	-1024	-4231	12324	4722	-16432	5108	19328	6615	-32768	20741	-17656	1580	-9768	-2653	-32768	-17881	-6776	400	-7512	-9218	834	552	72	81	1
-9168	-4624	12648	-787	2103	858	-15564	216	-2408	-273	6902	-799	-14144	-4452	-140	-2548	13225	4546	-19780	4356	22716	11980	-32768	17745	-20888	1172	-9828	3595	-32768	-18895	-8964	-60	-3776	-6870	393	-524	68	96	1
-8488	-4848	12976	-670	2430	1242	-15204	912	-1100	-4401	7146	-1069	-14904	-3720	772	-1665	12375	4335	-32768	7960	30576	16769	-32768	11743	-27008	6424	-14572	11883	-32768	-14830	-13484	-144	4296	-7666	-4764	32	71	103	1
-8788	-5204	12324	-334	2394	1535	-14708	-728	-368	-3070	9259	-1154	-14580	-3428	756	-2466	11302	4021	-32768	4116	24100	19063	-32768	9228	-19652	7408	-8112	18628	-32768	-9178	-19868	3264	12680	-5303	-11456	-518	83	107	1
-9064	-5416	12940	241	2758	2029	-17408	-3024	-2456	1016	10766	-910	-16372	-6096	-1768	-1331	11422	2717	-32768	4724	10244	16852	-32768	5881	-17580	6576	-8980	9988	-32768	-5047	-16124	-232	13264	627	-1519	276	93	99	1
-9104	-5148	13688	-170	4236	2384	-17744	564	-3080	1439	10780	199	-17408	-5692	-4632	-1806	9740	1706	-32768	-3888	1616	15859	-28904	7487	-20920	1376	-7448	5340	-28519	-2228	-15308	-6052	23588	-3447	4764	2175	99	83	1
-8888	-4884	14328	-809	6188	2789	-17456	1160	-2204	-645	12538	340	-17984	-4212	-1284	-2219	7494	1819	-32768	-10824	-8292	12464	-14617	10632	-10220	3456	-6160	11795	-15463	1168	-19824	-7360	27416	-10862	112	891	110	84	1
-8868	-5464	14316	-1101	8914	3403	-17152	804	-428	-1002	14783	209	-16784	-4488	3264	-6084	4550	1915	-32768	-9940	-14132	-5578	4512	7775	-6080	8728	-7804	3880	1607	5755	-17592	-1280	27408	5054	-3288	920	120	93	1
-8348	-5920	15184	-787	12590	4387	-18472	588	-1296	1129	17088	386	-18688	-3584	3900	-7742	1594	2004	-32768	-13732	-14740	-21095	22568	1481	-7776	10200	-13608	-12812	16647	6949	-17672	300	25516	8243	-2974	748	137	102	1
-8432	-6000	16600	-146	18132	5913	-21460	2720	-2120	2575	19322	252	-21396	-3772	2776	-7415	-1304	1492	-10232	-4236	29476	-15692	29670	8259	-17072	-5012	7588	-23479	23420	4914	-16016	544	11640	-10777	4178	2052	149	88	1
-8260	-5884	18380	-1189	25635	7807	-24368	5676	-1204	49	21859	-146	-23888	-6260	5508	-4336	-5345	411	-13076	-14052	16136	-5009	27879	2111	-32768	-1688	-7320	-32161	15640	1464	-12320	7724	-14796	2362	14960	5343	158	100	1
-8168	-8900	20880	-3402	32767	10643	-31836	5432	4496	-4685	24851	-205	-26996	-8472	13116	773	-13717	-1387	-27784	-12380	32767	-2742	23864	-7928	-16540	-14388	-9920	-23089	18386	6066	-22220	1280	3500	-32768	1174	-1936	165	130	1
-9408	-13900	22144	-5457	32767	19115	-32768	10064	4608	-10009	27169	-2899	-25008	-7192	19888	-11133	-26416	-2435	-24668	25456	19164	-4806	12087	-5177	-14020	5104	-9208	7932	16174	6614	-19104	20	-1636	-8699	8908	1176	182	164	1
-23492	-11884	21432	-6551	32767	25504	-30020	4292	-2004	-14884	29465	-3784	-25728	-872	9396	-2732	-20269	-1058	-9608	-7528	18620	-5820	3230	-4383	-20380	17008	-10860	1189	16379	10860	-16892	1180	-10656	1724	8157	3662	196	113	1
-29948	-12092	20340	-8917	32767	25977	-30244	-7272	-9440	-17046	29782	-392	-21768	-8724	-6436	-7757	-19167	-2334	-11984	8648	14556	-3579	1959	-2972	-15232	-2000	-7660	-6459	11401	5014	-15688	-332	-4820	15222	8353	6706	211	104	1
-27312	-4928	17476	-2534	32767	32408	-25500	-8324	-15856	-5531	24692	2842	-24536	-9004	-15508	-3548	-13324	-8078	-7776	5556	15364	-1592	2043	-2098	-17188	-1696	-7160	8175	9779	5787	-15328	5936	-3076	11472	8964	7435	229	100	1
-22020	-16528	20272	-8824	32767	27543	-17044	-5004	-8548	10541	15405	6848	-26700	-596	-10404	11987	-20281	-10304	-7560	3664	15396	-1030	1391	-798	-16764	6300	-6388	8562	7808	4817	-15360	8284	-3208	10351	10875	3308	234	126	1
10720	-24788	28472	5486	26289	28002	-11136	-6484	-14384	12456	6876	5773	-22564	-5192	-6968	16821	-22618	-10309	-8344	5116	14236	-875	1408	-496	-17572	8460	-5708	1474	6912	3594	-16172	8040	-2828	11310	10813	2003	232	138	1
-21748	-14992	24480	2020	-10940	5365	-6036	272	-21380	10633	-523	2703	-22652	-3260	-7152	12239	-19736	-11375	-7804	4412	14920	-863	1554	-344	-16492	3012	-4008	-2215	4726	1980	-16248	7652	-1656	5651	12661	1873	222	130	1
4024	-12740	18220	1515	-29754	-12924	-3920	3856	-4416	4920	-6127	1149	-21200	1664	-6872	7044	-18596	-10030	-7948	5964	14356	-396	1694	-342	-16924	1740	-3140	1287	4195	805	-15624	7480	-848	1926	14666	977	213	131	1
5360	-10776	10436	3948	-32768	-18289	-9548	4500	-3816	2322	-14955	2202	-19348	-604	-7228	4812	-17315	-10058	-8320	5204	14084	-170	1430	-730	-16148	3032	-3584	3743	3483	1115	-16264	5184	-1076	1267	15333	1901	200	123	1
4320	-7536	8736	6919	-32768	-17841	-4420	-2124	-5104	-429	-22259	2483	-14924	-176	-6652	3501	-15110	-9714	-8136	4476	14196	69	1141	-841	-15724	2612	-3192	2591	3268	1329	-16020	1376	-620	2141	15877	2778	189	123	1
-1120	-3276	9296	6147	-32768	-17355	-2612	-1716	-5800	2693	-28064	2408	-10756	416	-7248	1280	-11937	-7753	-8252	4208	14280	270	1133	-833	-15408	1664	-2488	22	3126	1328	-15016	620	784	3672	15883	2329	156	123	1
-4068	-1816	10308	2416	-32768	-17590	-3912	-540	-7480	3282	-32768	4392	-9556	1020	-7824	1419	-8120	-6590	-8032	4504	13736	168	811	-615	-14744	1296	-1340	1410	3402	1484	-15168	1320	1448	4304	13626	2327	148	124	1
-7024	-2736	11416	-435	-32768	-17328	-6364	560	-8468	2613	-32768	5982	-7484	840	-8648	3283	-5362	-6649	-7916	5276	14044	123	619	-953	-16620	2796	-1304	1592	3724	2261	-15948	1476	1012	3780	11896	2471	133	128	1
-10608	-4264	13068	-1610	-32768	-16975	-8928	540	-9684	807	-32768	7090	-7196	2676	-9312	5028	-1890	-5191	-8360	4812	13984	27	743	-1199	-15916	2696	-2128	1117	3828	2057	-15256	1480	1288	2870	12478	3409	136	138	1
-14140	-5712	16480	-2982	-32768	-17321	-10660	424	-12104	489	-32768	8150	-5608	4556	-7992	7652	40	-3198	-8364	4672	14064	-47	656	-1274	-15304	1644	-2068	2688	4373	2330	-14712	2644	1556	609	15975	4013	144	151	1
-18412	-7372	19712	-5074	-32768	-18849	-13732	3676	-12296	357	-32768	9012	-6656	4520	-6872	13062	-1111	-196	-8368	4056	13620	-304	253	-970	-13540	1400	212	4492	5357	2410	-14756	4328	1136	346	16738	3997	170	176	1
-23320	-9152	21396	-7323	-32768	-19899	-18664	7856	-13588	-7457	-32768	9022	-6676	7124	-4512	16522	-1111	935	-7692	5652	14148	-311	410	-1337	-15772	4188	868	2448	6906	2526	-18084	7768	-2348	-407	8641	3067	244	235	1
-32004	-7188	22648	-9901	-32768	-21971	-19148	2292	-14680	-17369	-32768	7514	-8348	5484	-1844	14274	-2006	1138	-8304	5424	14384	-500	1250	-2259	-16440	4308	684	1641	7022	2500	-18384	6028	132	-1929	4060	2018	252	253	1
-32768	-8064	17808	-10202	-32768	-23069	-21384	-2336	-13112	-22361	-32768	1948	-12648	-3188	2008	9851	-3928	-2705	-8104	5136	14432	-766	1930	-2968	-14864	572	-504	-748	9285	2965	-15920	2676	5180	404	7511	3166	252	251	1
-32768	-3936	8208	-7318	-32768	-18438	-23160	-3204	-13712	-12977	-32768	-1546	-20548	-8740	12360	6068	-4642	-4921	-7812	4368	15436	-535	3442	-2886	-14844	448	-288	-187	9420	3079	-16192	2284	6348	2177	9587	3475	252	234	1
-32768	3168	-4980	-6127	-28127	-12828	-18868	-3980	-11752	-5665	-28872	-2809	-22000	-8980	24108	4059	-2540	-1645	-7908	4192	16044	-75	6551	-2988	-18328	1224	780	325	13458	3556	-18724	12	3264	3920	8060	3071	248	222	1
-32768	10532	-16992	-4752	-14545	-6967	-9644	740	-8328	1879	-14934	-3039	-16008	-16300	32400	4256	3630	-570	-7496	4128	16876	125	10009	-3409	-17264	1128	124	-1157	15862	3917	-19516	20	4364	4802	5074	1750	226	208	1
-32768	19220	-20844	-5807	-38	-5241	-3064	-4164	-8864	-515	6065	-2186	-16404	-9112	18836	-10682	1651	1599	-7156	4668	17212	234	14570	-4109	-18532	772	-260	-540	18751	4349	-19984	2880	4700	5944	2781	371	191	197	1
-26828	-852	-5544	4777	14514	-447	-8940	-6760	-11136	9092	19461	-1538	-12592	-4012	7284	-16325	-786	3715	-7720	6376	17716	-125	20239	-5813	-20692	124	-712	763	20925	5382	-20040	4456	3232	8648	1761	-699	160	183	1
-18584	-488	6460	17334	20384	5028	-14256	-4108	-3724	17668	22155	-1734	-9788	-6316	9248	-28260	-1408	1254	-8252	6076	18440	-122	27195	-8561	-20980	40	-716	1100	21192	5563	-21412	2340	4596	9456	-877	-1077	106	177	1
14508	-11896	27944	714	19265	-13516	-32768	17096	16060	32767	9427	589	-5036	2448	-10820	-14976	12140	380	-8340	5912	20808	471	32767	-11994	-28660	192	3832	4954	25254	6693	-24944	2520	11912	4945	-7155	-1478	48	170	1
-23580	14352	18556	11550	32767	9687	-25100	5012	-11252	29854	14735	1531	-29360	-12680	14004	14294	-7002	2114	-9488	11616	20964	107	32767	-20186	-31632	-2240	1788	5260	25130	9115	-23560	-4032	10496	2300	-9095	-4265	43	165	1
-31164	-7624	30032	5172	11766	9358	-7324	8032	-8236	6556	16011	-2049	-28052	-10144	5036	16240	6735	902	-18700	12352	22804	2249	32767	-25544	-31804	-2660	900	9268	25887	10676	-24968	-7784	9352	-1752	-17624	-10371	1	149	1
-20576	-23216	7796	8349	1673	2137	-19884	-3736	-12480	1127	17689	-9034	-17708	15840	-9576	8774	21661	2519	-22544	10848	20136	5609	32767	-27444	-28856	4648	-4912	13597	24904	10284	-26500	3052	-2888	17154	-21990	-7286	0	132	1
-9304	-4464	13764	5089	2049	2063	-17748	1156	-10332	13000	14692	-5988	-9884	9888	-9056	-4445	7051	2017	-15688	6240	14804	3564	32767	-29290	-21712	9916	-10792	11122	21906	7841	-24044	8620	-11180	31602	-29073	-4298	0	138	1
-8800	-216	15976	3956	1976	2591	-13844	4340	-10348	755	11839	-3347	-12592	-4384	-4748	-5764	9378	75	-32768	10936	22012	14372	32767	-22346	-16012	5636	-12888	-4571	18692	7844	-24756	4452	-15640	19791	-27591	-1197	1	133	1
-8504	-3800	14500	1540	1693	821	-18868	3980	-8440	-10105	10240	-4226	-19180	-4652	-8696	-5222	11563	1521	-6664	14480	25096	7687	23873	-19176	-8948	9704	-15200	2958	11223	4977	-25072	2180	-11864	4289	-26638	742	55	128	1
-8440	-5464	12908	550	1483	16	-19444	-6248	-7048	-5202	8006	-2468	-18392	-1108	-4776	-4033	10419	4275	-32768	18212	24156	1500	-1544	-11094	-8620	4640	-17184	5808	2429	4570	-23292	7552	-2164	-6725	-27452	1939	27	57	1
-7996	-5324	13012	880	2092	601	-17528	-3132	-6960	5060	6207	-2124	-18112	-5400	-4476	-3824	11040	7550	1140	11040	19540	2150	-27115	8911	-5192	2924	-6956	11307	-4222	3049	-23300	4888	-2480	-553	-21981	2464	27	35	1
-8700	-4352	13668	105	2487	-38	-17196	3288	-6020	2077	5385	-875	-18000	-5500	-4128	-3317	11144	7761	10580	9736	9392	3036	-28753	15771	-9292	-792	-2424	5806	-12703	512	-21552	2644	-4596	4902	-19636	2306	46	31	1
-8892	-4816	12940	-575	2479	-187	-16828	1684	-5116	-4710	4114	-542	-16368	-2076	-3532	933	11940	7162	5900	6264	8660	1137	-24758	17653	-9196	268	-3004	4848	-14469	410	-16696	2952	-6688	5144	-18386	1469	51	27	1
-8796	-4860	12604	-590	2099	-97	-15676	-676	-3920	-4831	4071	-1246	-16160	-1648	-2140	1445	12658	6940	-288	3728	9648	-210	-24574	17475	-2384	4156	-6904	-11269	-25488	-1763	-12316	3424	-7124	2061	-16166	1439	49	23	1
-8416	-4556	12880	-684	2024	-73	-16612	-688	-3252	1032	3746	-1049	-15704	-2348	-476	4344	12763	6963	-6368	1100	12852	676	-29942	18067	-1696	872	-8704	-11853	-29711	-4045	-9464	4056	-7548	-2002	-12679	1957	52	37	1
-8544	-4268	12876	-880	2274	69	-16776	1932	-3208	3608	3224	-443	-15180	-352	-204	7166	13415	6178	-7272	752	13504	2850	-32768	19055	-2800	-8	-9472	-5804	-32768	-6515	-7292	4968	-8196	-4172	-8821	1371	58	44	1
-8792	-4208	12520	-947	2082	178	-15260	2708	-3136	1332	3175	-1060	-14860	592	-120	6743	14368	5972	-7852	-472	14384	5049	-32768	19655	-6412	664	-8644	-2759	-32768	-9240	-6560	3992	-8928	-6975	-5398	1412	63	51	1
-9060	-4128	12388	-744	1843	19	-14204	812	-2924	-141	4051	-2067	-15104	-548	484	1950	15223	5648	-10704	-44	16172	6807	-32768	20272	-6712	560	-8904	-4029	-32768	-11574	-5240	2596	-9264	-9035	-2439	1782	70	61	1
-8516	-4724	12280	-779	1623	-117	-15588	732	-2048	-181	4965	-2156	-14492	-2368	2032	-921	14830	5473	-13100	1532	19092	6902	-32768	19434	-9672	2236	-9528	-4680	-32768	-13679	-3680	1860	-9712	-11308	-712	2348	64	71	1
-8796	-4860	12280	-648	1638	424	-16540	-124	-2000	-936	5464	-2245	-15288	-2924	1128	-391	15552	5052	-13864	-988	21016	8238	-32768	17433	-10532	2160	-9248	-4345	-32768	-14114	-5120	1472	-9132	-10640	361	1186	60	81	1
-8780	-4884	12508	-484	1743	851	-15828	-428	-1896	-917	6012	-2063	-15292	-3832	-2804	-56	15779	3548	-24516	-1940	29300	13162	-32768	12353	-19980	196	-10516	5172	-32768	-22094	-8332	4496	-5148	-12270	-1757	243	61	95	1
-9172	-5020	12444	-153	1808	1026	-14956	-768	-1244	-482	7341	-1757	-15376	-4640	-4620	1015	12650	1840	-32768	9292	30552	14062	-32768	4995	-25864	4216	-15988	18701	-32768	-17911	-14048	5716	2856	-11852	-8319	30	75	102	1
-8704	-5416	12652	-112	2006	1167	-16004	-560	-2064	-367	9082	-1462	-16636	-4252	-1936	30	7814	1335	-32768	5628	21396	15921	-32768	5055	-21992	10140	-12636	20800	-32768	-10442	-16100	3728	10044	3747	-9840	-1000	91	102	1
-8996	-5292	13452	-347	2946	2109	-19440	384	-3924	-1119	9892	-1309	-19052	-3440	-520	-3918	7402	1014	-32768	4476	5428	15186	-32768	5128	-20424	3512	-6512	13295	-32768	-5614	-15384	-2452	18644	6594	2069	-2830	94	95	1
-8568	-4708	14228	-590	4733	2478	-17760	1496	-2456	-1747	10603	-1095	-17908	-2028	-1040	-7516	7037	911	-32768	-8900	-3848	15930	-23704	8652	-18836	4152	-10756	1106	-25882	-2943	-23940	-8756	30820	-5882	6378	-84	91	80	1
-9072	-4776	14652	-846	7140	2720	-16984	296	-1152	-1996	12576	-682	-17540	-4516	1308	-8183	6232	791	-32768	-12924	-14772	8054	-7162	9840	-7256	-28	-1324	7317	-9999	435	-19840	-7668	32767	-16603	1405	1362	96	75	1
-8988	-5044	14680	-917	10377	3324	-17836	1000	16	97	14632	-52	-17184	-5196	3248	-5180	4524	1435	-32768	-15744	-13776	-3870	4656	4053	-1304	11060	-8724	695	9668	4431	-15740	-916	23852	7132	694	550	105	111	1
-8680	-5732	15196	-397	14086	4442	-18548	972	-1308	2130	17189	88	-19176	-4572	2424	-6084	944	978	-32768	880	-4664	-21874	22100	-3209	-12392	10780	-13272	-12980	19741	7007	-15412	2460	11132	11950	3655	-570	118	106	1
-8768	-6492	16404	-285	19228	6283	-22052	3392	-3396	1335	19273	-299	-21664	-3916	1088	-8494	-2809	242	-3588	9408	32767	-17542	16170	4481	-21172	-3884	2768	-19537	19752	4214	-10928	744	4832	-9071	4001	198	135	117	1
-8600	-4860	17968	-1452	26254	8396	-24096	5572	-3656	-2021	21281	-699	-23816	-5216	6040	-2738	-6361	-555	11360	-7348	10592	-6227	17794	6906	-32768	-7048	348	-24611	11992	2467	-6440	9204	-17000	8479	12065	3892	148	152	1
-7464	-11044	19096	-3432	32767	10911	-30312	6540	7124	-5209	23484	603	-24816	-8968	11412	1768	-12624	-1651	-21040	-14520	30952	-5920	32767	-6983	-19864	-7344	-8300	-25694	14861	3614	-31780	6596	11736	-32768	5968	812	162	139	1
-8616	-9800	18740	-4283	32767	19901	-32228	8700	4276	-7458	25301	-1848	-22924	-6412	23284	-5386	-27883	-3565	-20080	4328	26628	-2034	14139	-11805	-16680	-2612	-7552	-3427	14063	3825	-21416	-4504	952	-13880	9228	-1629	169	149	1
-20932	-11856	21444	-4230	32767	25831	-30264	6704	1160	-12842	28228	-3200	-24680	508	12784	-2857	-18607	-1296	-8788	7000	14636	-5476	2833	-4968	-21236	9340	-8820	6343	16190	8444	-17784	-6752	-1100	-3573	12300	485	180	133	1
-31020	-13812	20180	-6270	32767	26203	-28848	-4968	-9548	-14477	30042	-770	-23324	-5056	-3736	-8226	-20613	-2213	-14428	9448	14712	-3316	2715	-2421	-15260	1644	-6872	-303	11473	7489	-13300	-132	-7580	19435	9156	5371	196	116	1
-25992	-10808	12584	-1142	32767	30688	-23188	-6116	-16400	-7813	26422	1248	-21672	-8020	-14900	-9891	-11464	-6877	-7636	2456	15952	-1992	702	-1501	-15276	3932	-5356	6291	10858	4820	-12544	10796	-6512	19231	8992	4038	209	106	1
-27344	-13572	19416	-8388	32767	25469	-17660	-7444	-12292	7871	16231	5568	-26820	-2268	-11452	2961	-18749	-10385	-6976	4256	14364	-1257	284	-1216	-17420	3520	-5272	7467	9426	3922	-15268	9260	-3704	3464	8952	3413	219	116	1
936	-18652	25100	2022	27943	25215	-11020	-5084	-16356	12732	9168	4944	-26628	-1232	-11152	7691	-19980	-10577	-7932	4752	14312	-622	959	-771	-17300	5764	-5604	4705	7745	1778	-16512	4708	-972	4776	11407	1891	220	145	1
-24792	-18332	20184	5377	-1706	8191	-7100	1888	-18052	13233	1016	1733	-23976	-4056	-6508	15978	-21632	-11461	-8096	5180	14648	-725	1612	-429	-17476	5496	-5200	-595	6439	1002	-16984	4544	-1864	6202	11339	1344	213	133	1
-2436	-10316	20176	4770	-27210	-10830	-3212	1172	-9196	4554	-3827	-283	-22068	-416	-6560	8604	-19647	-10309	-8340	4976	14428	-505	1403	-130	-15892	1212	-3500	933	5751	747	-15860	7440	-912	4742	12407	-295	204	119	1
5968	-9016	11336	4083	-32768	-18445	-7824	4324	-2908	4394	-12105	244	-20368	-524	-6384	3641	-17369	-9934	-7552	5928	14152	-534	1379	-357	-16580	2368	-2372	5789	5422	225	-15204	6248	-936	3456	14435	813	191	121	1
5512	-5588	8956	5160	-32768	-19155	-8260	4664	-3592	3596	-13702	536	-15904	12	-6404	3353	-16204	-9642	-7584	5804	14388	-353	1319	-1129	-16740	3916	-2788	3318	4473	-14	-15604	4488	-1008	1745	15325	1270	187	121	1
1384	-1700	9376	5222	-32768	-18156	-3436	244	-5220	3138	-26485	2313	-12328	420	-5868	2610	-12118	-7674	-8104	4528	14388	-180	1469	-1470	-16708	2076	-3440	-688	4139	4	-16068	984	-612	1683	15385	811	162	123	1
-4072	-544	10612	2943	-32768	-17690	-3276	1564	-7200	4593	-31462	3443	-9944	2296	-6764	1602	-9064	-6299	-8084	4664	14272	-364	1363	-1456	-15044	660	-3264	-753	3924	116	-15744	0	-160	3355	14157	563	145	121	1
-7128	-1228	11816	794	-32768	-17388	-4568	1704	-9148	2145	-32768	5241	-8068	2536	-7628	1225	-6914	-5827	-8216	4868	13896	-365	986	-1466	-14832	1080	-1888	1220	4195	714	-14952	-380	560	1795	13456	1265	141	129	1
-8804	-1712	13040	-853	-32768	-17139	-7624	1456	-9568	-1067	-32768	6236	-7948	2496	-8512	1465	-3435	-4072	-7976	4936	13892	-110	1028	-1574	-15520	1636	-516	2332	5041	1278	-15328	1808	1596	-1686	14997	2182	144	147	1
-12172	-4180	14964	-2273	-32768	-16640	-10456	868	-10140	-1489	-32768	6786	-6568	3624	-7652	3905	-1164	-2126	-7888	5072	14104	-316	813	-1891	-15588	2108	-1196	1368	5976	1481	-16100	3936	2400	-4119	16068	2635	191	192	1
-15488	-5880	18568	-3650	-32768	-16457	-13776	2468	-13648	-2046	-32768	7560	-7204	4476	-7140	7654	-1517	663	-8168	4600	14224	-686	1008	-2162	-15708	2592	-1924	-290	6700	1402	-16436	4932	656	-3490	11777	2481	231	238	1
-21932	-6236	22208	-7273	-32768	-17228	-17116	8292	-13524	-4326	-32768	8415	-7760	5880	-5360	13836	-2257	1191	-7972	4908	14396	-835	1231	-2344	-15560	2192	-2372	-1017	7417	1309	-16732	5276	-4892	-527	7982	1466	234	242	1
-32048	-3856	22180	-11070	-32768	-17163	-16660	5988	-13532	-17765	-32768	6311	-8304	7872	-2408	14059	-2400	1465	-7988	4880	14360	-725	1815	-2715	-16488	1544	-2848	-692	7968	1409	-16476	3480	-2396	-214	7908	1049	226	233	1
-32768	-4300	18972	-10647	-32768	-16993	-20688	-2504	-14204	-27301	-32768	3310	-10596	-1788	444	9067	-4895	-2493	-7752	4424	14976	-596	3082	-2729	-16556	552	-2436	1276	8693	1629	-15744	2240	2268	-1205	9492	1914	222	221	1
-32768	-3384	9652	-5878	-32768	-11925	-27256	-2336	-14832	-19672	-32768	-2094	-18376	-8492	10200	-1343	-6656	-6119	-8144	4692	15324	-592	4780	-2700	-15968	2312	-680	1207	10307	1561	-16640	3008	3248	705	10166	1760	221	210	1
-32768	5224	-3468	-4612	-31812	-5377	-17176	-4240	-13056	-10018	-29733	-2842	-24140	-7580	23112	-1209	-2097	-3162	-7776	5644	15948	-1240	7518	-3723	-18304	2236	1040	-1274	12352	1637	-19848	1752	4420	921	9255	1738	220	198	1
-32768	13456	-15176	-8226	-23363	-2306	-9712	1136	-13480	-296	-15936	-2923	-13988	-12228	31288	-4147	2019	-751	-7628	4684	17152	-1430	11345	-4900	-18696	-40	360	-1366	15031	2168	-20596	1600	6264	1973	6590	1429	202	187	1
-32768	19420	-19044	-10970	-9659	-2749	-5800	-2440	-8892	153	3923	-2828	-15100	-10436	17740	-14564	676	2965	-7856	5004	17496	-1690	16107	-6057	-19480	-576	-152	458	17602	2748	-20288	1256	3588	4022	4231	-204	172	178	1
-32768	-3980	-16968	8644	8842	5155	-10808	-4016	-14088	7442	18922	-2424	-14076	-7104	7848	-16933	-2412	5557	-8604	5604	17812	-1811	21422	-7546	-19796	292	912	1342	20387	3848	-20856	1760	3364	7435	2751	-1885	131	169	1
-15084	888	17436	11124	15359	5123	-14292	-3656	-4108	13077	22647	-402	-5696	-9944	-1364	-25406	9408	1802	-8584	7440	18584	-2489	27364	-10625	-22240	152	1852	898	23210	4271	-22340	2672	7800	7463	-329	-1971	88	161	1
2728	-7304	14632	-2781	15157	-6934	-32768	18700	8980	30218	11511	-1709	-13860	11252	-4324	-5778	7205	3676	-7992	8848	21724	-3907	32767	-15225	-30344	2252	7248	3697	26324	4068	-28568	4028	16636	-831	-10001	-1898	33	152	1
-20028	15500	25572	5846	32767	7673	-17776	7656	-7088	17521	14321	557	-25548	-16004	4132	11904	1510	2801	-11828	18272	19824	-6639	32767	-26736	-32768	-1952	4476	2068	26194	6973	-23296	-2596	10360	2057	-13363	-4746	1	151	1
-26004	-4924	22280	4085	10861	11143	-12056	-5620	-13600	3186	15314	413	-21292	-1424	3208	10271	7147	936	-22456	9812	23568	-2242	32767	-32556	-31668	-1148	2144	5905	27360	9517	-25412	-10420	6536	-677	-18042	-10070	0	135	1
-13420	-6288	14664	7351	3999	4438	-21540	-4184	-10752	4124	15512	-8065	-17144	13952	-17972	1639	16895	2604	-23216	10036	22380	-1477	32767	-32768	-27892	9060	-2828	9031	26586	7452	-25028	9436	-1108	9067	-27205	-5500	0	128	1
-12628	-7060	13160	4269	2340	2532	-16800	2868	-11036	8433	10979	-4115	-12416	3208	-3272	-6899	6915	726	-32768	18096	23492	2231	32767	-31750	-20188	10324	-12972	-4932	23996	5734	-24740	13868	-11000	28131	-29632	-3225	0	77	1
-6988	-1348	15340	2553	2369	893	-15516	3392	-8200	-4133	9406	-2379	-18912	-5548	-4880	-6268	12333	2420	-23988	21860	27660	-5946	24701	-29094	-14816	12088	-17204	-1750	17631	6926	-25500	4516	-17560	9686	-25145	933	0	62	1
-8580	-3224	14432	636	2402	221	-19772	296	-7200	-9712	8968	-3812	-18400	-804	-4596	-4214	11246	3978	3584	14224	9716	-17307	14008	-19763	-11104	5996	-11964	-6104	7790	3926	-26124	5488	-8648	-7047	-30114	2461	40	45	1
-8492	-5252	13444	113	2225	-207	-19632	-916	-6956	-9112	8359	-3910	-17344	-1472	-2980	-5569	10549	5959	-10436	13812	24352	-4574	-11958	14804	-6032	596	-11032	905	2150	-1981	-22268	8356	-1864	-12469	-26281	5011	62	43	1
-7988	-4788	13336	301	2049	43	-16784	-152	-4524	2075	5163	-1771	-15780	-4908	-3536	-5159	9985	7373	9036	17432	11664	-7039	-20019	26102	-7292	128	-2344	2184	-4496	-4431	-20836	548	-1988	-7249	-21767	5701	82	57	1
-8168	-5480	12840	252	1893	225	-17484	1548	-3236	-5092	4591	-1024	-15408	-5104	-3060	-2603	10061	6906	5260	8304	9568	-13115	-20740	26307	-7880	8568	-5364	-3557	-13793	-4322	-19332	3776	-4904	2015	-19278	4640	86	63	1
-8392	-5512	12856	482	1833	882	-16716	-1056	-3208	-8206	3874	-1358	-16456	-3052	-2068	-925	11050	6138	1432	-740	10304	-10346	-23656	23781	-3344	7244	-7512	-18553	-20657	-5135	-14884	4328	-7860	1820	-17006	4320	89	59	1
-8500	-3944	13332	-78	1733	593	-16272	-424	-2820	-3596	3705	-1156	-15904	-1536	-64	125	11606	6378	-3292	-1868	12828	-3868	-29826	19928	-1288	2220	-8780	-21489	-26237	-8411	-10100	5260	-8016	-2651	-14260	4226	88	53	1
-8352	-4016	13336	-173	1707	425	-16424	1768	-2592	-412	4014	-492	-15272	-896	496	560	11614	6429	-5904	-208	13004	-433	-32768	15501	-712	48	-9696	-14317	-30567	-11068	-7944	5500	-8308	-8102	-10373	2938	89	66	1
-8580	-4476	12736	-807	1804	-2	-16068	968	-2644	-1537	4304	-714	-15340	-1664	-336	-25	11733	6656	-6756	-1532	12868	2669	-32768	12935	-3472	-1260	-8212	-8154	-32768	-14144	-6784	3632	-9852	-11867	-6340	2143	88	68	1
-8264	-4912	12564	-567	1546	588	-15764	-400	-2312	-3169	4834	-1226	-15528	-2624	-780	-3268	12920	5965	-8676	472	13252	6414	-32768	12910	-5804	-884	-9084	-2186	-32768	-17031	-5644	2508	-10180	-14180	-3185	1970	88	70	1
-8524	-5012	12332	-228	1194	1178	-16068	-608	-1876	-3556	5303	-1433	-15164	-4024	272	-5362	11803	5253	-12004	4340	17048	6916	-32768	13795	-7676	904	-10044	725	-32768	-17962	-4660	372	-10624	-14391	-62	2317	89	76	1
-8512	-4824	13148	-304	1270	1385	-15948	780	-1456	-2862	5846	-1197	-15384	-3520	948	-4979	11139	4545	-14192	2808	19700	7406	-32768	15953	-14120	976	-11360	3145	-32768	-20051	-4020	-472	-10376	-13259	1365	1535	90	83	1
-8500	-4164	13188	-347	1649	1272	-15592	1168	-448	-3137	7122	-1026	-15296	-2432	2332	-1726	12763	3918	-18052	1340	23316	12445	-32768	14563	-21000	-920	-11196	8763	-32768	-21130	-5028	-816	-9916	-12522	1349	929	82	98	1
-7932	-5300	12916	17	1919	1513	-15904	-484	-120	-1291	8517	-1030	-15492	-4292	1452	-2505	12424	4047	-31172	6040	29940	18865	-32768	8590	-25456	3892	-15532	13056	-32768	-17814	-11008	-1136	-3196	-15539	-1939	-771	81	107	1
-8596	-5816	13088	523	2345	2612	-16712	-1388	-1492	317	9578	-1092	-15576	-5068	-192	-1435	12226	3352	-32768	6304	26132	22135	-32768	9213	-22268	6080	-10440	17663	-32768	-11052	-17280	872	7524	-7936	-7603	-1381	89	110	1
-8600	-4688	13664	383	3149	3179	-17004	1168	-2532	157	10415	-737	-17240	-5284	-4260	-1257	11666	2178	-32768	3080	12884	17850	-32768	11178	-19516	7776	-10476	10432	-32768	-6430	-20536	-1808	13696	7017	-2113	-4535	100	120	1
-8756	-4172	14276	8	4761	3124	-17320	1004	-1952	-630	11872	-348	-17872	-4780	-1684	-2150	9336	2256	-32768	-5716	4412	9612	-28742	11755	-21164	6264	-9628	-561	-30231	-5442	-18600	-5696	28648	-2278	3272	-887	105	99	1
-9064	-4884	14672	-519	7177	3408	-17964	280	-436	461	13596	299	-17376	-5560	3716	-4045	7391	2945	-32768	-17736	-9120	3442	-15678	9977	-11408	1936	-3936	4250	-17041	-2697	-21288	-8716	32767	-14919	180	1978	110	83	1
-8616	-4688	15064	-10	10536	4283	-17668	796	-76	2359	15791	617	-17464	-4692	4268	-8356	3741	2761	-32768	-25672	-16568	3380	-2864	-229	-556	6180	-5504	3327	3319	4022	-17128	-2696	28068	6444	1822	1027	113	90	1
-8224	-4260	16108	903	14450	5103	-17956	2176	-776	3380	18278	605	-17592	-3720	3220	-6487	1148	3430	-32768	-8684	-14112	-14134	17629	-11275	-9708	6716	-12708	-7291	18415	6526	-18172	-1208	14148	18018	2363	-1764	129	105	1
-8340	-5164	17336	1051	19702	6150	-21200	2920	-1212	3925	20968	796	-20700	-5436	1128	-3897	-1744	1721	-8424	-492	32767	-10558	17984	-6651	-17988	-6648	4644	-8391	22506	5868	-14280	-7876	10616	-1106	5783	-3066	144	107	1
-8256	-6500	19144	528	27014	8773	-25508	5036	-608	2256	23332	98	-24000	-6988	5944	-720	-4837	93	-340	536	4656	-895	22313	-5322	-32768	-6528	-6104	-7462	15419	4613	-12056	320	-13156	15224	7543	1619	157	132	1
-7404	-8804	21824	-1153	32767	12587	-32768	3948	3532	-2947	25670	-257	-27460	-8908	15320	4700	-12092	-1329	-25484	-1924	30960	-1603	27754	-4385	-13908	-3376	-6404	-10619	17306	6412	-24704	10456	1912	-18952	2444	-4261	170	126	1
-9232	-16360	22388	-2538	32767	22388	-32768	9440	5252	-8826	27215	-3233	-25588	-7124	21224	-10326	-28314	-3147	-9876	4624	17052	-357	18057	-8686	-14004	7704	-10512	701	14403	5435	-16428	7300	-6168	216	9455	2219	181	159	1
-22256	-10676	21348	-3910	32767	29701	-31380	6576	-660	-17483	28739	-5262	-26832	-956	9976	1097	-19646	-1155	-22648	3016	14840	-4275	1844	-3480	-22144	17152	-12868	-1054	16107	7527	-16880	-440	-5316	-1967	8364	5088	191	137	1
-30432	-9328	21024	-7297	32767	28963	-28344	-7544	-9644	-22634	31041	-877	-22360	-8920	-9056	-7183	-16376	-2096	-11684	8036	15388	-2908	2234	-2491	-17084	-3336	-8776	-4970	9720	6161	-16500	-232	-9564	14692	9994	4021	205	123	1
-22808	-6052	16820	-2343	32767	32767	-23872	-8452	-15056	-10675	24583	3528	-22624	-8728	-18480	-7813	-11190	-8641	-13472	8828	14532	-2576	2130	-1914	-15244	-1608	-4028	9812	9554	4822	-14700	6016	-3328	10414	9760	4810	209	113	1
-26016	-16304	21956	-6913	32767	28899	-16124	-8968	-8612	10432	15282	9640	-26240	-852	-12464	14296	-19165	-10583	-7952	4580	13932	-156	1303	-1058	-18440	5080	-4420	17170	8095	4413	-15764	7840	-2348	11121	9724	2410	215	118	1
14464	-28108	26308	11056	19726	27734	-8996	-8596	-15432	15064	6104	6653	-22828	-5528	-7560	21205	-22079	-11400	-8920	6088	14128	-391	1647	-824	-17792	10512	-4928	5704	6615	2517	-16068	6632	-232	9679	10738	1448	219	118	1
-18532	-11552	23700	8419	-15983	801	-7168	764	-19484	16877	-1404	4181	-21764	-3604	-6736	17108	-18568	-12797	-8612	5440	13952	-1279	1251	-562	-16156	5428	-3660	-3037	5338	818	-15648	8184	-2056	8152	13116	1425	209	110	1
7772	-11968	15548	5938	-28064	-17436	-5552	5408	-1336	11184	-6629	3299	-21624	-112	-8056	10922	-16845	-10954	-8360	5760	13688	-1710	1121	-614	-16368	1852	-2636	-783	4475	-24	-14612	7628	-1216	4461	14714	1136	198	115	1
7752	-10312	9256	7935	-28542	-21079	-10600	5700	-2756	7090	-15954	4903	-18412	-776	-7476	9343	-16510	-10728	-7928	5916	13896	-1366	840	-946	-16804	928	-2360	5575	4101	431	-16500	4176	-432	4111	15175	1915	186	113	1
2568	-5984	9400	9796	-28005	-20430	-4356	-2440	-5824	4261	-22577	6336	-14236	228	-6628	7452	-14565	-9811	-8124	4376	14484	-674	902	-1129	-16632	2728	-3356	5164	3707	521	-15704	1844	-188	4775	15310	1705	179	116	1
-2528	-3840	10220	8729	-31090	-20048	-2532	-1084	-6668	5408	-27963	6136	-10804	1024	-7368	5522	-11391	-8151	-8200	4428	14232	-372	779	-1037	-15208	2480	-2312	303	3588	356	-14820	1176	604	5032	14883	1148	151	121	1
-6288	-3440	11748	6223	-32768	-20281	-3404	-1788	-9192	6384	-32768	8016	-9384	1796	-8028	4954	-8505	-7177	-8472	4816	13804	-611	393	-1134	-14464	2128	-1788	-765	3805	427	-15272	2688	660	3169	13595	1178	144	126	1
-9144	-3412	12264	3632	-32768	-19998	-5772	60	-9932	6581	-32768	8987	-8148	2256	-9032	5287	-5505	-6558	-8120	5096	13744	-960	-349	-1155	-15456	2228	-1464	122	4237	997	-15076	3420	664	344	13369	2952	131	127	1
-11144	-3756	13100	696	-32768	-19404	-9652	916	-9420	4008	-32768	9838	-8272	3616	-8892	7508	-167	-5116	-8500	4472	13912	-1146	-568	-1095	-16084	3008	-1436	585	4641	1042	-14756	2864	904	-1715	14319	4005	130	135	1
-15080	-6092	16204	-1657	-32768	-18541	-11384	1392	-11964	1724	-32768	11219	-7168	5036	-8872	7747	95	-2483	-7772	5180	13848	-1292	-879	-1557	-15004	1420	-268	645	5310	1232	-14756	2392	1288	-3717	16511	4154	136	142	1
-20876	-7388	20572	-4492	-32768	-17715	-13528	4632	-13380	-2334	-32768	11197	-7792	5076	-6916	12154	-85	-117	-7564	4736	14020	-1601	-896	-1633	-13876	96	1400	1121	6805	2154	-15788	3228	1896	-3266	14474	3007	139	148	1
-26012	-7860	22992	-9664	-32768	-17086	-19012	10308	-14808	-14687	-32768	9053	-7960	8016	-3604	14658	-594	1088	-7512	5048	14788	-1108	181	-1840	-17280	1580	532	-884	8224	2394	-19056	5716	420	-2108	7999	1371	151	159	1
-32768	-5748	22300	-16538	-32768	-16059	-19868	3952	-12984	-29013	-32768	3929	-7740	8056	-212	10727	-1314	1291	-7868	5300	14720	-953	1406	-2571	-17340	3068	-1168	-2553	9410	2581	-18216	3752	972	-2521	5796	1724	180	181	1
-32768	-7144	16528	-20061	-32768	-14647	-22216	-3968	-12320	-32289	-32768	-3534	-15024	-752	3588	5026	-7830	-1973	-7872	4428	14972	-918	2653	-3376	-16100	792	-2492	-1715	10077	3107	-16120	1668	1664	-599	9032	2980	251	223	1
-32768	-272	8948	-18296	-32768	-9674	-25096	-308	-15072	-19297	-32768	-9486	-23816	-9216	13272	862	-9729	-4610	-7696	3968	15888	-469	4635	-3362	-17496	692	-1220	1026	11880	3336	-16828	1448	2488	2288	10881	2614	252	237	1
-32768	11376	-1064	-18496	-27562	-10668	-16708	-4060	-10788	-12000	-25943	-4607	-20024	-9536	27356	-4912	-6074	-3133	-7548	4468	16720	-480	8813	-3410	-18684	824	524	-237	14026	3411	-19940	1520	2320	3726	7767	1728	252	225	1
-32768	6968	-14872	-3514	-16499	-10472	-8516	-5240	-11316	1759	-11281	-2234	-13304	-15716	26016	-12657	2915	-2390	-7192	4708	17716	-741	13390	-4266	-18088	856	468	-924	16852	3872	-20788	2508	4984	2662	4942	589	227	213	1
-32768	20696	-17204	8818	-1123	-5456	-5020	576	-11212	7349	5432	-2187	-12756	-13812	12584	-13366	1435	1397	-7536	4752	18036	-852	18505	-5676	-20124	-84	884	-231	19758	4666	-20756	3720	5108	4470	3114	-342	197	203	1
-32768	10120	-13988	12989	19924	2333	-12192	-3792	-15112	13208	18842	-443	-11540	-8020	4532	-13431	-380	2289	-7860	5764	18564	-1213	24845	-7785	-22324	1128	-120	272	22551	5533	-21352	2528	4944	6453	806	-797	169	189	1
-17752	-4128	29672	11754	21159	4632	-15532	480	4116	19403	19521	1461	-10904	-9880	-1136	-25549	7699	608	-8100	7760	20212	-1771	32568	-11638	-25776	844	-1368	1051	24156	6417	-23928	1344	8380	7053	-2186	-1321	121	180	1
204	-5932	13744	-1734	14620	-3641	-32768	14772	7136	27065	11714	-1024	-16444	9592	-1716	-4474	1766	6562	-9088	13628	21968	-3073	32767	-16946	-32768	-2072	5740	3778	25855	6610	-27688	2964	17892	-249	-11402	-2856	67	174	1
-24560	11888	25384	8432	32767	9647	-20348	7028	-7652	18290	12493	569	-22604	9728	7340	580	-2830	7474	-13868	13048	22812	-3396	32767	-26178	-31296	-508	4088	4888	25910	8830	-25068	-4064	11176	-295	-13868	-5167	53	160	1
-13168	-4524	20144	3355	16115	10037	-10648	2720	-8644	4600	15165	750	-21720	-1536	536	3982	10623	3451	-22524	11644	26084	1346	32767	-29281	-32768	168	2632	8669	26858	9771	-23444	-2896	8852	-748	-19722	-9900	0	135	1
-28172	-24016	9304	5378	1410	1447	-20664	-5084	-14196	166	16050	-7313	-16652	14264	-9396	4663	15916	2535	-14540	3248	16588	3946	32767	-31762	-26888	9476	-4276	9323	25813	6656	-25728	9208	-1592	15451	-28409	-5655	1	134	1
-6992	1160	17052	4399	3001	2347	-16224	2688	-8796	9219	12801	-4615	-12904	3568	-6124	-9238	6275	1678	-17936	4444	17088	5448	32767	-31090	-19852	8532	-12308	386	22280	4847	-22644	13024	-8980	23833	-28888	-3342	7	133	1
-8408	-3400	14516	3375	2566	1422	-13984	3928	-7068	-4606	12202	-3626	-15224	-2956	-7104	-9701	11862	1562	-22444	22400	28620	499	31149	-27007	-14532	11132	-10588	-721	16458	4432	-24592	7468	-16292	12321	-26164	-812	41	131	1
-9096	-5780	13624	1522	1770	1180	-18816	4	-6428	-10885	11162	-3993	-16204	-3288	-6260	-11079	10313	1857	2892	17892	11724	-15532	14918	-20815	-9252	8164	-12876	-6248	7200	2163	-24292	5544	-7668	-8540	-29328	2953	100	120	1
-8036	-5440	13264	1013	1686	867	-17424	-5040	-5568	-4591	8573	-2730	-16004	-4620	-2568	-9324	8599	5306	-14352	11412	26668	-8611	-17063	11223	-3532	4932	-13524	-2824	1875	-2028	-20816	8160	-2044	-14628	-25392	4938	24	44	1
-7792	-5052	13440	1049	2106	937	-18032	-1988	-4612	4145	7035	-1930	-16652	-7900	-3184	-5609	10494	8368	7168	14036	15224	-8642	-27212	23561	-8124	-2352	-1784	-1851	-5685	-5092	-23196	2516	-2476	-6923	-22324	4452	41	51	1
-8180	-4880	13160	1083	2163	874	-17208	1328	-3752	890	5829	-738	-15128	-6096	-2756	-132	10312	7884	5296	7144	11156	-13373	-29644	22177	-8628	3352	-6108	-2462	-14711	-6640	-21548	2056	-4756	-1173	-19271	2757	45	37	1
-8244	-5100	13108	855	2303	762	-16120	40	-2680	-4472	5624	-974	-16496	-4112	-1636	2558	10659	7523	-192	-2220	11024	-10761	-32768	18364	-2668	4692	-8288	-11787	-22469	-8530	-15272	2300	-7416	273	-16906	1836	52	26	1
-7784	-5092	13356	271	2280	826	-16920	-656	-2288	-2144	6215	-1160	-16480	-2532	-964	3789	11102	7346	-2976	-3968	11804	-1391	-32768	14597	-236	752	-8632	-15801	-27651	-9655	-10576	3960	-8036	-2711	-14169	924	54	37	1
-8348	-4136	13612	127	2368	965	-17084	44	-3052	3190	5754	-247	-15692	-444	180	4237	11618	6932	-4024	-404	11936	4267	-32768	11644	-1776	-1896	-8420	-9582	-31790	-12720	-8188	3572	-9284	-7138	-10119	113	60	38	1
-8560	-4488	13012	138	2488	1105	-16140	1104	-4008	2838	5411	-455	-14984	-608	-1156	1738	13314	6010	-6920	1148	12700	6014	-32768	11774	-4164	-1748	-8912	-2699	-32768	-15152	-6632	2416	-9948	-9567	-6138	-320	68	42	1
-8680	-4276	12776	-437	2248	1159	-14524	3252	-3380	-1891	6031	-144	-15912	-1348	-1484	-1757	13530	6677	-10328	3200	14188	6303	-32768	14983	-5036	-740	-10124	1567	-32768	-17662	-4880	324	-10268	-9291	-2550	228	75	54	1
-8716	-4492	12776	-232	2128	1570	-15792	180	-2432	-3226	5584	-1664	-15200	-2176	-756	-3411	12977	5198	-12404	3816	17992	6024	-32768	17808	-9796	1540	-11268	2586	-32768	-18874	-3796	-276	-10796	-8896	101	640	79	64	1
-8584	-5008	12876	-105	2035	1816	-16916	-908	-2164	548	7690	-1447	-15680	-3496	-328	-3851	12266	5002	-14484	832	20880	8847	-32768	19064	-17140	688	-13152	1498	-32768	-20402	-5248	-104	-10228	-7766	1293	-1117	78	82	1
-8768	-4488	12924	264	2284	2359	-16196	84	-2884	287	7322	-1043	-15068	-3408	-472	-2329	12972	4435	-21368	-864	26608	15146	-32768	14222	-21892	3040	-13432	5382	-32768	-21354	-8668	1448	-8132	-13973	561	-2999	74	97	1
-8716	-4440	13068	352	2701	2348	-15072	652	-2020	-682	8186	-791	-14804	-3656	-208	-1312	12410	4200	-32768	6732	32767	19217	-32768	8070	-24468	5780	-16760	13138	-32768	-19366	-12012	2536	-632	-18237	-4846	-1813	75	108	1
-8704	-4312	13096	599	2969	2361	-14928	-264	-1928	-378	9849	-946	-14572	-4068	-1032	-1780	11594	3651	-32768	5344	22616	18978	-32768	7941	-21336	7508	-12000	22414	-32768	-11375	-18572	5984	8644	-6578	-9667	-3082	86	116	1
-8960	-4520	13460	1034	4110	2724	-17132	100	-2212	82	11045	-638	-16192	-5060	-1244	-1953	12148	3196	-32768	1300	7572	15583	-32768	8657	-18860	6724	-11192	11578	-32768	-7516	-17076	-4068	15108	2867	-2115	-3878	93	88	1
-8540	-4028	14700	1090	6197	3185	-18640	176	-3068	1188	12012	-89	-17900	-5480	-2448	-2586	10169	3023	-32768	-7228	-672	13803	-26697	11092	-18716	5168	-10152	4853	-27906	-4786	-19336	-11144	29440	-2505	3023	-777	94	72	1
-8960	-4200	15296	1140	9284	3871	-18996	1296	-2520	1426	13270	369	-18968	-3640	236	-2678	7823	3156	-32768	-15016	-10864	7146	-13355	9862	-8208	5464	-6208	8154	-12999	-1217	-17544	-7236	31608	-6728	2069	687	101	87	1
-8816	-4008	15632	1359	12622	4631	-18032	1876	-1492	1013	15063	255	-17756	-3324	3112	-4899	5752	3614	-32768	-18296	-16528	-861	85	1697	-2844	9608	-9216	1678	5617	3884	-15204	88	23180	9492	1151	163	109	109	1
-9016	-4388	15812	1491	16088	5289	-18364	2172	-588	746	17612	300	-18788	-5172	2708	-6492	3338	3569	-32768	-1900	-11508	-14734	20428	-7395	-10256	9508	-14512	-8949	18682	7177	-16740	2348	11912	16003	4101	-1212	127	102	1
-9236	-6108	16968	1287	20707	7019	-21204	1792	-84	1066	20466	160	-20412	-6792	3132	-4724	-1205	1879	-3024	7336	32767	-10061	18584	-4112	-21780	-7580	13192	-9158	17892	5776	-10904	-2764	4664	-4908	8644	-1398	146	115	1
-8624	-6456	18760	539	27802	10320	-25412	3508	-188	-684	23197	-507	-23268	-7928	7768	-1739	-5582	-333	3648	-10828	-440	-2637	27564	-6653	-32768	2264	-6056	-14396	13482	6532	-17592	-908	-18728	13758	8607	1516	160	137	1
-9440	-11700	22092	-747	32767	15589	-32768	4908	4664	-3585	25288	-940	-27760	-11248	18624	961	-20130	-2391	-32768	-5080	32767	-1376	24726	-6520	-16984	-3300	-7004	-14508	16325	6084	-29332	13260	18332	-30913	-1545	-2433	173	139	1
-11912	-13516	22400	-760	32767	25590	-32768	6764	4368	-10461	27329	-4125	-25596	-5408	12416	-4785	-19706	-3058	-13188	17608	18144	-2441	14774	-7869	-16108	6784	-8784	-1694	14694	6146	-18288	-616	-7688	-5345	11932	5064	177	155	1
-25364	-10152	23080	-2813	32767	30051	-30240	3352	-2260	-16952	29494	-4349	-24752	-4984	3636	67	-19875	-2063	-16336	-8008	20020	-4817	4076	-4326	-20208	10712	-11468	-5162	13995	8787	-13836	-6436	-7980	-82	7468	6770	199	121	1
-26536	-9200	19904	-3821	32767	29324	-26892	-6520	-11412	-17934	28214	482	-22248	-10104	-10816	-6394	-15304	-3645	-10080	10228	14684	-3002	2623	-2315	-15532	-4544	-7416	818	10594	6373	-14032	116	-6840	22953	8223	5138	206	103	1
-32768	-8572	19132	-4436	32767	29870	-21448	-3772	-12364	-3804	22280	3826	-24732	-4712	-16708	5153	-15033	-9198	-6412	4320	14924	-1337	1409	-988	-15832	2256	-5776	11110	9363	6218	-14500	10796	-5488	14868	8011	5313	218	115	1
-18348	-25584	27564	2055	28423	28713	-15452	-10224	-17584	5760	13620	8228	-25716	-1600	-10460	18042	-22255	-10713	-8316	3996	14884	-629	1715	-1046	-17588	2516	-5640	14898	7306	5292	-14492	7304	-2728	9175	10442	3562	222	130	1
-30132	-6160	7588	13284	10509	17855	-9212	-4968	-13056	18145	5975	5048	-25564	-4416	-5424	19685	-23886	-11498	-7612	5504	14400	59	1804	62	-17160	8500	-4620	7927	6531	3195	-16988	5624	-1352	9849	10906	1504	210	141	1
-8480	-8960	21868	7259	-21512	-9262	-5756	-524	-13720	12529	-803	3611	-23992	-960	-6136	13256	-20339	-12713	-7400	5748	14136	-769	1736	164	-16080	7488	-2580	-2090	5296	2124	-16356	8416	-748	8368	12027	1490	200	120	1
9440	-12308	10640	4853	-25936	-21477	-7428	5908	-336	9886	-9429	1727	-22776	-280	-7476	7108	-17443	-12263	-6628	6348	14184	-537	2106	-36	-17724	936	-1196	-1020	4777	808	-15484	8320	-28	4322	14246	1791	188	122	1
4048	-9604	8832	7987	-26110	-22904	-7368	732	-4888	6252	-17155	3589	-18304	244	-7660	5630	-16269	-11771	-7840	5072	14588	635	2654	-310	-17132	-152	-2364	5361	4143	838	-16856	4616	-44	1828	15049	2207	183	121	1
-260	-6112	8340	8488	-29814	-21603	-3024	-4448	-7484	4407	-23033	3533	-13008	-448	-7276	2524	-14786	-10665	-8244	4636	14616	1229	2451	-297	-15828	2224	-2848	8139	4040	1076	-15312	1612	148	3002	15045	1666	167	120	1
-2384	-2396	9436	4627	-32768	-21238	-2188	-1824	-7116	6158	-29912	4647	-9760	736	-7036	3046	-8784	-8800	-8116	5104	14172	1196	2045	-508	-15316	4764	-1756	3209	4013	1058	-15104	1420	552	3663	14993	1531	148	126	1
-5736	-3160	9540	131	-32768	-20713	-3492	-1988	-8540	7937	-32768	5257	-8616	1108	-8140	4083	-6558	-7599	-7784	5548	13852	994	1709	-866	-15480	2640	-848	766	4195	825	-15552	1972	2016	5285	12770	1823	131	128	1
-8612	-4852	10384	-2165	-32768	-20045	-5888	-420	-8576	7928	-32768	6103	-8488	2656	-9256	3958	-3275	-7398	-7680	6024	13812	515	1394	-1221	-15740	1752	-612	3035	4362	1314	-14952	2280	1616	2505	13429	2880	127	135	1
-12004	-5084	12744	-3578	-32768	-19610	-9388	1548	-9344	6968	-32768	7274	-7588	3924	-8404	5354	-1589	-5872	-8160	5288	13756	257	1110	-1775	-17080	1440	392	4046	4790	1518	-14844	2532	2388	842	15976	4136	135	143	1
-14944	-6020	16204	-5860	-32768	-18904	-12060	2760	-12332	868	-32768	7977	-6772	4560	-6700	8665	-1521	-4072	-8236	5280	13488	-108	818	-1824	-13584	2464	344	2808	5939	1786	-15792	3280	2548	420	16790	3586	145	157	1
-18700	-4912	18980	-10525	-32768	-18149	-14424	6768	-12740	-6997	-32768	6891	-7548	3976	-5912	13544	-365	-2360	-7556	5408	13604	-577	385	-1805	-14036	1316	1340	2148	7770	2042	-15836	6048	-12	-835	10129	3076	183	187	1
-22740	-4852	21104	-16400	-32768	-15774	-16428	7056	-14008	-21455	-32768	4310	-8428	6728	-4444	12433	-12	-503	-7480	5808	14196	-642	888	-2394	-17248	2944	-1032	-591	8768	1927	-17444	5992	-976	-711	5344	1200	242	238	1
-32080	-5732	22792	-20976	-32768	-13843	-17964	328	-14604	-32326	-32768	-147	-8028	5512	-1408	4948	875	-579	-7924	4128	15160	-13	2171	-2948	-18312	864	-3516	-1801	9359	2084	-16824	3228	-148	-733	6548	1120	252	247	1
-32768	-7264	20744	-22657	-32768	-12753	-24708	-4508	-13528	-30414	-32768	-6012	-13540	-1560	2096	-5268	-2742	-3068	-7484	4300	15548	501	4198	-2542	-16396	-360	-2896	2203	9668	2518	-16444	1732	676	1385	11312	2164	252	233	1
-32768	-1020	12012	-22611	-32768	-10380	-23404	-1628	-13264	-15019	-32768	-9803	-21172	-7024	12036	-6080	-8077	-5412	-7888	4792	15320	1003	6223	-2562	-16652	1956	-160	3167	11571	2919	-17440	996	2220	3699	10964	2075	249	217	1
-32768	14772	1572	-22682	-29146	-12324	-16564	-1956	-10292	-14454	-26073	-7895	-23076	-12792	22280	-835	-6783	-4043	-7596	5572	16132	999	9034	-3251	-17720	2464	1452	-368	13776	2987	-19928	-208	4836	1468	7132	2591	232	206	1
-32768	7112	-11196	-1939	-17361	-10716	-10356	-5328	-10448	-113	-11547	-4619	-12152	-20916	25268	-10468	4232	-3432	-7168	5892	16996	998	13252	-4420	-18816	268	828	-1555	16606	3467	-20588	1700	7316	2214	4764	1380	200	194	1
-32768	29540	-15120	13284	-2418	-2680	-4192	636	-9608	10548	4426	-1352	-12200	-16840	14972	-9844	3876	162	-7216	5732	17176	1204	18711	-5475	-20080	-1524	392	500	19393	4248	-20608	3704	4412	6400	3753	-463	168	181	1
-32768	20592	-3716	2833	12159	-630	-8072	-328	-16120	19321	17918	2005	-11740	-9192	4924	-8105	1846	3416	-8184	6412	17756	1678	25420	-7206	-21248	-588	-396	842	21671	5019	-21008	1340	2516	8284	591	-1421	139	181	1
-14748	-5632	8572	20396	12985	9203	-8728	40	-17284	19452	19260	2216	-9804	-5128	1704	-17992	3397	4002	-7772	5424	19104	3181	32767	-9618	-24528	-364	1952	2626	24246	5524	-23508	-732	8860	4921	-4035	-2194	76	173	1
26884	-18260	31080	5567	11340	1374	-32696	12028	16612	15834	8706	-624	-4964	11144	-17172	-4964	11687	8743	-6168	15672	20516	2615	32767	-16261	-32768	-5544	4940	5461	26300	6741	-24756	-3360	15112	1613	-9895	-4268	17	166	1
-9668	-724	14744	11818	32767	11911	-31504	7556	-4076	18864	11944	1321	-32768	-5012	25712	13055	-14620	6151	-16172	11380	22816	3544	32767	-23981	-32768	-4384	3628	8469	27210	8241	-27416	-9632	13972	-4240	-16932	-8876	0	142	1
-31600	-9916	24556	3275	17367	9945	-12388	3796	-7468	5174	13684	1097	-31036	-10312	9660	12594	6253	2450	-25876	16176	22400	5096	32767	-25949	-31904	3192	-1604	10692	28113	7437	-25232	2460	2776	13234	-17711	-9762	1	136	1
-17816	-17372	12780	2992	9629	1449	-16524	3384	-7548	3513	16618	-5126	-16260	14556	-1852	2619	18826	3236	-23916	9796	18820	4197	32767	-28419	-23956	10292	-7380	6940	25992	4543	-25048	11344	-6436	26194	-28961	-5879	0	80	1
-7604	-12	14580	5615	7853	3046	-18660	-2800	-8480	3130	15921	-6182	-9308	9800	-17148	-16857	7610	1110	-32768	8708	25408	7002	32767	-24999	-19376	8992	-12432	-6684	21944	4803	-21492	13944	-13632	22525	-28957	-3400	0	66	1
-14084	-9212	12508	5377	5052	2461	-13692	-3340	-9952	-1828	12481	-2798	-7780	-6700	-4192	-15555	7628	-748	-14788	21976	28980	1771	28265	-21432	-13424	8800	-9980	-8616	15485	2975	-24628	9320	-12340	2324	-27076	-1318	0	66	1
-8700	-4528	14288	4246	3042	2163	-18500	960	-7628	-5496	10240	-2922	-18600	-11176	-7312	-9881	10998	1730	-25256	11168	7924	-13077	11804	-20465	-7592	10440	-12696	-6273	7437	-1462	-23856	9880	-4152	-14715	-26821	1815	34	49	1
-7852	-3336	13976	2597	3314	1423	-18856	-1768	-4892	-4500	8702	-2008	-18660	604	-2516	-4198	8541	4183	-12396	6884	25860	-10358	-27069	1947	-3744	8968	-11872	1528	2844	-4819	-20336	9964	-2612	-13405	-22257	2935	67	55	1
-7384	-3356	13964	2371	3376	1282	-17800	-1048	-5388	1456	7415	-1736	-17992	-3088	-2368	-4797	10405	7414	8308	9548	11644	-8230	-32768	7293	-8156	1152	-2328	-771	-5528	-7519	-22124	5596	-2284	-7655	-18738	1967	89	63	1
-9744	-4364	13472	48	3538	78	-17840	812	-4880	-648	6892	-1804	-16108	-4048	-4380	-3717	9943	8003	6376	7508	6984	-9915	-32768	5655	-6880	4700	-4616	-1520	-14420	-8777	-19740	4376	-5044	-4629	-16004	1685	86	54	1
-9380	-5328	12420	-748	2964	300	-15816	-1868	-4632	-5137	5928	-1157	-15720	-3640	-4048	-1935	10260	6944	720	4000	6320	-7971	-32768	4725	-1076	5740	-6036	-9387	-20365	-11393	-13664	3444	-6540	-3696	-14705	1455	89	54	1
-9160	-4936	12388	-887	2427	539	-15388	-2524	-3308	-4566	5514	-1240	-15900	-4344	-2680	123	11207	6218	-4216	6128	7060	-2286	-32768	6788	-660	3428	-7456	-8608	-24608	-12042	-9980	4240	-7648	-5799	-11743	1646	90	56	1
-8536	-5456	12404	-538	2254	643	-17204	-1900	-2544	-935	5638	-921	-15192	-2380	-1540	2164	11504	4795	-4580	9248	7224	361	-32768	10345	-2764	2456	-6932	-1417	-28093	-14471	-8284	5044	-8576	-8634	-8445	1223	92	55	1
-8828	-4660	12580	-605	2522	1035	-17184	560	-3240	694	5150	-727	-14912	-80	-784	1616	11329	4037	-6864	9580	8220	491	-32768	14667	-5368	4036	-7820	2601	-32465	-15019	-7768	5396	-8604	-11027	-5150	1404	93	63	1
-9212	-4644	12312	-598	2442	842	-14692	4668	-580	-3759	6267	-783	-16084	-1112	-1176	-2626	11677	4412	-10464	9832	10488	1189	-32768	19458	-9676	5956	-8952	-3801	-32768	-17193	-6924	4012	-9284	-12434	-1506	2026	94	72	1
-9772	-4460	12616	-1452	2225	768	-11104	-512	-5020	-7948	9624	-1008	-15788	-2508	-1636	-8774	11564	4300	-12020	8904	11968	971	-32768	20577	-6252	8216	-9916	-8329	-32768	-17776	-6556	3580	-9460	-12857	-1001	2238	96	81	1
-9152	-4220	11996	-914	1424	551	-15148	-3416	-1980	-4050	8654	-1814	-14320	-5420	-1604	-10416	10688	4315	-16140	9120	18164	3485	-32768	24667	-14156	5328	-12316	-12863	-32768	-19042	-7104	2108	-9532	-15474	1038	2902	92	93	1
-8972	-5444	12148	-571	1504	605	-15952	-3240	-2108	3098	8926	-1536	-13900	-4580	-1908	-5494	11336	3261	-22892	6268	21332	8862	-32768	23500	-18288	1204	-10636	-7120	-32768	-20840	-9328	2612	-6920	-15691	519	1206	87	109	1
-8652	-3340	12764	-384	2156	1440	-17208	508	-2964	-484	7637	-486	-15140	-4236	-2212	-2322	10995	3787	-32768	9548	27612	12587	-32768	17999	-21480	2964	-13060	8322	-32768	-18477	-11476	3124	-924	-14947	-2465	48	89	115	1
-9272	-4780	12524	-250	2717	1483	-15104	340	-2540	-5990	7645	-738	-14912	-3792	-996	-3746	9437	4399	-32768	8548	24044	12518	-32768	13807	-24420	6812	-11048	15409	-32768	-12234	-15272	1052	6608	-9605	-6428	820	91	118	1
-9608	-4936	12348	-501	3174	1391	-15088	-1160	-692	-4734	9972	-910	-15564	-5060	1804	-4942	9552	4283	-32768	6024	10908	15109	-32768	8943	-19400	6700	-10980	12680	-32768	-6101	-19692	-4152	8176	-1531	-2398	-623	100	118	1
-8952	-6216	12776	-256	4086	1990	-17524	-2848	-900	23	11959	-584	-16948	-7012	-1416	-5482	10882	2903	-32768	-2076	2228	18694	-28897	8494	-20320	3244	-9880	5254	-31836	-1337	-16180	-8992	22408	-8422	5243	1273	103	94	1
-9264	-5360	14016	153	6228	3166	-18652	-612	-3024	1647	12489	58	-17832	-5260	-1932	-4704	7723	1381	-32768	-8148	-5552	14912	-14009	12034	-11992	5556	-7848	7513	-19568	1466	-19188	-7624	29256	-7526	1737	1525	105	103	1
-9072	-4940	15008	-149	9736	3872	-19120	2044	-3592	1660	13666	520	-18216	-2372	1452	-4342	7554	1900	-32768	-10512	-12212	-436	-1401	12860	-4060	7048	-6680	-1891	-1416	4051	-17464	-1680	27368	-1772	-2711	2576	114	113	1
-9108	-4524	14984	-537	13433	4446	-18036	2800	-1348	984	15347	-169	-18528	-3316	1052	-7242	4282	3023	-32768	-15184	-7896	-3874	7365	9694	-4744	8228	-13000	-9081	14300	5751	-15736	4856	15068	10727	62	1515	123	114	1
-9420	-5744	15104	-1067	17415	5129	-17692	1036	456	70	18242	-420	-18404	-4892	3988	-7276	246	2241	-9988	10540	108	-22274	24509	1126	-15584	5744	-8232	-17267	21254	7749	-12296	-884	4356	6495	5499	2697	136	95	1
-8896	-7064	16792	-1245	23140	7363	-22044	1820	348	-242	21344	-1236	-21268	-6060	6180	-3162	-4131	-337	14340	9284	32767	-8933	20860	9175	-15872	1288	-7368	-21126	21794	7133	-1336	10748	-12776	10842	13851	4965	151	109	1
-7604	-6848	18952	-2894	32516	10633	-28724	4452	1416	-3150	23811	-1976	-25644	-8736	15996	-1598	-17160	-2646	-4440	-13528	13360	-7472	32767	-5196	-29124	-2480	-6704	-29666	12847	4910	-29332	-1668	-9132	-12455	12742	267	161	130	1
-14604	-14760	21840	-5988	32767	16195	-32768	8996	3316	-9675	26322	-4270	-25984	-5204	13956	-7064	-16735	-3997	-32768	-2984	32644	82	18275	-10876	-18308	-7368	-7868	-10431	17624	5464	-27540	7180	16496	-30972	2535	-2847	175	153	1
-13748	-11436	23296	-7214	32767	23940	-32748	6308	896	-14774	28262	-6210	-25932	-3212	9576	-7314	-20035	-2901	-25380	32767	9896	-5086	9615	-4621	-15404	8940	-8340	6588	16330	7700	-21220	-5788	-1624	-6530	13633	1542	183	119	1
-20556	-10868	18848	-8781	32767	25675	-30820	-32	-6532	-19581	29204	-3696	-24160	-5664	-5768	-9604	-18676	-3567	-7196	-4784	20336	-5001	4221	-4591	-17380	7468	-9472	-5697	14218	11184	-11072	-1608	-11576	10708	5787	4940	199	109	1
-32768	-8496	17904	-9059	32767	26577	-24024	-6548	-15460	-11202	24771	1732	-23428	-4536	-13304	-7909	-18338	-8137	-8080	3840	16144	-3529	2186	-2486	-15396	1292	-7892	334	11844	5223	-11256	5712	-7336	20722	7303	7062	216	87	1
-28620	-12472	16072	-17818	32767	22645	-17988	-5432	-16036	-2572	17593	4251	-27820	-1432	-11580	7089	-22595	-10498	-8376	7548	14020	-1527	1736	-1716	-17572	1328	-8096	7429	9423	5222	-15464	12424	-6644	4892	9337	6085	231	104	1
2328	-21620	25260	-7572	31813	25822	-12548	-5008	-14200	6309	8878	4320	-25464	-1476	-8716	12349	-23910	-9736	-8216	6524	14728	-1036	1770	-1743	-18332	3680	-7184	6915	7085	3274	-16084	3852	-3564	1135	12446	2954	229	135	1
-24176	-21936	18792	1556	1349	14348	-5908	720	-16364	8216	855	338	-24724	-1228	-6060	9080	-20904	-9299	-7832	5044	14608	-4	1960	-118	-17300	5508	-5224	148	5776	2285	-18888	1488	-3124	6114	11593	464	225	130	1
-8992	-8408	21444	2134	-29764	-6631	-1980	-272	-12276	-218	-3698	-3459	-19636	320	-6808	3811	-19614	-9022	-7768	4452	14828	110	2451	-23	-16384	1264	-3404	-1861	4781	2080	-17608	4808	-664	5258	12282	-366	199	116	1
7644	-8804	11740	-1446	-32768	-16666	-6684	4088	-216	1192	-11703	-3677	-18272	124	-6448	-331	-18178	-8671	-7792	5884	14148	332	2370	-80	-16776	-132	-1936	5236	4713	1689	-15984	6424	-492	4348	13465	1007	184	113	1
5508	-7272	8660	-1289	-32768	-18099	-7792	3116	-4064	193	-20695	-1720	-15412	-1124	-6768	-331	-16274	-9215	-7872	5948	14024	338	2150	-748	-16524	3916	-1872	7174	3886	1602	-16360	5776	-816	2574	14497	2956	184	121	1
-1656	-4416	9472	246	-32768	-17529	-3252	-2984	-6828	781	-25994	-663	-12552	-432	-7044	-872	-13487	-8255	-8144	4972	14180	545	2025	-1167	-16160	4148	-2412	1627	3938	1481	-15756	2632	328	1148	14764	3684	176	129	1
-4396	-1736	10508	-1016	-32768	-18949	-3016	-1192	-7764	1626	-31909	155	-8948	-180	-7180	192	-8704	-6821	-8080	4732	14200	571	2014	-1219	-15508	452	-2040	-61	4116	1133	-15384	676	1324	1010	13390	2671	156	134	1
-6468	-3220	11692	-2382	-32768	-19715	-6364	220	-8060	3511	-32768	1362	-8516	260	-7964	2108	-5664	-5803	-8216	4672	13816	375	1784	-1187	-14824	1968	-2396	1317	4453	1639	-14724	244	1864	1291	11681	2603	186	168	1
-10728	-3832	13148	-2928	-32768	-19619	-9468	608	-8676	2591	-32768	3548	-7996	944	-8548	4344	-1973	-5554	-8208	5024	13624	241	1131	-1214	-14860	1664	-1528	1670	4892	2039	-14036	1404	1588	1420	12839	2780	245	235	1
-15396	-4568	15812	-3768	-32768	-19899	-11124	1092	-10412	2532	-32768	4798	-7980	2860	-7840	6192	-908	-4307	-8080	5388	13724	-89	670	-1532	-14804	1560	-1324	1777	5006	2016	-15076	3520	572	870	14747	2280	251	253	1
-16148	-5272	16532	-3881	-32768	-19846	-13588	2340	-12048	-416	-32768	6097	-8104	3668	-6612	10073	-1578	-2913	-8144	4716	14260	-420	665	-1701	-15668	3296	-2168	1557	6303	2095	-16288	5480	-464	-1233	12776	2181	241	253	1
-20760	-4832	20716	-7358	-32768	-18498	-17772	7768	-13036	-5845	-32768	6590	-7688	5372	-5504	14015	-1578	-1669	-8224	4936	14212	-103	1371	-1725	-16440	2996	-2784	-914	6778	1453	-16752	5924	-3328	-2439	8668	2188	232	241	1
-27756	-3208	22568	-12514	-32768	-17912	-17736	6356	-14640	-18984	-32768	5237	-6760	6240	-2648	9991	-572	-596	-8212	5240	13872	-237	1591	-2119	-15124	524	-1408	236	7290	1603	-15856	3400	-1856	449	8036	1907	220	224	1
-32768	-5160	19724	-13248	-32768	-17911	-18384	-1092	-13516	-28824	-32768	755	-10152	796	-708	4762	-990	-1925	-7580	5164	14396	-671	2000	-2636	-15548	1012	-768	1843	8795	2463	-16688	1580	2520	2312	8565	2227	218	208	1
-32768	-3992	11844	-7593	-32768	-12651	-26456	-4056	-14072	-17532	-32768	-4390	-18316	-8796	9896	497	-6857	-5852	-7904	4344	15792	-301	3893	-2810	-18348	2688	-1736	-296	10388	2519	-18684	1556	5328	-759	8375	2196	212	198	1
-32768	-1848	9632	-6809	-32768	-11385	-18376	1096	-13408	-5213	-32648	-4045	-22260	-8408	18868	2819	-3508	-2725	-7484	5184	16236	175	7140	-3377	-18892	16	-764	-1743	11831	2239	-19604	448	3052	1267	8190	2777	212	188	1
-32768	15852	-12252	-8425	-18149	-7629	-9268	3392	-11956	1731	-17985	-2120	-15612	-15108	30068	4279	2487	-239	-7572	4532	16744	286	10918	-3993	-17840	-1388	660	157	14173	2909	-19544	-348	3028	4436	6968	2556	190	183	1
-32768	18632	-19084	1378	-7495	-5305	-3672	-2640	-9164	-886	1884	-1881	-14476	-15308	22208	-10409	481	1577	-7992	5072	16388	155	14964	-4626	-17780	-324	2296	1258	17537	3804	-19856	1728	6360	5313	4240	623	162	175	1
-32768	12304	-17052	14226	9160	8548	-10296	-6796	-13752	12523	18313	-542	-15524	-7616	9684	-12134	-2073	5328	-8152	6324	16976	-528	19930	-6257	-19820	2648	1352	-819	20748	4211	-20704	3632	7124	5890	-382	-1523	137	165	1
-13432	-3852	28708	9016	13519	8199	-15280	-1500	5904	21053	21030	1302	-10384	-10612	5832	-24017	2864	2931	-8048	7604	18764	-765	27040	-9824	-24764	856	-820	-1094	23082	4721	-24020	4988	8832	7468	-3675	-2101	106	154	1
3068	-13004	9268	-1958	20508	972	-32768	21904	1884	26776	11506	-939	-17172	12692	-568	-5501	4931	4861	-8160	12776	20516	-1532	32767	-15087	-32768	-3612	5412	3289	25198	5066	-26420	4908	11944	1165	-10244	-2867	25	149	1
-26452	11108	30064	3656	32767	3629	-11940	9732	-3376	8103	14058	2060	-24872	-8512	3460	7733	2681	4570	-11940	13368	23076	-1192	32767	-26206	-32768	-4040	4092	6653	25462	7868	-25240	2968	9536	1135	-9467	-3107	0	143	1
-19972	1364	21132	3008	12877	10608	-12876	-4904	-14056	-3485	16958	-2428	-20336	-1572	-3032	-2060	6639	1675	-23892	11864	24156	538	32767	-29588	-32076	528	48	9912	26222	8729	-23960	-8116	11036	-4945	-23631	-10740	0	140	1
-15228	-12676	13164	5210	5982	2329	-23044	-7352	-11200	-510	15488	-7708	-14980	11180	-18520	-5239	14057	1997	-24876	8280	19020	5054	32767	-29557	-23932	7532	-5324	10067	25183	5873	-24624	9768	664	21642	-24902	-5659	0	90	1
-12324	-4548	14884	3327	3347	1565	-16920	-124	-10176	8980	10433	-3602	-12948	-2832	-3548	-8897	6716	1942	-32540	5404	15640	3917	32767	-29147	-17704	10760	-14756	2623	21896	5424	-20520	12964	-14244	30220	-26857	-2726	0	68	1
-7896	-1952	15152	1972	2068	-85	-15092	3356	-6536	67	9312	-2399	-17420	-7360	-4352	-1278	11657	2862	-31332	15552	21680	3201	31847	-25062	-12404	10564	-13824	-3457	17535	3779	-23044	7724	-15860	8642	-23076	670	0	68	1
-7168	-6644	12800	470	2596	-224	-20052	1048	-4464	-8125	8878	-3232	-17872	-1848	-5056	-779	11486	4258	6116	21828	23384	-8323	16491	-21955	-8072	8064	-11804	-4903	10212	1377	-22552	7416	-9968	-6306	-22681	1828	7	52	1
-8084	-5980	13152	214	2907	-62	-17912	-7084	-4748	312	5904	-2260	-15968	-1272	-1716	-2531	10527	5587	-24556	12148	24372	-5016	-6548	-4018	-6940	4324	-17148	-3052	3482	-898	-19704	8824	-2840	-10587	-24111	3199	54	45	1
-8496	-5092	13304	-13	2617	-53	-16272	1092	-3556	5825	4956	-1835	-14432	-4560	-616	-1744	9497	6056	2372	13140	14776	-2874	-23880	13425	-3628	1828	-5208	1381	-1595	-3439	-19792	3944	-2556	-8362	-20325	3582	74	48	1
-8724	-4920	13472	-149	2504	-92	-16376	3228	-2176	-1793	5464	-1245	-15760	-3480	-820	-690	8685	6141	5792	11716	8548	-7959	-27059	15730	-7180	880	-3180	185	-9151	-5515	-19872	2828	-4104	-2890	-17888	2858	85	61	1
-7716	-6728	12024	-768	2284	221	-16908	-1696	-2216	-8050	5770	-1785	-17684	-2440	-2048	-2628	10058	6419	2280	5952	7164	-12628	-27419	13820	-4420	5920	-6360	-5628	-15558	-5154	-15476	3700	-5892	-2322	-15856	2211	81	62	1
-8280	-6036	12372	68	2239	914	-17300	-2832	-2572	-3935	4966	-2257	-16088	-3288	-840	-2491	10945	5806	-1184	68	7972	-6971	-30515	13955	-1668	4592	-6956	-13528	-21491	-7009	-11352	4076	-6496	-5953	-13871	2536	82	53	1
-8456	-5384	12140	640	1871	1176	-16208	-8	-2408	-2497	4416	-1499	-13944	-3076	-736	-2151	11344	4835	-2388	2308	8800	113	-32768	14888	-1492	1376	-7388	-13002	-25455	-9678	-9340	5144	-6984	-8166	-10225	2395	79	58	1
-8864	-5496	12392	1038	1546	1265	-15536	-1252	-2740	-3601	4167	-1219	-14272	-2680	-1320	-2580	11085	4671	-5024	5228	9964	1965	-32768	15196	-4460	1348	-7912	-6410	-29676	-11848	-9344	3896	-7244	-10654	-6714	1909	78	61	1
-9128	-4504	12464	784	1288	781	-15364	240	-2600	-4431	5121	-2038	-15572	-3848	-1560	-3665	10251	4547	-6876	5264	11196	2383	-32768	16481	-7184	2352	-8436	-3636	-32768	-13384	-8880	3432	-7732	-12627	-4151	2208	82	65	1
-7520	-6892	13372	774	1421	646	-17992	-2276	-3184	-6018	4393	-2709	-16000	-3928	-1208	-4486	10069	4246	-10664	5988	14264	2570	-32768	18398	-7384	4368	-8604	-4836	-32768	-14111	-8392	2064	-8716	-12116	-685	2671	83	71	1
-8852	-5360	12852	177	1796	1183	-17464	-1188	-2344	-4141	5509	-1216	-16300	-3492	-1268	-2637	10393	4039	-14864	6292	17976	3040	-32768	19786	-9312	3184	-10968	-6667	-32768	-16262	-6712	984	-9108	-12030	1637	2584	82	74	1
-8660	-5348	12468	38	1547	827	-15244	-1724	-2152	1373	6531	-850	-15136	-4392	-1296	-1992	10284	3233	-16180	4344	19404	7491	-32768	20649	-17728	1820	-11600	-4218	-32768	-18235	-7964	-200	-7296	-9057	2923	1297	77	82	1
-9212	-5380	12424	-18	1641	843	-15204	-776	-2352	21	6946	-383	-14384	-4864	-1468	-3089	9599	2556	-22272	5524	24788	13838	-32768	18073	-22196	292	-10912	5047	-32768	-20204	-11276	812	-3924	-11172	1963	1314	78	98	1
-8724	-5344	12308	-39	1620	1095	-15468	664	-1876	-1914	7771	-462	-14348	-2828	-980	-1944	8635	2676	-32768	8088	29180	16887	-32768	11843	-25396	5584	-11776	16446	-32768	-14812	-15708	1824	3604	-9647	-3826	2505	85	106	1
-8620	-5712	12720	-174	2076	1670	-17296	-156	-2268	-1054	8853	-849	-16420	-2780	-692	-1861	7667	3143	-32768	6404	18304	18608	-32768	7267	-18976	9708	-10896	18714	-32768	-6534	-20200	764	11476	-835	-8475	1554	99	110	1
-8872	-5268	13124	-336	2922	1903	-17628	-340	-2736	-216	9313	-632	-17060	-4396	-564	-3054	9003	3243	-32768	1020	6740	18906	-32768	4378	-19740	3792	-7704	11968	-32768	-2345	-16796	-4616	17076	2334	-1076	79	103	131	1
-8884	-4708	13736	-842	4324	1795	-16972	576	-2988	-9	10391	-171	-16964	-3840	-1252	-4981	8909	2725	-32768	-5712	1312	19728	-24147	7174	-18008	2796	-8652	10031	-25452	-374	-16348	-7740	24316	-1913	1392	971	103	89	1
-9236	-5072	13868	-1594	5983	1925	-17012	664	-2124	-805	11643	22	-16516	-2996	412	-3466	8692	2740	-32768	-7812	-4940	9861	-12035	9490	-10824	4612	-6632	9833	-13957	2406	-17596	-5728	24800	-774	-137	1688	113	91	1
-9108	-5588	13416	-1733	7970	2700	-16384	516	-668	-953	13581	-112	-16852	-3876	1196	-4417	6663	2497	-32768	-14768	-9216	-2034	-1820	6185	-5308	6068	-6540	1068	1437	4486	-14508	2196	21512	8339	-1539	2755	114	118	1
-9064	-6056	13920	-691	10494	4005	-17428	-672	-1552	679	15599	-184	-17396	-5264	-1280	-8713	2800	1666	-32204	-13608	-4444	-3712	8512	1049	-7884	5740	-10232	-7833	13315	4910	-13668	7252	11140	9951	1367	2598	125	127	1
-8744	-6016	15588	-367	14621	5436	-19728	1460	-3968	2457	17012	-121	-20136	-1780	1184	-6960	145	700	-25540	13580	8684	-24732	21628	-970	-8616	4908	-10816	-9090	14791	4836	-12324	4048	6060	1088	4183	2046	139	86	1
-9184	-5100	16432	-990	20151	6994	-21976	5820	-3692	-172	18642	-897	-22544	-2536	7008	-7493	-8634	-237	11088	4324	32767	-12475	12195	5849	-24708	-8236	6436	-11850	14391	3293	-4656	9128	-7352	2727	14452	3059	150	108	1
-8324	-5212	17028	-2773	27331	7837	-22664	5140	-3000	-4322	20763	-1462	-21060	-3244	7416	-4647	-7861	-363	7948	-10280	8428	-5531	21585	3426	-25536	-1456	-1208	-23111	9651	3305	-19504	-488	-18584	-1336	13914	2571	162	134	1
-8928	-8108	18216	-4917	32767	9535	-26576	6224	1620	-7249	23003	-1493	-22580	-5728	9832	-5456	-9803	-1181	-25912	-7848	32036	-5416	28329	-6328	-23396	-4484	-5900	-24045	13375	3060	-31684	8096	20896	-32768	-24	-1957	178	159	1
-10080	-8872	17864	-6592	32767	14060	-29800	6132	1800	-10421	24341	-2328	-22368	-7352	9860	-5532	-14642	-716	-14760	6208	20608	-1867	11288	-9380	-16928	-384	-5344	-10036	13255	3901	-21308	-1648	2624	-16171	12543	810	165	121	1
-21696	-10896	18652	-8006	32767	18242	-28536	2880	-3256	-13650	26066	-1858	-23516	-6080	4936	-7452	-14235	-1345	-22832	19452	13388	-6133	6615	-5198	-15248	8392	-6464	-748	12866	7238	-17612	-10452	-1944	-6453	13316	4659	173	123	1
-27760	-15244	18380	-8011	32767	21658	-28360	-5336	-7976	-15222	25992	666	-22796	-6564	-5088	-3779	-19352	-3500	-6892	2120	17060	-4180	3151	-3097	-17400	112	-5744	-2072	10876	7707	-12296	-516	-6736	23591	8083	5543	179	107	1
-27596	-11148	12964	543	32767	28994	-25508	-9852	-12960	-6104	23327	3054	-21348	-9616	-11800	88	-21191	-7867	-8824	3508	15568	-3035	1567	-2246	-16712	3340	-5760	6676	10244	5491	-13124	7208	-4680	16963	5362	5249	206	95	1
-29468	-10288	18560	-9359	32767	21535	-17184	-4436	-12848	9297	17206	6121	-21592	-9132	-12732	2208	-20505	-8495	-8120	6468	14184	-1803	1466	-1637	-17172	2332	-6332	10138	7699	4663	-14496	8732	-3324	9054	9234	4462	220	110	1
4248	-16764	21852	-3423	26274	20842	-12092	-4084	-11304	12895	9933	7599	-23944	-4568	-5428	17484	-21641	-11256	-8268	3420	14936	-948	934	-693	-16724	5600	-5684	5542	7150	3102	-17456	5244	-2732	9416	10619	2246	221	143	1
-26124	-21920	22408	2851	-1902	10488	-7532	-772	-18212	11433	2217	5328	-22952	-2320	-6596	17592	-17858	-9178	-7644	5032	14552	-718	1321	-354	-17460	4796	-4008	627	5981	2371	-17324	7184	-2324	6636	9821	-498	217	127	1
1220	-12260	20188	4504	-27471	-4767	-3228	-1284	-7168	5165	-3761	1873	-19988	420	-5216	11873	-16439	-8057	-6964	5536	14368	-745	1730	-248	-16956	2068	-2728	1875	5243	1486	-16196	8064	-1540	3639	11465	523	191	110	1
9100	-10320	12656	4283	-32405	-9282	-9528	3956	-1248	4197	-13127	2047	-18968	-680	-6160	5823	-15608	-7592	-7728	5664	14608	-124	2262	-531	-17028	2020	-2664	2324	5079	1389	-16372	5760	-1736	1590	12938	1865	187	120	1
3648	-7792	11044	5070	-32768	-9446	-6428	-1156	-4352	2667	-19870	2597	-16004	-336	-6432	3324	-14325	-7789	-8644	4280	14372	192	1819	-508	-15844	3168	-3952	3757	3604	872	-15268	3700	-1584	455	14172	2901	187	125	1
-2448	-5632	10792	3410	-32768	-11284	-4496	-1724	-6776	486	-25871	2998	-11680	-388	-5620	1895	-10925	-7366	-8240	4440	14260	172	1463	-374	-15000	3268	-3332	693	3507	814	-15040	1688	-1016	617	14500	3312	178	129	1
-4364	-6084	10728	1536	-32768	-13525	-6280	-1660	-7220	-1060	-31419	4306	-9904	-1072	-5904	1047	-7317	-6800	-8148	5008	14324	193	1452	-419	-15416	2328	-2412	-483	3499	786	-15760	1716	-232	1821	12597	2605	153	134	1
-6084	-5740	10436	379	-32768	-14770	-8780	-608	-7304	1140	-32768	5249	-9776	-776	-7436	2234	-4019	-7161	-7992	5004	14036	230	1292	-701	-16040	1624	-1512	1241	3617	1321	-15544	2284	488	2429	11029	2500	144	142	1
-9840	-5988	12060	-1102	-32768	-16305	-9820	16	-8608	2210	-32768	7040	-8856	868	-8672	4421	-1019	-5945	-7964	4984	14040	337	1063	-1075	-15576	1948	-1220	3582	3833	2023	-15308	2244	724	1346	10930	2964	139	152	1
-14704	-8924	15132	-1629	-32768	-17749	-10516	-788	-9860	1500	-32768	7738	-8024	3236	-7488	6088	986	-3835	-8268	4664	13988	244	1024	-1201	-15236	2848	-1500	3489	4691	2194	-15136	2796	1588	-317	11963	3272	184	195	1
-16852	-9772	19428	-2140	-32768	-19380	-16752	2004	-13664	-1755	-32768	8483	-7428	3508	-5660	9497	-507	-1646	-8140	4688	14116	147	1377	-1217	-15252	3164	-1300	1800	5526	1764	-15572	2728	1600	-1783	13715	2818	238	252	1
-23132	-8728	22092	-6770	-32768	-20948	-19740	8032	-13788	-6742	-32768	8732	-8012	4288	-3612	12209	-1232	-567	-7956	5300	14132	150	1634	-1384	-15576	2116	620	1399	6745	1758	-17184	5292	300	-652	10061	2419	240	253	1
-31792	-9176	21736	-13114	-32768	-21732	-17480	3688	-13512	-18339	-32768	4569	-8244	6048	-352	10978	-926	-564	-8016	5524	14224	-249	1687	-2316	-16292	2144	-276	1634	7916	2452	-17956	5732	-360	3425	5219	2239	230	252	1
-32768	-9808	17520	-13846	-32768	-22424	-20300	-5168	-13560	-22394	-32768	-584	-12628	124	-452	8252	-1020	-2201	-8380	4684	14756	-313	2557	-2858	-17124	1648	-2360	1691	8911	2703	-17692	2396	700	2544	6393	2222	230	237	1
-32768	-6060	9444	-8490	-32768	-16927	-24916	2076	-12876	-12484	-32768	-6016	-17660	-6632	7912	5559	-4139	-4361	-7696	4656	15344	-24	4378	-2859	-16212	1548	-944	1801	10203	2707	-16228	1724	3452	2764	9142	3023	236	223	1
-32768	7452	268	-9027	-26015	-12119	-18304	2680	-12224	-5455	-30938	-5159	-20736	-7604	20052	5921	-4696	-2995	-7432	4820	15868	243	7151	-3156	-17380	1160	180	771	12271	2737	-18212	1232	3492	5068	7626	2803	219	209	1
-32768	10868	-10612	-8148	-14545	-11587	-9672	-1012	-11068	-971	-16815	-3548	-15136	-14336	29516	2236	781	-2439	-7604	5068	16280	290	10637	-3929	-17932	876	420	147	14714	3589	-19208	1284	4892	4888	4676	1701	193	199	1
-32768	16644	-18116	4052	-6745	-6151	-8940	-1096	-11356	-225	-13837	-3318	-13600	-16892	20256	-11094	1615	-613	-7944	5024	16228	-65	14877	-4969	-18440	1096	232	800	17253	4245	-19324	3860	5572	5749	3288	410	166	190	1
-31564	15028	-15820	16871	15703	5377	-10828	-5872	-14976	12585	15732	-1150	-13424	-7660	8608	-11984	-395	3010	-8260	5940	16956	-305	19945	-6334	-19968	1848	-1008	65	19689	4718	-19532	3620	3196	7373	1664	-362	136	179	1
-18060	3780	20456	13737	21124	7709	-13076	1496	-2660	23076	19631	1422	-15524	-6528	7968	-19024	3164	2330	-8408	6516	17704	-81	26436	-8906	-22012	-940	-1436	461	21406	5647	-21440	1520	4140	9060	-505	-928	111	167	1
768	-14852	27900	-4882	14915	-10548	-32768	28496	14748	27515	10661	1095	-15456	7672	-7996	-8685	7292	4153	-8212	5620	21264	496	32767	-11962	-28408	1208	3588	5277	24088	5526	-27816	2400	11416	3390	-6885	-1489	58	160	1
-18728	18856	22224	6544	32767	11387	-25852	2124	-10256	16330	17564	-1365	-25800	-6960	12608	14696	-5696	5481	-8616	15004	21240	-365	32767	-20932	-32768	-2968	4996	5183	24621	7576	-24780	-1892	11760	2877	-11458	-3771	23	156	1
-28104	-10432	22480	1709	8439	10214	-6240	-4236	-12892	-1165	17167	-569	-20980	-4252	-6400	3789	8979	4389	-21796	13520	24456	2043	32767	-27094	-32528	-1964	2692	8244	25783	9984	-25160	-9652	8548	1309	-18563	-8866	0	141	1
-16952	-15328	11968	7616	4577	3183	-20940	-9704	-12324	-304	17600	-7676	-14964	12328	-16892	-2658	19928	3183	-24532	11256	21836	6420	32767	-28218	-29576	5720	-2716	10859	26108	9364	-24584	4232	3076	8589	-23930	-6985	0	132	1
-10160	-5216	13596	4639	1684	2378	-17524	1832	-11216	12770	11640	-3205	-10396	2636	-5948	-3163	6312	-118	-21272	8960	16172	5217	32767	-29273	-28620	7268	-3776	10711	25923	8742	-25624	11072	-8672	30572	-30390	-4641	0	67	1
-6928	-2868	14600	4056	1493	1576	-14364	6092	-6132	1607	9537	-1535	-17608	-7300	-5040	-1870	13556	2470	-32768	13324	25464	11925	32767	-23777	-17804	6680	-12228	-6185	19305	7290	-24748	11128	-9492	29293	-29483	-3997	1	63	1
-7804	-3944	14644	2049	1881	1284	-19268	3216	-5940	-7313	9305	-3854	-18348	1952	-4276	-1399	11550	4246	-1184	20628	26708	-343	20708	-22990	-16416	6728	-12200	-5885	18103	6952	-24860	1648	-13688	2322	-28206	1155	4	47	1
-8436	-4972	13224	956	1889	502	-18264	-4860	-6716	-1841	6447	-2085	-17304	1244	-3080	-4539	10030	6748	-32768	19344	28892	-4769	-3044	-5950	-7704	4756	-18664	111	2102	2922	-22308	5924	-2288	-9237	-29196	2851	46	39	1
-8344	-4632	13524	1347	1681	405	-16536	-236	-4932	2328	5220	-1901	-15468	-4324	-3776	-4833	10243	8672	3760	12880	20600	-3055	-25405	15700	-3684	-1924	-5096	5179	-4079	322	-21200	3820	-2328	-3888	-23356	3544	62	46	1
-8260	-5584	13004	1114	1432	327	-16304	500	-3804	-4801	5365	-1026	-14484	-6004	-4364	-2768	10214	7438	10728	8288	12388	-3895	-28377	20114	-9988	-1288	-2356	4738	-12394	-2999	-20660	2908	-3572	3044	-20483	1932	77	51	1
-7772	-5936	12616	1214	1242	907	-17196	-2600	-2656	-6425	4334	-801	-16652	-5168	-3364	125	11042	5882	5272	2532	11432	-5094	-27780	19023	-5448	5208	-5496	-4370	-21093	-3764	-16944	4608	-6880	4952	-17971	1266	73	51	1
-8052	-4100	13532	790	1376	936	-16612	-1260	-2492	600	3902	-237	-17244	-2632	344	2674	11272	5461	-2216	-868	13516	-2400	-31824	16870	-2896	5080	-7704	-15260	-26312	-5430	-11708	5296	-7532	197	-15759	712	77	61	1
-8076	-4048	13612	342	1482	909	-16416	2784	-2236	3161	4375	290	-15436	48	1024	2820	11352	5194	-5316	-228	14368	573	-32768	15103	-1968	372	-8120	-13394	-31042	-8383	-8176	5472	-7640	-5911	-11656	392	79	63	1
-8400	-4156	12872	116	1190	1102	-15504	1568	-1908	-63	4884	-426	-13676	-264	224	-589	10948	5827	-5460	68	13384	2280	-32768	13521	-3264	-1612	-8224	-5805	-32768	-12020	-6844	4428	-8892	-9649	-6841	339	82	65	1
-7940	-5108	12752	554	722	1706	-15576	-1220	-2428	-940	5537	-946	-15672	-3216	-1432	-5105	10481	5873	-7616	-676	14160	4917	-32768	14669	-5956	-1536	-9040	-4131	-32768	-15363	-5984	3488	-10256	-12565	-2812	740	85	74	1
-8344	-4600	12700	845	615	1949	-16812	-56	-2832	-127	5614	-692	-16108	-3972	-1408	-6145	9630	5692	-13704	2916	18096	5763	-32768	17860	-7944	1396	-10792	-1704	-32768	-17693	-4408	1624	-11068	-14651	-52	1545	86	78	1
-8336	-3760	13196	924	828	1900	-15928	584	-3172	-95	5666	-359	-15524	-3188	-1100	-2005	10862	4198	-13804	1960	21224	5041	-32768	19601	-13552	2212	-12052	-727	-32768	-20748	-4332	1136	-11132	-14164	1716	1744	81	85	1
-8216	-4220	13500	498	1229	1712	-15676	1348	-1648	-403	6821	-189	-15848	-2064	996	-17	11014	3517	-18748	-1100	24236	7616	-32768	17050	-19740	852	-12864	-38	-32768	-24135	-8324	1064	-8760	-15762	881	-903	73	99	1
-7936	-4640	13320	573	1790	1892	-16456	1052	-432	-434	8046	-468	-15356	-3588	1584	-1593	10341	4135	-20768	300	24828	8255	-32768	16009	-21204	-528	-14400	8588	-32768	-22678	-11872	420	-5300	-21052	-1851	-1574	76	109	1
-8164	-5152	13260	1025	2216	2542	-16028	-644	-1760	1190	8967	-568	-15472	-3548	1064	-2298	9960	3800	-32768	6204	26308	14164	-32768	9510	-24764	5412	-12560	17605	-32768	-15628	-14832	1136	5584	-10123	-7536	-2294	86	115	1
-9016	-4064	13512	1029	2968	3234	-16960	468	-3156	1694	9762	-460	-16576	-3916	-140	-138	11669	3359	-32768	4420	12228	11581	-32768	10855	-20092	7304	-13220	9719	-32768	-10289	-16952	-1164	14052	3919	-4343	-5962	94	124	1
-8332	-3428	14152	1016	4105	3178	-16100	1524	-1220	830	11309	-220	-15804	-4448	-1744	121	12385	2265	-32768	-6628	2164	10088	-31833	12658	-18592	5328	-11164	-324	-30483	-8173	-20840	-5172	24068	-10251	3797	-3009	97	94	1
-7856	-3564	15188	1093	5967	3310	-17180	152	-1008	1083	13480	239	-17292	-5496	444	-3437	8712	1668	-32768	-9608	-8836	4141	-17767	11780	-12596	4768	-5904	5093	-17787	-4755	-19988	-10752	29288	-12250	4228	-469	103	77	1
-8428	-4408	15576	1681	9237	4037	-18664	1236	-2836	1790	15173	478	-18552	-2720	2760	-5360	6180	2019	-32768	-19972	-16816	-924	-2818	2716	-3492	6920	-5276	1930	676	1533	-16304	-4496	26764	-106	900	-966	113	104	1
-8600	-3888	16612	2265	13076	4985	-19376	2196	-3164	1730	16549	460	-19012	-3732	-592	-8034	1710	2857	-32768	-12008	-17588	-7238	18807	-8985	-8620	8568	-11892	-6107	16081	5317	-16448	-2288	24756	4511	763	-1361	133	89	1
-8900	-4212	17068	2823	17243	6077	-19840	2060	-2496	2033	18467	758	-19452	-5880	-2100	-6296	-394	2973	-15156	6776	28268	-7116	21517	-10268	-16700	-1904	7932	-5428	20867	5908	-19692	-9280	13464	-1315	6845	-4244	154	90	1
-8364	-5760	17980	2467	22141	8225	-22280	2876	-1452	703	20897	458	-21208	-7220	2380	-873	-2397	1321	-4088	17860	32767	-6599	19148	-8831	-32768	-2612	-2368	-6254	13711	6406	-11392	1444	-8932	19974	5951	3660	163	110	1
-8824	-8092	19996	2524	29277	11669	-27480	1700	-2944	-1039	23316	381	-24424	-9440	9280	1385	-6277	-758	-26120	1216	32220	-4209	25805	-4564	-20076	-2012	-6180	-11123	16980	7785	-28508	9024	5260	-13156	-2788	-114	173	125	1
-9844	-18612	20052	4127	32767	19338	-32768	4340	4208	-1721	24089	-547	-25704	-11892	14064	-5868	-18749	-3255	-5324	-1700	16076	-439	13809	-7765	-13400	4120	-10080	-1309	14827	6235	-17416	14680	-6576	2366	8242	4401	183	148	1
-11812	-12388	21628	4649	32767	29636	-31984	4608	1540	-7858	24963	-4806	-24768	-2972	12460	3995	-20522	-2317	-28336	20824	14608	-5558	5942	-4951	-16672	12936	-10940	-3459	13428	5706	-13092	-5496	-4468	-5166	10508	7992	186	139	1
-24176	-5340	24128	927	32767	32767	-29472	3084	-3836	-16212	28060	-5174	-24316	-4076	5880	2378	-20929	-2375	-6348	-2220	18088	-3089	1715	-2660	-19316	-2916	-8588	-7207	9263	7280	-14616	2860	-7716	15542	12195	4355	199	130	1
-27148	-8112	19128	-3279	32767	30228	-26740	-4000	-10980	-17908	27007	233	-21232	-6788	-12688	-2797	-14792	-5591	-7172	2296	16948	-2913	2074	-2337	-15192	832	-5708	1967	8281	4953	-16932	4716	-2760	5792	10551	4092	203	115	1
-32744	-9624	20280	-2327	32767	31681	-19740	-2676	-10152	-4725	21902	2549	-25304	584	-13060	3172	-15039	-10311	-7696	8112	13744	-595	1404	-899	-17700	-452	-3520	9725	7473	5154	-15536	5248	-428	4803	10344	3859	209	113	1
-13672	-23096	24412	5066	24621	30417	-11488	-7632	-18032	810	13694	2967	-24892	2968	-5980	12089	-21368	-10535	-7544	3888	14692	-343	984	-457	-16096	5740	-3336	12917	6717	4190	-15500	5912	-652	10536	10135	1453	197	130	1
-25672	-8780	11212	8143	8665	8315	-8808	-184	-13584	11763	6107	-310	-24192	-2460	-4512	14788	-22457	-10673	-7108	5432	14192	-793	933	-593	-17220	8468	-2704	3192	5745	2684	-15848	8740	-520	6629	11056	1714	194	128	1
-4040	-12968	19380	2126	-13068	-16209	-4700	1420	-8928	5981	630	-868	-21564	-1796	-5132	4135	-18460	-12036	-7032	5420	14632	-1543	1290	-591	-17036	3828	-2280	-2225	4946	1172	-15644	7568	-372	1902	13442	2207	188	121	1
9332	-14380	10668	3603	-16458	-27291	-8560	3920	-1080	6328	-8949	-1077	-21028	-1260	-7644	-366	-16066	-12028	-7872	4996	14312	-1325	1569	-386	-16568	72	-2580	1693	4506	730	-15572	7064	-552	1055	14091	2165	185	119	1
5024	-7620	10204	7177	-17040	-28237	-7288	-2276	-4268	9343	-16764	-580	-17412	-1072	-7888	40	-14939	-11686	-7548	4516	14924	-200	1608	-229	-16212	-12	-2840	6100	4128	983	-16040	1292	252	1666	14431	1411	180	116	1
-468	-3000	11480	5851	-21567	-27744	-3216	-2732	-7156	14431	-24373	-222	-11840	736	-6172	802	-12715	-10698	-7636	4444	14456	455	1548	-215	-16300	2188	-1840	5570	4071	1226	-15668	-48	976	4958	14303	1612	174	119	1
-4156	-1088	12472	2234	-29812	-27104	-2060	64	-7784	12732	-30442	1359	-9636	-264	-7296	1792	-10225	-8911	-7600	4936	14628	399	1492	-586	-15572	2852	-1244	1214	4006	1159	-16096	1428	1656	5596	13646	1757	149	121	1
-6188	-168	12672	-1420	-32768	-24641	-4444	-120	-8592	10824	-32768	3071	-9008	236	-7800	2906	-7723	-8225	-7928	4480	14288	174	1194	-788	-15268	2124	-704	-239	4658	1200	-15964	2564	2524	4651	12414	2316	137	123	1
-8284	-384	12504	-4516	-32768	-22187	-7200	1040	-7968	7980	-32768	4440	-9032	1204	-8848	4453	-4254	-6828	-7560	5588	14068	-228	738	-983	-15612	3860	-8	1936	5405	1499	-14892	2976	2460	2962	12005	3285	135	128	1
-10644	-2772	14272	-5820	-32768	-19490	-9860	3348	-9624	5818	-32768	7267	-9072	2444	-8024	7781	-716	-4792	-7272	5432	14364	-219	860	-1442	-16156	2244	-344	1775	6143	1917	-15188	2788	1440	-302	12387	4089	134	135	1
-13864	-4232	17928	-6415	-32768	-17614	-12492	2480	-12420	-2620	-32768	7132	-7876	3476	-7320	10247	154	-3594	-8036	4620	14420	-162	997	-2029	-15872	1020	-1836	1802	6732	2032	-15788	3156	352	-2413	14333	3178	135	143	1
-17212	-3468	20276	-9538	-32768	-16685	-16108	8072	-12416	-10314	-32768	7704	-8292	3676	-6524	14242	56	-2428	-8020	3900	14560	-230	1241	-1824	-15124	1872	-1784	1667	7386	2070	-15288	4044	-288	-2417	13132	2211	138	145	1
-26416	-4160	23544	-15883	-32768	-14472	-17516	5700	-13728	-20835	-32768	5821	-8360	6672	-3428	11556	-184	-472	-7832	4660	14064	-392	1371	-1767	-14372	1740	-916	-107	8567	2223	-15708	6340	-3268	895	8408	2295	141	145	1
-32768	-7576	23052	-19567	-32768	-13661	-19600	100	-15492	-30623	-32768	196	-8360	5984	-588	6098	259	-668	-7468	5416	14708	-366	1928	-2381	-17228	2456	-1908	-735	9364	2395	-17784	3244	-1596	731	6593	1830	149	145	1
-32768	-4616	17708	-18141	-32768	-12581	-24092	-5836	-12720	-24803	-32768	-5103	-14764	-3800	5132	-2346	-4388	-4077	-8068	4416	15336	-57	3413	-3319	-18456	544	-3056	-337	9745	2760	-17932	128	2156	-373	9283	2260	158	145	1
-32768	5900	7772	-16406	-32768	-8936	-21116	584	-11892	-11200	-32768	-6272	-20792	-9608	14788	-5492	-6559	-5825	-7032	3688	16412	95	6068	-3064	-17000	-352	-1148	2286	11107	2967	-17844	392	3620	2998	10403	2974	198	168	1
-32768	12780	-1236	-13483	-22454	-9945	-16236	-1644	-10432	-6824	-24811	-3086	-20072	-9840	22612	747	-3609	-2609	-7148	5132	16696	137	9291	-3654	-17748	624	1512	1926	13727	3329	-19092	252	3236	4868	7759	2996	252	222	1
-32768	11420	-12492	2515	-14200	-7931	-8268	-1092	-11300	625	-9790	-2200	-13552	-20124	26496	-6624	3511	-1221	-7276	4684	17024	-184	13446	-4692	-17892	1236	824	-398	16711	3968	-20176	1908	6700	4636	4166	1062	241	234	1
-32768	25720	-14632	10934	-1754	-2026	-6020	-3232	-10592	6471	6674	-561	-13512	-13176	13924	-11765	1274	2652	-7324	5088	17460	51	18854	-5613	-20144	676	-904	-1002	19273	4178	-20452	3904	5404	5522	1645	-345	207	222	1
-32768	13112	-12496	15225	17734	9020	-11772	-2924	-14620	21332	18601	1129	-14328	-7512	4368	-8962	2098	5241	-8248	6080	17908	347	25048	-7650	-22312	-412	-340	835	21535	4977	-20516	3908	4624	6057	1332	-657	174	212	1
-12840	-3628	32767	9999	14146	3319	-15604	5036	6220	20649	18603	2053	-9864	-8184	-1200	-15222	7005	2035	-7584	5336	19384	523	32579	-10880	-24340	1328	3004	4553	23924	5318	-23552	2952	9132	4571	-3605	-1683	126	201	1
5540	-13416	7872	3631	16373	1819	-32768	12940	3744	22201	13578	-824	-17860	10484	-252	-2175	1367	6733	-7104	13508	22196	-680	32767	-17115	-32768	-1256	4172	4134	25851	5999	-24412	1788	10940	-495	-9002	-3589	73	183	1
-24616	8040	26736	6408	28399	5711	-17276	7304	-6184	12471	13115	1662	-26684	-15136	5276	14671	-145	3947	-16132	13212	22880	-114	32767	-25563	-32356	-3280	3720	5268	26575	7487	-25820	-6368	9020	-2542	-13944	-8201	41	167	1
-17008	-2760	17284	5715	11925	8490	-13876	-4432	-12120	2325	14641	-295	-19580	4372	-1836	722	9740	2701	-21556	9000	22104	1787	32767	-26858	-31056	2156	-2100	6714	26680	7698	-25368	-8	6388	2438	-18563	-9337	17	143	1
-18356	-804	18384	6753	5559	5526	-21192	-2884	-11432	3385	14700	-6893	-14076	15192	-14176	-1981	17504	2194	-22960	9720	21548	3130	32767	-26808	-24584	8888	-6684	6823	25411	4254	-23884	10660	-3552	20961	-24624	-5611	0	96	1
-8176	-8628	13372	3615	2763	1263	-17428	3700	-8036	3002	12029	-3527	-11740	1428	-3144	-11692	4483	730	-22576	6404	17176	2732	32767	-28507	-19852	9048	-14208	-4582	22338	3774	-21448	11780	-11504	22638	-26088	-2567	1	89	1
-8472	-2708	14284	2929	2262	1265	-15156	300	-7512	-6645	11586	-2861	-16456	-6180	-7912	-10322	13395	2764	-21596	21496	26612	-1359	28806	-23405	-13604	9244	-10640	-8952	16810	2807	-24792	7268	-14288	6463	-25843	-69	49	113	1
-8732	-4596	13736	1494	2159	923	-20204	-2336	-6360	-6911	8694	-3058	-16416	-4384	-4968	-8039	9774	3387	8784	19192	12868	-19129	13043	-21187	-8892	8868	-12284	-8243	8967	357	-23784	6156	-7212	-11190	-27826	2261	105	108	1
-8768	-4504	13160	1235	1946	482	-16992	-3040	-5280	-384	6478	-1410	-17096	-3104	-2000	-5622	9538	5902	-15396	7316	27508	-10409	-20919	6198	-5720	5508	-14184	-1963	2563	-2851	-20360	9008	-972	-14965	-24506	3623	73	61	1
-7736	-3948	13708	1017	2236	188	-16880	1428	-2896	500	6488	-1462	-15540	-5096	-2032	-4005	8911	7664	9272	12476	13232	-6839	-30624	16272	-7864	-2208	-1132	81	-4790	-5783	-20616	7572	-868	-14347	-23200	4003	76	65	1
-8040	-5960	13048	362	2840	208	-17492	152	-2632	-5999	6685	-853	-16272	-5324	-2872	-2727	8352	7809	8276	8272	8356	-9493	-29563	14871	-8188	2856	-4180	1106	-12970	-7931	-21216	2860	-4672	-4310	-17482	2063	83	67	1
-8820	-5352	13004	-63	2837	497	-16800	-3328	-3948	-5544	5960	-980	-16596	-4816	-3452	-1041	9527	6645	2784	2700	7852	-8560	-27891	12105	-2664	5288	-6096	-10056	-20270	-9512	-15568	3140	-6920	-3432	-16033	1073	83	53	1
-9084	-4864	12608	-91	2279	596	-16212	-2140	-4380	-729	5120	-162	-15732	-2780	-2392	775	11287	6029	-4168	1724	10176	-2704	-31772	12244	-1372	2920	-7868	-14030	-25097	-10568	-10200	3448	-7496	-6048	-13426	617	84	53	1
-8948	-3836	12856	-187	1814	571	-15640	1232	-3484	303	4679	131	-14076	-372	-1336	1132	12308	5349	-6384	4620	11396	684	-32768	13091	-1928	1548	-8276	-7742	-28676	-12861	-7848	3988	-8136	-8670	-9808	254	85	64	1
-8548	-4592	12608	-248	1589	700	-15492	692	-3064	-1458	4988	-466	-15132	-412	-1504	-994	12056	5808	-7172	3440	11740	2329	-32768	14062	-4708	1280	-8060	192	-32768	-14594	-7072	3664	-8196	-10837	-6275	21	89	69	1
-8464	-4412	12856	-264	1745	880	-16828	916	-2640	-2687	5261	-377	-15228	-624	-1540	-1414	12019	5904	-9780	2932	12816	4800	-32768	16071	-5200	2000	-8352	1976	-32768	-16746	-6532	3164	-9180	-10349	-2797	351	97	70	1
-8976	-4124	12844	-375	1940	1316	-16408	-472	-2664	-3063	5347	-978	-15788	-3500	-616	-6053	10541	5664	-12428	6640	15652	5101	-32768	16949	-8888	4324	-9332	545	-32768	-16814	-5768	2340	-9776	-10250	-142	1207	95	76	1
-8776	-4680	12640	-385	1750	1239	-15456	-812	-2364	-1519	6528	-1069	-14432	-3828	-476	-5998	10682	4745	-14300	6376	19304	5359	-32768	17319	-15344	4180	-11596	-1950	-32768	-18338	-6312	1084	-9844	-10655	1340	1636	87	86	1
-9032	-4608	12340	-108	1738	1344	-14976	-1068	-1104	-2788	7008	-603	-14384	-3984	-328	-5684	10913	4655	-19068	4432	23548	10796	-32768	17631	-20112	3676	-13840	-803	-32768	-20901	-8712	1296	-7992	-11934	1116	423	82	98	1
-8736	-5196	12364	209	2007	1725	-16380	-1136	-572	-1367	8319	-216	-15468	-5812	-368	-288	11320	3851	-32768	10932	29376	15445	-32768	16033	-19132	1100	-12688	8061	-32768	-20517	-11196	2068	-3224	-16073	-2557	537	84	108	1
-9220	-4924	12912	515	2363	2522	-16756	-764	-2912	800	9444	-170	-15492	-3808	-772	-1491	10807	3146	-32768	11620	24232	13743	-32768	16831	-24116	7704	-11700	16891	-32768	-12222	-14784	3732	4712	-8675	-7021	-832	91	112	1
-9164	-4248	13040	524	3107	2723	-16100	1152	-3384	-316	10226	-243	-16028	-3532	-3276	-4008	11130	2506	-32768	6944	9500	9906	-32768	16537	-21404	8980	-10940	3352	-32768	-8097	-18008	-336	9380	802	-2452	-2234	97	102	1
-9148	-3752	13648	470	4228	2598	-15388	828	-2356	-459	11223	-148	-15172	-1692	-2480	-5646	8665	2815	-32768	5892	7776	9731	-32768	16233	-21364	3756	-10052	-5132	-31657	-5034	-14244	-8032	26600	-15286	3576	560	102	111	1
-8880	-4180	13992	271	5945	2734	-17212	-204	-2456	-330	13065	60	-16716	-3296	3220	-3244	6673	2895	-32768	-10232	-9600	10111	-9961	15272	-20928	3460	-10228	-4254	-29676	-4506	-20368	-8424	31500	-15394	3000	376	103	87	1
-9040	-5176	14888	693	9113	3355	-19300	220	-3280	582	14401	529	-17648	-4312	824	-8844	5753	2697	-32768	-13844	-16284	1618	2552	8968	-1260	6328	-5132	1030	-235	3199	-19256	-7928	30828	-943	1433	431	110	115	1
-9248	-4516	15484	1289	12966	4614	-19376	2420	-2996	852	15619	438	-19396	-4168	-2532	-10043	4022	3214	-32768	-10936	-8264	-964	9380	2687	-4092	9024	-12780	-5138	15728	6723	-17920	-292	14548	13840	3156	88	120	114	1
-8996	-4936	16304	1109	17202	5604	-19260	2480	-1004	885	17990	428	-19660	-6640	-748	-5226	576	2767	-1112	7532	-2464	-16595	21934	-1390	-14860	3560	-6372	-8847	22313	8961	-13436	-7408	4172	7082	6776	1045	139	94	1
-8872	-6660	16616	687	22197	7514	-21036	2092	720	965	20653	-6	-20800	-5320	5116	97	-2895	451	9988	19892	32767	-5989	14928	9306	-29088	-15560	15148	-11737	14114	5249	-764	9536	-8396	10875	4552	5138	154	112	1
-8520	-7828	19608	335	28927	10789	-21452	1940	556	989	21139	-141	-24816	-7496	14612	983	-9840	-1439	-16976	-14532	19780	-8050	30454	-6834	-31720	8220	-11704	-26757	15652	7888	-32768	5160	652	-12676	4598	-435	172	133	1
-9908	-14296	21596	-377	32767	17274	-32768	5968	3356	-3870	25032	-1885	-26340	-10680	12172	-11395	-19130	-4489	-18248	-196	22248	238	14390	-8953	-12952	-5316	-9004	-14035	17440	5083	-24232	13560	-2452	-15062	10220	207	181	139	1
-12640	-12788	21368	-1013	32767	27362	-32768	7768	640	-11155	25759	-6095	-26392	-2284	9948	-3008	-19650	-3052	-18640	23684	16368	-4936	14826	-6142	-12856	6376	-8252	1386	14282	6548	-14668	-10504	-2764	-12783	11491	6766	184	141	1
-26364	-7900	21472	-4941	32767	29980	-28020	3344	-5012	-20532	28485	-5004	-23628	-3152	3284	-1946	-19039	-3203	-7636	-1316	17292	-4084	3137	-4238	-20792	6328	-9092	-768	13633	11563	-9896	316	-6620	15050	8561	4143	196	131	1
-31876	-13712	18324	-6797	32767	28400	-25060	-6736	-11828	-23081	27764	-730	-20748	-4352	-14768	-8493	-17880	-5634	-10308	8464	14188	-4434	3808	-3743	-15416	3904	-7304	2374	10163	5447	-15820	7528	-7428	17294	8192	3928	202	112	1
-30844	-8704	17000	-9018	32767	29702	-19916	-5384	-11000	-6242	21264	1539	-26648	-1220	-9492	3571	-19357	-8954	-7844	5152	15408	-3297	2897	-3071	-18532	992	-7672	5096	8357	5078	-17412	10384	-3660	1882	9673	6866	219	105	1
-12244	-21524	25884	-7113	28878	28554	-11812	-6596	-18844	3740	11927	3014	-25032	536	-8812	8136	-21597	-10613	-8688	2104	15520	-1115	2031	-1308	-17784	2620	-6660	5766	7016	3099	-15804	3476	-2564	3125	12640	3179	210	132	1
-25624	-10472	8600	1450	9804	16329	-7836	-1124	-12532	11265	3958	-685	-24856	-1080	-4268	13391	-23115	-10639	-8092	5224	14468	-742	2049	-518	-16300	5060	-4592	3124	6087	2850	-17460	3808	-2052	6234	11101	292	211	125	1
-7996	-11640	21248	-1728	-20056	-9414	-3196	1676	-11568	4799	-2097	-3485	-22372	308	-6632	4886	-18602	-11094	-7808	4812	14896	-801	2161	-622	-17132	3116	-2788	-156	4729	1943	-16544	6440	12	6009	13211	880	189	112	1
4572	-11064	11720	-2732	-26316	-23829	-6256	5092	-1400	5367	-9604	-4769	-19596	1444	-7096	-1238	-17757	-10637	-8076	5896	14284	-382	2224	-818	-17280	1316	-2796	2925	4523	1166	-16412	7300	-1036	2667	15147	2259	184	123	1
4828	-7600	9568	594	-28643	-28279	-6184	1588	-4976	770	-18133	-3259	-15472	296	-6872	-2111	-16567	-10514	-7992	4540	14644	513	2367	-645	-16176	1620	-3736	4016	3852	1116	-16200	4684	-1440	-1114	15624	2673	180	123	1
-248	-3480	9952	3197	-30723	-27730	-2960	-3240	-6348	6402	-24414	-2789	-12628	68	-6840	-2670	-13419	-9761	-8168	4556	14508	823	2295	-531	-15752	1704	-3076	2177	3897	1188	-15612	824	-584	-378	15714	2680	167	125	1
-1892	1344	10624	2130	-32768	-26585	-3112	-400	-7220	9761	-31320	-1516	-9668	488	-6692	-1913	-10134	-8050	-7940	4256	14112	863	2546	-569	-15632	1308	-2340	1073	4017	1347	-15876	-416	876	1366	13814	1336	152	130	1
-4244	1840	11576	-1385	-32768	-23711	-5508	1052	-7604	11264	-32768	1369	-8656	336	-7880	-459	-5900	-7203	-8132	5188	13964	737	2303	-900	-15792	1900	-1904	915	4130	1623	-15508	28	2188	1999	13415	2255	138	137	1
-6628	752	12764	-4438	-32768	-20276	-7896	2204	-8996	8107	-32768	3889	-7860	1208	-8768	1117	-2954	-6438	-8444	5012	13588	391	1857	-1212	-15568	2336	-1784	1666	4526	1994	-14828	1508	2284	1175	14326	3565	151	153	1
-11812	-1892	16452	-6440	-32768	-17914	-9740	3260	-11324	3632	-32768	6137	-7320	3728	-7644	4269	784	-4467	-8436	4940	13644	148	1309	-1446	-14264	1980	-576	2063	5073	2178	-14496	2932	852	-1814	15726	4280	200	209	1
-16640	-3680	19952	-7740	-32768	-17591	-11212	3916	-12364	-1900	-32768	6862	-7552	3988	-6880	7120	816	-2158	-7956	4952	13964	-50	981	-1583	-14224	560	512	1741	6690	2321	-15348	3652	116	-1652	14203	3234	240	244	1
-19664	-3192	21972	-10298	-32768	-16902	-16532	8912	-12192	-10759	-32768	6963	-6940	3968	-6012	12517	-834	-1046	-7848	4864	14284	-338	1270	-1887	-15748	1720	-800	1785	7972	2550	-17240	4424	-472	1569	7111	2032	235	241	1
-24392	-2340	23540	-14926	-32768	-14063	-19580	5504	-14164	-24737	-32768	4999	-7576	5260	-3732	11358	-2014	-537	-8348	4928	14300	-361	2236	-2116	-17332	3264	-4080	-967	8629	2250	-17612	3228	-2480	1649	4207	1348	225	230	1
-32768	-3024	22832	-18731	-32768	-10779	-19644	-996	-15064	-32768	-32768	-320	-9212	1140	-36	5914	-2692	-2381	-8572	4292	14460	8	3236	-2282	-16192	-4	-4980	-199	8561	2252	-14840	1248	-2144	618	7889	2381	227	218	1
-32768	-3720	18072	-20383	-32768	-7210	-24128	-3892	-13120	-24068	-32768	-5237	-16956	-5812	6444	-413	-5065	-5064	-8356	4388	14840	540	4444	-2103	-15624	616	-2284	3892	9630	2655	-15832	2404	380	2475	11321	2570	231	205	1
-32768	5732	6652	-22088	-32768	-6967	-19840	2756	-13224	-15523	-32768	-6558	-22092	-7432	17208	-4365	-4472	-2936	-7624	5592	15444	409	6479	-2862	-17664	2616	616	2604	11532	2783	-19268	3716	3940	5162	8847	2325	228	194	1
-32768	10576	-4856	-15680	-25934	-9957	-12744	-1848	-8424	-8255	-21977	-5448	-18684	-11060	25000	-2706	-412	-925	-7776	5532	16256	57	9720	-4033	-19108	2148	-340	-899	13639	2672	-20612	1596	6352	2341	5901	2818	213	181	1
-32768	11276	-14476	6446	-9485	-6542	-9220	-2764	-7236	2020	-6668	-2165	-11496	-20636	24944	-10656	3657	-998	-7828	5680	16332	-2	10297	-4181	-19044	-848	-384	-746	15959	2856	-19216	1528	5684	3502	4714	1843	190	168	1
