#Activity	walking 
#ActivityID	1 
#Date 09-30-14-25
acc_rf_x	acc_rf_y	acc_rf_z	gyro_rf_x	gyro_rf_y	gyro_rf_z	acc_rs_x	acc_rs_y	acc_rs_z	gyro_rs_x	gyro_rs_y	gyro_rs_z	acc_rt_x	acc_rt_y	acc_rt_z	gyro_rt_x	gyro_rt_y	gyro_rt_z	acc_lf_x	acc_lf_y	acc_lf_z	gyro_lf_x	gyro_lf_y	gyro_lf_z	acc_ls_x	acc_ls_y	acc_ls_z	gyro_ls_x	gyro_ls_y	gyro_ls_z	acc_lt_x	acc_lt_y	acc_lt_z	gyro_lt_x	gyro_lt_y	gyro_lt_z	EMG_r	EMG_l	act
-32100	11312	-4356	-3638	-5697	-6618	-9464	912	-4424	4489	-5261	-1905	-15436	-15316	15708	-1381	-857	-3919	-9212	5524	14576	1436	12215	-3456	-17864	856	-2328	-491	13755	3694	-17892	2032	1212	5755	4909	2132	142	132	1
-29776	10252	-3180	1559	5158	-2684	-9300	248	-8448	5051	6363	-1137	-16156	-9444	10700	1611	-2547	-1543	-9452	5584	14860	1688	15948	-4172	-17988	540	-1676	1624	15121	4352	-18676	708	424	9140	3039	1431	166	132	1
-27332	5588	2044	5517	10458	530	-11540	-1392	-12040	7611	12866	-1226	-13868	-5924	2316	-2701	127	1245	-9736	5888	14752	2192	20460	-5256	-18732	860	-868	2153	17019	5249	-19376	-656	2224	9994	1060	1035	159	142	1
-15172	-844	-3556	25047	18471	7810	-15540	-1000	-10976	14306	16872	-1267	-9400	-2284	-576	-5690	6416	4264	-9936	5880	14980	2299	21261	-5500	-20868	56	176	2446	19472	5815	-20772	-416	6424	9780	-1049	462	134	148	1
11196	-16472	26112	13517	18180	-3055	-23852	6188	12312	17256	11213	1250	-8440	-5340	-5832	-6000	8259	3905	-8616	5796	16828	3893	32767	-9140	-24488	-672	-1944	1500	21427	6245	-24040	1376	14456	6763	-6651	-876	115	156	1
-2720	2800	16012	13349	32767	-747	-26104	6744	15936	19374	9768	1609	-31972	-7456	12516	6840	-2881	5524	-12412	11096	18948	4197	32767	-13059	-30664	-4764	4420	5998	23400	5708	-23236	2948	10048	2790	-8400	-3383	120	154	1
-31000	16588	32340	5740	21489	6485	-14328	9992	-8472	21979	12008	2645	-27144	-18412	10164	25447	8227	-307	-19256	12872	19764	6148	32767	-18623	-30148	-108	1888	8501	24423	7705	-25904	-3280	7288	320	-13282	-7799	122	148	1
-5096	-6004	14868	2499	15716	10475	-14260	8524	-5512	12152	14223	-72	-19056	12632	-1868	6981	17175	4418	-27500	14512	18240	8155	32767	-21460	-29548	4736	-2852	8873	24904	6913	-23944	1268	1748	7569	-21030	-7203	113	139	1
-31448	-17732	11904	8784	9610	5534	-18364	-5568	-10160	-1685	15351	-7562	-9396	21992	-10188	-9340	11427	4832	-25636	7332	15576	8523	32767	-25329	-22876	11600	-9408	6139	23271	7214	-23216	7300	-6600	18747	-28704	-4003	106	151	1
-9452	-2812	15916	5540	4854	3543	-17636	-1172	-9392	1813	12816	-3693	-9260	-5020	-3368	-17172	2660	-520	-32768	7684	22096	8161	32767	-19918	-18300	7764	-13900	-4961	19243	5534	-25456	11716	-8204	17439	-25784	-3180	98	144	1
-7532	-384	15644	5190	3280	2366	-18204	3284	-6580	-5008	10971	-3259	-19280	-13944	-11024	-13213	11317	118	-4764	14312	24356	10272	30424	-18048	-15620	856	-6688	-7843	11694	2150	-25980	7504	-11612	3203	-25187	-763	113	136	1
-9040	-5648	14136	2899	2882	1329	-18152	-2844	-5796	-5579	9813	-1354	-17260	-2944	-3684	-4449	9248	2828	6076	17984	18856	-2348	24090	-20499	-9608	7696	-8504	-7709	5123	-2640	-22444	7252	-7076	-7098	-23143	1209	125	116	1
-9020	-3832	13856	1357	2007	631	-16264	-2412	-6312	3350	7277	-1150	-17084	-4416	-2992	-1997	9704	6428	-27456	15872	29988	-12375	-17763	-1671	-1496	10476	-21656	236	-796	-5097	-20024	3740	-2848	-9666	-21715	1039	126	115	1
-7988	-3584	13968	1182	1687	516	-17880	1980	-4156	5283	6390	-1184	-15344	-4052	-2656	462	10102	7668	-4776	8584	20080	-12753	-32768	10083	-5556	1808	-5288	405	-4376	-3614	-18700	1556	-1432	-5381	-19814	608	127	109	1
-7764	-5484	12904	1049	1701	667	-17008	420	-2892	-838	5598	-323	-15008	-4136	-2956	1015	10226	6711	560	3612	10616	-10402	-32768	9117	-8692	28	-3912	244	-12952	-5780	-19512	2268	-4616	-46	-17018	-603	114	82	1
-7716	-5604	12828	1591	1947	1481	-16440	-1580	-3424	-4271	5002	-1090	-15544	-3624	-1496	2361	10376	5883	2440	-624	7268	-6252	-32768	4555	-7060	2956	-6744	-1945	-20237	-7504	-15268	3844	-5612	-733	-15785	-952	115	77	1
-8700	-3736	13272	1512	2285	1082	-17140	372	-3528	-2659	4237	-1316	-16416	-2380	-1764	3165	10787	5228	1760	-1620	7480	-5239	-32768	3933	-4932	3100	-5984	-3638	-25197	-9214	-12560	4288	-6808	-3003	-13858	-1053	107	77	1
-8804	-3888	13552	700	1970	477	-15768	924	-4624	127	4150	-420	-15684	376	-1956	1229	12679	5328	-2156	-344	7216	1493	-32768	1880	-4008	1668	-7408	-1706	-30614	-12012	-9988	5120	-7728	-4642	-10720	-879	107	81	1
-9112	-3224	13084	100	1437	667	-15000	1564	-4332	-524	4130	-957	-15264	1240	-1220	-2150	13745	6183	-8532	6492	11292	4748	-32768	4362	-5240	960	-9552	3714	-32768	-13802	-8032	3956	-8232	-5883	-7398	-222	103	88	1
-8192	-4056	12948	-27	1216	606	-16804	1480	-1892	-2707	4669	-1543	-14844	-2220	-1560	-3823	12350	6206	-11872	6868	12944	6949	-32768	10715	-7060	4316	-11092	5335	-32768	-14709	-7136	2344	-9304	-8940	-4477	178	103	97	1
-7632	-3556	12828	-857	1181	958	-15952	4772	-36	-9172	10023	-3936	-16960	-3284	-140	-3432	9824	5197	-16140	11156	14520	8523	-32768	17423	-12308	2400	-11228	1711	-32768	-17256	-5164	-312	-9868	-9963	-2840	199	107	101	1
-8472	-3796	13020	-766	2248	1668	-15240	-268	-3472	-10009	5523	152	-16284	-3640	620	-3297	9834	4493	-17488	4988	18536	10180	-32768	18978	-15932	1748	-11304	2857	-32768	-16267	-5916	-28	-8952	-5779	-3184	-1668	108	109	1
-9012	-4548	12764	-600	1612	539	-14456	-4340	-1508	6710	11017	-3097	-14756	-6336	440	-5731	10791	4379	-23500	2960	22916	13844	-32768	16314	-19004	5680	-12876	10567	-32768	-13298	-9424	2440	-4652	-6382	-3659	-2829	111	111	1
-8168	-4356	12984	-219	2034	500	-16432	-1568	-840	6786	8950	-1173	-14820	-6268	-1952	-6140	9898	2846	-28632	980	26156	14809	-32768	11452	-21772	6288	-11792	10789	-32768	-14013	-13432	4380	2924	-1409	-5817	-2097	109	121	1
-8712	-4600	12996	122	2097	1377	-15928	900	-2256	-16	8333	1248	-14856	-3396	-2176	-1459	8847	2523	-32768	628	26020	17803	-32768	3805	-24792	1604	-11588	13085	-32768	-10785	-16164	2012	7056	4770	-3809	186	108	124	1
-8668	-4288	13592	570	2748	2013	-15776	-24	-2280	-4931	8870	-436	-15312	-4048	-976	-2319	8057	3162	-32768	1628	18436	21694	-32768	-902	-21316	1988	-10172	20752	-32768	-5468	-17516	-1336	10668	5069	169	654	110	118	1
-8744	-4204	13984	435	3809	2031	-17512	-740	-3040	-1807	10439	-367	-16620	-4988	-640	-4566	8423	3671	-32768	-192	9948	22651	-32176	-366	-18484	8060	-7932	16432	-31678	-679	-17620	-1552	22576	3989	2320	-1021	114	113	1
-8588	-3952	14324	410	5532	2287	-17496	-260	-2340	1807	11909	172	-16620	-5080	-796	-4506	7607	2507	-32768	-5444	452	11501	-18558	7959	-13148	7456	-2820	3687	-19988	-1356	-17760	1652	27044	-3153	-1327	345	113	104	1
-8520	-4164	14796	515	7738	2833	-17252	496	-2764	811	12858	794	-16332	-4944	-3128	-4204	5793	2131	-32768	-8428	-10632	-5417	-3901	15411	-6196	1928	-2904	-8469	-2382	-211	-17508	2948	27208	-8360	-1623	3234	119	119	1
-9060	-3824	15144	896	10531	3596	-18308	968	-3844	446	13726	1062	-17832	-4084	-2560	-3809	4958	3123	-29580	-12948	-5964	-3869	10885	9721	-8660	4192	-9680	-11663	10685	3749	-15964	1508	14020	-256	2987	856	122	110	1
-9260	-4172	15176	1033	13635	4421	-18692	944	-4012	1766	14909	1188	-18308	-2760	-1524	-5019	2290	3350	-23164	2708	-4216	-14420	23872	4716	-16084	7236	-12552	-15769	16636	6341	-13832	-24	4396	32	3278	1374	123	103	1
-9048	-5100	16040	392	16971	5670	-18936	2004	-3176	-378	16644	822	-19604	-2884	452	-4103	-204	2435	-4968	-300	26364	-9170	20555	8008	-15336	-2316	-888	-14745	18021	5006	-12400	2520	-140	-7436	3153	1463	126	93	1
-9696	-4772	16392	-1370	21627	6572	-21336	4740	-1904	-5425	19026	48	-21124	-4628	3684	-2955	131	1655	8196	6936	17752	-7236	20886	612	-32004	-5424	3752	-16264	10031	3129	-11092	10900	-9880	-3599	13172	4039	131	96	1
-9104	-4768	18304	-2078	28522	8442	-24868	3216	-2532	-5637	20856	494	-22604	-7460	7776	-3581	-4307	257	-18988	-3644	23940	-4751	30834	-617	-19092	-3308	-4076	-24340	12098	4806	-12860	8568	-10348	-1542	13426	3836	138	106	1
-11712	-9192	19176	-3545	32767	10566	-29012	4812	4256	-5183	21993	2029	-24884	-8572	12536	-4034	-17826	-1495	-14732	-7112	24224	-857	16710	-7377	-17956	-2252	-8652	-11191	13706	6135	-22004	-1648	10808	-26365	6004	943	146	103	1
-11044	-11076	18688	-3518	32767	11544	-29112	6624	2140	-8396	24582	-918	-23380	-1884	8524	-1600	-17579	-1885	-12712	12344	17256	583	15038	-5453	-16808	-1176	-5860	-2054	11627	6267	-17724	-11304	-3140	3072	11420	2811	153	119	1
-22848	-12488	19164	-2698	32767	23424	-27232	1788	-1220	-13978	26378	-1207	-23396	-1200	9592	1480	-17358	-1550	-20408	5336	19416	-1631	6311	-3458	-18560	6148	-6344	5025	11415	9188	-14296	-5996	-1760	11443	9836	4179	158	112	1
-27032	-9840	18056	-3931	32767	24902	-25488	-7096	-9288	-13269	27129	1333	-19192	-8320	-4552	-8309	-16698	-3464	-5428	6840	14480	-1954	4741	-2527	-18024	5296	-6188	5513	11309	9342	-13716	9460	-4780	25820	6002	5055	150	109	1
-31208	-5228	17396	1270	32767	28358	-20980	-6432	-14800	-4096	23898	3902	-21232	-9932	-14264	-3713	-14076	-8121	-7668	7408	14500	-1704	4187	-2781	-16028	5772	-2892	8081	9722	5922	-12960	13940	-1612	8971	6355	6846	157	119	1
-18424	-12836	17920	-1494	32185	23930	-16156	-5904	-11008	7607	14480	5677	-23996	-3336	-9124	10764	-18442	-9237	-9476	4224	15380	-1527	2773	-2264	-17432	5880	-5348	2456	8079	3663	-15992	7752	-1740	3696	11186	4793	168	131	1
10040	-19112	21496	8605	27681	27174	-11868	-3288	-10596	17858	8432	6812	-23032	-1968	-6504	18821	-19897	-9973	-8404	4564	15972	-900	2197	-1133	-16516	2448	-4152	-441	7417	2844	-16624	3912	-1116	1884	9838	683	171	134	1
-18488	-13468	18428	6926	-1400	7305	-6528	788	-18356	12895	2110	2774	-21400	-2368	-5064	16955	-18847	-10035	-6736	5772	14780	-605	2630	-653	-17344	1420	-2352	1561	7063	2818	-17036	4880	-492	2447	11252	-87	172	121	1
-4560	-9588	17884	2795	-22697	-11317	-5640	816	-17076	10911	1152	1985	-19584	76	-3860	11907	-18068	-9224	-7628	6168	14468	28	3164	-706	-17412	3260	-3216	4835	5927	2085	-16600	5344	-72	4424	11683	602	166	129	1
4248	-10356	10632	1832	-28152	-19203	-8828	4004	-4068	1783	-9942	991	-19428	-436	-5704	6221	-16355	-8474	-8740	4540	14604	710	3342	-457	-17256	4024	-6236	3422	4633	1442	-16568	4092	-3648	4627	14223	1817	161	130	1
3736	-9076	8276	4603	-29833	-19395	-6280	-1308	-5648	-692	-16772	1784	-17008	168	-6000	3788	-15015	-7795	-8712	4428	14496	1027	2993	-125	-16696	2044	-5692	2129	3601	1071	-15320	1232	-4148	4726	16207	2465	152	140	1
684	-4708	8516	5892	-31380	-18119	-4120	-3684	-6036	4407	-22803	1278	-16388	624	-5876	3478	-14793	-7703	-8456	4960	14224	1283	2775	-143	-16856	1528	-3536	3849	2994	1499	-16408	-472	-3152	4577	16941	2379	123	145	1
-3108	-2120	9220	2174	-32768	-18475	-4248	-1952	-7728	6795	-29177	1457	-11572	896	-6180	-102	-8935	-7424	-8164	5364	13904	1304	2834	-457	-16320	1144	-1184	5679	2856	1710	-16672	1772	-616	2834	15648	2013	119	153	1
-6016	-3552	10504	-1578	-32768	-18446	-6224	-80	-8680	6186	-32768	3669	-9680	932	-6596	-2469	-6479	-7144	-8352	5604	13680	1354	2887	-827	-15540	2768	444	5371	3573	2132	-15872	4712	2884	-399	12228	2702	115	154	1
-9528	-4932	11936	-2836	-32768	-18304	-8340	684	-9044	4657	-32768	4817	-9260	904	-7264	-1540	-2481	-6735	-8400	5732	13816	1255	2917	-1194	-15336	3528	1224	2611	4566	2619	-15240	3908	3268	-2618	11090	2298	112	155	1
-12428	-5148	14584	-3723	-32768	-18448	-9456	1156	-10244	2206	-32768	5245	-10076	1296	-7396	2096	1067	-4963	-8468	5804	13532	815	2605	-1431	-14236	2844	828	717	5973	2398	-15436	3384	4020	-4120	11626	2893	105	153	1
-15880	-6200	18128	-5184	-32768	-19078	-13632	1188	-10712	-526	-32768	6108	-7952	1640	-7208	6899	785	-3206	-8584	5100	13412	402	2137	-1620	-14508	2752	-1040	371	7162	2474	-15204	4384	1208	-2560	9336	3368	105	155	1
-18112	-5896	21428	-7910	-32768	-19409	-20464	5016	-13432	-5720	-32768	8095	-9492	1908	-4828	10949	405	-2475	-8628	5244	13800	228	2270	-1544	-15692	2676	-1788	979	8009	2339	-16376	4928	-2124	-734	7599	1817	106	156	1
-25560	-5276	24284	-13328	-32768	-18080	-17920	5656	-11524	-15755	-32768	7633	-8844	2504	-852	8947	-1481	-2654	-8372	5500	13856	367	2766	-1861	-16152	2156	-2820	122	8288	2478	-15588	4348	-3052	720	7429	1351	110	152	1
-32768	-9248	23432	-15932	-32768	-15049	-18740	-920	-12504	-27785	-32768	844	-9448	1488	1272	4872	-2139	-4115	-8680	4804	14096	517	3611	-2013	-16152	1420	-3752	877	8686	2845	-15076	1940	-1780	1605	8772	1752	121	147	1
-32768	-9420	17816	-15989	-32768	-12198	-21908	-3316	-10960	-21415	-32768	-4413	-14204	-2928	2028	1730	-3949	-4077	-8848	4648	14124	1079	4939	-1678	-15952	1568	-3324	999	9232	2702	-15668	1740	-1112	548	9260	1983	142	144	1
-32768	-2996	11420	-19952	-32768	-9582	-21824	752	-8892	-11791	-32768	-6664	-17364	-6076	10596	963	-4348	-2632	-8908	4636	14272	1542	6434	-1642	-15564	2052	-1796	-259	10458	2568	-17244	420	-340	117	7690	2153	168	142	1
-32768	6604	7412	-23308	-28510	-9764	-17360	1816	-9040	-13483	-29006	-7031	-18356	-10160	21568	141	-3453	-1007	-8488	5740	14668	1474	8299	-2172	-16812	1924	388	570	12479	2992	-18560	992	2984	1256	5252	2223	168	145	1
-32768	11028	-1672	-15514	-16165	-12018	-11176	-3088	-4940	-11267	-16339	-4939	-13988	-17256	25332	-2048	-1443	-3653	-8412	6532	15048	994	11314	-3333	-18688	2656	-412	-171	14303	3431	-18900	4116	4584	3572	4259	2124	154	142	1
-32768	14440	-11416	4095	-3640	-3690	-4528	-3616	-5068	-2225	1590	-2220	-14092	-17928	17956	-7255	2483	-3002	-9100	6192	15148	525	15104	-4853	-19092	2464	-2324	-1366	15634	3762	-18388	4184	664	6352	3935	1282	148	139	1
-32768	13484	-6564	15197	11951	7628	-11204	-4596	-12244	11529	14555	-2117	-15812	-10824	10808	-7289	-3799	-5	-9096	6344	15412	1358	20254	-6058	-18872	184	-2144	-1620	17197	4049	-19456	1076	-1340	7722	2227	561	153	141	1
-12060	9816	6904	24251	21105	11705	-13600	2292	-8388	17528	20241	795	-16564	-3996	132	-6920	1675	738	-8976	5328	16328	2969	26885	-7562	-21504	-3420	-2124	1755	19211	5042	-21284	-2280	2476	9098	-865	104	147	149	1
6884	-14148	32767	7343	23548	-1211	-32768	19588	11592	25441	11495	2112	-12980	1364	-1780	-9264	2635	1879	-8012	5360	18024	4503	32767	-9096	-22120	-3540	-1604	2622	19577	5147	-25696	-1072	14784	4399	-7924	-1164	119	166	1
-26320	11460	24728	10062	31965	9199	-25520	5608	-10136	19655	16151	1289	-22976	-4884	10236	7017	-7087	6751	-11184	11512	18360	4215	32767	-14605	-30988	-2976	5436	8368	22844	4534	-23972	364	11620	5785	-8228	-3145	117	165	1
-17060	-9652	20220	2771	13849	9876	-8336	104	-9124	3244	16624	2603	-21652	-6772	-4952	11729	6541	5419	-20256	15064	20340	5354	32767	-20947	-29612	272	3568	7606	24777	6231	-25624	-2480	8020	4275	-15350	-7351	115	152	1
-15676	-25692	12140	8803	11176	3209	-17384	-4004	-8816	4422	14656	-3274	-14192	8680	-2480	2691	17361	6025	-25340	16088	19240	6232	32767	-23914	-29024	5844	-1932	6633	25322	5806	-23552	1788	4716	5264	-22090	-7552	104	156	1
-9112	5968	16796	8926	5087	4350	-19708	-1936	-10672	10614	11231	-4269	-13408	3844	-13232	-9503	6602	1128	-21612	6296	13800	5623	32767	-28592	-28344	6720	-3112	6589	25338	5825	-23500	8768	-3184	17071	-25178	-4909	93	148	1
-11496	-5488	15100	5244	4210	2844	-14912	7584	-6268	4987	11110	-1189	-16508	-5052	620	-2850	11508	-888	-32768	8364	21680	9094	32767	-21688	-19092	7372	-12152	-4493	19525	5285	-23900	10724	-11192	21101	-23845	-2929	108	137	1
-8696	-2964	15400	4095	3171	2179	-17744	596	-7288	-6532	11487	-2566	-17900	-1404	-5880	-7002	11946	2338	-6564	18212	24544	7837	26264	-19820	-15420	748	-6104	-7902	13537	2210	-24100	6692	-14300	6660	-27452	-756	114	132	1
-8804	-4168	13836	1980	2512	1221	-18084	-3748	-7948	-1723	7914	-2494	-16132	-1348	-3932	-6213	9950	5053	-11904	20616	14428	-9725	20192	-22124	-8892	8656	-11160	-6286	6903	-1464	-21952	4024	-5876	-12833	-25581	2220	118	120	1
-8156	-4300	13508	1216	2098	640	-17316	1240	-5076	2536	6831	-1880	-16256	-5080	-1872	-4971	10347	6646	-20608	11104	26932	-16027	-18721	-1488	828	8768	-18072	-1859	125	-4087	-19064	3416	-2752	-6945	-21083	1784	121	118	1
-7724	-4640	13784	753	2432	686	-17948	2032	-3388	-2345	6288	-971	-15904	-4240	-1432	-2265	9858	7056	-320	6180	17676	-11186	-32768	9257	-4396	848	-4732	683	-4055	-3778	-19372	3848	-3344	-2355	-18650	1337	122	115	1
-8712	-5068	13108	599	2867	800	-16816	-1744	-3364	-7116	5700	-1356	-16456	-3756	-2404	-2566	10102	6535	2748	4716	9864	-7801	-32768	9680	-7172	232	-4564	2775	-12825	-6489	-18772	5176	-6448	461	-15431	801	117	92	1
-8572	-4612	13392	247	2785	611	-16736	-2072	-3972	-3022	5067	-1488	-16860	-3448	-2884	-2279	10384	5916	1260	1916	6844	-5999	-32768	6616	-4524	4420	-6516	-523	-21129	-8265	-14812	4692	-6984	-1171	-14527	-455	115	75	1
-8836	-3616	13348	-169	2643	316	-16856	980	-4404	-310	4778	-686	-15496	-2756	-1968	-1077	11546	5968	-1732	1436	6588	-2424	-32768	4118	-3144	3948	-6436	-6968	-25185	-9253	-10780	4020	-7388	-4500	-12746	-298	110	74	1
-8836	-4040	12904	-516	2338	225	-15880	1348	-3956	-2085	4429	-462	-14992	-1148	-2308	-796	12761	6873	-3908	3308	8052	2325	-32768	4029	-3016	1936	-7384	-6009	-29927	-11064	-9236	3756	-7704	-5707	-9142	-84	106	77	1
-8668	-4308	12840	-477	2049	343	-15224	-192	-2676	-2598	4622	-911	-15032	-1660	-2052	-1538	13076	6694	-7124	6532	10928	4794	-32768	6663	-6212	1016	-8736	187	-32768	-12929	-8396	3572	-8012	-7060	-6132	222	102	85	1
-8416	-4740	13112	-561	2160	811	-16956	-312	-1748	-1566	5010	-1064	-15492	-3336	-276	-3617	10880	5759	-12364	8664	14144	5659	-32768	11654	-9104	3792	-9776	3291	-32768	-14797	-8320	3260	-8780	-8554	-3198	1147	108	94	1
-8216	-4660	12944	-719	2104	1366	-14920	-1252	-3328	-6030	7270	-2801	-17164	-4860	-168	-4258	10137	4883	-14068	8416	15924	6238	-32768	17141	-12168	6136	-9440	-1346	-32768	-17541	-7476	1804	-9676	-9534	-1149	1706	107	101	1
-9148	-4560	13048	-436	2267	1915	-15560	-412	-2544	-10538	2964	-439	-14052	-4876	-624	-5770	10880	4859	-15648	5088	18048	9376	-32768	18904	-18652	1424	-10136	-5800	-32768	-17872	-8044	772	-8972	-7714	-294	993	109	107	1
-9088	-3764	12588	27	1841	1174	-13432	-3508	-2280	5369	10724	-1524	-14372	-4388	-1480	-4290	11339	4296	-21240	6536	23608	13289	-32768	16242	-23216	40	-10864	3708	-32768	-17483	-9292	1204	-5152	-9927	-1761	160	107	110	1
-8736	-4604	12404	646	1486	1085	-15268	-1312	-2968	7588	8794	119	-13576	-4580	-2464	-1650	10506	3981	-32768	5840	31076	16196	-32768	11600	-21968	6504	-13232	13363	-32768	-14307	-14376	1916	3312	-6427	-5959	-820	108	112	1
-8780	-3992	12996	979	2011	1512	-16696	948	-4672	3146	7549	476	-15332	-3204	-5688	-605	8253	3662	-32768	4028	25616	19767	-32768	7428	-22836	5392	-10704	17675	-32768	-9581	-16752	652	9032	-2859	-9763	-936	108	110	1
-9060	-4044	13372	855	3051	1778	-17132	1156	-4676	-2207	7168	406	-16676	-2220	-3072	389	8913	4234	-32768	2524	15764	20421	-32768	5054	-19252	4816	-8644	14924	-32768	-5107	-14688	-1060	11112	-3212	-3965	-144	109	110	1
-9072	-4368	13552	763	3927	2017	-16356	-340	-2260	-1660	8210	127	-15996	-3408	-884	-856	10093	4440	-30960	-1584	8732	19858	-32160	6307	-19400	1904	-8928	11619	-32629	-2651	-15060	-5176	20020	1338	3172	90	110	104	1
-8896	-4328	13660	809	4906	2373	-15460	-1964	-588	1647	10595	417	-16216	-5716	1528	-1379	8804	3452	-32768	-11304	-844	16576	-20532	10761	-11668	4344	-2604	12345	-22126	-1029	-17988	-4096	26412	-1317	-2635	78	108	95	1
-8924	-4880	14176	1522	6956	3267	-18228	-212	-1368	2061	12172	1023	-17624	-4588	984	-2666	6450	1936	-32768	-12728	-12828	2092	-6996	10557	-3116	4228	-4244	2915	-2513	1852	-19040	1128	26800	-3498	-5182	1770	115	111	1
-9080	-3756	14828	1836	9697	4088	-17920	2312	-2468	824	13701	1175	-18932	-3576	-1636	-5799	2758	1527	-32164	-14700	-7072	-2378	8159	619	-8188	5148	-11800	-6477	10859	5450	-15508	1720	15972	8393	-547	402	115	111	1
-9272	-4604	15564	1705	12797	4770	-18444	1800	-2856	549	15752	892	-19100	-2008	368	-7934	630	2008	-32768	-104	15096	-16411	17999	2877	-13744	4756	-11504	-7164	16592	6262	-12100	-1392	3444	8661	2459	957	116	108	1
-9484	-5076	15568	1359	16349	6284	-19544	2704	-1736	-832	17762	257	-19816	-1260	2872	-5809	-2238	1087	-8536	-5984	31096	-14044	16512	-19	-20444	-2532	320	-9249	17436	5037	-10000	3700	-528	-2955	3108	1982	122	99	1
-9884	-5292	16596	922	21167	7846	-21688	2252	-3896	-2660	19875	-231	-20708	-4424	5824	-7914	-3249	-306	10244	5972	13344	-8819	19773	-2567	-32704	-5352	3924	-16717	9756	2388	-13484	14204	-15340	3397	13463	2061	127	117	1
-9128	-4780	18484	-329	27851	10582	-26224	2084	-2812	-3722	21067	24	-22920	-8832	7616	-7659	-7573	-1521	-26428	-912	29120	-6051	32767	-2794	-23316	-5616	-5572	-27092	13681	3830	-32768	2944	11896	-32768	5178	-504	136	106	1
-10176	-11508	18764	-714	32767	14893	-29768	5516	1916	-4889	22604	-257	-23524	-9676	5504	-5940	-11110	-2178	-16344	-908	22920	-797	15291	-5374	-16732	-2928	-8016	-9581	15381	5021	-21476	-1648	6344	-19206	9957	493	142	139	1
-13228	-9732	20392	-670	32767	22277	-30236	4740	2252	-8257	24087	-2479	-24500	-6664	11280	3904	-18290	-2215	-10316	11964	15156	-1205	13793	-4355	-16892	3908	-7128	-3402	11777	6764	-17816	-9916	-6384	317	13671	4628	152	139	1
-22512	-8516	19776	-1897	32767	26209	-28816	2172	-2980	-12452	25697	-2341	-21640	-3848	1820	242	-18326	-1321	-18236	5184	18368	-2945	4924	-2926	-17768	5504	-8516	-925	10861	8484	-9776	-5796	-5308	14506	9424	6062	155	122	1
-25168	-6788	16684	-3156	32767	26254	-23392	-5416	-11312	-13215	25701	610	-21624	-6288	-6708	-2948	-14730	-3646	-7852	4364	15692	-2137	3734	-2469	-16608	-56	-4204	5559	8460	6735	-13560	6668	-6088	25397	8692	5037	148	149	1
-29308	-932	14776	-2226	32767	26545	-18360	-4304	-13580	-7422	21720	3821	-20032	-7148	-14716	-1627	-14850	-7565	-6560	6720	14624	-1470	2914	-1748	-16248	3888	-3164	8944	8169	5304	-14060	11536	-248	7610	6827	5113	151	139	1
-19916	-13688	17376	-2462	32767	24391	-15348	-5872	-10356	4827	12835	6887	-20308	-7084	-14388	-380	-16418	-8271	-8548	5908	14532	-1116	2786	-1638	-17088	5340	-3628	7660	7034	3647	-17100	7020	-1656	8452	11107	4283	163	141	1
7716	-22188	22100	13701	24318	28798	-9972	-5872	-10356	13481	7000	6361	-21128	-2160	-6692	19019	-19951	-9841	-8484	3904	15424	-494	2284	-734	-18160	5096	-3516	1289	6573	3313	-16900	5912	-1024	5414	9559	677	178	136	1
-19548	-12564	19564	10568	-6182	4870	-5656	748	-19940	12951	1926	3031	-20548	-1556	-5972	15854	-18606	-10131	-8112	5160	14284	-397	2162	-329	-17088	2496	-3164	1561	5859	2180	-16820	5464	-1312	4106	11911	-6	183	134	1
-3036	-8088	17840	2362	-25861	-16811	-4280	3616	-7304	5897	-2358	2471	-18852	-1556	-4556	11344	-17587	-9049	-7592	6056	14124	-437	2159	-232	-16440	1728	-2784	6536	4784	1665	-15640	5156	-1312	4377	12308	847	178	131	1
3000	-10264	10520	1338	-31926	-24508	-8956	4276	-3324	5537	-11387	2634	-18764	-884	-4664	10599	-17247	-8909	-8708	5124	14356	90	2066	-238	-16572	4856	-4716	6377	3530	1408	-16064	4628	-3892	3862	13200	1690	169	138	1
2544	-9308	8232	5061	-32768	-23221	-6060	-2344	-5608	454	-17973	3288	-16464	-1784	-5416	6215	-13674	-7579	-8476	4400	14212	556	1738	-185	-16304	2852	-3724	2791	3013	850	-14708	2752	-2888	2027	14486	2083	161	142	1
-236	-4316	8168	6781	-32768	-20648	-5100	-4064	-5420	5205	-23977	3308	-13556	-368	-5768	4922	-11239	-7225	-8304	5116	14096	635	1438	-40	-15500	2388	-2000	1696	2767	950	-16160	1564	-492	818	14382	2701	148	145	1
-3356	-2488	9328	3307	-32768	-19541	-6032	-1868	-7724	9209	-30245	3336	-11188	388	-5944	3731	-8197	-6660	-7968	5180	13948	542	1204	-139	-15196	1652	-428	2919	3175	1299	-16260	2324	1788	1247	11862	3132	125	146	1
-6456	-3888	10632	-15	-32768	-18817	-8184	160	-8408	9074	-32768	5732	-9796	680	-7160	2968	-5114	-6337	-7700	5716	14080	660	1353	-515	-16708	3384	228	2432	3486	1669	-16060	2792	1600	248	10433	2988	118	147	1
-10704	-5192	12900	-1287	-32768	-18618	-7892	-960	-9976	9147	-32768	7653	-9996	948	-8128	2698	-1565	-5799	-8312	5600	13896	159	962	-1116	-16824	2508	732	3115	4218	2637	-14656	3376	2204	-1672	11199	3301	115	145	1
-12924	-6388	15348	-2313	-32768	-19290	-10080	1992	-11000	5765	-32768	8584	-10520	1904	-8068	5468	60	-4142	-8000	5240	13984	32	840	-1018	-14092	3840	-24	1211	5023	2197	-15244	3356	2416	-3092	13493	3316	104	146	1
-14600	-6076	16896	-4488	-32768	-20110	-10512	1448	-10412	5243	-32768	9067	-8252	3288	-7208	9959	-104	-2950	-8300	5008	13964	110	845	-994	-15064	1552	560	296	6679	1659	-16348	3424	2044	-1216	10863	2821	99	149	1
-17284	-4916	20600	-7722	-32768	-19043	-20284	5500	-13536	-8681	-32768	11125	-10232	3256	-4332	10762	-688	-1351	-7840	5888	14088	60	1155	-1435	-16272	2620	-548	1614	7538	2291	-17908	4264	-804	774	6396	2022	101	148	1
-28616	-7068	26264	-12048	-32768	-14830	-20860	4112	-13784	-19636	-32768	7449	-9632	3028	1128	11833	-2994	-1238	-8240	5384	14088	-120	1314	-2095	-17136	2764	-2932	917	7833	2508	-16540	3820	-2588	1445	5377	1740	109	144	1
-32768	-7600	24480	-16282	-32768	-13347	-18208	-4740	-13680	-24944	-32768	886	-10912	324	3208	8457	-3548	-3125	-8320	4732	14268	-83	1918	-2097	-15380	1324	-3260	1671	8092	2487	-13700	3036	-2040	2276	8547	2884	124	140	1
-32092	-7016	17156	-17585	-32768	-11821	-24304	-196	-9908	-19568	-32768	-3318	-14796	-3248	5408	2695	-4354	-3776	-8088	5004	14700	231	3033	-1973	-15592	1864	-2164	1420	8811	2426	-15636	3552	-376	2489	10356	2441	150	144	1
-32768	-1020	10720	-19128	-32768	-9756	-20716	2220	-7612	-10427	-32768	-4416	-18180	-5344	12080	-3664	-2568	-2127	-7984	4564	15164	822	4940	-2008	-17300	2304	-1080	-31	10108	2538	-18772	2860	840	490	8305	1595	162	143	1
-32768	5236	5108	-18914	-26690	-9291	-14928	632	-8860	-14252	-26560	-5122	-17672	-8404	22544	-1902	-3067	-936	-7848	5028	15636	1112	7276	-2615	-18220	1788	-496	-1066	11401	2779	-18904	2500	2324	-87	5796	1589	164	145	1
-32768	13372	-4368	-13411	-16071	-8783	-10276	-2768	-2860	-10904	-13350	-4369	-13972	-17352	24180	-1977	-522	-3997	-7824	5764	15896	951	10651	-3634	-17804	836	132	231	13350	3134	-19004	3040	2416	1268	5530	1648	154	142	1
-32768	15612	-10172	-2708	-3976	-1665	-5888	-4704	-7228	-603	3083	-1958	-14220	-15236	16420	-6469	910	-2831	-7916	5732	16072	597	14754	-4940	-18000	1508	184	771	15678	3868	-19596	1960	2944	4479	4455	714	147	139	1
-31192	9596	-2644	4072	7648	4021	-11224	-1596	-12292	8490	13636	-1061	-14616	-7752	7220	-9040	-2017	-83	-8716	5712	16408	767	19067	-5812	-19464	1676	-2072	-241	17859	4201	-20532	-44	2652	7285	1716	-100	160	139	1
-31216	1132	13076	19152	16188	1714	-12716	-12	-11792	10537	17197	-824	-12936	-2628	-2916	-10200	3705	1244	-8220	5300	16456	1516	25265	-7109	-21136	-952	-3004	761	19163	4780	-20072	-1952	1492	10568	-454	-126	150	147	1
2760	-1744	24356	14223	15800	-1944	-19580	1872	904	13595	15067	-725	-9636	1640	-2356	-11645	4363	3467	-8728	4900	16856	2494	32424	-8145	-22472	-1788	-2880	3838	20721	5286	-21176	-2492	4528	9895	-1152	-503	109	165	1
12192	-9752	14812	11101	22629	-3714	-28588	7460	7172	19913	8025	1199	-11464	-472	-10952	-4603	9910	5711	-9856	10520	19152	2631	32767	-10995	-28376	-4284	5840	6066	23080	4062	-24780	2632	14848	7014	-7657	-1924	104	176	1
-24208	7336	25152	10167	32240	2040	-24416	2880	-3556	21731	9251	1417	-30768	-16596	19924	16563	-10604	2476	-15412	10724	18876	2943	32767	-19165	-30124	-1720	4040	8865	24223	6958	-24712	-1632	9524	5455	-11749	-4887	107	182	1
-17016	5964	24324	3231	15136	8533	-17248	6780	-7836	19250	12309	2445	-25824	-7648	3876	21899	13560	3235	-23980	14364	20664	3766	32767	-22815	-31540	2108	1352	8758	25918	7376	-24000	-312	11208	-1972	-16142	-9244	107	155	1
-11288	-16528	12244	5817	14607	6725	-15232	4404	-5424	8629	13347	-3698	-16884	19200	-2020	4165	21535	5639	-23300	12592	18124	7048	32767	-25395	-27340	9128	-2588	6784	25604	6774	-21764	8716	-2000	15434	-23824	-5763	109	148	1
-19008	472	17140	7816	7241	4557	-16988	-2936	-7944	-184	13425	-5178	-8272	8740	-9976	-10469	7313	2641	-29988	1404	18152	3744	32767	-28059	-20036	13028	-12576	-4250	21154	5224	-22052	9696	-7440	17925	-28826	-2087	76	145	1
-10044	-6940	14020	4882	4116	2911	-17384	468	-6684	-2509	12171	-3974	-8224	4240	-9728	-12953	5167	2231	-27800	12820	23664	6603	32767	-22392	-14148	4784	-9692	-15590	16888	3303	-23288	10472	-13640	7459	-23694	-1452	91	143	1
-8648	-2188	14776	4231	3204	2842	-18364	464	-6996	-3414	10330	-3197	-17820	-7900	-7696	-9601	12089	998	1952	22280	26148	-2082	20505	-19674	-11312	4668	-7576	-10836	11384	385	-22816	5972	-9004	-6095	-25286	1361	120	107	1
-9016	-4056	14304	2997	2309	1671	-16904	-868	-5292	-264	8779	-1747	-16080	-152	-2240	-5836	8481	3679	-32768	17964	32708	-11339	-5998	-7373	-6308	9884	-22492	-4676	2918	-2131	-19800	5092	-3792	-13066	-23632	2172	140	103	1
-7876	-3136	14444	1621	2313	1316	-17572	2496	-4484	880	8069	-2355	-17352	-4028	-1944	-6249	9373	8355	-764	12104	22552	-10701	-32768	10816	-4228	1612	-4200	1032	-1439	-4597	-19784	4340	-3196	-13070	-22779	2524	134	108	1
-7748	-4436	13852	980	2097	1527	-17604	1136	-2992	-3080	7376	-2028	-16644	-3700	-4128	-5771	9721	8257	9068	7116	12276	-8983	-32768	9841	-13296	-2092	-1544	393	-11502	-5536	-20756	144	-2436	-3001	-18790	196	127	96	1
-8256	-5584	12984	1210	2344	2097	-17076	-2132	-3220	-6436	6441	-1699	-15660	-5336	-3696	-3443	9798	6816	4952	2016	9756	-4713	-32768	7032	-5816	1400	-5808	-3135	-21606	-7174	-17832	1432	-5088	612	-16232	-793	114	76	1
-8464	-4104	13508	1358	2632	2023	-16640	-1572	-2648	-3645	5469	-1555	-15892	-4664	-1524	1215	10867	5578	-2552	1840	10248	2282	-32768	7216	-4024	1472	-6588	-5609	-25013	-9342	-12892	2880	-6568	61	-14414	-1063	109	74	1
-8512	-4096	13620	517	2961	1468	-17024	832	-2564	229	5281	-432	-15796	-2176	-744	3186	11346	5469	-6472	6412	11476	4772	-32768	8084	-3576	1572	-7980	151	-29495	-10055	-10516	3864	-8040	-2031	-10594	-815	112	77	1
-8752	-3892	13732	352	2940	1483	-15116	1500	-3288	9	5859	-600	-15452	672	-796	1439	11704	5288	-9476	7944	12620	3012	-32768	11458	-6332	2356	-9384	3601	-32768	-11824	-9104	4060	-8420	-2552	-7709	-694	103	83	1
-9056	-3976	12904	33	2537	1238	-15648	-12	-3624	-1204	6595	-1154	-15204	-992	-2340	-5007	10780	5859	-11412	6992	13652	2429	-32768	17919	-9932	5196	-10416	189	-32768	-13532	-8424	3740	-8804	-4566	-4876	983	106	93	1
-9396	-4700	13108	310	2820	1614	-17036	540	-2736	-7242	6091	-2091	-14880	-3932	-1512	-4710	9816	4577	-15568	9660	15708	1369	-32768	24772	-13368	7872	-10504	-9422	-32768	-18168	-7908	2844	-9204	-9630	-2763	2851	111	103	1
-9100	-4140	13080	-50	2361	2357	-13864	-2780	-6616	-9013	4510	1763	-15500	-5148	-1032	-4679	9497	4349	-16564	3340	19652	467	-32768	28072	-16656	3656	-11452	-16814	-32768	-21795	-8480	4168	-9296	-13603	-3384	2671	104	120	1
-9028	-3364	13436	553	2238	1795	-15096	-2532	-3484	9259	11413	-2358	-15780	-3144	-2540	-4265	10695	4627	-27996	160	26500	5200	-32768	21624	-17996	-372	-11456	-8053	-32768	-23067	-9212	3952	-6896	-18215	-6188	672	103	128	1
-9040	-3236	13096	1093	2536	2075	-15524	-608	-3672	7920	9239	-341	-13736	-3296	-3052	-2686	10047	4172	-32768	1364	29908	8964	-32768	11811	-21116	2128	-14468	12154	-32768	-19533	-9860	1800	2844	-14873	-9838	-2108	102	125	1
-8836	-3688	12920	1475	2648	2110	-14004	804	-3856	1600	8421	891	-13312	-4264	-2744	-854	9716	3745	-32768	380	23520	10635	-32768	5389	-22188	5640	-11956	20804	-32768	-16275	-11316	-188	9588	-4368	-10953	-3238	106	121	1
-8976	-4736	13248	1856	3189	2890	-15196	176	-3968	502	8398	399	-16112	-3392	-2080	-1534	9442	3842	-32768	3676	13924	10777	-32768	382	-20636	4768	-12628	15043	-32768	-12186	-12968	-4024	12036	238	873	-2123	107	119	1
-8576	-3772	14496	1994	4623	3776	-17932	672	-80	219	10214	-542	-17608	-3388	-220	-1784	8996	3816	-32768	-2512	5248	15520	-32768	-1131	-18412	1380	-8888	11679	-32768	-6905	-16080	-5064	14596	1727	9705	312	106	115	1
-8928	-2692	15184	2327	7052	3736	-17704	1024	-1480	1645	12231	-363	-18100	-3220	1748	-5072	7706	2615	-32768	-8116	-2252	18530	-22567	-663	-12308	4040	-5820	11937	-21705	-1757	-19364	-3904	21176	-5300	4986	-1087	106	116	1
-8860	-2776	15300	2628	9913	3884	-17760	1256	-896	1499	13737	396	-18028	-2788	3032	-7566	6577	2243	-32768	-9796	-7316	6667	-10721	2237	-6812	6548	-6192	5937	-5302	825	-20332	-572	26256	-7219	-2824	-2435	110	115	1
-8816	-3588	15400	2992	13185	4539	-18612	1708	-3236	2001	15568	470	-18296	-4316	-360	-9456	4654	1970	-32768	-9440	-7464	-5516	1119	2358	-6476	6424	-9344	714	8987	2125	-18084	-1120	17116	3388	-3026	-2302	114	102	1
-9476	-2072	15836	2210	16545	5638	-19276	4356	-4384	656	17102	-112	-18664	-2944	-236	-8565	2461	2056	-32768	-7336	1084	-10451	17356	-322	-13736	9556	-11008	-5787	16587	4414	-14260	-4288	7224	10458	1601	-696	115	95	1
-10192	-4208	16540	1634	20741	6874	-20568	4132	-1796	-3921	19307	-924	-20332	-3180	2876	-5924	880	2411	-15056	5956	26168	-10671	22845	-3009	-18300	1900	-900	-14619	17468	6950	-6608	-524	2232	-9150	6736	-369	123	88	1
-10676	-7644	17336	2716	26334	10764	-23216	-696	180	-3766	21340	-1517	-21832	-6820	6884	-5500	-3763	375	13948	5524	10312	-2799	25817	-679	-32768	-11264	2796	-14066	9444	3933	-14584	6152	-17804	12531	9460	4287	125	112	1
-9724	-9524	19388	4201	32767	15858	-28084	-884	1064	-1219	22767	-2112	-24256	-11468	12336	-7468	-11864	-2838	-32768	-4288	32767	-1908	32767	-3813	-22128	-248	-7744	-15745	13326	6254	-31140	5840	18896	-22876	3314	-214	136	107	1
-11020	-12008	20096	4446	32767	23136	-32768	6024	5164	-4651	23523	-4066	-23680	-7204	7664	-6967	-16888	-4761	-13876	1152	21348	2229	17610	-7226	-15464	-1744	-7724	-5415	15040	6211	-21420	2060	-1052	-5614	12568	3446	147	133	1
-21688	-7096	20500	2977	32767	28645	-28872	4956	-2104	-11757	26052	-6429	-23608	-6448	4316	-2299	-18678	-3959	-12960	15128	15864	-116	16953	-4111	-17324	5668	-5828	-3360	12221	6355	-15840	-8128	-7280	-744	10033	4630	152	130	1
-26444	-2064	20524	-1862	32767	27364	-25096	-620	-8472	-17688	27124	-4031	-21344	-2968	-2712	-8009	-16433	-5691	-16072	2860	16284	-1617	4240	-2196	-18268	6520	-9832	144	11406	8659	-12496	2284	-1024	16660	8786	4156	151	114	1
-25940	-6868	16100	16	32767	27646	-22968	-7720	-12348	-19198	24054	1549	-20852	-7832	-19584	742	-15178	-8566	-11572	5800	16128	-1663	4044	-2110	-16988	3248	-6344	5665	9450	6838	-15996	8376	-7720	14298	8034	3833	151	148	1
-27572	-14360	20468	6480	32767	29448	-18056	-7520	-12248	-3141	13810	5527	-24580	-6444	-11228	13724	-19942	-12510	-5968	5560	15364	-417	3250	-1227	-17304	3284	-4316	8389	8995	4357	-13824	10200	-3200	4403	10569	5702	157	142	1
6144	-12516	21020	9937	29708	25056	-13496	-2056	-9020	12228	6475	5228	-23372	-2356	-5460	21081	-18967	-11966	-8244	5832	14400	-714	2026	-1222	-17092	4696	-4528	9159	6718	2964	-16240	4860	-3312	6049	11918	3354	174	137	1
-22264	-9648	20376	5583	7567	-2496	-5584	236	-23252	14417	1436	6922	-21752	-1952	-7696	17953	-18774	-11104	-8208	5204	14416	-300	1968	-798	-16952	4480	-3456	2403	6172	2373	-17116	4252	-1292	2642	11351	1098	177	132	1
-11472	-15036	18176	6188	-22149	-24612	-4192	-1020	-21644	12286	464	6530	-19292	2832	-4540	13782	-17296	-10091	-7932	4848	14408	-692	1846	-428	-16948	1400	-2528	1177	5367	2177	-16596	3076	-452	2067	13124	857	169	130	1
-1412	-7536	13016	9768	-32768	-28074	-6972	1672	-4104	6118	-9925	1988	-16820	500	-5580	6918	-16140	-9677	-7688	6076	13836	-1178	1984	-485	-16464	1236	-2492	6586	4770	1600	-15604	3592	-324	5728	13129	1333	159	135	1
1396	-1048	8716	5547	-32768	-24412	-7576	-1596	-4980	8276	-17692	1163	-14596	-680	-5316	5258	-12916	-9512	-8036	5368	14208	-507	1860	-485	-16140	2704	-2436	8562	4080	1559	-15568	4288	-1200	7259	13388	2099	150	137	1
-184	196	8784	-1655	-32768	-18850	-5464	-1944	-6036	9090	-24727	2878	-12500	-716	-5380	4661	-11198	-8492	-8520	4572	14196	-67	1537	-463	-16120	3900	-2912	4645	3816	1084	-15244	3136	-1236	4697	14592	2992	125	142	1
-2784	-1252	9188	-6514	-32768	-14083	-5236	-1768	-7656	12172	-30806	3334	-11404	800	-5824	5076	-8183	-7213	-8332	4400	13672	115	1143	-433	-15476	2456	-1196	1553	3781	1000	-15940	980	676	1637	15074	3578	112	145	1
-6960	-3384	10860	-7890	-32768	-12046	-6784	836	-8616	8713	-32768	3498	-10712	1584	-6484	4947	-6004	-6735	-7896	5292	13888	30	1040	-741	-15664	1248	140	1344	4374	1591	-15908	1084	1980	79	13972	3829	104	148	1
-11052	-3784	12336	-8139	-32768	-13011	-9028	3940	-9148	3403	-32768	5498	-10080	1980	-6868	4673	-3214	-5571	-7880	5644	13888	-48	988	-1192	-15760	584	912	2553	5371	2496	-15544	2428	3300	-1229	13365	3588	95	148	1
-11944	-4384	14528	-8796	-32768	-14976	-10280	3936	-9300	-2543	-32768	6973	-9732	2640	-6992	6827	-1476	-4477	-8184	5320	14052	162	1371	-1528	-15976	2764	-504	642	6199	2671	-16240	4012	2380	-4116	13740	3141	98	146	1
-13724	-4556	16904	-9293	-32768	-16548	-14956	2672	-10244	-7184	-32768	7613	-9076	3728	-6984	7951	-934	-3251	-8568	4924	14160	267	1768	-1536	-15852	2048	-1192	-349	7259	2286	-16140	4484	0	-3749	12037	2693	105	148	1
-16560	-3372	20644	-10644	-32768	-15914	-15752	2532	-10460	-7357	-32768	7828	-9280	3020	-4844	8527	-2455	-1823	-8332	5136	13880	185	1761	-1470	-14936	1008	-608	-14	8228	2230	-16508	4752	-2904	-1716	8813	2628	107	151	1
-25460	-2816	26184	-15679	-32768	-12144	-18548	2584	-13376	-14676	-32768	5903	-8696	2308	-392	8737	-2874	-1353	-8136	5532	14188	-204	2091	-2073	-16380	2732	-2304	-244	9055	2758	-16816	3256	-1280	-63	6727	1809	110	151	1
-32768	-3496	27148	-21322	-32768	-11486	-18516	-1780	-14132	-21427	-32768	1429	-9996	128	2424	6051	-3044	-2510	-8408	5008	14904	48	3170	-2542	-17896	1728	-4296	-559	9236	2786	-16160	1920	-208	-984	8837	2478	123	151	1
-32768	-3280	20568	-22014	-32768	-13507	-22292	-1368	-11196	-21204	-32768	-2210	-13680	-2776	4244	-2639	-3503	-3934	-7924	4820	15364	-62	5048	-2652	-16444	676	-2460	1406	9541	2758	-16028	1368	-1028	1692	11283	2692	138	147	1
-32768	384	11772	-19074	-32768	-13057	-21104	1476	-8088	-11526	-32768	-4243	-17180	-6640	10004	-5790	-2366	-3456	-7972	4580	15132	406	7760	-2729	-16716	1020	-344	1933	11314	2848	-18324	1216	72	2267	9903	2586	166	150	1
-32768	9064	4444	-19664	-26685	-12984	-15992	808	-8580	-9619	-28295	-4401	-17252	-12244	19984	-898	-1367	-1356	-8104	5484	15720	652	10495	-3398	-17824	2460	-392	-669	13195	2877	-19264	1416	3484	-260	5761	2472	172	148	1
-32768	18988	-5248	-17041	-15064	-15141	-9432	-1972	-2032	-8495	-14721	-3124	-15080	-20824	26924	4785	-3085	-3276	-8528	5708	15644	293	13831	-4602	-18296	1396	-972	-1723	14825	3214	-18912	1836	3796	13	5361	2429	158	149	1
-32768	15440	-11328	1203	-3080	-6077	-5864	-7876	-8220	1299	3943	-939	-15924	-17524	19872	-1787	-2190	-1986	-8756	5460	15932	139	17603	-5506	-18280	1692	-592	-548	16960	3525	-19072	4864	1656	4275	5452	881	169	148	1
-32768	14700	-332	17517	10978	5333	-12444	-3968	-14008	11967	15354	-1608	-15468	-6788	6052	-5394	766	1361	-8760	6580	15476	138	22604	-7194	-19544	1520	-352	-434	18939	3918	-20524	2612	2272	8413	2966	295	160	152	1
-18136	9572	3600	22021	17424	9789	-11660	3216	-14408	15952	19415	-1145	-14444	1120	-2756	-8508	6817	3364	-8628	7156	15628	60	23630	-7560	-22336	-1520	-1696	434	20929	4800	-21676	-1840	4096	9594	-1004	324	135	167	1
21252	-20404	32767	7276	21533	-3996	-32740	20596	18768	14105	14232	1572	-8760	3332	-3820	-14399	1637	3357	-10076	5060	19992	1610	32767	-11830	-27512	-3440	1984	6309	23509	4583	-27652	-648	13824	4692	-7068	-1234	115	177	1
-26268	13824	20268	10462	32767	4338	-31652	-1752	-12352	18297	15292	162	-31452	-3656	12652	4732	-10338	5977	-14096	10720	19980	2215	32767	-18481	-32768	-4720	4892	8053	24981	5368	-25396	-248	9536	5874	-7824	-4018	112	173	1
-18464	2844	23280	-495	17164	9249	-4744	3968	-9432	8560	15853	3767	-23344	-10056	-20	9645	7411	3481	-24496	15120	23732	3621	32767	-22716	-31608	1012	3624	7642	27063	6818	-26392	-4304	10312	-62	-16270	-9637	108	152	1
-20448	-25708	14504	5316	14283	3316	-19524	740	-7628	1732	16259	-3077	-15840	11688	-420	1012	16925	5775	-26748	13752	19724	5654	32767	-26422	-28764	8052	-1456	4998	26735	6072	-22620	4260	2516	4256	-22470	-7624	107	147	1
-10692	12512	18964	6750	5035	3178	-21840	-6292	-11940	2806	13434	-6439	-11580	2532	-17288	-15523	7565	2167	-28568	8520	18012	3911	32767	-28212	-23848	13052	-10816	-3761	23745	5008	-24392	13388	-7868	23305	-30048	-3777	105	138	1
-12152	-11964	13132	4602	4611	1642	-12844	4232	-8796	378	11753	-2317	-14992	-5964	-3928	-7171	10017	166	-27092	17636	26800	1303	32767	-25620	-18596	7036	-8904	-12265	17965	3163	-23680	10948	-12372	11005	-26578	-2115	105	137	1
-7912	-1876	15692	3045	3134	1386	-19472	1024	-7540	-7442	11198	-2689	-17968	-1984	-5188	-8688	11739	2419	8300	25844	27876	-13566	22668	-25749	-12316	5604	-6220	-12315	10747	1644	-23952	6140	-10736	-7468	-26979	750	128	132	1
-7936	-2640	14396	647	3185	856	-17648	-1260	-7044	-3328	7558	-2071	-17100	472	-3176	-7697	9947	5907	-30664	8936	32604	-12661	-3453	-10026	-5680	10476	-22764	-7634	2482	-2551	-20416	6144	-4176	-14005	-25372	2257	128	105	1
-7984	-4124	14140	-98	2718	404	-16084	752	-4244	-130	7226	-2111	-16692	-3064	-1556	-7608	10109	8526	-2928	10696	24316	-3869	-32768	11927	-3528	76	-6012	-1276	-749	-5285	-21048	2232	-2656	-11758	-22464	1539	136	99	1
-7944	-6020	12656	-515	2830	500	-18248	652	-3196	-5986	7355	-1545	-15712	-5312	-3776	-7863	9911	8737	2992	12064	13340	-4696	-32768	14744	-10692	-2788	-3068	1770	-9883	-8001	-21580	-128	-3568	-3601	-20867	251	134	89	1
-8328	-5768	12644	406	2704	1266	-16884	-3304	-3152	-9016	5597	-1723	-14652	-6184	-3648	-6188	10345	8296	3660	7420	8212	-8000	-32768	11745	-5960	4572	-6956	2360	-19970	-7978	-17960	1684	-5288	1557	-17600	-1217	118	79	1
-8816	-4652	13340	155	2798	1452	-16420	-3416	-2836	-3519	5032	-1371	-15572	-5592	-2456	-2485	11317	6371	-1572	1700	7556	-3660	-32768	10550	-3520	4352	-6044	-3357	-24985	-9086	-12324	3820	-6700	1497	-15460	-1114	121	62	1
-8708	-4360	13288	-461	2819	1268	-16936	292	-3584	-441	4891	48	-16208	-4064	-2224	1621	12230	6111	-4092	4348	8408	2702	-32768	9849	-3200	3036	-7152	-3315	-29908	-10487	-11592	3800	-6920	1054	-14971	-970	108	76	1
-8868	-4264	13052	-717	2675	1360	-16160	1912	-4060	-2195	4698	-340	-15732	-1216	-932	1841	13433	6530	-7680	7140	11480	4384	-32768	11051	-4976	4844	-9580	-1469	-32768	-12739	-7844	5608	-9008	-3898	-8108	25	105	90	1
-8864	-3552	12772	-528	2271	1158	-15412	816	-2296	-4258	5433	-1282	-13824	-504	-80	-2663	14113	6837	-11708	6580	14256	5642	-32768	14684	-8072	4108	-9688	-1587	-32768	-14176	-7532	3896	-9760	-7623	-4764	1236	100	97	1
-8500	-5192	12740	-74	2100	1210	-15744	-3232	-1972	-6694	5892	-1602	-14768	-4104	188	-5309	12717	6099	-17244	7672	16900	7324	-32768	19274	-12516	4676	-9116	-4713	-32768	-17590	-7696	3144	-9792	-10687	-2767	2246	102	102	1
-8912	-4680	13564	-707	2513	1634	-15768	-1272	-4508	-10708	2638	2116	-16148	-6456	700	-2727	11912	5850	-18196	5152	19608	8933	-32768	21198	-16684	3948	-10456	-4733	-32768	-19620	-7496	2728	-9816	-10071	-3299	2454	107	107	1
-8820	-3984	13316	-427	3026	901	-15692	-1432	-1512	8667	11449	-1850	-15660	-5332	960	-653	14158	5236	-23056	4884	24032	11768	-32768	18737	-21256	1528	-12084	5036	-32768	-18868	-8264	2940	-5852	-12259	-6518	1300	109	108	1
-8988	-3912	12896	31	3142	1129	-14912	16	-856	6790	9733	7	-14204	-3804	-1032	-719	13157	4513	-32768	6204	28800	13454	-32768	13024	-23092	4972	-12932	13101	-32768	-16185	-12324	3112	1084	-11737	-10344	86	106	108	1
-8652	-4240	12772	828	3325	1453	-13932	-284	-336	1273	10270	1841	-13904	-5620	-4976	-2269	8974	3621	-32768	3952	25272	18076	-32768	8146	-19952	5984	-12596	18117	-32768	-10337	-15996	3140	8144	-6544	-11691	-1280	109	92	1
-8868	-5232	14128	1080	4509	2601	-18496	-184	-5416	-912	10436	934	-17592	-2460	-1788	998	6683	3952	-32768	2688	14816	22450	-32768	5268	-18616	5832	-11268	16363	-32768	-5385	-14848	-3844	9644	-2342	-3173	-1919	112	115	1
-9240	-3480	14360	687	6574	3049	-19060	2284	-5436	-185	10722	351	-17108	-1348	-2340	-2623	9253	4479	-32768	-572	11288	24140	-32768	4066	-22124	2076	-9716	15676	-32768	-1772	-13128	-6432	20636	1699	6566	-1216	109	115	1
-8856	-4124	14572	123	8980	3145	-16848	1204	-2324	-410	12521	615	-17752	-1784	-616	-6000	8980	4849	-32768	-6220	2564	19634	-24275	8373	-14260	8748	-6056	14817	-24818	984	-16996	-6768	28988	2494	3518	475	103	100	1
-9076	-4648	14564	222	11815	3841	-18360	456	-296	-753	14243	1112	-18132	-3712	2792	-3676	7822	3431	-32768	-10804	-11600	354	-9908	14977	-3896	6876	-4008	-3857	-5838	1685	-18392	-5700	30316	-577	1741	1002	111	109	1
-9344	-4960	14436	634	15134	5158	-18532	1216	-1420	609	16104	1363	-18940	-5768	400	-5201	4323	2758	-32768	-21048	-9136	-2849	7283	6885	-3980	5688	-12416	-17312	10373	4201	-15980	1960	15104	3788	1006	3474	117	89	1
-9148	-5388	15352	458	18909	5926	-19348	1548	-1928	2550	18109	1548	-19652	-3672	1072	-9023	-1760	1861	-14044	1676	11880	-5305	13124	-749	-11732	2736	-11308	-11535	19592	6300	-5676	-3076	10752	-994	6063	2514	124	89	1
-10140	-6428	15956	-59	23837	7839	-21500	3756	-376	847	20296	686	-21012	-1828	2916	-5288	-5130	1189	3900	-8540	25308	-16406	15817	-5066	-20204	-4096	480	-8352	16592	6694	-1936	5636	-7888	10598	6976	3419	128	88	1
-9644	-6668	17288	-705	30553	10653	-24264	3672	-2048	-1916	22971	30	-23200	-5304	10092	-1842	-7244	-204	9140	3708	10224	-11476	19688	-5954	-26704	-5312	4512	-14327	9132	2825	-17652	4984	-20844	1196	16567	2942	132	88	1
-11000	-9940	19284	-1822	32767	15220	-31236	5848	4212	-5920	23989	-198	-23400	-9144	14480	-6160	-16181	-2430	-19284	-6320	28796	-5334	32767	-2092	-27124	-8860	-3740	-22889	14243	3263	-32768	7680	19988	-32768	1044	-1903	138	66	1
-14764	-11832	20496	-1345	32767	23765	-32768	5544	2520	-9594	26601	-2133	-25116	-6088	9300	-6839	-17043	-3655	-19184	-9260	27352	971	20320	-8577	-17356	-1408	-7048	-10289	15451	6116	-24188	-6312	7548	-21804	9591	-830	149	89	1
-25572	-12244	20216	-2118	32767	27098	-29580	-28	-2432	-11647	27932	-1725	-22380	-9892	924	-7616	-16132	-3474	-11692	16188	14448	1407	17239	-7061	-15724	-148	-4072	504	15135	7505	-15988	-16264	-3280	-1481	12178	5479	158	103	1
-30292	-7128	15868	-2666	32767	27297	-25012	-7652	-11124	-11917	26420	1660	-18876	-9436	-11268	-4088	-13360	-6318	-21460	11996	19500	-4834	11608	-5939	-17704	11912	-5696	6656	13864	9453	-8808	-788	-3324	28501	6873	4735	151	108	1
-31228	-6288	16780	-1867	32767	27329	-20448	-6656	-13312	-1266	21524	6490	-21196	-11308	-14480	9037	-16276	-9071	-9844	5492	15420	-4409	6057	-4056	-16712	7308	-6416	2641	12068	7617	-13492	15584	-7516	27777	4016	5085	156	138	1
-11936	-18680	21272	478	32767	26005	-16776	-5160	-8808	12311	11197	10541	-25832	-5976	-10960	23506	-20878	-9514	-6556	4512	15268	-2971	4434	-3282	-17308	-1088	-5912	8628	10940	4210	-12972	12720	-4528	7879	12242	6411	173	160	1
-20792	-15160	12008	18255	26731	30467	-10732	-5356	-9332	22374	3578	10675	-23056	-344	-6056	23507	-18250	-10800	-10100	3140	15488	-1313	4173	-2609	-16984	4244	-6060	11039	7865	3265	-16668	1012	-4288	9068	12467	2889	181	140	1
-23772	-5852	23340	13527	-15742	-862	-2220	-2104	-23480	12467	-1504	5158	-21200	272	-6792	16886	-18011	-10018	-9400	4572	14900	-256	2991	-925	-17008	7248	-4660	555	7298	3353	-17664	5228	-1944	9185	11789	-1728	171	129	1
-23104	-5416	23028	12000	-21127	-5700	-6544	5952	-4440	6772	-6057	4500	-18980	-888	-4936	13209	-17816	-9057	-8536	4524	14604	194	2883	-595	-17432	2840	-4348	-777	6539	2405	-16740	6920	-2560	7979	15012	273	167	137	1
2564	-11184	9468	3662	-32768	-25050	-10088	3856	-1884	2465	-14891	3988	-18924	124	-5980	7041	-15519	-8301	-8360	6128	13880	303	3104	-639	-17144	336	-2660	7604	5337	1188	-16472	5824	-3212	5039	15790	1691	164	142	1
2336	-8092	7312	5554	-32768	-20871	-4824	-3152	-4948	-1271	-21185	3926	-14868	788	-5536	3228	-13976	-7963	-8588	5636	13992	339	2821	-1268	-16080	3400	-2400	10641	4076	2071	-15956	4868	-1940	724	16285	2479	153	142	1
-2892	-4336	7360	4815	-32768	-16405	-3964	-5252	-5760	2647	-26741	2816	-10892	1784	-6368	1236	-8107	-7130	-8556	4296	14236	324	2724	-1186	-15800	5036	-2628	5043	4062	1650	-15144	2428	-1004	-554	15437	2774	132	136	1
-5376	-3232	9108	-1111	-32768	-15095	-5824	-2232	-8200	5729	-32768	2955	-9668	1332	-7504	-1755	-6494	-6605	-8432	4796	13864	276	2820	-1089	-16504	2080	-1420	-508	4292	1373	-16012	1616	760	-1587	13722	2656	122	142	1
-9096	-7180	10624	-4545	-32768	-15915	-8760	-1336	-9732	5061	-32768	4423	-9348	632	-8856	-2737	-3309	-6704	-8668	4416	13940	302	2816	-1002	-15228	-1512	-624	1018	4869	1891	-15668	1684	1224	-2028	13316	2601	114	145	1
-14636	-9660	12172	-4981	-32768	-18054	-14204	192	-9840	6148	-32768	6269	-9552	872	-8496	-1511	-407	-5544	-8848	5604	13412	147	2698	-1476	-15372	2600	-36	4213	5695	3099	-15824	2444	3000	-2192	13596	2603	111	146	1
-15416	-8332	17160	-6427	-32768	-19023	-13816	1472	-11452	3586	-32768	8672	-9372	2060	-7944	5901	-81	-4432	-8828	4764	13712	92	2596	-1663	-14856	3480	68	827	7058	3231	-15584	2436	3344	-2586	13710	2844	107	144	1
-20324	-7100	21408	-10738	-32768	-20529	-17696	6612	-12876	-6477	-32768	8582	-10620	3344	-5744	12503	-800	-2733	-8740	4992	13816	126	2935	-1784	-14268	3680	176	461	7245	3155	-15680	1968	2128	-865	11667	2861	109	145	1
-25208	-7300	25452	-14431	-32768	-19334	-20920	4704	-12572	-21704	-32768	5908	-9840	3160	-2100	11275	-2960	-2448	-8372	5152	13936	163	3499	-1955	-14836	1408	-420	1105	9835	2852	-16016	2880	-748	881	8373	2250	112	149	1
-32768	-7780	26332	-16857	-32768	-14577	-21216	-4088	-12556	-27150	-32768	-258	-9892	648	-72	7278	-6084	-4466	-8540	4876	14876	462	4741	-2292	-17500	2032	-2576	516	10934	3524	-17588	2248	-968	2228	7735	1401	123	151	1
-32768	-5800	20852	-19828	-32768	-10001	-21256	-3100	-12272	-20346	-32768	-4368	-12896	-3288	2944	4724	-7811	-5638	-8648	5088	14884	548	7034	-2864	-18080	2800	-3656	-181	11066	3333	-17788	2992	-2000	2552	8413	1551	139	147	1
-32768	1012	14040	-23545	-32768	-7681	-20492	2884	-10860	-11097	-32768	-5888	-16092	-5608	8508	4542	-4884	-3276	-8732	4592	14800	1133	9565	-3097	-16380	1592	-2052	-640	12061	3371	-17008	3432	-992	1717	8948	2686	160	138	1
-32768	8816	8448	-24049	-28739	-10200	-15996	2288	-11140	-14809	-29602	-6361	-13232	-9940	21044	-1398	-4108	-1259	-9104	4880	14888	888	12241	-3507	-16832	2388	-464	-578	14072	3602	-18012	2048	1964	1134	6912	3276	163	143	1
-32768	10616	-2604	-9166	-17838	-14673	-10916	-4884	-6976	-8659	-17411	-3735	-12296	-16940	22684	-2043	-996	-3220	-9408	5836	15208	951	15553	-4482	-18168	2652	-636	-1321	15956	3921	-18884	1288	4492	1527	4484	2794	158	147	1
-32768	24136	-14592	3297	-4135	-11913	-2100	-1824	-8724	5685	615	-328	-14424	-19496	16976	-599	2192	-2879	-9580	6052	15100	827	19731	-6046	-19080	628	56	-893	17667	4632	-19368	2512	4296	5296	4017	1424	152	151	1
-32768	25324	-14516	3051	-1150	-10441	-9036	-3908	-15276	12497	13519	347	-14012	-8884	7360	-4426	81	1269	-9568	6004	16148	1369	24980	-7596	-19656	-816	944	167	20059	5592	-19860	228	3176	8617	1232	511	161	141	1
-32768	3120	17052	16792	16657	175	-11528	-1520	-14908	12901	16999	-478	-12452	476	-3836	-8469	6177	3385	-9308	5420	16244	2836	31976	-9721	-22724	-2620	-232	2842	22399	6583	-21920	-4752	12508	4920	-7887	-472	146	159	1
-12116	5132	23308	14221	18165	2666	-19708	1436	3172	15714	16941	-1600	-9252	1844	-2000	-11772	4895	5392	-9852	7572	18216	3934	32767	-13586	-29136	-5856	3200	7162	24693	7048	-20992	-8492	15168	401	-6087	-2654	119	171	1
22308	-9992	15576	9895	32767	1416	-32768	20236	7476	26493	10209	1927	-27144	-2916	3884	-1358	-5044	6187	-15924	10496	21548	5176	32767	-18339	-32532	-2044	2908	10423	27080	8147	-29732	-2876	14368	6010	-14603	-7620	106	162	1
-32768	16684	32767	3753	32767	4525	-16612	6064	-8128	17356	12722	1483	-32768	-21704	10512	20469	4300	1044	-25668	14412	22840	7433	32767	-21496	-32768	1452	1000	13420	26964	8021	-26388	7592	2184	21387	-20288	-8355	108	153	1
-26860	-9368	25332	3946	14550	11955	-10608	752	-11912	12791	17642	123	-19012	9876	5468	5471	14736	4819	-24100	8920	19012	6179	32767	-25569	-26220	11232	-7060	9922	25542	6099	-22348	9696	-7956	18575	-28104	-4702	111	144	1
-11440	-8548	14536	9220	7768	3963	-24944	-5072	-9420	2594	19180	-10591	-12744	20048	-22692	-10159	12335	2626	-23316	6492	16080	5725	32767	-26407	-20332	10832	-12568	-3677	20970	2147	-24876	14756	-6588	13251	-24886	-3326	107	137	1
-15588	-15272	12008	5847	5336	3155	-13764	-624	-10744	402	13481	-4304	-6312	-2628	-4276	-15131	6942	-609	-17276	20316	29656	8513	32767	-21433	-16284	6124	-4904	-8419	14477	-255	-26724	11020	-11132	-123	-26082	-1449	88	131	1
-7436	-1576	15516	4786	3105	2944	-15416	-240	-9524	-9518	12885	-2703	-17356	-12884	-11220	-17127	11636	-570	18704	24300	17640	-12245	24666	-29153	-15580	11648	-6508	-12773	7414	-2476	-24996	7784	-6724	-15499	-26348	1204	115	92	1
-8060	-1808	14668	3408	2531	2505	-20828	-2200	-7812	-5262	8962	-2178	-17800	-3452	-4772	-4591	8911	3002	-27284	12468	31456	-16894	-14366	-4909	-2412	11560	-22824	-11051	-982	-5862	-21692	2352	-2208	-14498	-23133	3167	134	104	1
-8360	-2908	14552	1965	2605	1723	-17668	516	-7220	4703	6544	-987	-19964	-1304	-2580	-3300	11312	8494	-5208	14408	21048	-11563	-32768	11298	-6160	-228	-6572	-8737	-5476	-4864	-21972	1068	-3176	-6757	-20307	1669	137	109	1
-8604	-3868	13916	1337	3068	898	-17520	3408	-5120	-395	5912	-1730	-16480	-1752	-3628	-2179	10678	10525	-1580	7132	12328	-9776	-32768	13061	-7228	-1788	-4712	-1229	-14246	-9157	-20348	2040	-6816	-2482	-18364	503	137	104	1
-8828	-4964	12936	228	2789	437	-16004	-100	-3436	-8181	5733	-1708	-14996	-4156	-3832	-2558	10715	9088	-1336	2740	8268	-8770	-32768	9653	-3988	3400	-7504	-2267	-22442	-10583	-14920	2288	-6628	-3120	-16449	-617	121	74	1
-8360	-5600	12896	-361	2645	522	-16640	-3380	-2732	-6248	5471	-1284	-15440	-6416	-3472	166	11992	7108	-3940	-396	7372	-3650	-32768	6697	-3188	1828	-6512	-341	-27063	-12131	-11500	3220	-6848	-3708	-13751	-968	111	70	1
-8632	-4632	13032	-335	2648	837	-17216	-2396	-4260	910	4817	-229	-15572	-6576	-3472	855	12119	6939	-5208	2432	8100	3266	-32768	5719	-4916	1888	-7768	626	-32655	-13675	-9628	4304	-8192	-3635	-9716	-586	105	75	1
-8732	-3864	12900	-470	2448	864	-16008	2352	-3976	2662	4107	185	-15112	88	-1380	5729	13788	5578	-9896	6324	12004	6058	-32768	7885	-5740	2680	-10396	1689	-32768	-15310	-7892	3252	-9024	-3810	-5905	-28	103	86	1
-8744	-4120	12740	-614	2152	766	-14780	2212	-2664	-1508	4765	-637	-14332	436	-64	666	14470	6611	-12576	6772	14280	6829	-32768	12823	-7064	4784	-9548	5462	-32768	-15999	-6620	2332	-10160	-6430	-3092	642	102	95	1
-8956	-6496	13028	66	2963	1907	-14916	252	100	-13898	4457	-3680	-15832	-2068	244	-4272	13371	6184	-13596	6912	14732	6960	-32768	13655	-14648	2032	-10024	-1557	-32768	-18837	-4824	736	-10632	-9927	-2733	1394	104	105	1
-8724	-4748	12620	-552	1954	1707	-15336	964	-1308	-7884	8420	2799	-16188	-2636	176	-4711	12894	6046	-18820	2288	20388	14508	-32768	16110	-14624	-372	-11960	3518	-32768	-19066	-5260	1256	-10276	-9021	-3245	-222	108	112	1
-8760	-4544	13188	-235	1883	1496	-16260	-2304	-2212	10732	11572	-2511	-15108	-4724	1008	-2798	12296	4256	-27288	912	26948	20986	-32768	10856	-21256	620	-13572	16692	-32768	-16705	-8572	2344	-5576	-9153	-6113	-1748	107	120	1
-8504	-3768	12780	567	2327	1732	-14544	1252	-352	6165	9237	-422	-13836	-4016	-952	-2407	12008	3655	-32768	3900	30140	23307	-32768	4698	-20496	5004	-13836	26346	-32768	-11498	-12944	1800	2128	-2096	-9205	-3419	106	123	1
-9168	-4716	12804	1387	2859	1875	-15396	204	-840	-1886	10102	-1255	-16232	-4380	-5028	-6126	6938	2673	-32768	2712	20684	23909	-32768	2568	-22092	7632	-12888	24826	-32768	-4170	-15000	-1908	5520	4038	-6025	-2548	108	119	1
-8780	-4968	13844	1523	3979	2770	-18528	-176	-3296	-2900	10733	-392	-17228	-2924	1960	-3861	7144	2645	-32768	2028	11900	23493	-32768	4567	-21948	5884	-10956	12555	-32768	-811	-16160	-2448	18344	-4338	-2273	-2013	110	120	1
-8680	-4364	14764	1369	6130	3338	-18420	524	-3380	1003	12154	-688	-17428	-4156	-1632	-8002	6693	2703	-32768	-5032	5956	16181	-23751	14505	-16580	7600	-8088	2272	-28871	-1229	-17804	2656	28268	-3402	-1385	-678	117	115	1
-8656	-3520	15172	1419	8906	3647	-17488	488	-2596	2009	13414	-47	-16996	-4088	-168	-6276	6544	2871	-32768	-10528	-2500	797	-8509	24018	-9644	4160	-3972	-10223	-13470	-3557	-19736	-944	27640	-11986	1224	1489	113	99	1
-8844	-4452	15144	1462	12119	4056	-18576	1368	-2948	1807	14240	591	-17688	-5276	-2672	-4846	6080	2735	-32768	-22036	-9496	-3613	3710	15082	-5748	1896	-7952	-10163	5067	710	-18388	120	21112	-5343	949	1116	113	104	1
-9252	-4340	15724	1431	15371	4994	-19608	844	-4560	2025	15588	654	-19520	-4924	-2292	-6675	3028	2633	-32768	-10060	1144	27	11800	-1080	-11532	5900	-12580	-6448	15308	5945	-15652	-2844	12004	7926	1988	-134	115	100	1
-9772	-5764	15824	996	19422	6529	-21464	2200	-3044	983	17076	568	-20876	-2276	-1048	-5491	-44	2374	-5140	1480	7668	-17642	17847	-9026	-17576	2568	-8196	-2855	19810	8519	-11640	-4288	4604	13262	6058	-1321	118	91	1
-9564	-5724	16128	455	24309	9049	-22248	2404	-1896	-2106	18390	-322	-21160	-4240	3068	-3085	-401	1983	11752	17152	30428	-8780	13816	-5136	-25196	-8772	6092	982	14069	4067	-8260	4108	-4508	270	8768	1296	122	102	1
-10404	-6080	17856	-364	30308	11584	-23264	3016	-224	-3871	20191	-600	-22224	-8020	8756	-5002	-3035	13	3288	3872	7332	-6299	30179	-3153	-25844	2100	-812	-13170	11251	4377	-6888	7088	-9080	4902	10307	3349	132	99	1
-10736	-9408	17968	-283	32767	15746	-28324	4420	4112	-4476	21705	-1234	-22340	-9720	13548	-6172	-14067	-1562	-26352	5560	27820	-3767	27461	1716	-18212	4992	-5348	-20090	14785	3493	-27152	9584	16180	-31978	1403	867	139	114	1
-13460	-11272	18856	-275	32767	22856	-29092	5760	5728	-8356	24307	-2826	-21916	-8024	11264	-4263	-14772	-1989	-12988	-7244	23180	-1975	16163	-5980	-18224	768	-7872	-21316	12417	5259	-19420	3912	-620	-11990	12587	4273	151	100	1
-23328	-10304	19844	-1107	32767	25486	-29176	2300	292	-11367	27286	-3342	-22328	-7100	4232	-2636	-18866	-2076	-8920	9620	15580	198	13625	-5795	-17096	-4860	-5604	-13517	11550	4248	-18116	-11484	-6172	-8531	15567	7620	156	110	1
-26568	-7584	20448	-3276	32767	25975	-26868	-4240	-7752	-12112	25652	-110	-18936	-6364	-6632	555	-15889	-4724	-13256	7908	19020	-2407	11263	-4558	-17080	404	-3968	1339	10385	7840	-10004	-6880	1184	12041	9616	5113	146	116	1
-27748	-2860	16220	-560	32767	28484	-20984	-6056	-11168	-4254	21748	4594	-20592	-8332	-15932	662	-16632	-8269	-12812	7080	16720	-1501	5115	-2922	-17692	3276	-4880	9194	10727	8868	-16588	5888	1032	15814	6322	3176	156	128	1
-23284	-14736	20204	-3947	32767	25312	-17892	-4632	-9224	3829	12915	6844	-25948	-8028	-9432	14272	-19631	-10198	-8152	4472	15312	-1769	3761	-2319	-16364	6200	-4324	9990	9384	6441	-14708	9336	-1796	13434	7952	4397	163	137	1
4616	-20752	23524	8488	27975	26549	-13344	-5196	-11844	14371	6316	8955	-24096	-3272	-7320	21107	-18917	-10637	-6676	6760	13908	-1452	3662	-2319	-16308	5556	-2832	6012	8415	4690	-14024	7928	-2428	11614	10686	4964	175	127	1
-23188	-18156	24148	10918	-10022	-1209	-5332	-2932	-24852	9969	-318	5522	-21896	-3020	-6688	18617	-19027	-10085	-7880	5724	15568	-2164	4161	-2587	-17644	5780	-3748	-1010	7104	3476	-17464	5904	-2516	6983	10942	2403	177	127	1
-3192	-11708	18204	9038	-32768	-21390	-4972	3844	-3508	7773	-4905	4339	-20364	2228	-5160	13837	-17708	-9157	-8156	5036	14912	-1878	3156	-1721	-17100	-372	-3960	1225	6746	2412	-16472	4296	-552	3550	13268	888	173	126	1
716	-9252	11472	9146	-32768	-24148	-10784	3412	-3288	7812	-13992	3343	-19520	1008	-5804	7349	-16145	-9254	-8380	4640	14712	-1233	2916	-1210	-16368	576	-2724	10342	5982	2748	-16288	2340	-4	6624	13212	926	164	127	1
1028	-4160	9160	7200	-32768	-22073	-6396	-872	-6096	3820	-20655	3899	-16480	-56	-5312	2868	-15262	-9341	-7864	5640	14228	-603	2534	-993	-16036	4080	-1820	9891	5784	2597	-14904	3688	-704	7197	13358	1326	154	130	1
440	-3524	9248	6540	-32768	-21680	-5872	-1348	-5848	1827	-25974	4305	-12268	504	-5256	2918	-9687	-8378	-8496	5004	14408	-235	2197	-1218	-16252	5328	-2012	2416	5568	2111	-15704	4156	-972	3563	13442	1813	123	136	1
-5472	-4108	9456	-1237	-32768	-15636	-7540	-844	-7484	2500	-32285	3896	-11316	1124	-6548	2076	-7957	-7674	-8468	5600	14440	23	1986	-1374	-16260	2864	-2056	-1420	5669	1617	-16496	3732	188	665	13467	2530	110	141	1
-9232	-4416	11456	-3447	-32768	-14037	-8180	76	-9572	2536	-32768	4788	-9556	1472	-7060	2367	-5730	-7174	-7996	5340	14208	56	2205	-1637	-16568	432	-2524	318	5558	2233	-16116	2512	884	394	14712	3166	102	148	1
-12808	-5100	13080	-5798	-32768	-14640	-8872	192	-9628	2487	-32768	5268	-8780	2452	-7404	2927	-3298	-5484	-8560	4796	14152	155	2170	-1845	-16024	808	-2644	3574	5781	2763	-15192	1736	324	-749	15279	3277	99	151	1
-14108	-6400	15304	-8263	-32768	-15898	-12368	2792	-10208	1520	-32768	6064	-8224	3260	-6856	5364	-2004	-3640	-8612	4548	14036	179	2433	-1755	-15652	2368	-2452	3026	6163	2707	-14724	2276	-948	-3474	16582	3230	99	153	1
-14916	-6792	18344	-11359	-32768	-17385	-16916	5380	-11808	-3674	-32768	7028	-8848	3760	-5880	8218	-1574	-2393	-8392	4276	14140	329	2742	-1522	-14880	2568	-644	1044	7180	2578	-15552	3276	-428	-4852	15426	2544	105	161	1
-21912	-7196	23984	-14810	-32768	-17848	-19920	5496	-15108	-16666	-32768	6794	-10004	4568	-2584	8579	-3961	-671	-7864	5256	14684	526	3609	-1720	-16204	3216	-528	-1054	8354	2494	-17592	5880	-492	-4312	10734	1826	115	158	1
-32768	-5332	27260	-20028	-32768	-17611	-19108	2484	-14352	-25004	-32768	1845	-9148	3056	1540	9006	-5380	-825	-8248	5152	14376	428	4450	-2176	-16440	1964	-1460	-984	9446	2712	-17024	3836	840	-2831	8005	2608	121	154	1
-32768	-4280	22744	-22768	-32768	-15205	-20212	-3024	-12540	-29018	-32768	-4532	-11540	-1336	2132	4047	-4892	-2921	-8340	5372	14908	242	5817	-2677	-16304	824	-1384	1591	10486	3299	-17084	1156	2024	577	9653	2811	132	150	1
-32768	-2492	14348	-21891	-32768	-9952	-21800	-2808	-11052	-20322	-32768	-6316	-16812	-6172	4288	-4632	-3395	-4623	-8072	4864	15680	514	8382	-3177	-17916	1612	-1408	1817	12070	3505	-18584	868	2308	1874	10244	2553	151	150	1
-32768	4004	7972	-20941	-31199	-8433	-18980	1416	-10348	-11822	-32235	-6995	-16464	-9644	17380	-4638	-3901	-4361	-8264	4936	15768	317	11846	-3818	-18316	1608	28	659	13899	3457	-18940	-328	1784	3026	7650	2146	173	149	1
-32768	9708	-2584	-12827	-18409	-11886	-11416	-2876	-11244	-4425	-19590	-4694	-14180	-18556	25424	-1538	-2206	-4419	-8724	5476	15848	61	15713	-4833	-17752	1436	808	-483	16296	3705	-19408	-516	3340	4397	5202	2197	161	151	1
-32768	19924	-12568	1537	-3139	-11904	-2848	-1076	-7916	4467	-1649	-1551	-13840	-20480	20316	-1613	782	-2614	-8580	5332	16316	427	20347	-5880	-18588	840	708	-524	19115	4294	-19924	2700	7068	5104	4541	1431	168	150	1
-32768	17296	-7924	5174	10476	-2763	-8348	-4820	-14864	9732	13873	-5	-13092	-10896	9096	-4289	1663	808	-9084	6032	16564	1104	26048	-7358	-20792	16	452	-250	21578	4755	-20788	3600	4536	8430	1397	212	166	151	1
-32504	6064	180	8331	15299	3031	-9360	-1392	-18060	15901	18493	-545	-13132	-9372	7308	-5038	2322	1279	-9276	6808	17716	1939	32767	-10413	-23484	-908	2148	2737	23713	5553	-22240	-724	6284	8956	-3105	-494	141	164	1
5444	-5564	11164	18024	19891	4102	-17080	4984	-676	16246	18678	-1964	-6948	2544	-808	-17927	5034	5665	-10168	12148	17932	2763	32767	-15553	-28840	-6072	4388	5088	25952	6633	-20168	-4792	8980	2713	-3613	-2920	117	175	1
25276	-4796	14676	8177	29184	-2756	-32768	13796	16896	19504	7796	1211	-12600	5204	-11208	-4059	5959	7506	-15688	10528	22988	3676	32767	-21706	-30736	-3728	4436	8775	28011	8489	-26048	-12964	18596	-9444	-11657	-7721	92	166	1
-32768	16172	31848	8094	32767	6806	-29224	1164	-11680	19933	12031	927	-32768	-27492	27868	18524	-11230	335	-21976	13780	23156	4961	32767	-24635	-32768	748	-40	10683	27984	8090	-26680	3844	6332	16607	-21601	-9347	109	160	1
-27988	-3104	29244	1895	14749	10772	-14696	7356	-10596	14125	16892	1393	-29656	4144	2212	4428	13639	3203	-26848	13380	22544	6439	32767	-26367	-25968	10536	-6736	9993	26577	5565	-25344	14436	-11148	28862	-26159	-4743	128	149	1
-8992	-22128	8632	6382	8491	669	-18116	-2284	-7472	2753	20190	-9393	-14020	26628	-18284	362	18081	1754	-32768	6884	23240	5146	32767	-24854	-20968	11396	-13092	-2588	21082	2824	-22692	14968	-10368	15386	-26343	-2136	115	163	1
-16152	-11128	14060	6026	6794	4170	-14744	-7312	-10956	850	15420	-5984	8	-1060	-6108	-21253	2694	411	-13992	19072	26820	4912	32767	-23725	-13928	5820	-5456	-7472	14118	-1258	-26388	11808	-11424	-3816	-24255	-1493	70	147	1
-7848	68	16440	7976	4455	5294	-16176	-3648	-12336	-5554	13169	-4100	-15620	-18896	-11804	-18539	13601	-1016	15820	24472	17564	-12496	28647	-30913	-13164	10004	-6668	-14491	7215	-3810	-24256	8276	-6852	-14160	-25049	197	106	122	1
-8776	-4800	15136	4982	4218	3914	-22696	1380	-8364	-5181	8968	-1419	-20456	-4160	-5396	-6047	9438	921	-31052	10924	31004	-15884	-13001	-2139	-2756	12252	-24304	-9423	-187	-6675	-21580	3828	-3972	-14422	-22904	2674	127	132	1
-8252	-4256	14480	2141	3522	2399	-17156	340	-8240	1467	7375	-558	-22676	8	-2428	-4367	11173	7973	-4208	12128	20372	-13046	-32768	14036	-6584	596	-6708	-6674	-4280	-5689	-21944	2432	-4012	-12180	-22712	2363	145	135	1
-9432	-2760	14024	582	3919	1129	-17460	2464	-5384	-1546	6543	-3180	-16860	-1656	-4456	-6152	11054	11584	-2156	6812	12560	-14413	-32768	12885	-7868	324	-4764	-1466	-13613	-9187	-21480	1928	-6328	-2243	-18893	1113	131	105	1
-8688	-4728	13136	-825	3818	655	-16588	852	-4076	-7144	6149	-2273	-14208	-3712	-3356	-5310	9999	9689	-1256	-792	7920	-12607	-32768	8030	-3664	3836	-8176	-5832	-20900	-10008	-15652	2636	-7172	-2591	-16624	1060	123	82	1
-8372	-5548	12968	-848	3502	646	-16832	-3176	-2832	-5879	4985	-1271	-15780	-6900	-4028	-1296	11831	7166	-3572	-2060	7772	-4103	-32768	4899	-3316	1812	-7464	-6591	-26605	-13548	-11716	4104	-7592	-4681	-14393	984	116	68	1
-8908	-4660	12816	-624	3149	956	-16916	-2932	-3152	-20	4768	-813	-15856	-4888	-2492	4482	12917	6005	-5732	2072	8396	3125	-32768	3938	-3768	764	-8712	-2250	-31185	-15208	-9780	5356	-9172	-4944	-10178	884	112	68	1
-8680	-4680	12956	-647	3057	977	-16228	1304	-2728	2423	4667	-508	-14416	-532	-736	5156	12548	5475	-10040	7396	10352	4452	-32768	7687	-5300	1484	-10304	3105	-32768	-17926	-8200	4632	-10012	-6932	-6230	945	112	77	1
-8896	-4640	12828	-830	2967	982	-15368	1980	-2820	-944	5080	-879	-15296	-716	-460	3497	12733	5946	-13240	7892	11956	4621	-32768	14125	-7724	3900	-10448	3412	-32768	-18642	-5980	2240	-11696	-11921	-3195	875	108	87	1
-8704	-4604	12540	-731	2773	1257	-14080	812	-2640	-8972	8724	-2547	-15740	-2712	-416	-97	12756	5139	-15828	8340	14616	6636	-32768	19553	-10776	5156	-10996	-4340	-32768	-20140	-3628	-1212	-12780	-14001	-1833	609	105	97	1
-8832	-5048	12380	-49	3012	2403	-14724	-1824	-3232	-4474	6046	-1624	-15120	-6324	80	-5516	11625	4596	-18972	6308	19736	10774	-32768	21428	-15096	1260	-11848	-5456	-32768	-20575	-4364	-1624	-10772	-9524	-1224	-2424	105	102	1
-8932	-4256	12648	378	2718	1872	-15112	-820	-2888	5226	8563	-1720	-14412	-2528	-2956	-7170	10418	3534	-26376	2544	26664	15378	-32768	19514	-21096	2360	-12476	8719	-32768	-18682	-8164	-592	-5320	-9159	-2193	-4630	108	106	1
-9084	-3620	12700	330	3078	1592	-15048	-1108	-3544	5858	8829	-1773	-13976	-2192	-2880	-2041	10033	3852	-32768	2008	31044	18733	-32768	12509	-24272	8604	-13568	17772	-32768	-15686	-14016	2236	3064	-6018	-7714	-4224	108	109	1
-9168	-4332	12520	489	3328	1543	-15076	408	-2680	-3624	7879	-939	-14228	-3788	-668	-3086	9385	4230	-32768	1348	25764	21413	-32768	4275	-22720	2904	-12160	18805	-32768	-10428	-17732	2496	7188	-1341	-8561	-2675	104	115	1
-9376	-5572	12928	718	4009	2315	-16940	-1140	-1596	-3634	9575	-1261	-16784	-6100	-364	-6530	8821	4295	-32768	-1372	13076	27749	-32768	-954	-19724	2316	-10716	25270	-32768	-3861	-16128	-3980	10312	7704	308	-748	109	117	1
-9240	-5076	13416	1241	5358	3219	-17116	-2032	208	-131	11613	-1299	-17788	-6984	-3924	-9636	7520	2275	-30560	-6592	5808	29828	-32031	-286	-17512	9984	-5136	25019	-32054	-137	-18576	-3580	30204	1064	-717	-629	110	109	1
-8828	-4120	15404	1375	8286	3954	-19308	644	-2416	2520	12982	-261	-18332	-6524	988	-352	6607	1942	-32768	-7560	-6248	11191	-15095	12378	-8428	7452	-724	6986	-13861	-617	-20712	-4328	32767	-8728	-9275	1574	112	104	1
-9252	-3060	14912	842	11795	4049	-19952	3520	-3772	2795	13326	529	-17852	-4360	-400	-4799	6077	2803	-32768	-19708	-12060	-5405	3653	9334	-2928	4664	-8940	-7299	5697	1963	-17736	604	26200	5282	170	1722	115	112	1
-9652	-3828	14372	389	14495	4041	-15940	532	-1348	1988	15242	278	-17736	-3324	1176	-7540	2542	4136	-32768	-9432	3184	928	11920	-1468	-13724	5652	-14976	-6524	15179	6172	-14684	-528	8200	15018	4148	-550	115	94	1
-9740	-7080	14736	418	17495	5428	-18712	-544	188	1353	17993	-242	-18164	-2808	2048	-2944	-162	2160	-25588	-3564	8272	-4870	11360	-3560	-11976	4668	-14092	-4897	20248	7139	-8328	-1812	-1880	15174	2255	610	118	89	1
-10292	-7220	15092	350	22205	8790	-21988	1972	-1348	-363	20185	-1470	-20520	-5724	6312	-5778	-2346	-365	15548	7076	19556	-12062	13388	-2466	-22376	-7164	6560	-2377	14630	4317	-652	9856	-10248	3517	5266	2623	124	85	1
-8768	-4740	17044	-587	28544	11711	-23884	5112	-3280	-2374	21957	-2548	-21268	-6068	7516	-10602	-6188	-1550	8620	5840	3568	-11246	23455	-4939	-23856	-604	5272	-14417	7476	3363	-12632	15536	-18816	6746	15575	4064	137	91	1
-10108	-4940	19448	-2058	32767	14121	-27012	5532	-368	-7006	22914	-2640	-22992	-6556	9996	-6506	-11584	-1141	-26544	4864	25940	-5942	32767	2875	-22376	-1616	-2208	-26370	13379	2222	-32768	4540	23936	-32768	2049	-480	137	98	1
-12308	-11140	19172	-2437	32767	18670	-29656	5196	3480	-6643	25184	-3102	-22556	-9796	7988	-5971	-13061	-1937	-17624	-10968	25784	-3750	21617	-4818	-21080	-432	-7328	-23424	13454	4847	-24416	-5032	8348	-23787	11931	-424	146	125	1
-22132	-11344	21344	-3318	32767	22067	-30748	2200	-1696	-10761	27016	-3269	-22896	-10224	2292	-7666	-17280	-2847	-7384	4760	16424	1145	19302	-7631	-19284	-3812	-7556	-23319	12862	5076	-18388	-19328	-5824	-6060	13555	6619	150	113	1
-27116	-7864	16788	-4104	32767	23276	-27328	-3692	-8236	-13197	25830	-1228	-20344	-2740	-7700	4518	-16989	-5120	-24160	11808	22996	-1678	14809	-6441	-16544	2228	-4092	6637	12056	8102	-6060	-8628	1680	20869	6332	5134	153	96	1
-32768	-4196	17032	414	32767	27169	-20176	-5296	-13200	-6318	22686	3323	-21576	-8020	-11388	7539	-19464	-7720	-7712	6996	15112	-3303	3792	-2869	-19704	10332	-5988	12549	12342	11109	-14840	10748	-6696	32767	4921	3313	150	130	1
-20204	-11776	20076	-6398	32767	21820	-16852	-3848	-9736	250	14699	6236	-27148	-8448	-10752	17312	-20845	-9089	-11688	6028	15376	-2903	3242	-2771	-16364	6332	-6696	5290	9876	6293	-15040	16196	-3996	14934	5457	4999	161	134	1
4808	-19244	22308	-746	30565	22625	-15452	-4884	-9228	11389	6666	8620	-25684	-3016	-7000	16920	-20381	-9809	-8500	5580	14504	-2494	1968	-2025	-16764	3820	-4988	7531	7776	3373	-15548	9972	-4324	10165	11846	5524	178	142	1
-25448	-20508	23540	1985	-1785	5304	-5072	-1336	-28380	8037	-1232	5289	-22128	-672	-7916	15261	-18367	-9292	-7472	3612	15396	-1266	1210	-1379	-17096	4604	-4480	2897	7144	2679	-18328	5236	-3888	3369	10296	794	175	138	1
-10896	-14824	19544	5678	-32768	-15335	-1876	2108	-9112	2685	-5251	2346	-20168	1068	-4752	11643	-18158	-8462	-8352	4676	14764	-776	1285	-1037	-17564	3244	-4528	-84	6068	2618	-16956	4768	-1056	1975	12687	-503	165	131	1
-1124	-9184	11900	7279	-32768	-21556	-9332	3512	-4348	4570	-12827	822	-18768	1224	-6084	7616	-17028	-9009	-8132	4972	14048	-937	1363	-878	-16640	1828	-3920	3530	5017	1600	-16092	4528	-2264	4053	13251	545	160	131	1
1180	-3788	7496	6219	-32768	-20115	-6924	464	-5872	4492	-21654	1471	-15944	-220	-5196	4456	-15398	-8376	-7888	5392	14188	-1050	1252	-795	-15980	2792	-3132	7311	3847	1295	-15028	5560	-2152	1547	13724	1335	155	124	1
-2320	-144	7996	1096	-32768	-18738	-4564	-1880	-5928	880	-26719	3154	-12700	684	-5792	1999	-12315	-7877	-8176	4416	14388	-690	1004	-499	-15928	3368	-3340	5147	3520	1036	-14636	3512	-1576	-2082	15621	1962	129	120	1
-3144	-2084	8020	-3279	-32768	-15720	-6080	-756	-6236	3971	-32324	2676	-10680	1364	-6816	464	-7897	-7337	-8484	4484	14140	-397	779	-276	-15836	2340	-2872	1706	3471	779	-16572	628	-636	-1088	16743	2694	120	123	1
-8148	-4472	10824	-4215	-32768	-14108	-7136	1060	-9756	5219	-32768	4414	-9044	2168	-7348	1973	-3994	-6439	-8132	4700	14264	-344	597	-106	-15404	1216	-1844	746	3491	1105	-16688	152	1096	1398	14236	3323	112	129	1
-11956	-4484	13304	-4835	-32768	-15148	-7496	888	-9748	2852	-32768	5170	-8724	1364	-8220	1621	-2017	-5395	-7736	4724	14028	-419	274	-168	-15276	1264	-428	2788	4276	1858	-14540	2204	2004	614	11055	3312	104	132	1
-12896	-4100	14384	-7368	-32768	-17527	-11016	4024	-8692	161	-32768	6796	-7080	3092	-7884	4644	-1868	-3102	-7520	5628	14092	-522	238	-737	-16016	2916	-416	2097	4491	2237	-13728	3016	2040	-2125	14330	3443	105	134	1
-13904	-4348	18236	-10363	-32768	-18803	-15328	5624	-10736	-2040	-32768	8663	-7116	5336	-7508	8352	-583	-1304	-7992	4920	14136	-729	265	-1271	-16392	3804	-664	25	5170	1796	-15824	2440	2332	-5197	17880	2825	108	153	1
-20220	-4544	24104	-13335	-32768	-19112	-20400	5764	-16732	-13473	-32768	10268	-8256	4636	-3600	9687	-3450	234	-7840	5332	14112	-1221	64	-1756	-14620	1932	2296	-235	6217	1853	-17164	4240	1472	-3666	13168	2315	110	155	1
-32768	-3648	28348	-16755	-32768	-16802	-19472	4612	-12784	-23264	-32768	4999	-8904	2596	1872	13923	-5690	-729	-7660	5700	14376	-1600	200	-2466	-14528	1192	2532	-85	8481	2821	-18536	4972	1028	-23	6741	2260	120	154	1
-32768	-3112	22864	-19059	-32768	-12791	-18320	-3120	-12732	-29555	-32768	-1944	-11252	-1740	2240	11715	-5205	-3529	-7488	4616	15160	-1371	1259	-3112	-17468	600	-724	-172	10258	3387	-18572	1164	3984	-124	5085	2325	133	149	1
-32768	-2156	14816	-16981	-32768	-8838	-22036	-1876	-10768	-16459	-32768	-2903	-16580	-4504	5376	2251	-3059	-2954	-8028	3736	15432	-626	3306	-3228	-17796	1016	-2476	864	11237	3532	-16740	256	3648	490	8558	2603	158	144	1
-32768	3416	11968	-12318	-30469	-8765	-21524	4596	-10628	-9860	-32768	-3896	-18520	-6596	16948	-627	-3994	32	-7228	3928	16484	-23	5686	-3075	-16828	1020	-528	479	12730	3508	-17048	648	-240	4097	9826	2286	173	144	1
-32768	12744	2964	-12695	-19301	-11717	-12116	-1012	-10648	-6891	-21380	-1941	-18716	-13368	28328	-309	-3945	542	-6912	4472	17404	-7	9846	-3440	-18676	588	400	-250	15221	3789	-20316	1964	540	3807	6222	1572	172	140	1
-32768	13996	-11024	-2465	-7080	-9482	-7040	-1388	-4660	-2580	-3839	-560	-16288	-18264	24732	-4782	-1193	-1264	-7352	4628	17684	-266	14945	-4268	-19432	1356	-996	-1086	17553	4368	-20748	3344	5852	3268	3843	939	172	139	1
-32768	17284	-11856	9476	10828	4106	-7304	-1932	-5092	-2169	-764	-429	-17964	-9308	12816	-9867	-2194	1628	-7856	5648	18244	19	20551	-5670	-21068	1560	-760	-211	19762	4559	-21520	4484	3256	5212	2692	-407	158	139	1
-32768	6532	-4140	14860	19465	10562	-11548	-3100	-15548	11249	19763	-60	-17268	-3628	4240	-14926	-195	3106	-7636	6872	18768	42	27706	-8646	-23476	-516	656	1637	22116	5438	-21940	2260	2892	8488	356	-1328	149	140	1
5208	-10948	32767	7667	16606	4575	-24792	7788	14296	11294	18044	855	-14456	596	8972	-17578	-5262	351	-7040	6088	20268	142	32767	-11986	-25364	820	-1136	3252	24384	5987	-24304	356	9308	6188	-4592	-1745	125	154	1
-7296	-5720	9708	6591	27612	2376	-32768	7872	-8868	21773	16340	325	-16168	868	-6584	-15205	7018	3973	-8216	11548	20964	12	32767	-16423	-32768	-2160	4980	4605	25919	4450	-23048	2616	14536	-2468	-8121	-4052	107	174	1
-23556	4340	24616	5209	22687	3480	-10048	1540	-8136	9088	14243	234	-19364	-11808	-4336	9901	3247	3253	-16048	11740	22000	-197	32767	-24338	-31044	-944	5880	5676	26283	6686	-24688	-5292	6600	2832	-11936	-6872	114	163	1
-4228	168	13652	2463	16728	7594	-11648	1368	-10604	14788	11935	-109	-16436	1440	-2724	2372	13219	4093	-22424	13596	23060	1245	32767	-28197	-32660	1116	1488	6297	26354	7316	-23208	-1476	7060	1153	-20367	-9361	115	156	1
-22980	-15680	19080	6538	13471	6107	-22432	2832	-6716	10847	9891	-3031	-15728	14376	-2616	3984	12968	4190	-23784	7348	18332	5132	32767	-28422	-23840	8920	-4816	7364	24941	4926	-23384	8444	-1600	16703	-29246	-6012	116	149	1
-10036	0	16696	4528	4603	2527	-17432	1236	-7872	1384	11175	-4117	-17976	-3668	-3364	-8806	8012	3531	-32768	8012	22244	6472	32767	-23980	-18860	10396	-11880	323	21492	3155	-24656	12372	-9092	21490	-26611	-3751	103	149	1
-11144	-6564	14196	2421	3636	2159	-16348	1484	-5772	-3375	11415	-4530	-18244	-3764	-3824	-6136	13005	2186	-9576	20548	25792	1259	32767	-26015	-15084	6436	-5980	-5309	13785	1319	-25500	6708	-14088	4578	-26151	-1688	113	135	1
-8340	-4280	14108	2469	2439	1649	-18436	-644	-4520	-6828	9737	-4109	-14152	-1720	-3540	-9979	10587	2192	-20	25968	19308	-17010	22289	-26722	-9148	7920	-10388	-10393	5523	-685	-23472	5740	-8864	-7789	-27162	2095	123	119	1
-8104	-5284	13340	2055	2007	1176	-16304	-2832	-3960	-4041	8579	-2417	-13604	-6868	-3556	-8619	9500	5189	-24100	11564	29864	-15915	-16001	5883	-776	10208	-19956	-5206	-253	-4097	-22128	6208	-6944	-9937	-26525	2780	118	128	1
-8276	-5088	13216	1928	2096	1581	-17544	-1744	-3048	55	7739	-1913	-15152	-6724	-2124	-4384	9252	6685	-40	11888	19096	-10833	-32768	22320	-5252	-1364	-3200	-4513	-4362	-3860	-21564	2676	-2192	-6498	-20562	2980	116	126	1
-7204	-5568	13488	2036	2287	1832	-18496	556	-2668	-1350	6573	-1077	-16496	-4576	-2700	-1819	9632	6789	3212	6984	11008	-12036	-32768	19883	-8640	876	-3696	-1887	-14634	-8095	-19720	2360	-5440	507	-17286	1497	121	122	1
-8792	-4708	13536	2204	2546	1729	-16568	-808	-3984	-3385	5761	-1192	-16588	-3140	-2384	-1201	10438	6643	1932	-2472	9404	-8116	-32768	14247	-3740	4612	-7440	-7137	-23501	-8056	-14300	3636	-6588	672	-15482	423	116	101	1
-8968	-3348	13508	1452	2424	1077	-16024	1632	-4228	-2321	5097	-1019	-15568	-2512	-2056	170	11651	6736	-2528	-3424	9204	1281	-32768	9618	-2576	788	-6504	-8584	-27917	-10889	-10460	4396	-7728	-2257	-13001	-249	111	96	1
-8780	-3728	13380	564	2074	679	-16184	544	-3492	-1317	5178	-540	-15488	-1328	-1508	756	12751	6776	-5204	1524	11008	7067	-32768	7065	-3248	332	-8180	-4539	-32768	-12668	-8340	4008	-8536	-5571	-8872	-326	103	91	1
-8604	-4196	12884	169	1703	739	-15952	-188	-2528	-419	5277	-1032	-15484	-1188	-1460	1	12854	6209	-9352	4336	13140	7390	-32768	8099	-5552	-16	-9836	1966	-32768	-14872	-7236	3216	-9088	-8729	-5702	-30	99	92	1
-8172	-4592	13048	77	1616	1154	-16040	-92	-2500	-436	5266	-1125	-14740	-3176	-276	-1883	11627	5416	-12544	4176	15348	8339	-32768	12682	-8228	2424	-10144	5130	-32768	-16272	-6488	3148	-9560	-11233	-2468	895	100	97	1
-8492	-4108	12900	-205	2040	1443	-17540	4116	-1276	-7778	3510	-380	-16300	-4304	488	-3597	10870	4731	-14132	5676	16284	9401	-32768	17799	-12688	3268	-9856	719	-32768	-17940	-5000	2380	-10696	-13715	-320	2289	104	101	1
-8780	-4028	13104	-55	1741	1515	-15520	-788	-2196	1015	7308	-1374	-15508	-2364	728	-3730	11503	4361	-17352	4080	20460	11333	-32768	18939	-17968	2500	-12152	-1598	-32768	-20028	-5052	792	-10264	-10429	387	1396	103	107	1
-8852	-3856	12360	630	1805	1799	-15360	-768	-2320	1199	7577	-1240	-14736	-3560	-216	-3011	12634	3972	-26976	3592	27184	16769	-32768	16499	-21244	1020	-13048	7234	-32768	-19429	-7640	-72	-6356	-11209	-809	-855	102	112	1
-8460	-5060	12880	1057	1880	2190	-14988	-1060	-1352	1302	7891	-746	-14400	-3984	-832	-1519	11011	2852	-32768	7956	31400	19131	-32768	12871	-22840	6012	-14572	18176	-32768	-14185	-13572	724	4060	-6215	-5284	-2943	105	111	1
-8680	-3884	13840	959	2641	2643	-17152	1312	-3496	-876	9642	-981	-16544	-3740	-2404	-208	10993	2786	-32768	2364	22000	18640	-32768	10847	-21440	8252	-10836	18151	-32768	-8687	-17548	-560	9692	-999	-7098	-2822	110	108	1
-8892	-4052	14040	844	3747	2677	-16744	1168	-2288	-1025	10338	-940	-16724	-3540	-2836	-3647	9354	2608	-32768	1088	11128	17089	-32768	10109	-20316	4316	-9652	5666	-32768	-6136	-16084	-476	16596	-1350	2414	-881	110	117	1
-8676	-3660	13676	1022	4950	2784	-15364	-380	-500	-880	11872	-699	-15852	-5136	116	-7705	6991	2335	-32768	-8272	1072	14559	-25010	12179	-16880	2796	-6816	7214	-27651	-3322	-18688	-3184	29860	-5982	1411	1135	114	106	1
-8548	-4372	15068	1084	7030	3129	-18276	-596	-2572	1105	13854	1	-17948	-4076	4236	-6478	6117	1946	-32768	-16208	-12888	7729	-9033	15467	-4688	4984	-1568	2047	-7365	16	-20684	-4136	32767	-15170	-2472	817	118	115	1
-8852	-3392	15696	1519	10653	3879	-20052	2780	-3576	1916	14536	235	-17656	-4044	-880	-9222	4127	2363	-32768	-13900	-9496	-4053	8745	5897	-5272	8736	-10584	-10667	10934	2413	-18036	-1252	23128	3990	575	-438	121	111	1
-8860	-3332	15932	1758	14166	4199	-17496	1748	-1628	1638	16324	502	-17964	-6264	-2368	-8258	2662	4017	-32768	-4988	4272	-5638	13705	-1695	-14104	6928	-13976	-9273	19538	6688	-15172	-3604	6420	10711	4645	591	125	88	1
-9040	-6092	16240	2107	18068	5809	-19704	676	-652	2287	18909	215	-19232	-6832	1412	-2550	184	2332	2780	3536	7808	-13383	18979	-2657	-18188	-1600	-1352	-7160	18829	6882	-10560	-2300	-6040	7775	3159	1727	127	78	1
-9432	-6552	17284	2316	23174	8489	-23044	2100	-1808	1787	21289	-733	-20692	-5916	4992	894	-844	689	11600	12664	18396	-8823	18529	-2045	-27496	-6788	6916	-7176	11322	3957	-7284	10048	-11656	712	4496	2546	129	105	1
-9324	-5820	19152	1612	30197	12290	-25976	4916	-2900	-158	22479	-1346	-23128	-7276	9940	-2417	-5396	-677	-13808	-5412	17512	-6459	32767	660	-28212	-5440	5452	-10290	10551	4152	-25536	7156	-4884	-6200	9023	1774	139	101	1
-10908	-7868	20608	963	32767	16437	-29564	6060	2336	-4289	23590	-1571	-23916	-7284	12904	-4511	-15675	-530	-24552	-6884	28764	-3786	22884	-3374	-20616	3516	-9088	-17592	14732	5372	-24772	2216	17824	-31809	2934	2187	144	99	1
-12412	-10988	21932	569	32767	22705	-32220	4992	4752	-9284	26231	-3815	-23784	-5336	10572	-527	-16390	-1092	-6728	1412	17588	1464	16752	-7393	-17196	-5232	-8332	-15002	12381	5630	-18852	-10632	-8308	1523	15123	5452	150	116	1
-22556	-11364	20584	-825	32767	27455	-31192	4644	-2552	-14317	27671	-4742	-22708	-5044	6136	3806	-19520	-1086	-21496	15892	20728	-3729	16680	-6289	-16336	640	-4484	279	10498	7261	-12496	-11644	-4312	4796	9274	5594	157	101	1
-30152	-8192	18788	-4602	32767	26578	-24148	-6072	-10852	-18772	27169	-1164	-18356	-8288	-9472	-12186	-13891	-3085	-4488	4864	15020	-1998	3326	-2076	-19676	4204	-6300	8623	11793	10841	-14424	8728	-2604	27311	9682	3381	150	98	1
-32468	-2968	17064	-2401	32767	28383	-20576	-6456	-13684	-10981	22920	2160	-18492	-8300	-12944	-12488	-12466	-3817	-13708	6576	15508	-2052	2730	-2414	-15700	5316	-6044	9702	9296	8041	-15992	11124	-3028	8744	6549	4060	156	118	1
-22568	-15620	22684	-4898	32767	25498	-16264	-6872	-13992	5599	13254	7811	-27348	-2404	-11036	15481	-21532	-10077	-8944	6480	14952	-748	2246	-1416	-17212	5848	-5612	9257	8922	4396	-14616	8244	-3064	8373	11458	4996	169	126	1
-9520	-15632	13052	8208	22599	24655	-9632	-2736	-11236	12823	5112	5979	-23324	-2580	-4536	19891	-20859	-10862	-7924	4288	15228	-684	1714	-976	-17628	7428	-4772	2329	7419	3440	-15480	7404	-3452	8599	11794	4669	183	126	1
-19444	-11640	21888	5789	-14309	-3851	-4756	416	-17980	7657	-1295	1908	-22392	-488	-6340	14929	-19119	-10914	-7964	4724	14716	-21	1894	-806	-17140	2924	-3780	-2972	6302	3085	-17472	5792	-1320	353	12467	1320	185	125	1
1064	-12492	14628	3402	-28459	-21979	-6392	4064	-3712	3453	-6088	687	-21408	940	-5568	8124	-18475	-10950	-7728	5180	14800	408	2357	-719	-17004	32	-3028	1793	5787	2079	-16248	2952	208	2635	14287	1232	174	132	1
3240	-9708	9600	6379	-32768	-25006	-9552	2216	-4500	4240	-15175	1085	-18392	-112	-6168	2517	-16527	-10503	-7916	5976	14344	383	2577	-762	-16152	2632	-2244	7155	5069	2033	-16156	3724	-300	5007	14076	1059	165	138	1
-248	-4472	8900	6735	-32768	-23475	-3512	-2796	-7324	3470	-21988	648	-14068	-276	-5088	38	-14836	-9892	-8388	5248	14240	136	2297	-1077	-16624	4504	-3912	5222	4363	2174	-16012	4068	-1328	4778	14189	998	155	139	1
-2164	64	9284	2154	-32768	-21830	-4012	-1488	-6640	7286	-27595	728	-11280	200	-5384	1338	-9258	-8857	-8276	4604	14176	-2	2142	-949	-15876	2832	-3308	1953	3874	1485	-15364	1816	-1404	3413	15487	2511	134	141	1
-3884	-1220	10332	-3071	-32768	-19662	-5064	260	-7380	10396	-32768	2733	-10124	1180	-6556	1174	-7617	-8047	-8468	5032	13960	4	1825	-1018	-15620	1448	-2144	1576	4097	1561	-16080	1240	160	1917	16732	3038	121	144	1
-7696	-2296	12008	-4920	-32768	-17717	-7100	2316	-8656	7471	-32768	4134	-9340	1664	-7584	2131	-5570	-7361	-8264	4852	13908	-6	1736	-1203	-15020	1632	-1268	2626	4223	2318	-14820	1796	960	-178	15368	3522	114	147	1
-11348	-3104	14224	-5347	-32768	-16298	-9184	2764	-9456	4510	-32768	5021	-8540	1852	-8036	3790	-1659	-5111	-8372	5024	14220	199	1915	-1359	-15436	2540	-1064	2207	5137	2464	-15752	2728	776	-2292	13195	2907	108	150	1
-14740	-3264	18092	-7742	-32768	-16967	-10452	3084	-10720	1536	-32768	5672	-7336	3336	-7548	8251	-139	-2743	-8284	4892	14064	250	1838	-1750	-14908	1180	-344	2137	6236	2845	-14976	2396	1784	-2520	13291	2385	101	151	1
-17156	-4792	20292	-10320	-32768	-19443	-14896	4352	-12672	-4510	-32768	7545	-7504	4004	-7368	9161	-622	-767	-8252	5036	14036	-19	2024	-1725	-14712	2820	-312	1294	7492	2749	-15884	3880	1856	-2184	11429	2057	101	152	1
-19276	-3696	23864	-12965	-32768	-20292	-21016	5060	-12852	-10869	-32768	9404	-8368	4436	-4004	11103	-596	257	-8376	5272	14088	-435	2271	-1998	-15956	4288	-1992	-793	8414	2647	-16376	5424	-1316	-1165	7821	2679	102	150	1
-29696	-5236	26084	-15423	-32768	-18309	-19544	4620	-12932	-19681	-32768	6614	-8104	3960	-400	11141	-1575	-505	-8392	5400	14316	-809	2774	-2557	-16404	2816	-3328	-1452	8702	2462	-15572	4352	-2852	-708	7187	3164	113	148	1
-32768	-5916	24808	-16362	-32768	-17355	-21336	-5416	-14020	-23589	-32768	960	-11464	-812	2108	8388	-2304	-3249	-8316	4544	15184	-544	4265	-2981	-16820	96	-3632	436	9135	2996	-16376	2540	-1868	1175	9868	2995	128	146	1
-32768	-3712	14596	-14901	-32768	-14837	-21764	-3588	-10304	-13578	-32768	-2059	-18664	-7588	7192	2132	-4644	-5455	-8276	3724	15500	184	6628	-2770	-17328	704	-2320	2261	10388	3185	-17508	1856	1432	2008	10206	2585	152	142	1
-32768	5436	3712	-16179	-32755	-11823	-18080	1896	-11056	-7259	-31133	-3532	-20892	-7592	19892	249	-2798	-937	-8088	4972	15944	453	9758	-2975	-18108	1692	-596	562	12127	3113	-19332	232	2740	755	8280	2564	168	143	1
-32768	16412	-8092	-16394	-17901	-12083	-10380	-1352	-5292	-8548	-17967	-3525	-16200	-16708	32767	5753	-2995	-2395	-8600	5064	15884	111	13308	-3835	-18076	1668	972	-834	14435	3350	-19340	1096	4812	1712	6526	2138	176	145	1
-32768	17304	-16668	-6312	-3159	-4204	-3544	-5548	-8308	-7041	3824	-3131	-16496	-14472	21800	-12525	2594	-567	-8736	5824	16264	-423	17511	-5218	-18948	3004	1172	-1128	17359	3926	-20636	5000	5988	3142	5520	1024	149	144	1
-32768	5428	-12512	17662	12927	9322	-10548	-8020	-16176	5764	18695	-2625	-13328	-7488	7220	-15334	-30	3320	-9180	6800	16624	-506	23073	-7531	-20872	2224	172	-1921	19641	4327	-21608	4452	3196	6384	2072	350	129	145	1
-19512	5572	16880	18703	19299	10206	-12504	-676	-4912	18042	20029	656	-11312	-4044	-4388	-14314	7029	1782	-8624	6652	17728	206	29677	-10849	-22336	-2088	-176	589	21553	5562	-22220	-32	4360	7678	-1367	588	133	161	1
8856	-17048	25916	5967	26764	-631	-32768	24616	8612	28856	10525	1043	-12992	4408	-9320	-16743	5513	59	-8772	5760	20972	1235	32767	-14408	-29660	-1332	3920	6896	24163	5349	-26820	-44	16900	1844	-8586	-683	115	171	1
-32768	13376	28444	8497	32767	4431	-21932	6136	-11184	16655	16308	237	-27780	-10376	14124	12813	-12874	4482	-13952	12224	20812	1105	32767	-21950	-32768	-2620	7260	8616	25385	6900	-25884	-1892	11556	4005	-10644	-3949	136	172	1
-11184	3088	20460	113	17085	11314	-7704	1012	-10972	3498	17420	869	-22832	-3064	-5580	3358	8614	5013	-21728	14448	24064	241	32767	-27034	-32764	2308	3660	5414	26927	8845	-25396	-3904	9744	-539	-20369	-8283	113	161	1
-28240	-30972	12604	6362	10926	3276	-20996	-3228	-11352	-1196	15864	-4769	-14924	19976	-3192	2082	16356	4032	-23136	11104	20456	3119	32767	-29902	-27792	6732	-2384	3780	25305	7486	-22644	6316	808	11158	-23993	-6599	113	146	1
-3084	9196	17720	7672	5125	3335	-19088	-3144	-8792	6587	11910	-5458	-12456	-1500	-11660	-15694	4375	1741	-32768	8128	23364	3618	32767	-29264	-22028	10044	-12032	-1714	22635	6051	-23600	12720	-7956	23424	-28892	-3497	93	142	1
-12856	-9572	13132	5355	3747	2845	-14612	5016	-7260	1550	11168	-2894	-16484	-8012	-1440	-4832	10360	403	-28060	15692	28428	4240	32767	-25516	-19464	6368	-9700	-7437	17366	4094	-25812	9532	-13136	11886	-27453	-2279	105	132	1
-8040	-2800	15640	3449	3076	2299	-18828	2492	-5980	-8710	11010	-3308	-17856	-884	-2932	-7710	11554	2006	14676	26488	23548	-9334	23434	-23601	-13252	4964	-8812	-6846	8893	1608	-25168	5152	-11480	-7321	-29549	1051	124	112	1
-7724	-4504	14256	2145	3121	1287	-17804	-5612	-5940	-3538	8315	-2462	-15908	-1552	-3168	-8924	9337	4644	-24680	11896	32036	-8144	-7477	-533	-4464	9552	-22172	-1941	1761	-3177	-21996	4156	-4040	-14591	-28561	2683	121	120	1
-8408	-4892	13380	1490	2555	1091	-17232	-1224	-4576	1836	7414	-2116	-14912	-6188	-2108	-9394	9847	7440	-224	13392	20840	-8019	-30748	15773	-4668	-1704	-4780	466	-2226	-3469	-22424	2008	-416	-10913	-23727	1875	125	126	1
-8440	-5460	13128	1375	2388	1173	-17548	1244	-3676	-4125	6694	-1019	-14664	-7780	-2824	-5971	10317	8273	2772	5768	12964	-11564	-32768	15799	-8292	876	-5348	2886	-11605	-7431	-21744	2740	-4304	173	-19837	672	128	119	1
-8656	-4920	13212	999	2526	1509	-16616	-1884	-3572	-7656	5794	-1117	-15392	-5680	-3184	-2812	11237	7573	2640	4320	11888	-11657	-32768	15286	-4188	4936	-8228	-4188	-20240	-7481	-16384	3628	-6836	1298	-16314	294	118	99	1
-9016	-3828	13224	593	2297	1200	-16500	-2608	-4664	-2360	5545	-1033	-16228	-3636	-2244	-258	12161	7246	-1940	-1528	8944	-237	-32768	9436	-1684	3216	-7292	-8217	-25970	-10049	-11912	4524	-8552	-1020	-14042	289	114	86	1
-8568	-3984	13264	-49	2317	765	-16436	1316	-3328	2073	5271	-143	-15364	-2484	-996	2499	12556	7539	-3424	1816	9264	4354	-32768	6849	-2248	1560	-8076	-7559	-30603	-12977	-8812	4464	-9284	-4792	-11472	-239	105	77	1
-8552	-4200	13332	-462	2582	827	-16836	1616	-3024	327	5205	-213	-15784	-1244	-816	2937	13158	7675	-6948	3332	10908	6512	-32768	7238	-4432	136	-8856	-2621	-32768	-14742	-7200	3568	-8980	-8415	-8016	-339	99	87	1
-8592	-4564	13176	-688	2858	1305	-16628	476	-2864	-1963	5569	-853	-15952	-2032	-1108	1928	14313	7169	-10712	4192	12924	9458	-32768	10912	-5768	836	-9276	1957	-32768	-16181	-5848	2144	-8896	-8413	-3784	-361	97	98	1
-10064	-6400	14588	-158	4311	1752	-19160	3384	-5064	-13245	3683	-4030	-15756	-3416	100	-702	14880	6082	-11136	7744	15764	10834	-32768	15875	-9044	2408	-9144	2457	-32768	-17002	-5168	1852	-9668	-8900	-472	470	97	108	1
-8532	-3616	12740	-1414	3033	1964	-16124	3300	-3508	-17229	811	2928	-15392	-3160	1676	-2332	15349	5473	-15128	7060	18616	10789	-32768	21579	-15448	5588	-11404	-1677	-32768	-18282	-4752	1392	-10508	-10332	-77	820	96	114	1
-8768	-3860	13008	-805	3172	1360	-13420	-3496	-1244	7659	12562	-2962	-14032	-3112	764	-3217	16308	5927	-22404	6276	24988	13352	-32768	23008	-18708	2904	-11612	2253	-32768	-20301	-6696	1232	-8376	-9738	-754	-1059	99	111	1
-8712	-4300	12800	-250	3583	1307	-16064	-764	-124	10061	11131	-1315	-14684	-4236	-2544	-2050	13512	4355	-31440	4740	30900	16447	-32768	18989	-23104	5572	-11184	10699	-32768	-16688	-11004	1728	-1948	-6928	-3374	-1643	100	114	1
-9240	-3984	12740	-11	3988	1462	-14084	2772	-920	2772	9015	2782	-15084	-4020	-3828	2163	9076	3383	-32768	3628	28032	20587	-32768	13082	-22948	6680	-10704	16174	-32768	-12693	-15208	4828	6576	-3515	-7862	-819	103	114	1
-9432	-4524	12976	404	4643	2062	-15776	436	-2624	-4246	9992	-320	-16192	-5316	-1552	1028	7959	3606	-32768	3448	17396	22260	-32768	8033	-20292	5028	-9788	16560	-32768	-7639	-17272	-2008	9284	1700	-4518	62	109	110	1
-9320	-4760	13308	474	5742	2658	-16916	-432	-2504	-2696	12035	-381	-16200	-4872	408	-5979	7545	3326	-32768	-2024	6368	21465	-32768	7129	-19912	3760	-12720	11392	-32768	-2443	-18056	-2376	30100	-4077	2482	-312	111	102	1
-9156	-4232	14248	868	7899	3195	-17852	-756	-3172	2442	14448	135	-17052	-3336	-432	-10421	5163	2684	-32768	-18132	-6852	19667	-16839	10317	-9972	3840	-812	15031	-18713	769	-20828	-6032	32767	-8921	-5182	1070	111	89	1
-9164	-4168	15284	962	11125	3787	-18820	2256	-2904	2054	14896	983	-18196	-1616	332	-6086	4767	2818	-32768	-13612	-16004	3194	475	6774	-216	12148	-8448	351	3934	3276	-18448	-2136	30112	1059	-2016	430	110	103	1
-9408	-3672	15000	580	14512	4444	-17808	2464	-1156	-286	16106	1101	-18012	-4532	-624	-4931	4009	3317	-32768	-2304	-5752	-18166	22036	-4277	-13752	10460	-15676	-11677	17110	7167	-17864	436	12268	12922	3563	-1238	115	100	1
-9632	-5840	15448	177	18360	5165	-18944	104	-784	395	19440	1129	-19148	-7040	2048	-8167	-41	2020	-15816	-3636	25724	-17536	25148	-1103	-17072	-4496	788	-13002	22775	5822	-12036	-312	-1784	8510	1428	1462	119	87	1
-9340	-7308	17360	137	24163	8143	-24868	1480	-1916	1003	21756	747	-23028	-6532	3460	-5532	-2508	18	11820	10040	18628	-9266	29884	-1511	-32768	-7892	4152	-20265	12995	2641	-13908	7568	-7088	-4392	6786	440	124	82	1
-8076	-6080	20700	-1604	32767	11740	-31020	2704	-1332	-2151	22597	1148	-26408	-10660	7972	727	-5268	-1167	-32768	-6984	32767	-6212	32767	-4571	-20268	-3584	-9764	-25271	18758	5679	-27244	7184	-376	-29526	3496	928	133	89	1
-9292	-13740	19092	-1843	32767	18795	-32580	9996	5468	-5784	24156	-473	-25572	-9476	11184	-8136	-16194	-2936	-8732	356	17792	7	16382	-9252	-12696	-1368	-12760	-8463	18362	5625	-17476	2812	1072	-11163	11840	4624	143	64	1
-17044	-11348	21884	-1469	32767	26554	-31836	6656	4596	-10585	26751	-2999	-25028	-2272	15460	4982	-20453	-1115	-19488	20632	18448	-5052	17141	-6555	-16820	9980	-8096	-2787	13308	7295	-14756	-8776	-8032	-1596	10465	4884	154	101	1
-26788	-13188	21216	-4307	32767	28517	-30136	-1160	-4180	-12851	29177	-1132	-24804	-2944	13248	4816	-20536	-1442	-9588	-1620	16456	-3610	2568	-3160	-20616	4660	-12128	-6360	11900	9337	-14344	4924	-6884	17488	10641	3939	161	80	1
-27064	-9084	15980	-3525	32767	29859	-25720	-8100	-13300	-13772	27168	2205	-20676	-10480	-14012	-9391	-13423	-5958	-12452	3560	16604	-2533	4106	-2826	-16672	-2780	-6336	3219	8689	6666	-17412	2972	-4484	4670	8880	6278	150	94	1
-31120	-13220	21524	-6446	32767	27994	-22972	-4348	-12200	-435	18000	3728	-21524	-10364	-16128	-9574	-13482	-6699	-6064	5236	15276	-1083	3189	-1812	-17412	304	-3724	14495	7937	5863	-14588	4244	1260	5859	12250	7046	159	103	1
-1824	-25352	26148	5209	28299	29208	-14972	-6048	-12544	13769	8678	8382	-24452	-1844	-9188	20283	-21257	-10623	-6476	5604	14480	-387	2908	-1492	-17672	11220	-4180	10551	7384	4727	-16272	5316	-2272	16491	10351	2809	178	113	1
-30764	-17392	19948	12504	-411	11459	-5328	-2404	-23588	13820	2606	4402	-23304	-3576	-5084	18733	-22146	-11940	-8616	5820	14380	-1163	2099	-1152	-16400	7208	-3920	-351	5603	3506	-17060	10500	-820	10881	10460	2139	186	122	1
-7724	-7852	21692	8177	-30114	-13087	-2980	1836	-11028	8734	-2828	2338	-22408	-1928	-5464	13550	-19996	-11980	-8120	4700	14404	-1151	1763	-638	-16552	976	-2348	1629	5507	1473	-14848	8860	-820	4266	14853	2734	183	123	1
4020	-8464	11920	3616	-32768	-22933	-10972	5244	-2828	8755	-11481	2606	-21764	140	-6932	7948	-17729	-10794	-7576	6280	13784	-914	1713	-732	-16876	2436	-1704	7421	4672	1272	-15196	5600	-1108	2441	15284	2126	174	130	1
4392	-7932	8512	4779	-32768	-21598	-6704	568	-5184	2126	-19588	4129	-17320	-348	-6608	6579	-16114	-10561	-8192	4628	14384	-315	1822	-1036	-16836	3336	-2228	7434	4428	1425	-16608	2892	-180	4902	15923	1840	162	139	1
-696	-3440	8872	5145	-32768	-18528	-5588	-708	-5332	1978	-20538	4195	-12252	-672	-6904	4438	-13654	-8916	-8424	4368	14436	-241	1801	-983	-16036	1608	-3016	1223	3786	1276	-16044	652	856	7879	15561	1648	133	142	1
-4604	-2092	9620	1825	-32768	-16682	-3580	-1904	-7664	4353	-31057	4295	-9760	252	-7360	4583	-9976	-7710	-8088	4756	14444	346	1835	-794	-15616	1244	-1848	2881	3609	1171	-15328	312	744	6081	15561	1736	120	141	1
-6684	-3440	10460	-1076	-32768	-16047	-5892	-492	-9036	4042	-32768	6117	-8300	2088	-8300	6078	-7228	-7785	-8212	4852	14032	378	1533	-951	-15628	2132	-764	4206	4093	2262	-14772	1688	816	1011	16430	2661	105	143	1
-9540	-3668	11780	-3374	-32768	-16306	-7332	-896	-8980	4973	-32768	8105	-8328	2156	-8804	6655	-2764	-7011	-7840	5312	14088	473	1431	-1034	-15652	1664	-476	4263	4182	2640	-15628	3792	2824	-2655	16538	3384	102	149	1
-13528	-6132	14156	-4686	-32768	-17385	-8084	884	-10068	3200	-32768	8547	-7104	3736	-8592	7750	-2196	-4847	-7776	5392	14104	410	1924	-1554	-15800	3600	56	557	5844	2888	-17364	3968	3124	-5090	14492	3131	101	154	1
-16428	-7544	16692	-5930	-32768	-19372	-9800	1560	-11396	1030	-32768	8425	-6192	5240	-8020	8930	-1100	-2841	-8260	4504	14204	150	1911	-1582	-15768	3552	-188	264	6145	2929	-15092	4944	-516	-3239	11013	3192	105	156	1
-18436	-6900	21380	-10074	-32768	-21850	-18028	5816	-14984	-7314	-32768	9961	-6292	6380	-5996	9535	-1751	-698	-7880	4728	14496	94	2209	-1630	-15232	2040	-1876	1242	7894	2573	-16612	4040	-3568	-420	7918	2042	110	161	1
-27752	-6320	23720	-16785	-32768	-21145	-18320	7096	-13784	-19733	-32768	6508	-7412	7348	-1472	11099	-2324	1348	-7776	5860	14564	102	3016	-2158	-17108	2028	-1192	1942	8586	2973	-16388	3252	-412	723	8664	1839	117	162	1
-32768	-4180	24156	-22451	-32768	-18059	-17464	-2812	-13420	-28824	-32768	-1407	-9600	3972	2332	11708	-504	680	-7960	5136	14828	101	4104	-2809	-16752	2180	-1864	2383	9191	3342	-16272	1976	2416	1484	9501	3003	129	158	1
-32768	-4336	20348	-23841	-32768	-11779	-23020	-3812	-13204	-23505	-32768	-5236	-15128	-3236	1560	1881	-370	-1259	-8028	4400	15436	311	6315	-3179	-17116	1260	-1564	1839	10348	3372	-16996	680	1672	4306	10050	3019	141	158	1
-32768	3280	13192	-24250	-32768	-6181	-22864	2444	-9748	-18966	-32768	-7611	-18540	-10980	13544	-3270	-2244	-2340	-7812	4744	16204	678	9425	-3415	-17728	1332	420	1609	12228	3298	-19608	-36	1768	3370	8874	2689	153	163	1
-32768	11488	908	-20729	-26808	-5788	-15468	-2592	-12408	-14716	-24463	-6326	-18316	-16492	28548	-4389	-5136	-2330	-7836	5012	16500	566	13412	-4293	-19608	1300	992	772	14773	3801	-20452	1740	4884	3509	5878	1965	165	170	1
-32768	19280	-14440	-6969	-10247	-7266	-2324	-1984	-4072	-756	-5180	-1825	-16872	-24456	29776	-4070	-3120	-3560	-8280	4868	16524	626	17989	-5030	-18720	636	344	-361	17146	4318	-19824	3924	5056	6021	5437	1142	154	166	1
-32768	17096	-11848	5199	9843	-2428	-6120	-4200	-14116	5956	14823	-534	-18828	-9708	16636	-5131	-2395	-167	-8624	5336	16468	944	23373	-5851	-18940	2512	1764	-863	19952	4439	-20612	5240	3488	6593	4310	-165	165	162	1
-32768	5596	784	8722	18660	-512	-12216	-2824	-20128	14673	21862	-259	-14540	-284	844	-16131	4744	1960	-8600	7852	17172	1200	29462	-8396	-20920	1428	2108	-2460	22438	5211	-21068	2224	4540	7432	-212	31	160	167	1
7444	-4372	13932	17342	19119	-726	-21148	296	3296	18552	16441	-212	-6324	8296	-336	-21032	7009	4198	-8392	6748	17844	1384	32767	-12863	-25592	-2156	-340	41	24544	6836	-22780	-2488	10700	4800	-5454	400	116	184	1
16708	-6312	14200	11246	24338	-1620	-32768	10804	9564	25057	6994	1742	-5712	3732	-22092	-12960	18240	7611	-10556	13712	20392	1867	32767	-19478	-32768	-7840	4492	6773	25797	7747	-22908	-4996	15308	624	-7526	-4200	97	185	1
-29260	12500	25576	9915	32767	3657	-24804	9888	-5404	18338	11492	1449	-32768	-21692	26012	21497	-21997	-2578	-18720	11392	22416	4127	32767	-24770	-32768	-3444	5568	12991	27187	9763	-26596	-7800	12752	1445	-15872	-10369	113	175	1
-22764	7480	28252	2259	19083	10146	-15828	7620	-9028	8887	15153	1297	-29688	-3000	7396	12564	11319	3755	-25536	13328	23488	7071	32767	-25532	-31068	5872	-376	13003	26700	8357	-24556	6264	884	17545	-23224	-8629	121	160	1
-14616	-18768	14752	2467	12095	5920	-17560	3296	-7972	3266	16436	-4659	-15868	24380	912	-133	20713	7004	-19696	4552	17328	8279	32767	-27362	-22108	10764	-6736	6771	24109	5479	-23092	12308	-10512	22748	-31308	-4147	114	149	1
-12344	900	15920	6388	7254	4248	-18128	-5500	-8884	292	15285	-6696	-8888	6780	-17716	-17515	8569	5067	-32768	9760	24816	18058	32767	-19483	-16060	6360	-10392	-11776	19693	2214	-24244	11732	-14076	14003	-26251	-3266	68	153	1
-14144	-11100	12988	3997	4302	2744	-16332	-3028	-7712	-2795	13229	-3555	-6408	-13792	-2628	-15916	6718	883	-13740	21564	27716	7087	23126	-15927	-10696	9260	-13804	-5772	12808	-1403	-24536	8244	-11508	-4384	-25213	-839	85	132	1
-6032	-5420	13700	4431	2867	2660	-18980	-2976	-5796	-5268	10849	-1551	-18436	-9808	-11044	-10359	13469	762	-32768	23704	26664	-17822	-4165	-398	-9116	10248	-16236	3	6575	-2709	-23204	8432	-5300	-14317	-23088	510	119	109	1
-7132	-4648	13760	4426	2479	2810	-16480	-2588	-5616	-1632	9422	-530	-17400	256	-2168	-1902	9388	4330	-1628	12832	22096	-24253	-32768	16334	-5932	5648	-5408	412	621	-6735	-23316	2736	-1740	-13574	-22296	2996	140	125	1
-8960	-3320	14824	3197	2759	2400	-17656	2876	-5400	3796	7496	-1125	-17928	-3448	-1892	-2311	9936	9232	6212	4444	12588	-22377	-32768	12434	-12308	3428	-2180	-4393	-9451	-6771	-23280	-412	-2564	-3263	-20099	2223	127	123	1
-8680	-4260	13768	1408	2725	1461	-17632	3204	-5368	-1752	7109	-697	-16776	-1152	-3288	-2050	9977	9145	4412	-2988	10508	-12033	-32768	2559	-5936	6972	-6976	-14101	-19844	-6316	-22384	104	-3168	-1540	-19702	2251	128	110	1
-8204	-5552	12600	1432	2325	1273	-16128	-756	-3892	-7533	5771	-947	-14392	-2744	-3960	-1684	10700	7559	-2184	-1452	11180	2690	-32768	-333	-2900	1028	-8508	-21204	-26161	-9311	-12060	3976	-7444	-2624	-14974	587	115	80	1
-8084	-4916	13164	1600	1847	1762	-16088	-1868	-2704	-5948	5305	-952	-14932	-5348	-2968	1247	11631	6915	-6280	6488	11040	7382	-32768	98	-2756	-2816	-7904	-6573	-30332	-13654	-9856	2776	-8780	-7911	-11816	-154	106	64	1
-8572	-4132	13292	910	1904	1683	-17348	-444	-3600	-263	4608	-302	-15704	-3056	-1212	4541	13633	5763	-7948	6700	11360	6303	-32768	4110	-5896	-3160	-8708	9164	-32768	-14946	-8092	3844	-8700	-9889	-8756	-974	108	67	1
-8868	-3492	13120	476	1853	1168	-16072	1504	-3404	1487	4882	302	-16484	284	-392	2910	15479	4987	-9724	4696	12732	8101	-32768	12462	-7204	1264	-10256	13204	-32768	-15683	-7788	2604	-8668	-8941	-6360	-675	104	76	1
-8540	-4116	13108	154	1934	1156	-15348	2464	-2608	-265	5612	-533	-14844	476	552	-3298	14630	5776	-13124	9292	15148	8826	-32768	20079	-8272	6264	-9784	8644	-32768	-16445	-6556	1528	-9868	-8185	-3767	173	103	84	1
-8568	-4592	13500	332	2456	1885	-17000	1976	720	-9475	1478	-1906	-15316	-2200	736	-6143	12854	5825	-13920	6772	18452	7087	-32768	23509	-15308	5612	-9932	158	-32768	-17219	-5348	612	-10472	-8969	-3256	893	102	98	1
-9020	-5212	12784	249	1993	1265	-15580	-2896	-1552	1961	9109	-1713	-14900	-5348	788	-3370	12942	5655	-18788	3000	23136	10417	-32768	20865	-19016	3832	-11496	-3118	-32768	-18064	-5860	1412	-8404	-7545	-3400	-411	102	106	1
-8904	-4640	13028	541	1963	1966	-16280	-708	-1648	4860	8568	-626	-14520	-4936	96	-34	12688	4238	-29616	5992	32767	15027	-32768	16306	-23920	4376	-16344	55	-32768	-18598	-9480	1148	-3428	-10662	-6118	-2177	106	109	1
-8712	-3936	13244	1012	2676	2368	-15820	1512	-1008	421	9008	-204	-15268	-5960	-1132	1270	12020	4030	-32768	3312	32767	18861	-32768	15024	-20568	32	-11108	14477	-32768	-16044	-15744	4056	7960	-7045	-13196	-3676	108	109	1
-8700	-3952	13144	1409	3016	2535	-14684	-120	-932	-1256	11120	-238	-15172	-4668	-4484	-3786	9574	2827	-32176	2784	18436	19367	-32768	12953	-19536	6156	-12996	23126	-32768	-9952	-17608	-500	7820	2458	-8275	-3698	113	98	1
-8472	-4644	14432	1293	4282	2564	-17684	-228	-3744	1882	12864	-51	-18336	-2984	552	-4653	7377	3094	-32768	3104	10672	16417	-32768	8117	-20736	6328	-9664	12503	-32768	-5669	-7032	-5060	13404	391	4555	1038	117	89	1
-8748	-3876	15144	800	7047	3430	-20232	2616	-3552	1437	12987	202	-18628	-2408	824	-6049	7155	3416	-32768	-7440	2548	17078	-25955	7916	-17872	6568	-8244	8448	-28204	-1382	-16092	-4324	29620	126	3075	62	114	88	1
-8760	-3932	15928	1312	10530	4235	-17420	1916	-1396	-238	14472	245	-17228	-3160	56	-8079	5505	3901	-32768	-13792	-9592	8799	-10290	10548	-4928	5580	-3196	-2523	-9692	-530	-22280	-1040	32767	-11958	-2253	549	117	95	1
-8952	-3732	15760	1843	14028	4725	-18208	972	-1648	1487	16898	484	-17840	-5436	1268	-5229	6133	3795	-32768	-16500	-9188	-4111	6213	1670	-4440	3832	-11228	-5295	10250	2691	-20088	-424	21980	2750	-613	-412	117	98	1
-8720	-4244	16676	2041	17808	5495	-19392	328	-3164	3577	18629	1315	-18648	-7544	-2344	-7724	3051	2751	-19616	-1308	12360	-7918	16327	-578	-11176	6064	-10048	354	20270	6230	-14948	-4712	7776	12835	3834	-299	121	89	1
-9232	-6744	16576	1268	22530	7568	-22348	2748	-2308	2191	20342	1543	-21344	-3800	884	-7055	-455	1585	-5172	5976	31064	-12668	22037	-6819	-23348	-1988	2292	-4932	19947	6862	-13680	-7524	4364	-6745	4285	-2252	125	70	1
-8972	-6336	18516	378	28990	11066	-25220	4256	-756	-1905	22379	45	-23968	-5984	5188	-1409	-1847	1543	8912	8508	13956	-8644	27226	-5472	-30392	-2376	3100	-15851	10157	5453	-8724	10820	-16360	13143	8291	4054	124	86	1
-10240	-7564	20440	-56	32767	15284	-29520	3428	824	-5254	24544	-256	-25148	-11660	13212	-321	-8583	-221	-28444	136	29564	-5869	32767	-3588	-21640	-2508	-5552	-22958	16282	4838	-30396	7968	11028	-26685	4691	2245	142	98	1
-10712	-14108	20800	-101	32767	22659	-32768	7812	7128	-7979	25893	-1769	-24100	-8108	12404	-9113	-21059	-3544	-13928	-5844	22688	-1418	18789	-8942	-18620	-1376	-9820	-13592	16891	6013	-20772	5720	-292	-13185	12571	4562	153	105	1
-22968	-10112	22316	-390	32767	29362	-31280	2472	1244	-15010	28803	-3385	-24232	-6568	6524	-206	-18521	-2092	-9880	14724	14552	-1528	18659	-7336	-14784	3900	-7060	-9162	12922	6148	-17816	-13800	-6356	-3148	13965	7295	161	132	1
-27984	-9024	20716	-2572	32767	30007	-27352	-5876	-7264	-17659	29093	-1004	-18788	-10028	-5108	-5664	-18548	-3822	-27792	5728	22772	-3794	9430	-5859	-18840	3564	-9112	-542	12222	9435	-9424	-3108	892	18830	6260	4457	157	134	1
-24376	-3700	16288	-1367	32767	30672	-22952	-8040	-12576	-8537	25504	4138	-19996	-9464	-16344	3160	-13889	-8213	-6056	3872	16424	-2567	5672	-3106	-17772	-260	-6476	8438	10774	9658	-17564	8316	-6756	20246	7915	3245	155	130	1
-23888	-19404	23900	-3159	32767	28609	-18824	-7692	-10268	11176	14573	8806	-27828	-5352	-13352	16040	-18938	-10928	-7888	6208	14520	-1595	3600	-2162	-16924	4404	-4900	15469	10056	6564	-14692	9932	-3028	10083	10124	5180	171	126	1
-10564	-21876	18752	15901	22667	30879	-11404	-5628	-14876	18535	5359	7918	-24720	-1604	-5236	26177	-19798	-10788	-8776	6504	14584	-760	3363	-2130	-17344	10496	-4824	9642	8156	4198	-15584	7728	-2996	13868	11594	4957	185	139	1
-19140	-8960	24560	11871	-16490	-2940	-5816	860	-17520	15062	238	4108	-22712	-2320	-7476	18983	-18333	-11216	-9028	4064	14924	-404	2535	-1545	-17016	6384	-5096	-2947	6453	3053	-17392	7276	-1304	5942	13048	2616	186	136	1
2420	-10504	17480	4093	-29327	-22434	-7776	6588	-2308	9656	-5320	3880	-22604	1256	-6576	11717	-18585	-10026	-8024	5364	14592	-200	2454	-960	-17108	432	-2752	-497	6334	2114	-15920	5964	-208	3591	15614	1895	175	132	1
3012	-10972	10488	5473	-32768	-25696	-10808	4464	-4944	4155	-15022	4499	-19928	596	-6104	7086	-18186	-10389	-7784	6540	13760	-345	2602	-1056	-16768	1336	-1780	7147	5531	1992	-15568	4024	-280	5987	15978	1550	167	134	1
796	-6460	9616	8658	-32768	-22231	-4584	-3284	-5760	1046	-22051	4790	-15052	1068	-5876	4585	-16452	-10448	-8092	6180	14176	-844	2371	-1895	-16396	4828	-2312	7724	4243	2510	-15844	4100	-952	7367	15618	1428	158	138	1
-2740	-1004	9992	5466	-32768	-19642	-4132	-2232	-7180	5098	-27546	3978	-11492	1228	-6280	1974	-12344	-9823	-8608	4400	14308	-491	2181	-1684	-16140	3656	-3156	2588	4351	1908	-15420	3624	228	4906	15065	1512	129	139	1
-5816	-1984	11104	-377	-32768	-18154	-4244	-1904	-7552	5483	-28645	4056	-10860	1268	-7372	1247	-8254	-9396	-8460	4584	14228	-65	2248	-1157	-15832	1348	-3324	1874	4574	1337	-16224	2304	-140	1516	16193	2253	110	142	1
-8616	-3972	11808	-3207	-32768	-16447	-7848	532	-9360	6621	-32768	6994	-9348	1324	-8796	2389	-6264	-8741	-8532	4848	13948	58	2168	-850	-15748	2128	-2256	2804	4595	2170	-14504	992	732	-581	17373	3270	98	146	1
-10992	-5000	13840	-4790	-32768	-15854	-10344	908	-9936	4080	-32768	8110	-8852	1916	-8848	4342	-3486	-6045	-8480	5496	13836	74	1985	-1155	-15168	1708	-812	3917	5033	2733	-14304	1656	1388	-2284	18279	3524	98	152	1
-15144	-6568	17104	-7181	-32768	-17126	-10280	2676	-11500	1131	-32768	8092	-7820	4564	-8060	8195	-1553	-3555	-8424	5340	13680	-75	1899	-1459	-14516	3088	172	2871	6132	3081	-15172	3112	1940	-3438	16219	2841	96	153	1
-17516	-8380	20280	-9693	-32768	-20264	-14500	5568	-13456	-3865	-32768	8195	-7648	5732	-6952	10713	-2300	-1392	-8452	5432	14104	-423	2055	-1701	-15032	3784	-304	-242	7468	2672	-16420	5036	-1976	-2217	10277	2819	101	153	1
-22060	-8300	24980	-13297	-32768	-22521	-20572	5952	-14988	-15332	-32768	8735	-7412	6192	-4600	10969	-3302	529	-8468	4748	14212	-163	2466	-1905	-15816	2440	-1712	-1004	8451	2650	-17212	4700	-984	-3038	7227	2357	106	154	1
-32560	-4776	25600	-18178	-32768	-21268	-17820	2420	-12700	-26716	-32768	2913	-7884	5416	-432	11270	-4609	344	-8076	5260	14460	-277	3371	-2315	-16684	1208	-1168	475	9379	2962	-16548	3724	2884	-1452	9181	2877	112	150	1
-32768	-4304	23152	-19859	-32768	-17541	-22136	-7236	-14448	-23025	-32768	-2924	-12720	-3160	1848	10692	-6994	-3247	-8012	4852	15368	-377	5118	-2933	-16888	1788	-1136	386	10433	3679	-16920	2060	3284	1085	10958	3261	134	146	1
-32768	1016	15392	-18128	-32768	-11854	-24012	2516	-14168	-13593	-32768	-4634	-18376	-10884	8172	7885	-6042	-5957	-8032	4668	15824	-56	8100	-3030	-17572	2308	-408	-840	12383	3474	-18284	528	1932	149	10076	2927	166	151	1
-32768	7456	3744	-16843	-31189	-9035	-16860	748	-13192	-11354	-29781	-4314	-18068	-8360	21720	3438	-2261	-1790	-8136	5576	16344	183	11967	-3898	-19384	952	-260	-1497	14164	3581	-20384	-764	1520	2058	6965	3021	174	156	1
-32768	15280	-8404	-10591	-16682	-7836	-11256	-1712	-11312	-6089	-15437	-3898	-17104	-14484	30752	-7691	-792	-1909	-8572	4560	16632	633	16746	-4754	-19232	-664	792	973	16750	4466	-20616	992	4856	4773	6225	2537	166	162	1
-32768	21724	-14268	-2940	-398	-2909	-4068	-3172	-11584	-1734	4610	-2098	-15632	-13032	16872	-11495	-897	465	-8376	5372	16828	1155	22440	-5829	-20228	1180	1200	1404	19609	5033	-20904	3972	4820	7611	3340	932	164	170	1
-32768	11932	-6736	5482	11025	3810	-8088	-5232	-17456	5005	17801	-752	-11716	-8576	4332	-12461	481	2834	-8420	6884	17212	2175	29357	-7918	-21644	1268	1328	-988	21806	5089	-21256	3440	4596	9494	567	-100	158	171	1
-9640	-14108	5692	19691	19216	9235	-14508	-2680	-12312	13650	21742	-748	-11204	-2576	-2616	-17033	8904	1856	-9056	7012	17444	3577	32767	-12008	-24540	-2716	-640	617	23936	6418	-23772	-932	12180	7311	-5419	193	135	184	1
22840	-21064	29484	9760	19575	-871	-32092	12836	14452	22485	11301	144	-5916	3888	-20796	-21947	17512	4239	-10088	11436	19720	4089	32767	-17900	-32768	-8376	5012	8595	25917	7380	-23196	-6020	14756	3461	-4396	-3445	110	190	1
-15184	4424	14028	8398	32767	-1756	-29760	7180	-6556	23819	11721	2253	-32308	-1040	15112	16541	-12053	7804	-16300	10584	21340	6383	32767	-22779	-32768	-5508	5132	14206	27226	10089	-27808	-8104	17456	-2495	-14949	-9323	106	187	1
-30788	13096	31724	1463	21774	8222	-12612	6000	-11656	13203	14157	2528	-29700	-18036	7328	13894	8964	667	-27272	14616	21700	8046	32767	-24484	-30408	5300	408	18188	27183	9130	-26708	5996	2252	21585	-22925	-9058	95	171	1
-13096	-15152	14492	1369	15674	8138	-17924	9400	-7524	9392	16535	-4053	-18844	19140	68	8201	20447	4168	-23636	7148	17264	5863	32767	-28146	-24108	15276	-7952	9626	25161	5125	-22924	12192	-11860	27016	-30777	-4996	111	149	1
-16872	-2856	15600	7833	8192	5063	-20016	-7172	-9940	-1116	16186	-8828	-9756	9372	-17512	-13743	8484	3960	-32768	12520	25020	9283	32767	-22962	-17772	9884	-9116	-7947	20286	1000	-23836	16168	-11544	11797	-26940	-2916	89	139	1
-14392	-13264	11568	5695	5104	2794	-14068	-3988	-10840	-2601	13585	-4071	-8288	-9052	-5872	-15746	10705	1224	-7440	23504	30440	6977	30690	-23098	-16624	6768	-3612	-17638	11868	-710	-26552	11076	-8664	-10747	-28146	-489	106	132	1
-8252	-2332	15076	5158	3430	2656	-19808	2188	-7888	-4985	10756	-3123	-17656	-6688	-9652	-9861	13425	-714	-32768	22576	15780	-10259	15852	-22534	-10364	14736	-19648	-17545	2524	-3997	-23052	7020	-4444	-17000	-26152	2729	116	111	1
-8136	-2200	14988	3240	3524	1876	-18188	-1916	-7632	-1273	8311	-825	-18112	1716	-2004	-4259	10360	4419	-15388	13620	26808	-18068	-32683	8914	-2748	7428	-13808	-10607	-1210	-6163	-23292	488	-3964	-12967	-23323	3181	127	119	1
-8796	-3644	14084	815	3149	969	-15612	1608	-5560	3119	6954	-1998	-18544	-2188	-2368	-5667	11516	10298	2236	8152	16704	-14426	-32768	15953	-8932	-4712	-3732	-6146	-8909	-5753	-22800	376	-4048	-4948	-21219	899	135	116	1
-8792	-4820	13332	-122	2892	597	-18004	2368	-4208	-1845	6912	-2239	-16484	-3500	-3480	-4824	11198	10011	-740	3960	9780	-11551	-32768	13403	-5304	-808	-6168	-2052	-18639	-8568	-17308	620	-6460	-1019	-17474	-703	127	92	1
-8760	-4912	13092	-27	2786	565	-16288	-1772	-2312	-7949	5377	-1918	-14244	-5728	-3688	-3079	11679	7881	-680	-1208	8516	-4775	-32768	10772	-2856	1888	-7408	1716	-26465	-11050	-12376	280	-6316	-1225	-15802	-1995	114	67	1
-8472	-5052	13048	757	2686	1673	-16184	-2220	-2208	-8124	5266	-1991	-15804	-6976	-2956	1628	13811	6674	-3576	604	8232	3696	-32768	8184	-3380	-1472	-6448	6364	-30266	-12356	-9352	2460	-7296	-404	-12736	-2187	109	69	1
-8988	-4240	13168	100	2539	1607	-17308	-4048	-3112	-3372	4671	-1765	-15944	-3164	-1984	5501	14648	5204	-8232	3868	10696	8419	-32768	6989	-5244	2812	-9152	10769	-32768	-12682	-7940	4688	-7904	942	-7747	-2078	106	74	1
-9120	-3432	12960	-838	2695	1168	-16188	2336	-3788	150	4917	-789	-15628	1080	-404	3378	15170	4800	-11380	5484	13880	9470	-32768	8518	-8648	4824	-10744	10804	-32768	-12859	-7408	3652	-8996	-570	-4292	-795	107	84	1
-9624	-3120	12800	-1132	2770	699	-14988	5676	-1164	-11494	5931	-840	-14132	1564	332	-4523	14755	5580	-16044	5960	17444	11085	-32768	13264	-11736	7040	-10088	1295	-32768	-14363	-7184	3876	-11148	-8179	-2268	1188	106	93	1
-8552	-3992	11968	-1702	2563	1308	-16128	2796	1232	-21050	74	1160	-14264	-2948	280	-9993	12477	5991	-20140	7432	20772	11372	-32768	17762	-13036	3492	-11496	-4105	-32768	-17036	-5844	3752	-12752	-13086	-2018	2651	107	106	1
-9260	-4544	12952	-552	2353	1334	-16572	-5496	-1432	8124	12189	-3797	-15432	-6952	700	-7020	13077	4981	-22696	2144	24864	15154	-32768	19552	-22092	-1156	-11896	545	-32768	-19056	-6592	3268	-9892	-12451	-4183	1048	108	112	1
-8936	-4560	13072	337	2840	2118	-16756	-112	-904	7974	9637	-1054	-15584	-6532	-488	-772	13099	4266	-32768	4080	29164	17546	-32768	15234	-22496	1752	-14284	14973	-32768	-17442	-11820	4056	-968	-11384	-8699	-867	109	115	1
-8928	-4212	12972	400	3814	2741	-15396	1944	-556	-315	10139	1209	-15748	-5556	-3688	-897	9516	3315	-32768	4924	26784	16941	-32768	10090	-20808	7364	-14176	19892	-32768	-10455	-15688	2008	6608	-8667	-10729	-2415	112	109	1
-9112	-4900	14072	675	5351	3373	-17776	416	-2584	-5779	11564	24	-18292	-5504	-2948	-4701	7014	3049	-32768	3312	14296	18736	-32768	8014	-20436	6872	-14088	11860	-32768	-5697	-13888	-3636	7724	-772	-1067	-2262	114	95	1
-9240	-4612	14664	396	7875	4220	-20432	716	-3368	-2042	12382	-249	-18364	-3720	-164	-7515	6643	2780	-32768	-3896	5872	21398	-32295	10614	-20636	2588	-13360	7979	-32768	-1927	-13696	-4908	25588	4387	5650	-2280	113	101	1
-9020	-3964	15356	901	11354	4790	-18748	760	-1380	1346	13932	318	-18576	-2728	1636	-6948	6164	2849	-32768	-14924	-5452	14778	-14294	17254	-10816	5936	-3216	10890	-17584	-1336	-23076	-8140	32767	-6385	1202	790	113	89	1
-9160	-4528	15356	939	14994	5191	-19320	2340	-1372	527	15394	908	-18788	-2592	2396	-6024	4729	2875	-32768	-16120	-17140	-1048	2170	11393	328	10628	-9796	-3396	4558	1933	-19700	2688	27736	-1978	-8	2839	114	92	1
-8924	-3424	15284	865	18532	5796	-18648	2288	240	-74	17071	1192	-18796	-7200	936	-8365	2048	3952	-32768	-13320	-4412	-2175	14924	-959	-7536	9208	-16168	-12639	18220	6815	-18088	-136	11592	9878	4123	702	116	77	1
-9356	-3692	15436	876	19139	5798	-19608	768	508	2034	19701	1824	-18376	-6920	524	-9492	-1144	2311	-8052	-2028	3412	-16470	24085	-1878	-18188	224	-8712	-14611	21780	6729	-11208	-3064	-2668	6022	4549	2191	125	75	1
-10144	-7040	15724	-59	28076	9632	-22440	1508	-68	2199	21886	971	-20524	-6024	4240	-3864	-1644	978	14716	19544	26548	-9129	19095	5	-30532	-10280	9688	-10911	12522	3321	-2364	5756	-8332	676	4379	1426	127	82	1
-10440	-7076	18280	-335	32767	13905	-26396	4512	412	213	23410	-828	-22456	-7152	10304	1882	-3271	-257	-12548	-10648	16828	-8001	32767	-4545	-32640	-7400	8280	-12866	10866	3349	-21224	8564	-13556	-384	13180	2160	136	124	1
-13408	-11992	18780	-624	32767	20293	-26948	5220	276	-191	23442	-1028	-24728	-10364	15932	-10739	-14912	-3039	-24412	-5360	28344	-2794	23070	-6452	-18504	-188	-9536	-13345	18017	4552	-27696	6408	17952	-32768	4903	1674	136	120	1
-21724	-10476	20400	-2676	32767	25811	-32204	4120	3956	-12712	27612	-3489	-23628	-4552	11092	-539	-21357	-2338	-9576	9312	15912	98	19070	-8443	-14212	2040	-7312	-9501	13337	6069	-17916	-9796	-7076	-566	15616	4731	150	139	1
-28320	-11052	18516	-5188	32767	27851	-26808	-1280	-6376	-15107	28608	-3316	-20600	-4532	3088	1145	-20476	-2786	-26436	18148	21860	-6332	13700	-7452	-17440	5404	-6804	-4033	12910	8063	-11908	-9196	-4064	2736	7568	5089	155	141	1
-23676	-4544	16904	-5789	32767	29568	-22684	-7740	-10320	-13003	26429	302	-18560	-8816	-17700	-7815	-12923	-5763	-8128	-2180	18356	-3928	5326	-3715	-19704	1088	-7204	3021	11961	10291	-15300	8600	-4492	26084	9657	4053	143	141	1
-28260	-15944	22352	-12353	32767	25978	-23760	-4500	-9744	-2026	20174	4619	-27264	-7792	-12760	4814	-19817	-10777	-10500	7320	14616	-3081	2839	-2648	-16244	3036	-5320	12813	11347	6634	-16008	10420	-5016	8403	7868	5115	160	126	1
3628	-29012	28300	3182	27860	31036	-16516	-6912	-13180	13673	8155	8262	-24276	-2400	-7012	21808	-20258	-10868	-9316	7876	14796	-1707	2605	-2389	-18220	8120	-6096	10230	8585	4190	-14268	6720	-4320	10516	12681	5802	184	129	1
-22204	-20708	21160	10129	-6635	7084	-5168	-2164	-26200	11919	2170	2976	-23328	-1496	-6180	17970	-21430	-11218	-8696	4688	14824	-1429	2228	-1589	-16996	6688	-5732	-791	6934	3117	-16968	6008	-4420	9085	12179	2429	190	132	1
-6140	-8500	21080	6278	-32685	-17065	-4400	5048	-6188	9476	-3381	1703	-23248	1232	-6316	10504	-19679	-10486	-8168	4140	15172	-585	2309	-1230	-17232	1980	-4576	-2572	6203	2156	-16816	7208	-2100	3624	14977	1136	184	127	1
2544	-9548	11800	3232	-32768	-26179	-11200	6284	-3712	5352	-12324	1079	-21548	-832	-6312	5224	-18106	-10890	-8080	5468	14536	358	2788	-942	-17460	-408	-2956	4071	5405	1535	-16576	4392	-1420	4389	17024	742	174	129	1
3920	-6688	8684	4093	-32768	-24905	-7184	1096	-5492	1065	-20852	2241	-17320	-868	-5928	3873	-15450	-10580	-8380	5184	14044	812	2693	-1240	-16564	2156	-2780	9377	4536	2373	-16792	2712	-1372	5557	16193	1280	162	134	1
-1656	-2484	8888	4003	-32768	-21407	-4172	-2756	-5984	401	-26024	1951	-12416	40	-6772	1658	-12786	-9475	-8348	4964	14344	723	2874	-1219	-16296	3604	-2168	6200	4494	2204	-15752	2712	-356	3754	15009	1364	132	137	1
-5112	-1148	10240	-63	-32768	-18528	-4776	-1924	-7836	5175	-32029	1719	-10364	2008	-7380	1715	-8444	-8329	-8308	4720	14228	541	3102	-1123	-16304	3816	-1992	1177	4738	1675	-15140	1820	1780	-774	16114	2692	116	139	1
-8376	-3556	12100	-3306	-32768	-17118	-6880	440	-9424	6861	-32768	3913	-8872	1268	-8276	1819	-6368	-7760	-8224	5084	13928	553	3129	-1295	-15912	2124	-860	-56	4929	1656	-15432	1812	2736	-6268	18711	3716	101	148	1
-10636	-4256	13240	-4778	-32768	-17081	-9132	1024	-9968	6522	-32768	5888	-8764	1608	-9004	2019	-3295	-6651	-8416	5212	13704	520	2931	-1714	-15288	1664	-348	2192	5724	2498	-15632	2708	1316	-6976	18620	4127	101	153	1
-14212	-6112	16088	-5907	-32768	-17987	-10704	3000	-11456	3267	-32768	6907	-7524	3616	-8572	6520	-1369	-4240	-8664	4940	13432	-29	2671	-1740	-12984	1732	552	3274	7312	3214	-15052	4880	-1420	-1793	12039	3499	104	155	1
-16344	-6312	19900	-8174	-32768	-20068	-13472	4976	-13576	-1057	-32768	7678	-7728	4932	-8148	9947	-1572	-2580	-8284	5108	14184	-224	3011	-1937	-14940	4060	-936	-813	8585	2679	-16088	4168	-2068	-124	7949	2052	103	158	1
-22492	-5516	24916	-12589	-32768	-22101	-18300	9152	-14180	-13293	-32768	8376	-7408	5432	-5196	12322	-4016	-832	-8616	4928	14528	144	4105	-2288	-17408	1716	-3264	-1875	9209	2430	-16540	3812	-1572	-461	7721	1865	107	155	1
-31508	-3628	26092	-17481	-32768	-20452	-16476	2620	-14368	-27396	-32768	3750	-6248	5340	-480	10742	-3997	-471	-8816	5056	14384	230	5508	-2637	-16704	576	-2360	1672	9557	2872	-15820	2060	1024	-418	10629	2779	112	158	1
-32768	-3044	24164	-20727	-32768	-14929	-23044	-4380	-13420	-28846	-32768	-2502	-9768	-1220	-176	8806	-3447	-2621	-8500	5128	14592	52	7239	-3005	-15964	1816	-468	2379	10927	3561	-16620	1180	348	4592	10905	2782	126	154	1
-32768	-3104	15644	-20103	-32768	-8515	-24768	-2648	-13728	-17832	-32768	-5223	-18012	-7324	6984	2229	-4928	-5344	-8508	5412	15084	-321	9412	-3727	-16916	2728	288	384	12858	3529	-18412	924	2236	2683	8285	2647	151	153	1
