#Activity	walking 
#ActivityID	1 
#Date 09-27-16-14
acc_rf_x	acc_rf_y	acc_rf_z	gyro_rf_x	gyro_rf_y	gyro_rf_z	acc_rs_x	acc_rs_y	acc_rs_z	gyro_rs_x	gyro_rs_y	gyro_rs_z	acc_rt_x	acc_rt_y	acc_rt_z	gyro_rt_x	gyro_rt_y	gyro_rt_z	acc_lf_x	acc_lf_y	acc_lf_z	gyro_lf_x	gyro_lf_y	gyro_lf_z	acc_ls_x	acc_ls_y	acc_ls_z	gyro_ls_x	gyro_ls_y	gyro_ls_z	acc_lt_x	acc_lt_y	acc_lt_z	gyro_lt_x	gyro_lt_y	gyro_lt_z	EMG_r	EMG_l	act
-4708	-17200	32400	-6707	-29161	11962	-7656	-1704	3976	-8650	-7169	-3087	-23920	3028	-5692	-1566	-17726	-8372	-7024	3572	14320	1080	2380	-971	-17092	-7832	-3016	-6658	3932	-1449	-18976	-8548	0	-7022	15796	-4584	128	133	1
6908	-10920	8320	-4109	-28075	-222	-1784	-960	936	497	-14226	-6101	-16984	64	-7268	-1823	-15607	-9380	-6856	4800	13940	2012	2733	-1150	-17364	-2840	-2732	390	4813	658	-18216	-752	580	138	14153	-4856	120	121	1
1076	-10752	10012	-3842	-27338	-7370	-1832	1812	-2172	5306	-20092	-9110	-13760	-40	-7652	323	-13332	-10017	-7268	6392	13256	1824	3282	-1432	-16772	636	-3184	1603	4997	331	-16364	1588	1064	3207	12267	-4942	136	114	1
-3832	-9508	13080	-4605	-30257	-15643	-2336	2004	-2864	5377	-21097	-9449	-12724	228	-9080	1260	-11715	-9113	-6920	5588	13840	1835	3192	-1741	-17080	64	-2352	423	4408	-554	-16628	3120	2612	751	11068	-3285	128	102	1
-8576	-7688	15012	-5086	-32768	-23359	-4304	2248	-5140	2476	-30710	-11943	-11728	-184	-9944	757	-10157	-7622	-8136	6020	12676	1520	3010	-2178	-15964	-988	-3184	-166	4870	-692	-15152	-716	4800	1258	11014	-2128	139	131	1
-10768	-5888	14304	-3754	-32768	-28616	-7020	1436	-4416	4116	-32768	-13186	-11136	-876	-9780	3173	-9621	-6133	-8136	5800	12852	1325	2998	-2343	-16512	-1500	-2932	1456	5450	-411	-15064	596	3480	5355	8691	-2572	133	119	1
-14440	-4800	15940	-1376	-32768	-29263	-8732	1724	-5916	8655	-32768	-14673	-7604	3544	-8464	6856	-8678	-4482	-8704	5804	12520	1304	3694	-2379	-16668	-1200	-4056	1312	5940	-600	-14260	3084	4268	6737	15053	-1836	140	115	1
-18828	-3660	18160	-1254	-32768	-26747	-13620	3596	-5532	8414	-32768	-16115	-7000	3580	-10196	11760	-6238	-2948	-8616	5664	12384	1393	3901	-2576	-16416	-828	-4020	-680	6272	-1282	-15932	3564	1564	5855	16347	-2808	131	121	1
-23056	-5356	18380	-1403	-32768	-24058	-20604	3492	-6480	7630	-32768	-16658	-5184	4844	-11944	15841	-1976	-1677	-8272	6192	12552	1176	4097	-2862	-15800	-444	-3536	-953	6851	-1402	-16408	3356	140	4289	14637	-3301	137	124	1
-25764	-7392	21788	381	-32768	-22858	-24164	5084	-9208	5606	-32768	-16072	-6916	3060	-7924	18902	1181	-2657	-8480	5432	12540	1165	4446	-3232	-15288	-1920	-4272	-1183	7672	-1426	-16336	1824	440	-23	11201	-2105	130	115	1
-32768	-12716	27300	3257	-32768	-22256	-31928	4840	-12080	5115	-32768	-16084	-8640	224	-2796	14145	327	-3163	-8784	5376	12360	1368	5199	-3007	-15912	-1976	-3944	-812	8088	-1586	-15004	1944	2224	-1524	10190	-1860	123	122	1
-32768	-4688	26860	4442	-32768	-24994	-31596	5216	-12164	3408	-32768	-12997	-13812	-4956	1072	11195	-279	-6449	-8552	5832	12656	1493	6562	-3240	-17192	-1196	-2920	-646	9298	-1757	-16168	2508	5424	-257	10363	-2086	127	121	1
-32768	-7148	14120	3493	-32768	-21685	-30216	1620	-16272	600	-32768	-10589	-24552	-7608	15488	6924	-5985	-9854	-8384	5324	13096	1715	8718	-3756	-17840	-1652	-1824	-666	11334	-2386	-17424	2992	7852	968	10360	-2094	127	129	1
-32768	4392	-8116	3918	-29533	-20702	-16188	8196	-18080	3664	-31561	-5337	-14816	1312	32767	13690	-8617	-5421	-8572	5512	13144	1357	11803	-3802	-18164	-1880	-1368	-1374	13549	-3489	-17972	2228	9060	2926	9330	-1253	120	128	1
-32768	22132	-32768	-16757	-19561	-9912	1304	13604	-23660	-11267	-3345	-4896	-14504	6816	32767	14467	-9614	3947	-9272	4512	13548	1051	15692	-3527	-18172	-3776	-1340	-2427	16412	-4585	-16748	1812	9812	4817	5277	-2411	118	132	1
-32768	-1840	-31980	-14636	5736	-2013	-12188	584	-18424	-12652	15413	2241	-16552	2192	18124	-15266	-1757	7633	-8708	6544	14012	691	21358	-3691	-21368	-1168	-1956	-2525	18504	-5018	-20400	3008	9512	5230	554	-3029	134	125	1
-32768	-2732	-1752	17161	21491	10314	-14400	-944	-18540	6450	22491	6646	-12192	-3332	-1080	-15679	1802	-363	-8728	7952	13260	1193	28586	-6686	-24360	-1340	-784	-812	21078	-3632	-21996	2224	17448	6991	-8796	-3152	144	123	1
-16388	-16920	21084	5464	16192	7055	-15128	1304	-7144	10048	23098	4958	-5680	-5536	-10380	-8116	9894	704	-8484	7152	15196	3347	32767	-10425	-27056	-4520	3596	6963	24353	-2533	-21376	4064	32767	10051	-30903	-2107	118	129	1
23532	8828	17900	-4104	31758	-1533	-32768	16084	31040	11055	12789	5433	-15380	-2944	7152	4517	9153	2840	-6824	8212	17920	8283	32767	-16375	-32768	-3640	9104	19656	27056	-1693	-14548	1112	22608	22464	-15649	-7488	129	133	1
-32768	6596	32767	-7854	32767	7954	-22920	3688	-17924	10546	19567	7495	-30140	-3004	7676	1010	-2402	2575	-6864	9496	18544	9206	32767	-17283	-32768	4504	9168	27084	26925	-1055	-16344	400	3836	29137	-3386	-7787	92	121	1
-27364	-32768	-6800	11248	11704	9444	-21508	-16088	-16824	11795	22126	524	-17344	-4852	-12328	328	10035	-1618	-32768	8492	18896	7550	32767	-27139	-24632	3700	-10492	18555	22771	-1327	-29644	9636	-13464	32321	-5746	-3894	123	131	1
-28620	15496	32767	5931	6892	7277	-13880	11352	-12964	22725	18185	4267	-12940	-524	-6984	2738	6918	-6847	-32768	15256	19552	5632	32767	-24449	-21344	-1552	-22360	10292	23206	-5016	-30612	2272	-6004	2167	-16912	5326	100	109	1
-6548	-7908	13736	2746	3770	2843	-12608	4968	-11312	246	13309	1720	-12984	-240	-9192	-1544	8645	1786	-32768	8500	32767	1049	4668	-20440	-17768	-12340	-25828	1472	18661	-8408	-32360	1300	-3456	-5369	-17622	8424	108	103	1
-9220	-7160	13468	1372	1985	1961	-19120	3520	-10348	-3482	10145	968	-21612	-3104	-9612	-4856	10394	35	1928	-4608	29312	16745	-24877	-16681	-20348	-1280	6700	13418	7030	-2227	-32768	-2888	-7492	-6762	-18798	7298	127	101	1
-9096	-5264	14112	817	1244	808	-19212	396	-7688	-170	8315	1397	-22088	-3040	-5840	-2919	12846	1129	6424	17016	19864	12490	-26475	-13781	-8904	7996	2568	19932	-897	2783	-25980	-6652	-5200	-2724	-17351	5065	99	120	1
-9368	-4324	14132	-165	1098	-106	-16876	1908	-7000	3052	6102	990	-18640	-1208	-3484	-1309	14557	3393	5760	13872	12592	-59	-26285	-9503	-6068	4476	408	7569	-9333	6877	-19792	-3052	-5932	1882	-15098	6043	135	135	1
-8512	-4840	13848	-873	1101	-522	-16152	2448	-5284	1865	4223	394	-17644	-676	-2476	-1001	15433	4355	1664	8916	12232	1035	-27795	-1263	-4616	248	-268	-896	-15889	8325	-14844	1552	-6640	-1096	-12909	10343	121	117	1
-8416	-5508	13720	-759	998	-345	-16708	932	-3852	-1776	4198	-14	-17524	-1108	-152	-3584	14774	3514	-2136	9892	11388	5960	-30990	9161	-5864	-1556	-2676	-2035	-20996	9057	-14532	596	-7776	-4815	-12081	10968	119	127	1
-8632	-5436	13424	-917	917	-147	-16572	76	-3304	-5660	4834	-93	-15220	-2196	1452	-5663	13941	3825	-7312	12080	12148	2997	-32768	17963	-6420	412	-4852	-4244	-26004	10417	-12392	444	-8024	-4494	-11215	9320	128	129	1
-8648	-5200	13172	-995	723	-125	-14984	-1000	-2912	-5485	4660	366	-14204	-2996	1536	-5952	12995	3252	-8604	8516	11588	-1525	-32768	24164	-9480	-740	-2844	-6777	-31288	11281	-11220	492	-7676	-6682	-11069	9047	143	145	1
-8488	-5332	13008	-748	577	-133	-14348	-1600	-2944	-2493	4398	678	-13948	-3572	1608	-5421	12174	3112	-10776	8180	11820	-1155	-32768	28309	-10984	-536	-4180	-10012	-32768	11492	-10392	-1868	-6528	-9704	-10826	8277	143	130	1
-8284	-5884	12860	-339	385	186	-15064	-1944	-3100	-2066	4754	982	-14428	-5068	2716	-5369	11675	2513	-14808	9956	14020	-3459	-32768	29627	-14412	-744	-5660	-12539	-32768	11981	-9568	-4216	-8200	-10836	-10971	7484	123	124	1
-6976	-6244	12904	-69	722	1027	-16920	-332	-2612	-5187	4967	937	-15776	-3288	2588	-7507	13268	1884	-18344	7656	16564	-6096	-32768	29574	-19184	-3000	-7092	-12247	-32768	13643	-7236	-3884	-8620	-15249	-10870	7005	122	106	1
-8680	-5824	13076	526	34	1918	-15608	-484	-3264	-2008	5658	1682	-13840	-4304	2460	-7452	15646	2366	-18568	9096	17676	-3684	-32768	28707	-21136	-3444	-6952	-9029	-32768	14079	-7168	-4300	-7096	-20513	-9416	7856	133	123	1
-8932	-5616	12980	888	-303	2468	-14284	-824	-3120	-2021	6410	1792	-13636	-3908	2012	-3812	16073	1267	-21960	9460	21080	-2693	-32768	25908	-26440	-4056	-8316	-4661	-32768	15219	-8128	-4220	-2504	-19247	-7831	7765	132	123	1
-7984	-5228	13596	944	-195	2491	-14508	580	-1756	-13	7505	1951	-15912	-3392	2316	-752	12896	1528	-29048	11724	25168	-2232	-32768	20685	-27640	-3144	-12516	-682	-32768	17366	-9840	-3284	2516	-17067	-5954	8296	120	98	1
-7840	-5344	13992	641	818	2936	-14888	576	-1900	176	7649	1961	-17964	-3460	2092	-186	11059	1946	-32768	11764	24540	277	-32768	15543	-26608	-4732	-14284	2650	-32768	19071	-14588	-2556	3968	-10514	-4130	7143	115	121	1
-8560	-4708	13960	220	2812	3439	-18376	1208	-2896	2280	9869	1952	-19096	-2700	2796	-693	11123	2222	-32768	-4808	17572	5265	-32768	15121	-28372	-8992	-17980	436	-32768	17573	-16760	8224	18212	-21	-8348	6656	112	125	1
-9140	-3660	14640	-806	5200	2997	-17796	2708	-1708	776	11863	2611	-18084	-2208	5152	-88	10403	1259	-32768	9924	-4444	8381	-32768	14331	-22832	-10744	-23616	10340	-28933	12994	-10012	5188	32767	2012	1515	8244	117	125	1
-9064	-4444	14016	-2167	8358	2486	-18856	632	-1872	1953	14006	3449	-18208	-2692	5920	-1825	8766	1457	-32768	-4184	-32768	-1554	-18851	185	-3764	-252	-24968	-1006	-9493	11077	-21160	-1984	32767	-5200	-4125	5404	123	136	1
-8184	-4760	14612	-2958	12966	3044	-19412	1864	-2224	3017	16206	3830	-19388	-1192	6044	-3533	5970	1919	-32768	356	-31512	11315	3713	-78	-6096	-11388	-24444	-2159	16092	-2289	-16752	-852	22128	3520	-3499	-633	122	127	1
-8888	-3828	14460	-3983	18793	3551	-21352	3244	-3524	1808	18420	4582	-19776	-1384	6036	-3299	5496	1945	-32768	6928	-7352	-12544	22006	5040	-14224	-4632	-25012	-9655	23063	-8779	-13004	1316	2860	4152	-487	1000	121	115	1
-8956	-5664	14336	-5455	26396	5165	-23652	3908	-1696	-2171	20845	3818	-23348	84	13808	-8070	-5668	2239	-32768	4248	24340	-7759	23024	6040	-21632	-11564	-10752	-15875	21203	-6846	-5192	-2416	-8356	-241	4817	-1583	115	110	1
-8440	-6736	15096	-7209	32767	7643	-26844	2680	4224	-8567	23796	2342	-23032	1520	32767	-3678	-27464	5177	23936	-4836	32767	-7038	22920	5392	-32768	-16420	32767	-10350	382	-8172	-1764	5180	-18488	-7539	21178	-2877	118	108	1
-7548	-10332	17068	-6805	32767	12931	-32768	-2540	10220	-14358	26459	1223	-13528	732	32767	-12150	-19218	6430	-15440	-3008	-2068	14940	31084	-4901	-14496	-11076	-15148	12292	20458	-4553	-32768	-6856	27800	-193	5588	-746	118	138	1
-11452	-10876	19052	-9679	32767	21310	-32768	-3484	9764	-20915	26989	2315	-23732	-7048	5504	-18308	-10692	5336	-15408	26184	23840	11963	18028	-9732	-30620	2100	-5828	-4283	21784	-5302	-21980	-15912	9544	6613	8180	-3796	138	145	1
-32768	-13600	26232	-9548	32767	24435	-24184	-2288	-13420	-19812	29128	3930	-22784	-11676	-5276	-18751	-11055	3517	-20604	13504	11680	-9191	16036	-5032	-28780	6164	-9224	-3086	21272	-3073	-18740	828	-11500	21143	9940	692	138	103	1
-29276	-10564	16136	-10375	32767	24304	-25972	-1908	-3476	-12863	23455	7664	-32152	-12268	-15508	-988	-14695	-975	-11072	6216	12948	108	85	-7987	-17832	-916	-8580	-9209	15416	-861	-13004	4276	-12600	18004	8752	-2270	144	139	1
-32768	-16684	32767	-13623	32767	25067	-16908	-1132	-24248	-1584	19990	7924	-31808	-2100	-5072	10935	-19728	-6290	-12212	-832	16808	-1330	3624	-2349	-16760	-2036	-9400	8066	10007	-816	-18188	8736	-11004	15503	13902	-3194	138	176	1
-21412	-15792	32767	-6443	-6926	19318	-15732	740	-18284	-5266	10112	4387	-31236	-3380	-6512	9747	-19785	-6382	-8132	9952	12172	-786	2551	-1296	-18584	1056	-7952	3741	8895	-1409	-21548	4408	-5404	1810	13436	-1715	140	172	1
-2164	-15684	32767	-3274	-29037	12690	-10748	-1276	-2244	-10078	613	1494	-31728	-3812	-7496	9077	-19241	-5975	-8464	5572	14068	454	1891	-1143	-18764	1260	-7548	1990	8504	-1603	-20000	-1500	-2844	-4118	15161	-3155	123	144	1
8480	-9404	10552	-394	-30743	8057	-6928	-3048	3920	-7144	-8103	-312	-22476	-280	-6356	2287	-18052	-7486	-7300	4972	13788	1783	1690	-417	-17048	-3480	-4572	-4626	4013	-1148	-17776	-3964	-1032	-2630	14097	-5928	127	127	1
6168	-10052	9036	-721	-27828	2499	-2260	-1760	-436	1605	-15489	-2433	-16784	-2372	-7664	2214	-15159	-8717	-6672	6984	12468	1813	1819	-326	-17132	-968	-3336	2663	4030	-59	-17360	668	-172	1978	12775	-4944	130	137	1
-36	-11452	11012	756	-28563	-4166	-2064	400	-3212	5775	-21287	-4896	-13500	-760	-8420	5100	-13302	-9616	-7160	7480	12668	1550	1769	-604	-16604	1060	-3324	6076	3777	-255	-15468	3516	1724	3310	13311	-5224	137	119	1
-5840	-11352	13196	1329	-32768	-12452	-3252	1476	-5692	5454	-27181	-5961	-11712	-840	-9744	5838	-11934	-8639	-7068	7200	12672	1150	1690	-1036	-16152	1264	-2532	3540	3756	-958	-15132	2724	3324	1831	11720	-3787	123	118	1
-8544	-10204	12764	2361	-32768	-20164	-4852	860	-5108	4523	-31944	-7149	-11176	-28	-9344	5039	-11078	-7094	-7372	6668	12480	1060	1492	-1118	-15680	-372	-2772	2026	4263	-1601	-13936	1524	3488	3210	10666	-3247	127	137	1
-9784	-8292	11832	3290	-32768	-25055	-7736	-12	-4784	5840	-32768	-8524	-10072	-404	-8968	8186	-10767	-6352	-7348	7064	12564	878	1250	-1228	-15892	-480	-3120	2860	4741	-1713	-14676	1072	2308	6973	10552	-3489	139	130	1
-13320	-8136	13516	3498	-32768	-26395	-9172	-44	-5416	9461	-32768	-9770	-8772	2216	-7968	10888	-9942	-5159	-7608	6548	12604	820	1063	-1386	-16416	-868	-3660	3641	5268	-1781	-14688	3204	2828	8323	13337	-2992	141	130	1
-19152	-8872	16828	3750	-32768	-25331	-12512	392	-5284	9631	-32768	-11338	-8248	3520	-10960	15941	-6183	-4167	-7448	6480	12808	1075	978	-1662	-16828	-1592	-2852	4450	5843	-1624	-14024	2336	4088	7459	17730	-2797	130	124	1
-22836	-8932	17380	1209	-32768	-24018	-18880	2756	-8112	9356	-32768	-12852	-6692	5216	-10072	21319	-5432	-3020	-7396	6420	12648	1229	1299	-2066	-15800	-432	-1448	4214	6594	-1386	-16596	4268	3996	5510	16969	-3974	132	101	1
-25228	-13020	19732	2786	-32768	-22173	-24508	1920	-10300	8098	-32768	-14097	-7500	7024	-5632	19423	-5064	-2047	-6772	7088	12300	527	1644	-2942	-15748	1816	-1656	1524	7942	-1784	-18988	5536	2260	792	13747	-2503	134	104	1
-29768	-12844	20248	3413	-32768	-20552	-32768	3820	-11928	6139	-32768	-15905	-8060	2292	-292	13617	-3692	-2426	-7056	7600	12748	254	1990	-3654	-16464	1752	-1836	-2816	9670	-3064	-18456	4916	3692	-4169	7256	-1133	126	127	1
-32768	-16708	19616	-790	-32768	-18315	-27848	3564	-11200	5431	-32768	-18145	-12596	-2468	-4140	12231	-340	-3980	-7268	6664	13776	472	3754	-4441	-16568	1464	-1256	-3382	9865	-3163	-16360	4024	6284	-2902	7874	-1869	118	165	1
-32768	-3260	14992	-13392	-32768	-22341	-26800	14764	-27492	-6844	-32768	-13942	-25812	-6664	15104	6529	-7982	-5286	-7404	6732	13692	1854	6464	-3507	-18488	-3412	-2248	-3882	12915	-4257	-16264	2452	5528	-873	9662	-3464	119	138	1
-32768	2432	-4672	-6953	-30621	-22139	-20136	68	-21864	-15253	-27016	-7659	-25812	-7484	19748	5700	-10028	-5422	-8084	5884	14352	3437	10428	-3220	-18548	-3036	-1940	-3823	13169	-4276	-19176	1768	6260	1642	8869	-3397	112	132	1
-32768	4652	-32344	6367	-17565	-6067	-6780	-620	-22452	-435	-8798	-4259	-15444	208	32767	-7977	-1340	-4738	-7840	6676	14412	4760	15708	-3964	-20744	-2984	-2296	-3737	16730	-5388	-20372	508	7672	3659	5601	-3511	124	127	1
-32768	14260	-32768	-13446	-1687	4566	-5052	11948	-22192	1041	10875	-2401	-16660	2460	20680	-3678	-1737	1347	-7732	6364	14680	5302	22555	-4507	-21780	-3772	-1484	-2268	19220	-5576	-21060	2280	11060	5354	-840	-3745	140	113	1
-32768	-14092	-20472	16487	23132	5318	-13380	4012	-21172	4596	23132	1798	-13788	1184	9936	-13342	-769	579	-7840	7588	14908	6328	31232	-5057	-24872	-3596	4	-68	21986	-5154	-20540	2060	19840	6089	-10897	-3370	124	126	1
13064	-4544	32767	3528	24629	-3358	-32768	7132	32767	471	14512	8149	-12256	-3852	-2696	-12266	6838	1473	-6000	8860	17556	8614	32767	-8298	-31220	-2064	5012	4895	24689	-4081	-22552	7204	32767	8935	-26912	-2318	138	132	1
-30752	16304	12568	102	32767	8513	-23556	5656	-17708	20511	23578	6779	-30776	-14404	30756	-2739	11076	-1747	-4808	13456	18020	12228	32767	-16727	-32768	2908	8728	13783	27090	-3806	-18864	3840	21636	18156	-13517	-7318	129	133	1
-17992	-4572	32767	-6538	14991	14804	-14564	10180	-5624	164	21645	4576	-16688	5568	-10860	4676	6474	6673	-13384	13704	19956	17523	32767	-25157	-32768	7276	8740	17975	22624	-1652	-17236	2312	-568	25649	-1693	-6291	107	129	1
-10000	-22344	2100	12702	15136	5969	-17132	-21252	-16724	4904	21269	-883	-12420	-6528	-14596	-5904	7896	307	-32768	19684	23928	16441	32767	-22895	-19048	2196	-17168	9373	26359	-4780	-25100	10648	-14680	21388	-8583	-895	134	119	1
-16632	-704	17824	4773	2374	7927	-14136	6008	-13176	18732	14744	4251	-11160	-8872	-9600	-3078	5615	-4027	-32768	22856	32767	8745	11853	-17119	-20872	-9448	-26016	-1108	26385	-11814	-29140	3340	-416	-9279	-20462	9265	94	137	1
-12104	2776	18052	2810	2703	4022	-17644	4984	-9992	2919	11135	4080	-20640	-1560	-7496	-3685	11980	-3167	5848	4372	32767	8565	-16385	-18393	-26480	3800	10900	14472	7917	-2912	-32768	-6248	-8292	-11080	-18328	5772	119	115	1
-9780	-2460	15220	2953	1752	2427	-19432	6900	-7724	-5636	10336	2154	-19124	-636	-4660	-4994	12066	848	7156	13180	29224	5820	-19808	-17825	-10584	2240	4548	17165	870	684	-29040	-6564	-5140	-1790	-20423	4353	103	102	1
-9764	-3216	14524	713	1033	510	-17108	444	-6156	1258	8201	1421	-18912	-2712	-3704	1077	16373	2578	9524	11532	18704	673	-26127	-12326	-8736	2044	3728	13791	-6332	4304	-22084	-3212	-4876	2732	-18201	4645	120	117	1
-9172	-3568	14200	-530	1045	-373	-16400	732	-6452	7144	5934	945	-16284	-1360	-2984	2716	16792	4973	5960	9824	15144	2286	-28922	-5754	-7396	2328	1416	10738	-14693	8045	-17372	-2092	-5652	4689	-15479	6267	125	118	1
-8104	-4540	14060	-896	1086	-554	-16552	212	-4480	6813	4902	1190	-17368	-2096	-704	3399	16802	2907	180	11972	13368	4599	-31955	1910	-7044	2000	-2064	5294	-20735	10722	-18540	1756	-8796	308	-13585	9359	115	124	1
-8380	-5332	13784	-689	854	-42	-15876	1840	-3520	-422	5403	429	-17224	-1568	892	-138	16176	2828	-2980	13340	11880	2474	-32768	10425	-8604	352	-3088	-1407	-25922	12175	-12052	-1872	-8732	-1352	-13266	9970	132	121	1
-8516	-4696	13644	-639	819	229	-16448	496	-2928	-5893	5813	214	-15564	-1968	1956	-2049	15214	1716	-6036	11652	11728	-1282	-32768	18140	-9264	-1108	-3120	-4416	-31207	13402	-11320	-508	-8160	-227	-12165	8516	152	129	1
-8788	-3848	13608	-648	955	92	-15864	-520	-2736	-3423	5685	769	-13988	-684	2340	-2135	14106	2330	-10212	11348	13620	-2775	-32768	24097	-11872	-1536	-4840	-6379	-32768	13663	-8892	-868	-7360	-4543	-11453	6986	128	132	1
-8328	-4368	13612	-781	1013	-127	-14840	-288	-2492	-619	5859	867	-14208	-1176	3008	-4146	12819	2702	-15244	10808	15716	-5118	-32768	27016	-14872	-960	-6248	-8611	-32768	14527	-8540	-2076	-8244	-7725	-11583	6920	136	125	1
-10088	-4136	14076	-1266	1409	-197	-13096	-676	-3076	-5209	9063	-953	-15796	-1484	3176	-6373	13082	2230	-18408	9348	16672	-5933	-32768	26445	-19536	-4936	-5144	-10602	-32768	13495	-6600	-3180	-9120	-13874	-12164	7036	124	117	1
-8520	-3580	14048	-807	1055	676	-14980	-608	-3576	-2735	7172	629	-14376	-4100	3632	-7364	15612	1713	-18816	10928	17420	-4591	-32768	23131	-22176	-1636	-7384	-6481	-32768	15886	-6440	-5024	-6868	-18644	-9181	6432	129	130	1
-8380	-4300	13560	-188	733	1231	-15228	-668	-2628	-3225	8057	1454	-12556	-4636	2644	-6313	18863	1818	-21132	13216	22632	-1995	-32768	19301	-26840	-5080	-10240	-2144	-32768	17409	-9216	-4824	1344	-20845	-11502	7749	126	124	1
-7968	-4668	13440	952	484	2011	-14228	-2176	-1180	668	8663	1794	-14804	-4552	284	-4421	17628	1690	-32704	14584	25624	1751	-32768	17423	-28236	-5584	-13828	2988	-32768	20100	-10044	-3728	5696	-14770	-10225	7332	120	115	1
-7896	-5588	13700	1604	1163	3377	-16272	-2520	-2508	3966	9452	1882	-18096	-5636	-828	1084	12050	541	-32680	10848	19296	5246	-32768	14212	-25128	-6688	-13852	6314	-32768	22510	-15148	6676	5888	-9600	-8403	6429	111	107	1
-9372	-3616	14288	844	2847	3707	-18000	2252	-3816	3219	10641	2027	-18840	-4296	2380	943	9265	747	-32768	6660	12020	12206	-32768	15687	-25608	-13224	-16976	14867	-32768	16959	-11928	12936	13332	7420	-3939	6969	111	121	1
-9060	-3224	14492	-516	5247	2682	-18232	2976	-2912	621	12819	2923	-17844	-2148	5832	-2623	11414	881	-32768	6216	-9116	-11631	-26753	5525	-19692	-24	-23252	1215	-25387	12703	-11840	4284	30444	-1863	1559	9441	119	141	1
-8292	-4224	14936	-1999	9265	2677	-20132	504	-1884	720	14838	3332	-19368	-992	6824	-5599	10887	1862	-32768	720	-29244	-1886	-14525	-1368	-2712	-10316	-26156	-11599	-6775	6003	-21036	-5248	32767	-13245	-4759	6627	120	133	1
-9004	-3776	14948	-3045	14746	3746	-20580	3120	-2852	439	17521	3604	-21540	88	6980	-5809	5615	1512	-32768	3676	-25368	6143	6344	4710	-7228	-15372	-24072	-8092	14827	-2984	-15936	-2152	18500	-3399	-3685	-698	126	117	1
-8220	-3544	15596	-4087	22079	4442	-22800	3652	-2128	-1198	19961	4057	-22608	-1100	9264	-6487	166	1319	-32768	4528	-6448	-12722	22589	10722	-14436	-7972	-25908	-10510	22552	-8700	-12508	1604	792	-852	1465	-323	119	116	1
-7992	-5136	15752	-5094	30812	6170	-25324	3016	-516	-3379	22324	3495	-23356	-2064	19012	-9848	-10392	2081	-26636	1216	17104	-8563	23768	7730	-17692	-8424	-13108	-20350	19303	-7927	-6824	-380	-9112	-35	5180	-2045	125	119	1
-8304	-9180	17136	-5565	32767	10030	-30548	-924	8076	-10021	25553	2195	-22904	-3120	32767	-9511	-28319	5956	31252	-32768	32767	8003	32767	3442	-29732	-17096	32116	-15960	6643	-6367	-17612	4028	1408	2097	15634	-2342	125	144	1
-9676	-9508	19468	-5828	32767	17954	-31904	-1748	9120	-10521	25855	1766	-15792	-5612	20016	-17887	-14738	4754	-32768	-1372	19264	11278	32767	-13159	-20152	-14376	-21700	-4522	26525	-7040	-23744	-10020	17340	-3140	10370	-2871	112	138	1
-18832	-9408	19700	-8513	32767	26672	-32768	-2112	2936	-22913	27656	2913	-21904	-4540	1820	-16198	-10898	4660	-15860	32767	22488	-822	16155	-8965	-22408	10656	-14260	2351	22444	-67	-22900	-15156	5244	12554	7665	-2754	140	110	1
-32768	-5536	19332	-5926	32767	24219	-22572	-4892	-15556	-17584	29846	5807	-26616	-11772	-13436	-15701	-10866	3103	-22740	-19240	32052	-5142	8470	-7174	-20040	-2628	-5064	-5597	18885	-2576	-15376	9300	-18452	29661	9914	-681	141	130	1
-32768	-17196	28912	-7048	32767	25656	-24836	-1836	-7948	-8661	21629	5876	-32768	-3788	-8636	4601	-18812	-3182	-8408	29312	6864	-1980	4062	-4754	-14440	-56	-12708	2502	16965	-2053	-11780	5240	-14192	17918	12212	-2016	147	150	1
-32768	-16236	32767	-5837	22239	24729	-22436	-2724	-12560	-6450	21594	5700	-30048	-1472	-2848	6779	-20217	-5669	-9184	5492	13088	-648	2272	-3109	-17224	-3044	-8656	6309	9421	-2509	-22364	9044	-11836	9057	15644	-2526	136	170	1
-12968	-10484	32767	-9954	-17311	17145	-13304	1976	-5252	-7755	5956	2041	-30920	-3928	-7480	4652	-19162	-5715	-6556	8780	12468	-719	2391	-2820	-19412	1128	-8656	-3332	7990	-2563	-21332	1144	-5000	-4627	15399	-2552	123	165	1
7188	-12988	17268	-8675	-32002	8636	-9560	-1556	4296	-13230	-2141	-744	-27252	-1324	-5872	3447	-18690	-6350	-9212	4380	14144	641	1653	-1952	-18340	-5872	-5300	-6797	4903	-2564	-19428	-2372	-1968	-7379	15941	-5080	146	139	1
8752	-13496	9168	-1994	-26093	2214	-4872	-3372	1568	-2562	-11088	-3384	-19872	1496	-6492	-167	-17222	-7608	-7228	6296	13116	1294	1457	-1100	-17104	-2556	-3584	-2751	4068	-1231	-17464	-1568	-332	-4067	15433	-5571	127	122	1
2232	-11608	10936	-166	-25074	-6129	-2880	1280	-1956	5749	-17964	-6040	-17024	-3888	-8196	2095	-14540	-10396	-7188	7744	12524	950	1576	-1319	-16792	848	-3040	2986	4461	-812	-15556	3044	768	641	13208	-5413	128	96	1
-3264	-9988	13752	-1951	-28802	-15592	-4416	1956	-4476	5760	-23920	-6987	-13704	148	-8260	2821	-13942	-10038	-6660	7864	12392	561	1688	-1994	-16844	2024	-2860	2229	4081	-1359	-16372	4508	2336	-1934	12256	-3268	131	114	1
-7664	-8752	14564	-1112	-32768	-22866	-4552	1448	-5080	5134	-29216	-8587	-12256	-168	-9980	2929	-12347	-8364	-7396	7168	12572	357	1769	-2755	-16452	4	-2392	-655	4174	-2139	-15120	832	4264	-2228	11248	-3211	130	166	1
-9416	-5756	13916	353	-32768	-27279	-6376	1268	-4808	5444	-32768	-9972	-11196	-1448	-9828	4306	-11429	-7336	-7716	6396	12632	-145	1545	-3109	-15780	-1272	-2172	113	4739	-1905	-13984	-336	3024	1687	11453	-2390	131	110	1
-13232	-4104	14920	617	-32768	-28205	-7884	636	-5276	8714	-32768	-11269	-9568	908	-8768	7444	-10677	-6298	-7600	6584	12540	-273	1521	-3351	-16052	-564	-3404	1224	5406	-1818	-12056	800	5224	6468	15674	-1702	154	154	1
-17220	-5064	16104	2039	-32768	-25656	-11616	2152	-5668	10870	-32768	-12348	-8060	3448	-8684	11676	-10146	-4661	-7052	7636	11444	-543	1569	-3606	-17916	4088	-4572	2998	6656	-887	-17236	2808	4984	6820	19707	-2914	149	107	1
-21152	-3776	17988	249	-32768	-22524	-15724	3236	-4848	8303	-32768	-12867	-5996	3884	-11680	16551	-5405	-2975	-8080	6240	13240	194	1375	-3104	-14532	-2288	-2160	115	7929	-2325	-18668	3676	-2036	7203	14208	-4775	139	114	1
-23016	-7588	19320	89	-32768	-20547	-20404	3140	-9140	7650	-32768	-13604	-5456	5960	-9324	21318	-4162	-1642	-8444	5196	13196	954	2728	-2784	-16880	-3676	-3108	-970	8075	-2557	-18736	492	1980	1100	9998	-2986	125	124	1
-27732	-10520	23480	2999	-32768	-19552	-28332	3520	-10816	5842	-32768	-14825	-6204	4484	-5048	17993	-2338	-1211	-8408	5368	12836	1534	4011	-2143	-16012	-2748	-3040	-492	9163	-2618	-15908	528	3792	-2049	7081	-2228	121	117	1
-32768	-13480	23556	2399	-32768	-18759	-32768	6744	-12056	9090	-32768	-16258	-9532	-2224	-2696	14942	-200	-3377	-7976	6512	13240	2214	5320	-2184	-17016	-268	-3364	-1397	10680	-2982	-14408	4340	6200	-911	9469	-2498	119	125	1
-32768	-6640	20360	-8083	-32768	-24353	-28488	7256	-24076	-4957	-32768	-11394	-17716	-3056	-384	10099	469	-6356	-7972	6764	13120	2486	7725	-2972	-18912	-1124	-2560	-3042	12286	-3708	-16768	4852	6460	631	12689	-2711	121	134	1
-32768	-764	848	-1664	-32768	-21998	-24376	4884	-22004	-600	-32768	-9393	-28088	-8028	32767	4540	-18733	-6438	-7600	6816	14140	3261	12045	-3521	-20924	-2200	-2524	-2750	13954	-4543	-20272	2996	6108	1592	10727	-2823	123	138	1
-32768	484	-26668	648	-22577	-15107	-8532	4456	-25632	-3335	-16948	-3765	-5744	7016	32767	-2495	-3946	-4520	-8220	5440	14180	3586	17490	-4117	-20680	-4700	-852	-2593	15987	-5341	-20480	1608	8808	2647	6503	-3725	128	130	1
-32768	16344	-32768	-15004	-6477	-1378	-3792	9140	-24272	-4718	5512	-3866	-8932	5560	32767	-1327	-3925	-3651	-7828	5656	14488	3420	23910	-3650	-21116	-3652	-144	-1890	18775	-5935	-19316	1588	11800	4783	261	-4859	141	126	1
-32768	-12396	-28460	2119	19051	3368	-4676	9376	-23860	-5162	8700	-3151	-13536	1272	11840	-15186	509	1717	-7224	8248	14528	4185	32337	-4764	-24768	-968	688	-1540	21542	-5620	-21920	3408	17520	5285	-7362	-3652	134	117	1
-15424	3280	32628	7392	31152	6025	-24108	1480	20936	-3349	20925	7685	-8784	-4664	-4136	-15329	5657	-564	-7676	9912	16192	5656	32767	-8675	-27892	-2132	3200	2853	24010	-4530	-21720	6268	32767	3039	-25781	-2199	127	124	1
-16436	17060	10380	-3807	32767	6780	-28588	5860	-7744	26663	22290	7073	-30888	-10752	25600	1387	-1438	2703	-4540	14144	16980	9401	32767	-16825	-32768	2820	10056	13747	26446	-3591	-13116	1904	18920	15732	-12671	-6941	127	137	1
-32768	-8116	32767	-1389	16820	11638	-16324	9312	-12764	2161	24426	5399	-9080	2760	-8596	8362	10550	7327	-13544	11132	18988	14435	32767	-26834	-32768	6412	6452	20740	25542	-2717	-21972	3900	-1444	25801	-3033	-5134	118	117	1
700	-21392	3712	10448	12757	5827	-24440	-17532	-9332	-416	24028	552	-16208	2388	-23492	432	11730	32	-32768	15220	28096	15298	32767	-27330	-21848	2936	-18340	13224	25663	-2648	-27428	10132	-12688	22844	-5469	-1978	128	125	1
-20892	3656	17684	3985	2189	9225	-7604	936	-16464	23073	17338	4359	-12752	-9040	-14180	-1935	-1163	-5795	-32768	25192	32767	10323	26819	-17578	-22496	-9716	-29028	-387	27921	-12057	-28780	3564	-1332	-8020	-19605	9305	109	140	1
-8384	-2316	15804	3570	2237	5939	-15972	5572	-11456	5537	12742	3843	-14040	-2860	-8344	-4061	11951	-2697	-3904	14068	32767	5032	-8672	-12766	-31484	-4904	5644	5579	9908	-6309	-32768	-6192	-7408	-12572	-17262	6860	113	120	1
-10792	-2596	14432	4119	944	3992	-21856	7996	-9696	-3988	11288	3133	-23700	-2716	-7456	-4768	11557	-1288	3888	12636	27476	7039	-13621	-14983	-12284	6288	3868	16432	2899	-451	-30332	-7700	-4748	-3940	-21066	5139	103	86	1
-10324	-2436	14764	2454	762	1958	-17476	140	-7536	3112	9276	2424	-20988	-1684	-3388	1343	15524	1667	8476	12352	20792	1057	-22906	-10413	-8724	1724	3804	10653	-3533	2468	-23532	-6096	-3800	1121	-18187	4853	133	112	1
-9268	-2276	14580	601	826	571	-16632	2704	-6720	8514	6989	1806	-17712	1288	-3272	4497	17597	5040	6976	9312	16036	-1117	-26207	-5030	-7384	1628	1980	6330	-12334	7517	-20424	-1344	-6404	3195	-15577	7534	117	100	1
-8152	-4428	14088	-99	981	255	-16544	2564	-6340	8938	6605	1683	-17048	164	-2476	3507	17187	4220	2204	8152	13992	2854	-29541	924	-6356	356	-372	4060	-18844	9646	-17148	-968	-7932	1203	-14421	8185	136	112	1
-8228	-4600	14032	-367	1336	581	-16260	2308	-4396	3928	5406	384	-17992	-652	1004	328	16342	2474	-4584	10700	14620	4157	-32768	7835	-6964	-520	-4344	1062	-23855	11566	-13220	-956	-8896	-809	-13933	9372	137	124	1
-8296	-4752	13856	-313	1631	1125	-16872	584	-2692	-4984	6039	-189	-16328	-2252	1064	-3804	15141	1468	-7160	10428	13060	919	-32768	15202	-8444	-1240	-3364	-1560	-29224	12998	-13020	-148	-7988	2164	-11117	8600	142	125	1
-8432	-3584	14096	-284	2184	1423	-15880	-1612	-3384	-2057	5632	364	-14276	-2380	1284	-2675	13673	1950	-8620	8344	12588	-1131	-32768	20450	-10492	-1548	-3208	-3480	-32768	13599	-11476	-472	-8408	-4648	-10952	7367	133	149	1
-8956	-4024	13560	-736	2071	1597	-14524	224	-4080	924	5583	212	-14768	-1548	1412	-2402	12663	2020	-12416	9452	14000	-2867	-32768	22972	-13512	-1420	-5268	-5438	-32768	14402	-9324	-2324	-9376	-7676	-11379	6749	141	130	1
-9080	-3888	13392	-772	2008	1329	-15648	1152	-4052	-1512	6052	401	-16064	-1440	3484	-4819	12795	1290	-13236	9480	14788	-3754	-32768	23407	-16336	-868	-5824	-8353	-32768	14355	-6760	-3192	-10328	-11095	-11656	6366	130	124	1
-8948	-2696	13872	-729	2075	1209	-15124	448	-4520	-3640	6585	456	-13764	-2160	6112	-5908	17122	1466	-18260	10896	17776	-4831	-32768	25135	-19344	-3412	-6736	-7062	-32768	16048	-5532	-3160	-9892	-16924	-10679	6904	125	122	1
-9052	-3648	13336	-616	1988	827	-15000	-144	-3548	-2821	7441	995	-14164	-4396	836	-8097	20316	2623	-21216	10084	21956	-3287	-32768	25723	-24520	-4780	-8832	-5133	-32768	15621	-6412	-2668	-4292	-18740	-10415	7530	125	124	1
-9104	-4364	13264	-314	1590	885	-13380	-1228	-3592	-379	8155	1281	-14876	-4840	-1848	-3170	16872	2345	-28008	14728	23704	-2858	-32768	22635	-27784	-5360	-13348	768	-32768	17553	-7380	-3000	856	-20989	-9190	8425	122	116	1
-8872	-4412	13268	-454	1980	1286	-15612	-360	-3992	1605	8740	1259	-16488	-3532	-820	650	11286	1591	-32768	14316	22732	-4166	-32768	20134	-24324	-3212	-16424	756	-32768	19286	-11404	-1760	-212	-15767	-5228	7247	124	117	1
-8976	-3964	13900	-867	2974	1628	-17084	1820	-3844	447	10046	1197	-18260	-2000	2824	-882	9102	2050	-32768	7260	14296	-1983	-32768	18497	-26844	-5668	-16772	-4803	-32768	17744	-16880	5704	14784	-6509	-8303	5388	109	112	1
-8860	-3652	14188	-1297	5285	1919	-18552	1044	-2936	-1099	11914	1413	-17364	-3344	5716	-3948	9652	2243	-32768	7832	-2300	1292	-31291	19258	-29240	-12484	-24060	-338	-30357	11864	-8032	9256	30772	-6936	-885	7973	114	128	1
-8680	-4408	14456	-1846	8829	2281	-19048	80	-2184	-895	14151	2409	-18332	-4288	7888	-3389	10206	1540	-32768	1796	-30824	-9068	-16208	7961	-3740	1196	-31208	-10579	-13449	8429	-21184	-4288	32767	-11373	-4769	7333	119	138	1
-8428	-4272	14860	-2518	14056	3491	-20024	2376	-2240	-312	16643	2568	-19920	448	8604	-6107	7261	1269	-32768	-4676	-32592	10720	2010	1820	-5164	-14228	-26000	-9723	12893	-2087	-18028	-3092	22616	-3719	-4650	-1497	117	127	1
-8484	-3688	15216	-3092	20571	3995	-21984	2964	-1912	-2195	19386	3046	-21904	-1936	10228	-7899	1627	2277	-32768	8320	-9988	-10220	21613	3316	-14364	-4336	-27960	-5824	24283	-8483	-13100	-344	3308	4000	-412	-1171	120	115	1
-8572	-5256	15368	-3916	29170	5748	-25152	2696	528	-4287	22283	2605	-23848	-1936	17756	-10464	-7257	1748	-21132	6732	19196	-4704	19863	2547	-14136	-8392	-19700	-10454	21192	-7113	-4220	-2432	-10168	4988	4650	-2032	111	112	1
-7496	-7508	15640	-3783	32767	9792	-30320	320	5532	-9552	25532	1079	-23028	-1984	32767	-12927	-27585	5891	27204	-30828	32767	10084	32767	4096	-29900	-21484	32767	-9249	7714	-6178	-11540	4068	172	-186	16520	-3759	117	126	1
-10760	-10292	18968	-5307	32767	16823	-32768	-2812	10536	-18834	27144	337	-15652	-8320	22236	-19229	-14031	4980	-32768	4688	21624	10742	32767	-9706	-20224	-7388	-22136	-6847	24604	-6621	-30320	-8908	21480	-3779	8571	-2971	136	143	1
-16740	-11096	19492	-7322	32767	26456	-32768	-4348	4428	-24638	28152	1494	-21392	-4400	4816	-18214	-10753	4510	-11612	32767	29044	-560	16296	-10339	-23884	8988	-13300	-2518	22076	-1179	-23560	-14016	5324	8355	6710	-551	137	148	1
-32768	-5700	19856	-4426	32767	26858	-23476	-3600	-13868	-20363	29583	3589	-26200	-12588	-10840	-15043	-11071	3041	-17260	-20416	25976	-2645	5325	-7529	-20044	-5156	-6816	-10093	19227	-3015	-16040	4840	-21004	29253	9669	-1079	142	116	1
-32768	-14588	26824	-9676	32767	24586	-26044	-2452	-3312	-11178	22637	5653	-32768	-3352	-9860	4691	-17975	-3336	-8968	24980	6468	-2649	3500	-6551	-12072	-812	-14724	3152	16710	-1459	-12348	8084	-14404	17597	11869	-578	138	171	1
-32768	-14208	32767	-9282	26977	25964	-13812	-2164	-27784	-3457	18557	3489	-29416	1812	-1348	6398	-20920	-5228	-6208	6280	13800	-2602	1637	-4291	-18084	-2904	-7904	7431	9766	-2182	-21520	10420	-11144	7137	14950	-1117	147	189	1
-15068	-10200	32767	-11536	-17305	18472	-14048	2888	-7184	-9936	6337	955	-31996	-2488	-6796	2415	-19665	-5394	-9600	3744	14528	-2469	1603	-3372	-19600	360	-7720	-2830	7763	-2938	-22344	2140	-3384	-6166	15729	-1824	130	164	1
6528	-14128	19432	-9450	-32545	8433	-10464	-1000	5176	-14686	-2016	-2308	-28484	1332	-5536	2050	-19679	-6763	-8940	4044	14784	-2415	1337	-3175	-17924	-6296	-4584	-10094	5076	-3223	-19208	-2968	-1656	-7346	16170	-4742	132	139	1
8628	-13656	9464	-2853	-25830	426	-10268	-1348	5268	-13933	-3699	-2765	-21272	976	-7088	-3086	-18055	-9126	-6732	5052	13900	909	2089	-1046	-17008	-3804	-3952	-5418	3697	-1419	-16920	-2208	92	-4365	14421	-5083	126	125	1
1972	-10564	11708	-1647	-24526	-8976	-3356	1496	-1804	6477	-17992	-7059	-15888	-2448	-7400	832	-15946	-11227	-6820	6516	13068	1322	2150	-1413	-16784	-492	-3324	1160	4443	-593	-16916	1460	796	-1484	13757	-4987	128	109	1
-3724	-9344	14604	-2080	-28523	-18446	-4400	2280	-4200	7044	-24435	-7959	-13836	72	-8448	2707	-13717	-10986	-6816	7392	13008	692	1862	-2371	-17096	1348	-2724	1215	4415	-1003	-15996	2388	1892	-364	13948	-4244	126	83	1
-8604	-7112	16012	-535	-32768	-25104	-5280	2484	-5520	6707	-30086	-9374	-13340	-540	-10160	3128	-13042	-10089	-7704	6480	12620	-65	1643	-2993	-16436	120	-3948	-2449	4329	-1632	-15760	3212	2140	-1188	13663	-3860	127	127	1
-11728	-4260	15484	962	-32768	-28662	-6264	1920	-5156	6810	-32768	-10536	-10520	524	-10296	4617	-11661	-8465	-7832	5568	12920	244	1759	-2989	-16240	-2452	-3132	-1509	4533	-1777	-14924	532	1440	-2372	9929	-2668	139	122	1
-13468	-2544	15112	1094	-32768	-28487	-7296	2036	-4568	10338	-32768	-11772	-9040	1840	-9388	7376	-10804	-6338	-7652	5900	12980	792	1624	-3004	-16748	-3124	-3804	1972	5324	-1135	-13832	-1352	4920	5795	14664	-1668	148	132	1
-17024	-2540	16380	364	-32768	-25636	-10720	3012	-5020	11319	-32768	-12803	-7808	4020	-10612	12282	-8609	-3617	-8008	5736	12816	964	1657	-3291	-17060	-2084	-3920	3998	5736	-572	-15560	1544	5616	7755	21325	-3029	139	124	1
-21124	-4756	17632	562	-32768	-22052	-15392	3300	-5392	9092	-32768	-13604	-5296	4960	-12824	18262	-4677	-1599	-8012	5424	12832	890	2097	-2986	-15612	-1932	-2260	3084	6564	-1103	-20144	3292	-2776	8748	16228	-4125	134	120	1
-23564	-6152	20860	1960	-32768	-20260	-22620	4044	-10096	8613	-32768	-14007	-4432	6348	-9480	22656	-2715	-706	-7924	5268	13536	1347	3367	-3005	-15856	-2176	-2396	349	7510	-1868	-18808	2620	2720	968	8922	-2588	124	113	1
-31072	-9964	23624	909	-32768	-18970	-32136	5064	-12048	5274	-32768	-15026	-5644	4488	-5060	18169	-928	-1018	-8048	4916	13060	1814	4496	-2590	-16284	-2968	-2204	-1217	8852	-2462	-15488	2208	4896	-2878	7065	-1809	123	115	1
-32768	12	23776	-3448	-32768	-21052	-32192	6872	-15204	1441	-32768	-13308	-12260	-2680	-844	16159	-1501	-4998	-7752	6084	13228	2225	6293	-2472	-17656	-1088	-2268	-1313	10378	-2746	-14992	4224	7584	-1797	9987	-2545	114	128	1
-32768	-9552	15656	-2822	-32768	-17739	-28768	3144	-24856	-4939	-32768	-12797	-24740	-5604	11932	8528	-7392	-7792	-7732	5832	13796	2557	9087	-3155	-18348	-1164	-1312	-2086	12412	-3830	-17464	4396	8188	928	11601	-3388	121	139	1
-32768	3132	-7348	550	-31896	-15947	-21692	4008	-25740	-655	-30486	-6952	-18240	-5324	32767	1281	-13825	-4116	-7692	6716	14200	2790	13444	-4258	-20668	-1436	-1504	-2573	14919	-4781	-20036	3224	8012	2081	9577	-3240	118	138	1
-32768	3780	-32520	-37	-20377	-7149	-4512	4676	-27136	-2716	-11291	-4609	-12300	5516	32767	-1897	-4143	-2321	-8104	5776	14300	2097	18480	-5159	-20564	-3676	-800	-2652	17220	-5605	-19700	2120	9612	3520	5471	-3745	132	127	1
-32768	14964	-32768	-13671	-2256	-502	-6144	9536	-23260	-4229	10191	-1720	-17044	3896	22180	-6742	-10	3487	-8216	5944	14684	1464	25045	-5451	-21596	-2568	-528	-2792	19538	-6118	-20268	2524	12432	3979	-522	-3970	133	121	1
-32768	-7036	-20512	9620	22636	4776	-11876	2524	-23068	-1541	22838	2782	-13212	2796	8720	-16863	616	2626	-7976	8656	14672	1149	32767	-8053	-24316	-1184	1860	-1487	22541	-5458	-22904	2492	20552	3944	-10778	-3278	145	119	1
13424	40	32767	-4723	25106	2107	-32768	9740	32767	-6781	15935	7407	-12096	-1640	1276	-13906	6016	3054	-6764	7972	18008	3432	32767	-12645	-31172	-2072	4800	4343	25310	-4503	-21632	8524	32767	11387	-29117	-1926	113	134	1
-32768	7568	12876	-8234	32767	7332	-22472	14720	-26796	10979	25201	5597	-15004	2112	14024	-722	17273	2561	-5860	9672	18764	3909	32767	-13507	-32768	2468	10060	14839	25294	-2724	-19220	720	18108	17720	-10896	-6991	108	132	1
-32768	-32768	18720	2765	8721	6622	-18192	-8944	-19372	-11535	25096	-273	-23900	2108	-8296	-5334	4600	3196	-23824	11704	21904	9495	32767	-29610	-30108	6196	1068	21548	24100	-1641	-19468	1108	-4140	27080	-2250	-5495	119	125	1
-10408	5256	19516	9539	11406	4776	-16744	-6772	-9892	8062	20851	1100	-18724	-4016	-12004	-13828	3331	-1056	-32768	13940	19164	5606	32767	-25257	-16804	-288	-19624	11223	26642	-3806	-25872	8592	-12744	18296	-9803	-311	108	121	1
-11032	-7820	14516	2181	3625	1442	-10416	9220	-12824	8286	13889	4065	-8356	-5480	-13624	-10237	6543	2786	-32768	13692	19652	5115	32767	-25277	-24328	-14216	-20096	7566	24348	-9963	-31996	-632	-3704	-5686	-18675	7004	71	124	1
-9332	-5880	14692	804	2606	1135	-19240	1468	-9628	-5565	10422	2785	-25712	-6220	-11900	-6950	12112	1416	9236	3688	26792	12560	-16597	-20329	-24192	7056	10016	21408	8298	-233	-32768	-6676	-8476	-3625	-18799	4986	138	108	1
-8880	-4816	14628	-167	1896	652	-20320	-1204	-7000	-2069	8602	2419	-20548	-5288	-4588	-26	13790	1739	3064	15536	24932	7768	-17023	-17785	-10944	4904	2156	18274	873	1934	-26748	-3920	-6060	2785	-19914	3444	111	114	1
-9712	-3748	14676	-592	1310	-128	-16548	2608	-7044	1918	6270	1857	-17540	-2232	-3072	3276	15932	4204	6472	13956	16292	1910	-21143	-9783	-8680	1456	1364	9206	-5911	5540	-23116	1704	-5816	1791	-17086	6902	119	115	1
-8740	-4936	14272	-1428	959	-984	-16764	1508	-5556	2563	4045	1738	-16524	32	-2212	4065	16465	5239	3036	11912	13340	1657	-23507	-190	-7120	1300	-76	3712	-13723	7515	-19296	116	-6616	-1850	-14000	8795	126	118	1
-8072	-5456	13844	-1920	1155	-1272	-17348	1260	-4100	-1665	3431	1244	-18140	-484	-132	60	15777	5322	-1220	12160	12372	2411	-26383	9734	-6180	200	-2864	-2719	-19669	9110	-17784	396	-8776	-3099	-12999	10760	121	104	1
-7648	-6020	13636	-2089	1521	-847	-16832	-236	-2940	-6639	3765	572	-16480	-2036	1732	-2594	15227	4465	-4724	11176	11696	-595	-29794	19304	-7332	-764	-3736	-7520	-24869	10152	-12504	-1000	-7816	-4420	-12344	11310	131	120	1
-8016	-5720	13204	-2258	1581	-557	-16292	-668	-2672	-7186	4041	984	-15116	-2872	1220	-3221	14655	3749	-7436	8632	12040	-3114	-31635	26670	-8216	-780	-3416	-10412	-30267	10434	-11108	368	-7212	-4101	-10781	10714	146	132	1
-8120	-5560	12756	-1958	1455	-275	-14920	-608	-2652	-5648	4260	1532	-14072	-1560	2476	-4126	12784	4410	-11620	9348	13556	-5380	-32768	30150	-10796	-36	-5820	-13167	-32768	10586	-10824	-124	-7140	-9711	-11269	9958	141	142	1
-7564	-6476	12612	-1009	1632	197	-14980	-1060	-2452	-5348	5008	1454	-14420	-2500	4072	-6240	11593	4084	-11696	9200	14000	-6078	-32768	30344	-14332	-168	-5444	-14954	-32768	10436	-10672	-2184	-7756	-12523	-11862	9914	130	135	1
-8820	-2856	12860	-1017	1717	15	-12028	-3704	-7856	-8057	7167	2019	-14524	-2904	4668	-9036	14198	4583	-14900	8088	12424	-9256	-32768	27491	-19904	-4088	-3160	-14806	-32768	9271	-9388	-2856	-9384	-17655	-12319	9266	122	126	1
-8560	-5256	13660	1001	2048	1992	-14836	-4808	-2908	-2024	6851	2126	-14348	-6592	2820	-8124	16771	3306	-17700	9984	14572	-5785	-31692	24060	-22200	-2732	-7168	-9327	-32768	12440	-8196	-4548	-4232	-20648	-12353	8860	122	101	1
-8432	-6676	12840	1337	1327	2988	-13984	-2764	-2292	671	7849	3426	-14880	-7156	-480	-3275	16787	1557	-25008	12548	21232	-1519	-29277	21386	-25280	-3492	-12924	-4322	-32768	13923	-9088	-4232	3652	-23032	-14638	9715	127	124	1
-8916	-5936	13192	745	998	3516	-14308	-624	-2648	3939	8523	3900	-15236	-4264	624	1403	12212	962	-30224	14776	19280	432	-32256	17414	-26236	-2784	-13764	369	-32768	16568	-11664	-3108	8876	-21577	-14610	9304	124	121	1
-7348	-5640	13612	660	1644	4514	-17036	732	-2252	5132	8980	3281	-16816	-1324	1044	2394	10737	1448	-28548	9780	13300	5603	-30332	13363	-25048	-3068	-14716	5818	-32768	18625	-12828	-2668	9528	-19949	-14242	8764	118	125	1
-8232	-5408	13824	993	3110	5022	-18564	1300	-3324	6248	10202	3272	-17856	-2104	1560	2044	12100	1525	-32768	1756	14840	8029	-32575	9467	-23752	-5960	-19092	6262	-28591	17033	-10240	3000	11240	5571	-4840	1592	112	113	1
-9376	-4468	14500	44	5699	4198	-18296	2688	-3088	5856	11295	3844	-18636	-2224	3696	658	13049	1044	-32768	3544	4596	7074	-32768	4586	-19592	-7760	-18840	11597	-24184	14909	-9784	3816	14984	8432	1883	5341	121	130	1
-9592	-4180	14416	-1203	8860	3532	-18948	1980	-2524	4499	13316	4417	-19084	-1024	6112	-186	10513	1424	-32768	2320	-9636	1065	-26701	33	-14208	-6436	-19668	10487	-16028	10735	-15576	2780	17924	4931	4459	6982	123	139	1
-8300	-5652	14144	-1976	13941	4121	-21000	1220	-1316	3307	15794	4557	-21396	-312	7460	-2699	6428	1552	-32768	1976	-22392	226	-12707	580	-9472	-5684	-19984	-583	-3673	5684	-16424	1648	20924	1717	3057	6222	122	123	1
-9176	-4060	14848	-3202	19023	4882	-20764	3996	-976	1375	18410	5022	-21264	224	9852	-4782	2404	1248	-32768	500	-19508	234	4328	4916	-6780	-12420	-23092	-9504	9500	-782	-13640	124	18232	-2827	-873	3242	124	122	1
-8688	-4736	14812	-4072	25536	5345	-22376	4344	56	-1252	21068	5045	-21444	-4	13968	-7345	-4017	2360	-32768	-1172	-10592	-5091	14278	8714	-9264	-10184	-24648	-13403	19846	-5635	-9332	2052	6992	395	-968	-1654	123	125	1
-9108	-5456	15164	-6425	32767	6545	-22932	4324	592	-1383	21490	4958	-23236	-292	29744	-3113	-21647	3887	-17444	-4760	2636	-8486	22121	5897	-15464	-8780	-18504	-16882	23940	-8041	680	3400	-1664	-6562	18930	-488	127	122	1
-9008	-12072	17292	-9506	32767	9760	-32768	488	9924	-12174	26691	2644	-11404	6772	20972	-13709	-17705	8779	-19460	-6384	15312	-9425	22226	6856	-28172	-7668	32767	-12547	3654	-8855	-8612	6728	-15664	13780	24585	-7675	120	96	1
-12316	-8484	18424	-14617	32767	15524	-32768	2276	10368	-23137	29413	2029	-14408	-292	13352	-18324	-12631	6783	-32628	13920	-1332	6049	32767	-11863	-19268	-8812	-24896	21279	22276	-129	-32768	1136	25424	-23480	5531	13954	105	123	1
-32768	-13884	28768	-17795	32767	17957	-32768	-4448	-13316	-23910	31862	5084	-26320	-16092	-9108	-26556	-10653	5632	-32768	23604	5208	-305	32767	-12809	-29184	12952	-10180	-23611	22805	-3474	-17696	-22820	8828	-45	8404	-2951	138	139	1
-29248	-13620	21548	-13755	32767	24074	-30252	-6592	-3500	-11363	23244	9963	-32768	-12472	-11444	-1365	-16362	-1909	-10904	4464	17972	244	4205	-5150	-18456	-30592	-19656	-2994	15503	-7085	-10460	-10904	-15188	25866	4377	1245	150	165	1
-32768	-16480	29568	-14415	32767	24724	-17168	252	-18408	1526	18155	10067	-31120	-3968	-9092	8157	-17541	-5083	-12856	8560	11852	1447	4277	-362	-12180	-3204	-12780	18693	17668	2669	-17056	6592	-18168	30477	11169	-8434	149	163	1
-25144	-26132	32767	-10290	-1242	14930	-13628	1400	-23112	-789	12098	7066	-31560	-6816	-6240	14987	-21855	-7690	-5248	8780	13348	940	3592	-531	-20572	10724	-11248	16443	10896	1154	-23180	15092	-12620	14225	13789	-2748	138	166	1
-8120	-17012	32767	6176	-29636	10815	-9772	-4656	-2228	-6474	-672	3668	-32768	-2372	-8556	12563	-17019	-6753	-9452	5872	13772	721	2872	-1523	-20060	-208	-9260	-6874	5987	-3292	-22752	2924	-7460	-5356	16226	-2119	124	152	1
6568	-7892	14420	7188	-32768	7176	-7688	-3080	2756	-1440	-10413	2046	-25348	-248	-9544	4612	-16128	-8284	-8024	4568	13944	2075	2593	-708	-18204	-6128	-5900	-8386	3424	-2464	-18380	-2332	-1648	-6164	16422	-4545	135	139	1
4412	-8404	11796	1924	-32768	2883	-3452	-1080	-1972	5012	-18980	523	-18880	-1264	-8864	3136	-17150	-9792	-7492	5608	13516	2664	2829	-212	-16920	-3404	-3200	3168	3167	340	-18360	-2568	640	503	15852	-6856	128	111	1
-1908	-12264	12260	3319	-32768	-1264	-1728	-724	-3984	4217	-24883	-2528	-13620	-1468	-8952	6115	-13843	-9877	-7156	6788	13208	2710	3213	-364	-17580	636	-3452	7715	3906	401	-16316	3108	1664	4683	13177	-5565	126	125	1
-6228	-12276	12320	4461	-32768	-6809	-3676	832	-5620	2088	-30638	-4786	-11040	352	-9824	7086	-12336	-9936	-6764	7156	12452	2481	3137	-774	-16532	1844	-2632	4962	3697	-228	-15248	3576	3020	2867	11389	-4582	119	110	1
-8640	-10680	10628	2468	-32768	-12756	-5452	384	-6012	725	-32768	-6480	-10660	-692	-9868	9316	-10037	-9050	-7904	6720	12580	2480	3193	-1359	-15772	492	-3188	3415	3692	-726	-14564	2160	3956	1981	10480	-3942	127	133	1
-11152	-12272	9968	1777	-32768	-16387	-7364	-764	-5744	1112	-32768	-9327	-9808	740	-10392	10564	-9664	-7235	-8036	6044	12336	2187	3079	-1046	-15840	-1468	-3284	5026	4438	-1026	-14568	1940	3864	5437	12278	-3275	142	127	1
-15652	-13012	11516	3005	-32768	-18163	-9648	-1308	-5036	4304	-32768	-11919	-8552	4124	-10284	10638	-8768	-5077	-8196	6560	12224	2103	3167	-727	-16192	-808	-3092	6122	4975	-1225	-14160	2472	3940	8998	17199	-2723	141	142	1
-20300	-12328	13120	-177	-32768	-19668	-13636	1336	-7512	5417	-32768	-14678	-7352	6376	-10232	15612	-9314	-4098	-7812	6560	12248	1984	3174	-918	-15928	572	-2824	3884	5426	-1704	-15048	3416	3324	8186	17415	-3771	140	121	1
-21444	-15676	14204	-87	-32768	-21988	-20212	424	-8660	8371	-32768	-16476	-4736	6776	-8284	20620	-8205	-2130	-7776	7292	11884	1590	3064	-1424	-14884	1172	-2748	1879	6645	-2162	-17076	5408	248	4757	13816	-4222	132	117	1
-24576	-15648	18124	559	-32768	-25015	-25340	3180	-10412	10360	-32768	-18266	-6876	6396	-3796	20683	-4971	-853	-7916	7084	11996	1196	2878	-2060	-15364	420	-3088	394	7971	-2329	-16368	3900	1916	19	10547	-2966	125	113	1
-32660	-15064	23008	-1655	-32768	-27369	-26568	3316	-11168	9989	-32768	-18513	-8904	2700	-848	17172	-1189	-2923	-8308	6688	12044	951	2909	-2545	-16092	-84	-2484	-264	8997	-2767	-14732	4304	3988	-1250	9462	-2147	124	124	1
-32768	-17552	22032	224	-32768	-27530	-29264	660	-12988	9593	-32768	-20203	-9476	-3636	-6960	9418	4057	-5422	-7860	7200	13128	1225	4049	-2910	-17248	-64	-2724	-1314	10755	-3205	-15832	5128	7452	147	11657	-2916	129	127	1
-32768	788	17396	-12118	-32768	-32206	-29148	17248	-27440	-3533	-32768	-13089	-29684	-12100	25876	4341	-13211	-8409	-7632	7288	13204	2093	6579	-3495	-19496	-288	-1112	-2368	12958	-4252	-18184	4740	6512	2311	10599	-2979	123	124	1
-32768	-3528	-6704	-2883	-29315	-30384	-15736	-2628	-21652	-9426	-25375	-5684	-9692	656	32767	-4155	-5459	-9630	-7996	7012	13924	3073	10710	-4213	-20440	-1428	-2028	-3334	15332	-5418	-20196	3172	7260	3099	9395	-2671	116	135	1
-32768	18840	-32768	805	-14517	-1288	-4628	5912	-23420	147	-3797	-7639	-18204	2056	32767	-2048	-6438	-4979	-8328	5628	14232	4032	16381	-4677	-20512	-4736	-1344	-2848	17353	-6028	-20280	2420	7384	3438	8772	-2875	121	123	1
-32768	-476	-27976	-15563	6392	10202	-10596	5720	-22648	-7419	16134	-2764	-16664	1164	18336	-11098	-2176	2059	-9008	5676	14568	4953	23887	-3878	-22728	-4088	-1288	-1798	19536	-6486	-21168	1564	11052	6076	-766	-4206	130	121	1
-32768	4196	-12076	26757	29018	14872	-13984	11068	-18932	5948	25037	4271	-11560	-2540	1396	-16644	3128	-2653	-7732	8292	15096	6414	32767	-5110	-26256	-3284	1472	-305	21955	-5162	-23328	1928	22160	6357	-11664	-3347	127	130	1
16732	3468	32767	2393	32767	-590	-32768	13360	19464	23081	15621	7208	-14644	-3268	532	-3470	1771	1630	-6884	8564	18120	10153	32767	-7593	-32768	-2568	7612	7778	24831	-5202	-24420	9560	32767	10496	-26557	-3146	133	132	1
-32768	17436	32767	-4316	30442	3110	-9144	24352	-19120	23822	24945	8047	-6696	4296	14732	18769	17170	4638	-4380	12940	20492	17435	32767	-16983	-32768	4428	12196	14745	26083	-3832	-19484	2300	20000	18077	-13352	-6452	111	139	1
-20044	-24404	32767	2204	9260	11547	-23052	-5824	-11144	-1890	21251	461	-17892	6648	-8828	4154	11876	3749	-28928	11920	18676	18691	32767	-24200	-32768	3664	2320	14294	25457	-3503	-18616	7620	-3644	28627	-640	-5783	103	117	1
-7024	-7812	15240	17177	14019	9057	-23500	-15896	-13276	-2342	21677	28	-17208	-17160	-21144	2865	3590	-4185	-32768	20920	21508	20824	32767	-20221	-22820	504	-18808	7362	25579	-7071	-29116	9252	-15296	12497	-12079	1384	106	141	1
-7848	-17884	9764	5215	1401	9786	-9792	9380	-14924	23214	12529	5440	-14628	-4212	-11340	3093	10082	-4844	-32768	31144	32767	3353	19159	-13831	-18316	-11676	-31984	-3644	21735	-12820	-29960	2552	-1928	-10851	-20397	9482	103	122	1
-9580	-64	17008	6390	13	6866	-20280	11380	-11048	1977	11001	4597	-21660	-344	-6204	-3819	10388	-6821	8672	3124	32767	1151	-13801	-8323	-27508	772	24104	4358	5543	-6374	-32768	-4416	-9492	-15491	-18334	7545	132	139	1
-11820	32	15416	5644	271	3951	-18564	4512	-6968	-3076	10435	2221	-21500	-148	-2932	-1049	13497	-941	5644	10136	32767	64	-17958	-8071	-11216	4220	5028	11339	-1531	-916	-30312	-6560	-5432	-6718	-21255	5259	116	84	1
-9816	-1584	14980	2684	325	1308	-16364	3488	-6344	12080	8894	998	-20176	228	-2708	6631	17599	449	7344	8172	23068	-6067	-25577	-6172	-9056	2780	3380	6353	-8212	2848	-23140	-3920	-5084	-1765	-19240	4966	133	112	1
-8444	-2888	14448	1008	338	137	-16600	588	-6328	17868	6231	243	-15804	2656	-2020	6382	16977	3775	2324	4484	19012	-4273	-32768	-3815	-6368	-20	920	3912	-16274	6422	-17536	-2324	-5972	2912	-15887	6886	134	118	1
-8652	-4644	13944	912	274	562	-14348	3724	-5484	8099	5532	-49	-15812	-1304	-228	-328	16068	2977	-2032	5536	15372	1902	-32768	-1155	-6412	-720	-1464	6187	-21660	8464	-15944	820	-8340	-884	-15678	9137	139	116	1
-8244	-4272	14072	993	93	947	-16920	368	-3200	-5896	6823	-1115	-17072	-3692	1204	-7443	14092	1014	-5352	7396	12372	3829	-32768	1605	-6124	-108	-3252	5919	-27140	11001	-12452	-1692	-8148	-943	-15526	7879	138	133	1
-8228	-3516	14156	1090	45	1194	-15972	-1812	-2320	-2226	6340	-439	-13864	-4436	2256	-4453	14123	527	-7612	8288	10400	3432	-32768	5443	-8044	-1968	-2408	5994	-31426	13250	-11384	-212	-8976	-3354	-13351	5247	141	139	1
-8312	-2536	13908	733	299	861	-14812	-1096	-2772	4667	5920	145	-12792	-3140	3512	-594	14179	51	-9068	10016	10724	1972	-32768	9335	-10276	-2856	-3544	7073	-32768	14976	-10264	-2244	-9460	-7292	-13391	2709	134	127	1
-8308	-3384	13996	353	387	788	-15268	792	-3508	4535	6228	111	-14496	-1488	2412	-779	13729	938	-12796	10888	12796	710	-32768	14498	-13656	-2404	-5672	4348	-32768	16751	-7112	-3172	-9964	-5823	-12605	2431	135	129	1
-7760	-3576	14128	-265	594	846	-15356	1324	-3940	-1104	7054	-327	-16580	-2732	2728	-4168	13460	720	-15176	11828	13984	-44	-32768	19738	-17928	-3420	-6628	404	-32768	19086	-5528	-1556	-9128	-9777	-12013	3480	139	110	1
-8420	-3396	14188	-612	778	663	-16112	660	-2652	-3302	7930	-153	-14800	-3068	4352	-6828	13533	1446	-18932	12276	17800	379	-32768	23670	-22388	-4356	-8644	-1892	-32768	18933	-5800	-1096	-5680	-15988	-12587	5545	133	124	1
-8148	-3392	14252	-551	790	675	-15176	136	-2208	-1985	9177	75	-14200	-3600	6460	-6774	14059	1111	-25464	19600	18852	-2804	-32768	26498	-26324	-2944	-11700	-4334	-32768	18900	-7164	-1972	-2924	-17723	-9728	7022	122	116	1
-8484	-3852	14012	-1156	1862	704	-15324	-856	-2492	-746	10662	317	-13988	-4064	5404	-3278	15382	79	-31232	17840	19128	-9253	-30766	29792	-26096	-2520	-13744	-9183	-32768	17474	-12056	868	800	-14781	-8509	8760	118	112	1
-7832	-5152	13744	-1932	3115	1205	-16396	-580	-3624	-194	11892	248	-15748	-3828	2424	-697	14008	26	-32768	8616	19352	-8299	-29408	32256	-25272	-6348	-12688	-12255	-32768	13757	-14384	3432	1404	-7189	-6078	6986	116	123	1
-8204	-2980	14524	-1720	5220	1627	-18376	1620	-5276	-1572	13234	62	-18380	-4192	-472	-3483	12039	1886	-32768	7440	14520	-9657	-27084	29118	-28876	-6248	-18880	-8295	-32768	10654	-7212	10248	17488	-2438	-457	6037	117	132	1
-8616	-2268	14652	-2093	8112	1318	-18436	2400	-5460	-2197	14287	896	-18712	-2728	244	-4626	11047	1950	-32768	7964	-5288	-12668	-23687	15324	-24288	1668	-24212	-6767	-28852	10027	-16332	-5040	32767	-7711	3022	7028	115	126	1
-8424	-3364	15096	-2746	12405	1548	-19788	1652	-4896	-1565	15334	1073	-19052	-652	4148	-5038	9447	1961	-32768	-10332	-27648	18370	-25370	-6356	-3508	-14468	-25664	-1155	-3209	8516	-23236	-5960	32767	-12818	-5247	1938	116	126	1
-8684	-3812	15096	-2961	17931	2753	-20812	1168	-4296	-3256	17366	1161	-19464	-3160	6260	-7777	5828	2347	-32768	-12536	-30916	25016	-23861	-7069	-9348	-384	-23808	15217	19554	1718	-16004	3356	13968	6132	-4936	-2607	120	116	1
-7840	-5396	15108	-2702	24760	4436	-23968	976	-2584	-4774	19534	1425	-23344	-2216	10672	-11503	1355	1573	-32768	11808	-3900	-13296	17095	-8807	-11096	1612	-24332	14807	20573	603	-8884	6056	2524	4232	-1204	2229	121	123	1
-7940	-6156	14684	-2736	32767	7518	-25324	4424	1000	-9476	22527	-10	-23376	2192	24144	-14831	-13009	3732	-13816	9312	2504	-13939	20718	-354	-13696	-6612	-20436	-15496	20390	-6936	-820	1056	-3732	-7236	9572	883	121	122	1
-9032	-6228	15776	-4702	32767	10031	-28868	5364	6728	-18021	25400	-2092	-18132	2784	31884	-17918	-20661	9412	27832	-28900	32767	1827	32767	14755	-30740	-21488	32767	-28484	2745	-11505	-19460	2904	768	270	10695	2515	113	106	1
-9364	-7808	19620	-7825	32767	13952	-32768	-360	10368	-27709	27098	-1848	-18028	-5212	20148	-23351	-15304	7021	-32768	-4248	18172	5186	32767	-3277	-20096	-10576	-22148	-22298	23246	-7804	-26056	-8452	20896	-19652	14972	7060	122	92	1
-31592	-9296	23840	-11009	32767	19374	-32768	-3256	-5040	-25450	28898	1672	-22856	-10560	3696	-21781	-12683	6367	-18560	15256	32767	1545	16218	-15886	-23160	-6636	-9284	-8809	22151	-1755	-21532	-20296	8036	3818	8248	-899	138	147	1
-32768	-4164	26116	-10877	32767	18835	-32292	-3224	-5392	-20643	26489	6190	-32016	-13188	-12068	-9002	-13384	2083	-13224	-8748	21316	-878	7577	-5413	-17316	592	-16444	-5393	24204	355	-18520	4688	-24712	32719	6990	-1954	145	134	1
-32768	-17088	29380	-9855	32767	25254	-20852	-6172	-3672	-10869	22121	6380	-32768	-3228	-10676	6112	-18489	-3905	-11984	25744	5080	-995	3517	-5841	-11708	964	-13756	10380	18071	377	-11080	9612	-15344	23845	12657	-1482	129	187	1
-32768	-23808	32767	-7220	17859	24478	-11500	-2372	-24776	-1843	14869	2273	-29428	-128	-1180	6599	-21687	-5507	-7984	6040	14200	-84	4146	-3524	-18564	-1880	-6916	7972	9910	-1345	-19984	12404	-10188	8278	14944	-48	149	200	1
-20328	-20036	32767	-10656	-26655	14285	-14552	2560	-5068	-10082	3332	203	-32676	48	-6256	4126	-19025	-4987	-9076	2380	14724	985	3562	-2150	-20120	-2064	-9292	-7189	7989	-2865	-23060	-1728	-5392	-9187	17226	-3115	126	151	1
11540	-12704	13540	-6434	-32768	7398	-9908	-1744	6920	-12069	-5337	-3164	-28300	2440	-6380	214	-19409	-7115	-9256	2852	14768	2627	2809	-897	-19880	-3476	-8732	-8728	7573	-2976	-21224	-5936	-1676	-5991	17354	-6023	134	142	1
9264	-11988	10716	-3735	-28008	-30	-3868	-1612	1856	-1499	-14280	-6463	-18820	3812	-7224	-5246	-18281	-8177	-7556	6680	13100	3370	3218	-394	-17684	-2640	-3420	4295	5591	667	-17248	-596	-988	3867	14737	-5736	115	117	1
2380	-9576	13268	-3036	-27911	-7949	-3420	1880	-1752	5276	-21087	-9591	-15144	-1788	-8184	-1067	-15602	-10240	-7236	6800	13332	3053	3987	-687	-17744	752	-3936	7399	5259	221	-16244	3644	976	4356	13771	-5186	133	119	1
-4984	-7380	16060	-5649	-32641	-16052	-3340	2728	-5220	2893	-27761	-10567	-12652	-484	-10072	250	-13762	-9787	-8144	7640	12188	3270	4469	-1474	-17856	580	-3192	4169	5014	-237	-17140	2544	2952	885	12286	-4863	130	96	1
-10552	-5844	16632	-7105	-32768	-22611	-4016	2452	-5884	927	-32279	-12041	-10660	-20	-10496	1728	-11229	-8327	-8224	7504	12408	3197	4520	-1584	-17184	-1240	-1756	3217	4253	-1058	-15404	2536	5256	1365	11624	-4006	130	138	1
-12344	-4800	14652	-5565	-32768	-25679	-6736	1552	-4916	2422	-32768	-13699	-10116	572	-10224	1498	-10880	-8135	-8760	6228	11868	2535	5341	-1648	-15320	-908	-2644	2539	5696	-1425	-13988	844	5980	3682	11550	-3221	152	114	1
-15648	-3600	15260	-4328	-32768	-25202	-9848	1780	-4188	4808	-32768	-15291	-8196	2040	-8268	7084	-9973	-4770	-8516	6816	11796	2398	5465	-1462	-15204	-844	-2348	2362	5831	-1579	-13832	2668	5600	5578	15769	-4742	139	130	1
-20392	-4476	16388	-3799	-32768	-23148	-13764	2080	-4512	4797	-32768	-16154	-7264	4808	-11604	10985	-7304	-3890	-8728	6680	11416	2131	5530	-1856	-16204	-896	-2796	125	7642	-2383	-15388	3356	2536	5819	16782	-4256	128	115	1
-22260	-5972	16260	-3284	-32768	-21550	-19492	3716	-7928	6099	-32768	-16620	-4972	4836	-9736	16458	-5465	-2817	-9028	7136	11080	1757	5705	-2335	-14888	-272	-4272	-1142	8131	-2526	-14588	3640	808	1435	15650	-3461	137	125	1
-26216	-9704	20736	314	-32768	-20976	-24716	3456	-9968	5334	-32768	-16960	-5680	2888	-5848	16485	-4718	-2646	-9624	6060	11120	1877	5759	-1951	-13776	-3248	-4176	-2456	8938	-3102	-15112	936	192	-1764	14213	-2996	128	115	1
-32768	-12500	23928	1952	-32768	-21690	-30984	3340	-12576	7489	-32768	-17154	-6588	-1640	-16	16574	-4228	-4362	-9740	5920	11276	1824	5859	-1803	-15992	-892	-3960	-2295	9594	-2980	-15032	1648	1568	-2507	11274	-2663	125	112	1
-32768	-3348	23820	-2032	-32768	-26559	-26688	5332	-16632	5294	-32768	-13251	-11648	-5760	-928	12262	-1311	-7979	-8964	7788	11632	1457	7543	-2987	-17864	832	-3312	-3722	10880	-3214	-16336	3964	5148	-2260	11329	-2416	116	131	1
-32768	-7328	9008	528	-32768	-23325	-26212	4748	-18508	-147	-32768	-12022	-22380	-7120	9944	6714	-4175	-8114	-9256	7364	12264	1986	10257	-4021	-18952	-1040	-1596	-4980	12814	-4320	-17828	2784	8668	326	12296	-2351	129	139	1
-32768	4016	-10628	4077	-26197	-21517	-18116	2764	-21192	3673	-28478	-5955	-10876	1896	32767	3598	-6731	-4905	-9104	6756	12928	2442	14805	-5022	-20396	-3164	-680	-3497	15353	-4763	-20048	540	10140	2831	10136	-1758	119	157	1
-32768	10684	-32768	-3690	-17212	-8390	-1728	7992	-26612	-269	-6349	-5263	-17568	1752	32767	7698	-3244	-2161	-9872	5468	13292	2976	21044	-4681	-20276	-5128	-20	-1970	18461	-5300	-19128	624	12416	5874	4972	-2449	119	122	1
-32768	8472	-32768	-14989	2059	-920	-7980	5144	-21860	-6754	14630	-673	-17248	2300	21104	-4533	-3110	4118	-8716	7100	13468	3902	29001	-4738	-23064	-2268	1308	29	21156	-4919	-21004	2892	17076	7552	-2725	-3267	130	122	1
-32768	-3968	-22916	23074	32607	10452	-12028	2856	-22504	5696	25455	3176	-11788	-3104	4812	-15413	1128	1365	-8472	8708	13668	6583	32767	-7403	-27208	-1896	4848	2166	24136	-4475	-23068	5908	32767	6025	-21069	-2618	129	137	1
31556	9224	32767	-2210	32767	4079	-32768	11172	30980	32767	18090	7890	-22456	-8688	19556	-120	-3508	1786	-4720	12028	18900	12352	32767	-13313	-32768	2556	13384	10196	26850	-5003	-12376	8484	28556	11103	-19533	-2579	120	134	1
-32768	22180	32767	-2857	30557	4826	-8972	26388	-23184	21699	28005	10453	-9072	2120	-15276	15494	13757	1062	-15352	12436	20272	15852	32767	-24122	-32768	3448	8452	11041	27283	-3358	-24640	-836	4448	20559	-3847	-4197	118	121	1
-14280	-32768	-420	9468	10966	12257	-21888	-20880	-13752	528	26801	-732	-18604	1748	-32768	6950	11900	-2147	-32768	13036	19624	16855	32767	-24575	-32768	-2136	-7876	10630	26656	-7551	-28408	11576	-11184	21016	-7284	-1551	127	132	1
-21028	1472	18292	4637	144	11490	-7428	-4104	-21856	32767	17383	4974	-11352	-14452	-24408	2630	-2015	-5245	-32768	27680	27540	5907	32767	-25958	-26196	912	-11064	4424	19061	-5644	-32768	848	-12512	-3934	-19216	8327	96	127	1
-10464	1548	18788	7522	-1055	8366	-17532	11420	-17136	11157	10906	4564	-19464	844	-10856	2453	13777	-8004	-32768	32767	32767	-6697	24054	-15043	-15724	-8928	-32768	-4864	16045	-11024	-32768	-28	-2928	-12839	-20394	11161	42	136	1
-10288	940	15920	5293	-598	2981	-24112	11392	-7588	-8151	11489	2733	-25220	4452	-3928	-3325	13387	-3681	-12164	6536	32767	-8102	-22212	-3066	-20160	-4912	12552	-3486	5395	-6712	-32768	-2364	-4384	-13870	-19913	10831	117	137	1
-9140	-324	15232	3069	-827	815	-16308	684	-6312	6640	8637	656	-19716	-1732	-3052	921	17106	1229	8828	4672	23916	6870	-32768	3802	-13880	-740	9456	15853	-6283	-1060	-31824	-10164	-4876	-5476	-20286	7516	145	98	1
-8076	-2880	14204	1917	-447	59	-15704	-572	-5552	14016	6007	300	-16164	-1404	-3848	4408	18111	4629	4288	9104	16128	1809	-32768	1957	-5212	6424	-12	11728	-14024	6427	-19292	-6636	-6512	-1846	-19289	7631	156	91	1
-6604	-5336	14108	1153	561	261	-16236	-156	-3028	12984	4692	580	-15356	-3320	204	3135	18174	2755	-1460	5416	14252	-2333	-32768	2298	-2452	2612	-1980	2298	-19856	8471	-13660	432	-8072	-3740	-16319	9311	132	123	1
-7636	-4408	14004	1462	1056	1266	-16776	1664	-2484	1307	5377	-91	-16212	-3424	3764	242	17196	678	-3576	2412	11728	2960	-32768	4402	-2268	-2112	68	2488	-25628	9828	-10540	-1896	-8568	-1376	-14279	9281	140	132	1
-7664	-3436	13840	1936	892	1775	-15928	-168	-1324	-1658	6277	-662	-13756	-2060	4460	-4740	14828	363	-6092	5264	9812	7494	-32768	6954	-4712	-1516	-2744	5294	-29443	12224	-10788	100	-9424	575	-12876	6886	139	126	1
-8096	-1780	14360	953	1014	1266	-14600	-1048	-2356	4479	6074	608	-12032	-3524	5108	-2118	14481	851	-7968	7552	8360	6189	-32768	10478	-7152	-3520	-1136	6299	-32768	13860	-9012	-3528	-10100	-4843	-13209	4392	126	138	1
-8608	-3040	14052	650	867	1477	-15016	628	-2888	6062	6437	428	-13916	-2020	4612	-2459	14054	1941	-10560	9288	9904	1923	-32768	13714	-10912	-4012	-3256	6572	-32768	16067	-8872	-4084	-9568	-5234	-14234	2265	143	124	1
-8380	-2644	14424	346	660	1647	-15728	1292	-3016	908	7604	-36	-15708	-232	3792	-7032	13507	1764	-15332	10528	13372	-637	-32768	17641	-14404	-4208	-5480	6491	-32768	17849	-6336	-3396	-10344	-5921	-13151	1557	131	103	1
-8496	-2348	14292	166	791	1809	-15564	456	-3004	-1693	8863	-175	-14836	-3104	5044	-10166	13561	1954	-18252	11700	17368	-1129	-32768	21756	-19804	-4268	-7988	2932	-32768	20381	-5908	-2608	-10120	-6713	-12863	1896	128	113	1
-8376	-2072	14300	-406	1262	1773	-14496	596	-3272	-1762	9818	-157	-14856	-4424	4016	-6751	14333	1998	-22748	14136	20520	-2358	-32768	24768	-25568	-4976	-9288	-2797	-32768	19790	-7120	-4128	-5656	-13429	-9451	5595	124	118	1
-7996	-2520	14780	-1442	2515	1687	-16852	444	-4136	-2033	10740	-78	-15992	-3680	2540	-2996	14079	1279	-23536	14304	20344	-2836	-32768	25333	-26084	-5140	-11928	-6097	-32768	18863	-7172	136	-4312	-15107	-3234	8015	122	118	1
-7860	-2044	14608	-2543	4909	1965	-17796	2168	-5780	-2669	11297	46	-17172	-2072	1032	-2092	13650	1534	-32768	16156	23692	-8676	-32768	29451	-25940	-4092	-14632	-7243	-32768	16145	-14188	1648	-2276	-9603	427	8550	121	123	1
-8744	-1748	15312	-2553	7387	1181	-18168	3396	-4004	-4983	12419	95	-18272	288	856	-4751	12695	2669	-32768	18068	19000	-10738	-32768	27529	-30232	-2284	-12532	-8988	-32768	13852	-19700	3196	20492	-8133	-10547	8739	131	124	1
-8732	-2996	15164	-2153	10722	1733	-19696	800	-5480	-3013	13070	111	-19148	-2532	2204	-6763	12330	2972	-32768	-2396	6688	-5087	-26463	25562	-32768	-15684	-22176	-8204	-32768	9022	-8680	8804	32767	-5565	958	5764	117	125	1
-8256	-3240	14936	-1972	14736	2232	-18848	1704	-4308	-4084	14134	689	-18488	-3864	3740	-4840	11729	1666	-32768	-4736	-23020	11194	-26875	4109	-1836	-3404	-28932	472	-13860	13192	-22544	-7232	32767	-6906	-6409	2147	113	132	1
-8440	-3656	15056	-871	18905	3146	-19144	1212	-2796	-4664	16040	803	-18476	-3572	5900	-6124	8606	2686	-32768	600	-32768	20716	-9771	-7002	-3240	-2496	-21016	16635	13674	3623	-15568	2664	22572	8026	-6033	-1657	113	125	1
-8744	-3284	14720	-465	24498	4078	-21888	996	-1692	-4047	18227	1507	-21540	-4424	8804	-7450	4332	2741	-32768	11468	-9172	-12577	11805	-13062	-11628	1976	-23212	6571	22326	-3921	-13664	8380	3448	9075	-918	124	112	123	1
-8984	-5224	13696	-653	31852	6958	-23272	1528	1176	-6339	20680	567	-22236	-528	17592	-9933	-4458	2857	-19648	5844	5900	-8000	13253	-8681	-18796	-8912	-20100	-12066	19849	-7663	-2516	3984	-4492	-6139	2288	1533	120	117	1
-9936	-4732	14044	-1408	32767	10271	-25340	3412	4692	-11611	24109	-1291	-20264	2832	32767	-12309	-18677	5816	-1844	-2096	17840	-8704	26063	-166	-23656	-16840	21240	-15362	9247	-10448	-2612	1792	-4948	-13251	15417	-387	111	110	1
-12068	-5392	17808	-4062	32767	14034	-26316	3640	5628	-12630	24597	-1648	-14384	2224	27216	-15039	-15168	6336	-25100	8212	13608	6216	32767	-2154	-22972	-11364	-18884	-2172	23314	-4443	-3300	3392	-10160	-5456	15386	61	106	139	1
-25504	-7080	26512	-5825	32767	19637	-32768	-2796	-1892	-25575	27692	-367	-19780	-7732	6372	-25159	-11303	5965	-12704	8452	24984	10138	23263	-8742	-29868	-2840	-372	-10215	25996	-8587	-22924	-17748	-3660	6108	7675	-2701	144	155	1
-32768	-2808	22096	-5665	32767	20128	-32104	-192	-9760	-21553	28379	2607	-29140	-15092	-5356	-21893	-13559	5745	-27772	32767	15604	-5333	13294	-6990	-10772	3076	-24412	-6088	18802	-792	-15164	-1640	-15856	25803	6164	-1582	144	100	1
-32768	-13960	27892	-12224	32767	17929	-26976	-3436	4580	-22997	22073	5803	-32768	-5184	-12940	1640	-14889	-1568	-7140	-3024	20852	-1092	1470	-10251	-15756	-6404	-10632	-59	17738	-3145	-15808	8432	-17044	19614	12675	80	141	152	1
-32768	-14000	32767	-5174	32767	26575	-13820	-4308	-29292	-7829	18142	2903	-29624	-156	-2432	6184	-23274	-4623	-6732	8240	13132	-1756	5066	-4050	-19324	-2632	-10724	11538	10775	727	-16872	9652	-17612	18332	13555	216	139	200	1
-32768	-14932	32767	-5064	32710	25597	-15032	4816	-15200	-7515	7290	1417	-32584	-1168	-6864	310	-19716	-4709	-7424	11376	12220	-1677	4259	-3470	-19208	1608	-9292	1157	7389	-1835	-21600	4640	-4396	-3501	15684	-2040	148	151	1
5908	-15368	21760	-5468	-32768	4633	-13292	-4156	7232	-12256	-2240	-1522	-30672	-304	-6512	1284	-19663	-6428	-9216	4932	14108	470	3536	-1734	-18216	-7508	-5724	-8691	5759	-2940	-20900	-5116	-2804	-6631	17741	-4045	124	170	1
9328	-12828	11000	-847	-28048	-3636	-7884	-1244	2684	-1697	-10381	-3777	-21668	1912	-6540	-1045	-18642	-9402	-7640	4560	14240	2424	3334	-951	-17732	-4956	-3348	-2546	3819	-349	-16668	-2576	56	-1607	14828	-6356	127	129	1
3000	-9860	12088	728	-25622	-11215	-3720	100	-756	6771	-18086	-6550	-17440	-1968	-7896	674	-16446	-10829	-6344	8200	12880	2126	3343	-1639	-16944	1712	-3160	4422	4690	910	-17216	2104	-88	3325	13935	-6018	131	116	1
-5456	-8060	16460	-680	-29935	-17996	-4416	1048	-5252	9226	-24096	-7809	-13676	-220	-8144	5995	-13823	-11581	-7360	7236	12980	1184	3202	-2212	-16960	1964	-3748	3158	4082	-258	-15252	4064	1788	1953	14231	-4256	129	78	1
-11300	-6024	17480	-1434	-32768	-23777	-5004	1972	-6272	8010	-29909	-8515	-12428	1056	-10060	5939	-12891	-10095	-7760	7208	12632	1082	2910	-2774	-15960	572	-3024	733	3962	-921	-15500	2872	3968	-1636	12070	-3317	124	117	1
-11564	-4100	14520	-726	-32768	-26857	-7060	1708	-4848	6709	-32768	-9618	-11248	-168	-10512	6590	-11964	-8792	-7828	6576	12132	1127	2695	-2594	-16272	-2108	-2888	2503	4609	-1103	-14000	744	4828	2248	13214	-3444	129	148	1
-12364	-2640	13504	-964	-32768	-27201	-8508	1916	-4128	8095	-32768	-10468	-9668	112	-9084	8715	-11927	-7301	-8040	5552	12924	1259	2934	-2213	-16724	-2276	-2592	4276	5130	-1220	-13940	476	5264	7880	14300	-3861	138	123	1
-15888	-4208	15992	-981	-32768	-25320	-11688	2416	-6072	9072	-32768	-11013	-8008	1960	-9040	14421	-11070	-5340	-8464	6172	12440	1419	3330	-1929	-17008	-1272	-3052	2773	5806	-1604	-15340	2024	5752	6733	20176	-2943	142	127	1
-22608	-5384	18092	417	-32768	-22534	-16356	2832	-4132	6206	-32768	-11910	-6080	3756	-12712	18237	-7221	-3887	-8124	6768	12272	1008	3166	-2147	-14952	528	-1768	701	6797	-1888	-17080	4680	1188	5941	16341	-3556	126	108	1
-23644	-7168	19360	240	-32768	-19982	-20884	2764	-9208	3767	-32768	-12721	-5164	4648	-9516	20879	-6231	-2518	-8136	6816	12236	543	2921	-2918	-15124	708	-3200	-1653	8324	-2065	-16884	4328	1436	1205	11973	-2252	129	106	1
-26816	-12316	22016	3539	-32768	-17464	-27784	992	-10812	3029	-32768	-14866	-5856	4360	-5112	18151	-4470	-2242	-8688	6492	12220	681	2941	-3339	-15880	-1004	-3372	-2820	9701	-2474	-15264	2212	3336	-1781	10336	-1273	124	139	1
-32768	-14016	21368	5091	-32768	-15402	-32404	4596	-19076	10400	-32768	-15759	-8764	-3164	-664	15898	-2486	-5257	-8068	6616	13112	1310	4261	-3615	-17184	-720	-1776	-1785	10921	-2681	-15512	4120	5764	-1201	10131	-1644	122	126	1
-32768	-9888	20848	-7320	-32768	-21328	-30352	6920	-24172	-2917	-32768	-10903	-15480	-3848	-612	9293	1167	-7430	-8128	6020	13264	1720	6850	-3945	-18232	-2008	-1644	-2277	13187	-3522	-17196	3860	7552	1121	10944	-2386	124	125	1
-32768	-1000	2340	-1917	-32768	-22251	-25040	6020	-25664	-1081	-32768	-8964	-24128	-6328	32767	4831	-17423	-4827	-7720	6092	14336	2649	11510	-4076	-21108	-2764	-1864	-2837	15191	-4630	-19228	1844	6992	2924	10438	-2895	128	139	1
-32768	-1508	-27812	-1764	-25815	-17139	-7088	3276	-28256	-6689	-16559	-5630	-9564	8300	32767	892	-6115	-3315	-7936	5460	14388	3175	17046	-4357	-21000	-4272	-700	-2953	17107	-5573	-19624	1048	9328	4858	6970	-3232	118	126	1
-32768	19532	-32768	-19404	-9131	-3360	-3832	8656	-24188	-8650	5964	-4658	-18936	2140	26288	-6854	-2057	2742	-7864	6008	14788	3074	23911	-4278	-22064	-3360	-784	-2398	19719	-5864	-21152	2124	10936	6503	1604	-3813	129	122	1
-32768	-4768	-22976	-5156	11810	3700	-11704	940	-24192	-4860	21717	2627	-13868	-892	11152	-15313	-152	551	-7680	8660	14488	3536	32767	-5915	-25008	-1488	948	-751	22132	-4797	-19912	1700	16912	7749	-6964	-4708	123	127	1
-15872	-2400	10820	15972	24454	4349	-15276	4280	-13800	1938	26067	5668	-12124	-1600	8296	-15485	795	-165	-6912	8260	14236	5457	32767	-10278	-28668	-2812	3876	3886	25281	-2919	-21220	4084	32767	4932	-24729	-2021	127	124	1
32767	-3456	32767	2354	31762	-3598	-32768	12924	32767	6730	11115	6130	-572	-7960	-9584	-38	17309	4295	-3912	11020	18128	10550	32767	-16807	-32768	156	10268	15803	27640	-2522	-9896	2808	21664	15309	-16262	-6615	120	151	1
-32768	12000	29680	-4415	32767	9967	-24160	188	-22816	24739	21661	8378	-4116	-8564	-4316	-33	15227	3727	-13564	12896	18488	15616	32767	-25523	-32768	812	11024	18007	27726	-2824	-21228	1724	-1004	26777	463	-6340	104	127	1
-32768	-32768	32767	8213	10806	17138	-20268	-10448	-16912	1266	23701	2432	-20960	5808	-388	10918	8340	-1872	-32768	12252	22088	15229	32767	-26808	-24040	4928	-15772	14594	25829	-1870	-28408	11012	-14776	25048	-7453	-2365	149	137	1
-32768	-32768	11844	11655	10455	11946	-16144	2544	-9168	23469	20779	2106	-14040	-1020	-13960	-5086	7236	-8239	-32768	23912	32767	11173	32767	-23145	-22432	-6404	-25768	2934	25966	-9455	-29308	2564	-2740	-4623	-18715	8106	108	124	1
-7552	-18872	9184	3849	4515	3882	-9168	8988	-14872	50	16031	2849	-11924	-3516	-12712	-6783	7960	2744	-14748	16436	32767	11882	-7104	-14032	-29976	-6312	-2000	3467	15341	-7465	-32768	-2952	-7516	-13349	-17590	7362	88	130	1
-8064	-16476	12096	4030	4661	3451	-18180	4752	-12404	-6977	11126	2220	-21816	-4448	-12488	-10312	10666	-702	4972	13408	27948	11108	-17409	-17243	-14156	8200	4812	22247	4218	42	-32384	-5864	-5988	-4687	-20191	5659	126	88	1
-8932	-3408	14804	1386	1445	2290	-21220	-2412	-8128	-1616	9311	2289	-22668	-5452	-5392	-4822	15257	1118	6520	14264	20844	2790	-24398	-12712	-8692	2904	2744	12593	-5077	2819	-25756	-5492	-5056	1878	-19533	5141	107	92	1
-9308	-3196	14480	1156	1105	1279	-17104	2892	-5976	7623	6410	1839	-20260	-976	-3916	2314	17659	3346	4008	11416	17224	-2697	-29543	-5361	-7144	928	712	5435	-12985	7353	-20380	144	-6472	3795	-15097	7308	146	118	1
-8412	-4292	13796	504	1101	785	-16264	1688	-5764	8510	4464	1101	-20068	-1128	-3488	2715	18131	3395	676	8604	13904	1185	-32768	3126	-7372	-420	-396	2382	-19527	8532	-17160	1348	-8336	-375	-13648	10314	146	127	1
-8168	-5104	13996	205	1427	956	-16568	1572	-3824	4631	4416	315	-17000	-1208	552	1827	17694	3576	-4360	10260	12728	3385	-32768	11085	-6856	-472	-3300	-114	-25055	10174	-13664	32	-8784	-3655	-12606	11487	138	123	1
-8768	-5284	13532	-177	1384	1288	-16596	1388	-3252	-2572	5372	-258	-16500	-832	1900	-772	16123	3065	-5712	10800	10508	-302	-32768	17743	-7700	464	-2976	-3714	-30403	11569	-11520	-940	-8432	-4331	-11975	9993	133	125	1
-8572	-3992	13652	-163	1585	1339	-15732	-196	-1156	-3086	5694	157	-13968	-2404	1180	-1893	15012	2219	-9892	10248	11908	-4546	-32768	22324	-9996	-424	-3752	-7238	-32768	12481	-11384	-120	-8440	-6994	-11207	8295	141	124	1
-8884	-4660	13280	-197	1478	1654	-14488	-2052	-3288	751	5570	306	-13872	-2396	1996	-3086	13173	2053	-14228	10300	14948	-6412	-32768	25762	-13108	-1668	-6392	-10983	-32768	12627	-9408	-3272	-8376	-11886	-12167	7240	132	129	1
-8996	-5204	12980	30	1321	1750	-18772	1360	-4652	-760	5826	1424	-14616	-3072	3776	-5546	14029	1492	-16320	11800	13820	-7623	-32768	28361	-14536	2340	-7800	-16290	-32768	10773	-7280	-2940	-9840	-13982	-13018	6371	131	114	1
-8312	-4888	12804	1288	982	2708	-17168	-1596	-5060	-1414	5464	2146	-13228	-2540	4368	-7429	19697	730	-18400	10064	16012	-7849	-32768	29889	-20496	-6080	-6968	-11013	-32768	15181	-5668	-4432	-10612	-20185	-13116	6411	125	117	1
-9732	-4740	13192	1516	517	2640	-14452	80	-3928	176	5958	926	-13368	-5700	1840	-9447	20388	1906	-21740	10148	20464	-5898	-32768	28356	-24044	-3324	-8628	-6296	-32768	13794	-6740	-4920	-5124	-21526	-11504	6705	124	118	1
-8948	-4668	13408	250	474	2649	-14096	536	-2168	-2757	8420	1265	-16020	-4848	556	-4483	15124	2121	-29272	12132	25796	-5651	-32768	23645	-27224	-4544	-13136	-2340	-32768	15523	-7688	-3544	172	-22915	-9050	8223	120	114	1
-9052	-3700	13684	-150	1537	1937	-15768	-68	-2812	2063	9619	1720	-17752	-4056	1564	333	9775	1617	-32768	12064	25320	-4639	-32768	18552	-26432	-3552	-15484	684	-32768	16972	-12348	-1944	952	-17255	-5802	7243	118	115	1
-8912	-3616	14236	-1216	3429	1730	-18108	3144	-4084	520	11193	1599	-17948	-1492	3452	-253	9737	2243	-32768	11904	24160	-4022	-32768	17739	-26836	-3960	-15000	947	-32768	17242	-16660	3964	15080	-6656	-7367	5578	117	122	1
-8640	-3760	14488	-2209	6186	1455	-19964	2088	-2820	-2075	12852	1951	-18840	-2140	4896	-4222	11504	2744	-32768	9260	276	3773	-32768	13635	-29724	-10536	-25984	4378	-32608	12837	-9092	4684	32767	-4646	-2445	8089	107	117	1
-8632	-4344	14660	-2547	10132	2050	-19796	-100	-1452	-1061	15153	2785	-19516	-3368	7208	-4061	10557	1642	-32768	-500	-32412	1826	-26569	1370	-5628	32	-30936	148	-12070	11942	-19852	-5592	32767	-3935	-4320	4346	117	135	1
-8648	-4172	14964	-3042	15479	3215	-19732	1860	-1520	595	17777	3399	-19448	-2020	8784	-5244	6503	1546	-32768	56	-32768	15125	-3641	-1515	-2628	-8760	-26220	1696	12447	512	-19364	-1364	25948	7476	-2712	-1782	119	149	1
-8436	-3968	15132	-3854	22144	3542	-22132	3260	-2008	-1363	20521	3982	-21172	-1380	10216	-7545	2381	2045	-32768	10256	-13340	-12311	20465	1557	-13436	-2724	-28200	-4042	24194	-7948	-13244	3760	4252	7658	-285	738	117	120	1
-8444	-6164	15196	-5130	30938	5258	-24912	3392	632	-4798	23193	3028	-23840	536	17200	-11446	-7300	2851	-24192	7764	14116	-10878	22557	2892	-16452	-8560	-19032	-17001	23242	-8570	-3920	1604	-10732	1345	3451	267	106	123	1
-8540	-7676	15448	-4711	32767	8717	-29348	1264	5224	-11361	26369	1473	-23200	-2080	32767	-9668	-29624	6703	26432	-32768	32560	10902	32767	5403	-27336	-17628	18280	-11913	12415	-4978	-18412	4480	9136	-987	9278	-191	100	124	1
-8680	-10360	20252	-6601	32767	14822	-32768	-4432	11388	-18242	27618	1848	-16376	-11036	21764	-18956	-15389	4453	-32768	-16448	30316	10622	31604	-8654	-21552	-14124	-22920	-16928	31109	-8745	-20952	-7088	13028	-5913	14179	-3988	130	142	1
-25608	-10732	19384	-9970	32767	23896	-32768	-2892	-728	-22024	28291	3510	-23456	-4372	3040	-15285	-9532	3871	-10864	25372	22264	357	16475	-14749	-29740	-10024	-11320	-17542	30418	-9010	-18924	-10432	-3484	12725	6693	-643	141	156	1
-32768	-8420	25964	-9414	32767	23099	-28336	-4796	-8468	-18615	29132	5759	-29492	-10956	-14504	-10040	-12087	2963	-20396	-17876	20884	-115	6155	-10666	-18636	-2100	-11460	-7031	20718	-2288	-16496	7840	-23364	28170	9107	-1257	146	104	1
-32724	-15840	29560	-11755	32767	24572	-24556	-3808	836	-8773	20163	6761	-32768	-912	-9732	7196	-19296	-3899	-8648	20556	8404	-3243	4525	-8525	-15300	-1292	-14584	102	15059	-1899	-13916	9748	-14392	17237	14271	1624	134	164	1
-32768	-22632	32767	-11311	27635	23527	-10900	-1644	-29212	-409	16226	4527	-28288	80	-56	7255	-21753	-5332	-11484	6768	13968	-3147	3713	-3534	-19292	-5660	-8420	7137	9194	-2491	-22296	9832	-9280	6436	15735	-41	146	192	1
-26856	-18328	32767	-8354	-21648	13090	-12036	-1316	-24000	57	14725	3366	-32768	-2332	-7284	3811	-18211	-4951	-9336	2996	14860	-956	2391	-2396	-19088	-2576	-7964	-6573	7153	-2824	-23592	-5568	-3176	-8551	17283	-1598	126	194	1
8660	-11492	18584	-4467	-32768	6141	-10104	-2124	8164	-14536	-4243	-2413	-28152	2680	-6564	2214	-19187	-5906	-7396	1628	15252	2060	2468	-745	-18244	-9300	-4792	-8023	5590	-2321	-20228	-5060	-624	-6547	16583	-5254	151	152	1
7284	-9480	10200	-4770	-32768	-200	-5448	-1984	1524	-4549	-13051	-5021	-19628	3060	-6920	-2983	-17783	-8112	-6776	5940	13908	3425	3204	-185	-17792	-2700	-3192	913	5597	314	-16344	-1276	296	63	14886	-5903	128	121	1
1580	-9964	10392	-4346	-31975	-6233	-2220	328	-848	3189	-19566	-8321	-15468	-1448	-8692	-1648	-15534	-9944	-6980	6848	13072	2615	3106	-1153	-17324	1284	-3668	6198	5594	568	-17076	3752	-736	4413	14495	-6313	123	73	1
-4584	-9748	13268	-3818	-32768	-13219	-4724	1212	-4832	3660	-25599	-9818	-13284	-1924	-9500	-95	-13488	-9884	-7588	7032	12992	1781	3351	-2224	-16984	2908	-4080	1583	4406	-175	-16328	2928	1900	199	13793	-3288	123	115	1
-8108	-8292	14016	-2185	-32768	-19409	-5220	1236	-5436	3123	-31455	-11124	-11072	-1700	-10636	2148	-12450	-8545	-8396	6264	12616	1692	3125	-2735	-16564	-1228	-3364	-259	4534	-827	-16888	148	4252	1073	11114	-2117	124	149	1
-11156	-5996	14048	-2009	-32768	-24156	-7244	1400	-4876	3761	-32768	-12301	-10844	-1240	-10396	2262	-12371	-8193	-7880	4804	13340	1422	3605	-2658	-16744	-3472	-1852	3212	4895	-377	-15880	-352	4100	4068	10723	-2396	136	125	1
-14040	-5524	14904	-1720	-32768	-26104	-9208	1012	-5364	6970	-32768	-13425	-8580	224	-9532	8027	-10926	-5639	-8876	5488	12412	1595	4165	-2203	-16788	-1328	-3852	2303	5874	-737	-13276	1592	5048	8108	18841	-2940	138	127	1
-17660	-6520	16808	-840	-32768	-25252	-13592	2092	-5852	8128	-32768	-14570	-7376	2880	-10400	13808	-9523	-5014	-8580	6004	12128	1889	4382	-2039	-15588	-508	-3476	-7	6204	-1614	-15532	4020	2056	6548	19404	-2431	148	124	1
-23640	-7140	17884	966	-32768	-24101	-19076	2532	-6364	9295	-32768	-14737	-5996	3576	-11696	17536	-5354	-3803	-8356	5932	12288	2085	4630	-1877	-14808	-1800	-3172	267	7233	-1847	-15700	3772	636	4514	15908	-3644	127	128	1
-24444	-8996	20108	1900	-32768	-23042	-22812	3436	-10268	7225	-32768	-14689	-6856	2292	-7320	23061	-4509	-3726	-8776	5452	12216	2592	5228	-1449	-15312	-2880	-2916	1283	8285	-1756	-16824	1420	1600	341	12199	-2991	121	113	1
-31716	-13056	22756	3170	-32768	-21343	-31832	3092	-12656	6835	-32768	-15627	-6448	1556	-3204	19618	-4210	-3919	-8820	5404	12360	2719	5709	-1197	-15316	-1032	-3072	1367	9427	-2258	-14728	2512	3284	-1041	9239	-2850	130	111	1
-32768	-17052	22448	4297	-32768	-19982	-29112	-1012	-18384	4859	-32768	-16498	-10400	-1344	-2396	15465	-1322	-6291	-8604	6628	12488	2749	7175	-1714	-17908	-184	-2728	-648	10964	-2870	-16764	3820	6172	1965	10275	-2864	127	121	1
-32768	-7996	13388	-6043	-32768	-24607	-28980	10800	-21096	3480	-32768	-12057	-24204	-4456	10160	9119	-4842	-6872	-8572	6356	13260	3138	10175	-2691	-19828	-2228	-1984	-249	12801	-3654	-18132	3528	8056	4074	12526	-3364	123	136	1
-32768	6912	-3980	-8906	-29369	-29788	-17820	5972	-20412	-9634	-30046	-6204	-11396	2816	32767	4031	-9980	-3971	-8720	6220	13420	3500	14623	-3215	-20360	-2280	-1140	610	14845	-4338	-20388	1720	10152	5397	10264	-2729	126	140	1
-32768	8760	-32768	-5728	-19697	-13477	-1400	348	-24788	-10326	-6499	-7658	-17228	5156	32767	-1073	-5258	-810	-8144	6748	13752	3659	20526	-3669	-20584	-2104	420	-479	17748	-5252	-19928	1420	11436	8543	4806	-4013	127	119	1
-32768	12368	-32768	-18112	-555	2417	-7508	4088	-22400	-8181	13647	-2699	-17692	-368	20580	-14849	-1309	2771	-8512	7392	13760	4061	28411	-4212	-23112	-2644	900	-256	20703	-5393	-21096	3308	14428	8514	-2591	-4293	136	121	1
-32768	-18196	-19020	18428	23041	10797	-12528	3104	-19272	5801	23565	2428	-9356	-4304	1604	-15081	4517	-1965	-8652	9128	13952	5124	32767	-7523	-26324	-1252	3272	1988	23591	-4134	-21040	3372	15384	8255	-4350	-4078	137	123	1
24708	2292	32767	3808	31251	498	-32768	14204	32767	1738	13312	10040	-5924	-7680	-3316	-3877	7475	1472	-6164	9552	18748	9288	32767	-12621	-31844	-508	8556	9655	25875	-3812	-18124	11852	30920	21614	-22059	-4007	127	145	1
-32768	14664	28656	-2016	32767	9907	-25668	10544	-27648	30226	24868	8748	-32768	-4452	31144	13611	6182	-1111	-8684	13580	18020	14817	32767	-23262	-32768	5500	8764	17021	26147	-2338	-23220	5620	13000	22216	-5717	-5597	117	145	1
-24948	-32768	10416	3334	6675	12934	-18188	-4440	-15420	-5332	27281	1929	-21536	4972	-18704	1335	9934	1262	-32768	13340	18768	12137	32767	-28078	-32616	5872	-4100	14748	24887	-3272	-25012	9384	-8564	24467	-2772	-2767	145	118	1
-19316	12628	24464	15653	14704	8492	-11928	-10932	-13708	21730	21297	2338	-14056	-4840	-15688	-4226	3917	-6203	-32768	18364	23536	10765	32767	-26256	-27964	444	-14436	6452	24151	-6104	-32560	2956	-7828	3174	-17668	5350	115	118	1
-5936	-16800	9700	4803	4324	4987	-9540	9176	-16540	12683	13696	4641	-12668	-3428	-12128	-3096	9008	1807	-32768	22088	32767	224	22764	-23382	-16360	-9944	-28192	1877	18018	-9274	-30776	1768	-2040	-6610	-20515	8354	51	131	1
-12552	1600	17044	2665	1673	3958	-21184	9036	-11368	-2473	10018	3473	-27024	-3204	-12020	-5416	10840	-3546	-908	-2176	32767	5373	-22093	-14723	-23808	-3576	7692	4738	8702	-4485	-31572	1364	-2052	-8858	-19646	8631	131	118	1
-9592	-1356	15840	2887	1077	2357	-20288	296	-5836	-5106	9049	1838	-21172	-1628	-3680	-2020	15499	-250	5372	13780	28716	9455	-32298	-9188	-12012	4264	5772	19100	-1049	55	-29592	-6420	-4840	-2053	-19325	5475	105	87	1
-8976	-3144	14588	1322	982	881	-16496	2328	-6116	8090	6725	1162	-18628	-2232	-3200	4213	18352	2407	7656	12908	16200	2891	-32768	-5030	-8832	4464	4236	11920	-10461	5254	-22652	-3644	-5340	942	-17671	6783	151	117	1
-8876	-3972	14160	-184	1221	50	-16508	1764	-6400	10817	4414	655	-16236	-140	-1560	5631	18594	4335	2572	9392	13772	-2162	-32768	51	-5020	2060	544	4171	-16689	8045	-16988	-1036	-6788	2276	-15671	8454	124	117	1
-8424	-4860	14048	-685	1137	-108	-15844	1932	-4140	4850	4382	339	-16204	376	532	3406	17593	3415	-3164	7808	13216	305	-32768	6648	-7828	-408	-1412	-420	-21957	9109	-14048	1864	-7808	-2721	-13730	11512	128	124	1
-8228	-5432	13636	-778	811	246	-15720	1220	-2940	-6805	5529	-567	-16024	-716	1684	-3821	15826	2325	-6456	9572	12540	1168	-32768	12705	-7820	-628	-3408	-2028	-26779	10178	-12788	468	-8220	-4289	-13284	11306	134	123	1
-8116	-4868	13464	-673	599	505	-16100	-1208	-1980	-8062	5933	-378	-13816	-2384	2700	-6769	14480	1581	-8284	10012	10836	-1123	-32768	17880	-9360	-152	-3244	-4791	-32538	11344	-11512	-168	-8188	-7560	-12579	9441	149	133	1
-7988	-4376	13936	-915	923	470	-15480	-2364	-1948	-1823	5822	373	-14256	-3556	3368	-5443	12451	2167	-11132	10308	11932	-4288	-32768	21889	-10608	-156	-4180	-7570	-32768	12099	-8980	-4128	-7736	-11586	-14268	7356	139	115	1
-7532	-5132	13780	-854	1382	859	-16404	-752	-2472	83	6261	439	-15612	-2844	4464	-6349	12862	1773	-14568	11352	13900	-6318	-32768	24900	-14428	-508	-6552	-10356	-32768	12771	-8748	-3396	-9876	-12174	-14317	5905	133	124	1
-7756	-6384	13776	-1220	124	1461	-16540	-564	-2080	85	6285	367	-14292	-680	5596	-10041	16428	1947	-18708	8916	15728	-6242	-32768	28301	-17668	-4488	-5456	-12207	-32768	10784	-6164	-2852	-9188	-16669	-12872	5973	130	125	1
-9208	-3500	13816	-176	1010	1876	-11876	-4960	-1928	4866	15663	527	-12664	-5884	4060	-10993	18718	1684	-19884	11972	19200	-6808	-32768	27473	-22084	-1420	-8812	-4903	-32768	14496	-6964	-4608	-7112	-19860	-10941	6566	121	120	1
-7684	-3340	13944	618	1341	2040	-13768	-4392	64	2646	5700	-307	-14728	-7100	896	-7080	17195	1762	-24668	11488	23688	-6569	-32768	25740	-25620	-2692	-10092	-5659	-32768	14126	-8088	-4008	-4356	-18278	-7374	6836	123	119	1
-7684	-5000	13956	847	2018	3885	-16664	-3312	-3532	342	10346	1694	-18120	-6284	-260	-127	11705	777	-32632	13216	26016	-6666	-32768	20465	-27376	-3636	-15064	162	-32768	15252	-9276	-1192	-1772	-16470	-3702	7063	123	123	1
-9016	-3248	14520	-383	4062	3262	-18148	3700	-5188	4646	11494	1936	-18276	-2636	2144	1059	9506	856	-32768	14036	21476	-3479	-32768	14206	-28180	-2608	-14692	1935	-32768	18342	-14344	2024	-4396	-6749	-1043	5819	109	126	1
-8676	-3260	14668	-1735	6542	2455	-18872	4176	-3180	-2629	13547	2187	-18232	-1048	4212	-3781	10811	2904	-32768	-2104	12640	10359	-32768	14646	-32768	-14200	-22716	2153	-32768	13409	-15704	6104	27560	-5581	-8054	9512	109	114	1
-8712	-4212	14668	-2794	10295	2465	-19324	-604	-3052	-1115	14985	2802	-18584	-4100	6268	-4639	10396	2658	-32768	9264	-25708	3322	-32312	2750	-8916	4740	-30088	3224	-19215	15196	-14180	-5444	32767	-3895	-2934	6443	113	122	1
-8772	-4280	14576	-3582	15503	3471	-20444	1804	-2516	476	17361	3628	-19004	-1512	7740	-5696	9510	1658	-32768	-9336	-32768	17940	-11002	-2956	-76	-12192	-24384	4814	8016	4326	-20248	-1996	32300	3033	-3979	66	117	142	1
-8876	-3588	15064	-4764	22309	3714	-22132	4544	-2948	-1482	19706	4044	-22100	668	8528	-7590	4971	2594	-32768	12180	-21084	-3415	17116	861	-9924	-832	-30304	-923	24340	-5587	-13964	2056	7956	9075	-1700	347	117	130	1
-8556	-5336	15064	-5997	31241	4437	-24964	4704	416	-5028	22218	3273	-25328	1188	15784	-11614	-4838	3418	-30004	5784	3980	-12507	29909	4552	-23668	-10264	-22016	-15252	25602	-8352	-5208	2172	-5540	3724	2826	-844	107	118	1
-9352	-6392	16004	-6832	32767	6394	-28496	2924	5084	-11246	25428	2099	-24264	-1100	32767	-7292	-27415	6388	7564	-2692	32767	-10679	28607	11415	-31348	-15876	32767	-17998	3019	-9862	856	6536	-16992	-11952	21605	-274	131	122	1
-8840	-8076	18904	-9055	32767	11099	-32768	-1620	11084	-17761	28114	1448	-13704	-2064	32767	-13887	-18304	8091	-17408	-7896	9164	9454	32767	-699	-14976	-10076	-14544	346	22270	-4845	-32768	800	29188	-72	4307	1969	134	111	1
-19084	-11308	17720	-13613	32767	18440	-32768	-3344	5948	-24541	29272	3228	-20156	-6560	9400	-19533	-10997	6285	-21128	404	27824	8978	23218	-17700	-32768	1708	-4400	-13532	25470	-8417	-21604	-18240	7036	-7096	10218	-1174	141	175	1
-32768	-9160	21712	-13422	32767	21011	-31144	-6984	-13504	-20410	31370	6009	-27748	-15924	-12188	-16511	-12740	4041	-28148	19304	-4912	-1433	9479	-12751	-16644	2620	-23892	-13210	21107	-681	-18804	-4684	-18080	16062	9605	2212	143	96	1
-27344	-21124	27520	-11427	32767	24427	-28784	-6852	3320	-11981	21648	8605	-32768	-8312	-11700	6575	-17952	-3564	-10032	15024	9592	-2519	2789	-8973	-12472	-12752	-9940	2841	19480	-3587	-13372	4216	-15716	20652	9232	-1058	145	160	1
-32768	-18200	32767	-9610	32767	28260	-11352	-3896	-30356	898	18163	7257	-29128	1376	-1632	8799	-21714	-5527	-11964	-2724	17288	-1979	2721	-3573	-15944	-5384	-10924	11468	11288	-629	-17972	12076	-14620	18690	14563	-1951	141	192	1
-17900	-15420	32767	-6886	-16536	18188	-15532	4364	-13352	-4914	7843	4337	-32768	-3968	-7420	6773	-19735	-5563	-8748	2520	15208	-350	1921	-2332	-20216	3368	-10364	-1850	9145	-1935	-23860	4328	-5220	-5604	16570	-297	135	172	1
8704	-11892	24468	-3494	-32768	12278	-11308	-2608	5472	-14046	-3270	-478	-31948	4340	-7028	5168	-19777	-5823	-8584	3136	14616	1068	2229	-1023	-18708	-7144	-4932	-11893	6014	-3583	-22580	-5768	-1732	-8969	17652	-3806	125	165	1
7212	-8908	11048	-4713	-32768	6854	-6048	-1584	1896	-7649	-12415	-3224	-22160	3428	-7648	-4054	-19190	-7716	-6636	6064	13820	2545	2815	-720	-18532	-3916	-3116	-3893	5526	-421	-17552	-4424	-856	-1199	15169	-5226	119	113	1
2776	-11248	9748	-4359	-32768	679	-1808	-656	-664	-555	-20170	-6859	-17192	-3316	-8844	-1008	-16812	-10011	-7708	5688	13456	2372	3013	-910	-17132	-1532	-4700	4180	5816	393	-16176	3080	-1320	3769	14662	-5877	144	112	1
-1948	-10748	11272	-3676	-32768	-6647	-3356	708	-3820	1637	-26055	-9145	-12380	-752	-9848	2665	-13870	-9901	-7620	7152	12800	2617	3603	-1192	-17600	1244	-3844	1292	4513	271	-17152	3808	-648	3386	14738	-5380	130	109	1
-7568	-10204	13364	-4130	-32768	-14983	-3644	1460	-5776	1370	-32005	-10625	-10248	-2068	-11800	2268	-12130	-8319	-7976	6356	12784	2377	3731	-1901	-17348	-608	-4280	302	4072	-83	-15836	860	3160	218	12374	-2639	124	157	1
-11168	-9324	13876	-3094	-32768	-22535	-6116	904	-5820	2426	-32768	-12093	-10364	-1576	-11496	4818	-10229	-6816	-7824	5212	13204	1993	4654	-1961	-17100	-2308	-3044	2432	4238	128	-14872	-308	4800	2914	12341	-1963	129	150	1
-13736	-7728	14076	-1657	-32768	-26987	-8376	948	-5372	5790	-32768	-13532	-8520	316	-10308	8412	-10429	-5754	-8392	5336	12676	2377	4921	-2073	-16304	-1900	-3480	2956	5238	223	-14680	1348	5568	7536	17592	-1614	134	113	1
-17896	-7780	15872	-1420	-32768	-27649	-11928	1680	-6312	8049	-32768	-14641	-6712	3044	-11120	14248	-8532	-4277	-8380	5860	12004	2390	5220	-1889	-15336	-68	-2788	2648	6161	-385	-14592	2420	5300	7651	18199	-1791	126	123	1
-24844	-9252	17188	840	-32768	-27064	-17292	1696	-6264	9649	-32768	-15544	-5500	4024	-13188	18893	-4235	-3226	-8224	5424	12424	2574	5331	-1604	-13932	-780	-2248	2678	7791	-1463	-16048	5748	2156	8013	13325	-3603	141	103	1
-26128	-11992	19236	2267	-32768	-25902	-23708	2160	-10696	11173	-32768	-15620	-5996	4912	-9288	23293	-3950	-2209	-8464	5596	12172	2667	6138	-1689	-15992	-1104	-2764	2262	9173	-1555	-17288	2380	2964	2271	11601	-2828	125	116	1
-32524	-15216	20588	3520	-32768	-25191	-32768	3716	-13272	9240	-32768	-16759	-6476	1988	-3020	22732	-3722	-3732	-8876	6312	12248	2869	7050	-2150	-16588	-664	-3228	1534	10334	-1735	-15636	3316	3384	1295	9271	-2443	126	116	1
-32768	-21176	23104	3960	-32768	-24226	-30108	156	-16148	10005	-32768	-18361	-10172	-3044	-3512	18105	-1367	-6301	-8752	6160	13000	3070	8639	-2444	-17500	-1240	-2680	547	11937	-2515	-15524	4392	6772	3035	9721	-2817	125	121	1
-32768	-9296	11172	-5662	-32768	-29068	-28844	13696	-27868	4497	-32768	-12249	-28320	-5460	17996	9511	-10324	-6809	-8640	5828	13476	3168	11713	-2584	-18852	-1588	-1248	-162	13720	-3426	-16956	4912	8348	3468	11225	-3635	125	149	1
-32768	5168	-10980	-4518	-29385	-29692	-16108	4972	-20392	-9917	-26829	-6255	-9504	6040	32767	-1357	-7976	-5070	-8524	6764	13488	2907	16635	-3461	-20720	-880	-1456	-1530	15924	-4207	-20288	2640	9200	5044	9132	-2514	113	141	1
-32768	12680	-32768	-852	-15902	-5317	-4108	-1036	-25992	-6115	-4811	-7269	-17304	1480	32767	-5664	-3540	-2857	-8948	6240	13708	2733	22698	-4065	-21084	-3472	-228	-1554	18488	-4608	-19796	1400	11732	6115	3699	-3460	131	123	1
-32768	9868	-32568	-16484	1888	9076	-6644	7388	-24404	-5289	15737	-2167	-15852	1728	19640	-11978	-312	1436	-8936	6828	13916	3831	31252	-4549	-23252	-4032	1680	872	21439	-4177	-20920	1476	16976	6662	-4927	-3689	141	120	1
-27752	-12720	-7472	7078	18769	9694	-11872	7312	-22420	-1881	25551	3235	-7992	1328	-252	-17273	4128	-1078	-8132	6732	14184	6385	32767	-6640	-27472	-4680	3988	5000	24259	-2866	-20492	408	32767	4031	-22744	-2624	130	140	1
12464	7832	32767	7090	24922	-1716	-29864	10984	32767	-7249	17200	7318	-4720	-3904	7852	-7751	10715	5678	-4520	9816	18416	13605	32767	-10543	-32768	-3472	12832	15495	26911	-1718	-6528	-4716	25028	13491	-17648	-8442	128	145	1
-19600	22988	10704	-2895	32767	6156	-28816	-1268	-15904	29957	20865	7702	-32768	-11332	22656	1397	2006	1736	-12552	11372	18772	17046	32767	-18529	-32768	4692	10068	24419	27774	-1800	-21848	2708	2812	32601	-1345	-8526	108	128	1
-32768	-32768	32767	8908	7454	20160	-19744	-10396	-24924	8667	24315	3238	-22956	-828	5232	19040	7820	-1042	-32768	11852	18320	17467	32767	-19002	-28396	3500	-13216	14178	25470	-2233	-30948	14304	-13000	29692	-6533	-3339	129	128	1
-17604	14076	30116	15896	13360	9716	-19688	-2452	-5996	28129	21234	3067	-13056	-192	-12124	8061	9514	-8695	-32768	24764	25952	4743	32767	-24021	-27268	3296	-19676	1639	23728	-6249	-32768	2908	-7632	-2149	-18569	8628	92	116	1
-7028	-23524	8976	4959	2498	6279	-4244	10924	-16400	9378	16143	4000	-9516	-512	-14060	-3466	5970	1101	-32768	9672	32767	-449	5711	-19173	-20272	-8376	-18732	-5370	18490	-10402	-32768	1076	-5016	-14225	-18651	10018	82	119	1
-10968	-5236	13664	3659	1024	4940	-18576	8192	-13580	-6277	11222	2391	-20048	-2868	-12628	-10082	8889	-1852	376	5844	32767	17579	-24172	-19488	-19508	-1376	6688	12615	5634	-3058	-32768	-608	-7028	-14824	-18131	9272	135	105	1
-9912	-2632	15060	2576	1204	2007	-23736	1128	-7824	-4426	9820	2697	-23472	-2212	-5048	-6076	15696	1065	5744	15136	21984	11067	-32768	-17388	-10864	6924	3976	22684	-3670	3114	-26944	-8284	-5128	-2729	-20223	3944	117	93	1
-9444	-2348	14748	347	1441	137	-17168	4220	-7252	5801	7461	1801	-23428	-1488	-4456	-4435	15829	1331	3936	14020	15848	-503	-32768	-13224	-6352	3412	476	13210	-12600	7935	-19636	-5400	-6800	5703	-16890	6123	133	105	1
-8464	-3208	14140	-1395	1696	-830	-16332	3136	-5756	6925	4971	586	-17232	712	-1656	650	17748	6502	-860	8932	13456	1972	-32768	-4536	-5072	-604	-768	5966	-19023	9601	-15540	964	-7572	4081	-13676	9336	120	132	1
-8044	-4664	13852	-1651	1918	-618	-15928	960	-3712	2504	4951	162	-16412	-1600	888	-1201	17009	4164	-3964	9896	10720	7213	-32768	4585	-5812	-588	-2344	5586	-24270	11165	-11480	144	-8008	-155	-12394	10374	142	124	1
-8224	-6252	13384	-763	1555	568	-16512	-784	-2948	-4662	6424	-818	-16360	-4264	980	-3914	14994	2203	-6272	11560	9628	6322	-32768	11914	-7340	1832	-3704	2979	-28971	13419	-10396	144	-8528	-1129	-11219	9273	155	132	1
-8568	-4388	13916	-462	1793	1145	-16520	-1008	-2912	-5034	6423	171	-14552	-2648	2272	-4904	13912	2137	-10144	10932	10124	2476	-32768	18489	-8772	-168	-3304	-1830	-32768	14975	-10212	-120	-8164	-4920	-10509	6843	138	134	1
-8984	-4336	13620	-1338	1893	1479	-14588	-776	-2648	-1823	6101	431	-13668	-1632	3036	-3199	12169	2008	-13488	10840	13084	22	-32768	24068	-12748	-584	-5292	-7509	-32768	15735	-8664	-2720	-8848	-10109	-12300	5691	138	124	1
-8196	-4596	13500	-25	1909	1871	-15576	-1188	-3524	-87	7050	587	-14708	-3180	2896	-5355	12066	1824	-17812	10404	15348	-1023	-32768	28728	-15960	-2868	-5720	-10854	-32768	15893	-7320	-3268	-10012	-12013	-12148	5007	124	140	1
-9684	-4432	13248	80	2043	2022	-15028	-972	-4704	-406	7468	1421	-13340	-4080	6436	-7394	16200	1190	-18844	10084	16508	-2256	-32768	32074	-20520	-4008	-7008	-10082	-32768	16138	-6020	-3040	-8728	-17459	-11120	6415	126	121	1
-9192	-4032	13232	270	1328	2039	-14448	400	-2996	-1053	8332	1730	-13036	-5156	2420	-7786	19675	2637	-23176	8980	21156	-1317	-32768	32767	-23972	-5280	-8064	-7563	-32768	16156	-7840	-4204	-4892	-19143	-9712	7512	124	99	1
-8940	-4572	13376	363	1265	2237	-14040	-732	-3720	-862	9260	1837	-14272	-4180	-976	-5202	17715	3110	-30096	13276	24572	-3246	-32768	29869	-26340	-3896	-12624	-2869	-32768	17178	-7840	-2392	-904	-19765	-7855	8732	123	127	1
-9132	-3748	13948	-309	2267	2108	-16448	1276	-4700	1137	9654	2017	-17788	-3104	-1172	345	12946	2575	-32768	12104	22524	-6510	-32768	23523	-27472	-952	-15064	-2511	-32768	18527	-12644	696	340	-14749	-5172	8338	121	126	1
-9212	-2824	14344	-1428	4217	1563	-17492	4688	-3584	-276	10891	1981	-18852	-476	2864	455	10464	2980	-32768	5888	17136	-1238	-32768	20962	-29700	-8324	-15688	-3340	-32768	14404	-18680	5840	14692	-5905	-7760	8074	109	127	1
-8796	-3648	14168	-1809	6993	1593	-18520	1184	-2376	-1669	13039	2186	-17788	-2904	6740	-3589	10171	3055	-32768	7312	-1352	-5427	-32768	16768	-28172	-7884	-27088	-3963	-31885	11213	-10276	5552	32767	-8057	-1863	9028	117	123	1
-8688	-4732	15124	-2324	10947	2125	-18576	464	-2072	-1357	13404	2355	-18264	-4496	8628	-2819	10482	1617	-32768	-2720	-32768	3407	-22092	753	-2468	-4276	-30524	-4834	-9917	10380	-19656	-7908	32767	-9445	-5765	4629	115	138	1
-8572	-4280	14772	-3230	16832	3326	-20820	3888	-2180	-336	18047	3626	-20124	76	9164	-5490	7217	2123	-32768	3272	-32768	17775	-1011	199	-3764	-8436	-27468	2912	14907	289	-17508	-3216	24412	4482	-3912	-1796	113	131	1
-8796	-3892	15224	-4207	24164	4042	-23788	3144	-1468	-2775	20654	3755	-23296	-944	11572	-6925	603	2872	-32768	9644	-13440	-11123	21771	1616	-14432	-1884	-26684	-86	25435	-7183	-13612	1344	2784	11016	319	-248	118	118	1
-8244	-5828	15400	-4675	32767	6443	-26856	2776	1792	-4919	23473	3046	-24692	-1172	25004	-9491	-14107	3337	-24028	9400	17684	-9833	24466	157	-21884	-11856	-12352	-12116	19484	-7766	-3812	736	-9632	6445	5429	-1241	116	127	1
-7588	-10224	16764	-5123	32767	10606	-32768	800	8268	-10987	27000	1445	-15272	-1008	26152	-13758	-22163	7885	4908	-32768	21324	16871	32767	3949	-22432	-17580	-984	3198	19515	-3596	-18260	4096	8704	2728	14293	1039	110	125	1
-8292	-10680	20892	-7018	32767	18995	-32768	-3708	12852	-23243	28116	1507	-21160	-5296	16760	-19230	-12246	4464	-32768	-19908	32584	15755	28288	-9693	-23448	-12692	-15840	-18503	31612	-9479	-16344	-9504	3660	197	13137	-8704	142	148	1
-32768	-11824	23632	-9605	32767	27261	-31736	-3644	-8100	-24071	30048	3371	-21144	-8636	-1160	-17412	-12597	4029	-30300	32767	-720	-5626	9489	-12447	-17316	20024	-30036	-5279	25708	3000	-20844	-572	-16304	19227	7047	379	137	141	1
-32768	-3536	22752	-8997	32767	25643	-26384	-2312	-10072	-18079	24563	6462	-25212	-11704	-5684	-18187	-12190	4191	-9404	-21956	22160	-2719	3227	-10897	-14384	-10940	-3792	-9940	17725	-5754	-15472	10272	-21516	24491	8182	-419	133	118	1
-32768	-14692	32767	-10883	32767	27164	-17268	-2476	-11440	-6048	20462	6188	-32768	2920	-9216	6229	-18753	-4220	-10656	3752	17308	-3077	6965	-5237	-13872	-4760	-11388	5440	16665	-3042	-15992	7088	-15680	16852	15640	67	125	196	1
-32768	-18492	32767	-7993	13346	24078	-13192	-932	-23568	-2440	13705	2227	-30540	-2928	-2868	2925	-21141	-5868	-10140	8892	12684	-656	2796	-1850	-19968	-4468	-9324	8243	10463	-1988	-25252	3572	-7476	2270	14958	-626	136	179	1
-19456	-19044	32767	-11438	-29271	13008	-11924	1160	-6560	-10693	3678	1081	-31548	-3448	-7016	4392	-19147	-5151	-9544	5484	13876	847	1773	-1605	-18616	-3776	-7408	-6251	7632	-2799	-22392	-5752	-2724	-6095	16488	-4666	125	158	1
9276	-13072	11724	-4890	-32768	6029	-9240	-2636	6552	-12131	-5904	-3076	-26680	3676	-6080	114	-18029	-7338	-9360	4408	14300	982	1817	-1366	-18420	-5384	-6596	-7554	7259	-2986	-18716	-4444	-2272	-1429	16020	-7052	141	146	1
7540	-11012	8184	-2400	-30597	-978	-3612	-1508	880	-328	-13814	-5625	-18296	2500	-7672	-3785	-17401	-8965	-7292	6980	13204	2795	2939	-116	-17480	-828	-4132	426	4507	243	-19196	1648	-876	835	14803	-5378	117	140	1
796	-10428	10216	-2420	-29282	-8852	-2300	1416	-2144	6667	-19999	-8132	-15144	-3812	-8924	1034	-15001	-10873	-6560	6492	13516	2941	3426	-989	-17888	-596	-4072	6590	4944	476	-16144	2476	828	2597	14289	-5168	122	82	1
-3716	-9664	12364	-1866	-32366	-17450	-3740	1956	-4036	6725	-26471	-9127	-13004	64	-9904	3543	-12445	-9937	-7848	6676	12724	2693	3664	-1798	-17008	108	-3368	5486	3518	399	-17568	1616	2196	3143	12791	-4076	117	141	1
-8764	-7696	14564	-18	-32768	-24325	-5092	1704	-5536	7050	-31674	-10108	-11804	-1164	-11336	5352	-11094	-8836	-7884	5808	12788	2397	4259	-1690	-16388	-368	-3508	2462	4367	-534	-15540	2036	3784	3158	11451	-2485	112	124	1
-12292	-4956	15624	885	-32768	-29431	-6832	1764	-5352	8162	-32768	-10586	-9572	-240	-10840	7617	-9993	-7481	-8324	6332	12040	2423	4399	-1312	-15528	-2032	-3592	2617	4577	-1003	-14548	1060	3928	1432	10420	-2798	140	127	1
-14160	-4024	15372	1719	-32768	-30686	-9164	988	-4724	10942	-32768	-10963	-8408	808	-9452	9459	-9541	-6125	-8460	6612	11840	2323	4373	-1158	-15784	-984	-4252	3849	5299	-1048	-14240	1852	3856	5350	14439	-3745	137	135	1
-18100	-5152	17220	2362	-32768	-28063	-13476	1872	-6096	11760	-32768	-11550	-7260	2524	-10292	17774	-8006	-5047	-8752	6776	11544	2074	3991	-1365	-15380	-624	-4444	3522	5564	-1415	-12960	3484	1632	8854	19392	-4909	129	156	1
-24468	-7316	17888	4434	-32768	-24993	-18376	2968	-5544	12368	-32768	-11783	-5692	5136	-12964	22133	-3614	-3793	-8576	6844	11488	1250	3435	-1889	-14568	68	-3380	2462	6103	-1566	-16172	3964	-204	6342	18343	-4063	129	126	1
-24992	-9100	20752	4673	-32768	-22407	-21948	3412	-9980	8715	-32768	-12124	-5084	6336	-8432	23727	-3803	-2894	-8876	6756	11408	1198	3304	-2503	-14596	184	-3584	13	7114	-1976	-16364	2468	1376	1676	13234	-2240	124	116	1
-30812	-14064	25280	5254	-32768	-20558	-32768	2576	-12852	5404	-32768	-14015	-6360	4080	-2440	19680	-4592	-2753	-8892	6844	11616	1172	3212	-2937	-15496	-336	-2852	-1035	8951	-2424	-16304	3784	4260	-2153	8474	-1288	125	126	1
-32768	-13152	22824	2221	-32768	-19762	-29996	2912	-20312	4472	-32768	-14425	-9840	-4492	-476	15263	-1170	-5126	-8396	6384	12564	1381	4596	-3153	-17260	-1348	-1844	-1364	10568	-2996	-16176	5112	6316	-682	9652	-1785	124	124	1
-32768	-13320	12252	-8682	-32768	-22239	-28492	5528	-23480	-6867	-32768	-12881	-27384	-4984	18812	9194	-9815	-6467	-8692	6216	13100	2048	7448	-3352	-19180	-1980	-1836	-2838	12567	-3956	-17800	4076	7128	115	10999	-3168	127	127	1
-32768	4124	-9712	-6941	-31159	-22823	-18632	5588	-19760	-9310	-28441	-7173	-12516	3448	32767	4555	-9450	-4614	-8512	6544	13504	2830	12213	-3790	-20920	-2480	-1516	-4204	14485	-5054	-20724	2916	9228	873	9575	-2881	114	150	1
-32768	6300	-32768	-8010	-16844	-6503	-3252	996	-26860	-9501	-6143	-7118	-17924	6756	32767	297	-5718	-2593	-8980	5824	14276	3528	18179	-4084	-21152	-4252	-548	-4057	17138	-5717	-20148	1000	11336	3576	5329	-3867	113	122	1
-32768	7652	-32768	-13908	2329	3283	-8080	5840	-24844	-5471	15391	-2064	-17776	1816	20312	-17599	-697	2088	-8288	7204	14568	4108	25915	-4153	-22880	-2424	48	-2804	19848	-5665	-21512	1952	13764	5398	-1345	-3757	131	120	1
-32768	-5480	-11040	6325	20305	5702	-11580	6932	-23792	3552	25392	4062	-10744	-1924	844	-17329	1880	-2857	-7408	9456	13864	5684	32767	-6458	-27056	-2668	2116	367	23067	-4236	-22188	724	24332	6755	-14197	-3399	149	118	1
-2844	5924	26564	7291	24496	-925	-23512	8628	20968	-1946	21603	5485	-2056	-4284	-9576	-13127	11624	718	-7304	9604	16848	9100	32767	-11152	-31404	-2656	9060	8586	26086	-2989	-19388	5304	32767	16954	-26270	-3272	120	142	1
-4904	32767	1884	-10839	32767	3422	-29124	8332	-7408	22004	20591	6146	-25792	-4568	20444	-2600	2433	3652	-4888	12216	19244	16305	32767	-19799	-32768	4388	11028	20225	27879	-2434	-20708	4280	14552	26212	-9495	-7671	125	136	1
-32768	-6824	32767	-11996	22411	13751	-27724	3364	-16732	19097	21921	6514	-31536	4024	14060	5878	-2148	11712	-31276	12632	16872	16054	32767	-27362	-32768	5524	-4564	19979	25835	-1451	-23056	5368	-6084	29168	-1988	-6062	116	118	1
-3740	-9272	10796	14051	17405	4227	-23444	-14248	-7952	6341	24495	-152	-15924	448	-16628	-5370	13283	-4043	-32768	15880	16912	16947	32767	-23640	-20428	-900	-22592	7957	27664	-5704	-28216	7792	-14416	15453	-8944	2068	111	126	1
-19472	-6568	16156	4933	5126	5327	-8900	10480	-15716	14633	18331	5974	-6596	-9992	-19648	-12095	1986	-381	-32768	20584	32767	10165	7817	-17565	-23048	-15136	-28716	1302	25273	-12242	-32768	2144	-2780	-10270	-17468	7954	93	133	1
-10444	-2076	17460	2806	3893	4017	-14032	-184	-12568	-6179	13183	2569	-16836	-5404	-13532	-10176	10540	1371	8404	-688	26172	11399	-18049	-19755	-24008	5528	12840	17107	8232	-3149	-32768	-4992	-9112	-9032	-18640	6503	90	87	1
-8736	-3620	15864	1750	2680	2713	-22836	-532	-7952	-1466	10069	3066	-23944	-6440	-7160	-5409	13758	802	4452	14580	24816	7744	-20112	-17910	-10492	5256	2644	18586	1510	861	-29260	-3636	-5548	-3853	-20628	3693	131	113	1
-10072	-3360	14744	1032	1646	1595	-18472	3004	-8816	5446	7412	2912	-22820	-2668	-4100	3735	17054	3121	6252	13560	17500	-2054	-23317	-13799	-8588	3784	420	8573	-6929	4816	-23628	-4228	-5160	2289	-16946	6659	128	118	1
-9156	-4208	14076	-446	1382	74	-16932	4620	-7276	6004	5199	2155	-19756	3616	-2724	5613	18933	4709	3032	9920	14952	-2998	-27297	-6789	-6044	1348	-184	1589	-14876	7307	-18964	-128	-6964	1098	-14444	9131	152	107	1
-8900	-4448	14112	-568	1420	-3	-16764	2584	-5160	1003	4800	1009	-17336	1888	-544	773	17502	5208	-1064	9792	13384	2610	-31998	2083	-5860	-1744	-2912	-107	-20410	8583	-16464	400	-8312	-2153	-12161	10832	116	125	1
-7896	-5864	13656	-1472	1791	9	-17852	752	-2920	-5059	5128	445	-17284	-608	1848	-3862	15518	4586	-3976	11896	11064	3041	-32768	10945	-6876	-160	-3160	-1476	-25676	10488	-12540	-844	-8136	-5486	-11770	10789	142	114	1
-7832	-5804	13312	-1832	2249	941	-16752	-1180	-2532	-6540	5333	300	-15720	-2504	1860	-5823	14296	4177	-6400	11192	10560	-1694	-32768	17857	-7416	-4	-3252	-2534	-30366	12054	-9948	-2420	-6916	-3389	-10651	9111	152	134	1
-8472	-5100	13308	-1586	3623	1028	-15488	-732	-2192	-4254	5339	1326	-15168	-3572	1512	-4096	12684	3322	-9788	9452	12216	-3149	-32768	22721	-10900	324	-4124	-6414	-32768	13014	-11100	216	-7920	-5649	-10861	7777	140	141	1
-8804	-5392	12564	-797	3476	1259	-14344	-1632	-2656	-1372	5555	1748	-13128	-2988	2312	-4074	11945	2741	-13248	11048	14584	-5359	-32768	25708	-14216	-456	-5892	-11080	-32768	13547	-8576	-3164	-8028	-10465	-11071	7580	142	123	1
-8936	-6236	12460	297	2789	2194	-16236	-308	-4492	-937	5641	2717	-14160	-3836	3420	-5634	14636	2691	-15204	10108	16196	-7192	-32768	27775	-17676	-3532	-5576	-12989	-32768	13210	-7000	-3720	-8660	-14691	-12279	7045	133	123	1
-8784	-5244	12696	1105	1766	3110	-14564	-2632	-5440	-263	6273	2372	-13204	-4960	2092	-8166	18952	2945	-19164	11072	17812	-7036	-32768	29251	-20700	-3432	-6092	-10352	-32768	13763	-6044	-3472	-7972	-18918	-11569	7502	125	125	1
-9568	-5456	12628	1080	538	3769	-13704	496	-3900	-746	6978	2482	-13268	-3332	52	-6022	19689	2374	-20420	10772	20984	-7330	-32768	29174	-23772	-3336	-8136	-8375	-32768	14086	-7408	-3144	-3736	-19672	-10616	7598	126	121	1
-9220	-4868	12932	1180	67	4108	-13176	1092	-3460	-594	7774	2050	-15068	-1968	-1036	-1652	14930	2581	-26688	11876	25464	-7547	-32768	25755	-26448	-4468	-10104	-3787	-32768	15097	-5712	-2344	-632	-17658	-8823	7279	131	108	1
-9800	-4188	12936	883	675	3559	-15768	1784	-3812	1841	8530	2164	-16780	-2220	1556	153	11363	2621	-32708	11008	25848	-6208	-32768	19522	-26312	-3056	-13068	292	-32768	17045	-11204	-720	160	-16381	-5323	7610	125	120	1
-9412	-4260	13772	158	2307	2846	-16200	2100	-3916	2051	8696	2265	-18740	-2432	4112	1323	12217	2462	-32768	6860	19316	-2792	-32768	13705	-29936	-4988	-15916	-1958	-32768	17374	-18532	6104	20360	-10884	-11019	8651	121	124	1
-8844	-4212	14008	-698	5132	2641	-18676	2016	-2280	2881	12081	2993	-18880	-3156	6196	1206	12178	2254	-32768	9564	840	6240	-32768	10384	-28900	-12576	-23668	4407	-31527	13320	-12528	2520	31956	-9794	-4029	9245	127	122	1
-8880	-4480	14180	-1834	9070	2598	-19276	1288	-1596	2376	14707	3867	-18720	-2348	8004	743	10886	1343	-32768	-1804	-31236	2871	-24991	-804	-6768	-2840	-30448	582	-12373	12754	-18084	-7036	32767	-8828	-7532	4099	128	131	1
-9220	-4252	14196	-2803	14526	3407	-20464	2928	-2220	2425	17494	4380	-20072	-460	8792	-3405	7257	2036	-32768	412	-32768	12693	-1890	-79	-4076	-8696	-28408	677	12705	-495	-18884	-1332	24760	3302	-4456	-1812	136	120	1
-9040	-4164	14932	-3716	21408	3962	-22968	2820	-1208	525	20084	5002	-22844	-1480	11060	-5580	2039	2244	-32768	5792	-13120	-12818	25565	1779	-18708	-5032	-26408	-6038	22234	-8154	-15524	424	4256	7458	-1335	-667	130	116	1
-8396	-6700	15172	-5432	30847	6154	-26312	2712	1096	-3036	22976	4173	-25168	-1200	20796	-9719	-10275	2648	-22268	2440	8872	-8670	25021	-650	-20448	-12356	-15020	-17343	20927	-9124	-3132	-2848	-10400	4849	5764	-1990	136	127	1
-7620	-10008	16940	-6980	32767	10896	-32572	756	8160	-10881	26657	2040	-21196	-2308	32767	-13691	-29231	6603	-1928	-27304	21412	21492	32767	-216	-24432	-21224	88	6518	19818	-2688	-22864	-1532	21976	-4248	9188	-2516	116	125	1
-8824	-11472	19956	-8187	32767	19710	-32768	-4856	9920	-19269	27842	1994	-20676	-9660	16776	-19238	-12924	3501	-32768	-14916	31940	17156	29023	-6115	-20072	-16820	-15032	12348	23077	-2457	-18708	-11364	7228	9064	12042	-10118	131	144	1
-30428	-14276	24240	-12304	32767	29021	-31380	-3672	-6028	-22241	29547	3518	-20548	-5972	-1576	-14723	-10629	4290	-32428	32767	3452	-4147	11814	-8280	-16688	18348	-30436	2421	25350	2852	-18952	-1660	-12964	23874	7440	-794	138	136	1
-32768	-5492	24320	-10037	32767	27016	-26544	-3936	-10968	-16126	26575	6262	-31072	-12228	-15928	-8694	-12766	1817	-32768	32767	1004	-5841	14068	-7073	-14648	-9908	-3108	-7770	16788	-4751	-16792	11500	-19188	29702	8446	-744	139	111	1
-32768	-17080	32767	-14776	32767	26654	-20952	-924	-12148	-8496	20911	6608	-32768	-892	-8328	7620	-18934	-3778	-8264	14132	11460	-798	5642	-2602	-12700	-2744	-11424	7347	16635	-2144	-13972	8580	-13712	20865	15520	-1640	141	145	1
-32768	-20164	32767	-11920	11573	22521	-15976	-436	-20800	-3623	15318	5256	-30288	-1660	-2700	5620	-20605	-5294	-8888	10596	11868	-175	2653	-2283	-19308	32	-7668	7187	10385	-1749	-24880	7716	-8576	6642	13898	-902	141	179	1
-18168	-17880	32767	-8791	-23966	14677	-11592	264	-5812	-10504	4458	1684	-30624	-764	-7560	5467	-18970	-4944	-10400	5268	13908	478	1633	-2295	-18188	-1696	-8484	-5224	8125	-2912	-23228	-844	-3740	-4689	15589	-3012	134	143	1
8132	-11752	13016	-3130	-32768	7569	-9188	-2964	4408	-11049	-4214	-1261	-26140	424	-5608	954	-18985	-7730	-8648	4700	13920	1406	1468	-723	-18576	-6776	-5744	-6289	5519	-2334	-17884	-2832	-1680	-4322	16017	-5885	144	133	1
8508	-11296	8660	-754	-28539	1416	-4024	-2728	1164	332	-12193	-3617	-19036	652	-6816	-1172	-16380	-9603	-6912	7016	13188	2023	1772	-240	-16756	-908	-3400	221	4653	-756	-17704	1008	-1028	-422	15284	-6014	136	144	1
1784	-10984	10048	265	-27453	-6037	-2896	1196	-2208	8201	-18522	-6083	-16396	-1588	-8812	2715	-14688	-10871	-7112	7472	12612	1994	2095	-1023	-17608	428	-4208	5342	5048	-624	-18064	1564	-796	72	14709	-5462	135	136	1
-2328	-10496	12196	575	-30224	-15167	-4212	2472	-3804	7362	-25071	-7291	-14184	-1200	-9308	5443	-13866	-10839	-7164	6928	12824	1847	2342	-1675	-16804	612	-3124	3691	4059	-868	-14924	2412	2436	1887	13496	-4875	138	64	1
-7564	-9148	14116	1862	-32768	-22992	-5016	1532	-4704	7953	-30311	-8240	-13292	-48	-10292	7331	-11569	-9953	-7472	7140	12420	1470	2402	-2058	-16000	-80	-3188	1870	4507	-1298	-14888	736	3076	2134	12014	-3381	123	129	1
-10832	-6924	15104	3318	-32768	-28918	-7212	1612	-5492	9346	-32768	-9089	-11136	348	-10300	8964	-10818	-8717	-7608	6460	12160	1008	2618	-2219	-15852	-1024	-3168	2911	4641	-1198	-13340	1320	4240	2755	12031	-3767	130	139	1
-13468	-4800	15852	3815	-32768	-31295	-9144	1464	-5504	11739	-32768	-9501	-9424	1256	-8720	10259	-10683	-7587	-7956	6700	11972	718	2572	-2240	-15440	-712	-3380	2627	5228	-1681	-13140	1696	4960	4736	12866	-3720	138	165	1
-17620	-6008	17920	4589	-32768	-28494	-12516	2144	-7044	12019	-32768	-10516	-8784	3916	-8556	14737	-10229	-5876	-8172	6676	11920	486	2261	-2480	-16016	-360	-4252	1348	5667	-1959	-13796	3996	3556	5494	19791	-5164	141	124	1
-23768	-5376	17696	4980	-32768	-24391	-16260	3276	-3852	9729	-32768	-11515	-7116	5292	-11664	19167	-5925	-4245	-8288	7220	11920	110	1934	-3051	-15648	64	-4332	108	5894	-1932	-15764	3884	-1112	6428	20811	-4266	129	118	1
-23536	-7944	19032	2424	-32768	-20198	-20356	3248	-8828	5591	-32768	-12845	-5156	6896	-8764	21853	-5884	-2060	-8308	6756	12404	280	2113	-3365	-15348	-1452	-3524	-668	6583	-2072	-18256	1012	-92	1381	13986	-2631	138	134	1
-26436	-11648	22504	3624	-32768	-17873	-29676	2668	-10076	3976	-32768	-14802	-6972	5252	-2640	17764	-5138	-1172	-9360	5732	12140	659	2521	-3194	-15468	-3112	-3128	87	7851	-2245	-17044	1184	3088	-2887	8764	-2104	131	117	1
-32768	-14816	25192	1872	-32768	-16241	-32768	3440	-14804	3152	-32768	-16306	-10868	1236	2332	15514	-4746	-2832	-8848	6128	12600	1198	3727	-2646	-16452	-1640	-2184	-1012	9252	-2618	-15280	4340	5780	-1744	8538	-2577	126	131	1
-32768	-2412	21696	-9252	-32768	-20842	-32420	4012	-11584	4667	-32768	-16615	-17608	-4292	4336	10366	-1177	-6405	-8324	6508	13076	1895	5934	-2934	-18120	-392	-2608	-3438	11382	-3491	-16932	4672	8160	-320	11482	-2996	126	130	1
-32768	-856	3152	-6941	-32768	-21177	-24988	6996	-21964	-7882	-32768	-10448	-20152	-6676	29728	6195	-14142	-5749	-7240	7396	13284	2765	9568	-3653	-20416	-1140	-2096	-3668	13644	-4511	-19044	3212	7640	527	10517	-2700	128	133	1
-32768	532	-23292	2148	-24435	-15166	-9772	-760	-24656	-4244	-19048	-4241	-8960	4868	32767	548	-5435	-4818	-8184	6296	14020	3304	14556	-4621	-20596	-1352	-2384	-3738	13923	-4559	-20728	1272	8956	3549	7862	-2489	127	130	1
-32768	15496	-32768	-8898	-8484	682	-3724	10156	-24124	132	3043	-3568	-18696	3652	27860	-1055	-2363	497	-8696	5788	14556	3686	20790	-4544	-21612	-4684	-1148	-1727	18435	-5469	-20260	964	10536	5856	2650	-3822	127	116	1
-32768	-3592	-23576	-7338	11247	3343	-11872	5100	-24280	-1652	19469	2406	-14436	2284	12184	-11754	-2178	1842	-7708	7512	14680	4324	29110	-4718	-24020	-2180	220	-672	20785	-5329	-21748	1364	15616	5917	-5697	-4210	136	119	1
-26004	-7816	648	14710	25590	4471	-14784	3204	-15556	3445	25281	4925	-8436	-1392	-3524	-16219	4393	-641	-7396	8464	14728	6309	32767	-7802	-27540	-2416	2336	2642	23786	-3740	-20660	2816	31784	6540	-22895	-2873	132	126	1
24708	-4444	32767	3167	31437	-3570	-32768	13944	32767	6013	12379	5526	-9276	-2188	1844	-7920	8455	3839	-2940	13032	17732	10996	32767	-14058	-32768	-220	9232	13376	27106	-2642	-6444	284	23264	8533	-16470	-4977	135	133	1
-32768	7544	31140	-4700	32767	8115	-23144	2760	-21692	21576	21622	7048	-28076	-6900	18552	5145	10770	-105	-9020	12496	18676	16619	32767	-23417	-32768	5744	10412	21617	26621	-1651	-20720	1184	7024	24340	-4486	-6131	112	135	1
-32768	-32768	32767	5801	9949	15251	-18860	-5200	-16072	-611	22801	1320	-19188	4852	8224	-1634	5941	4949	-32768	12152	20876	16692	32767	-27724	-25156	2108	-14696	17403	26467	-2129	-22216	2460	1296	24751	-2564	-5666	118	118	1
-5616	5804	22120	14301	13767	7925	-18964	-5236	-4024	14825	22388	842	-16444	-2600	-14588	-6062	8836	-4684	-32768	22152	24380	13804	32767	-21072	-22124	-4168	-26536	1677	28914	-9589	-30044	6504	-5688	-767	-17931	6545	123	148	1
-10164	-13520	7152	3952	3017	4380	-8516	9440	-14996	8820	16682	4641	-7480	-6752	-13672	-8878	5112	-879	-19024	10808	32767	7473	-2594	-17228	-27576	-9536	-15228	1021	19485	-10142	-32768	-2184	-5832	-15852	-17726	7092	64	109	1
-11788	-2560	16280	2094	2071	3561	-17632	3724	-12024	-1996	11747	3007	-19816	-4124	-10952	-8238	10058	111	8648	6728	23468	10438	-13930	-21728	-18032	9016	7432	21959	6605	-1667	-32768	-6380	-7588	-9571	-20722	5876	126	99	1
-10572	-2984	14756	1793	1343	1753	-21700	3376	-7776	-4669	10205	2909	-22864	-2916	-5592	-5635	13700	933	6852	13992	21332	3972	-20892	-17772	-9132	3816	1876	15142	-1678	755	-25024	-6744	-4584	-147	-19508	4900	110	109	1
-9768	-3272	14460	521	973	390	-17196	2968	-7216	3334	7823	2026	-20172	-1504	-3916	-582	15963	3341	5244	12732	16888	-2516	-24192	-11872	-7020	2400	944	7064	-10172	5689	-21244	-2452	-5052	4872	-15325	7065	133	116	1
-8956	-3928	14192	-517	932	-450	-16272	1788	-6216	5846	5401	1401	-17284	-384	-1960	1072	17662	5161	1600	10464	14804	-585	-28354	-4154	-7432	148	-1240	2753	-16612	7730	-18832	920	-6592	1472	-13781	9241	138	121	1
-8192	-5152	13752	-622	851	-396	-16172	628	-4476	3996	4869	1128	-16364	-1036	-388	209	17060	4567	-3700	10924	13604	3771	-32768	4919	-7336	-1676	-3628	643	-22239	9457	-15992	-56	-7336	-2954	-12425	11584	136	114	1
-8132	-5692	13448	-241	549	298	-15644	324	-2548	-388	5174	517	-16416	-3008	776	-1855	16291	3224	-5300	11620	11572	2904	-32768	13063	-7836	-628	-3616	-761	-27045	11466	-12104	-1244	-6840	-3827	-12446	10299	139	119	1
-7572	-5784	13364	1349	200	1516	-16020	-2200	-2672	-1916	5666	591	-13528	-3736	900	-4859	14860	2919	-7900	9628	11048	-11	-32768	18573	-8988	-468	-2388	-2253	-30823	13017	-11784	-2068	-6180	-4644	-12356	8594	144	113	1
-8452	-4668	13404	1636	148	1985	-14436	-2128	-3388	2011	4969	1554	-13672	-5388	1380	-701	14263	2020	-11860	9596	13448	-1267	-32768	21687	-12576	-544	-5000	-6677	-32768	14457	-11176	-2924	-6164	-7217	-12615	7533	147	142	1
-8036	-4568	13788	2091	-268	2229	-15284	-348	-2344	4520	4875	1841	-13820	-2308	1520	1063	14353	1971	-13864	9452	14500	-3838	-32768	23176	-14852	-2264	-5448	-9334	-32768	14989	-9708	-5248	-6904	-8764	-13431	6154	123	152	1
-8136	-5672	13664	2555	-467	2926	-16404	-1504	-4076	4479	5263	1762	-15656	-2456	3144	-2969	15686	1973	-16428	8244	16888	-3932	-32768	24723	-17436	-4624	-5884	-9804	-32768	15722	-6820	-3444	-8348	-13765	-13958	5307	118	125	1
-9212	-3828	13596	2027	-438	2930	-15504	2900	-4308	1428	5889	1982	-15676	-2340	4048	-3775	19018	1694	-18228	7784	19780	-3573	-32768	25876	-21108	-5620	-7104	-7515	-32768	16535	-5352	-3992	-7096	-17234	-13156	5817	127	114	1
-8996	-3460	13764	1300	-169	2382	-14504	2812	-2060	-2340	7217	1294	-13880	-860	3932	-3799	19008	2362	-21736	9584	22812	-3882	-32768	25783	-24028	-4616	-7944	-5748	-32768	16495	-6652	-2828	-4116	-17737	-10238	6512	129	132	1
-7724	-4488	14120	715	472	2425	-14804	-1348	-1212	-222	8641	1013	-16432	-3856	3568	-1997	14353	3072	-28412	10116	26660	-4997	-32768	24533	-26040	-6236	-11720	-4274	-32768	16534	-8836	-572	452	-17050	-8108	7853	119	123	1
-9116	-4092	14068	-392	1552	3004	-17552	-884	-3384	4112	9810	1420	-17880	-5476	2868	2929	13434	1011	-32768	2576	23748	-1499	-32768	24534	-25512	-9932	-11736	428	-32768	14475	-12000	3316	-1664	-11650	-2623	8140	116	122	1
-8868	-4504	14272	-438	1595	3036	-17692	3024	-3696	1966	11515	1829	-18892	-2200	3232	2382	12861	1116	-32768	10968	15916	-5864	-32768	20608	-28408	-3456	-18560	-754	-32768	12912	-16264	6952	17756	-6744	-8780	8764	117	125	1
-8412	-3052	14904	-1698	6411	2544	-18248	3056	-2032	-2378	14038	2256	-18220	-1348	4832	-2231	9946	1834	-32768	8972	-5952	-12133	-29866	14571	-26936	-5292	-28228	-7964	-30204	8316	-11156	1088	32767	-11837	-362	6991	123	115	1
-8396	-3404	15104	-2478	10623	2639	-20352	2004	-2036	-374	16178	3035	-19740	-1280	6720	-5352	7748	2030	-32768	-5416	-32768	8911	-21060	1240	-1200	-13844	-31220	-8268	-8569	7968	-20400	-9148	32767	-12091	-5189	822	121	143	1
-8304	-2984	15668	-3376	16608	3004	-20360	4160	-3312	-538	18535	3647	-19176	172	7940	-6487	5161	2634	-32768	5628	-32768	15139	3705	7757	-6204	-7784	-27556	4135	17459	-3026	-16376	-2316	22440	3736	-4607	-3342	121	117	1
-7600	-4272	15348	-4313	23989	3584	-23328	3088	-2036	-3125	20803	3759	-23220	-280	9568	-8660	536	1926	-32768	6660	-12492	-13136	25859	3602	-13496	1396	-26612	-2360	26155	-8508	-12428	3592	3200	9625	-1308	-1258	116	125	1
-8372	-6488	15376	-5263	32767	6596	-25824	3180	564	-6827	23510	2547	-24164	-556	21540	-11949	-12011	3238	-7848	16004	28680	-7283	20856	-1513	-29884	-2004	9748	-8385	14202	-7531	-3912	904	-7940	3670	5416	-1280	114	117	1
-6848	-8380	16604	-5173	32767	10996	-30528	-392	6828	-11584	26473	1128	-17984	-4344	32767	-16971	-23578	7831	-7304	-19248	10240	19878	32767	1437	-20788	-16360	-8072	7455	21780	-2882	-22892	1952	20656	-1006	7993	156	115	114	1
-9172	-10868	18608	-5281	32767	18211	-32768	-5216	8304	-17498	26721	1971	-20996	-13316	14692	-16928	-12934	2627	-32768	-13044	32767	12898	24677	-6605	-28096	-10000	-8872	-18402	29440	-8720	-14764	-8836	9044	9075	13445	-9161	129	139	1
-26836	-12876	22976	-6487	32767	28256	-31704	-4280	-4236	-20724	28535	3086	-21028	-3908	2128	-9126	-11628	2846	-19316	32767	16020	-898	12356	-11266	-16708	11364	-15016	5316	19174	-144	-18072	-2836	-6992	18046	6754	-309	131	144	1
-32768	-6492	26184	-6724	32767	26473	-23444	-2304	-17108	-15485	25196	5980	-27584	-13312	-10652	-5995	-10735	2235	-18812	-26636	30756	-2889	4184	-10572	-16520	-1544	-5920	-8966	21669	-3857	-18104	14244	-20528	27668	10312	-1374	135	124	1
