#Activity	walking 
#ActivityID	1 
#Date 08-22-18-52
acc_rf_x	acc_rf_y	acc_rf_z	gyro_rf_x	gyro_rf_y	gyro_rf_z	acc_rs_x	acc_rs_y	acc_rs_z	gyro_rs_x	gyro_rs_y	gyro_rs_z	acc_rt_x	acc_rt_y	acc_rt_z	gyro_rt_x	gyro_rt_y	gyro_rt_z	acc_lf_x	acc_lf_y	acc_lf_z	gyro_lf_x	gyro_lf_y	gyro_lf_z	acc_ls_x	acc_ls_y	acc_ls_z	gyro_ls_x	gyro_ls_y	gyro_ls_z	acc_lt_x	acc_lt_y	acc_lt_z	gyro_lt_x	gyro_lt_y	gyro_lt_z	EMG_r	EMG_l	act
-30460	21604	19660	2132	5002	2255	-26360	-19264	-21096	7779	3640	-814	-32768	-13536	25408	3268	443	159	-3088	19520	15888	2203	4921	-3132	-32768	-6064	6184	1667	3369	-853	-26072	5912	17784	260	-1891	198	123	131	1
-21988	3956	25252	1383	1600	2521	-15864	-18384	-32640	7864	3636	-234	-27208	12904	416	5830	1928	612	-5976	23584	20432	1930	6004	-4496	-32768	-1536	5496	3298	3116	-357	-28824	-6344	20440	-548	-2469	-494	115	116	1
-31924	-30064	7848	1825	610	684	-23544	-7760	-15456	2276	3478	-77	-16264	22488	-11976	4048	1173	542	-15960	32767	24456	389	6109	-5242	-32768	13920	280	2830	3462	-518	-22728	-3944	5696	903	-2106	-579	139	131	1
-14096	-4760	17476	1182	27	658	-15880	-6472	-14096	2076	2137	-1391	-8440	12736	-12984	-1304	1680	-451	-1760	22616	26456	-928	6400	-5434	-27632	12368	7080	1014	3686	-927	-28000	6352	-13408	2848	-1334	78	116	132	1
-9992	-280	18764	751	-136	268	-13816	5536	-13968	-37	1560	-462	-10992	1560	-11176	-3189	1717	35	-18000	21512	26736	2235	4881	-4198	-22496	2992	-14072	-1784	3928	-1181	-28304	9600	-10688	1586	-2191	1009	114	129	1
-7072	-5912	13924	355	-10	72	-19752	1448	-8456	-3360	841	-312	-21488	-4808	-9776	-2305	1921	-565	-8784	32767	32767	80	-781	-1265	-16744	2504	-21984	-3097	2303	-925	-31144	2720	-3696	-545	-3278	892	120	125	1
-7248	-6404	13220	202	36	56	-19400	-1512	-5840	-4672	418	-674	-18400	-976	-1360	-912	1638	-428	9752	10584	18768	-2776	-2603	-856	-26056	696	2248	1076	1054	-474	-32768	176	-7752	-1522	-3668	716	120	123	1
-6708	-6216	13384	2	182	36	-16136	-8784	-3848	-3940	221	-729	-18480	856	-2360	-929	1498	308	5544	7192	13488	-670	-3752	-946	-13704	-1136	-6768	297	-896	332	-24616	1200	-6824	-1004	-3251	1616	120	123	1
-7180	-6936	12740	-129	244	39	-13656	-14640	-2400	-978	584	-479	-16936	-3480	-3680	-1172	1446	1036	8384	20208	7816	-1103	-4285	282	-4456	-3856	-6048	1410	-1453	-7	-22072	-1520	-7224	-71	-3031	1529	114	124	1
-7456	-7472	12408	-118	194	42	-11920	-12952	-3600	2009	1106	-39	-13344	-6904	-2616	-751	1349	1037	5232	10488	7504	-1706	-4188	1689	-6848	-2192	-6136	2408	-2054	175	-19576	440	-7752	1042	-2723	1254	127	127	1
-7312	-7904	12104	-33	166	63	-14688	-5680	-3072	3115	1170	292	-14200	-5256	-2400	-109	1282	645	3488	7944	7104	-402	-4064	2693	-10472	3192	-6400	1744	-3195	400	-17744	3680	-8000	972	-2518	1492	120	131	1
-7380	-7872	12088	76	124	106	-18776	2968	-3320	1278	880	39	-16192	-1360	-1632	-17	1400	432	144	11280	9376	257	-3957	3310	-8864	2768	-7272	734	-4139	480	-15744	5000	-9312	-124	-2294	1373	123	132	1
-7476	-6600	12728	66	124	100	-16792	464	-2728	-1309	405	-258	-16112	2160	-48	-307	1545	519	-3000	10888	10944	455	-4226	3647	-6512	3192	-6816	20	-4775	711	-14032	4136	-10456	-1546	-2073	967	118	132	1
-7548	-6924	12552	18	160	92	-13944	-5944	-1752	-2090	302	-355	-14368	1208	-672	-560	1652	704	-5632	13296	12768	519	-4576	3642	-8648	2904	-7232	-645	-5043	873	-11592	1040	-11424	-2319	-2012	615	123	131	1
-7704	-7084	12164	38	136	109	-13424	-8976	-1200	-1434	499	-192	-14264	-3664	-960	-422	1895	810	5360	17088	3936	85	-4996	4117	-10400	984	-13976	-1620	-5461	876	-8776	-872	-10760	-2468	-1956	498	124	132	1
-6292	-6012	12336	-3	105	24	-16520	-2752	-18680	-1937	-327	-1487	-15696	-6864	448	68	2113	711	-9816	13672	16688	596	-5240	3431	-13760	256	-9728	-1504	-5895	686	-7304	-1864	-11000	-2370	-1639	397	126	132	1
-7928	-5712	12692	73	89	132	-10096	-8808	-2488	259	1009	476	-15560	-6344	-1624	65	2230	579	-9968	18776	16520	555	-5211	3412	-15112	-1432	-11088	-1252	-6233	748	-5992	-3296	-11104	-2382	-1349	335	124	132	1
-7616	-7156	12772	184	92	166	-15296	-5160	-4088	740	1347	-154	-16728	-3528	-4808	36	1911	642	-10896	22704	18648	272	-4655	3761	-16232	-2512	-12288	-663	-6505	863	-5128	-5872	-11256	-2135	-1132	180	124	132	1
-7648	-6708	12816	150	132	215	-16608	-4176	-3928	520	1089	79	-17024	272	-3760	293	1668	632	-8560	30352	21720	502	-4024	4638	-21752	-168	-16376	-425	-6739	1125	-5624	-6456	-6992	-1767	-970	-87	123	131	1
-7820	-7156	13064	72	216	317	-16424	-2960	-3592	-207	946	106	-17576	320	-2528	369	1527	606	-25672	23144	24984	1060	-3104	5541	-28040	4664	-19264	-1081	-6670	1249	-5392	-2464	1152	-1590	-810	5	121	130	1
-7608	-7272	12968	-72	347	543	-16400	-5248	-768	-1337	786	-373	-19096	-2488	832	97	1323	597	-32768	22920	23112	1751	-2433	5439	-26016	6432	-21760	-2192	-5933	779	-6056	-1368	2992	-1513	-751	142	123	130	1
-7688	-6952	14056	-50	697	686	-16496	-5120	256	-1538	971	-290	-18496	-3992	3992	-345	1210	380	-32768	22104	14312	135	-2099	4403	-21360	9008	-22424	-2863	-4315	409	-20672	5720	18880	-1520	174	1575	122	130	1
-7732	-7312	14212	21	1028	740	-16680	-6936	-456	-1254	1365	11	-18248	-2848	3984	-734	1229	61	-32768	-160	4944	-102	-1602	2313	-15256	3896	-24768	-3259	-2682	422	-25792	544	30704	-64	-370	297	134	130	1
-8296	-6844	14260	102	1427	828	-17048	-6784	-1512	-631	1795	79	-17744	-2224	1792	-1005	1303	134	-32768	-3040	4424	1665	-1344	-70	-13472	-2776	-28208	-1578	-873	288	-20792	8520	23064	705	178	148	125	128	1
-8040	-5908	15256	157	1910	877	-17912	-6216	-3896	-60	2140	253	-17104	-4360	-1328	-933	1304	328	-32768	-1960	4920	143	-655	-1655	-4192	-3992	-23544	2078	1185	750	-16896	3520	16496	1289	-37	370	113	129	1
-8104	-6444	15228	75	2475	997	-19336	-4448	-3368	15	2320	364	-18776	-4952	-1960	-761	977	440	-32768	2728	6728	-537	75	-2704	-6640	-1728	-21992	4155	2719	572	-12976	2088	6336	1745	201	308	123	128	1
-8440	-6804	14320	-130	2984	1268	-19536	-2680	-2680	-421	2449	369	-19952	-2872	1024	-532	498	460	15184	32767	32767	-2312	3702	-4467	-32568	5064	32767	9751	2381	49	-1016	-1776	-272	2961	-179	-196	124	129	1
-8460	-7244	15988	-316	3522	1595	-19592	-3744	-2784	-1249	2495	342	-20016	-5368	2352	-332	19	433	-17096	15688	3648	-408	3762	-3501	-24144	7232	-2720	2735	2058	1849	-26464	20128	-648	4816	3154	-288	119	130	1
-10700	-8848	14736	-332	4378	2003	-25400	-5488	-3504	-1355	2653	594	-25104	-8552	8888	-203	-865	54	-20456	15184	22664	289	3260	-1741	1288	-5600	-4576	-1916	2584	-653	-22704	12512	10160	-1262	1173	-122	111	129	1
-10860	-14704	15780	-351	5286	2973	-31496	-3736	9544	-2171	2682	483	-23800	-5008	12472	-810	-2246	114	-10368	16224	17104	-228	1910	-1603	-23184	9016	-7760	-4531	3625	-1247	-17264	-128	-10088	-3174	1084	-141	129	130	1
-20804	-14332	17380	17	6007	4024	-28776	-3776	2424	-2838	3017	544	-22776	5704	15120	-62	-2192	422	-6104	13480	14048	-260	1721	-1099	-19776	6752	-10704	-6441	2588	-717	-12368	-8360	-5776	-1787	782	426	130	129	1
-19556	-20436	19352	853	5800	4734	-27800	-12768	3152	-3155	2974	613	-22312	3888	-304	-836	-1767	178	-8264	11440	17232	-362	1276	-1014	-13280	-5024	-11744	-4796	1669	-375	-15424	-56	-2792	109	1740	-360	127	129	1
-19876	-15784	22488	1464	5768	4784	-23112	-13048	1952	-2059	2928	645	-22696	-3480	-10928	-2116	-1318	-727	-6416	13464	15384	-639	123	-303	-17144	-11664	-10688	-134	1285	536	-20360	5832	-7712	559	1959	234	127	132	1
-17928	-16756	23828	-298	4748	3146	-18368	-5856	-16480	167	3252	991	-26840	-2560	-9864	-1149	-2017	-1384	-5320	12312	13472	-405	55	-234	-22416	-3832	-10424	4002	1474	831	-17096	2272	-3160	721	1851	688	125	132	1
-28736	-32768	32767	-39	229	611	-19160	-4840	-16696	1419	2237	1032	-29168	56	-6392	402	-2957	-1550	-3864	8792	14784	-251	35	-118	-19168	4168	-5816	4786	990	828	-16936	1584	-1984	694	1735	635	123	132	1
3420	-15900	18648	1513	-1956	43	-20456	-1288	752	-473	419	287	-29224	888	-8808	1160	-3184	-1350	-3240	9344	13792	-70	50	-78	-14960	8664	-2112	2934	518	615	-15800	2744	-544	1019	1496	-352	119	131	1
1984	-7348	14240	-224	-2195	-234	-13160	-3264	-5856	555	-379	257	-23824	2896	-6248	851	-27682432	-1289	-2928	10096	12768	-79	51	-191	-18168	-2328	-4240	-1383	582	144	-14640	1752	984	515	1714	-353	143	136	1
-5748	-8012	10548	-771	-3932	-2536	-9792	-1424	-6856	683	-3506	-60	-16032	-64	-5768	1068	-2411	-1238	-3664	9792	13112	-144	66	-198	-15496	-2680	-4752	648	535	358	-14304	3040	-616	656	1690	-262	122	137	1
-7436	-5912	10856	-1089	-4129	-2537	-9296	672	-6960	808	-3974	-237	-14272	2816	-6552	1670	-2344	-968	-3824	9984	13056	-132	89	-169	-15008	2312	-3128	1765	598	524	-14440	3424	-656	528	1594	-383	117	136	1
-8976	-7164	12396	-1401	-4358	-2563	-9584	304	-7416	767	-4383	-401	-11040	4296	-6960	1659	-2297	-698	-3408	9656	12984	-60	123	-153	-15728	5680	-1680	1293	622	402	-13448	2328	-1224	169	1581	-696	104	134	1
-11480	-8936	14408	-1413	-4609	-2660	-11992	-264	-8680	561	-4879	-485	-8464	4568	-6944	1067	-2135	-334	-3816	9680	13256	-29	136	-117	-15712	7592	-1632	3	748	164	-14480	5720	768	-64	1685	-806	118	133	1
-12548	-7908	15128	-1568	-4753	-2836	-12224	-120	-8744	496	-4975	-498	-7744	2656	-6608	837	-1871	-164	-3688	9608	12872	-34	125	-101	-15560	6000	-2656	-1010	898	0	-15112	8440	2192	5	2154	-648	125	132	1
-14412	-10412	14908	-1633	-4640	-2944	-13688	-24	-8688	361	-5667	-709	-6848	2200	-5992	1080	-1654	-98	-3664	10184	13416	-54	131	-115	-16976	4640	-3696	-1131	941	-42	-15904	8168	-1928	153	2814	-709	119	131	1
-15936	-12064	15332	-1355	-4291	-3081	-15256	-1168	-8688	438	-5841	-920	-4568	3832	-6176	1231	-1381	1	-3304	9840	13600	-73	147	-168	-16600	2256	-4048	-739	930	1	-18440	4904	-4528	-234	2485	-415	118	132	1
-19136	-13708	17120	-1291	-3718	-3567	-17152	-3016	-10968	1212	-5840	-1033	-4048	5416	-4808	1278	-1018	120	-3296	9808	13984	-1	204	-248	-17032	488	-5176	143	933	162	-18280	728	-4560	-653	1794	-132	113	131	1
-24720	-15080	18616	-885	-2933	-4322	-21520	-7048	-13128	2469	-5736	-919	-6080	4544	-240	776	-795	174	-3208	9416	14160	120	317	-373	-16840	1392	-3992	913	963	247	-17288	1592	-1016	-287	1505	-211	123	131	1
-32768	-7388	20448	-942	-2170	-4953	-24248	-8728	-16696	3615	-5309	-391	-6656	4184	368	664	-772	154	-3008	10752	13976	250	554	-571	-16832	3680	-1896	1129	1109	253	-17512	2904	3376	492	1511	-235	112	128	1
-32768	-2364	14652	-1278	-2060	-4864	-23112	-6616	-19752	3254	-4291	284	-14592	-10152	7976	-318	-193	-1037	-3760	9592	14728	355	780	-694	-16776	5544	-1008	915	1396	179	-16832	4264	5312	1058	1438	-116	125	131	1
-32768	3532	1932	-157	-2177	-3651	-15040	-4632	-19984	1646	-3120	117	-20480	-5144	15008	320	-153	-1093	-3840	10184	15576	258	1130	-864	-18832	4080	-2112	476	1754	29	-18736	5400	3112	1368	1380	153	123	128	1
-32768	18688	-8992	-505	-1737	-1377	-11280	-5520	-23144	145	-1866	-269	-22784	-4440	18040	38	-99	-620	-4008	9760	16328	361	1566	-1046	-20456	1400	-3672	490	2035	-62	-18848	4832	2016	1515	1313	143	117	130	1
-32768	17940	-11576	-1906	-955	615	-9248	-4168	-25672	-1756	-488	-915	-18920	-5000	11392	-742	-3	91	-3416	10048	16344	544	2108	-1218	-20440	1112	-3560	627	2258	-175	-18632	5128	1312	1559	1121	-80	125	118	1
-32768	11404	-9032	-1355	-291	1643	-6400	-4400	-22344	-2887	923	-831	-16048	-5760	5080	-1584	522	352	-3776	10176	16464	798	2656	-1440	-20040	1480	-3336	636	2507	-283	-18456	6376	2064	1246	819	-244	124	124	1
-16952	-32768	-11180	4988	2081	3726	-6712	-14912	-1864	-4372	2117	-470	-3248	-8568	-1376	-1849	510	-435	-3656	9552	16440	1254	3177	-1768	-20328	864	-3176	533	2793	-402	-18496	8856	4344	988	310	-349	135	127	1
-500	-14424	32767	2000	4267	2674	-32768	1496	6064	857	1830	-711	-26848	-22800	-4552	-3605	2359	-130	-3064	11656	18056	1696	3904	-2207	-25488	2096	-2376	489	3081	-661	-24392	14640	10336	764	-636	-115	128	139	1
-17516	7796	29328	1942	2648	2418	-17104	-16112	-7136	5956	3589	1077	-28312	-9576	3720	4104	1035	516	-1640	21800	17384	1815	4911	-3298	-32768	-3664	9464	1298	3332	-816	-28136	7912	15224	489	-2245	70	123	123	1
-17768	-9668	15656	993	2345	1354	-10624	15624	-13336	3422	3918	841	-16736	20200	-9720	5560	1545	831	-15480	31352	23448	1167	5802	-4501	-32768	1240	1984	2603	3440	-456	-25912	-3296	20312	-589	-2810	-302	122	127	1
-27196	-13348	23788	989	1354	1064	-15128	-9312	-14208	3264	2805	-57	-10744	16560	-6944	1314	1016	-25	-12088	28560	21736	99	6303	-5397	-32768	10776	2704	2239	3438	-531	-21528	-4944	3848	135	-2331	-435	119	129	1
-14624	-3008	21744	838	220	319	-18072	-1944	-15800	3247	2017	-859	-14520	3952	-11544	-1944	1968	236	-13200	21776	26920	-493	6300	-5318	-23816	10752	2432	742	3753	-628	-25480	2600	-11376	2189	-1592	189	116	128	1
-10528	-7924	13324	368	138	92	-24664	6576	-9872	-315	1335	-375	-19464	-5808	-12104	-1272	2024	13	-6032	26088	28712	1248	4503	-3498	-22872	2248	-19016	-1718	4012	-1065	-30280	6368	-12848	1831	-1971	939	115	127	1
-8352	-8332	12236	139	142	-5	-15696	-1136	-6096	-3677	625	-173	-18640	-1440	-6688	-427	1986	-160	1152	32767	32552	-297	-1223	-1358	-22000	3624	-9160	-1575	2060	-529	-31536	728	-5088	156	-3036	1083	126	126	1
-7452	-6552	12948	77	121	9	-13960	-3424	-4720	-4223	271	-684	-15568	2000	-496	-548	1758	-68	8392	9488	17048	-1966	-2246	-1245	-22632	-2600	-1256	822	649	-219	-31192	0	-9248	-833	-3600	1088	120	121	1
-7348	-6148	13200	-64	196	6	-16568	-9168	-3376	-3127	182	-594	-17480	-1016	-1792	-1038	1566	626	7504	9688	12600	-626	-2781	-579	-11224	-4624	-6432	738	-733	182	-23688	1880	-7848	-710	-3285	1785	115	124	1
-7476	-6728	12556	-154	219	16	-15600	-13496	-1792	-188	600	-327	-16120	-4368	-2184	-695	1558	1216	9736	12712	8528	-957	-2802	780	-4624	-5512	-5664	1905	-1187	-93	-21352	-392	-6704	29	-3034	1743	128	125	1
-7540	-7012	12376	-137	173	33	-13504	-10240	-2480	2461	1074	102	-13936	-4120	-1392	-186	1423	1081	5944	6648	9296	-702	-2647	1937	-8240	-920	-4920	2217	-1979	-25	-19432	896	-7776	680	-2689	1573	128	126	1
-7716	-7580	11700	-13	111	74	-14248	-2456	-2680	2795	1059	224	-14624	-2192	-1096	166	1459	794	2200	9344	10904	-26	-2879	2720	-9768	2912	-6424	1068	-3093	224	-18216	1224	-7824	502	-2635	1616	127	136	1
-7476	-7260	11988	127	64	134	-17248	3960	-1944	534	700	-69	-15736	376	304	122	1508	629	-48	9536	12128	6	-3467	3064	-7664	2160	-6280	49	-3894	392	-16192	912	-7720	-241	-2463	1411	125	133	1
-7636	-6372	12636	104	89	145	-16792	-584	-1672	-1568	351	-277	-15424	1520	1128	139	1530	679	-1792	7536	12032	220	-4159	2929	-6560	1576	-5288	-596	-4499	588	-14200	-160	-8384	-1009	-2216	964	118	132	1
-7828	-6632	12352	49	117	128	-14624	-6224	-776	-2114	387	-317	-14656	392	968	205	1683	788	-4424	9072	13600	553	-4800	2594	-7568	488	-6856	-902	-4908	805	-11576	-1080	-9256	-1555	-2157	616	125	132	1
-8052	-6716	12228	61	81	138	-13728	-8504	-608	-1312	665	-190	-15128	-2904	2256	-208	2032	793	-6168	11584	15736	751	-5402	2486	-9704	-1672	-7904	-875	-5405	854	-7512	-1880	-8880	-1633	-1923	480	123	132	1
-8152	-6548	12172	97	62	146	-13264	-7904	-656	-196	956	-76	-15640	-5664	2912	-670	2456	677	-7712	12048	17208	970	-5721	2562	-12400	-3584	-10032	-501	-5921	967	-5456	-1952	-8520	-1555	-1565	296	127	132	1
-7828	-6924	12384	165	21	172	-14440	-5784	-1560	443	1153	-48	-16536	-4792	-1512	-511	2386	670	-9912	15408	18272	1348	-5760	2759	-14512	-4968	-8552	533	-6235	1052	-5136	-2272	-9200	-1687	-1369	72	126	131	1
-7960	-6832	12696	191	-4	217	-15768	-3800	-3944	329	1175	-50	-17520	-1112	-5568	-23	1872	542	-10144	18400	19136	1073	-5246	3291	-15216	-3984	-10144	1360	-6376	1329	-3656	-3384	-9856	-1855	-1247	-199	126	131	1
-8016	-6228	12956	146	20	259	-16896	-2936	-4488	-240	1069	-85	-17016	280	-5296	205	1576	511	-12000	22352	22376	977	-4460	3923	-18968	-1520	-11128	1502	-6435	1671	-3856	-3928	-7976	-2012	-1091	-427	127	131	1
-7884	-6600	13128	92	105	326	-16184	-4192	-3584	-818	934	-114	-16352	272	-3656	-130	1611	526	-17472	24952	26840	744	-3719	4699	-27832	5216	-12608	208	-6514	2097	-6056	-4208	-2104	-1853	-928	-551	124	130	1
-7652	-7084	13712	7	349	515	-15240	-6640	-2144	-832	964	-88	-16624	200	-1432	-471	1426	441	-30448	23160	30608	1314	-2984	5396	-28648	7872	-14832	-2228	-6297	1622	-7912	-80	4552	-1199	-566	-110	120	128	1
-7892	-7044	13272	127	603	703	-16568	-5672	-808	-788	1210	-109	-19088	-1472	1616	-509	1182	225	-32768	23360	24248	628	-2789	5250	-28432	7856	-16696	-2706	-6160	1481	-16376	9120	18512	-552	-370	710	123	129	1
-7784	-5904	14404	124	859	834	-16320	-5608	-1136	-714	1496	28	-18136	-3664	2160	-828	1167	78	-32768	-1272	12168	-365	-1715	4021	-21312	1776	-27304	-5771	-3740	-220	-24096	17600	28120	737	-259	1031	147	129	1
-8484	-5940	14632	150	1323	869	-18368	-3600	-2976	-737	1790	112	-18072	-2728	968	-1105	1184	72	-32768	-2816	360	672	-1666	1227	-11872	-4192	-29208	-2679	-1792	-387	-19520	5752	32767	-1370	233	972	133	129	1
-8360	-5724	15408	51	1853	929	-18992	-3592	-3712	-803	1988	207	-18048	-2096	-368	-838	1146	310	-32768	-8912	-1168	513	-1114	-1333	208	-888	-24008	1727	582	818	-22840	1584	21320	-365	-168	-13	106	128	1
-8392	-5996	15656	96	2412	961	-18656	-5488	-3288	-705	2218	379	-17840	-4584	-480	-877	921	446	-32768	4608	4400	-465	70	-2453	-6184	632	-24752	3676	2721	406	-21832	-192	19576	107	-164	-148	111	129	1
-8744	-7416	14928	-4	2946	1288	-19672	-5144	-2176	-485	2473	493	-20512	-3920	1808	-732	550	423	-30968	11400	8328	-755	305	-2778	-15208	5104	-23592	4967	3867	330	-12192	2784	22640	3375	-1194	-200	137	128	1
-9612	-8084	14332	-226	3406	1835	-20704	-2800	-2400	-793	2698	420	-20584	-4376	4824	-714	-44	474	8528	-344	15200	318	4091	-3833	-32768	4776	18016	3517	1227	-101	-15056	12008	-7784	5066	2890	-1012	121	128	1
-9584	-8504	16968	1	4072	2343	-24632	-6320	-984	-1444	2795	583	-23312	-10256	9656	-753	-620	151	-22808	16960	32496	491	4460	-1784	-9464	19912	-15664	-2392	1008	217	-30184	14840	13480	306	543	683	97	128	1
-12512	-16752	15148	-89	4975	3472	-32768	-7392	8864	-2098	2800	618	-25528	-10248	12816	-900	-2068	-196	-14536	14368	24312	-87	2715	-1763	-19712	840	-13072	-4383	4517	-1308	-15592	-4216	-11280	-2674	1693	-278	131	128	1
-21212	-18396	19944	1011	5372	4807	-28184	-8792	3232	-3184	2985	386	-24592	-7512	9680	-821	-2096	-91	-15272	11440	21624	175	2224	-1381	-21080	-32	-15472	-5524	2910	-571	-16088	-10152	-6144	-2078	431	1244	145	126	1
-18168	-10756	21732	1464	5724	5227	-27536	-9664	1448	-2861	3210	610	-21824	648	-528	-554	-1726	140	-12688	21992	16120	-798	542	-728	-13744	-1152	-17976	-4619	1904	-240	-17096	-360	-9272	1148	1910	-191	122	126	1
-21320	-12824	25060	1161	5813	4893	-23608	-13832	1776	-1918	2982	899	-23880	-3328	-12200	-1288	-1341	-733	-5432	12736	13760	-384	106	-303	-20208	-8872	-14736	-1295	1310	355	-19008	10056	-12680	1241	2174	-67	137	131	1
-15616	-22404	24988	392	4234	3582	-20888	-5408	-17752	-246	3094	988	-30664	-368	-10320	-600	-2016	-1402	-3888	9784	14200	-110	34	-87	-20640	-5952	-9928	3370	1200	792	-18072	4568	-5776	247	2013	419	131	133	1
-24596	-32768	32767	1019	-282	368	-19672	-5904	-14600	1072	2013	883	-29440	3656	-7704	726	-2824	-1544	-3544	9312	13608	13	83	-52	-18056	2800	-5952	4864	930	734	-17576	1128	-1496	-31	1756	152	126	131	1
3432	-13108	15624	1890	-1552	-482	-19944	-1528	-960	-471	492	510	-28336	1440	-9216	1179	-3105	-1649	-3464	9592	13656	152	121	-65	-15440	6736	-2944	3792	487	808	-15352	1280	456	404	1502	-292	124	132	1
1384	-7780	12156	221	-1483	-945	-12760	-4512	-7344	705	-256	671	-23008	1480	-8080	743	-2719	-1923	-3232	9864	13096	282	135	-76	-14984	9632	-800	1069	370	606	-15224	3032	984	559	1510	-745	123	132	1
-356	-13932	10564	99	-2061	-1601	-5776	-2520	-6536	1325	-947	482	-20568	2704	-8104	85	-2589	-1967	-3528	10080	13024	345	154	-100	-14848	7024	-1888	-1286	800	168	-15752	2784	440	822	1498	-731	78	132	1
28	-9836	9836	485	-2568	-2073	-5016	-64	-5792	1305	-1624	183	-19184	2256	-6768	65	-2274	-1343	-3200	10840	12192	315	163	-126	-17784	7056	-2448	-2422	907	-264	-14720	4384	40	840	1537	-643	111	135	1
-2104	-7524	10252	-23	-2834	-2407	-8616	-2160	-6632	1579	-2424	118	-16640	1552	-6104	349	-2245	-1531	-3072	11248	11720	131	169	-167	-17784	-440	-4200	-1951	505	9	-13952	4328	656	1127	1665	-564	157	136	1
-5300	-8064	10720	-465	-3238	-2601	-8976	-896	-6608	1903	-3196	134	-15016	1864	-6976	954	-2212	-1541	-3648	10632	12184	-18	167	-192	-16256	-3312	-4720	179	318	261	-14264	3536	-952	780	1680	-445	133	135	1
-7396	-7896	11444	-796	-3749	-2788	-7248	1296	-7864	1482	-3802	96	-13296	2704	-6656	1419	-2113	-1226	-4032	10544	12952	6	159	-190	-15344	88	-4032	1890	385	472	-14088	2032	-792	397	1701	-559	120	135	1
-8516	-8360	11404	-1076	-4086	-2976	-8384	536	-7248	1022	-4310	-73	-11392	3376	-7344	1823	-2007	-963	-4184	10392	12760	50	135	-156	-15552	4816	-2352	2072	394	493	-14912	3632	1712	235	1895	-688	111	137	1
-10996	-9420	12484	-1164	-4312	-3165	-11128	-640	-8816	872	-4877	-270	-9720	4416	-8152	1849	-1926	-735	-4104	10200	12600	80	123	-121	-16008	8088	-1488	960	487	219	-14784	6216	3808	823	2403	-697	116	135	1
-12512	-8960	13804	-1376	-4427	-3348	-11736	-1656	-8912	721	-5446	-302	-8528	4368	-8888	1754	-1760	-480	-3960	10840	12152	33	108	-111	-15272	7848	-1368	-386	662	-38	-16416	7936	-704	1025	2704	-681	123	134	1
-14852	-10452	14816	-1605	-4430	-3451	-12016	-1880	-9112	787	-5804	-485	-6528	4240	-8480	1747	-1569	-237	-3880	10992	11928	-64	74	-133	-14976	4768	-968	-896	857	-97	-18336	8080	-2968	292	2040	-328	122	134	1
-17636	-13148	16352	-1553	-4248	-3558	-14776	-2744	-9392	1179	-6030	-682	-4832	4880	-8744	1742	-1270	6	-3848	10512	12904	-67	73	-172	-15400	1328	-2056	-562	1006	-21	-16800	6736	-272	-567	1279	-106	118	134	1
-22888	-15984	20228	-1395	-4015	-3933	-19144	-3696	-14576	1851	-6293	-726	-4384	7016	-7600	1457	-988	213	-3600	10472	12872	0	112	-215	-16504	1208	-2248	194	1145	96	-16840	4536	1360	-502	1403	-133	101	132	1
-29612	-13324	21980	-1506	-3685	-4496	-24024	-4208	-16432	2141	-6403	-651	-5792	7472	-2816	1116	-759	366	-3296	10312	13456	122	185	-277	-17616	3376	-2200	581	1240	131	-16800	2936	2040	-4	1511	-237	134	134	1
-32768	-3280	20808	-2439	-3101	-4429	-27200	-6896	-19920	1366	-6170	-383	-10896	264	6616	566	-802	-29	-2440	11944	13720	441	353	-478	-18112	3472	-1328	495	1389	71	-18176	2344	2328	236	1457	-350	105	132	1
-32768	96	12548	-3064	-2825	-3806	-24096	-5120	-20520	-457	-5273	-416	-12184	-1200	7392	294	-823	-157	-3032	10504	14968	519	810	-578	-17896	2888	-1936	409	1622	-12	-17544	2872	4024	595	1258	-205	120	129	1
-32768	5552	416	-1789	-2955	-2643	-13864	-4304	-24240	-992	-3824	-1019	-25920	1928	19632	-1923	-166	-1031	-3328	12008	14920	691	1211	-774	-18976	3424	-1832	263	1919	-82	-18008	1760	3720	1069	1194	73	129	131	1
-32768	27488	-10060	-2249	-2319	-542	-12760	-2280	-24208	-2660	-2175	-1081	-20824	-6008	15656	-3779	575	-326	-3336	10656	15888	683	1672	-1056	-20544	2616	-2176	284	2144	-143	-19024	4656	1824	1667	1243	-30	122	133	1
-32768	22540	-11236	-2503	-1403	1407	-9032	-4224	-25432	-3626	-378	-1027	-17576	-15992	9696	-3537	618	59	-4160	9976	15136	981	2264	-1280	-21280	16	-3280	521	2362	-288	-19680	8032	2272	1714	1000	-155	125	126	1
-32768	10164	-7332	-154	-648	2206	-6360	-3664	-22280	-2733	1671	-318	-15760	-15400	6488	-1935	750	-129	-3616	11400	15544	1234	2788	-1616	-20544	880	-1064	734	2675	-352	-19472	8296	5960	1067	307	-267	126	124	1
-32768	8860	-6528	222	-524	2248	-11288	-2504	-21616	-1294	3376	283	8520	-9080	-10480	-631	2249	-24	-2904	12160	15328	1669	3403	-2093	-21688	-128	248	702	3045	-429	-20632	8472	12904	333	-957	-241	136	120	1
32767	-32768	32767	4515	1519	1348	-32768	-24976	32767	-6089	-482	226	-10272	-7608	-18200	25	2418	1560	-904	14856	18024	2107	4364	-2812	-29272	-1408	5864	1161	3427	-630	-20448	8736	17344	745	-2356	-17	129	124	1
-32768	14132	32504	2449	4056	2881	-12200	-27448	-32768	8247	2913	-379	-32768	-18504	28632	6359	-629	-868	-3152	19824	17744	2611	5856	-3961	-32768	-3792	3872	1733	3676	-734	-23216	160	21208	220	-2645	-17	119	124	1
-16340	-4732	16488	1472	1868	1696	-14360	27768	-14856	7214	4906	2192	-20536	15424	-1328	7399	2328	1126	-22384	32767	22192	2095	6392	-5147	-32768	6432	-2104	2167	3518	-401	-23912	-2752	11208	647	-2298	-804	129	132	1
-16432	-8420	18636	1168	1270	644	-30536	2104	-9872	3532	3149	-333	-17328	23512	-8624	3680	1594	439	-11840	31296	27736	316	6459	-5960	-29192	14760	-3072	917	3725	-798	-26024	7488	-9528	2817	-1438	-99	125	140	1
-10416	-8840	12568	1188	561	560	-10152	816	-11736	1017	1734	-849	-7576	13208	-12176	-1547	1968	326	-14296	30808	26024	405	5534	-5042	-25176	9816	-8696	6	4319	-961	-29232	15176	-14152	2251	-1407	1044	124	132	1
-10664	-8744	13596	604	71	251	-11848	680	-11440	-1511	1237	-620	-8104	-1544	-11936	-3040	1629	362	-32768	32767	32767	1201	1561	-3432	-15216	368	-32600	-3321	2920	-1498	-29816	12568	-5400	-458	-2666	1217	109	134	1
-11556	-10728	13220	524	31	213	-22984	-2744	-7584	-3275	606	-223	-21008	-5024	-8472	-2743	1766	-686	6736	24856	22792	-2686	-2877	-1067	-16304	4016	-30408	-3567	2689	-1179	-32768	5176	-8432	-2819	-3448	1177	133	126	1
-7372	-6128	13624	155	67	66	-18640	-2840	-5008	-3958	218	-702	-18744	-696	-2888	-1084	1789	-317	4440	11488	14368	-2097	-3920	-906	-15936	-152	-7600	-631	-132	-396	-27280	3112	-6360	-2551	-3202	1727	115	118	1
-6980	-7236	12620	-12	168	55	-15912	-9960	-2064	-2975	102	-649	-18376	-720	-3688	-937	1684	816	8664	18592	7272	-2443	-4320	302	-7752	-1808	-5528	561	-944	-761	-22816	-1608	-6216	-1382	-2861	1761	122	122	1
-7228	-7512	12324	-135	214	78	-11592	-14360	-1728	113	634	-348	-16632	-3208	-3864	-733	1465	1233	6440	9168	5776	-2669	-4087	1387	-8032	-2272	-4768	1748	-1658	-795	-19368	360	-6288	259	-2813	1377	133	126	1
-7428	-8076	11704	-94	175	108	-13064	-10824	-2352	2418	960	169	-14088	-4656	-2392	-212	1438	1263	4464	8264	6024	-1464	-4057	2220	-9824	1664	-5600	1635	-2683	-421	-18024	3584	-6504	446	-2568	1525	127	132	1
-7392	-8228	11336	101	94	194	-18040	1224	-1664	1691	785	106	-14168	-3376	-488	277	1537	894	2808	10648	6584	-940	-3980	2707	-8168	2032	-6032	1153	-3618	-251	-15784	4456	-7112	-501	-2369	1321	116	133	1
-7720	-6936	12384	180	87	201	-16376	784	-1360	-884	410	-186	-15400	-400	1584	219	1579	526	312	9712	8296	-624	-4080	2923	-6368	2904	-5152	806	-4255	9	-14432	3040	-8432	-1505	-2249	1017	130	134	1
-7776	-7356	11968	147	102	183	-13120	-6160	480	-1943	412	-247	-15208	-1128	2608	-254	1871	440	-2048	12168	9760	-357	-4410	3022	-6976	3176	-6664	155	-4658	157	-12208	1264	-9400	-2262	-2174	769	128	134	1
-7948	-7924	11716	200	39	203	-13376	-9192	488	-1649	677	-130	-14888	-4800	3840	-1001	2282	414	-3312	13304	11408	-366	-4808	3104	-8536	1880	-8088	-314	-5103	316	-9256	-472	-9992	-2598	-1995	600	127	132	1
-7804	-7724	11940	259	-16	224	-12712	-9872	-80	-730	976	-5	-16168	-7344	-1816	-743	2222	429	-4312	12704	13384	-25	-5149	3197	-10016	1320	-9296	-778	-5631	472	-7400	-1832	-9696	-2597	-1463	344	129	133	1
-8036	-7304	12472	284	-46	260	-14304	-7184	-1696	134	1224	35	-18648	-6192	-4976	-178	1650	317	-6448	15912	14456	400	-5340	3235	-11912	280	-8960	-881	-6035	527	-6856	-2792	-10224	-2705	-1271	159	132	134	1
-7648	-7088	13016	208	21	297	-17216	-4336	-3544	223	1302	27	-17528	-480	-3872	1	1310	294	-6976	18112	15328	521	-5196	3364	-13216	-2208	-10344	-743	-6417	714	-5304	-5120	-10552	-2803	-1027	-8	132	133	1
-7648	-7328	13204	125	167	394	-17864	-3072	-3648	-407	1168	-35	-17616	304	-3576	-45	1294	300	-9104	21912	18904	995	-4598	3662	-15984	-2504	-11864	-192	-6633	994	-4432	-8248	-10432	-2314	-864	-304	129	132	1
-6964	-8104	13564	64	367	545	-16392	-4632	-3032	-1049	1041	-96	-15448	1816	-2384	-819	1423	386	-15312	32767	22192	702	-3942	4550	-21808	664	-15168	-216	-6701	1444	-5808	-10096	-5752	-1744	-565	-574	125	131	1
-7448	-6596	13888	33	654	618	-16160	-4496	-3104	-1068	1077	-61	-16888	-816	-2712	-814	1236	318	-27528	22368	27464	1214	-2838	5446	-29416	9176	-17792	-1541	-6551	1511	-7856	-2968	4264	-1334	-789	-256	123	131	1
-8008	-8808	13704	-27	920	741	-16744	-7240	-1312	-941	1237	50	-19280	-3864	-200	-929	1166	294	-32768	23992	24600	1630	-2227	4976	-27720	9520	-25072	-3431	-5633	520	-11848	10760	11088	-458	102	883	118	132	1
-8528	-6516	13652	80	1226	769	-16328	-5976	-960	-768	1538	34	-17936	-6704	2152	-927	1144	255	-32768	15664	13112	-202	-1934	3372	-19296	5496	-27752	-3661	-3766	-23	-27112	3520	21632	-544	315	1708	160	132	1
-8508	-6732	14532	148	1631	874	-17632	-5936	-2016	-533	1897	184	-17512	-5688	1664	-452	1067	175	-32768	1304	2632	225	-1376	1009	-10600	2984	-27648	-2669	-1615	36	-23712	576	32488	1499	82	-156	132	130	1
-8436	-6024	14748	130	2186	973	-19416	-3832	-2904	-489	2200	246	-17992	-3640	1064	-213	991	335	-32768	-2672	3152	1810	-892	-901	-10600	-2392	-30200	343	102	831	-18520	9504	22136	1543	368	200	127	130	1
-8316	-5756	15164	31	2795	1043	-19328	-4048	-2512	-461	2415	427	-18080	-3632	1360	-309	802	537	-32768	1736	4736	407	-23	-2410	-2984	-240	-24160	3538	2099	1195	-13888	4320	10760	1812	341	169	120	130	1
-8628	-6732	14360	-166	3366	1293	-19112	-3784	-1264	-381	2637	512	-19104	-2912	3280	-525	373	605	32767	28592	11824	-5435	2907	-4315	-21320	11640	15952	9333	2736	567	-8488	6368	7272	3230	-772	403	117	130	1
-9824	-7636	14724	-343	3917	1726	-19568	-4304	-784	-713	2840	508	-19728	-5384	6320	-666	-266	552	-13256	5720	10144	-597	3853	-2584	-32768	1048	-2512	2723	1700	1453	-15336	26032	-1392	4673	3310	-60	113	130	1
-9156	-8500	15760	-389	4783	2316	-25976	-6144	-872	-1047	3018	679	-25264	-12800	12776	-586	-1330	-12	-19776	7952	32648	-220	3698	-1778	-4352	-12312	-200	-3248	2290	-1134	-25904	19312	17576	-895	1464	145	110	130	1
-13416	-18800	14576	-426	6044	3557	-32768	632	11816	-2593	2951	525	-22360	-888	10880	-585	-2467	80	-8920	14184	19880	-363	2293	-1785	-20704	2448	-6552	-4204	3935	-1159	-16464	-11504	-10512	-4999	1212	-517	133	130	1
-25972	-18392	22640	309	6147	4656	-28448	-10176	1392	-4057	3203	490	-25112	8760	10656	156	-2616	553	-9896	10584	18792	-326	2068	-1235	-18248	4408	-12224	-6058	2577	-370	-14968	-13688	-3616	-2459	159	902	139	128	1
-23640	-14240	22560	1952	5867	5369	-26080	-14320	864	-3096	2891	581	-22216	232	-9960	-1755	-1368	-225	-8304	10584	17904	-464	1240	-1053	-14304	-5416	-14456	-5023	1787	20	-13712	-2960	-3208	723	1623	-503	128	132	1
-22868	-17888	22500	712	5550	4371	-20808	-10120	-10104	-1470	3209	862	-26568	-3544	-11152	-1598	-1847	-1198	-8896	11360	18552	-470	527	-427	-19440	-11120	-13568	-388	1554	404	-20272	7392	-9240	1261	1879	298	124	133	1
-21392	-23112	23424	267	5265	3948	-17376	-2912	-26352	1566	2908	1141	-31120	2064	-7224	-419	-2791	-1687	-6656	10648	16048	-383	177	-225	-20120	-1880	-11048	4042	1522	950	-16840	5568	-3960	1750	1741	1074	121	134	1
-5668	-31624	26096	1058	-2299	132	-20408	-2392	472	-301	853	428	-32504	1992	-8192	747	-3216	-1420	-3624	7184	15344	-283	76	-123	-17968	4416	-5856	4742	1074	907	-17448	3944	-1976	1545	1593	479	118	134	1
3368	-8128	14736	137	-2618	14	-15040	-1592	-5960	-61	-466	-61	-25896	3672	-7144	797	-2792	-1537	-3512	7440	15320	-249	77	-120	-16112	7128	-2640	3080	633	657	-16080	4144	-1184	1112	1519	-276	120	132	1
-44	-16444	11436	-727	-3091	-968	-10504	-2232	-6712	665	-1195	-18	-22824	6656	-7344	-397	-2649	-1513	-3312	7896	14776	53	126	-121	-14192	7016	-2120	429	671	384	-14656	5976	-152	477	1402	-773	106	130	1
-580	-13452	10128	-34	-3626	-1745	-5688	2032	-6056	180	-2049	-401	-19056	2472	-6456	-817	-2426	-1076	-3192	8480	14032	120	104	-143	-15384	5528	-3072	-1633	1082	41	-14624	3992	976	-45	1403	-730	128	136	1
-1716	-6580	9888	-660	-3615	-2381	-7792	-664	-5456	-31	-2961	-290	-16024	-680	-6328	-394	-2340	-1117	-3184	8584	13912	98	70	-154	-17624	3656	-3296	-2511	1042	-134	-16912	2624	-16	-86	1499	-586	154	137	1
-4608	-6580	9756	-1306	-3560	-2609	-8752	-1448	-5968	400	-3669	-397	-13896	96	-6440	636	-2281	-1170	-3312	8936	13480	-11	87	-167	-17064	-832	-4464	-1952	675	59	-14488	1512	1032	416	1762	-290	196	138	1
-7868	-7164	11088	-1440	-3750	-2721	-8064	424	-6808	686	-4132	-536	-12368	2448	-7400	1321	-2144	-930	-3624	9008	13528	-149	124	-173	-15648	-2888	-4856	-134	569	298	-14640	2096	792	1010	1801	-126	127	137	1
-10120	-7876	12648	-1521	-4110	-2877	-9088	192	-8016	668	-4514	-730	-10048	4032	-8264	1357	-2004	-669	-3904	8008	14376	-168	140	-154	-15288	352	-3728	1322	595	536	-13776	2736	608	1145	1653	-189	121	137	1
-11232	-8080	13996	-1561	-4422	-2995	-13984	-2600	-10664	914	-4981	-792	-11048	4600	-5704	1298	-2073	-734	-4136	7784	14568	-120	134	-125	-14408	2752	-3160	1403	670	459	-13760	4048	-264	1294	1338	-1031	110	135	1
-13956	-9640	14800	-1736	-4556	-3182	-12952	-1344	-8808	968	-5365	-727	-8400	2576	-7992	729	-1566	-347	-3768	7928	14376	-112	134	-123	-14920	6888	-2056	431	733	249	-14480	6904	-368	646	1757	-741	122	135	1
-15948	-11500	15776	-1536	-4521	-3340	-14312	-1024	-8944	888	-5743	-851	-7368	2024	-8280	676	-1432	-433	-3720	8680	14048	-58	133	-74	-16328	6552	-2584	-589	894	136	-16328	9816	184	-337	2087	-670	122	133	1
-17840	-12816	16720	-1469	-4221	-3536	-16416	-1624	-9432	999	-5977	-958	-6336	3168	-7848	1125	-1128	-292	-3824	8408	14248	-57	144	-94	-16704	3904	-4656	-1035	934	-5	-14568	8192	-352	-511	2622	-355	121	132	1
-22920	-16488	19656	-1446	-3777	-3984	-19728	-3584	-13560	1571	-6098	-1067	-4856	5544	-6096	1277	-852	-105	-3336	8496	14480	1	197	-152	-16256	528	-4304	-610	938	99	-15984	2880	-3376	-469	2355	-229	108	131	1
-29012	-13560	20812	-1430	-3154	-4664	-24376	-5656	-13944	2372	-6090	-878	-6536	4968	-800	1122	-704	51	-3464	8368	14592	68	301	-234	-15208	944	-3496	278	1002	267	-17848	1760	-1776	-678	1851	-303	114	133	1
-32768	-4172	19052	-2075	-2351	-4710	-26992	-6488	-17432	2186	-5669	-489	-11416	-2600	7488	499	-850	-318	-3192	7416	15808	128	513	-351	-16280	2304	-3608	784	1131	347	-17328	4600	2056	-150	1498	-385	117	130	1
-32768	-2852	12180	-1865	-2309	-4226	-21960	-4248	-19232	740	-4607	-395	-21624	-7848	12080	-441	-705	-1322	-3296	8392	16304	518	672	-492	-19200	3728	-2912	824	1328	228	-17568	4672	4272	688	1587	-261	133	129	1
-32768	11492	-1800	-537	-2388	-2790	-12488	-5088	-22392	-69	-3238	-712	-23288	-2120	20072	-1029	130	-1086	-3976	8512	16128	726	1064	-712	-19656	3456	-2632	701	1621	191	-18680	3520	3976	1003	1547	-44	131	136	1
-32768	26004	-11312	-1476	-1551	-510	-11152	-2448	-22616	-1120	-1586	-825	-20816	-8584	16768	-1630	179	-447	-4088	7568	17760	785	1530	-881	-19616	2608	-3488	739	1960	166	-19088	6120	3336	1206	1368	-107	125	138	1
-32768	18732	-10536	-1383	-543	1017	-9216	-4216	-22688	-1800	351	-702	-17056	-11960	9384	-1587	219	186	-4032	8792	17336	1014	2052	-1087	-20136	2944	-3032	597	2243	-61	-18920	7536	3520	1246	1033	-128	127	121	1
-32768	7024	-6184	946	302	1585	-7776	-3960	-20288	-1287	2108	-116	-14344	-11768	3920	-536	495	-176	-3600	10088	16696	1151	2580	-1371	-19912	3552	-2496	580	2535	-155	-18728	8184	5248	1237	546	-214	124	131	1
-32768	1420	1028	1402	891	1035	-11016	-4576	-23960	-271	3553	264	3256	-6488	-9216	104	1359	-435	-3872	10384	16936	1434	3112	-1822	-21008	2400	-1656	622	2880	-223	-19536	9376	10344	1062	-370	-100	123	123	1
32767	8548	21932	2576	3692	1861	-32768	-856	32767	-40	439	-360	-19224	-8304	-10008	-638	1912	743	-2376	13728	19544	1859	3888	-2359	-27600	3376	1504	1101	3216	-423	-21016	14256	12728	1523	-1308	239	125	123	1
-32768	-256	32767	2251	3777	2385	-14832	-19208	-22952	6154	3127	226	-32768	-11800	22704	5318	-214	-422	-2592	17896	18976	2104	4873	-3509	-32768	-3360	2600	1495	3518	-388	-27200	1560	17008	274	-2137	82	122	127	1
-17032	-9472	15020	968	2109	2099	-12856	21480	-12624	4418	4245	1224	-31208	-7432	15552	5891	266	-330	-9064	21728	24848	2342	6082	-4741	-32768	-4072	2792	1539	3554	-345	-23464	-9304	15488	-838	-2422	-697	125	125	1
-26864	-16508	18528	1625	535	749	-21816	-8536	-15776	1520	2824	-628	-15200	19256	-7088	2237	1265	82	-13952	24760	22416	1693	6565	-5468	-30968	6848	-1872	3102	3604	-194	-24232	-5008	2696	1636	-2005	-640	128	135	1
-9916	-7264	12636	735	-82	434	-13368	-776	-12752	1420	2005	-1104	-8672	7992	-11456	-2001	1893	70	-15392	26280	28472	209	6234	-5314	-26024	10160	656	2215	3567	-608	-25656	7144	-14400	3714	-1266	27	124	127	1
-8976	-5124	14100	513	-114	190	-17248	1640	-11280	-720	1510	-572	-11272	-2744	-10720	-2505	1652	302	160	26368	31272	1257	4385	-3284	-21512	5968	-15984	-52	3475	-1013	-31000	9576	-10392	2327	-2063	1023	118	123	1
-7876	-6440	13156	262	-11	82	-18856	-1952	-7304	-2854	842	-287	-21472	-6896	-9552	-1722	1913	-537	-2816	32767	32767	-759	-563	-710	-18096	4928	-11064	-1745	1755	-636	-29512	7360	-4856	-225	-3230	1270	120	123	1
-7604	-6876	12752	188	-3	80	-16824	-4848	-5960	-3531	567	-556	-21112	-6056	-8288	-1538	1895	-614	10136	8992	15336	-1577	-1869	-341	-21400	-2136	256	375	515	-674	-30360	5192	-8072	-1470	-3466	1306	122	117	1
-7404	-6652	12856	45	91	56	-15888	-8976	-3400	-2137	496	-479	-17272	952	-2440	-487	1597	433	6952	9832	13856	-744	-2691	-1	-10160	-1712	-5664	120	-864	-218	-26824	4848	-8088	-1556	-3278	1484	113	119	1
-7476	-6476	12716	-86	144	55	-14736	-9192	-3296	-49	706	-382	-17720	-576	-3768	-525	1545	1154	8328	12736	11176	-1367	-3188	1037	-5192	-2072	-4104	425	-1406	-414	-19720	392	-5936	-643	-2656	1454	122	125	1
-7524	-7112	12420	-143	197	45	-14544	-9400	-3624	1744	972	-63	-14704	-2680	-2648	-434	1473	1224	4696	8016	10760	-1404	-3455	1917	-9392	-888	-4088	623	-2179	-335	-17712	2128	-6248	-58	-2485	1312	133	127	1
-7920	-7912	11684	-83	170	52	-15800	-3816	-3040	1889	922	51	-14632	-3384	-2936	-205	1567	971	2456	9352	9896	-855	-3733	2404	-9784	-360	-4296	590	-2336	-330	-16560	3712	-6624	-349	-2378	1311	120	128	1
-7772	-7464	12060	-3	123	70	-16424	-184	-2664	185	682	-167	-15704	-1032	-1416	-75	1611	662	-1104	12832	11480	-799	-4057	2795	-8752	1168	-7368	-140	-3925	-120	-15288	3112	-7432	-1235	-2234	1023	125	130	1
-7596	-7056	12268	-8	137	101	-15224	-2424	-1896	-1393	444	-281	-15600	1104	624	-197	1670	570	-3592	11904	11904	-703	-4598	3119	-8032	2080	-7104	-178	-4526	41	-13528	2608	-8272	-1948	-2053	673	123	130	1
-7852	-7184	12176	-1	130	122	-14288	-6256	-1120	-1743	452	-314	-14264	-760	624	-524	1834	647	-4392	12624	11096	-369	-4901	3123	-11024	2504	-6872	-318	-4936	132	-11376	704	-8312	-2234	-1955	528	123	130	1
-7984	-7232	12204	34	101	160	-13376	-8280	-1120	-1107	633	-218	-14992	-4480	632	-495	2090	673	-6760	15144	12984	-234	-5030	3139	-11736	2552	-10416	-673	-5426	305	-9160	-832	-8488	-2371	-1873	460	126	130	1
-7944	-7232	12080	84	67	183	-13448	-7720	-2360	-289	866	-142	-15664	-6736	-376	-525	2282	540	-8768	15672	14520	123	-5242	3220	-12712	1432	-9848	-708	-5784	339	-8016	-2264	-8072	-2334	-1607	329	126	129	1
-7800	-7248	12136	122	46	219	-14808	-5728	-3024	62	1001	-77	-16056	-5240	-5184	-312	2000	403	-9592	18880	14504	316	-5188	3211	-14320	680	-9896	-447	-6020	507	-6776	-3448	-7912	-2360	-1337	209	125	130	1
-8044	-7268	12352	120	45	227	-16128	-4088	-4840	-67	996	-94	-17136	-2248	-6360	9	1466	425	-9640	19160	16304	505	-4753	3262	-15792	8	-11040	-193	-6295	851	-5552	-5600	-8040	-2163	-1113	48	125	130	1
-7908	-6868	12920	-16	178	334	-17096	-3608	-5272	-511	910	-110	-17632	744	-4288	165	1501	462	-12944	25544	20880	1002	-4307	3489	-19864	1232	-14200	-74	-6441	1242	-6064	-8504	-6728	-1505	-981	-246	124	129	1
-7508	-7972	13208	-233	357	454	-16504	-5600	-3592	-861	803	-137	-15808	2440	-3600	-108	1499	519	-20928	23192	26016	836	-3896	4087	-25104	4832	-20168	-696	-6519	1824	-7664	-7168	1312	-1011	-768	-421	124	130	1
-8084	-7216	13800	-242	714	511	-17032	-5288	-2104	-1083	870	-120	-19232	-304	-288	-345	1357	505	-32768	17384	27448	2925	-3452	4457	-26712	5552	-21176	-1429	-5968	1276	-9648	3344	7504	34	-458	145	123	128	1
-8124	-6476	13768	-111	1042	588	-17784	-5264	-400	-981	1059	-34	-20792	-4200	2992	-666	1275	298	-32768	18680	22280	1968	-3405	3525	-24472	6848	-22392	-1021	-4694	734	-16176	9352	11488	1021	50	1126	125	129	1
-8416	-7076	13940	-102	1427	673	-16840	-7096	216	-723	1438	73	-19200	-6224	3880	-922	1222	169	-32768	1728	11024	461	-2903	1634	-15288	568	-25432	-549	-3221	875	-24920	5720	22656	2344	-56	987	125	128	1
-8492	-8020	14132	-50	1829	860	-18008	-6496	-1120	-492	1793	147	-17856	-4848	1888	-758	1164	140	-32768	-4360	4504	1266	-2178	-566	-11936	-208	-28952	1267	-1404	854	-17416	14240	23456	2787	339	699	126	126	1
-8524	-5920	14484	-49	2322	993	-18832	-3344	-2608	-541	2072	279	-17488	-4768	544	-505	1088	384	-32768	-2160	2448	1182	-1281	-1722	-6272	-448	-25632	2786	697	1198	-17424	11400	15312	1817	141	544	112	126	1
-8592	-6688	14432	-220	2911	1093	-18904	-2664	-2264	-595	2269	432	-18416	-3408	1544	-474	794	616	-32768	2760	4984	-179	267	-2312	-6776	-1368	-22448	3373	2552	588	-13728	7968	5552	1322	415	177	128	127	1
-9252	-7272	13928	-384	3441	1359	-19008	-2888	-768	-681	2497	446	-19320	-1296	4448	-444	278	676	-4032	32767	18160	-4602	4263	-3281	-24648	9656	20080	6297	2981	-267	3792	3744	-5784	1155	1124	-119	123	127	1
-9716	-7860	14264	-494	4030	1752	-19720	-4640	-616	-874	2749	498	-20248	-5456	7168	-546	-290	548	-18120	432	12192	278	4933	-2294	-32768	-5440	296	-627	1637	842	-30272	32767	-5320	2557	2960	116	119	126	1
-10040	-9280	15236	-625	5224	2327	-28224	-5256	-32	-993	2988	765	-25792	-11040	13392	-606	-1358	-119	-24576	13416	31664	127	3490	-1765	-656	-15064	-8552	-5545	2598	-848	-28936	6512	15872	-5478	991	-729	110	125	1
-16616	-17792	15088	-541	6250	3633	-32768	488	9496	-2560	2867	542	-23112	-72	11112	-989	-2607	160	-9296	18064	14696	-146	2124	-1655	-25392	2352	-10272	-5821	4334	-1661	-20880	-18992	-12272	-6150	1006	-763	131	123	1
-26364	-19388	22312	403	6053	4533	-28312	-11456	1616	-3945	3190	549	-24248	5104	7016	-526	-2186	443	-8616	8576	17464	37	1930	-1238	-22192	712	-14320	-6514	2348	-395	-9528	-19312	-5064	-784	662	436	134	119	1
-24632	-17848	25852	1763	5755	5037	-25992	-16544	3928	-3043	2942	736	-22544	-3224	-11024	-1841	-1156	-425	-19376	31008	16280	-1008	284	-889	-6680	-1600	-20448	-2850	1983	122	-14592	688	-4064	2617	1547	-39	119	126	1
-23004	-19736	23208	173	5346	3959	-19792	-9176	-13136	249	3524	1136	-26064	-6360	-10120	-864	-1918	-1128	-5464	7824	14504	-431	23	-345	-18928	-8800	-14768	2255	1364	728	-20352	9888	-14768	4060	2258	618	126	128	1
-22448	-19616	27244	-348	4967	3459	-19160	-4136	-21744	1819	2985	1340	-30120	-632	-7008	721	-2901	-1309	-3968	8816	14392	-353	25	-156	-23504	592	-9480	5634	1178	1152	-16288	10232	-3376	3041	1793	1075	127	129	1
-1688	-23284	25292	1668	-2647	750	-22824	-3752	1600	-201	873	584	-32440	-296	-10104	1655	-3253	-1244	-3648	8656	14056	-146	53	-86	-18160	6296	-4432	5531	424	788	-17384	5200	-1960	1601	1432	-2	124	126	1
656	-11844	17396	325	-3316	343	-15344	-4248	-5864	784	-211	412	-25584	1664	-7800	1453	-2913	-1557	-3280	9616	13448	33	80	-83	-14680	10896	-1824	2496	521	596	-16504	4928	-1760	839	1283	-854	121	127	1
-252	-20136	12196	568	-4054	-512	-10600	-3112	-5576	883	-1000	415	-21288	2960	-7288	242	-2858	-1643	-3112	10000	12696	153	91	-100	-13376	8848	-896	-899	630	267	-14904	4720	-408	330	1105	-1051	110	127	1
196	-13000	9388	1034	-4310	-1214	-8352	208	-5168	414	-1883	258	-19728	-1152	-6336	-130	-2598	-1218	-3328	10408	12560	128	50	-134	-14664	6776	-3032	-2702	1063	-245	-13496	4624	1760	-186	1355	-869	104	130	1
-2796	-10116	9120	261	-4041	-1904	-9888	-3296	-6368	316	-2859	454	-17160	-3816	-6264	540	-2489	-1260	-3192	10832	12016	-1	6	-192	-18848	1920	-3352	-2732	708	-272	-14704	2984	856	-212	1463	-525	150	132	1
-6416	-10672	9316	-227	-3999	-2416	-9312	-2688	-7088	806	-3548	398	-16728	-376	-6944	1615	-2403	-1386	-3152	11008	11776	-196	1	-238	-17560	-3328	-3864	-858	458	46	-15064	2928	1232	190	1619	-297	135	134	1
-7624	-9264	9144	-456	-4038	-2726	-9472	-1448	-7696	1012	-4025	289	-14600	2504	-8408	2130	-2354	-1201	-3512	10104	12408	-308	27	-258	-14944	-1272	-3320	1412	502	330	-14040	2688	976	514	1548	-262	118	135	1
-9888	-9836	10912	-673	-4104	-2926	-9776	-1984	-8512	1147	-4418	145	-15696	3184	-9048	2094	-2243	-918	-3728	9904	13240	-301	54	-239	-14648	6688	-2384	2082	567	425	-16200	-176	4648	1336	1342	-622	111	133	1
-11936	-11056	12836	-691	-4354	-3156	-11040	-1208	-10040	1360	-4882	88	-8248	5360	-9104	1473	-1845	-354	-3960	9888	13144	-226	81	-172	-15264	2536	-2304	2036	597	464	-14824	8856	4384	616	1752	-640	125	133	1
-13408	-9384	13984	-985	-4492	-3250	-11128	-2000	-10840	1465	-4969	76	-8360	4712	-9152	1223	-1903	-492	-3640	9960	13128	-198	94	-162	-16480	9648	-1368	1222	417	287	-15224	10384	1728	964	2130	-744	122	130	1
-15972	-11556	14840	-1230	-4545	-3201	-13264	-1320	-10264	1341	-5841	-146	-6784	5016	-7952	1437	-1626	-245	-3240	10360	13264	-198	103	-198	-16824	5928	-1816	-1162	1039	-240	-18376	8232	-2912	152	2470	-749	121	131	1
-19124	-13604	16184	-1277	-4460	-3290	-14664	-304	-11288	1180	-6129	-522	-4952	7376	-8240	1520	-1368	59	-3576	10088	13664	-171	144	-281	-16808	1904	-4504	-1232	1042	-149	-17896	3224	-2856	-559	2080	-458	118	130	1
-22592	-15668	17400	-1193	-3951	-3878	-17992	-2456	-13240	1532	-6257	-647	-3928	9280	-5576	1228	-1008	457	-3664	9760	13608	-56	186	-368	-17648	-920	-4904	-247	1017	58	-16576	-592	-1416	-711	1932	-291	128	129	1
-29908	-11020	19280	-920	-2934	-4531	-23624	-7000	-15296	2151	-6201	-533	-4896	3360	-360	675	-570	542	-3448	10016	13992	64	253	-490	-16416	224	-2080	1020	1079	281	-16528	1136	792	-95	1633	-437	109	130	1
-32768	-5224	19972	-906	-2254	-4724	-26072	-9104	-19944	2491	-5558	-77	-9648	-7944	6432	158	-381	-350	-3960	9920	13632	21	451	-724	-15024	4536	-1168	1538	1253	352	-15856	4640	5320	665	1506	-457	122	128	1
-32768	1240	12184	-254	-2548	-4102	-21936	-6928	-22328	1930	-4243	82	-19624	-7128	12944	592	-541	-1464	-4448	8256	15368	177	704	-822	-16416	7208	-1984	978	1587	150	-16624	6352	4648	1292	1428	-169	132	125	1
-32768	16568	-3712	-488	-2569	-2333	-12256	-4776	-23280	1199	-2902	-97	-27320	-3496	18512	524	-239	-817	-3896	9272	15792	139	1087	-991	-20440	2328	-2424	402	1955	-30	-19528	6096	2792	1316	1366	136	118	136	1
-32768	23520	-10976	-1626	-1775	42	-10016	-2768	-24744	-452	-1348	-573	-21016	-3848	16712	-769	-10	81	-3720	9504	17448	292	1625	-1081	-21104	784	-4280	435	2197	-124	-19048	5952	1640	1213	1224	-84	121	123	1
-32768	20448	-10564	-1273	-1091	1593	-8456	-1640	-25144	-2424	206	-813	-17296	-4736	10584	-1716	34	369	-3872	8728	17384	510	2282	-1209	-20656	704	-3616	455	2452	-289	-18640	6024	2184	911	899	-294	124	140	1
-32768	11000	-5256	-350	-264	2116	-7064	-3704	-24808	-3200	1777	-306	-16096	-7640	14576	-2192	-812	-232	-3824	9744	16896	877	2879	-1456	-19904	2184	-2864	278	2748	-405	-18592	6792	5072	713	504	-335	124	123	1
-32768	-5108	-2744	456	35	1987	-10920	-6496	-21488	-2921	3034	-133	3704	432	-22024	-3541	2804	613	-3248	11440	16136	1363	3431	-1920	-21960	1680	-1168	269	3095	-459	-20448	7440	10592	502	-413	-252	127	112	1
32767	-20728	28800	2754	2482	2123	-32768	-14096	32767	-4527	-553	-740	-18168	-6544	-4256	-1542	1651	1344	-1864	12184	19336	2173	4136	-2711	-28408	1136	-520	608	3417	-517	-21696	11376	15504	1243	-1834	19	128	126	1
-32768	4032	32767	2108	3899	2770	-17520	-25176	-31096	5172	2486	-523	-32768	-25088	27768	3794	-190	-1857	-3024	21120	18688	2187	5297	-3897	-32768	-8064	3704	2045	3444	-479	-25776	912	18288	718	-2263	-7	111	129	1
-20112	-10084	19832	776	2312	1854	-18936	25504	-12440	4050	4360	1487	-24304	15464	-760	4091	1818	456	-11344	26736	20560	1562	6257	-5132	-32768	3512	3840	3699	3317	-143	-24032	-5912	13784	273	-2451	-679	117	131	1
-15800	-10516	17780	942	1048	698	-22432	-1768	-9112	756	2537	-565	-15968	18056	-12536	1224	1992	-106	-11328	24192	25608	-27	6285	-5723	-30344	14344	1648	2503	3542	-414	-23160	768	-5632	2152	-1654	-387	123	133	1
-31096	-6360	24856	677	246	313	-9608	-7024	-17160	341	1677	-1028	-7104	2064	-9384	-2116	1829	346	-14240	30440	27600	139	5907	-5235	-23888	9456	-5744	1241	3988	-725	-27976	10296	-14088	2405	-1480	601	119	128	1
-8588	-4972	13844	521	24	185	-13552	-4360	-9720	38	1366	-766	-9008	-12728	-11048	-1860	1726	840	-14456	28656	26792	434	5623	-4964	-20736	8520	-23936	-1850	3102	-1401	-30288	6944	-6432	593	-2611	911	130	124	1
-7300	-5776	13780	277	36	41	-21408	-3632	-5904	-617	1088	219	-22288	-6280	-8976	324	1707	-28	6856	32392	26872	-1419	-1920	-933	-21904	2864	-1056	-431	1464	-529	-32768	2472	-6320	-1203	-3306	876	125	122	1
-7256	-5876	13720	192	28	39	-18584	-1040	-4208	-1791	789	-298	-18120	3728	-1792	1195	1681	-94	8528	7912	15160	-1481	-2511	-1094	-18224	-1432	-5632	167	-261	3	-27056	184	-7640	-1532	-3137	1368	122	122	1
-6740	-4972	14012	50	115	43	-15920	-3112	-2592	-2008	449	-565	-17240	6000	160	119	1554	343	8360	14840	10544	-486	-3231	-22	-7768	-2968	-5232	281	-1232	81	-22600	-2424	-5976	-820	-2930	1717	121	120	1
-7012	-5160	13736	-111	182	49	-14544	-6808	-2400	-1052	532	-534	-17328	3328	-1328	-861	1570	926	8520	12088	8224	-1008	-3282	1274	-5056	-4568	-4624	1379	-1689	6	-19064	-1936	-7088	342	-2756	1350	108	123	1
-7248	-5748	13304	-171	182	48	-14856	-10144	-2560	710	843	-191	-15072	-1200	-1824	-1093	1558	999	4712	6800	9272	-195	-3253	2359	-9512	-224	-5152	1449	-2690	235	-16952	40	-6704	1054	-2495	1460	139	126	1
-7412	-6792	12500	-76	138	94	-15792	-4296	-2192	1271	863	-21	-13904	-3856	-1928	-807	1632	876	752	10368	11776	291	-3486	3046	-9040	1312	-6400	721	-3596	429	-15464	1272	-7496	555	-2317	1384	125	124	1
-7380	-6376	12592	53	85	129	-15600	-784	-2264	-27	669	-203	-14856	-2992	-1048	-493	1665	570	-1736	8344	13824	338	-4024	3317	-6648	424	-7016	254	-4379	662	-13568	1312	-8464	-322	-2097	1052	122	127	1
-7396	-5808	13224	64	86	128	-14688	-3352	-1600	-1069	527	-304	-14792	-496	120	-163	1745	555	-4000	7792	13952	799	-4729	3124	-7888	32	-5648	71	-4871	848	-12696	240	-8200	-1229	-1926	708	122	125	1
-7624	-6276	12936	69	86	133	-14920	-6184	-808	-1251	601	-282	-14688	-1728	840	-1	2022	722	-5872	11688	14616	827	-5284	2778	-9976	-272	-6440	113	-5257	1074	-10128	-1576	-8704	-1694	-1856	471	126	126	1
-7544	-6188	13012	91	65	148	-14400	-7568	-952	-833	769	-183	-15464	-5576	1760	-329	2400	753	-7152	11472	16584	794	-5577	2606	-12088	-1264	-9136	-105	-5715	1338	-7376	-2896	-9048	-1587	-1601	297	127	126	1
-7512	-5980	12968	140	79	198	-13464	-7416	-1048	-268	955	-74	-15968	-5984	-1152	-302	2411	535	-9376	16368	16936	1159	-5665	2679	-14552	-2256	-7560	25	-6013	1378	-6704	-2800	-9648	-1483	-1382	170	126	127	1
-7340	-6112	12984	201	67	293	-14248	-5496	-1496	3	1101	-90	-16552	-3328	-4608	7	1785	332	-8880	18656	18072	903	-5131	3077	-16320	-2560	-9192	89	-6147	1489	-6096	-3248	-10184	-1577	-1322	106	127	127	1
-8076	-5348	13740	168	111	370	-14384	-5024	-2016	12	1112	-93	-17960	-1448	-3464	93	1351	362	-10664	20688	22608	1317	-4343	3726	-19312	-2120	-12224	-44	-6337	1620	-4520	-4456	-9664	-1870	-1123	-11	126	128	1
-7604	-4984	14000	37	259	366	-16912	-3216	-4008	-611	1118	-95	-16480	-376	-2976	-156	1412	413	-17872	32767	27480	1376	-3849	4616	-27976	1504	-15168	-396	-6593	1961	-5344	-4536	-5936	-1750	-854	-272	125	128	1
-7248	-5684	14000	-109	429	417	-16120	-5496	-3672	-857	1104	-78	-15400	416	-2432	-248	1430	442	-28488	21768	30888	1773	-3362	5770	-28840	4096	-15528	-1616	-6614	1668	-7672	-864	1680	-1579	-696	-67	124	127	1
-7276	-5812	14548	-101	802	532	-16000	-5896	-3192	-864	1112	-71	-18960	-736	-1056	-301	1345	400	-32768	20736	24920	2397	-2876	5592	-29640	6200	-19456	-2477	-5724	691	-15328	7712	15336	-694	-822	765	126	127	1
-7644	-5860	14844	-176	1120	599	-17544	-4880	-1032	-887	1425	47	-19480	-2936	1800	-701	1250	307	-32768	12200	9440	158	-2047	4219	-18456	4136	-20824	-2946	-4106	408	-27472	9872	30984	561	-505	1455	132	127	1
-7808	-6232	15024	-71	1546	693	-17576	-5480	-1368	-825	1713	123	-17992	-3224	1736	-1045	1195	164	-32768	-12264	2304	1292	-1444	1346	-11616	-584	-28896	-2224	-2142	201	-17248	8024	32767	766	512	980	133	126	1
-8220	-4952	15424	-68	2015	820	-18176	-5016	-2712	-680	1998	178	-17832	-3504	432	-665	1170	250	-32768	-4888	-480	897	-1326	-972	-1656	-1592	-26104	1159	747	634	-19456	5640	18232	897	140	275	98	125	1
-8212	-5632	15624	-84	2540	914	-18384	-5792	-2840	-546	2230	373	-17520	-5976	-384	-630	1044	520	-32768	4216	3064	-1061	241	-2104	-5848	-200	-24080	2641	2621	378	-19408	6672	15472	1206	188	100	108	126	1
-8488	-6032	15336	-171	3080	1163	-19344	-4416	-1984	-454	2472	474	-20096	-4600	1960	-577	583	576	-31032	8224	7352	-1385	868	-2288	-13968	2016	-22984	3252	3765	129	-10944	3832	15120	1982	-9	57	129	126	1
-8844	-6500	15400	-377	3649	1552	-19384	-3848	-1792	-475	2510	484	-21016	-2232	6520	-423	-213	536	32767	32767	-4752	-3463	3173	-2114	-32768	10560	32767	11272	1109	-835	-40	5952	-21280	2530	2803	-1577	113	126	1
-9416	-6664	17604	-561	4436	2041	-23872	-4336	-1840	-1518	2921	604	-21880	-8560	12584	-805	-1316	150	-32768	23136	32767	379	5740	-2650	-4152	24936	-30024	-3533	1110	1138	-32768	25552	29960	-1477	560	1448	123	126	1
-11764	-15560	14484	-673	5600	3047	-32768	-4064	8680	-2495	2943	642	-22872	-5088	12432	-1142	-1865	-333	-17416	11576	27392	-394	2597	-2358	-18200	616	-13440	-5013	4770	-1274	-21112	-8856	1600	-5364	2309	-1148	163	127	1
-19260	-19132	19440	288	6219	4609	-30832	-7968	6832	-3493	3115	570	-25600	2016	13080	-663	-2341	507	-5952	16600	12672	-309	2016	-1215	-28280	3336	-6752	-5696	3301	-1203	-20856	-20136	-12720	-4050	610	481	136	122	1
-32768	-16696	32767	975	5747	4971	-28024	-16312	680	-3379	3273	741	-23648	-2096	-3136	-1203	-1608	88	-16384	8928	23552	-102	1584	-1311	-13712	-1024	-16384	-4812	2069	-144	-4928	-9048	-3160	1655	1257	232	111	125	1
-16920	-18460	23804	1078	5731	4991	-22888	-12840	912	-2066	3185	1118	-24376	-6968	-13056	-917	-1578	-912	-3392	8632	18112	-856	427	-304	-7488	-1824	-13320	-1606	1731	209	-16368	10880	-15912	3261	2388	-123	121	130	1
-10912	-28056	23288	250	3829	3509	-19008	-6896	-22504	1275	3303	1281	-29144	-1368	-8856	-20	-2582	-1481	-4464	12000	13760	-463	38	-158	-24104	-6808	-10280	2584	1257	897	-20536	10464	-9104	2308	2284	893	135	130	1
-10532	-32768	30440	1582	-1019	-165	-20168	-4672	-3512	1084	1611	887	-32768	424	-7792	1010	-3218	-1506	-3904	10256	13416	-286	16	-87	-22472	896	-7672	4708	1029	772	-17896	4088	-2216	602	1672	375	127	129	1
4984	-11148	16460	1540	-1641	-283	-19328	-3008	-3816	209	-14	406	-29320	40	-9000	1387	-3050	-1745	-3472	9592	13720	-86	41	-70	-16880	3960	-3960	4275	642	780	-16720	104	-184	362	1501	-287	124	129	1
120	-14560	14720	-107	-2187	-1108	-12040	-5464	-7488	1491	-658	721	-22976	3416	-7400	875	-2651	-1828	-3184	9736	13192	78	73	-78	-14864	9016	-24	2106	437	675	-16168	1576	600	427	1521	-845	122	129	1
-872	-17100	12280	484	-3143	-1806	-7264	-1544	-6032	1357	-1535	236	-21464	3192	-6736	-27	-2575	-1420	-3240	9776	13112	164	99	-117	-12616	8936	-160	-933	777	347	-14048	2672	2272	567	1409	-865	117	130	1
-2228	-10452	11400	369	-3674	-2348	-8080	-448	-6224	733	-2458	36	-18792	-440	-6600	-164	-2377	-1325	-2904	10080	12536	164	84	-176	-16024	7160	-2408	-2521	1039	-110	-14176	4624	808	492	1488	-764	121	133	1
-5756	-8484	10804	-413	-3964	-2677	-9472	-3448	-6904	790	-3391	124	-15992	-936	-6120	677	-2364	-1539	-3032	11096	11576	13	83	-222	-18672	1776	-3512	-2407	717	-130	-13744	4392	688	610	1728	-447	161	134	1
-6872	-8108	9652	-714	-4299	-2665	-8112	-832	-6688	1079	-3957	51	-14120	1496	-7072	1542	-2291	-1386	-3496	10856	12232	-216	76	-273	-17080	-3784	-4424	-373	555	165	-14200	3600	-192	542	1670	-242	124	135	1
-8284	-7528	9892	-1015	-4379	-2641	-8440	-32	-7432	1003	-4412	-158	-11952	3232	-8088	2056	-2174	-1019	-3952	9760	13048	-257	101	-259	-14472	-576	-4016	1583	624	476	-14088	2864	544	376	1673	-213	123	135	1
-10372	-9564	11488	-1178	-4475	-2771	-9984	-1008	-8616	890	-4833	-326	-8848	3136	-10088	1824	-2072	-666	-3936	10032	12960	-192	135	-181	-14768	6840	-2032	1890	662	446	-14352	6688	3064	683	1962	-565	120	133	1
-12260	-9992	13616	-1337	-4564	-3050	-11616	-1552	-10048	998	-4873	-364	-8648	5400	-9424	1407	-1830	-326	-4016	10088	12936	-155	125	-163	-16232	9536	-1784	934	463	196	-14592	8552	520	1125	2553	-685	127	132	1
-14724	-11212	14932	-1501	-4521	-3316	-12592	-1688	-9496	656	-5816	-532	-6792	4752	-9184	1216	-1599	-197	-3936	10120	13136	-144	128	-177	-15928	7112	-2184	-629	983	-20	-17928	8496	-4496	472	2471	-631	122	132	1
-17056	-13296	16148	-1504	-4339	-3514	-14632	-1856	-9928	874	-6119	-820	-5144	4616	-8584	1346	-1362	-122	-3632	9888	13728	-104	158	-228	-16552	2792	-2464	-912	1027	-77	-17976	5184	-2680	-317	1817	-327	118	134	1
-21020	-15876	18432	-1487	-3974	-3929	-17880	-3096	-12696	1515	-6316	-1007	-3544	6736	-7992	1351	-1055	62	-3616	9728	13800	20	207	-284	-16520	504	-2856	-444	1118	82	-16504	2528	712	-754	1574	-113	119	132	1
-25820	-15160	19992	-1129	-3324	-4496	-22528	-6344	-14944	2603	-6338	-957	-4960	7744	-3712	1027	-843	331	-3456	10312	13872	174	301	-426	-16336	1744	-2784	308	1254	204	-16456	1512	2016	-414	1563	-51	125	132	1
-32768	-4448	19764	-1750	-2304	-4657	-26200	-7712	-18032	3241	-5971	-483	-8616	-648	4392	578	-678	76	-2904	10368	14008	178	514	-708	-17272	3816	-1888	848	1385	296	-17104	2600	2344	484	1522	-211	103	131	1
-32768	-3008	15284	-2052	-1739	-4298	-25984	-4744	-19920	1823	-5106	13	-15712	-7976	7744	-155	-356	-1152	-3544	10392	15032	365	851	-762	-18056	3512	-2664	1015	1604	184	-17408	4512	2864	1289	1554	-177	113	132	1
-32768	1548	4480	-579	-2272	-3544	-15088	-3584	-25936	484	-3780	-534	-24816	-936	19648	-75	-436	-1561	-3792	9520	15976	402	1289	-921	-19872	2528	-2392	852	1868	121	-18536	3280	2400	1437	1344	62	120	129	1
-32768	4928	2456	-437	-2389	-3320	-12984	-4120	-25216	-1280	-2353	-704	-22912	-3528	19312	-1663	315	-514	-4088	9416	16736	506	1800	-1064	-20480	1856	-4256	750	2125	72	-18440	4744	912	1379	1303	-31	131	134	1
-32768	25132	-13388	-2966	-1319	485	-9640	-4712	-24768	-2500	-583	-1030	-19776	-11288	12440	-2134	171	215	-4056	9552	16608	776	2385	-1164	-20616	2768	-3344	407	2369	-224	-18000	8456	768	1346	1229	-232	119	126	1
-32768	11800	-10904	-400	-459	1773	-6576	-4256	-21440	-2534	1487	-490	-16424	-11120	6120	-1695	749	83	-3576	10616	15760	1116	2911	-1417	-19712	3808	-2200	27	2621	-371	-18200	8928	3112	827	816	-332	125	128	1
-32768	4948	-3028	1372	520	1953	-9176	-4688	-21616	-1959	3229	191	-4728	-13480	3224	-1330	-186	-625	-4328	11016	14640	1541	3356	-1891	-19784	1440	-720	3	2955	-413	-19680	7864	7640	375	100	-318	132	122	1
32767	-10728	27740	2442	2965	2334	-32768	-5320	32767	-2228	201	-340	-14824	-10528	-14096	-2480	1969	630	-2184	11560	18192	2131	4108	-2456	-24984	280	-912	600	3306	-550	-22584	13648	13464	653	-1228	-5	130	130	1
-32768	3716	32767	1696	4154	2219	-13408	-19496	-23608	6050	3113	2	-32768	-15104	22208	4335	-99	20	-3240	19384	17416	2227	5293	-3615	-32768	-6032	7976	1819	3591	-686	-27488	3640	21944	122	-2549	209	124	124	1
-20592	-7372	18476	882	2313	2158	-10104	19376	-15104	4376	4488	1526	-17264	12216	-5336	5850	1909	762	-14456	28960	23936	1643	6284	-4854	-32768	1480	2728	3458	3263	-185	-25000	-7240	18272	-152	-2862	-522	124	120	1
