#Activity	walking 
#ActivityID	1 
#Date 10-21-15-56
acc_rf_x	acc_rf_y	acc_rf_z	gyro_rf_x	gyro_rf_y	gyro_rf_z	acc_rs_x	acc_rs_y	acc_rs_z	gyro_rs_x	gyro_rs_y	gyro_rs_z	acc_rt_x	acc_rt_y	acc_rt_z	gyro_rt_x	gyro_rt_y	gyro_rt_z	acc_lf_x	acc_lf_y	acc_lf_z	gyro_lf_x	gyro_lf_y	gyro_lf_z	acc_ls_x	acc_ls_y	acc_ls_z	gyro_ls_x	gyro_ls_y	gyro_ls_z	acc_lt_x	acc_lt_y	acc_lt_z	gyro_lt_x	gyro_lt_y	gyro_lt_z	EMG_r	EMG_l	act
-25716	-26008	28376	4309	-32768	-22515	-25080	1576	-12876	12633	-32768	-13001	-6448	3120	-8064	1906	-600	-88	-7120	4848	13244	115	1715	-1624	-15316	5076	-1640	1857	10036	-4283	-17052	7268	-672	1767	10228	152	128	127	1
-32768	-32768	28948	13795	-32768	-27450	-32768	-1768	-16072	14550	-32768	-14980	-10848	1728	2512	1424	-1331	-121	-8472	4224	13796	-400	2767	-2369	-17420	4452	-4360	-788	11522	-5541	-15812	6812	2808	1029	13785	-610	139	126	1
-32768	-14092	19852	8763	-32768	-32768	-29616	3356	-16916	14276	-32768	-9244	-24736	-7256	12736	1328	-2472	-590	-7240	3740	13616	-582	4129	-2825	-18136	1156	-2048	719	12553	-6659	-18088	4728	1700	-174	15140	-776	138	123	1
-32768	-18428	6144	6144	-32768	-32768	-30560	6600	-29144	-4701	-32768	-8801	-20736	1848	18680	-187	-2403	-788	-4728	3840	14956	-426	7389	-2981	-17220	3612	-2000	1834	14251	-7631	-16872	2744	1340	708	10802	-433	126	130	1
-32768	-2840	-20416	15578	-24542	-17130	-9380	-6672	-26396	-3232	-20163	-8806	-8192	10392	32767	1103	-267	-874	-7724	3780	14356	-67	12232	-3467	-20796	1880	-2980	1626	16210	-9030	-22076	148	3272	2268	7265	-784	139	134	1
-32768	4328	-24512	11288	-23750	-12410	1684	6956	-16156	-6853	-1507	-5441	-17560	3016	31000	-186	572	175	-7068	6048	15352	-313	17982	-4537	-22412	3052	-5088	3134	17754	-9513	-19792	1564	1316	5901	5455	-175	117	127	1
-32768	-12528	-32768	-13321	-1487	15777	-4936	-952	-18700	-10970	18270	-1821	-16048	200	24792	-462	-276	-237	-8864	5800	13976	-1260	25403	-7877	-23168	2528	-5692	5868	18870	-9647	-21664	3052	2068	9236	-12	-577	114	126	1
10664	-5720	22656	15120	29862	16856	-25724	-2476	15992	-9832	24830	960	-13728	-1480	-480	-26	351	-136	-8424	4088	14456	-2222	32767	-12654	-24760	1140	-4040	11004	19784	-8642	-22056	3744	8948	8901	-8601	-2579	114	117	1
-4168	3460	5528	-2886	32767	13469	-32768	4172	2672	32363	19563	3524	-32768	280	20960	355	-575	-588	-9248	5200	15116	-3323	32767	-17110	-31924	6780	3400	14965	20540	-8636	-25188	-320	13460	2830	-12798	-3148	136	120	1
-32768	-2296	32767	-10107	32767	5096	-13696	25852	-4232	24603	29922	10302	-5640	6496	20296	5603	2875	-565	-9028	5816	14600	-5816	32767	-22621	-32768	8460	8064	14300	21832	-9560	-24540	-3728	16324	1380	-16898	-6077	131	118	1
-20312	-19216	24052	-6792	25244	9550	-26868	2120	-19340	20116	26978	8935	3440	5336	9504	5777	4025	-192	-22680	6696	17304	-4474	32767	-28292	-32768	7884	4296	16807	20476	-10518	-24920	-2808	5212	9511	-12890	-7932	133	130	1
-12932	-10756	22052	10174	16655	8206	-15788	-7420	-16856	14889	24094	-2587	-14264	16128	-19080	613	2399	-623	-32768	10300	30884	-5699	32767	-29575	-30748	6208	-9676	17381	18670	-10328	-24972	-704	492	12991	-13246	-7889	168	142	1
-31012	-18176	32767	7461	377	4761	-6752	3208	-22996	12548	18325	-385	-3312	-12672	-15448	-2937	260	207	-32768	16584	31812	148	32767	-25845	-24632	6568	-1048	16458	14617	-12913	-26512	10340	-10308	18256	-17580	-3065	76	133	1
-10048	-1212	16372	5336	290	2678	-16272	8624	-13140	-8992	13105	-1435	-16928	-5016	-11376	-524	1438	-924	-25588	15148	32767	-9709	32767	-32768	-17188	6628	-15364	7708	11275	-9538	-30752	8048	-7828	4777	-18876	2445	71	127	1
-6012	-7172	14768	2388	-115	513	-21696	4792	-8700	-24861	10778	-4424	-25760	-3984	-7664	-1341	1331	-901	-32768	27188	32767	5818	-11679	-12415	-11248	-580	-22128	-3057	14726	-6697	-29048	4436	-8888	-3765	-19364	6067	131	123	1
-5832	-7116	14576	2286	-105	569	-20028	-5044	-7804	-23395	7278	-3644	-21320	-3648	-3080	-1753	1280	-136	860	21780	25584	2973	-32768	-55	-18160	7584	11792	3390	-4641	-968	-30312	2264	-10168	-7340	-19635	7282	118	128	1
-5628	-5140	14736	350	131	-22	-16000	-8560	-4804	3449	6523	927	-14408	-6120	-1824	-608	1793	325	6536	12248	10676	1118	-32768	3828	-7844	776	4672	859	-11627	5855	-23664	-456	-12232	-3939	-19096	7757	96	93	1
-6340	-5696	14628	-219	167	-437	-15252	-3376	-7176	18167	5385	3766	-14952	-6672	-2728	749	2050	256	1044	9428	11468	5537	-32768	8374	-4860	1672	68	426	-17220	9504	-17188	-1816	-11712	-4864	-16697	7004	93	106	1
-6152	-6268	14308	-479	-203	-546	-15036	1444	-6268	15217	4343	3232	-15120	-2600	-2376	1325	2227	-62	-3704	8652	12980	8667	-32768	12451	-4152	2496	-2388	-5764	-21138	13691	-13064	-1904	-11264	-5938	-17944	6387	113	122	1
-5676	-6100	14356	-266	-337	-97	-15940	5984	-4228	-702	3679	733	-17400	3232	520	450	2061	-215	-6620	6148	12996	10027	-32768	14795	-7988	856	-2148	-8949	-26433	17644	-12916	1380	-12512	-6801	-16825	5353	125	118	1
-5824	-5356	14100	-426	-277	58	-16884	2952	-2976	-14240	3300	-1937	-16264	4840	2232	-1206	1977	-157	-10140	4552	14512	11939	-32768	16314	-11028	-2084	-3896	-4817	-31924	20591	-10084	2928	-14388	-8316	-15494	4920	128	147	1
-6012	-5136	14344	-511	-260	19	-15280	-640	-1776	-13776	3255	-2886	-16312	1184	2448	-2057	1708	188	-13836	3696	18300	13608	-32768	17353	-12428	-216	-4272	-5605	-32768	23970	-7184	1808	-13408	-12983	-14961	2574	130	146	1
-5984	-5892	14292	-213	-243	-46	-15264	-4304	-1628	-6627	4771	-1427	-15312	-4168	2120	-2094	1728	257	-16592	3316	20312	16450	-32768	18703	-15536	264	-3852	-7941	-32768	26451	-4220	908	-13156	-17269	-12515	1783	117	142	1
-5516	-5764	14444	-135	-311	349	-15856	-4820	-3028	1485	5499	670	-13512	-4048	4400	-1144	2149	-141	-19280	4616	19960	17868	-32768	20403	-19220	724	-4492	-10703	-32768	27919	-2248	1204	-14732	-20857	-10272	569	132	129	1
-5484	-5676	14504	187	-120	643	-16076	524	-3172	127	6139	1143	-13312	-1768	5696	-392	3064	-481	-20136	4368	20436	16564	-32768	22132	-25124	96	-5644	-13716	-32768	28821	-2968	312	-12940	-20757	-9732	-302	143	130	1
-4744	-4900	14840	279	-297	1556	-16472	1688	-2700	-5092	6653	-44	-14232	-2912	2304	-360	3244	-343	-26488	5076	27648	16012	-32768	22511	-31872	-1508	-7976	-15409	-32768	28795	-4236	-1248	-10840	-19048	-9066	-336	142	135	1
-6120	-4836	14660	346	16	1402	-15180	-460	-652	-4725	7857	-273	-16720	-5536	-1216	-239	2019	-46	-32768	12068	32767	9516	-32309	24195	-32768	-344	-14336	-16706	-32768	30247	-7692	-5548	-5388	-15612	-7645	-1367	133	133	1
-5492	-5720	14332	-160	930	1224	-13812	-4144	-484	1755	9909	1297	-17256	-5936	5672	202	1386	24	-32768	560	25892	7570	-32768	32300	-32768	-5952	-20484	-19325	-32768	25200	-14392	3064	3092	-11056	-11142	1614	133	133	1
-5924	-6252	14756	-929	1989	1554	-14356	-4216	-1028	2759	10242	1576	-19160	-2088	9032	226	1783	-202	-32768	-3000	18452	3213	-32768	32767	-28208	-1804	-22604	-23639	-32768	18977	-25476	2536	17500	-6655	-20401	4133	134	125	1
-5920	-6084	14552	-1835	3604	1936	-17420	184	232	494	15296	2516	-19440	424	7056	-332	1645	-221	-32768	-19424	-21356	861	-32173	28059	-21064	-6836	-26784	-26225	-22495	13520	-11988	-19328	26356	-16062	-13183	2448	135	109	1
-3184	-4072	15716	-3982	7364	2805	-18364	1048	-380	-1255	18143	2802	-20056	2336	5960	-842	1015	-192	-32768	-32768	-32768	18547	-11101	14155	-4592	-11640	-30948	-9281	-4199	5425	-17208	-7016	32767	-1850	5713	566	119	132	1
-5820	-3852	15704	-7187	13885	2206	-21144	3004	-2704	-702	20903	4053	-20160	2376	6048	-867	942	-185	-32768	-19544	-28144	1918	3074	2022	-3488	-7956	-28116	6584	15011	-2556	-22424	1044	21300	-760	1865	2370	118	130	1
-4044	-4356	15144	-10085	22391	2815	-22904	260	-3584	-320	22835	5025	-20768	-3688	3848	-987	314	293	-32768	-32768	-17580	-13910	28517	-12605	-20428	4192	-9476	10337	25059	-9674	-14888	0	5628	3763	1223	2338	117	113	1
-6312	-5984	15044	-10442	31537	5778	-24072	-456	-4316	-1938	24331	4279	-21592	-3200	9840	-946	-503	542	8276	21268	32767	-11350	31753	-22430	-32768	19080	32767	13096	8062	-2708	-25460	-64	-1508	4404	7187	3539	126	138	1
-6396	-9744	17868	-13795	32767	8198	-30344	656	2172	-4047	25312	3267	-25952	-168	14424	-788	-1366	577	-32768	1700	32767	-3742	32767	-5012	-17376	-18072	-11424	-16207	20530	-16722	-32768	4976	32767	-3468	-11224	4323	120	117	1
-8044	-7504	14816	-16205	32767	14751	-32768	1900	6076	-7967	26399	1297	-25488	6864	16064	-219	-1845	958	-17812	-12544	31100	-2274	27363	-12202	-28280	-3372	-7296	5519	26359	-11348	-2936	1500	-4400	-595	9511	-5344	134	124	1
-18308	-14584	23156	-26074	32767	17415	-32768	-296	3212	-18922	25936	1917	-26816	3248	10008	-1120	-1959	1117	-32768	15716	32767	-13688	19831	-10405	-16440	15044	-13980	21	21800	-6887	-12888	-1304	-13828	9961	12455	1284	137	144	1
-32768	-26324	32767	-29206	32767	24770	-27284	-4520	-12148	-25112	27552	1824	-20328	-5608	-6648	-2233	-2084	899	-6392	-11872	23812	-9638	5271	-5353	-16632	-6544	-8128	-8524	20393	-7481	-12664	17628	-18744	13089	5346	2908	148	175	1
-32724	-22036	32767	-29044	32767	22964	-26328	-1712	-12136	-23175	22561	-294	-27096	-7944	-8880	-1987	-2526	401	-9884	6844	13136	-5554	-404	-2660	-16920	1928	-9884	-606	14336	-7145	-11188	1716	-9692	-2806	9702	6898	131	94	1
-11884	-22720	31476	-32604	32767	24253	-19624	-148	-5320	-14818	15334	4008	-32352	-712	-6584	-968	-2521	-156	-9316	4740	14516	-2017	-890	-1156	-18892	-7020	-6216	8075	11980	-4789	-19156	2812	-10468	8410	10657	7276	136	97	1
-25316	-14192	32767	-31796	17196	20260	-11412	-2864	-12912	-11900	11359	3588	-30160	128	-6936	-654	-2422	-543	-7976	4572	14188	-1742	-497	-963	-18360	2452	-6488	12687	8490	-1193	-22332	7016	-5820	8516	10256	2213	140	115	1
-6892	-26132	32767	-3130	-23673	9544	-5368	-620	-13128	-8366	5083	-1181	-25664	912	-5896	-360	-2545	-664	-6636	3700	14396	-1091	98	-822	-17816	6072	-1332	4349	7984	-1953	-14256	3084	-2512	3321	12447	716	145	128	1
2584	-14488	17836	13675	-32768	3596	-8648	-2908	-1236	-10907	-4671	-6325	-24008	-2360	-9112	-622	-2125	-702	-6700	3580	13840	-936	797	-715	-16608	3720	-3384	-5603	7855	-3117	-15160	2916	-2068	-2179	13596	1119	144	120	1
5044	-5920	6876	13637	-32768	352	-5208	-876	-2692	-2879	-12301	-9061	-19112	-2808	-9272	-205	-2065	-906	-7444	3384	13904	-407	782	-489	-15828	708	-4920	-6869	6433	-2979	-15964	1444	-1912	-3466	14320	741	160	105	1
2272	-2920	6132	4146	-32768	-4218	-3336	148	-1508	5228	-17004	-8775	-15056	-232	-9160	95	-2049	-961	-7268	3804	13560	334	796	-448	-17640	-868	-3768	-201	5168	-1995	-15416	72	-1128	2019	14508	1500	119	127	1
112	-7584	7928	236	-32768	-8866	-2972	1908	-4852	9281	-21475	-9911	-12064	920	-8992	329	-1980	-722	-7008	3796	13860	337	885	-623	-17072	40	-2488	5640	4223	-184	-15440	-1032	-376	8581	14422	2660	110	114	1
-3940	-10316	11556	4350	-32768	-13201	-4020	2988	-5372	8817	-26023	-10683	-9952	48	-9016	391	-1879	-672	-7044	3264	13804	499	815	-510	-16284	2040	-2052	7160	4443	-165	-15536	444	-132	13656	14397	2468	118	124	1
-8076	-8988	14264	7824	-32768	-18355	-5712	3116	-6032	7724	-30191	-11176	-8552	-1064	-9376	485	-1689	-599	-6688	4028	13628	593	855	-605	-16216	2768	-1812	7052	4482	-250	-15508	2376	-424	15594	14659	2231	107	119	1
-10260	-7716	14604	8573	-32768	-22432	-8108	2548	-5516	7163	-32768	-11110	-7032	-1528	-9832	857	-1416	-579	-7344	3212	13828	714	849	-612	-16264	2848	-3208	1684	5922	-1801	-14864	3608	1484	13078	15649	2331	112	122	1
-11764	-6852	14944	8901	-32768	-23388	-10136	720	-5540	8499	-32768	-11883	-5160	-480	-10104	1471	-1314	-457	-7044	4076	13512	741	795	-711	-16396	2768	-2896	1360	6269	-2401	-14752	4440	1688	9745	18053	2545	119	123	1
-13684	-6852	16576	8054	-32768	-21941	-12572	-80	-6596	11945	-32768	-12737	-5328	888	-10736	1975	-1136	-348	-6968	4168	13752	554	869	-1281	-16740	2284	-3104	3265	6607	-2148	-15268	4820	1792	7123	20516	2747	122	125	1
-17136	-8268	19752	4404	-32768	-20502	-14628	768	-9296	16266	-32768	-11875	-5776	2496	-12504	2267	-981	-202	-7228	3640	13728	699	1297	-1543	-16980	1416	-2860	3689	7226	-2558	-16376	4780	-2264	5353	19532	866	122	131	1
-20208	-10168	24088	460	-32768	-20793	-18556	3224	-10840	17022	-32768	-9925	-6024	3280	-11072	2193	-669	14	-7080	3584	13568	958	2148	-1465	-16672	2108	-3152	2321	8039	-3080	-17036	5264	-5308	1977	13564	-529	129	133	1
-25196	-19688	32767	1688	-32768	-21382	-27676	4688	-13716	9064	-32768	-10386	-7904	2544	-4984	1774	-678	-11	-7404	3436	13632	906	2907	-1483	-16012	2188	-4168	872	8859	-3611	-14572	5072	-728	-143	12891	-743	133	131	1
-32764	-24984	32767	8369	-32768	-25413	-32768	4164	-19508	8282	-32768	-13789	-13976	-5144	5168	1197	-1483	-318	-6668	4056	13848	418	3680	-1786	-17064	3212	-3340	1268	9593	-4379	-14868	4416	1196	-543	15343	-216	156	128	1
-32768	-14148	24772	2834	-32768	-31173	-28004	5988	-17608	-5836	-32768	-10053	-22024	-6056	11736	573	-1595	-812	-6632	3712	14244	273	5370	-2636	-18044	2392	-1452	1514	10988	-5382	-18804	3984	2108	-645	14767	-5	134	131	1
-32768	-9780	10224	6384	-32768	-26601	-28912	2024	-18912	-10370	-32768	-9592	-21160	168	19176	60	-2169	-1313	-6576	3716	15048	126	8737	-2862	-18144	2308	-1748	1478	11313	-5578	-20096	2576	3012	807	12894	-806	127	128	1
-32768	-5404	-24452	11535	-27255	-7897	-10324	-1724	-21352	847	-20985	-7692	-9336	17816	32767	965	-776	-752	-6492	4880	14300	522	13002	-3549	-20880	2424	-2712	1451	14557	-7522	-21728	-296	1884	2583	10215	-415	140	127	1
-32768	9180	-32768	-24259	-20709	1807	3568	9780	-17288	-1665	-191	-3768	-18520	5832	32767	273	827	648	-7732	2544	14708	378	18131	-4407	-20684	1888	-3992	4240	16082	-8409	-18860	2116	2148	4834	6304	763	124	127	1
-32768	-15800	-32768	-11375	5095	4865	-5824	1220	-19712	-9603	18555	-223	-17064	-376	25336	-389	-233	-86	-8160	4944	13984	84	24698	-6557	-21640	4052	-4176	5707	17563	-9332	-20764	4268	3804	9015	2299	245	115	128	1
32767	-7656	10460	12033	32388	3556	-16200	-3600	-20824	2105	31266	3920	-10584	-176	248	160	169	-105	-8808	5308	14036	-681	31009	-10988	-22568	3092	-3912	8593	19117	-9003	-21324	3480	8784	9116	-5762	-2537	123	118	1
29424	-7452	16788	3453	31240	1319	-32768	-13344	32767	15021	4438	1605	-21528	-5896	-6008	746	2105	-606	-7800	4776	13828	-1464	32767	-15724	-28832	4520	552	14090	20082	-8769	-23636	2036	16192	3237	-13770	-3360	125	128	1
-32768	1660	14020	-13270	32767	4120	-12300	16288	-25308	32767	22384	6671	-21768	-5232	16224	2290	1285	-1854	-9656	6248	13608	-3790	32767	-21692	-32768	8584	7872	16625	21275	-9347	-23692	-5856	15276	-1939	-16067	-6237	124	119	1
-28616	14972	30856	-7609	32767	14251	-15712	6164	-7948	17252	24266	10101	-10624	8432	-2344	4107	1722	-221	-21760	7408	17816	-3158	32767	-27898	-32768	6320	5300	19273	21078	-9516	-23180	-5780	9368	10910	-11496	-8701	96	126	1
-30812	-32768	24508	16128	14963	7665	-24884	-15744	-28912	5789	27147	-1739	-28000	656	-15624	-516	1349	-159	-24716	5248	22460	-3269	32767	-28473	-32768	6452	3236	19863	20948	-9659	-23132	7588	-6400	25275	-13309	-6047	176	130	1
-8168	-4420	16924	8217	2111	4364	-20840	7688	-19572	27877	17374	2044	-17336	-736	-18168	-1580	1162	-365	-32768	8840	26464	-3192	32767	-29404	-28396	10572	-6532	15024	16968	-13517	-27120	12516	-11332	21446	-16020	-3284	124	150	1
-5396	-4160	14324	4883	-383	1868	-6180	3716	-11056	-465	15554	-77	-4808	-3440	-10000	-1251	925	-398	-17744	11624	28796	-1057	32767	-29668	-20144	4536	-6292	9567	13902	-13303	-30852	11268	-9224	5238	-19568	2011	85	126	1
-6648	-4256	15856	1715	-692	474	-14272	11272	-10868	-19923	10425	-3885	-14848	400	-10504	-1722	1227	-740	-32768	21024	32767	-79	15947	-24038	-13052	4484	-15384	-1023	10979	-8301	-31300	4812	-9656	-4888	-17839	7311	86	127	1
-5904	-5768	15048	9	-601	-226	-22300	-1332	-8924	-32768	7815	-7315	-24840	-5968	-6744	-2718	1248	-454	-6536	24652	32767	2102	-32768	-3241	-12804	2404	-5128	-4446	7186	-6175	-29392	5064	-10772	-10249	-20856	7694	139	141	1
-4856	-6524	14468	-588	-413	-330	-18100	-15096	-5720	-8823	6373	-3209	-20088	-8512	-1600	-1800	1483	80	5288	13388	11904	-2563	-32768	2629	-9056	696	2468	-369	-9858	1617	-25880	2092	-12664	-7135	-17905	7036	111	76	1
-5064	-5400	14724	-985	273	-381	-16700	-5752	-5244	13371	5400	3408	-15360	-6952	-1072	-41	2055	254	4956	9052	6864	-495	-32768	5795	-5420	1640	1340	-370	-15637	5676	-19116	148	-13020	-7056	-17554	7596	89	120	1
-5380	-6268	14484	-1482	497	-415	-15880	2396	-4228	10818	4830	2730	-12408	-5024	-1552	734	2022	198	-2088	8820	10188	3713	-32768	9383	-2296	3784	-2396	-5537	-19912	8872	-14596	732	-12468	-10967	-15884	5729	79	123	1
-5268	-6708	14376	-1119	492	-54	-15016	4528	-3596	-6493	4394	-328	-15952	680	-912	29	1774	26	-7984	9920	13108	4217	-32768	12583	-4716	1300	-3612	-15126	-23619	12838	-12544	1016	-12832	-13722	-16150	5374	123	117	1
-5740	-6112	14404	-707	384	174	-16232	-1084	-3648	-15741	3644	-2060	-16624	936	896	-1528	1621	-62	-8628	7156	11604	5003	-32768	16213	-8900	388	-3120	-12620	-26216	17309	-11672	1116	-13228	-11331	-16881	4354	123	139	1
-5332	-5760	14488	-744	310	187	-15880	-4924	-2504	-8601	3168	-1590	-16232	880	1296	-1631	1651	-25	-10196	6292	11936	7303	-32768	19219	-9532	156	-3392	-11391	-28096	16055	-8368	2956	-14012	-13354	-13936	5813	141	152	1
-6904	-8540	11888	-851	817	337	-15724	-2004	-2496	-3721	4435	497	-14544	-3080	4784	-688	2023	-78	-13908	6092	15348	8235	-32768	20585	-12244	868	-4452	-8690	-32768	19742	-6104	52	-13364	-19406	-14014	1453	126	145	1
-5712	-6312	14284	-1052	528	586	-16236	-928	-3720	-3596	4660	204	-14064	-2872	6976	-853	2922	-229	-17456	6428	19248	8417	-32768	21556	-14512	960	-5652	-12344	-32768	23076	-3260	-1112	-13684	-22647	-11557	-172	124	135	1
-5192	-7008	13556	-1035	434	682	-15840	-1020	-2936	-8268	6285	-1185	-15608	-3440	152	-1154	3229	-182	-20624	3632	20680	13302	-32768	23181	-20156	352	-6804	-15129	-32768	23591	-2896	1240	-14588	-22669	-9765	-524	133	120	1
-6032	-5624	14280	-967	260	540	-13844	-764	-1220	-7278	6693	-239	-16592	-3800	-2640	-433	1655	-248	-21712	3488	21428	13937	-32768	21752	-26144	744	-7440	-15349	-32768	24691	-2884	-652	-13896	-19417	-6394	-542	144	145	1
-4800	-6084	13840	-1141	558	387	-14340	-3132	-1148	-1773	8213	1252	-15464	-5592	4744	-150	1251	-41	-31320	6732	31320	12234	-32768	18693	-32768	-1520	-12308	-13411	-32768	26056	-5272	-2664	-10632	-15378	-4359	1312	139	135	1
-5760	-6020	14840	-1850	1315	721	-17928	-1292	-3084	1729	9707	2056	-17608	-2896	4456	25	2030	-22	-32768	14704	32767	7671	-32768	20089	-32768	968	-20028	-13173	-32768	28484	-9232	-5932	-5228	-10554	-6181	-118	141	135	1
-5424	-6452	14576	-2510	2308	842	-17400	268	-712	298	11500	1884	-18032	-2240	3664	-117	1892	-13	-32768	-2072	24156	15481	-32768	29879	-32000	-7052	-19592	-9652	-32768	24528	-19248	2256	8540	-5422	-12149	354	139	132	1
-4660	-4464	14968	-3898	4160	899	-16116	-300	844	-86	13868	2345	-18680	-704	6744	-176	1366	-97	-32768	-5660	6156	13333	-32768	29760	-31024	-1092	-26564	-13526	-32768	21527	-29772	-2336	19516	-3908	-22809	1215	132	116	1
-4408	-6000	15236	-5645	7131	868	-18632	-1540	-964	1750	16479	3548	-19064	1136	7232	-349	1313	-147	-32768	-28976	-28196	10171	-25857	15510	-13040	-7276	-29656	-12649	-16451	14758	-14188	-20008	32767	-6164	-10543	6184	126	106	1
-5804	-6208	14544	-8761	11113	721	-18932	620	-1552	1807	19475	4245	-19016	-2992	5968	-719	879	38	-32768	-32768	-32768	18704	-6944	1111	-1472	-12096	-28768	2912	4444	3381	-16448	-216	32672	6293	7693	6021	117	131	1
-3940	-6596	14508	-11676	16646	1365	-19596	-1180	-3672	-300	21541	5196	-17856	-4824	3048	-993	552	164	-32768	-15248	-22820	-1250	6923	-5108	-9120	-9292	-24096	11343	19849	-6152	-18672	3308	16732	9243	84	2178	113	141	1
-4140	-7556	13716	-12821	23741	4769	-22140	-356	-4856	-2483	22980	5061	-20200	-752	4984	-921	-44	423	-24588	15248	32767	-15400	19327	-2554	-26208	8760	19724	18695	21605	-12403	-11372	440	-7692	8079	8746	688	119	145	1
-5308	-9128	13472	-15031	32687	8307	-24792	3568	-2148	-7036	24298	3294	-21760	1528	12968	-1096	-999	666	15216	-240	760	-15265	32767	-22762	-30884	5556	18912	6221	13975	-1553	-28436	4752	3220	5577	8252	5073	118	149	1
-4644	-7260	14580	-19334	32767	10044	-32768	3500	6184	-11598	24963	2849	-26520	6488	15464	-511	-1632	834	-32768	-6980	32767	-1966	32767	-3765	-25628	-13644	-9284	-15709	21999	-20041	-32768	236	13764	-22518	-835	2973	130	150	1
-9852	-11404	19020	-25581	32767	14276	-32768	-748	8828	-16061	25904	3640	-27048	6680	17480	-799	-2109	1095	-21832	5080	26692	1592	26275	-12330	-28280	-6704	-7568	1744	24890	-13581	-6028	-3000	-5628	-6274	9618	-7866	132	139	1
-27256	-23976	23068	-28374	32767	20049	-32768	-5484	468	-20752	25671	4618	-23744	-4296	1256	-2512	-1743	1078	-16784	21488	15840	-5831	22329	-5974	-12572	17620	-9556	-7363	19369	-4472	-13396	-556	-13376	9380	13913	783	155	142	1
-32768	-25880	30100	-28312	32767	25882	-27980	-8420	-10120	-20225	27465	4136	-20024	-13504	-7000	-2304	-2174	527	-21252	1264	23820	-10833	6736	-6358	-12456	-5844	-18680	-10805	19389	-8159	-7444	18956	-12504	9403	3715	2762	143	136	1
-26568	-26544	28608	-30904	32767	24376	-24836	2708	-9676	-9461	18108	5131	-31368	-9440	-9056	-849	-2742	17	-8876	4992	14364	-7294	1051	-3867	-21520	-3680	-9008	3184	13125	-6931	-16280	392	-9808	-1057	10969	8592	134	95	1
-5220	-20896	32248	-32768	32767	20585	-19664	-2896	-4548	-4106	11048	7580	-32768	-1824	-5952	-104	-2568	-269	-7772	2288	14840	-3742	-395	-1981	-20180	-7196	-5024	12792	9092	-3657	-18508	4016	-9212	11513	9695	7139	144	84	1
-32768	-32768	32767	-29316	20327	17975	-12236	-3572	-18312	-6161	4953	6409	-28272	-328	-4656	324	-2710	-592	-7888	4844	14112	-2467	-136	-1415	-17152	3104	-5192	14334	7878	-1366	-20736	5368	-6052	11576	9581	809	154	112	1
-5612	-32092	32767	13335	-24123	1417	-5088	-2972	-13120	-659	-1616	-559	-24464	64	-6792	183	-2600	-753	-6580	4764	13260	-1605	633	-1241	-16920	6072	-1376	4320	7677	-2191	-13912	3752	-3656	5124	12433	-21	145	124	1
-2288	-13140	20968	27651	-32768	-3726	-8952	-2436	-2608	-781	-11189	-3827	-23904	-1104	-10200	35	-2213	-721	-7116	3744	13684	-1205	1363	-1222	-17116	3876	-3824	-6652	7837	-3485	-15432	2340	-3960	-439	14008	859	151	110	1
-252	-4440	10028	25352	-32768	-3495	-4188	-516	-884	1739	-17305	-5902	-17280	1976	-8712	440	-2207	-786	-8156	3676	13868	-1476	1222	-926	-16288	896	-6276	-8233	6069	-3692	-15856	3156	-3960	-1042	14258	765	132	116	1
-2712	-1924	8092	13754	-32768	-3706	-2848	724	-3048	5103	-22509	-6864	-12800	1064	-9408	163	-2219	-616	-8112	3796	13588	-754	753	-779	-17396	-2452	-4932	-403	4764	-2517	-14952	-220	-2148	679	15803	2373	107	113	1
-4216	-6240	8752	6980	-32768	-4841	-2780	2284	-5232	4269	-27806	-8612	-10336	1048	-10088	363	-1980	-526	-7520	3652	13632	-229	597	-671	-16320	-836	-2744	6533	3900	-554	-15108	-1216	-1180	8340	14896	2599	111	112	1
-6916	-9704	10308	8499	-32768	-6889	-5020	2536	-5120	1598	-32768	-10130	-8672	336	-10752	591	-1749	-380	-7120	3932	13484	39	506	-701	-16052	2932	-1888	8080	4086	-243	-15708	768	-988	13878	14681	1246	114	119	1
-8860	-10040	11500	10346	-32768	-10425	-7828	2892	-5008	293	-32768	-11030	-6816	-1024	-11320	838	-1399	-364	-7468	3724	13524	193	513	-681	-15892	4692	-2692	4279	4933	-1291	-14884	3088	-900	14767	15268	1364	112	124	1
-11856	-10932	14464	9656	-32768	-14769	-10784	3084	-6144	-304	-32768	-11777	-4264	-1488	-11480	1166	-1220	-218	-7420	3784	13444	450	584	-592	-16632	3088	-3188	891	5579	-2592	-14388	3264	404	12211	17694	2506	113	127	1
-14812	-13068	17924	9136	-32768	-17979	-12524	1620	-7272	642	-32768	-13041	-4400	128	-12552	1786	-1043	-112	-7268	3556	13544	604	657	-807	-17132	1468	-3252	1766	5888	-3063	-15292	2768	2684	9113	21342	2499	119	132	1
-17500	-15172	21148	9551	-32768	-20243	-15712	16	-9128	6397	-32768	-13573	-3856	392	-13480	2134	-862	-54	-7256	4720	13168	273	795	-1434	-16952	2120	-2444	5270	6304	-2492	-15116	3076	2744	8849	22073	2396	127	131	1
-21028	-19988	25824	10323	-32768	-22497	-21276	592	-11004	14257	-32768	-12947	-4512	1200	-11968	2232	-532	-63	-7468	4272	13256	-541	970	-2316	-16112	3920	-1452	5227	7781	-3081	-17384	7024	-4404	3953	16137	1333	131	142	1
-27568	-28268	28896	14806	-32768	-25558	-29320	112	-11192	17852	-32768	-13118	-6056	3568	-8016	2135	-302	-124	-7416	3948	13268	-867	1532	-2528	-15240	4936	-2116	630	9798	-4824	-16972	6596	664	841	10666	297	135	133	1
-32768	-30288	25696	18575	-32768	-31924	-32768	1384	-19092	27703	-32768	-13150	-6736	3872	-6880	2136	-408	-147	-7384	4424	13376	-885	2713	-2920	-17228	3388	-3008	-895	11384	-6132	-17112	4196	4760	699	13217	75	139	125	1
-32768	-20444	16088	7692	-32768	-32768	-32736	6364	-19176	14956	-32768	-3604	-27040	-3680	22976	2320	-3091	-984	-7396	3692	13668	-860	4353	-3370	-17196	1804	-1896	1765	12726	-6803	-17432	2820	4096	1945	14322	-90	130	120	1
-32768	-19488	-6212	16449	-27971	-32768	-23332	-1660	-15376	8741	-30962	-3457	-17456	23792	26792	2665	-2541	-962	-6576	3856	15240	-869	8470	-3724	-19252	3388	-876	3382	14472	-8048	-18800	1724	2492	4268	11499	487	125	127	1
-32768	14644	-26300	-5085	-24520	-11285	2492	3888	-27128	-4478	-12174	-7004	-11064	10280	32767	1289	992	509	-6864	2512	15308	-277	13026	-4276	-20748	1488	-1804	3504	16899	-9415	-21724	1400	4240	4866	6639	270	156	129	1
-32768	-200	-32768	-25596	-16791	6674	4464	-2140	-19860	-15774	10263	-4305	-18192	1720	32767	-1347	-181	241	-7004	5352	15156	-442	19531	-5522	-22804	4548	-3684	2861	18852	-10602	-20800	3216	3000	7930	3439	337	130	125	1
1456	-16576	-24568	5886	18158	19321	-9936	-6196	-21728	-12661	29323	-258	-11248	696	7416	-665	-113	126	-8528	5548	13776	-1839	27223	-9894	-23740	3656	-4236	5742	20970	-10974	-22684	4856	6652	10251	-3689	-2030	106	115	1
32767	-4172	7120	-2484	31645	13259	-32768	-6392	32767	2328	10163	2629	-16552	2472	-2096	-555	1113	-174	-7312	5600	13968	-4116	32767	-15603	-28064	3612	-2612	11621	22190	-9731	-23736	4420	17144	8163	-14489	-3231	122	123	1
-32768	-20748	13548	-11771	32767	11017	-19160	4504	-22368	31384	27191	5109	-32632	-168	32296	2150	308	-1438	-10356	9284	18336	-6513	32767	-23390	-32768	9476	5176	15407	24176	-8917	-23284	-5540	11124	-797	-13612	-4760	128	123	1
-32768	16048	31464	-8737	32767	12284	-20344	6224	-13756	17284	27873	7725	-13504	9216	-9584	3815	2338	-909	-16892	5884	16656	-6553	32767	-30868	-32768	7932	7564	17725	24286	-9781	-26592	-5816	6584	9944	-15010	-7593	102	133	1
-27088	-32768	25140	13053	13219	7694	-19008	-7500	-32768	18900	28683	3227	-22200	6296	-16728	-1042	355	-460	-32768	8380	29692	-2547	32767	-32768	-32768	5888	-4056	21121	21029	-8386	-25056	2580	-7724	22686	-15617	-7451	157	140	1
-17572	2492	18768	8185	1007	4041	-19840	3808	-30000	27247	18523	-1990	-14840	-12184	-26288	-3297	835	113	-28988	11968	16928	1526	32767	-32768	-27868	5312	-4832	25003	16146	-10141	-25868	8864	-10956	25595	-17701	-4102	105	142	1
-6140	-4172	15984	4468	-723	1433	-10104	7008	-11796	-11114	15532	-4422	-13032	-5696	-11824	-1021	1414	-540	-26512	15436	32767	-1862	32767	-32768	-19572	5324	-10888	19303	13961	-8514	-32768	7864	-10216	9546	-18820	1465	80	124	1
-4612	-7636	14416	759	-482	-13	-17468	7696	-9800	-28553	10300	-4867	-23352	-3672	-12216	-1388	1436	-1188	-32768	15780	32767	4460	11792	-24990	-11444	424	-19728	7882	12439	-3329	-31508	3852	-11288	2309	-18681	5994	97	120	1
-6468	-5428	14740	151	-681	-298	-21776	-6060	-8508	-30971	7582	-6629	-19464	-6680	-4032	-1518	1372	-555	152	29388	25892	12667	-32347	3332	-16764	1016	2676	2184	3459	-2129	-30052	2844	-10920	-4786	-20816	8219	147	114	1
-5464	-5860	14788	-432	-110	-165	-16032	-14312	-6148	2981	6373	-390	-19104	-6344	-2880	-1288	1447	-401	7236	16464	7636	2373	-32539	9798	-7716	2128	4884	4445	-8796	6766	-23312	788	-10292	-1718	-16797	8245	108	124	1
-5656	-5644	14504	-1247	336	-492	-16324	-2984	-6216	18955	5505	3880	-15368	-4368	-1688	635	1945	173	3956	8108	7516	2915	-28099	13297	-4588	3800	616	326	-14563	11019	-18596	-324	-12828	-2989	-17377	8607	96	100	1
-5640	-6184	14232	-1626	609	-400	-16408	3676	-5900	12676	4136	2309	-15072	-3744	-2616	858	2048	-95	-2176	6772	11172	7462	-29003	16732	-2660	4040	-2520	-10902	-16983	14288	-13716	364	-12772	-4717	-16145	8753	108	110	1
-5840	-6464	14068	-1236	539	42	-15248	5076	-5156	-5346	3282	-775	-16472	768	-880	68	1884	-270	-8156	6236	15636	7561	-32768	17785	-5608	176	-4024	-15268	-20907	17531	-11524	912	-12780	-7456	-14755	8381	114	132	1
-3528	-3544	16108	-1751	-361	1092	-15152	4644	-4956	-7823	3146	-1206	-15536	3072	-376	-1588	1758	-208	-9256	3844	14972	9567	-32768	19802	-8988	-2396	-3360	-13203	-26465	19594	-9924	3364	-14144	-10557	-14964	6939	124	152	1
-6088	-5764	14188	-872	323	183	-16224	-2544	-4440	-12968	2153	-2749	-16264	600	-1320	-2664	1887	-101	-10272	2852	13568	11863	-32768	21684	-11616	-1376	-2616	-11132	-31383	22052	-7456	2596	-13384	-15515	-13741	4591	129	143	1
-5832	-5852	14032	-1382	279	-52	-15512	-2788	-3768	-5522	2345	-607	-15120	-3184	2576	-2142	2085	-65	-13624	2844	16112	11797	-32768	21970	-12564	476	-3248	-12270	-32768	24092	-3532	652	-13416	-20151	-12326	3297	125	133	1
-5840	-6036	14168	-1424	307	-20	-16572	-16	-3080	-5771	2752	-86	-12584	-4008	6656	-1505	2929	-215	-15856	1072	16440	12974	-32768	22814	-13000	420	-3424	-12857	-32768	24258	-2528	1596	-14708	-25448	-10182	1799	121	128	1
-7140	-7552	13756	-1715	137	273	-15564	764	-1720	-10360	3577	-931	-12672	-2352	4728	-808	3176	-265	-20504	2112	21004	14677	-32768	23903	-21000	-1296	-7136	-16596	-32768	24200	-3696	100	-14784	-27481	-10556	689	125	129	1
-7684	-8200	11760	-1084	-175	270	-13248	-876	664	-9336	5449	-528	-16888	-4080	376	-464	1927	-176	-24812	2276	28692	14032	-32768	22133	-28120	-1952	-9972	-14237	-32768	24539	-4396	-1168	-11024	-23698	-10796	852	136	138	1
-5564	-5996	14012	-1235	-159	64	-13520	-3952	800	-1114	7884	1195	-17448	-6040	6704	-118	1420	-6	-32768	6312	32767	14195	-32768	21382	-32768	-4428	-14100	-12459	-32768	27081	-6516	-3432	-7944	-17235	-6689	206	141	141	1
-5108	-7056	14012	-1009	655	575	-17812	-3568	-292	4569	10263	2387	-18712	-6016	6832	271	1972	-31	-32768	6792	28964	14245	-32768	24877	-32768	-4600	-16364	-11251	-32768	28504	-11668	-4144	-4312	-10571	-3746	1743	153	135	1
-5316	-6256	14456	-1732	2131	1334	-17852	-792	-288	3375	12656	2737	-19424	-1704	5560	227	1819	-65	-32768	-2004	19588	14597	-32768	28385	-29672	-1108	-17672	-10202	-32768	24837	-22012	60	9036	-860	-12777	2629	147	130	1
-5424	-6496	14384	-2003	2299	1386	-16804	1456	1692	663	15505	3047	-19248	1384	8792	-296	1483	-24	-32768	-12096	-2940	7100	-32075	22987	-29688	-4932	-26380	-17389	-29756	19827	-24716	-10180	22364	-5613	-21980	1576	135	113	1
-4892	-7264	14840	-5979	6925	1773	-18160	-1088	1048	944	18616	3585	-19248	3600	9360	-629	1140	-43	-32768	-30624	-27448	17050	-16397	12073	-8436	-12448	-30812	-10540	-10245	12047	-11512	-14448	32767	-1778	-2765	3940	127	109	1
-4568	-6688	14496	-8642	12415	1891	-19848	-612	-820	3118	21734	4647	-18792	-2360	7608	-649	678	-3	-32768	-25072	-28676	6734	-237	4104	-2304	-11504	-27964	1470	8797	-91	-18916	-1304	30276	1499	5869	5820	115	128	1
-4624	-8212	14144	-12239	19346	3136	-21156	-556	-4556	2747	24156	6069	-19480	-5536	3728	-938	348	182	-32768	-19468	-12788	-9454	12012	1281	-12940	-9676	-24096	1337	24462	-9706	-18664	2212	14116	3841	-687	3666	113	123	1
-4700	-7784	14144	-13724	28167	7322	-23332	2072	-3944	-1712	26184	5083	-20592	-2216	9608	-691	-602	515	32767	5016	12408	-10000	20024	-6826	-32768	32767	32767	19874	8277	-9415	-14756	-1032	-13984	6752	15950	1633	112	132	1
-5408	-9220	15080	-17012	32767	10529	-29060	2840	1416	-6865	27414	3264	-24528	3160	16720	-344	-1684	881	-23720	-8100	4236	-8353	32767	-14047	-23868	-23808	-10404	-8994	18358	-12090	-32768	10192	15120	6701	-3331	5777	117	149	1
-3152	-7616	14548	-21993	32767	14732	-32768	1756	9708	-10505	27643	3141	-27832	8520	19896	93	-2104	1121	-17984	-21988	32767	-1391	27845	-10211	-32768	-5252	-3284	4202	25493	-12354	-5536	-6828	-10132	-20422	9533	-5057	118	152	1
-17232	-17220	26932	-27146	32767	19377	-32768	-3072	7748	-19313	25759	4429	-28248	560	8088	-1469	-1676	1178	-15800	28592	12508	-246	21220	-8732	-18712	6312	-10556	5379	21432	-8350	-5676	-6964	-16752	13048	10969	-4156	144	151	1
-32768	-29112	32767	-31265	32767	25365	-26036	-5168	-12592	-20824	27391	4865	-20360	-11512	-7744	-2788	-1946	760	-25728	2340	32767	-12319	17878	-9278	-6464	6120	-14392	-7348	18355	-4486	-11568	13908	-14972	18361	7677	489	153	184	1
-28908	-22776	30764	-32768	32767	22808	-27112	1388	-13248	-15334	21337	3806	-28672	-9792	-8424	-1698	-2604	183	-12440	11216	16052	-9654	3957	-4962	-18016	332	-15068	-3336	17610	-8041	-9540	13636	-10476	-1867	7321	5034	124	85	1
-13888	-23280	29616	-32768	32767	21435	-21380	-1512	-1264	-7441	11196	8303	-32768	-2432	-6528	-74	-2535	-264	-10784	4512	16712	-6688	1486	-3904	-23652	-6036	-7788	3577	10820	-6583	-20624	52	-6212	2014	7730	6935	136	95	1
-18284	-21064	25504	-32768	28232	22916	-13268	-8204	-13724	-10935	7598	7344	-30552	-1744	-6048	107	-2593	-468	-8084	5320	14624	-5092	818	-2963	-18812	-1200	-6696	10093	8911	-2622	-22856	5700	-8080	9752	9564	3172	168	112	1
-5756	-32768	32767	5253	-17184	3731	-7196	-1760	-18520	-674	169	-123	-25656	-1872	-5728	497	-2685	-721	-6800	4008	14412	-3918	578	-2299	-17132	3328	-2976	7640	8154	-2493	-15540	2668	-2904	6735	12268	-355	150	121	1
-2632	-16284	22072	28635	-32768	-4687	-9004	-3120	-3336	-1107	-8098	-2319	-25056	-1544	-10200	198	-2121	-858	-7084	3500	14492	-2563	956	-1673	-16952	3820	-3448	-930	7381	-3123	-13140	1408	-2108	2036	15145	558	163	120	1
-1804	-7720	12364	29030	-32768	-5243	-4340	-428	-4196	4704	-14464	-4260	-19040	-2112	-10152	493	-2144	-890	-7596	4508	13980	-1622	1264	-1257	-16580	1868	-4860	-3096	6330	-3198	-16944	3004	-3828	2360	14704	-521	138	107	1
-3324	-3696	8420	21118	-32768	-6045	-2624	-220	-3300	8172	-20744	-5214	-13448	1672	-10208	529	-2153	-813	-7760	4004	13552	-758	1217	-1086	-17100	544	-4656	759	5374	-2612	-15372	1876	-2716	4086	15429	848	103	115	1
-4080	-4328	7008	11990	-32768	-6688	-2264	2356	-4476	6621	-25933	-6781	-10672	1464	-9752	480	-1966	-617	-7296	4060	13668	-383	1162	-1138	-16332	748	-2564	4385	4621	-1779	-14916	372	-1248	7280	15524	2588	121	113	1
-5316	-8588	7364	9941	-32768	-7201	-4088	2036	-4944	2917	-31231	-8277	-9344	552	-11072	642	-1855	-476	-7280	4112	13636	-327	1147	-1158	-15596	3096	-2456	5813	4934	-1750	-15500	1140	-644	11998	14909	1779	108	116	1
-8224	-10512	9800	11698	-32768	-9157	-5872	1800	-5804	2194	-32768	-9860	-6824	224	-11592	904	-1497	-387	-7404	3884	13488	19	1239	-1242	-16340	3752	-3392	3511	5414	-2002	-15464	2076	-808	13010	15475	1818	109	120	1
-10524	-11264	12020	11256	-32768	-13001	-8324	2504	-5872	1831	-32768	-11127	-4312	-824	-11200	1133	-1316	-241	-7656	3628	13636	226	1369	-1357	-17064	1948	-3992	2340	5745	-2647	-15244	2536	704	11338	18174	2720	117	124	1
-12932	-12756	14536	9209	-32768	-17241	-11276	2124	-6956	1508	-32768	-12332	-3552	-288	-12144	1784	-1114	-97	-7656	4140	13348	100	1511	-1681	-17068	1320	-4112	4358	5969	-2492	-14436	2760	1392	10537	23065	2892	117	129	1
-15500	-15088	18016	8096	-32768	-20588	-13772	40	-8304	4164	-32768	-12890	-3488	-136	-13360	2112	-1018	-5	-7500	3592	13336	119	1769	-1893	-16208	1436	-3148	5367	6582	-2699	-15524	4044	-3160	8667	22529	1898	111	138	1
-19380	-18676	22560	8971	-32768	-23069	-18172	-504	-10480	10244	-32768	-13008	-4792	624	-12784	2297	-699	-12	-7692	3976	13268	236	2142	-2066	-15348	2616	-2600	4469	7616	-3054	-16156	6196	-5292	4739	13759	662	126	140	1
-24376	-25020	27380	12560	-32768	-25069	-25956	-1068	-11416	15401	-32768	-12804	-5680	2704	-9816	2099	-331	-64	-7488	3412	13340	256	2809	-2039	-16100	3496	-3664	1610	8985	-3972	-15388	6340	344	2545	12502	-101	138	136	1
-32740	-32768	28852	18197	-32768	-26858	-32768	-2516	-13072	19952	-32768	-13690	-9952	-2968	688	1797	-1129	-285	-6712	4124	13204	-58	4315	-2194	-17740	3556	-2572	1028	9809	-5099	-16052	4900	2384	1853	15381	6	153	128	1
-32768	-13704	25940	4469	-32768	-32768	-32768	6424	-13452	13178	-32768	-7500	-24696	-9280	16336	2035	-2982	-1004	-7348	3840	13620	-89	6365	-2644	-18352	2080	-1784	2302	11414	-6154	-20004	4868	2736	2122	14074	-445	152	122	1
-32768	-23344	8752	2058	-32768	-32768	-30028	2032	-19704	-11592	-32768	-5854	-26320	8800	21280	960	-2603	-776	-6484	4208	14416	200	9302	-2711	-17652	4424	-1428	3489	13704	-7805	-18404	4412	5228	2988	11762	-932	122	124	1
-32768	1932	-26152	11673	-30079	-16311	-4036	-6412	-25692	-9226	-19512	-9890	-7128	21288	32767	443	-347	-290	-8320	4736	14500	58	14215	-4469	-20960	4292	-2408	2895	16114	-8952	-22200	1824	4724	3666	9559	-665	156	128	1
-32768	13608	-32768	-26602	-27433	6537	1420	3848	-16696	-17850	1203	-7344	-17880	-1400	32767	-1237	28	207	-7660	3656	14184	-764	20310	-5834	-22984	2648	-3264	4118	17937	-10438	-20968	3628	3116	6359	6073	-117	116	125	1
-32768	-19408	-32768	-10688	1181	19151	-4120	-5364	-19720	-12754	23172	-2733	-16080	-1968	21304	-662	-315	-193	-7420	3880	14204	-1064	29073	-9121	-23652	2440	-3232	6457	19966	-10798	-22104	3012	4528	9292	330	-1873	102	119	1
32767	-20660	18508	12308	26760	10138	-16208	-2076	-23436	12438	32767	4950	-6976	-568	-4504	366	99	-328	-8620	5316	13224	-1415	32767	-13718	-24840	1680	-2216	10088	21410	-9946	-20688	256	11888	7545	-10094	-4417	97	118	1
32767	10292	-11152	328	28364	-535	-32768	4316	32767	28904	7068	262	-18384	-3216	-1368	1195	2801	-988	-8708	4316	15480	-2576	32767	-18495	-32508	5936	4160	15095	21815	-9230	-24656	-1084	16828	-662	-14799	-5373	126	130	1
-32768	-2336	32767	-16523	32767	-86	-13708	20308	-27536	32767	25431	7488	-18496	-1456	5848	3341	2269	-1996	-15760	7468	14944	-3477	32767	-24201	-32768	8728	10444	17659	21649	-9918	-26480	-6216	15460	2001	-14980	-8125	129	123	1
-29232	9688	32767	-9202	32767	17941	-15584	-4136	-14496	21218	23277	9476	-22936	11336	-3856	4323	855	-576	-32768	7252	23636	-2327	32767	-30086	-32768	9044	1652	20842	20610	-10461	-21876	316	1404	19822	-11847	-8592	118	137	1
-524	-29536	14384	10742	11940	4162	-26104	-9736	-32768	19965	27043	-1853	-25080	11968	-14120	-324	1062	-366	-32768	5640	21696	-1970	32767	-30672	-32564	9152	-8644	17788	19263	-12766	-26188	14720	-10508	26222	-15275	-5856	174	159	1
-7376	-23328	11776	6565	1721	3175	-21684	17480	-20564	11487	20429	-2652	-13256	-4944	-22984	-4304	692	-279	-28668	19048	29716	1942	32767	-29575	-25144	8612	-2580	16651	15011	-13736	-31248	14128	-11144	10138	-19755	-1401	74	125	1
-7848	-4412	14068	3751	153	2012	-4720	8116	-13904	-24213	15360	-6676	-5592	-5664	-12184	-3646	988	-348	-9908	5504	32767	-891	24073	-31745	-16980	9080	-13172	2842	12115	-9822	-31504	6744	-11412	-1535	-20656	4327	81	132	1
-5832	-5468	15076	915	-33	421	-14652	4792	-13304	-32768	11227	-7025	-20304	-11080	-12176	-3356	1178	-847	-14776	28628	32767	7194	-29084	-10353	-10852	616	-14532	-4364	11527	-8014	-29864	4668	-10212	-9903	-22235	6822	105	117	1
-6192	-7636	14596	-96	31	-150	-21092	-18108	-10076	-18238	7055	-6483	-21432	-11992	-5112	-1422	1370	-328	3140	18924	15532	-2291	-32768	-2770	-10548	2552	3100	373	-8127	-258	-28368	1356	-12312	-6587	-19793	7081	138	118	1
-4720	-6068	14572	-331	769	-133	-19232	-10764	-7052	17624	6397	3911	-21456	-7120	-2248	475	2091	142	4624	11692	7432	-1646	-32768	3110	-6952	-872	1052	-238	-14190	5504	-22328	708	-13744	-5470	-17778	7338	91	97	1
-5696	-6024	14728	-1224	1391	-224	-17576	656	-6032	24040	4929	5174	-14896	-4176	-1800	1105	2274	131	-2588	11020	10104	4283	-32768	10317	-3396	1372	-2828	-2310	-19465	8669	-16832	-1552	-13860	-7030	-17577	8202	85	119	1
-5332	-7332	14744	-1160	1454	259	-14300	8008	-4776	3155	4867	1990	-14384	-1968	-1344	945	2183	-93	-7592	11444	11952	4358	-32768	14614	-3572	3196	-4528	-8231	-23900	13371	-13640	-864	-14468	-9782	-17950	7187	91	115	1
-7124	-8708	12780	-555	1482	608	-16176	2388	-5168	-16281	3422	-3358	-17800	3184	-2328	-595	2100	-107	-9240	7824	10980	4850	-32768	17690	-6940	944	-3492	-12743	-28049	17216	-12008	2272	-15212	-9340	-15638	6622	122	130	1
-5488	-6032	14276	-1202	1382	557	-17360	-4832	-4348	-12813	2347	-2920	-15736	856	-1080	-1912	1984	17	-11796	6992	12368	8175	-32768	20338	-8884	20	-4836	-10329	-32768	19672	-8124	2588	-16316	-13250	-14447	6552	135	147	1
-5652	-6388	14168	-1763	1823	785	-15968	-3364	-5304	-4598	2409	-286	-16840	-1824	952	-1480	2184	-27	-15028	5820	14360	11053	-32768	21837	-10552	2940	-5568	-12263	-32768	22609	-4796	1676	-15496	-18760	-14267	3390	130	156	1
-5656	-5964	14188	-2575	2079	1156	-17708	492	-4876	-4550	2427	-697	-12248	-1336	7376	-843	3220	-388	-18204	5328	15372	14898	-32768	22547	-14000	1844	-5808	-14919	-32768	24961	-1796	1980	-17032	-26150	-11481	767	121	140	1
-6292	-6328	14068	-3418	2359	1045	-17552	2580	-2680	-10754	2772	-1279	-13800	-2720	2328	-1711	3547	-256	-21260	3528	15528	17819	-32768	24459	-20648	132	-7364	-18600	-32768	25603	-2044	-848	-16584	-29125	-11273	-973	122	119	1
-5856	-6700	13580	-3024	2255	1039	-11928	-1504	716	-12179	4325	-1397	-17808	-4280	-2000	-866	1603	-318	-24960	4056	24108	17120	-32768	22209	-27240	-2088	-11416	-16200	-32768	24501	-2928	-936	-12308	-27716	-12115	-228	136	126	1
-7088	-6552	13372	-2521	1962	351	-11548	-4712	-864	-3368	7159	487	-15560	-6160	8240	-461	1272	-168	-32768	11396	32767	14758	-32768	22731	-32768	-5352	-21304	-9564	-32768	28531	-6740	-3436	-6480	-19681	-9677	-1059	136	123	1
-5676	-7272	13596	-2696	2166	79	-17336	-3376	-508	1576	9604	2144	-17304	-5528	6504	-259	2005	-160	-32768	9656	25568	15050	-32768	28121	-29480	-3308	-18964	-6257	-32768	31541	-8344	-2668	-7884	-7851	-2931	2050	146	136	1
-4880	-7472	14120	-3128	3748	1160	-18168	-1488	428	468	11802	1965	-19912	-2680	4672	-296	1668	-59	-32768	-2700	16356	18541	-32768	32767	-25736	-504	-16180	-10642	-32768	26304	-18088	2816	4388	1082	-9206	2971	145	138	1
-6084	-6104	14360	-4724	5811	1455	-16868	672	936	-1052	14838	2306	-19728	-280	8704	-470	1355	-85	-32768	-4932	3312	2971	-32768	29706	-28932	956	-16972	-11819	-32768	25430	-25996	-1964	19744	-5614	-22860	3851	137	120	1
-5344	-6844	13968	-7053	8910	1293	-17680	-1116	820	-744	17834	3148	-18784	2824	8672	-728	1110	-71	-32768	-27644	-23376	6800	-23008	16792	-10556	-13092	-27956	-19557	-15981	14658	-14020	-15684	31696	-13341	-10909	7221	128	120	1
-4760	-7332	13896	-8990	13979	2606	-19004	-580	-964	895	21003	3437	-18648	-968	6384	-961	828	62	-32768	-23852	-27780	17431	-4079	9544	-2408	-12532	-27096	-2982	3891	4733	-13672	-4632	32767	1187	7273	5130	127	136	1
-6844	-6304	13560	-10324	20012	4077	-20144	452	-3160	417	23081	4300	-17160	-4064	2832	-1083	496	139	-32768	-20488	-26644	14248	-1582	9022	-10280	-8964	-22892	-962	16930	-5035	-19424	5008	16216	-2001	-752	3329	121	120	1
-5088	-8748	13484	-12751	27163	5475	-21452	744	-3264	-1352	24689	4385	-19168	-1960	6648	-867	-97	400	-30800	-1036	29328	-12840	26058	3176	-22224	8752	7824	5154	23003	-12083	-13572	3904	-2680	1676	5386	1387	128	135	1
-6532	-9612	10364	-16894	32767	7083	-24004	4600	-1152	-5300	25663	2798	-20056	2576	16760	-719	-1518	790	16972	-11944	7852	-22674	32767	-29523	-32768	12756	25780	3250	11705	-867	-32768	1940	7496	2750	5437	3933	121	140	1
-7092	-7956	14584	-22836	32767	10151	-32768	2884	8032	-12351	25924	1828	-23552	7016	13992	-535	-1707	1106	-32768	-1560	32767	-2667	32767	-5326	-28960	-18752	-10268	-13991	22316	-19640	-22844	-18816	6284	-26250	10426	-1780	123	151	1
-13276	-16284	19268	-29061	32767	11525	-32768	-1460	7500	-20564	25825	2676	-24744	4832	11728	-1344	-1950	1180	-24848	2956	24604	-2497	29341	-12334	-25344	-8528	-8712	7382	25110	-9183	-9044	-5204	-8496	5172	12303	-2027	130	134	1
-31780	-26432	30104	-32768	32767	19173	-28784	-5468	-8768	-21784	26892	3079	-24224	-8680	-6160	-2950	-1638	933	-32768	29776	32767	-14667	20216	-10235	-11572	12940	-14664	-919	22314	-4748	-14072	1168	-13332	13718	7723	2942	160	183	1
-32768	-23368	22528	-32768	32767	20016	-27696	-1612	-14432	-16475	25399	4243	-26088	-14160	-7440	-2015	-1980	288	-12008	-2316	16328	-7580	913	-4911	-17772	-3100	-16664	-9777	23203	-8988	-4640	15980	-15540	12091	524	2022	121	110	1
-17208	-25008	26844	-32768	32767	17483	-24448	1608	-7144	-11361	16791	7712	-32768	-5112	-10000	-284	-2493	10	-9868	1464	15996	-3826	-641	-2656	-18980	-2872	-9996	-3	13880	-6133	-15304	5008	-10804	3251	10779	5935	140	88	1
-1464	-12072	30504	-32768	27105	16893	-16796	-4288	-16556	-12116	11963	8291	-32768	-2840	-8592	103	-2381	-271	-8688	6732	13476	-2214	-444	-2033	-17628	-4460	-5408	13847	13051	-3293	-21568	7424	-8592	9420	7378	5782	151	98	1
-12576	-32768	32767	-15290	-1628	14534	-8968	-2832	-28412	-7432	5874	4862	-26112	-3152	-4352	424	-2695	-600	-7664	3976	13984	-1847	40	-1918	-18460	2068	-4228	16012	10225	-1230	-18052	5460	-4956	8366	10838	713	148	110	1
-3864	-26496	29592	20225	-27200	2832	-6396	-4524	-10404	-441	-1329	195	-24816	-1216	-9600	306	-2195	-811	-7260	4404	13492	-958	996	-1833	-17336	8488	-3628	2365	9534	-3470	-13576	2504	-2176	6117	12747	1339	169	122	1
-2244	-11344	13428	30301	-32768	1520	-5096	-1512	-6488	2381	-8537	-1904	-21888	-1952	-9216	214	-1963	-837	-7604	3808	14040	-476	1761	-1528	-17232	1716	-4760	-5577	8355	-3983	-17856	4168	-4436	2911	13720	445	154	114	1
-4044	-4548	9432	26754	-32768	1293	-2508	-308	-4720	7469	-14360	-3122	-15960	-624	-9720	586	-1982	-873	-8144	3984	13552	-252	2192	-1590	-16692	868	-6200	-5395	7338	-3242	-16364	2732	-5252	700	13861	-34	141	120	1
-2844	-2788	5836	16460	-32768	750	-2456	1432	-3732	7575	-19427	-4140	-13752	936	-8872	686	-1957	-854	-8300	3908	13620	-545	2107	-2008	-16948	-1404	-6176	1862	5539	-2081	-14968	1984	-3184	4029	16223	2555	103	112	1
-3320	-7332	6340	10470	-32768	-904	-3216	2572	-5188	5608	-24667	-5534	-12648	2896	-8960	643	-1899	-644	-8084	3180	13596	-295	1982	-1663	-16384	-40	-4496	6770	4561	-177	-15184	996	-2156	7507	15456	2972	102	107	1
-5704	-10948	8204	11714	-32768	-3790	-4844	2972	-5660	3474	-29435	-7023	-10776	1400	-9656	745	-1737	-495	-7860	2860	13496	-222	1989	-1614	-15852	3088	-3444	4321	4575	-696	-15172	2080	-1460	9968	15167	1669	109	114	1
-5904	-11208	8380	12187	-32768	-4533	-6464	2868	-4928	1487	-32768	-8494	-8344	696	-9720	976	-1553	-370	-7940	3496	13352	383	2704	-1631	-16732	3344	-4688	1488	5079	-1281	-15856	2808	-784	10394	15199	1854	104	125	1
-9364	-10916	11496	11736	-32768	-13382	-8740	3176	-5968	411	-32768	-9631	-6704	-744	-10248	1254	-1418	-260	-7324	3648	13536	380	3477	-1787	-17508	1048	-3768	2679	5047	-1336	-16172	2688	1268	11187	16449	2620	112	127	1
-11424	-12020	13920	8609	-32768	-17718	-10796	876	-6716	695	-32768	-11229	-4944	56	-12080	1758	-1231	-184	-8196	3152	13396	634	3938	-1581	-16740	856	-3164	4928	5701	-1520	-15956	3188	3900	9756	18642	2584	116	121	1
-13860	-13224	16480	6404	-32768	-20807	-13248	-748	-7860	4840	-32768	-12559	-5304	1024	-12680	1932	-1109	-118	-8128	3496	12832	522	4122	-1440	-15744	2716	-3108	4599	6936	-2166	-14804	5564	440	9008	19628	1376	120	131	1
-16308	-14812	18292	4791	-32768	-22840	-17320	-1080	-9460	11281	-32768	-12193	-5608	1320	-13464	1955	-685	-74	-8372	3444	13112	627	4608	-1652	-15460	2604	-4284	1757	7938	-2932	-16196	3944	-4448	6378	15523	609	128	130	1
-20424	-21168	25220	6377	-32768	-24271	-23092	1732	-12520	16998	-32768	-10737	-6216	2312	-9544	1804	-367	-62	-8988	2912	12744	1063	4986	-1573	-16156	140	-5132	1245	8518	-3289	-14892	2748	-2432	3109	14000	266	134	127	1
-30548	-31508	32767	12314	-32768	-28592	-32768	864	-15640	15489	-32768	-10989	-10360	2152	-792	1662	-1008	-138	-8696	3580	12600	1392	5463	-1241	-15880	1132	-4324	3006	9057	-3473	-12932	3676	-176	3858	15594	-263	144	126	1
-32768	-25560	22912	17880	-32768	-32768	-32768	3120	-23188	20505	-32768	-11546	-18816	-8632	8448	1564	-2363	-500	-8368	3748	12764	1226	6953	-1537	-16672	3552	-3088	3046	10261	-4139	-13152	4048	-164	3774	15697	-335	150	134	1
-32768	-19412	18388	3592	-32768	-32768	-22984	2008	-24424	4521	-32768	-4319	-27704	400	13288	503	-2157	-840	-8376	3956	13080	754	9245	-2040	-17796	3464	-2636	1441	12267	-5619	-18828	5412	3696	44	12587	111	130	131	1
-32768	-11028	-6464	13008	-32768	-21880	-18912	-6596	-22524	-1757	-30751	-8464	-9648	15256	32767	1714	-1879	-1039	-8428	4260	13416	353	13186	-2954	-18900	4144	-3056	697	14456	-7129	-18944	4436	4428	1121	11843	-511	121	129	1
-32768	13128	-29068	-14110	-30453	-3907	-1912	6464	-17500	-10124	-12032	-7288	-17464	9152	32767	480	420	8	-8608	3528	13932	-776	18582	-4857	-21100	2544	-4036	2325	16190	-7858	-19924	3704	2220	2013	8950	-310	126	128	1
-32768	-3800	-32768	-19750	-12549	10322	2028	-1144	-17736	-20345	11308	-4740	-18520	456	29400	-1594	-247	-124	-9392	4512	13504	-990	25355	-6899	-23176	3100	-3836	4543	17590	-8684	-22004	3376	3492	4678	4506	-472	118	126	1
-30024	-18312	-16368	7071	15023	16219	-9324	-4568	-20884	-9729	27197	187	-12792	1440	8728	-937	-450	102	-9816	4460	12444	-914	32660	-10235	-23816	2240	-2380	7531	19284	-8362	-22644	828	9224	5600	-4110	-3092	125	122	1
22648	-2796	8340	8237	28216	8968	-32768	-8136	32767	570	16265	2283	-14576	-4280	-7208	-632	1004	-160	-9312	4000	13540	-974	32767	-13732	-27876	4060	2240	11753	20573	-7959	-24504	-276	18652	2080	-13028	-3787	115	124	1
-27024	-364	7396	-7671	32767	9914	-30512	8448	-21056	32767	25001	4643	-32768	-10056	32767	1119	-530	-1884	-12132	7176	12384	-1930	32767	-18982	-32768	9728	8088	14396	20635	-8015	-27392	-5344	18060	-340	-16741	-5382	121	130	1
-32768	9868	32767	-4229	32767	15838	-19140	14700	-16936	21050	29013	9916	-9264	9376	-144	5819	2964	-83	-24096	6208	19468	-1580	32767	-25829	-32768	5792	6228	19960	20043	-8620	-27284	-5348	5724	14847	-13680	-8892	134	117	1
-11976	-32768	19068	13431	13909	4567	-25940	-8064	-25660	14873	29901	2551	-26264	7032	-21560	-555	1401	-374	-32768	8000	31200	-2853	32767	-28005	-32768	5764	-9828	20679	19138	-8621	-26668	6160	-7816	27405	-15240	-6190	197	129	1
-17408	-256	24560	10595	4464	5423	-15476	2816	-25292	26369	20321	-322	-12576	-10096	-21136	-3172	201	73	-32768	7240	26612	110	32767	-26454	-30256	8184	-2872	16942	15521	-11750	-28632	12820	-12672	23759	-17945	-4551	99	134	1
-4728	-2880	17580	5987	-385	2864	-4844	2884	-14768	-1872	17705	-1401	-1608	-5288	-11568	-1217	921	-386	-24144	12268	32767	5053	32767	-22944	-17700	6548	-7496	13210	13930	-12042	-30412	9320	-8772	6936	-19858	1107	65	118	1
-6172	-4896	15316	2232	-460	796	-16248	15608	-12664	-31107	12478	-4661	-21440	-6648	-13448	-1598	1344	-1260	-32768	22584	32767	6212	1252	-20223	-13020	2756	-22520	373	13282	-7843	-30920	4960	-8904	-4010	-21225	6613	79	118	1
-5708	-5528	15104	544	-263	-41	-24780	-9004	-7968	-28241	8071	-7534	-28488	-3224	-6816	-1588	1336	-677	-9652	18888	32767	798	-32768	-9871	-14604	7812	1964	1505	4872	-2933	-32448	5096	-12848	-6619	-20836	6313	142	134	1
-5088	-5000	15012	-354	161	-120	-17776	-11504	-6556	3871	6719	-315	-20880	-3544	-2184	-1084	1793	243	4624	10464	10484	-1475	-32768	-5664	-9136	-568	1600	956	-11461	3132	-24800	1132	-14208	-4890	-18647	6758	105	88	1
-5280	-4980	14968	-2028	1087	-446	-17280	-2016	-7136	21130	4902	4308	-14320	-5112	-2464	106	2334	371	4932	10132	9336	-1419	-32768	-5081	-4960	-348	-512	1746	-17190	6979	-19076	-816	-14088	-5562	-19226	7382	93	104	1
-5328	-6064	14636	-2377	1277	-334	-15200	5032	-5264	10961	4002	1812	-13136	-5360	-2176	738	2280	187	-6416	9028	11816	3155	-32768	1379	-2232	1276	-4532	-2033	-21843	11133	-13976	-168	-13532	-9974	-16396	6675	75	118	1
-5340	-6884	14336	-1555	1223	282	-15244	4200	-4888	-12162	3644	-2447	-16904	96	-1952	-325	2065	-176	-9636	8748	11556	5991	-32768	6886	-5928	-196	-3760	-11657	-26405	15164	-13176	1388	-14092	-10406	-17462	5252	132	118	1
-5764	-6760	14376	-911	1143	554	-17460	-5164	-4248	-16720	2286	-3812	-16128	-456	-968	-1897	2175	-162	-9088	6864	8640	8384	-32768	11766	-10932	324	-3780	-6583	-31730	17759	-11068	3596	-14492	-8632	-17895	5642	130	143	1
-3028	-2988	16348	-1443	289	1760	-14720	-5236	-3380	-5992	2165	-1479	-16048	-3008	3168	-1129	1908	39	-11960	6008	10560	7041	-32768	14038	-11076	2132	-3956	-6560	-32768	20591	-7640	3020	-15068	-16061	-14596	4527	135	151	1
-7240	-7976	12152	-760	1187	1205	-16580	-684	-2552	-2709	3485	-103	-13984	-2560	7080	-207	2205	-214	-17976	4016	17200	9614	-32768	16198	-12276	896	-6616	-13748	-32768	23253	-3228	-212	-14552	-22947	-14695	538	123	135	1
-5896	-5492	14404	-1101	1566	1316	-16608	468	-2420	-5376	4201	-1025	-13440	-2560	8320	-1226	3028	-134	-21376	2040	20160	13586	-32768	18929	-16620	-48	-7160	-17255	-32768	24147	-2268	-392	-14176	-26062	-12755	-826	126	130	1
-5604	-5992	14208	-1395	1476	1258	-15008	-852	-1832	-8747	5277	-744	-16728	-3408	-656	-1438	2926	-163	-21900	-568	19456	16383	-32768	19073	-21436	-1640	-7596	-16928	-32768	25217	-1220	1660	-14144	-25326	-10186	-1872	139	139	1
-6568	-6160	14948	-1624	1390	1419	-13596	-2336	-1400	-7416	6958	-90	-16512	-4808	368	-403	1353	-320	-25328	-596	23436	19084	-32768	18881	-27372	-2732	-9652	-12431	-32768	26341	-3008	-1664	-11924	-19337	-6534	578	144	127	1
-5172	-5856	14220	-1497	1605	1030	-13580	-2168	-1468	-6814	7258	115	-15816	-5600	6016	-377	1664	-119	-32768	5564	32732	18128	-32768	20092	-32628	-1564	-15552	-10293	-32768	28202	-5460	-5720	-8860	-12905	-4523	-86	149	130	1
-5472	-5728	14368	-1907	2647	1115	-17064	-736	-1664	-107	10752	1709	-16680	-2752	4152	-454	2072	42	-32768	776	26864	16993	-32768	26696	-32144	-500	-19172	-12100	-32768	27547	-10636	-60	-2028	-5845	-5033	-106	143	132	1
-5588	-5560	14396	-3289	4327	1008	-16820	620	-172	-418	12912	1837	-18136	-312	4200	-171	1617	-41	-32768	-7388	16476	15693	-32768	28540	-32768	-556	-19008	-14795	-32768	22905	-23440	5116	13364	-4738	-19127	3043	137	127	1
-5500	-5412	14776	-5013	6580	701	-16652	-1244	-944	185	15456	2682	-17872	168	6712	-343	1333	-125	-32768	-12520	-4772	9757	-32768	24819	-25240	-2948	-27944	-23148	-26472	16492	-22476	-9624	22436	-10380	-22583	4357	130	125	1
-5152	-5980	14856	-7592	9984	961	-18972	-1324	-1764	620	17967	3269	-19192	-648	5936	-744	1114	-53	-32768	-28236	-31364	18347	-18511	15281	-7012	-12260	-29348	-12700	-8412	10334	-8472	-13940	32767	-497	2151	4928	125	136	1
-4892	-6460	14484	-9573	15036	2131	-19492	-1060	-2648	-702	20612	3413	-18248	-4456	5032	-1040	810	74	-32768	-28584	-32768	19617	-14600	13514	-4052	-9124	-27912	6793	7400	1730	-23472	276	24644	3344	4572	4706	118	127	1
-4932	-5936	14568	-11414	21392	4126	-21136	-600	-3696	-2055	22530	4523	-19056	-3808	3792	-1060	444	210	-32768	-17060	-15244	-6498	10442	1191	-12564	-4980	-22260	5454	23642	-7014	-17508	3992	12836	3599	-2349	2716	117	114	1
-5828	-7912	13504	-14067	29073	6665	-23632	1664	-4412	-4517	23720	3919	-21328	544	9200	-1056	-284	500	-32768	24168	32767	-5708	9398	4339	-32768	10056	32767	17443	18199	-12942	-7752	2832	-11604	5529	14087	2233	127	119	1
-5544	-7492	11720	-17774	32767	8953	-27264	5364	584	-8438	25702	2348	-22880	5712	18632	-923	-1600	829	12296	2900	2008	-6666	32767	-18424	-31792	-6772	14992	4795	15122	-6890	-32768	920	16324	2512	3163	5516	124	135	1
-5028	-6080	13416	-18706	32767	9394	-32768	3136	9136	-14452	26056	2153	-26976	9064	17096	-783	-1789	1062	-32768	-7472	32767	1738	32767	-5857	-32768	-5968	-11976	-9998	24854	-17860	-21872	-8664	3396	-20877	5943	-4833	134	169	1
-15332	-13328	24936	-29821	32767	15571	-32768	-2996	7616	-23163	25409	2615	-26128	1192	9968	-2118	-1756	1200	-23104	19244	23680	942	24834	-8796	-23748	-1088	-10404	4174	23706	-8964	-11988	-2792	-10332	-174	10045	-2573	141	164	1
-32392	-28588	30248	-32708	32767	23789	-28884	-8228	-7836	-25097	27798	3514	-20776	-13192	-7864	-2938	-1916	778	-25580	6400	31236	-9346	16722	-6599	-10812	9660	-9516	-10162	20051	-4866	-12388	5664	-13268	17383	11600	3520	147	189	1
-30008	-26036	22300	-32768	32767	23837	-27876	-2432	-10372	-16206	23140	3301	-27800	-13672	-8496	-1597	-2535	266	-15788	9036	16420	-6071	3944	-4364	-16812	-3336	-14548	-3740	18923	-8405	-5088	11836	-13904	6054	4672	4673	128	98	1
-13424	-23856	27248	-32768	32767	21360	-28000	384	-11004	-13447	21759	3643	-32768	-4712	-6864	236	-2583	-230	-10920	280	16716	-3730	876	-2764	-19416	-5368	-9088	7331	12841	-5037	-17584	5020	-10672	9320	10552	8700	135	95	1
-9148	-13116	27364	-32768	25461	24473	-14592	-7656	-14544	-11862	9672	7698	-32120	-1440	-8448	315	-2618	-485	-6792	6784	12776	-3216	781	-1969	-19148	464	-6324	14543	9987	-2167	-21616	10460	-9312	11860	9228	4276	151	89	1
-5516	-32768	32767	3519	-17018	4843	-8948	-1824	-21548	-1270	1228	1684	-27144	-120	-5696	470	-2834	-753	-6892	3048	13952	-2311	588	-1971	-17748	2952	-3332	9012	7450	-2091	-16384	5304	-4804	3467	12735	1931	161	117	1
-4088	-18132	23536	28552	-32768	-3420	-8956	-3496	-4152	-1253	-6476	-2535	-26352	-376	-10184	108	-2211	-861	-6424	2640	14288	-1810	1583	-1754	-18088	3616	-2100	-3416	8377	-3299	-14528	-360	-1900	-1403	14478	1233	154	123	1
-1904	-7392	13044	29347	-32768	-4504	-4856	-192	-3792	4485	-14015	-4779	-21144	-1808	-10264	129	-2158	-956	-7756	3592	14200	-1585	2316	-1338	-16568	120	-4644	-6569	7417	-2907	-16648	704	-2880	158	15225	-109	154	109	1
-2360	-1568	7440	19239	-32768	-5343	-3040	1016	-3944	7134	-20344	-5598	-14128	1184	-9360	385	-2212	-1004	-7844	4344	13640	-448	2042	-1034	-17080	-964	-5188	45	6517	-1600	-14200	2504	-3392	4109	14690	-207	106	121	1
-3992	-3904	7056	8482	-32768	-6281	-2692	2432	-4420	6289	-25606	-7239	-11616	3072	-9120	354	-2117	-790	-7392	3792	13920	234	1739	-1199	-16728	444	-2976	5350	5489	-473	-14904	980	-1856	8307	15495	2457	113	109	1
-6452	-10080	9080	7871	-32768	-8254	-3964	2664	-5616	3758	-30323	-8811	-10152	1112	-10896	515	-1851	-652	-8004	4324	13428	179	1606	-1253	-15804	3220	-2980	7089	5554	-673	-15516	2164	-1848	12045	15301	2511	101	120	1
-8352	-11688	10408	12250	-32768	-11652	-6172	2784	-5456	3918	-32768	-10412	-7760	1064	-10792	746	-1615	-471	-7564	3824	13412	41	1403	-1303	-15872	4140	-3288	4291	5970	-1421	-15936	2784	-1736	12892	15669	2696	108	121	1
-10112	-9812	12068	13013	-32768	-15961	-8788	3784	-5460	3295	-32768	-11182	-4760	-800	-10952	1082	-1448	-268	-7712	3608	13616	336	1417	-1467	-16464	2296	-4400	951	6402	-2387	-15252	2740	-284	11365	16157	2960	115	124	1
-13196	-9696	14900	8769	-32768	-19961	-11560	2732	-6108	2261	-32768	-11713	-3168	-88	-12248	1648	-1263	-176	-7552	4116	13512	116	1521	-1752	-17072	924	-4096	2853	6493	-2223	-14536	2900	1044	11714	20459	2637	121	124	1
-15024	-11468	16644	4724	-32768	-21907	-13776	548	-7392	3949	-32768	-12589	-3832	360	-13328	2130	-1234	-52	-7764	3988	13436	339	1894	-2037	-16932	764	-3988	5195	6454	-1770	-14832	3056	-1372	11299	23437	2406	122	135	1
-18104	-13876	18796	3183	-32768	-23067	-16980	-640	-9296	11293	-32768	-11905	-3112	616	-13512	2168	-1199	-39	-7480	3208	13480	625	2263	-1988	-16156	1724	-2600	5672	7347	-2216	-15984	3252	-4392	6168	18577	2064	129	132	1
-22512	-23588	27684	6978	-32768	-24220	-23304	3136	-12556	17127	-32768	-9574	-5480	1816	-7280	2330	-864	11	-7580	3820	13168	421	2857	-2166	-15512	3208	-2896	3362	8768	-3034	-15992	5744	-1156	2985	13285	1241	133	132	1
-32560	-32768	32767	16315	-32768	-29041	-32768	1036	-15684	15618	-32768	-11751	-5800	1736	-6552	2315	-896	-2	-7500	3388	13912	294	4334	-1981	-16808	3116	-2616	1250	10044	-4252	-15248	5712	3092	2957	14709	1085	147	125	1
-32768	-17172	23752	14843	-32768	-32768	-32152	2068	-14240	11151	-32768	-7849	-18520	-8328	7128	1846	-1931	-588	-7044	4968	13696	513	6309	-2177	-18344	3380	-2028	1749	11517	-5672	-18560	4912	3172	1916	14870	983	148	124	1
-32768	-22588	12672	10842	-32768	-32768	-25940	5724	-23076	1304	-32768	-4640	-27400	4232	12400	886	-1981	-775	-7132	3744	13968	405	8933	-2793	-17624	3092	-1688	3416	13623	-6600	-19024	5384	3720	2830	13410	-250	127	124	1
-32768	-9360	-13144	14760	-31111	-18351	-17448	-4564	-25916	4321	-28975	-7857	-12368	18944	32767	1795	-1868	-646	-7844	5180	14396	536	13195	-3905	-20220	3904	-2104	3012	15930	-8090	-21252	2860	3608	3176	10946	-133	133	131	1
-32768	9396	-31160	-19452	-28875	-3821	252	9772	-17732	-8678	-8014	-5352	-18176	9376	32767	705	732	540	-8016	4052	15080	55	18822	-5020	-21860	1896	-2940	3440	17927	-9531	-20172	2168	3464	3843	7333	509	140	128	1
-32768	-10780	-32768	-16242	-8588	7177	752	-1764	-18964	-20678	13478	-4470	-15984	584	29728	-1551	-442	-109	-8576	3088	14108	283	27018	-7333	-23248	2512	-3392	4974	20026	-10425	-22060	3564	4228	8146	2702	-535	109	122	1
-32768	-17968	-11480	8941	17449	11232	-9824	-6248	-20984	-5545	29157	1163	-12424	528	11408	-758	-640	82	-7952	6192	12620	-663	32767	-11255	-24036	3224	-2256	8101	21948	-10044	-21372	2444	10092	8195	-6518	-3242	114	120	1
32767	252	-5192	7982	26033	4868	-32768	-13348	32767	1834	18090	4331	-13536	-4704	-6456	170	1460	-379	-9220	5616	14784	-1498	32767	-16057	-28876	3972	1152	11497	23241	-9304	-22572	1148	20492	2642	-15929	-4213	125	124	1
-31724	3712	13776	-1728	32767	17039	-28648	596	-25792	32767	26699	2236	-27968	-13792	21128	1488	1899	-2058	-14752	7472	16316	-3170	32767	-21681	-32768	9456	8240	14735	23583	-9237	-25088	-4600	15648	-1506	-16025	-6513	135	131	1
-26680	18744	31788	-9423	32767	14585	-13940	25084	-6240	26036	27783	10251	-17992	14568	-6088	4778	1598	-599	-25176	7812	19880	-3043	32767	-29584	-32768	9224	3756	18360	22822	-9911	-25024	-3096	1368	14287	-12860	-8966	126	142	1
-32768	-32768	32767	14500	27398	13443	-20892	-8392	-32768	1727	26350	718	-26776	17848	-312	-311	93	-269	-32768	6568	28196	-2639	32767	-32193	-30984	7616	-9580	19597	21526	-9938	-24148	7240	-9452	23148	-14912	-5526	163	141	1
-17812	18136	32704	11463	7754	6765	-25500	1720	-20668	19533	22275	-4303	-15232	-11216	-26392	-4360	505	35	-32768	13100	32767	6256	32767	-26723	-25072	5332	-2096	19370	16281	-12712	-29516	10804	-12764	19685	-18312	-2249	103	121	1
-6936	-6288	18044	7537	2658	3059	-10976	2336	-12620	-6608	17828	-3064	-11752	-9896	-12080	-2200	1158	-403	-32768	14640	32767	6309	32767	-26658	-18844	5452	-16216	7579	14964	-10534	-32768	8148	-10608	4270	-19464	2923	65	126	1
-5660	-10484	13680	3006	1205	1266	-12592	4968	-11320	-21960	13449	-2345	-18136	-11928	-10800	-1630	1140	-940	-24104	28952	32767	5620	-25881	-11776	-12716	2228	-14972	367	13339	-6679	-32468	4704	-11324	-4296	-21358	7251	98	118	1
-8044	-4736	15404	1983	960	776	-21068	-5580	-9484	-22540	9304	-3544	-20216	-9176	-4840	-840	1299	-538	4540	17920	19696	-258	-32768	-5155	-13876	4172	7032	4175	-6264	1084	-32768	1876	-13128	-4879	-20573	8275	122	131	1
-5032	-6080	13988	692	1446	602	-18412	-11148	-6532	5767	7748	1949	-19184	-2576	-1664	384	1742	34	4460	11900	11340	1130	-32768	520	-7244	-548	1160	562	-12290	6263	-24484	-992	-14724	-3037	-18812	9553	100	116	1
-5988	-4984	14632	297	2209	487	-16836	-1088	-7060	21786	6244	5188	-16816	-920	-1520	1114	1927	38	-1700	11064	12100	6274	-32768	8027	-3708	420	-2676	-1904	-18430	10189	-17840	-2428	-13576	-6452	-18845	8233	96	91	1
-8252	-5604	15180	145	1522	640	-15700	5348	-7432	13731	6033	2873	-15424	280	-3280	834	2136	-92	-6012	10016	12384	7367	-32768	13634	-3748	564	-2584	-7225	-22997	14575	-12912	-2964	-13160	-7053	-17772	8051	87	122	1
-6832	-6456	14260	267	1088	786	-14808	5432	-6192	-3698	4799	-741	-15400	616	-2728	706	2169	-92	-8324	7320	12012	7688	-32768	17531	-6188	-96	-3208	-11940	-28033	17575	-11296	688	-14776	-10620	-15810	6406	116	122	1
-8268	-6764	13912	225	901	753	-13828	1760	-5592	-13260	4240	-2666	-15448	2600	-248	-1211	2091	-85	-9520	4364	11636	10069	-32768	20732	-9044	-1724	-2816	-14255	-29455	23860	-9456	2368	-14668	-8206	-16763	5625	136	145	1
-6528	-4744	13936	-200	527	411	-16836	-3568	-3960	-6624	3526	-2303	-15360	16	88	-1586	2206	-152	-13020	2444	15656	11740	-32768	22034	-11772	-2480	-4020	-10218	-32768	21333	-4684	840	-13500	-13339	-14866	4547	130	149	1
-5600	-5680	14612	436	1037	1057	-15260	-2776	-2244	1799	4365	-286	-18000	-2736	-2176	-1257	2130	44	-16888	-368	19364	14538	-32768	21298	-13304	-2164	-4748	-11211	-32768	23444	-2316	-1560	-13752	-20680	-13348	823	135	141	1
-5844	-4620	14988	1401	764	2262	-16204	-1684	-6704	2848	4432	-676	-14448	-1656	3256	-822	2626	-200	-18304	-2152	19664	18313	-32768	19772	-17240	-2900	-4336	-9268	-32768	26400	-52	-308	-14608	-24697	-10964	-1635	119	139	1
-8176	-4956	14300	1079	612	1702	-15024	2756	-5208	-3260	4318	-1546	-9768	-1360	7144	-428	3618	-420	-19876	768	22304	17626	-32768	17807	-23276	-2148	-6416	-9932	-32768	26871	-1328	-1004	-12676	-22168	-10074	-2041	129	133	1
-5224	-2816	15200	282	-463	1835	-13624	468	-2240	-9942	4926	-1982	-11912	-4304	2344	-576	3235	-358	-27240	3400	30580	16672	-32768	17504	-32036	-2444	-9412	-6932	-32768	27865	-3932	-300	-8508	-17835	-10095	-1239	137	133	1
-6280	-4364	14296	-728	746	977	-13932	-2996	-1784	-5678	6322	-1018	-18688	-4912	-1368	-393	1593	-109	-32768	9316	32767	15387	-32768	20349	-32768	-1440	-15980	-8609	-32768	28962	-7176	-1680	-5928	-11618	-6077	-914	141	141	1
-7620	-6444	13612	-2267	1924	438	-18140	-620	-3512	-2250	8300	473	-19248	-5000	5888	-385	1822	-102	-32768	-1280	21076	18319	-32768	27906	-30804	-900	-16144	-10596	-32768	26643	-13168	1100	428	-7278	-5792	1855	145	130	1
-5396	-5412	14516	-2500	3184	645	-18532	-1352	1176	-5300	10346	603	-19000	-3128	8096	-400	2042	-255	-32768	-292	17416	9728	-32768	30559	-32616	44	-21568	-16822	-32768	20953	-26200	2048	15544	-4820	-20937	2989	140	132	1
-5160	-5276	14380	-3100	5487	1301	-15532	-4080	3404	-4339	14289	1673	-19760	-1992	11840	-742	1389	-132	-32768	-15740	-14108	6177	-27750	22840	-22100	-5372	-25392	-18588	-24757	16126	-16304	-17316	26876	-4000	-17799	1302	133	115	1
-6208	-4860	14576	-5170	9092	1891	-18020	-1248	168	-805	18267	3307	-20440	1312	10848	-984	1154	-214	-32768	-27196	-27372	17025	-11931	9561	-5904	-10668	-30644	-5308	-5038	8537	-15588	-1576	32767	2356	1446	2145	120	122	1
-5836	-4992	15124	-8798	14150	2077	-20696	752	-1584	-3321	21864	3954	-18640	-4208	6344	-1299	708	19	-32768	-16984	-25640	2845	2320	2276	-6072	-7688	-26084	5103	12471	-1163	-23284	4544	20604	-2037	922	3649	121	125	1
-4676	-5784	15120	-11313	21989	3886	-22292	-904	-3488	-4536	24178	4349	-20848	-4592	4960	-1336	325	349	-32768	-15856	-24276	-1051	4677	1522	-7508	-7412	-25184	4613	15032	-2765	-14936	1412	7048	-3101	-1023	3108	123	115	1
-6072	-7616	13452	-13206	30640	7848	-24228	2316	-4592	-6193	26179	4054	-20608	800	10064	-1242	-382	640	-27116	14380	32767	-21423	17455	-12114	-23756	16688	-520	-3611	24967	-8102	-9532	2948	-5492	-596	11301	4279	130	124	1
-5824	-7512	13700	-17381	32767	9277	-28772	6424	1872	-9729	27893	2326	-22496	10800	19920	-654	-1658	992	32767	-24032	28240	1370	23328	12309	-32768	-32768	32767	5002	8552	-20805	2260	6944	-18472	10061	31762	9380	122	143	1
-10516	-5184	19660	-28071	32767	9735	-32768	7952	8252	-19314	28443	1426	-24136	16992	13984	-973	-1778	1405	-32768	-2240	32767	10232	32767	-18016	-23036	-1984	-8812	-383	15795	-12455	-32768	-15632	12796	-32768	-10563	-231	138	165	1
-23964	-19936	30536	-32768	32767	13346	-32768	940	776	-32342	27781	2924	-26648	1928	6168	-3143	-1820	1331	-29108	32767	25756	-11125	4740	-3645	-32768	24404	-32768	-29726	32767	-9335	-32500	-9472	-11988	-10097	4714	-13703	129	165	1
-32768	-21364	32180	-32768	32767	23571	-32768	-14224	-9580	-32768	27336	1895	-23400	-23280	-8392	-4828	-1334	915	-15796	12936	15892	-3769	7810	-4035	-17168	-13208	-23800	-8767	18401	-7954	-4556	-6512	-17872	32767	19784	9598	142	132	1
-28108	-20688	18748	-31513	32767	26587	-27528	-5040	-11192	-18609	18657	4927	-32768	-17160	-11696	-1204	-2224	214	-2700	1440	14252	-2759	1212	-3218	2468	-6284	-12024	9563	11969	-2541	10172	10068	-15040	26404	3025	3474	118	141	1
-10328	-24980	32767	-32768	32767	17726	-19280	-3636	-13248	-2832	13951	12313	-32400	-8056	-10808	1827	-2657	-413	-1052	7504	13168	-1558	2797	-2763	-20632	-3572	-4308	32767	13658	2927	-17244	16256	-13236	25125	3797	4921	136	87	1
-32768	-32768	32767	-27971	13612	17454	-11916	-4044	-21476	1436	7347	11527	-29384	-2488	-7056	1820	-2501	-693	-6588	6888	13856	-3315	3917	-2543	-26424	17432	-9276	11941	7890	-813	-32768	16612	-8116	17149	6484	1562	118	105	1
-3500	-30020	30280	18578	-21030	3455	-5308	-5976	-11428	4427	2152	3683	-26600	848	-7888	950	-2561	-657	-6792	4200	15152	-1430	2740	-1577	-22968	4392	-8776	-11217	8094	-6828	-23020	-296	-6324	-6127	14490	584	143	132	1
-200	-13216	14380	32767	-27886	1776	-5912	-6172	-9896	4199	1456	3283	-24952	-1872	-9320	548	-2190	-909	-5724	4476	14664	72	3926	-1835	-16032	-3340	-4476	-12026	6328	-4272	-12748	-4692	-2696	-3901	15894	1177	161	143	1
-1120	-4456	8580	30224	-32768	744	-4492	-64	-6508	11851	-13324	-1245	-21136	-4368	-9856	820	-1804	-1243	-5936	5052	14340	1046	5024	-1801	-16884	-8376	-4360	4653	4228	1	-17376	836	-3776	8490	18511	2720	156	113	1
-1036	-2524	6396	17466	-32768	-997	-2940	860	-5328	14363	-18956	-867	-16504	1560	-9888	1365	-1954	-1530	-5800	6168	14024	2424	6385	-1670	-19836	2120	-4336	14135	2201	2983	-17920	4708	-1132	16499	16055	-2218	129	100	1
-1228	-8076	6608	10660	-32768	-2977	-3212	3176	-5268	12304	-24616	-2048	-13760	3152	-10048	1409	-1990	-1088	-6400	7024	13292	1574	7264	-2952	-18112	7944	-4428	12286	1830	1954	-14628	7220	-1468	18114	15138	-742	89	106	1
-4724	-13752	10524	12400	-32768	-6696	-3984	3036	-6812	8729	-29220	-3742	-12176	2912	-11368	1494	-1779	-814	-7164	5304	13488	1363	7989	-3342	-15924	5284	-3964	7178	2140	-978	-15392	7944	60	13359	15028	2433	104	122	1
-7964	-14352	12516	16125	-32768	-12808	-4784	2016	-8032	6651	-32768	-5538	-9560	1936	-10216	1511	-1766	-567	-7480	5308	13052	1920	8110	-3305	-14052	1688	-1484	5566	3056	-1937	-15788	3420	1480	10606	13007	2256	109	124	1
-9736	-10588	11832	13003	-32768	-19357	-8088	2984	-6204	2724	-32768	-6716	-7520	-168	-10784	1857	-1593	-388	-7400	5392	12956	1855	8145	-3235	-15540	1172	-2400	7063	3928	-1543	-15268	4276	1756	11032	14139	-1517	108	127	1
-10176	-9360	11240	6637	-32768	-22015	-11116	72	-5628	2898	-32768	-8971	-5168	576	-11664	2504	-1494	-164	-8424	4788	12584	2255	8084	-3078	-16424	1396	-4384	7314	4508	-2279	-14760	4216	444	10729	16502	-810	119	125	1
-13824	-11356	13920	4020	-32768	-21265	-13136	-1464	-8504	7480	-32768	-10873	-5656	3392	-12464	2609	-1433	-47	-7880	5584	12288	2904	8224	-2813	-16416	2260	-3744	5784	4486	-2659	-13576	1144	-2020	10293	19932	-170	125	137	1
-16280	-13092	17252	3395	-32768	-21565	-14396	-488	-10788	18407	-32768	-9624	-5128	4072	-11696	2236	-1255	50	-8968	4260	12004	3626	8527	-2612	-15952	28	-4208	4052	5257	-3264	-14400	-380	-3344	8135	20652	1073	126	138	1
-20728	-17036	26928	3606	-32768	-22977	-21504	3944	-12716	14660	-32768	-8077	-5968	3072	-8432	1731	-1016	171	-8676	5556	11636	2933	8543	-2594	-15596	648	-2240	5716	6127	-2911	-14848	-136	-3412	7702	20113	1116	136	126	1
-28188	-25832	32767	9760	-32768	-25112	-29556	2648	-18160	7390	-32768	-10776	-6208	3040	-7464	1654	-998	169	-9412	6040	11188	1519	8609	-2987	-14624	4196	-1440	4764	7755	-3438	-14760	6768	-236	3820	13357	19	143	120	1
-32308	-26524	25612	13642	-32768	-25148	-29936	-1444	-16404	3035	-32768	-14272	-13296	248	-328	886	-1118	-36	-9276	6796	11536	248	9250	-3510	-15136	6296	-3320	368	9412	-4870	-14928	7960	1172	772	13603	38	152	119	1
-32768	-11244	18736	2580	-32768	-28177	-24888	-3028	-15724	3166	-32768	-11292	-22344	-8232	12344	773	-2011	-369	-8856	6216	11212	217	9447	-3544	-18756	3368	-2636	-2199	10945	-6945	-19808	6984	2164	-1353	13647	171	147	120	1
-32768	-22820	12576	681	-32768	-28139	-25792	796	-17944	5137	-32768	-9995	-21896	1488	19984	445	-2587	-785	-9432	6068	11912	278	13809	-5395	-18240	3108	-960	1099	13078	-7561	-19344	6724	4676	-236	12879	-1821	134	126	1
-32768	-3852	-23732	7686	-29835	-14535	-6812	-3356	-21772	-4432	-18740	-9328	-6272	15896	32767	1080	-708	-790	-9700	5684	11644	44	18587	-7028	-20996	2888	-96	2317	15409	-8651	-22048	1664	4360	799	9457	-2087	130	125	1
-32768	6576	-32768	-18951	-16421	1290	-1300	2232	-17716	-7803	-427	-6727	-19560	5624	32256	-266	369	-620	-10408	5356	11812	-202	25083	-8476	-22412	2552	300	2388	17647	-9386	-22960	-156	6192	2567	5990	-1732	112	131	1
-32768	-20164	-26924	-10968	5097	5678	-3400	-2096	-23088	-4604	21117	-2604	-15736	64	19896	-1238	-169	-350	-9944	4636	11336	1631	32767	-9510	-23960	1280	1336	2380	19417	-9763	-23000	104	7464	5403	337	-2760	121	126	1
32767	-15080	10576	5972	28977	-2943	-13664	-4572	-13252	1376	31202	2406	-5760	-4896	-2552	-518	407	-600	-12640	5880	11696	2189	32767	-11974	-24436	756	3116	5728	20982	-9240	-21912	-1092	12612	7157	-9506	-4861	123	123	1
26560	14428	14676	2306	32767	4348	-32768	-3092	32767	23945	10636	-2395	-20696	-13248	3672	190	2241	-1132	-16480	8228	14048	4619	32767	-15365	-30520	3496	5020	11990	20044	-8341	-24844	-2588	31632	-5895	-24708	-6053	131	130	1
-32768	2124	22992	-6215	32767	4411	-11180	18896	-22360	32767	24101	8525	-15176	752	7568	4407	1721	-1608	-30420	12888	15348	4675	32767	-23308	-32524	10772	1476	14933	21895	-6835	-20360	-9532	6892	3775	-15243	-10569	129	131	1
-28236	-13704	32767	-1421	32767	16400	-20648	2764	-16584	27105	20819	9682	-22272	9936	6512	5242	1200	-477	-32768	19860	27168	3538	32767	-29345	-32768	13236	-6240	16120	23716	-9312	-23936	4176	-7548	27332	-15084	-8708	158	144	1
756	-3540	16140	12567	4190	4370	-32028	-1264	-8264	21571	32431	-7215	-27544	15480	-23656	630	1635	-421	-29020	10620	23884	5610	32767	-26610	-32768	7244	-2468	15462	20856	-14377	-29504	20076	-13912	27304	-17452	-4531	152	123	1
-8792	-14352	14080	7363	1281	2523	-8452	1028	-12864	10750	25309	-2718	-28392	13328	-25416	-211	1773	-520	-28904	17808	32767	9707	32767	-23548	-24428	472	-15392	6612	17394	-12632	-31472	14032	-11944	4231	-20819	712	92	118	1
-5468	-7076	14588	4872	-4	3057	-752	11756	-14996	-32768	19329	-7139	2392	-9400	-11488	-4400	670	-631	-32768	32767	32767	10987	-16046	-21874	-16468	3352	-18216	6968	15515	-11846	-31144	1520	-11972	-6615	-21998	4161	69	135	1
-4808	-4768	15436	2444	-190	1223	-17972	-8208	-10924	-32768	12731	-7530	-21144	-13848	-9144	-2656	905	-1329	-31516	31700	32767	11133	-27290	-19227	-16956	7712	9652	16373	-1925	-3068	-32768	-856	-13032	-6965	-21766	3999	96	130	1
-5484	-4632	14200	929	241	-52	-21928	-19800	-9652	14450	8518	-2489	-26968	-10376	-6936	90	1569	-673	3032	14364	13280	309	-32768	-13997	-7864	2280	1404	6769	-10920	1563	-26512	-212	-13488	-1348	-20214	6212	126	132	1
-4804	-4752	15012	-469	1103	455	-19204	-312	-8368	32767	7575	4522	-24528	-1848	-3200	1495	2153	-19	-196	13348	10744	-1089	-32768	-8649	-4968	1052	-1564	5859	-17894	7347	-20128	1288	-14580	-3116	-18118	6715	70	92	1
-6496	-3848	14432	-1613	2496	-112	-18136	14096	-7864	11793	5816	1387	-11152	1384	-2560	1194	2104	-281	-6564	13612	11624	2534	-32768	-337	-4676	1820	-4740	-631	-22873	10837	-15660	1308	-14236	-5683	-17588	7640	96	111	1
-6052	-4308	14680	-3106	2424	-892	-14808	2996	-7000	-12817	3482	-5248	-10856	1112	-2936	1034	2083	-246	-10460	13848	11032	6836	-32768	8928	-7796	808	-5868	-4964	-28769	15148	-15336	2104	-14960	-9756	-18102	7732	120	127	1
-5832	-6848	14456	-2965	2678	-467	-15768	-6608	-6296	-13050	2970	-4953	-18144	248	-2272	-1158	1912	-1	-14456	13148	11412	8933	-32768	16765	-11204	816	-6968	-11043	-32768	19172	-12932	4524	-16476	-11064	-15667	7981	124	141	1
-6396	-5448	14256	-2200	2344	-153	-16244	-6844	-5704	-5145	1961	-2537	-16736	-4192	-16	-2252	2159	-415	-17536	10288	10892	10935	-32768	23367	-12480	-992	-6608	-10670	-32768	21208	-8412	1368	-16260	-16827	-13716	7271	142	140	1
-6296	-5372	14176	-2016	2228	-234	-16044	-1956	-4888	-1744	1814	-2706	-14448	-5232	3488	-1452	2228	-504	-18460	8680	11392	11523	-32768	27141	-13760	364	-7808	-16294	-32768	23624	-4592	-2196	-15976	-24720	-14741	1706	131	156	1
-5596	-6204	14224	-3050	2363	337	-16936	-552	-2032	-5975	3270	-2822	-13312	-2768	9056	-845	2376	-526	-21376	7720	15112	12648	-32768	29556	-17808	-680	-8576	-18067	-32768	25115	-2648	-3036	-15160	-24874	-13374	-32	124	147	1
-6084	-5632	13924	-3633	2594	597	-14868	-1564	-1696	-10135	4561	-3187	-14544	-3760	8184	-1462	2765	-126	-22816	7860	18240	13825	-32768	30788	-23624	-1616	-9392	-15186	-32768	26934	-2316	-1520	-12680	-22184	-11463	-192	128	125	1
-5984	-6316	14080	-2892	3147	1270	-14532	-4584	-2100	-8251	6202	-2713	-15720	-7128	488	-1227	2292	-77	-26964	10396	21500	14223	-30048	30319	-29008	372	-10984	-12001	-32768	29464	-2764	-1852	-9596	-15727	-5978	-609	145	129	1
-6388	-6272	14212	-2771	3718	1630	-16088	-2536	-3204	-3833	8056	-1560	-17464	-6784	648	-625	1622	-164	-32768	17672	25740	11027	-25704	30228	-32284	4400	-14836	-14460	-32768	29986	-5752	-6404	-6640	-10193	-2060	-278	146	131	1
-7068	-5156	13876	-3384	4539	1527	-16480	-680	-4296	-2361	9466	-927	-17040	-3728	4192	-499	1961	-120	-32768	9520	30556	11744	-29561	32767	-32624	-3460	-22308	-20288	-32768	25954	-13460	1112	4104	-12775	-8457	1142	140	136	1
-7104	-5112	13860	-3569	4650	1498	-16452	-680	-1224	-4278	11052	-1167	-15984	160	5888	-822	1763	-127	-32768	5780	11036	9890	-32768	32767	-30576	-4500	-16584	-17955	-32768	21201	-24304	3336	12156	-11552	-16629	4655	127	133	1
-6236	-5840	14272	-5121	8374	1790	-16244	-2560	-708	-4737	13712	-1095	-17872	1488	8256	-644	1466	-308	-32768	-8748	-19244	-7458	-24322	32709	-18084	2644	-24420	-26107	-23151	17986	-17428	-14688	24280	-19017	-19015	7171	133	118	1
-6428	-6164	14100	-6582	11891	2247	-17884	-1696	-1032	-2688	16912	-640	-19008	-440	8248	-857	1218	-318	-32768	-32288	-26200	14426	-12328	19765	-3736	-16416	-29020	-15495	-1766	6756	-11784	-4180	32767	-3997	-61	2852	125	119	1
-6420	-4920	14192	-8513	16056	2343	-18608	-1040	-1316	-3129	19987	-178	-18248	-2720	6736	-1255	606	-144	-32768	-15600	-22664	10557	-1557	9343	-5604	-7292	-27028	1058	12808	-1307	-19528	4860	18816	-1345	1976	2769	132	118	1
-6480	-7568	13616	-10124	22111	3583	-20864	-2296	-2836	-4162	22646	-216	-19616	-2112	7896	-1144	-46	29	-32768	-10856	-8464	-14077	6270	772	-15220	-6060	-22232	-3612	24819	-9418	-16888	6068	7152	-1155	36	1904	130	109	1
-6392	-8460	12428	-14424	29934	4800	-23908	1360	-2520	-6416	24533	-911	-20112	2032	15552	-1289	-1185	372	19024	8304	-1860	465	30927	-11252	-32768	17636	32767	14983	11816	-12336	-12748	1316	-10796	-3600	13722	2227	125	141	1
-7928	-5744	14576	-24276	32767	4381	-30276	8628	872	-13493	26313	-1805	-20800	2888	17360	-1306	-1460	410	-20072	18772	-316	-5124	32767	-20999	-29632	-11612	-9856	751	21719	-7224	-32768	412	16240	-6771	7946	-3351	126	148	1
-13884	-9144	23348	-32458	32767	5816	-32768	6032	5612	-26624	25185	-4018	-29656	14192	9888	-1283	-2035	1043	-22172	-13304	32767	-407	31551	-12675	-31424	-2440	-3236	-4379	26431	-14526	-13916	2068	-52	-9665	-641	-3077	114	147	1
-27316	-15332	27576	-32768	32767	6842	-32768	1280	-4616	-32768	24073	-2110	-25952	888	-4368	-4417	-1837	1282	-18596	21848	13384	-3473	23182	-13166	-16476	1888	-10544	387	24690	-8617	-14108	-9596	-9652	1868	8170	4634	136	144	1
-27004	-22020	22496	-32768	32767	12302	-24652	-4536	-9656	-32768	23110	-2671	-24912	-8384	-6800	-4123	-1766	893	-23076	3268	21536	-16320	12176	-11833	-13176	3792	-18328	-13108	22151	-5828	-4312	14688	-13528	13632	3687	1653	128	138	1
-27604	-17232	25380	-32768	32767	9609	-21100	-1272	-6416	-24842	17305	621	-29568	-5960	-11432	-2320	-2419	128	-12964	7808	17196	-15627	4983	-9691	-18156	-3260	-12976	-6547	17979	-7738	-13940	12276	-11232	-794	8973	5273	144	116	1
-17160	-17344	32428	-32768	30613	5730	-16280	340	-13888	-12740	12332	4049	-31576	-1088	-8056	-741	-2562	-323	-9544	6572	15876	-11845	670	-6538	-20948	-5200	-8200	4345	12977	-6593	-21424	8460	-11916	382	9108	5573	152	116	1
-32768	-32768	32767	-32768	3368	12137	-8940	-2264	-18100	-14987	7125	2383	-27488	-936	-4256	-173	-2539	-561	-8856	3296	14732	-8281	-882	-4333	-18996	-3224	-5656	9259	11012	-5405	-22560	5880	-9116	-830	9546	1506	147	99	1
-6052	-26860	32767	13483	-30592	2389	-8184	-2356	-9400	-8388	-672	-5097	-26720	1352	-8128	-449	-2357	-516	-8188	2300	14208	-4505	-149	-2581	-17724	2224	-5692	2099	9195	-5977	-14620	-344	-5416	-5593	12077	1930	160	120	1
-3740	-8976	16628	29682	-32768	912	-5944	-948	-3396	-1978	-8018	-8272	-21832	2472	-9280	-530	-2120	-529	-7228	3956	13900	-2949	618	-2227	-16836	2656	-3060	-6232	8125	-5313	-17256	592	-5320	-3331	14258	1051	169	112	1
-3876	-196	9664	24769	-32768	639	-4180	2732	-1036	3353	-14765	-9447	-17304	2768	-7752	-546	-1994	-706	-7300	2356	13848	-2008	873	-1870	-16568	-1632	-5648	-9109	6734	-5327	-16968	1252	-5112	-5538	15572	688	152	113	1
-4448	2288	6716	11104	-32768	-1068	-3968	4432	-1952	7385	-19526	-9983	-13272	2824	-8576	-419	-2007	-629	-7568	2732	13896	-1539	1261	-1712	-17360	-3680	-4096	-5210	5794	-3645	-15852	-1568	-2832	-5891	16257	978	123	99	1
-5740	-3348	8988	5134	-32768	-4077	-4264	7276	-4128	7854	-24658	-10721	-11304	3488	-8560	-171	-1930	-387	-8404	2652	13616	-1052	1138	-1458	-16160	-4120	-4724	2447	4349	-1736	-14660	-2916	-2104	446	16188	2475	100	112	1
-8692	-6624	12620	10190	-32768	-8122	-6392	7912	-4944	4258	-29623	-11286	-10200	3032	-8912	20	-1761	-163	-8256	2312	13716	-1054	1054	-1374	-15568	24	-2964	4967	4273	-525	-15328	-872	-1372	5713	15114	1089	102	129	1
-9016	-6504	12944	11117	-32768	-8907	-9088	7644	-4556	1048	-32768	-11209	-8192	488	-8376	102	-1532	-22	-7000	3584	13356	-616	967	-1069	-15676	3668	-2116	579	4853	-1634	-15336	2008	64	4722	14280	915	116	120	1
-13040	-3124	16180	11798	-32768	-16102	-11484	5900	-5576	-557	-32768	-10590	-5712	-824	-9216	433	-1328	20	-8104	3000	13684	-820	1282	-1433	-17564	296	-4284	-1650	5291	-2435	-16336	2392	-444	3155	15984	1688	116	132	1
-15436	-4388	19044	9873	-32768	-17417	-13404	3488	-5824	222	-32768	-10226	-5184	-176	-10280	1021	-1110	6	-8096	2412	13460	-758	1352	-1404	-17312	-1384	-3964	-252	5574	-2120	-16624	-624	-632	3097	17695	1705	111	125	1
-19608	-6220	21292	8727	-32768	-16985	-15440	2000	-8620	6322	-32768	-8829	-4760	752	-11192	1433	-959	24	-8320	2748	13604	-690	1371	-1060	-16000	-956	-3580	1965	5766	-2132	-15504	1736	260	3925	17721	130	115	116	1
-22148	-7532	23568	8770	-32768	-15630	-17580	3184	-9752	12748	-32768	-5595	-6304	-264	-9168	1620	-882	11	-7216	3112	13432	-699	1670	-1306	-15920	2312	-2852	1767	6941	-2456	-14904	4432	-252	2978	16214	-123	124	111	1
-25144	-14588	28488	12762	-32768	-14392	-23864	6580	-11344	9747	-32768	-3669	-7184	-384	-3616	1756	-1004	-67	-6712	3248	13780	-1176	2953	-2149	-17980	2300	-4660	-1047	7690	-3421	-16752	3888	-1572	84	17393	622	137	119	1
-30244	-18460	29492	17435	-32768	-16628	-29776	5748	-14268	3101	-32768	-3362	-10512	-3632	3688	1276	-1594	-218	-7416	3108	14040	-1103	5151	-2549	-20148	-908	-4152	89	7872	-3863	-18680	2568	-504	-966	20032	1629	140	125	1
-32768	-17500	23044	15205	-32768	-18749	-27244	3420	-14316	-7084	-32768	-2721	-11408	-4080	4240	1163	-1680	-276	-8304	2296	13828	-691	7132	-2101	-18620	-344	-528	2201	9289	-4400	-18788	2724	3660	-1701	19246	1284	127	113	1
-32768	-21872	7128	15811	-32768	-13641	-22080	-1916	-20824	-3075	-32768	-5520	-16744	4344	16968	1410	-1672	-339	-7544	2216	13908	-753	9212	-2048	-14916	2488	-68	139	12048	-6362	-17192	-852	6480	-2815	13356	138	122	124	1
-32768	-1612	-10400	-6020	-32768	-5782	-15140	2276	-17588	-6588	-27223	-6004	-12128	12696	32767	1015	-976	878	-7884	1908	14176	-860	9644	-2155	-16920	2052	-1608	-1592	14357	-8456	-18504	-856	6396	-112	10831	-372	136	130	1
-32768	-9672	-26216	-19541	-25676	-3354	-3356	3420	-14984	-14686	-8322	-4131	-17632	3384	32767	90	129	484	-8344	2772	14140	-2607	15460	-3752	-20024	2952	-3444	-930	16323	-9922	-19032	2148	5268	2961	9536	887	144	131	1
-32768	-7228	-30824	3788	389	1765	60	-3164	-14124	-20363	9189	-1175	-15712	1248	29160	-1168	-386	-10	-8472	4364	13788	-4221	20439	-6519	-21424	4012	-3500	1398	18394	-10711	-21892	4876	3712	6168	3619	721	109	128	1
-32768	2404	-31576	-1045	27107	13010	-11860	-12508	-280	-7636	21219	4803	-12512	2688	11352	-1158	-164	597	-9448	5364	14144	-6299	26139	-10738	-22292	3580	-2952	5423	20607	-10527	-20836	4040	8792	6722	-6673	-1453	116	118	1
26172	-16312	32767	1253	32767	27150	-32768	-16016	32767	7953	12902	896	-26472	-7240	4480	-224	584	-242	-9156	5984	17260	-9800	32767	-15620	-28508	5156	-752	8507	21440	-10445	-22364	3396	17192	436	-13872	-2214	121	121	1
-32768	-17992	10316	-4541	32767	11100	-26804	11616	-21280	32767	25949	4549	-19848	-1192	15336	3638	2006	-1754	-11700	6696	17184	-13925	32767	-23678	-32768	9896	3564	9131	22729	-10696	-23104	1504	16792	4132	-14377	-4725	127	119	1
-32768	12996	32767	-4488	32724	15522	-24244	20164	-19464	21880	28030	8435	-15160	15568	-8784	3178	1826	-405	-18904	5576	20592	-18175	32767	-31877	-32768	8872	2268	10275	22487	-11657	-28908	2144	-5432	12412	-10041	-6344	148	141	1
-23848	-32768	23168	9555	15473	7301	-16972	-3112	-25020	-1611	27712	-901	-24136	13360	-18256	-1937	539	-104	-25456	2012	19488	-18229	32767	-32768	-28848	692	-7696	12645	19294	-11647	-23228	-1888	-7368	8054	-16133	-2564	171	132	1
-12708	-7380	23304	10372	1504	5723	-11932	-96	-18996	5069	21897	-1630	-4096	-14424	-22744	-4379	151	526	-32768	10252	32488	-13024	32767	-30736	-22036	144	-7072	16654	14776	-9414	-24316	1364	-12148	15924	-17928	-2313	89	126	1
-8532	-2020	16012	6124	-332	2737	-11064	-1956	-14680	-1142	12948	-2965	-15224	-12520	-14536	-1824	1474	-435	-21836	11408	29376	-14467	32767	-31697	-17024	-1748	-13012	17119	10962	-5405	-30052	320	-10440	10275	-17904	1725	71	138	1
-5252	-6992	14996	3453	-666	1155	-19296	4540	-7804	-17703	10389	-2192	-23264	-11320	-7216	-1030	1380	-1063	-32768	32767	32767	13827	-10411	9789	-10968	-11120	-14280	4556	11685	-6112	-28984	-2292	-11964	3628	-17288	4879	118	135	1
-4900	-4976	15204	2357	-607	881	-21504	-6276	-3372	-11883	8580	-1704	-20528	-3544	1112	92	1347	-72	2444	18132	20140	-3111	-32768	19149	-13156	14064	9652	12928	-4971	5395	-30628	588	-10652	3194	-16742	7051	136	133	1
-2520	-3400	15540	1221	506	1396	-16364	-6132	-3404	8217	7747	2826	-15064	-3304	-2224	472	1768	402	6324	1188	10084	2093	-28621	19074	-6896	6188	5452	-5320	-9371	9253	-21728	-1068	-10748	-339	-16778	9177	108	127	1
-5736	-4800	15168	810	1304	747	-15112	-1672	-8440	18136	6276	4471	-15216	-3840	-5720	975	1993	388	-632	3204	14116	9438	-29234	18541	-5484	3764	-1432	-15891	-9305	13442	-16788	-4988	-9372	-3792	-16380	8091	99	82	1
-6572	-6308	14048	725	1142	722	-15448	3528	-7696	8963	4203	3216	-16864	-2992	-5056	1055	2145	145	-4468	1784	15708	7651	-31851	15868	-9344	-1896	-844	-20448	-14447	17627	-15016	-6544	-9076	-1336	-15631	7248	92	112	1
-5408	-4916	14108	669	647	1216	-17068	4540	-5308	-7125	2585	502	-16560	1544	-1840	404	2141	74	-6048	-1912	15968	12008	-32768	17132	-12524	-8668	-1580	-15836	-21032	19542	-12660	-4380	-10780	-1043	-17195	5400	102	126	1
-5652	-4344	14384	-143	1377	1198	-16896	568	-3652	-8188	1748	-402	-17336	3840	736	-405	1992	114	-9112	-1980	17520	15525	-32768	19876	-14100	-8156	-2732	-6240	-27004	22808	-11340	-1732	-10464	-750	-16890	3441	120	136	1
-5852	-4704	14528	-1001	1663	1190	-15788	-436	-3092	-3099	2036	-70	-17368	3448	2464	-1216	1780	122	-12708	-5416	21220	15418	-32768	20703	-14936	-4412	-3104	-3545	-31143	24352	-8960	1324	-9768	-4032	-17274	2361	123	138	1
-5792	-5532	14568	-1047	1624	1369	-15760	176	-2304	-3262	2836	-214	-15344	0	4904	-1536	1702	211	-15264	-10220	23172	16437	-32768	17813	-17640	-2988	-5400	-3443	-32768	23802	-6764	4152	-9724	-7608	-15040	2926	126	140	1
-6448	-5776	14132	-544	1979	1421	-15428	-1228	-1448	-5733	3987	-31	-12544	-3264	8448	-959	1927	19	-16332	-11024	22432	17406	-32768	9836	-19412	-2828	-5760	-1732	-32768	23590	-6760	4956	-10932	-12191	-13007	3289	139	136	1
-6004	-5436	14772	-550	1886	1597	-14640	-1932	-1016	-5996	5576	992	-14128	-4704	7792	-252	2325	-84	-17764	-7164	21672	18058	-32768	1825	-22072	-4176	-6268	2767	-32768	24150	-6676	1696	-11468	-16295	-13068	2728	140	134	1
-5800	-5068	14656	-60	1962	2015	-15120	-1596	-2156	-2978	7338	1714	-17752	-4992	1504	-348	2438	178	-20108	-2996	22508	20562	-32768	-1836	-24396	-5664	-6892	7182	-32768	26942	-7360	-3888	-8940	-11415	-15020	609	137	129	1
-6108	-4064	14944	-512	2526	1729	-16820	948	-2764	-1084	8360	2743	-17752	-3008	-648	-187	1817	380	-23356	416	23544	24436	-32768	-98	-25936	-5016	-7880	10181	-32768	29992	-7416	-4628	-5360	-1088	-12319	-1366	141	130	1
-6080	-4272	14964	-1383	3555	1233	-17048	1632	-2668	-1405	9372	3140	-16152	-1056	3152	250	1607	266	-29652	1180	27312	25033	-31177	4648	-29852	-3028	-10176	8018	-32768	31113	-10420	-1312	392	7028	-12125	-240	135	134	1
-5808	-4776	14844	-2253	4636	1185	-16608	-300	-2256	-871	10675	3460	-15400	-1024	5008	249	2042	249	-32768	-3764	29248	23840	-32527	11658	-30488	-5000	-11016	3604	-32768	27780	-14060	3164	6816	13537	-13167	1503	126	140	1
-5776	-5084	14976	-2801	6323	1364	-16388	-12	-728	369	12595	4172	-16768	512	4304	174	1884	173	-32768	-3912	19048	15568	-32768	17106	-28572	-3904	-11788	-4138	-30478	21877	-14304	3420	7760	14737	-12713	1561	141	139	1
-5784	-5580	15228	-3205	9069	1917	-17100	-460	-2240	1493	14568	4863	-19696	112	3536	0	1334	113	-32768	-14664	-3452	8588	-26763	16649	-20024	-7132	-17272	-11392	-22335	16221	-13168	984	16112	-5791	-9414	8448	132	117	1
-5884	-6048	15012	-4011	13167	3185	-19356	80	-2052	262	16696	4878	-19712	-176	5232	-240	1065	176	-32768	-28516	-17464	17800	-16124	11418	-7672	-14032	-18084	-5562	-8663	8533	-17516	52	29796	-6780	-5099	2030	124	127	1
-6004	-4964	14376	-4002	18572	5044	-19332	716	-3152	-616	18782	5284	-18448	-832	4008	-325	739	206	-32768	-22776	-16928	-678	-3448	5043	-6384	-10096	-18436	-3044	5797	-1361	-18196	-1404	25368	-10538	-1225	-1398	125	127	1
-7516	-5588	14844	-4231	25073	6646	-21148	1368	-3860	-1076	20231	5986	-19448	-696	4040	-288	353	287	-32768	-26656	-6772	-14775	5034	-1483	-13396	-10392	-17848	-5788	17007	-11634	-17948	-1548	22724	-13095	-1012	-1055	128	120	1
-7396	-6432	13564	-5494	30188	8557	-22844	952	-1852	-1242	22204	5619	-20384	360	10600	-114	-578	515	-28108	-17248	6036	-10258	9784	-8284	-17788	-10092	-15864	-3100	25281	-16646	-8032	-4332	2736	-5590	8218	-3558	121	126	1
-7664	-7064	13420	-6723	32767	13580	-25212	644	2320	-3333	23996	4462	-20448	4136	21016	288	-1546	721	32767	-3708	25720	3774	4854	-14953	-32768	21656	32767	22667	5171	-11130	4600	-9780	-23836	7219	32767	-5828	124	131	1
-11396	-6972	16464	-8826	32767	19190	-31608	-1020	6584	-7977	25332	4551	-23072	7208	15160	-102	-1446	878	-17692	22520	-5808	-7222	32767	-22629	-16352	-17272	-3964	9643	9572	-5733	-32768	-8188	5664	-3258	-541	-3312	129	134	1
-22668	-12556	22536	-12310	32767	23634	-32768	-2096	1768	-12899	26135	5238	-24072	-160	6104	-1749	-1240	858	-14324	-9448	28408	1426	32767	-8419	-31372	16040	12	12983	17076	-6820	-28116	1660	4940	6482	-3639	851	135	150	1
-28112	-13116	24552	-16098	32767	28776	-29060	-1176	-7008	-17274	25381	5221	-21768	-8896	360	-3019	-1299	921	-32768	7864	26640	1490	27208	-9181	-21680	-960	-13452	-6336	17998	-11152	-17988	-10120	332	12720	7139	5362	143	104	1
-27592	-22028	24636	-18064	32767	28637	-26156	-5540	-8584	-24688	22256	3612	-24968	-16144	-7576	-3002	-1287	715	-15040	7388	17504	-4364	6377	-3146	-24388	-1016	-23008	-1813	19164	-8236	-23896	5908	-15424	30262	11292	2948	127	143	1
-24476	-21692	32767	-14777	32767	29319	-21200	-6920	-5192	-20845	15491	5934	-31744	-17056	-13000	-395	-1851	-91	-13616	11036	13348	-2692	2879	-3171	-12108	2768	-9892	3864	15707	-5584	-7840	15872	-8520	23117	6958	-490	131	133	1
-1808	-3328	23792	-10663	20570	20812	-14288	-8000	-22608	-7004	9956	10788	-29536	-8576	-13104	1964	-2225	-864	-6420	6744	12604	-3221	958	-2293	-13216	4328	-4916	11373	9875	-5116	-13648	16584	-11704	9548	8894	3808	136	126	1
-1656	-32768	32767	9668	-21847	-4567	-5800	-4120	-14428	7518	4200	10448	-28176	-1512	-8448	2327	-2618	-952	-9332	7064	13544	-3169	663	-2049	-15756	3404	-9516	7818	8389	-4916	-15504	10840	-8676	74	7777	-1749	139	101	1
-1092	-17904	14196	32767	-26943	-9618	-8332	-6416	-5532	8740	-4320	4744	-25376	-2416	-9504	1331	-2325	-1025	-6780	5564	12632	-3059	609	-1898	-20688	3308	-4928	5226	4510	-5062	-16920	3568	-7600	-1899	12506	123	141	112	1
3000	-5652	5744	29001	-29884	-13011	-5216	-1336	-6916	16011	-12278	2939	-21960	-4704	-10248	1147	-1971	-1316	-7804	4344	13652	-3233	1247	-1788	-19188	-360	-4680	1253	2711	-3259	-20092	-244	-5940	941	13579	-115	179	107	1
336	-5076	6556	17905	-31896	-15299	-5192	-1036	-6772	17966	-19431	3056	-19256	-3064	-12064	1728	-1735	-1600	-9064	4172	13868	-479	882	-359	-16708	584	-4520	1131	2804	-2357	-15948	2008	-3496	2825	14761	-399	150	129	1
-2376	-10200	8936	16198	-32768	-15489	-3800	-1756	-8232	18827	-24423	1597	-15304	504	-12064	2111	-1893	-1543	-7836	5088	13144	817	693	300	-16116	2480	-3624	1290	1918	-2208	-14528	2296	-1952	2506	15335	732	111	133	1
-6956	-11776	12312	18213	-32768	-16838	-3812	-280	-8488	20557	-29120	298	-12648	3024	-10840	2056	-1876	-1256	-7816	5156	12912	1382	378	514	-15408	2676	-3500	1962	1424	-2389	-14468	1428	136	4394	13600	1178	97	123	1
-8204	-11052	11276	17735	-32768	-19561	-6600	-168	-8036	19207	-32768	-634	-10320	3440	-10528	2025	-1717	-1001	-6788	5616	12596	1283	602	123	-19132	1004	-5300	6702	-2737	-1664	-16496	-2648	-120	11575	13506	-1348	108	122	1
-8408	-10128	8672	14356	-32768	-20771	-8756	1824	-6116	13497	-32768	-1701	-8440	3168	-10816	2257	-1562	-609	-7592	3920	13180	1534	735	262	-15572	0	-2368	9818	1092	-1937	-17148	748	376	15584	14353	1979	113	128	1
-11548	-10832	12004	8077	-32768	-20859	-11524	2552	-7724	9028	-32768	-4337	-5688	4176	-10912	2851	-1555	-282	-7792	5300	13108	1702	370	530	-17040	3792	-1844	9689	2124	-2573	-15240	2668	48	18472	17769	1749	112	115	1
-15228	-13104	15932	4147	-32768	-20803	-13620	392	-10036	6325	-32768	-8074	-5872	6296	-9840	3165	-1701	9	-7572	5820	12896	1519	301	340	-16896	5572	-2516	5752	1934	-2970	-14804	3640	-688	17146	18763	2340	117	122	1
-15980	-13656	17568	2733	-32768	-20894	-16132	136	-10524	8266	-32768	-8566	-6776	7592	-7536	2700	-1965	250	-7792	6224	12756	453	232	-302	-15896	3968	-1856	2442	2604	-4033	-14644	4064	-112	11241	18256	2324	123	118	1
-16100	-13656	18012	2581	-32768	-20878	-20252	2608	-12764	8061	-32768	-10909	-7288	7736	-5400	1882	-1610	541	-7440	5940	12472	-231	-333	-1147	-14440	3032	-392	1513	4256	-4143	-14308	3628	2100	6758	16440	1388	134	128	1
-25336	-16704	29596	584	-32768	-20940	-22884	4316	-14488	4033	-32768	-12683	-7376	7368	-4952	1752	-1518	551	-7428	5736	12872	-388	-284	-1315	-15220	3984	328	1724	6316	-4208	-14192	3392	4776	1700	16891	582	137	138	1
-29496	-11096	27576	1887	-32768	-23072	-25444	3120	-13124	777	-32768	-13683	-11704	-2968	2192	-50	-809	40	-6704	6684	12320	-1022	-140	-1748	-15508	6704	2044	-788	9095	-5521	-16600	3852	5856	-2216	17273	247	134	134	1
-32768	-11000	22548	3600	-32768	-23585	-25072	1892	-13972	-2536	-32768	-10270	-15816	-7080	3392	-201	-1226	-445	-6784	7280	12440	-1808	554	-3040	-15180	7112	1432	-4899	12238	-7026	-19784	6764	5856	-3070	15685	432	138	132	1
-32768	-11712	18084	11796	-32228	-22441	-27156	628	-18276	5568	-32768	-5717	-17632	-8688	15776	51	-2120	-1194	-6752	5444	13124	-1954	1372	-3582	-16840	4112	-4	-5785	15601	-8912	-22212	6320	3812	-902	12164	-1598	130	128	1
-32768	-15892	-5188	20199	-26019	-17197	-18500	488	-18960	6659	-25528	-1116	-13264	10952	20624	1628	-1585	-1200	-6448	6516	13236	-2342	3470	-4780	-18088	4732	-1412	-3543	17970	-10060	-18648	2736	4548	2530	9211	-1098	127	126	1
-32768	14572	-21392	-5565	-18772	-2529	-264	4904	-18240	9918	-10935	-2964	-14240	12432	30728	1086	440	594	-5640	3204	14440	-1016	7005	-5854	-19140	948	-3680	-1558	19659	-11664	-17328	160	468	3774	7239	-78	117	114	1
-32768	-10604	-24076	-13202	-5968	-346	-4972	6568	-18956	-6510	6802	-1032	-17864	5176	25248	-175	-265	505	-5388	11364	14312	-800	13037	-6319	-22736	-348	-5496	1814	20106	-11723	-19180	1636	-3032	7766	3847	189	130	124	1
-32768	-4660	-12260	8782	14346	3401	-11092	-1004	-18660	-9035	19183	557	-12496	-88	11160	-521	-174	230	-8888	5252	14936	-306	20024	-8553	-23004	1248	-6020	4446	21480	-11915	-20892	4448	-832	8585	-1283	-1708	129	122	1
-15348	-8996	32767	-6130	18105	7232	-25040	-5116	15604	-7476	20111	5124	-11992	-704	-2800	-155	885	451	-8616	4924	14664	-249	20992	-9019	-25056	1676	-5624	6894	22259	-11872	-20236	5664	5756	6981	-6321	-3225	135	120	1
14788	1776	1484	-6118	32767	25627	-32768	-1896	16540	14191	14575	-653	-32768	112	20592	244	840	-122	-8488	10364	15976	-6658	32767	-16766	-31052	7432	-1364	9190	22046	-10887	-26260	5356	14280	1558	-13655	-4312	107	123	1
-32720	-25492	29312	-11676	32767	5332	-16576	13656	-5200	14995	23370	6545	-7640	1208	12088	3131	2534	-369	-10524	7808	15944	-9376	32767	-27628	-32768	9776	2292	8747	25179	-9928	-22388	-1248	14556	-7490	-15345	-7507	123	124	1
-32768	-11528	32767	-1823	32767	12119	-24656	-2436	-18000	10736	21762	4423	-17136	6296	3608	1559	1630	-1424	-23276	14120	20544	-11257	32767	-32768	-32768	11100	4528	14060	24327	-8824	-27656	-4516	3544	8063	-12637	-9778	103	136	1
-7432	-5152	22784	9319	9671	5786	-21908	-728	-8504	13869	25029	-570	-23808	-200	-22568	-1567	1680	-917	-32768	1320	25812	-10921	32767	-32768	-32768	8096	-5424	20333	20886	-8483	-27036	5984	-9720	23327	-14928	-7124	150	136	1
-16008	-8196	22728	6098	3232	3578	-13188	3836	-19404	14079	17158	872	-12320	-3896	-16928	-3227	815	-269	-32768	11472	22548	1925	32767	-32768	-26416	-372	-5912	23650	15300	-11542	-27844	10152	-10768	19509	-15042	-2569	108	133	1
-6952	-6192	15368	3262	91	1298	-10560	8924	-10800	-6081	13129	-2767	-10568	-7976	-10784	-1925	1304	-660	-19324	18484	32767	-11755	32767	-32768	-16984	9564	-11140	21978	11757	-6766	-31772	5192	-9156	8412	-19741	2032	90	133	1
-7132	-5568	15028	1328	-603	184	-18144	3056	-9700	-23279	9601	-4176	-20424	-7152	-9040	-1571	1451	-884	-32768	22492	32767	4661	-1257	-22478	-10028	16	-18816	7245	11678	-4608	-28312	3252	-9244	1194	-19340	6612	97	116	1
-6140	-4732	14712	473	-331	23	-21260	-7404	-7104	-15722	7061	-4230	-21064	-5576	-4152	-1108	1534	-375	-1920	32767	28488	10818	-32768	6660	-15756	5072	9012	4544	-3469	-1948	-28768	3336	-10876	-4635	-21079	9290	128	129	1
-5160	-4804	14748	-232	420	55	-17756	-6924	-5048	5638	5563	911	-18352	-4040	-1568	-212	1997	202	9900	18584	5920	-3063	-32768	13199	-7272	5028	7692	1754	-11652	5932	-22472	1620	-11864	-4142	-17685	10239	111	85	1
-6372	-4276	14812	-1111	772	-174	-16072	140	-5220	12652	4698	2936	-14728	-3912	-1592	808	2212	262	3948	7700	7716	-2763	-28855	14535	-3568	6284	1592	-3708	-16254	10051	-17272	676	-13336	-5369	-18091	10147	94	86	1
-6428	-5016	14540	-1325	694	-171	-15448	3700	-4204	3868	4072	835	-14008	-808	-1192	953	2156	184	-3196	5704	14332	4409	-30527	15247	-3228	5424	-3824	-14713	-18242	13770	-13408	-108	-11144	-7382	-16287	9478	104	104	1
-6200	-5436	14252	-907	563	69	-14232	2940	-2868	-7728	3712	-1231	-15928	2784	312	-240	1864	-10	-8460	6092	16900	7514	-32768	15075	-6804	1224	-4376	-19958	-22532	16664	-11040	256	-12792	-10400	-16023	7948	99	129	1
-6336	-4996	14324	-336	327	297	-16228	-1404	-2488	-10353	3672	-2040	-16232	2328	1728	-1570	1783	-184	-9700	4448	14160	10826	-32768	17002	-10428	-3716	-3168	-14450	-29808	19493	-10532	1892	-13556	-13280	-14584	6742	116	147	1
-6124	-4840	14336	-10	249	440	-15048	-2224	-2344	-6395	4204	-1036	-15592	824	3592	-1860	1820	-214	-11052	3844	14024	13240	-32768	20007	-12420	-2856	-2616	-10234	-32768	22628	-7192	180	-13736	-16342	-14067	3761	117	153	1
-6148	-4768	14656	-187	327	638	-16512	-1308	-3524	-4883	4862	-510	-12960	-2304	7560	-1373	2752	-248	-13980	3420	17524	12377	-32768	21829	-14408	-616	-2856	-11441	-32768	24752	-3824	-640	-14360	-20771	-12712	1295	139	131	1
-6284	-5108	14444	-12	313	966	-17112	1456	-3140	-6637	5264	599	-14360	-4672	2912	-1317	3520	-154	-18324	1404	23452	11195	-32768	22735	-18152	-1160	-5992	-14512	-32768	25607	-2244	-384	-14868	-23334	-10087	280	138	127	1
-6404	-4712	14268	266	153	1293	-14100	-1232	-2364	-7096	6167	-445	-16792	-5160	-3304	-744	2698	-271	-21424	-1800	27196	15002	-32768	21797	-23300	-1852	-6880	-13199	-32768	26847	-2420	616	-14484	-22336	-8340	-874	149	135	1
-6216	-4740	13988	197	-130	924	-12924	-1864	-752	-5553	7863	785	-14984	-6128	1992	-296	1339	-142	-25932	-2032	31180	18969	-32768	18275	-29052	-2876	-7276	-9797	-32768	28327	-3016	-1244	-13632	-19061	-5565	-543	139	132	1
-4724	-5392	14192	116	451	1285	-16308	-3580	-400	49	9688	1913	-15936	-4232	6792	-149	1838	-54	-32768	3060	32767	20183	-32768	17829	-32768	-4316	-11376	-7818	-32768	31049	-6424	-4616	-8876	-15569	-4063	-82	145	130	1
-5980	-5528	14500	-227	1729	2116	-17924	-1820	-1260	1372	11452	2396	-18680	-2976	3824	28	2142	-56	-32768	756	32767	17834	-32768	25192	-32768	-3584	-17860	-11157	-32768	28096	-13728	976	-60	-10665	-8393	2593	142	132	1
-4496	-5004	14668	-1105	3713	2831	-16876	-688	880	-711	13821	2491	-20440	-1904	6344	-201	1639	-77	-32768	-812	14184	7338	-32768	29625	-32768	-2256	-20388	-19168	-32768	22050	-29076	1096	18468	-8489	-24608	4319	130	121	1
-5220	-5496	15412	-2737	6416	3236	-17728	-1376	1792	-1955	17118	3390	-19856	1712	10640	-641	1326	-113	-32768	-23480	-21512	9322	-28089	25605	-18284	-10608	-26676	-24310	-21857	15184	-17476	-25912	31476	-14083	-18096	-2811	123	106	1
-6092	-3948	15328	-5663	11321	2773	-19776	2564	656	-818	20790	4636	-20504	3280	7936	-859	925	-122	-32768	-31880	-32768	14285	-7202	15017	-3072	-11976	-32768	-12076	548	4554	-14480	-10124	32767	2508	5886	1870	120	131	1
-6896	-4552	15928	-9832	16998	2758	-19936	-272	-3348	-138	23715	5585	-17688	-3400	5728	-1113	458	87	-32768	-29096	-25776	-8471	5988	4914	-4768	-13816	-28632	1184	17354	-7212	-23764	4228	19560	-337	1688	2035	117	130	1
-5132	-5256	14488	-12135	26174	5186	-23128	-700	-3584	-1204	25825	6286	-21328	-5864	6776	-1172	-136	342	21032	-18468	-1784	-3901	32767	-11879	-32768	18940	30744	19134	16416	-12478	-17016	-1068	-8136	1812	9192	914	112	116	1
-3808	-8036	14532	-14154	32767	10468	-28100	-372	-1120	-5898	27609	5124	-24104	-5744	15728	-789	-1347	671	-28564	13776	7004	-10230	32767	-18873	-31284	-22112	-12744	1235	21394	-10339	-32768	-1880	19516	3507	-6364	2296	126	144	1
-7224	-8076	16832	-17324	32767	15117	-32768	-1432	6872	-8366	28877	4011	-27960	208	17072	74	-1968	1029	-32424	-13492	32767	-553	31869	-8438	-32768	248	-4404	4191	27209	-13442	5236	-9668	-2944	-12475	17444	-2369	120	164	1
-14052	-11620	24424	-21673	32767	22416	-32768	-2680	8392	-13966	28032	5554	-30776	2768	13432	-323	-2211	1153	-12848	13012	11588	1300	22886	-6890	-18224	3620	-10180	7330	25510	-11077	-1920	1976	-22632	23333	11201	407	146	135	1
-32768	-16932	31424	-27429	32767	27598	-31820	-4544	-6956	-19980	28202	6772	-25408	-2424	-5192	-1546	-1903	1044	-32096	12276	23928	-12257	11468	-7360	-224	7848	-24676	-9777	22248	-6487	-10860	15816	-17828	15243	613	3656	158	188	1
-30456	-24780	21800	-28207	32767	27928	-25736	-2648	-13092	-24957	24856	4944	-25264	-7240	-9168	-1798	-2661	276	-10424	10840	14476	-5322	-1282	-3926	-22784	-7488	-13580	-3318	18298	-10800	-11360	11684	-16008	1869	10407	3359	134	69	1
-9916	-18724	28688	-29045	32767	29915	-21516	-840	-1676	-14259	12559	5629	-32768	-4848	-7208	-451	-2743	-312	-8700	-1792	16224	-2834	-1083	-2401	-23636	-7804	-4180	8544	10835	-5008	-22636	3552	-12228	-471	11471	10445	126	89	1
-32768	-32768	32767	-26018	32767	24523	-13640	-5300	-14444	-8613	9399	4923	-31536	-976	-6944	-609	-2570	-561	-7380	4304	13948	-2121	-407	-1594	-18568	1388	-5348	14313	10051	-1756	-25856	2000	-6392	4897	9316	2433	149	121	1
-8460	-32768	32767	5080	-14980	436	-5436	2520	-17444	3254	2917	-519	-25680	1536	-5488	115	-2815	-819	-6804	3252	13960	-1124	483	-1199	-17300	6252	-3568	6373	9404	-2714	-13708	2136	-2340	5861	12640	-1280	148	124	1
-3408	-17456	21332	25091	-32148	-11577	-9480	1476	-3088	-423	-4003	-2280	-25704	-2624	-8872	-172	-2319	-995	-7192	3964	13816	-440	976	-921	-16860	4724	-3816	-4849	7918	-3437	-16800	9932	-8480	-2087	10215	-2456	164	116	1
1268	-3288	7512	23178	-32768	-13057	-6008	-1116	-2484	2230	-13451	-5138	-21552	-3344	-9752	170	-2168	-1162	-8252	4020	13800	-112	1272	-851	-16436	984	-6252	-5662	6749	-3473	-17476	5352	-6020	-730	15487	215	162	102	1
1620	1784	3836	11202	-32768	-12865	-3240	-792	-3592	7341	-18420	-5726	-16144	856	-10208	522	-2220	-1011	-7972	4620	13468	-72	1288	-1019	-17344	356	-4672	-61	4920	-2705	-16032	3664	-3908	-739	15793	1382	97	113	1
-1916	-2420	7436	3400	-32768	-12527	-1812	1532	-5092	12950	-23594	-7369	-13288	2312	-10104	490	-2198	-702	-7896	4284	13404	-315	1270	-1180	-16460	796	-3256	5467	3993	-1439	-14976	-1096	-1040	5273	16026	2914	99	104	1
-5872	-8024	12184	7605	-32768	-12235	-3008	2516	-6928	11188	-28265	-8955	-10848	1776	-12184	649	-2015	-610	-7700	3884	13380	-302	1229	-1212	-16100	2256	-2528	6174	4165	-1219	-16688	-584	-1572	11721	16021	3041	108	123	1
-8844	-7932	14268	11840	-32768	-14456	-5696	3056	-6140	10396	-32768	-9542	-8144	-240	-11216	851	-1806	-595	-7368	4012	13472	-250	1408	-1360	-15360	4364	-3292	2999	5782	-1557	-16076	732	-1412	15438	16532	2586	109	110	1
-10996	-6896	14204	10178	-32768	-18630	-7672	4732	-5972	6659	-32768	-8913	-5176	-864	-11680	1281	-1583	-454	-7960	3812	13348	-160	1557	-1674	-17172	1648	-4340	1254	5100	-2048	-15264	2808	52	14124	20303	3368	120	115	1
-12180	-8012	14348	8465	-32768	-20750	-8920	2136	-5928	3873	-32768	-9666	-2464	-360	-12264	1850	-1356	-279	-8180	3644	13324	-4	1520	-1522	-17492	408	-4088	3483	5017	-1882	-13980	2556	1128	12421	23844	3976	124	130	1
-15108	-9400	16316	7681	-32768	-20646	-11752	-196	-7584	6925	-32768	-11244	-2664	160	-13120	2291	-1074	-176	-7688	3668	13392	-168	1480	-1649	-15472	2296	-2048	5571	5568	-1857	-13856	3336	-416	7311	22120	3316	119	143	1
-17996	-8992	18332	3035	-32768	-20877	-15148	592	-9732	11359	-32768	-10246	-3824	-120	-14240	2578	-816	-156	-7188	3928	13400	-114	1989	-2083	-14648	3996	-2152	3646	7028	-2695	-16988	5580	-4644	3559	13837	1501	126	142	1
-22440	-16652	24988	596	-32768	-21359	-20540	3640	-12540	12799	-32768	-8207	-5544	2248	-10008	2706	-819	-95	-7272	3888	13472	-123	2163	-2206	-17004	1536	-3356	1369	8334	-3500	-17016	5888	136	3883	12234	225	138	132	1
-31344	-31212	32767	8330	-32768	-23685	-32108	1352	-17920	10645	-32768	-11278	-7592	4792	-3720	2515	-981	-118	-7788	3564	13216	-19	3617	-1878	-17592	2364	-3100	1623	9101	-4378	-15572	4132	1760	3072	15524	-57	136	125	1
-32768	-27644	25440	12654	-32768	-32414	-31680	3272	-22748	13473	-32768	-12572	-14800	-1296	288	1869	-982	-302	-7680	4676	13600	-145	5423	-2349	-17360	4384	-2108	3161	10081	-5261	-18416	5356	1344	3086	14115	56	135	124	1
-32768	-18412	17096	3958	-32768	-32768	-26216	192	-19520	-930	-32768	-7791	-25008	-4368	20728	1011	-2202	-585	-7876	3828	13744	-492	7531	-3020	-17148	3144	-1708	3587	12357	-6838	-18876	3684	4236	3511	11691	-96	121	121	1
-32768	-12940	-6696	15047	-30558	-26604	-25204	-7344	-14944	3364	-31752	-6599	-18360	13320	29312	798	-3005	-885	-8068	4856	14040	-765	11009	-3745	-19004	4348	-2268	2440	14738	-8503	-18912	1476	4512	4209	10616	529	120	127	1
-32768	15144	-28312	-5308	-22902	-5279	-2416	4356	-23196	-1962	-11964	-7646	-12120	9208	32767	1069	942	-61	-7576	4400	13988	-1549	16280	-5654	-20988	2976	-2676	2994	16857	-9673	-20992	3792	2888	6897	6539	-353	131	125	1
-32768	-400	-32768	-16373	-9422	8479	3292	2080	-21232	-10411	11061	-3245	-16408	4240	31744	-416	303	-156	-8588	4432	14476	-2414	23958	-7858	-23048	2648	-4864	4338	18692	-10472	-21272	5188	1432	8167	2351	-255	107	123	1
-32768	4052	-8632	14833	32767	19242	-16008	684	-1444	-10775	24085	1522	-14024	2528	6080	-723	-25	161	-9044	4572	14208	-3455	31116	-11696	-24820	3220	-3552	6754	19803	-10283	-22088	5136	6540	7691	-3884	-2269	119	118	1
13992	-3836	32767	578	32767	22366	-32768	-2844	32767	15801	8899	291	-27344	5216	11696	-447	467	-16	-8964	5384	15220	-4472	32767	-15976	-29524	4944	636	10065	20381	-9798	-25696	5188	15292	3902	-13876	-3727	131	124	1
-32768	-17808	27072	-12222	32767	6900	-14712	22128	-2660	23794	26902	6870	-27616	10784	32767	3456	560	-568	-11924	7384	14788	-6558	32767	-22588	-32768	10532	6600	11864	22416	-9695	-22600	-1516	12972	-3362	-16374	-5854	139	125	1
-32768	-15256	30628	-2809	29956	9792	-27336	-1044	-22772	15294	27952	6571	-4792	10016	-7536	2439	2942	-941	-20692	7164	14512	-6071	32767	-29537	-32768	8700	5992	13911	21785	-11043	-24448	-3220	5728	4321	-14749	-7277	111	121	1
-9244	-5444	22044	7354	12289	5584	-21656	-5028	-10404	17797	27590	1320	-23120	-3128	-32768	-3345	1262	-1272	-32768	10692	32767	-4094	32767	-31628	-31076	5440	-9636	15299	21284	-10868	-24224	4016	-5432	14968	-15300	-7895	187	145	1
-16024	-12756	15676	8679	327	4050	-2552	288	-25176	10485	19876	541	-5920	-15312	-19864	-3990	-88	448	-32768	12616	31884	1787	32767	-29710	-26912	2660	-5464	18262	16375	-12555	-26284	8336	-12684	18146	-16588	-5223	99	127	1
-8116	-2068	16992	5715	-883	2165	-10356	5592	-15372	-6319	13609	-1723	-9384	-8024	-12552	-192	1084	-744	-24704	15104	32767	-4989	32767	-32768	-19664	3596	-9344	15105	13169	-10132	-30340	8324	-10296	6194	-19938	123	68	124	1
-5172	-5624	15180	2100	-1057	151	-22916	7768	-9372	-21240	9964	-4639	-27448	-3784	-9952	-204	1382	-1352	-32768	23856	32767	-1978	7129	-24467	-13476	4852	-19160	7357	10465	-5982	-29532	3448	-8808	3650	-19882	4684	106	128	1
-5688	-4100	15408	941	-978	-129	-24136	-4332	-7848	-23175	7360	-4429	-25992	1024	-3280	-1115	1230	-350	-13592	25196	32767	3463	-32529	-409	-15832	1320	-704	-1180	1950	-4853	-30284	6368	-11444	-4986	-20547	7384	117	139	1
-4980	-5176	15092	-368	-257	-293	-16352	-9036	-5556	2742	6188	-159	-14048	-392	560	-1026	1649	221	700	15924	12016	-6261	-32768	7757	-10112	1632	2176	-130	-9650	673	-26660	3696	-12632	-6532	-18209	8811	101	128	1
-5576	-5028	14792	-1774	1	-865	-14248	-1456	-5564	14343	5291	2280	-12000	-5696	-792	-405	1846	360	1908	6484	6852	-11509	-32768	6357	-6244	4200	-628	-2892	-15010	5756	-20524	1132	-12948	-7008	-17148	9738	104	83	1
-5124	-5904	14640	-2231	39	-881	-15432	1656	-4840	6098	4175	1180	-14648	-6400	-1024	83	1979	76	-4180	3184	11144	-2990	-32768	6737	-3864	3552	-4852	-13045	-17934	8491	-16600	1528	-12988	-7429	-17063	9857	99	116	1
-4740	-6716	14288	-1534	-25	-456	-15268	1592	-3452	-8483	3526	-1316	-15512	-2056	1040	-436	1774	-107	-10516	7124	14912	2718	-32768	8393	-6888	188	-6972	-19373	-22960	10965	-13732	3064	-13240	-14594	-16491	7429	108	103	1
-4756	-5920	14540	-900	43	80	-15260	240	-2300	-17213	3166	-2634	-16936	-64	1360	-1602	1705	-94	-8868	6460	9772	5709	-32768	11704	-9040	-1916	-3104	-19562	-27258	15596	-11916	3292	-14376	-14601	-17637	6087	131	135	1
-4900	-5852	14532	-686	202	114	-17980	-6388	-2904	-11157	2662	-1503	-16824	-1312	712	-2109	1670	63	-11496	7140	10200	8026	-32768	16084	-11872	-1676	-5004	-9924	-32768	14904	-8740	1840	-14240	-17190	-17199	5427	135	156	1
-5424	-5416	14656	-867	363	158	-15284	-2872	-2968	-1859	3035	1082	-15496	-3184	3288	-1328	1811	170	-15792	6348	14624	7673	-32768	20017	-11552	1336	-5976	-13213	-32768	17610	-5248	-2180	-13800	-23487	-16808	1845	127	147	1
-5324	-5896	14500	-1095	282	56	-16308	-180	-2776	-2733	4057	1132	-13824	-2552	8632	-493	2485	-86	-19120	5140	18096	7806	-32768	23234	-14240	388	-6580	-17313	-32768	20454	-3116	-2300	-12968	-25726	-15413	-537	120	138	1
-4836	-6032	14408	-943	66	285	-15616	476	-1808	-7708	4730	153	-13032	-3408	6928	-1121	3391	-47	-20544	2460	20128	8974	-32768	24276	-18156	1224	-7376	-19025	-32768	21166	-3028	-2320	-13088	-24574	-12085	-1451	120	122	1
-4628	-5456	14888	-587	213	957	-15196	-1212	-1812	-8192	5654	-11	-17088	-2632	-2464	-1102	2901	-92	-22288	-944	23952	12161	-32768	22346	-22984	-176	-8580	-18192	-32768	22635	-2736	-2784	-11932	-19380	-7120	-1520	138	131	1
-5816	-5884	14624	-1146	578	685	-15948	-1244	-1932	-3854	7036	1008	-18336	-3928	-1016	-125	1403	-16	-26300	-28	26504	16380	-32768	19315	-28240	-2476	-8424	-14275	-32768	24557	-3476	-3672	-9896	-13589	-2167	-880	146	134	1
-5684	-5956	14464	-1544	930	388	-15524	-1200	-1328	-73	8717	1802	-15184	-6584	5448	42	1694	126	-32768	-3312	32076	18604	-32768	20026	-32768	-3992	-14708	-8351	-32768	25962	-5196	-2740	-5120	-10168	999	-871	137	126	1
-5284	-7256	13984	-1292	1522	926	-15800	-3100	-440	1086	10448	2169	-15952	-3528	6888	104	2056	121	-32768	-8260	28916	15569	-32768	19061	-32768	-2468	-19900	-4968	-32768	24529	-15732	2480	6548	-5420	-10664	3198	134	139	1
-4568	-6284	14628	-1311	2296	1862	-15500	-2344	384	1545	13047	2766	-17704	-168	7152	81	1705	-85	-32768	-8880	8556	6607	-32768	16290	-31204	-2264	-24896	-11145	-32768	18362	-29560	1864	16968	-3502	-22973	7009	139	124	1
-3996	-4904	15180	-3042	4614	1992	-15448	-2012	284	1649	13483	2948	-19744	1168	7792	-210	1447	-162	-32768	-26148	-22704	12897	-29035	7491	-12968	-9464	-31472	-10658	-19397	13678	-17316	-26656	24428	-8379	-14232	-1800	135	108	1
-2540	-7288	15284	-5535	8949	2304	-20640	364	-1308	1167	18692	4027	-21344	1656	5944	-774	1128	-17	-32768	-28304	-32768	21363	-11034	-148	-5424	-13116	-29428	7739	-1406	4851	-12240	-3884	32767	13298	934	-744	119	122	1
-5396	-5068	14840	-9462	14488	2018	-20516	208	-936	1079	19041	4037	-18176	-2160	3816	-966	632	50	-32768	-21268	-26288	-4522	4089	-6572	-9024	-10452	-25432	15053	13143	-4573	-24064	6252	16404	9556	4197	1481	115	125	1
-1716	-6204	15676	-12539	21721	3826	-21116	-428	-3516	-1514	23063	5599	-19136	-3168	3936	-1237	290	288	-25208	-31728	14652	-10552	20418	-7694	-21056	4648	4788	18644	22770	-14769	-12668	540	-1116	5620	5323	348	116	127	1
-4540	-9688	15056	-13417	30126	7478	-23820	1808	-4224	-5663	24142	4258	-21976	-1896	9208	-1017	-718	566	23516	14048	-5372	-9752	32767	-25866	-32768	15488	25892	14761	11776	-3486	-31660	-3760	4712	3486	5754	334	123	132	1
-4096	-8288	13396	-16374	32767	10278	-31484	676	144	-7807	25339	3845	-26920	-240	14280	-539	-1461	749	-32768	7572	32767	-1094	32767	-1797	-20684	-7548	-12580	-8431	20062	-16716	-32768	-7156	20656	-21017	1060	-4667	122	158	1
-4764	-7132	13980	-20689	32767	15550	-32768	-152	8296	-9939	26242	3071	-24680	5152	15608	-180	-1875	1150	-17844	-5044	25720	179	25781	-10196	-28192	-4620	-3300	5597	26259	-10755	-2208	5720	-5812	5490	15486	-648	123	129	1
-20332	-15264	25124	-25910	32767	19524	-32768	-3548	5452	-18022	25191	4587	-27240	1128	11624	-885	-1840	1204	-16216	23384	12996	-3397	21205	-6392	-11260	15544	-7080	-3432	17787	-8032	-12284	5296	-16372	10086	12420	5912	147	156	1
-32768	-21684	27520	-25711	32767	27807	-24880	-6040	-13104	-19753	27153	5248	-20312	-9984	-6912	-2382	-1741	861	-17964	-6216	16236	-6692	3467	-5157	-10492	-5540	-20532	-7530	19812	-7831	-9236	13944	-7456	6557	2458	2111	147	187	1
-27968	-24864	24040	-32768	32767	22592	-27012	-216	-14212	-18632	22550	3860	-26368	-12384	-9184	-1650	-2321	95	-10536	4656	13032	-3913	-422	-2308	-26340	-5320	-10984	2670	15311	-7601	-17900	200	-10372	684	11991	5371	128	92	1
-13116	-25660	31224	-32768	32767	25151	-21104	-2836	-5280	-9254	13944	7758	-32768	-4480	-5656	-53	-2467	-436	-7764	3132	13640	-1121	101	-1395	-19948	-4536	-3712	10622	11310	-4597	-19008	3744	-8444	13426	11070	7456	132	107	1
-26316	-11948	30684	-22213	24449	22279	-14000	-7268	-9052	-6272	10456	7571	-29704	-2592	-6472	9	-2441	-653	-8360	2932	13980	-356	624	-1277	-14108	4012	-4560	11656	9825	-2279	-19584	7524	-7232	13299	10999	1711	160	101	1
-5664	-30940	32767	4382	-16040	6317	-6856	-944	-18044	1623	3268	2724	-24768	-1400	-4824	624	-2551	-795	-7828	2928	13952	-300	920	-1076	-16428	6068	-4024	1675	8662	-2700	-12876	6984	-4152	5869	12993	319	146	120	1
2492	-16204	20288	23876	-28329	-272	-9164	-2028	-1908	-384	-4070	-392	-24496	-1608	-7680	135	-2098	-825	-7308	3632	13516	-363	1178	-850	-17460	3552	-4404	-5904	7393	-3856	-15784	5564	-4512	-2934	15391	-86	164	117	1
3040	-6760	11796	25603	-31619	-808	-5544	-560	-2608	3368	-12448	-3476	-20360	-2224	-8600	527	-2046	-971	-8120	4072	13940	-847	772	-785	-17012	388	-5244	-6654	5769	-3465	-17108	1764	-4936	-4291	14214	940	140	127	1
1184	-2828	8360	15500	-32768	-2855	-5200	-428	-2684	4098	-13336	-3765	-14800	2232	-8984	786	-2136	-823	-8208	3364	13696	-537	569	-750	-17220	-1548	-4940	685	4626	-2235	-15100	-932	-1684	-271	16101	2311	118	112	1
-756	-5948	8952	6045	-32768	-6247	-3340	2024	-4988	8746	-23234	-5171	-13640	1120	-8696	581	-2088	-658	-7872	3328	13676	1	610	-601	-16728	-324	-2720	5689	3849	-723	-15196	-3120	-256	8110	15485	3096	128	108	1
-3376	-10796	10212	6740	-32768	-9219	-4508	2004	-5584	5026	-28052	-6581	-11744	1120	-10872	905	-1957	-596	-7600	3472	13364	382	686	-413	-16544	80	-2484	6188	3878	-562	-16308	-1032	332	16206	14175	949	105	120	1
-6860	-12472	11612	11891	-32768	-12401	-3860	-1252	-6840	5947	-32768	-7935	-11192	1272	-10472	901	-1949	-572	-7240	3872	13436	556	824	-366	-13856	4252	308	5687	6005	-1012	-13860	3200	124	17187	14028	2613	110	128	1
-9656	-10024	12696	12954	-32768	-16585	-6276	2380	-6280	4385	-32768	-8895	-6304	-1024	-10360	1067	-1541	-364	-7904	3544	13372	671	783	-483	-14700	5008	-1316	4965	6762	-1256	-14232	4372	1436	12635	16161	2161	117	125	1
-11284	-9852	13952	9870	-32768	-19862	-9832	1348	-5800	3640	-32768	-10035	-4848	-1120	-11152	1596	-1337	-318	-7748	3768	13316	560	712	-710	-16628	2320	-3788	1367	6723	-3254	-14724	4192	2080	8511	20237	4861	117	130	1
-14420	-11716	17536	9256	-32768	-20552	-12644	-408	-7804	6260	-32768	-11308	-4776	1480	-11784	2105	-1107	-171	-7388	3936	13384	116	622	-1300	-16732	1572	-3192	3766	6889	-2687	-15240	4296	248	9190	22454	2946	111	128	1
-17996	-12888	20604	8642	-32768	-21192	-15892	-184	-9208	11954	-32768	-11353	-5600	392	-12840	2187	-949	-92	-7448	3892	13412	53	1164	-1737	-17244	2216	-3020	4085	7499	-2979	-16712	5504	-5708	6580	19256	513	127	130	1
-20804	-16020	24044	7227	-32768	-21545	-19924	1676	-10560	14804	-32768	-10471	-5904	2304	-12264	2268	-558	-71	-7668	3972	13516	-403	1847	-2307	-16304	3624	-3760	1938	8712	-3564	-16368	6424	-4300	3023	13720	-504	130	135	1
-26456	-27044	30808	10664	-32768	-23385	-29180	1436	-13204	14964	-32768	-11023	-7408	4696	-5720	2037	-656	-36	-7752	3820	12972	-619	2427	-2629	-16448	2552	-3844	1274	9269	-4324	-14508	5648	160	949	14544	-731	141	127	1
-32768	-30336	27556	17863	-32768	-30243	-32768	2072	-20572	25124	-32768	-12333	-14608	-5056	5480	1788	-1961	-330	-6280	4060	13612	-483	4248	-3234	-17224	4556	-1956	2492	10031	-5314	-16984	4764	2132	1122	14355	187	144	127	1
-32768	-19296	21056	7039	-32768	-32768	-29704	6892	-21272	7905	-32768	-4570	-28120	-5776	17440	1614	-2537	-723	-6936	3268	14164	-1290	7581	-4022	-19056	2568	-1560	3023	11867	-6310	-21132	2564	3776	1887	12962	598	144	127	1
-32768	-12448	-348	17151	-32224	-30933	-27860	-5380	-14960	-3515	-32768	-2237	-14680	13568	23800	1800	-2263	-961	-7048	3408	14284	-503	11809	-3853	-20484	2864	-1828	3156	13991	-8090	-20676	1124	3536	3557	11614	187	126	127	1
-32768	10864	-26904	3902	-25596	-4753	-2276	-484	-24296	-1943	-15046	-6126	-12544	16048	32767	1116	534	-20	-7604	4088	14888	-559	17021	-4943	-21128	2856	-1736	3605	16341	-9127	-21860	2792	3160	5640	7647	-274	139	126	1
-32768	420	-32768	-23706	-18238	11317	2764	2736	-19908	-11449	7852	-4443	-21152	4312	32767	-1086	-138	183	-8924	5188	14868	-1380	24691	-6975	-22676	4020	-3408	3976	18497	-10308	-22524	4848	3636	7820	3125	171	123	131	1
14552	-32768	-32768	10481	20844	14560	-9308	-5460	-10004	-20496	25172	-2196	-11680	8	10880	-1082	56	128	-9124	5980	14948	-2963	32767	-11493	-25500	4488	-2004	6529	20319	-10533	-24068	4508	7820	8699	-3394	-1826	110	116	1
18584	-4872	32767	-4503	32767	11046	-32768	-1872	32767	131	10998	2779	-18152	-1368	-184	-844	1051	-373	-8620	5884	14464	-4179	32767	-16533	-29764	5472	520	10644	20958	-9552	-26180	4920	17460	5859	-15292	-3074	114	117	1
-29900	-14264	17116	-12802	32767	4837	-20408	7148	-15372	32172	25999	6924	-32768	160	31808	2564	241	-1458	-10164	8888	14524	-7515	32767	-23837	-32768	12720	9356	13335	22364	-9243	-23740	-2376	14148	-4174	-16963	-5760	116	118	1
-32768	8096	32767	-3939	29666	11299	-21232	6432	-18724	19161	28306	7089	-9472	11416	-12640	3940	3008	-510	-25372	8316	18516	-6497	32767	-31584	-32768	9448	6404	16418	22054	-9992	-25992	-4896	7000	7183	-15882	-8015	125	133	1
-25744	-32768	21768	3851	15083	5308	-20476	-7964	-15796	14764	27060	1697	-19008	4456	-18872	-1827	1029	-287	-32768	8564	32767	-3677	32767	-32160	-32696	6008	-9076	18671	20560	-10587	-25136	2984	-6488	21007	-17614	-7115	163	145	1
-17424	240	24956	9027	2700	5335	-9364	1968	-23152	17420	20064	-1804	-10616	-11976	-14144	-3039	107	300	-32768	13864	32248	406	32767	-28717	-27052	6824	392	23383	16474	-11807	-26776	9112	-12216	23341	-19161	-4158	98	138	1
-6412	-3888	18940	6157	-272	2284	-11904	4452	-11400	-9490	17322	-1513	-6784	-4512	-9136	-880	1066	-709	-25440	20876	32767	-6358	32767	-32768	-17388	6464	-11480	15098	13295	-8620	-31260	9752	-8728	6798	-20942	2366	86	129	1
-5900	-4564	15392	2116	-133	1056	-18648	13208	-9688	-29213	13872	-6020	-22552	-2288	-10016	-1454	1317	-1154	-23032	31148	32767	14105	-22839	-11804	-12724	-1364	-16552	3488	13721	-7028	-29700	4272	-9156	-2108	-20117	6342	100	136	1
-6780	-4732	15460	626	-297	-20	-20840	-9588	-7640	-24742	9902	-5742	-23920	-3712	-4664	-1973	1141	-408	1448	23680	19084	4106	-32768	1780	-14520	6772	5808	5900	-5452	1079	-31404	1796	-12248	-4307	-20380	7338	144	126	1
-4876	-5064	14768	-706	423	-154	-16184	-12624	-6984	9706	8692	1430	-18192	-6008	-1912	-1105	1743	223	5436	12812	7740	-1137	-32768	8339	-8896	516	2948	171	-10836	5341	-23912	1000	-13492	-3193	-19281	9174	108	107	1
