#Activity	walking 
#ActivityID	1 
#Date 09-23-17-53
acc_rf_x	acc_rf_y	acc_rf_z	gyro_rf_x	gyro_rf_y	gyro_rf_z	acc_rs_x	acc_rs_y	acc_rs_z	gyro_rs_x	gyro_rs_y	gyro_rs_z	acc_rt_x	acc_rt_y	acc_rt_z	gyro_rt_x	gyro_rt_y	gyro_rt_z	acc_lf_x	acc_lf_y	acc_lf_z	gyro_lf_x	gyro_lf_y	gyro_lf_z	acc_ls_x	acc_ls_y	acc_ls_z	gyro_ls_x	gyro_ls_y	gyro_ls_z	acc_lt_x	acc_lt_y	acc_lt_z	gyro_lt_x	gyro_lt_y	gyro_lt_z	EMG_r	EMG_l	act
-11164	1164	18780	-2260	-4035	-2430	-12408	5544	-3208	48	-4185	-1553	-9064	1536	-7424	1692	-1458	-116	-7936	1872	14512	-152	-116	-811	-16440	3544	-504	1117	488	251	-15496	6280	3304	389	2092	-606	122	137	1
-11740	1660	19256	-2294	-4068	-2432	-13976	5272	-5736	-183	-4488	-1653	-6744	2096	-7968	1984	-1197	31	-7848	2008	14632	-185	-124	-1128	-16520	2896	-112	790	528	198	-15472	5000	5040	-228	2195	-232	121	137	1
-15456	1952	18872	-2772	-4134	-2389	-16688	2992	-5512	-289	-4697	-1702	-5736	2640	-8400	1873	-870	90	-7840	2040	14360	-112	180	-1418	-16400	1360	0	553	555	158	-17472	2200	224	-593	2047	-258	122	139	1
-19092	-2920	20632	-2548	-3943	-2378	-19736	1288	-7256	269	-4873	-1899	-6896	3728	-7304	1508	-489	4	-7880	1752	14600	61	610	-1570	-16072	840	-440	566	795	241	-18400	3096	744	-604	1573	-324	122	135	1
-24144	-7904	25204	-2530	-3798	-2822	-23856	1104	-10968	1259	-5149	-2020	-6864	5064	-5512	1008	-98	-32	-7584	1632	14472	231	1311	-1496	-16968	1664	-896	194	866	207	-17864	3744	2080	-514	1362	-330	122	130	1
-31124	-10808	26636	-2621	-3729	-3880	-26048	2544	-13440	2429	-5373	-1733	-7576	4624	-2952	215	225	-78	-8000	1304	14416	413	2087	-1596	-18024	1656	-2192	-343	948	174	-17128	-256	536	-262	1349	-284	123	132	1
-32768	-2464	24344	-2445	-3474	-4822	-27592	5656	-14888	2478	-5338	-1151	-10560	768	880	-639	391	-117	-8632	1352	14704	579	2602	-1416	-17288	912	-2960	-342	1111	146	-15952	-1128	-296	-5	1344	-210	127	134	1
-32768	8532	26904	-2343	-3197	-4921	-28480	5616	-17480	1418	-4960	-720	-11184	376	1208	-737	400	-137	-7960	1056	14800	1124	3684	-1425	-17776	1272	-1632	8	1202	196	-17000	336	488	174	1347	-199	128	140	1
-32768	17436	17844	-1611	-3158	-4049	-25832	3408	-18656	649	-4376	-668	-21392	-1248	14880	304	-48	-524	-8544	2200	14280	1600	5330	-2244	-19104	2576	-944	122	1337	256	-18808	1320	1968	459	1271	-106	129	141	1
-32768	32767	7248	-1615	-2616	-1955	-17616	6696	-23992	-908	-3462	-595	-20328	-5480	22552	1079	95	-1312	-8504	2376	14616	749	7124	-2990	-19304	392	-1144	-20	1513	212	-19400	2448	1952	669	1011	43	137	144	1
-32768	32767	-3616	-3460	-2371	742	-7760	6344	-31344	-2746	-1506	-798	-18840	-2440	32767	-342	115	-706	-8824	1288	14448	728	9862	-3349	-19240	376	-2000	-168	1732	190	-18632	3760	1600	745	776	-110	148	144	1
-32768	32767	-29052	-1109	-1217	2314	-4936	-624	-23832	-2706	760	-289	-21392	3272	32048	-1379	-270	868	-11064	968	14960	-608	12259	-3444	-19400	672	-2736	-423	1906	171	-18328	5056	952	648	740	-360	149	144	1
-32768	14756	-9688	2829	227	3670	-15936	-5376	-18208	-834	2048	261	-17648	-232	4592	174	608	619	-10048	1256	14232	-2841	15083	-3216	-19904	1512	-1872	-497	2097	129	-18576	6336	1784	634	517	-533	142	160	1
-5212	-30068	27560	3605	515	2674	-24736	-2832	20880	228	1735	323	-11048	-2616	-5928	-1904	761	-2	-9832	1608	14168	-4983	18767	-3846	-23272	856	-1304	-287	2253	170	-21496	3440	4072	428	153	-482	129	161	1
68	-20872	-9036	3080	2659	274	-31928	10320	11344	3484	1277	140	-21016	-3704	-7136	-938	1270	71	-10024	2736	14928	-8165	23934	-6152	-27416	88	976	260	2392	247	-24184	2048	9136	522	-464	-467	115	156	1
-15200	31496	32767	2369	3807	-784	-24856	16544	-4496	3131	1817	325	-32768	-16744	21752	4581	-1953	-1268	-11464	4888	20376	-13502	31552	-9250	-30880	-624	6728	1247	2585	275	-25840	4168	13848	818	-1685	-553	108	146	1
-4508	32596	32767	358	2623	1340	-25992	17480	-4232	2278	2305	934	-10672	10128	7680	3308	895	-873	-13400	5096	17984	-19706	32767	-15483	-32768	2120	13040	2142	2762	339	-28144	1600	17704	1742	-2876	-358	131	111	1
-16880	-32768	2532	231	2702	533	-14456	-2024	-4408	-840	2437	931	-16640	32767	-20744	-679	2128	865	-24560	1416	32767	-25495	32767	-23159	-28376	6696	40	2059	2699	721	-16168	-2680	10280	1668	-3147	-302	135	51	1
-20320	7580	31540	1215	1470	300	-9416	-16064	-15368	154	1962	-410	-4264	-400	-13344	-4571	-550	1107	-24736	3000	32767	-12778	32767	-20588	-26896	3848	-4120	2069	2925	527	-20160	3592	2408	2073	-1948	327	132	39	1
-15048	-13648	13252	262	662	278	-19912	1168	-12792	757	2049	271	-18496	-32768	-13176	-3236	922	-166	-20680	4648	30280	-7262	32767	-17310	-29488	6656	-1488	1808	2564	399	-27936	4808	-9840	1970	-1121	859	117	109	1
-6724	2164	19156	373	193	260	-20192	3768	-7016	-851	1461	332	-20984	-6936	-11712	1061	1992	-1002	-15384	3056	28952	-5558	32767	-21413	-24376	976	6032	1267	1904	61	-29848	640	-12288	841	-1494	1190	130	145	1
-8800	-4400	15240	400	-84	144	-15992	-752	-3480	-1200	1100	20	-18928	5816	-3968	415	1676	124	-29352	-7560	5160	-13698	32767	-29451	-17328	3152	2472	-59	1142	86	-27792	-3560	-9920	-497	-2200	1236	130	129	1
-6472	-1840	15252	318	-135	90	-17776	2384	-1136	-66	741	68	-15912	4144	-200	109	1575	499	-32768	20480	32767	-7720	26007	-24566	-11680	8432	-16416	-602	617	159	-23480	-6272	-3744	-723	-2633	1228	115	140	1
-5448	-1272	15212	292	-99	21	-17592	3112	-496	261	643	154	-17608	1944	-1432	25	1545	843	-20376	20736	32767	-3558	-7068	-6385	-11656	-816	-10504	75	113	126	-20256	-3280	-2968	-623	-2774	1280	119	144	1
-6668	-3876	14096	321	-80	-31	-16376	-2824	-1752	761	616	127	-17776	1024	-1120	49	1525	861	-10864	11000	28568	12873	-23980	10102	-10912	-7184	-1552	1012	-162	-387	-20120	-576	-4088	-650	-2623	1255	122	137	1
-6708	-4044	13896	346	-85	-45	-15904	-3000	-2080	1402	522	135	-14560	-4064	-1240	301	1557	451	-5320	5392	13528	12564	-30886	14481	-8328	-2248	1312	2251	-780	-421	-19768	-2888	-2160	-277	-2168	1359	117	135	1
-5880	-3928	13928	345	-43	26	-16000	432	-896	1010	536	190	-16032	-2216	-1032	433	1646	420	-448	-152	6928	6691	-30620	11224	-7304	5408	1848	1908	-1718	245	-17944	-3152	-3888	-158	-2155	1155	118	134	1
-6320	-2776	14412	326	-11	77	-14936	1920	-968	-118	615	191	-15648	664	1136	114	1683	253	-2680	-4744	10728	7658	-28540	6697	-9800	6120	-104	142	-2473	640	-16488	-2400	-4648	39	-2040	1050	119	133	1
-5536	-2604	14008	266	85	129	-16312	464	96	-799	666	135	-16152	1360	1640	-302	1570	189	-9456	-3200	20864	13179	-31424	3358	-8872	2952	-4224	-1214	-3026	391	-14856	-2424	-4376	-113	-1967	881	119	123	1
-6456	-2608	14452	223	145	124	-16560	-624	360	-605	689	102	-16256	1448	1624	-329	1538	193	-12776	-2432	23840	17927	-32768	2220	-8464	-1704	-5176	-1713	-3432	164	-13976	-2384	-5016	-328	-1983	638	118	117	1
-6268	-2628	14196	208	207	89	-15304	-2312	232	250	685	145	-15328	-520	1552	-742	1179	361	-11176	-2040	16744	22926	-32768	4242	-12472	-5512	-2392	-1419	-3782	45	-12136	-1600	-5712	-476	-1886	461	115	118	1
-6892	-2724	14336	224	245	79	-16248	480	-1152	723	709	124	-15712	-2728	1392	-564	1254	329	-11616	-2344	14240	25375	-32768	7874	-14224	-6280	-3816	-1086	-4166	-19	-10688	-1496	-7208	-695	-1779	353	124	115	1
-6156	-3008	14012	286	276	127	-16064	1648	-544	59	763	122	-16024	-2816	1616	-293	1354	132	-11936	-2392	14496	25397	-32768	8486	-13352	-5448	-6280	-686	-4486	-114	-10064	-2992	-7024	-1096	-1665	169	127	114	1
-6664	-2752	14400	284	212	188	-15304	-928	-720	-524	890	93	-15536	-1640	2240	-297	1287	94	-16328	-6736	20456	25211	-32768	14542	-15856	-4864	-7168	-754	-4768	-352	-9176	-4240	-7624	-1146	-1493	58	129	114	1
-4728	-2208	14000	347	182	207	-15304	-1064	-240	-279	945	106	-15384	-1440	2264	-308	1244	173	-18608	-6496	24128	21110	-32768	16685	-19352	-3984	-8248	-765	-5032	-672	-9432	-3664	-8368	-861	-1102	194	127	115	1
-6696	-2428	14216	273	236	230	-16744	-344	-1712	223	1014	161	-15640	-2040	976	-255	1336	191	-19328	-6608	24608	20087	-32768	16989	-21728	-1176	-9120	-646	-5185	-832	-7664	-912	-7488	-612	-595	404	127	119	1
-7180	-1708	14732	242	258	209	-16904	1000	-2832	424	1065	223	-15080	-1632	-416	-124	1546	190	-25632	-248	24456	12600	-32768	20095	-24984	1696	-8808	-695	-5277	-932	-7904	184	-5528	-584	-32	625	128	118	1
-7036	-2312	14404	220	249	213	-16088	760	-3368	83	1139	202	-14104	-1408	464	-109	1930	198	-30768	3416	23824	8820	-32768	22462	-27848	6192	-10144	-1351	-5312	-905	-11176	-576	-2656	-783	-93	674	130	113	1
-7128	-1816	14264	179	240	246	-15264	-80	-3464	-245	1197	191	-15536	-248	1320	-23	2139	256	-32768	4536	19048	5920	-32768	26353	-29000	8824	-13576	-3025	-5185	-1054	-16304	744	1968	-818	-271	488	133	118	1
-7116	-1768	14516	165	235	275	-15920	-200	-2112	-438	1306	255	-17528	2392	-1616	23	1471	121	-32768	-1544	15696	6527	-29866	31307	-27904	3536	-15744	-3841	-4651	-1547	-16168	712	6976	-1107	724	-76	133	120	1
-7576	-1736	14344	220	195	348	-14528	-1520	-2216	-325	1477	296	-14680	-440	-1328	-421	957	-1	-32768	-5832	10992	1261	-25293	32767	-28176	3272	-16944	-3768	-4507	-1608	-8592	4112	32048	-2426	501	182	131	127	1
-7188	-1584	14156	268	233	435	-15480	-1272	-3144	-38	1587	352	-16128	-5240	272	-605	800	-76	-32768	-32768	-4280	8795	-20364	25392	-13024	3136	-26712	-1587	-2124	-1047	-18000	4752	32767	-4369	-751	721	128	125	1
-6508	156	14920	282	348	524	-18344	1104	-3488	-10	1713	469	-17024	-5320	-1032	-669	608	54	-32768	-32768	-32768	18945	-9181	242	-1224	9496	-23728	1684	74	177	-16416	-5016	32767	-2487	-605	-1430	125	122	1
-6908	-924	14940	392	537	619	-20120	2832	-4120	-14	1815	535	-18056	-4784	-2408	-581	485	231	-32768	-28120	-15496	-13494	8132	-20813	-12160	12520	-18256	1654	1435	1313	-12392	-12680	9928	1244	367	-1093	125	123	1
-6900	-1196	15380	551	859	676	-20616	616	-4024	-47	1974	725	-19560	-5464	-384	-381	531	439	-18128	-9432	560	-14275	18849	-30912	-20272	9144	-3240	15	2047	800	-6744	-7656	17192	3218	322	58	127	124	1
-7044	-2176	14984	824	1373	905	-23400	968	-3544	41	2076	759	-21608	-2800	2000	-427	355	441	-8304	31608	22272	-7260	24649	-18870	-32008	-14232	15248	-1768	1745	-37	-15440	3648	1496	3646	540	-71	122	141	1
-8220	-1776	15192	1473	2219	1273	-25832	1992	-2272	-266	2241	749	-23608	-728	4624	-252	255	367	-20776	19544	13528	-10710	32767	933	-27360	40	504	-1044	2160	1110	-32768	-992	9712	1463	77	-22	119	179	1
-8796	-1204	15672	2187	3198	1561	-28224	1144	-48	-455	2416	762	-27080	-1568	7808	-262	-184	463	-22120	-24976	32767	-11617	29211	-15	-28592	6056	-12784	-1054	2614	1428	-21896	3216	11624	-1189	115	605	114	105	1
-8668	-1948	18964	2463	4106	1829	-32768	2424	2592	-579	2446	716	-29176	-3576	13456	-247	-1048	490	-8456	240	19664	-3242	22607	-2675	-18072	-9432	-9240	-2626	2172	970	-16152	-10880	-23504	1102	1281	1782	115	92	1
-13544	-2924	17896	2857	5037	2496	-32768	2192	3848	-732	2429	722	-27592	-2096	22240	-982	-3411	527	-23976	-2632	28560	-1156	21127	561	-13008	8712	-11024	49	1728	718	-10920	-10392	-5856	2155	535	983	110	105	1
-19860	-4244	24424	3352	6223	3532	-27280	-1040	5664	-3234	2294	713	-15680	8536	2656	-1193	-1764	736	-17320	296	25104	1882	14385	-339	-17120	9304	-10536	635	1373	1626	-23800	16072	-15632	1562	778	-781	107	99	1
-31060	-5056	32767	1942	6693	3568	-23784	-6200	-8504	-4305	2922	823	-21904	-424	-688	-799	-1979	83	-13208	2944	17192	-211	6188	-56	-25528	872	-7504	232	973	906	-20560	3976	-13360	-618	1876	-276	113	102	1
-28780	-10744	32767	685	5631	3613	-25696	-9816	-10656	-2626	2978	894	-24840	-8960	-8304	-1896	-1727	-921	-9688	1168	15640	861	2603	251	-16224	7848	-4344	680	834	567	-21456	2968	-7800	-690	1583	22	118	116	1
-6028	-15852	23052	1291	3838	2863	-22544	-3024	-5080	-656	2314	744	-28480	-4792	-11408	-831	-2020	-1132	-7632	1208	15712	820	1126	159	-17056	720	-1688	-286	470	366	-16392	2624	-1624	-932	1533	-390	115	124	1
-21836	-30544	32767	24	1530	675	-17744	5768	-10496	295	1633	652	-26136	744	-12536	617	-2140	-911	-7056	1056	14840	798	1320	193	-18696	-2416	-1584	660	389	411	-15832	-328	1656	-978	1329	-795	114	131	1
-9560	-25060	25252	239	-19	-684	-14320	-2432	-3792	-891	944	424	-24584	4416	-7040	1369	-2814	-892	-7368	1152	15176	479	1768	428	-18504	376	-1224	1368	476	446	-17048	-2328	1576	-317	1447	-642	118	129	1
-2164	-13444	13128	33	-388	-1349	-10304	-2536	592	-224	122	-133	-20704	3856	-4176	1136	-3029	-946	-7224	1640	14672	16	1833	348	-16656	2432	-128	1418	510	401	-16656	-1240	1000	623	1667	-292	118	132	1
1004	-7080	11412	-680	-492	-1525	-9672	-2304	944	-155	-3	-178	-19784	3632	-3280	641	-2873	-958	-7816	1784	15024	-340	1805	48	-16376	2896	-144	1232	559	280	-15256	2080	968	1037	1641	-311	117	127	1
-1084	-6352	15208	-896	-977	-1400	-5936	-1640	-2568	81	-1012	-579	-18592	3136	-4464	212	-2536	-964	-9464	1472	15184	-12	1441	-111	-16328	1824	136	1208	647	212	-15096	3448	912	858	1668	-458	119	148	1
-2508	-5284	16596	-980	-1789	-1298	-6320	-888	-2920	535	-1546	-1053	-16464	2680	-5928	-63	-2221	-1084	-7944	1776	14848	67	1216	-235	-15808	1400	328	1423	733	215	-15120	2816	1544	574	1612	-497	122	132	1
-3416	-4752	16308	-1436	-2463	-1364	-6616	1584	-2936	797	-2067	-1220	-14192	1256	-5624	-77	-2065	-999	-7808	2048	14560	-178	916	-504	-15600	1584	472	1561	734	268	-14344	2032	1944	473	1591	-435	121	136	1
-5004	-5284	16036	-1890	-3015	-1594	-7336	3432	-2296	609	-2551	-1393	-12840	584	-6032	145	-2064	-828	-7592	1648	14728	42	840	-821	-16504	2032	680	1422	654	302	-15200	1416	2800	597	1536	-448	121	137	1
-6372	-5120	15400	-1996	-3414	-1877	-8784	2952	-2224	347	-2961	-1676	-12600	-120	-6064	279	-1878	-673	-7728	1568	14696	128	787	-885	-16544	2352	168	1048	595	262	-16072	1776	3168	895	1567	-478	126	135	1
-6820	-3508	14636	-2112	-3614	-2142	-10640	2904	-1608	653	-3384	-1906	-11520	944	-6800	666	-1663	-517	-8040	1352	14552	402	890	-900	-16968	1808	-528	561	604	185	-16000	2664	4144	840	1527	-486	126	136	1
-8912	-1700	17208	-2418	-3674	-2346	-11944	4784	-2888	628	-3815	-1973	-10888	1552	-7816	1102	-1526	-346	-7920	1424	14632	442	847	-892	-16680	376	-400	491	572	148	-14576	3424	3760	527	1976	-536	124	140	1
-11376	416	19348	-2860	-3732	-2482	-13704	5336	-3792	415	-4207	-2024	-9832	1632	-8408	1589	-1341	-156	-7976	1512	14648	223	752	-1113	-16200	1464	-712	759	810	312	-15208	3184	3928	-71	2077	-347	124	137	1
-13032	1456	18364	-3060	-3642	-2462	-15864	5192	-4856	276	-4462	-2154	-8024	2952	-9272	1874	-1085	36	-8264	1736	14576	31	630	-1346	-15816	2400	-1016	383	801	241	-15832	2848	-120	-500	2123	-173	125	142	1
-15548	460	21232	-2983	-3435	-2393	-18784	4856	-6680	273	-4669	-2346	-8232	5008	-9144	1748	-784	92	-8096	1392	14664	188	729	-1287	-15864	1624	-1608	-167	876	157	-17192	3032	-2000	-667	1701	-205	126	145	1
-18960	-2868	25596	-3075	-3279	-2632	-22192	4912	-8072	868	-4950	-2425	-7784	5808	-6968	1068	-417	56	-7880	960	14800	394	1058	-981	-16672	312	-2544	-450	984	151	-16776	2560	-848	-706	1453	-379	126	144	1
-25060	-7888	30080	-2818	-3294	-3358	-22992	4656	-8480	1015	-4989	-2451	-7416	5760	-4368	108	-92	-23	-7968	1512	15000	444	1528	-870	-17352	864	-2984	-329	1002	177	-16072	336	-1160	-563	1396	-398	127	143	1
-30540	-3020	32624	-2523	-3389	-4321	-27936	7064	-13424	1867	-5350	-1893	-8400	2288	-1160	-777	120	-166	-8128	1432	14304	270	1792	-1036	-17320	1104	-2704	-293	1013	180	-15432	392	-1344	-314	1397	-332	130	143	1
-32768	6924	32524	-2489	-3435	-4824	-27912	7136	-14000	1878	-5359	-1803	-11424	-4328	2328	-1220	340	-406	-8096	1288	14560	150	1928	-1625	-16344	2736	-1896	-130	1109	199	-15176	1184	-744	-170	1327	-194	128	145	1
-32768	14936	26436	-1844	-3362	-4514	-30176	6416	-15752	1450	-4971	-669	-17472	-7032	10440	-462	290	-667	-8240	1608	14400	-334	2144	-2219	-16928	1952	-1824	-218	1188	198	-15864	688	336	69	1253	-190	130	147	1
-32768	23212	15428	-997	-2919	-3549	-26280	3568	-19224	614	-4212	-151	-20184	-8512	20944	575	-395	-1263	-8256	1616	14184	91	3737	-2717	-18648	1560	-2216	-166	1309	192	-18320	1264	-32	363	1203	-217	135	148	1
-32768	32767	-4768	-786	-2593	-1014	-10952	3680	-27952	222	-2804	-416	-19872	-3928	25552	2254	826	-1808	-7928	544	14912	-520	5785	-3303	-20344	-736	-2632	-227	1437	231	-19264	2176	-40	414	1084	-175	148	145	1
-32768	32767	-22044	-3363	-1241	787	-4072	13408	-27736	-1640	-421	-695	-20104	5816	32767	331	-816	181	-8544	352	14384	-574	8001	-3248	-18208	-1328	-3768	-239	1590	204	-17648	1992	-704	413	1061	-196	162	141	1
-32768	22024	-19160	-8	253	1819	-7672	-2200	-22520	-2223	1412	312	-23480	9272	24032	275	-317	1798	-9168	864	14800	-1313	10680	-2416	-19560	1712	-3696	-328	1761	130	-18408	5064	-1640	295	972	-464	158	136	1
-32768	16624	1316	2883	498	2428	-19592	360	-19464	-197	2371	437	-14840	1056	2104	-598	76	941	-8728	1600	14400	-2558	13510	-2721	-22208	2928	-1056	-675	1684	64	-19112	5408	-768	313	731	-599	133	144	1
-1152	-32768	21932	2669	463	2507	-25744	-9344	24336	-902	1836	487	-13592	-4120	-5032	-2555	14	31	-10168	1224	14424	-4517	16134	-5360	-22248	1640	-2128	-1010	979	207	-20848	2976	2400	123	447	-562	122	149	1
-3144	-16796	-2532	2200	2724	1358	-27768	8808	6336	2105	1531	-423	-18344	-2048	9416	321	-988	-184	-10688	1928	14784	-7030	20174	-5131	-24064	-376	-240	-243	1814	67	-23312	3888	5752	314	47	-558	120	130	1
-13760	14348	32172	1590	3733	68	-25184	8296	-4008	1895	2041	689	-18376	-15008	10552	2416	173	-1417	-11032	2240	15808	-10627	27205	-6385	-27432	-592	4048	505	2153	145	-26480	4480	12728	582	-1006	-591	126	128	1
-9172	20660	32767	606	2743	1239	-24304	11800	-5576	2316	2199	1029	-24136	9744	5256	2482	1387	-1832	-12616	4296	17192	-15553	32767	-9958	-32616	-3056	10176	1483	2533	138	-26248	-2048	15552	1119	-2342	-616	137	114	1
-16932	-32768	22412	1230	2253	568	-15184	3872	-8512	-599	2222	789	-16480	32648	-9112	-1337	1287	116	-16752	1136	22440	-20221	32767	-18218	-27192	2000	6072	2865	2977	501	-23392	-6536	17224	1358	-3427	-513	135	77	1
-14800	7760	31160	1090	1144	287	-14256	-9240	-9728	170	1905	-402	-8992	-7192	-14728	-4059	168	1349	-21656	-1376	22536	-10489	32767	-18664	-27040	6832	416	2903	3222	645	-19448	664	6096	2739	-2259	-109	117	5	1
-17404	-12048	15728	582	549	229	-19768	2472	-10408	327	1495	-33	-17696	-32768	-11312	-1301	996	194	-27832	5840	31448	-3050	32767	-18560	-30320	11160	-3992	2109	3035	443	-20576	5880	-4120	2424	-1162	707	114	29	1
-8060	-2072	17136	614	174	206	-17944	-2888	-6392	-245	1306	39	-19888	-7864	-10112	1317	2005	-646	-21984	7992	32767	-4962	32767	-22170	-25192	5848	2200	843	2451	252	-28392	1384	-10800	1521	-1352	972	133	128	1
-7772	-4676	14484	547	22	158	-17616	-16	-4464	-216	1030	84	-18936	2864	-5056	954	1761	28	-4248	872	8456	-11461	32767	-22688	-22184	2176	2920	-105	1833	239	-27240	-688	-8936	464	-1818	1054	125	125	1
-7140	-3596	13948	411	48	116	-16728	1456	-3008	42	727	133	-17608	3432	-1568	248	1765	165	-31016	18040	32767	-433	20590	-19728	-14280	4072	-12904	-588	1385	311	-23544	-880	-7224	-400	-2188	1314	122	127	1
-6364	-2388	14552	280	192	42	-17960	3632	-800	348	514	89	-16520	3192	-176	115	1744	438	-16968	21976	32767	2170	-2677	-9190	-13808	5024	-5512	947	1041	-53	-23176	-1952	-3864	-901	-2723	1369	121	140	1
-6600	-2844	14168	131	289	-54	-16880	2040	-1272	393	494	30	-16432	2400	440	250	1615	612	-6688	14456	22392	-3465	-15836	-1004	-14384	-856	720	633	231	121	-22176	-1384	-3208	-1065	-2792	1389	127	140	1
-7172	-3504	13808	85	279	-115	-16216	-640	-1760	475	436	43	-15040	1064	160	-31	1581	510	-392	6904	12976	-2314	-18250	4125	-9688	-1280	-144	545	-401	-159	-20696	-1664	-3840	-812	-2634	1547	125	138	1
-6632	-4252	13176	197	199	-84	-16096	-1352	-1080	445	412	9	-14592	-1936	-112	-362	1597	402	-320	4808	12008	1994	-17997	6534	-8776	360	-232	526	-1002	-194	-20528	-1320	-4320	-412	-2356	1539	123	135	1
-7236	-4428	13616	329	120	7	-15496	-1416	-1496	89	441	-2	-15128	-3312	664	-422	1678	222	-3352	4888	15272	2172	-20028	6507	-9080	3928	-1608	283	-1661	-38	-18792	-1024	-4992	-249	-2255	1377	123	132	1
-6784	-4332	13352	435	47	94	-14632	-2328	-1048	-572	615	-29	-15336	-2776	960	-467	1637	96	-6136	3072	19368	2209	-25079	6084	-8560	4536	-2368	-594	-2302	112	-17072	-368	-5192	-242	-2194	1285	118	132	1
-7552	-3488	13876	442	18	141	-16056	-1264	-744	-686	750	17	-15704	-568	1648	-674	1591	172	-7232	1560	21104	6750	-30844	6686	-8728	1432	-2848	-1230	-2900	-55	-14784	768	-5168	-325	-2050	1188	124	137	1
-7308	-2924	14360	322	43	100	-16240	-888	-192	-533	856	103	-15504	-472	1696	-910	1540	277	-8736	1312	18936	12443	-32768	7518	-10064	336	-3008	-1314	-3328	-258	-14496	864	-5568	-344	-2001	1164	122	140	1
-7476	-2956	14412	311	45	90	-15920	-1504	344	-185	905	171	-14432	-2296	2472	-1042	1706	335	-10192	1472	16704	15465	-32768	8490	-11192	768	-2664	-1275	-3811	-278	-12272	-320	-7544	-808	-1735	937	126	140	1
-6980	-3152	13836	173	82	42	-15912	-1184	-616	142	885	188	-14432	-3304	3176	-781	2242	292	-11912	1560	16272	16967	-32768	10375	-11992	-16	-3480	-1678	-4298	-320	-10792	-1304	-7768	-1373	-1706	702	126	140	1
-7360	-3308	13888	203	88	84	-16192	-688	-2024	9	912	160	-16736	-2440	1800	-359	2228	57	-15240	-360	18608	19611	-32768	12890	-13240	-888	-4488	-2168	-4695	-551	-9208	-3472	-7864	-1701	-1544	457	127	136	1
-7344	-2988	13920	230	67	126	-15520	-1312	-2128	-145	914	105	-16064	-2216	-5056	-292	1874	-29	-16400	-2048	16072	23515	-32768	15303	-15896	-960	-4760	-2419	-5023	-824	-7624	-5200	-8368	-1447	-1267	298	128	121	1
-7212	-3048	13732	240	59	155	-15720	-536	-2432	-80	899	154	-16336	-4384	-5152	22	1438	148	-20776	-1208	17728	23393	-32768	17019	-20296	-408	-8312	-1880	-5107	-976	-7368	-6280	-7552	-1100	-997	230	131	115	1
-7120	-2308	14016	252	56	169	-16488	40	-2912	261	898	139	-15888	-4880	-2152	306	1206	225	-24488	-832	23456	20607	-32768	19304	-22624	2512	-8696	-1358	-5150	-1001	-7104	-7240	-4256	-673	-800	250	128	112	1
-7176	-2668	13928	254	45	168	-16872	-96	-3368	367	898	124	-15376	-984	-2408	347	1086	310	-30376	3232	27752	17045	-32768	22049	-30400	4168	-11792	-1576	-5207	-1003	-7416	-3592	1136	-630	-629	261	130	118	1
-7448	-2848	13924	252	64	193	-16120	-320	-2712	264	938	116	-15208	-320	-2712	356	1088	329	-32768	1048	27528	10821	-32768	25752	-27960	6304	-14288	-1760	-5156	-1199	-10096	768	3512	-537	-416	387	130	120	1
-7264	-3004	13852	246	122	247	-16336	-1312	-2328	228	1004	125	-16760	-944	-136	119	1174	305	-32768	-9808	24184	12097	-32768	28117	-26112	5704	-16784	-2142	-4835	-1513	-14096	5424	3400	-1	196	493	132	121	1
-7212	-2580	13864	270	178	297	-16976	-792	-1696	202	1149	169	-17472	-1800	1904	-185	1010	84	-32768	-18248	18520	10751	-32768	24814	-26448	3584	-16400	-1370	-4151	-1818	-18848	8312	8056	-640	576	815	131	131	1
-7168	-2164	14124	308	279	395	-16944	-1248	-1728	82	1344	225	-18320	-1392	2160	-668	881	-22	-32768	-20208	10072	3744	-30782	15253	-24328	6384	-17464	118	-3432	-1496	-15816	5032	17904	-2055	666	1020	130	128	1
-6924	-3016	14428	377	434	555	-19736	-2048	-1104	-83	1560	256	-20088	-3368	1928	-899	808	24	-32768	-30128	-7304	5210	-24627	-824	-17736	10000	-21984	1085	-2513	-570	-16776	-904	28352	-2753	864	1069	133	129	1
-7712	-1300	14360	437	673	650	-20048	1000	-2688	19	1732	320	-19320	-4288	2072	-846	621	36	-32768	-32768	-23056	15660	-13372	-14713	-7888	6672	-25040	2076	-628	447	-18136	-2968	32767	-1061	-508	-296	131	135	1
-7492	-1988	14624	534	1044	639	-19448	1440	-2248	48	1922	495	-18040	-2912	1304	-732	507	119	-32768	-19448	-22080	-3203	572	-18060	-9920	8424	-23128	983	1048	520	-16696	-4448	19800	776	207	-1520	129	144	1
-8448	-1132	14332	751	1548	608	-20328	912	-3400	257	2080	568	-19112	-3824	1560	-641	528	231	-16552	-19160	-6816	-23687	18076	-22536	-18256	7104	-14480	307	1940	899	-16200	-4256	9600	2053	539	-490	131	157	1
-8912	-2012	14080	1082	2246	730	-22288	376	-2688	274	2223	617	-21112	-4640	2528	-634	299	311	1136	23712	28840	-13358	22048	-8507	-32344	-16992	20184	-296	1776	-365	-20184	-1832	2368	2386	433	-619	127	136	1
-8660	-2936	15448	1459	2954	1019	-26080	864	24	-136	2361	563	-23208	-3064	3760	-352	171	306	-13312	376	17320	-13138	32767	12	-26160	-4680	600	-1587	1937	1323	-8608	7328	23560	1845	518	-397	122	70	1
-10260	-1936	13768	1506	3624	1382	-27440	56	2408	-501	2462	566	-24696	-3168	8616	-271	-298	492	-19648	-20928	32767	-8575	26311	-1878	-24072	4680	-6664	-1091	2556	710	-22720	10328	6304	-1264	801	506	121	83	1
-11200	-2644	15036	1682	4510	1953	-31096	192	6200	-1186	2435	566	-25560	-3616	13792	-139	-1234	510	-12808	9296	17952	-4047	21304	-2334	-20248	-2976	-2704	-2535	2324	724	-13760	-13440	-13704	-1514	978	1070	117	102	1
-15764	-4292	22116	2552	6059	2865	-31400	-88	7496	-2243	2509	704	-23344	2536	16384	-1092	-3473	546	-14520	3432	32767	-12091	21265	1744	-11528	7184	-4016	-895	1957	737	-10848	-14096	-8872	2870	269	159	111	16	1
-28052	-5164	30596	2548	6991	3292	-22328	-3736	-2256	-3222	2778	507	-14128	8784	2696	-1333	-2054	722	-16312	3616	22616	-5541	10264	-2223	-15208	8032	-8568	-133	1628	1400	-13752	18424	-12080	2607	1055	83	111	44	1
-26072	-928	30752	1289	7487	3210	-25008	-5008	-8776	-2463	3046	675	-21496	-2760	-920	-1372	-1973	-95	-9328	-720	19744	-3038	5068	-2583	-24536	120	-6536	152	1453	796	-22824	13232	-13592	-466	1678	36	118	90	1
-22900	-11128	32767	-1067	6243	3420	-26152	-2064	-4792	-2387	2885	1032	-25352	-8792	-10792	-2374	-1606	-861	-8864	1368	16464	-1326	3570	-1940	-17072	3952	-3360	840	1328	487	-20376	-2072	-7176	-1227	1344	349	122	134	1
-32096	4476	25392	-618	4020	3455	-20400	-3752	-8080	-1527	2339	673	-27544	-4248	-12712	-966	-2124	-1088	-8512	1216	15944	-497	2505	-1862	-17528	984	-4080	500	1020	362	-16928	-1080	-2176	-536	1341	-155	119	134	1
-21216	-27620	32767	-631	-10	1064	-16432	2472	-8880	-742	1414	458	-27408	-848	-10672	714	-2469	-938	-7960	96	15752	332	2225	-961	-18888	-152	-3856	829	863	358	-17256	-2552	-616	-163	1412	-423	116	135	1
1084	-17304	18544	210	-1569	87	-15688	-3264	1592	-1383	662	310	-24816	2504	-5160	1496	-2983	-809	-7672	256	15424	970	2279	-30	-18400	1232	-3464	352	805	442	-18120	-3616	344	52	1505	-465	121	133	1
2880	-8952	8860	-139	-1218	-189	-11752	-96	1472	-746	-141	-197	-22520	1816	-3632	1026	-3119	-904	-7584	896	15088	1317	2426	501	-17592	1152	-2864	96	711	261	-17072	-1824	-1128	460	1668	-478	117	139	1
-744	-9508	13164	-1077	-1038	-510	-7392	1544	-1880	-827	-796	-67	-20816	1256	-3808	555	-2889	-824	-8080	1560	14952	1244	2562	657	-17432	976	-2160	374	679	215	-16088	1232	-2128	717	1673	-602	121	140	1
-6228	-13552	19008	-1136	-1812	-1009	-7224	-952	-4056	-661	-1216	-408	-19648	1968	-5096	188	-2505	-995	-8152	1752	15080	984	2086	395	-16280	960	-1288	1204	717	341	-15736	2056	-2096	628	1748	-707	122	141	1
-5496	-12212	15300	-730	-2693	-1536	-8432	-2560	-2320	157	-1831	-909	-17808	-1352	-4744	25	-2340	-990	-8496	1920	14768	599	1573	-187	-15704	1872	-640	1838	666	398	-15552	1152	-1424	600	1794	-634	124	136	1
-5256	-9156	13320	-889	-3040	-2030	-9416	608	-1968	976	-2464	-1030	-16136	-296	-5680	89	-2054	-1017	-8368	1488	14864	216	1083	-463	-16488	3624	-688	1887	548	375	-15672	2504	-416	688	1849	-544	121	139	1
-6924	-7324	15000	-1192	-3344	-2384	-9184	1624	-3328	911	-3002	-1159	-15120	-2128	-6336	235	-1976	-941	-8104	1248	14648	36	687	-412	-16128	4496	-824	1249	451	289	-14872	2888	280	543	1855	-632	127	138	1
-9704	-4568	18956	-1522	-3815	-2569	-10160	624	-4248	713	-3485	-1460	-13160	-1752	-7104	759	-1669	-707	-8008	1256	14760	-284	296	-565	-16208	3240	-824	547	415	158	-13984	4168	1264	625	2022	-689	128	140	1
-12680	-1868	20804	-2013	-4410	-2650	-11704	1144	-4256	1205	-3918	-1643	-10928	-352	-7584	1549	-1665	-498	-8048	1240	14928	-498	-38	-845	-16184	1912	-736	539	451	100	-14952	4672	4016	702	2303	-700	127	140	1
-12692	-1528	20560	-2089	-4483	-2646	-13760	3848	-3944	1963	-4394	-1734	-9240	1752	-8272	2325	-1614	-146	-8000	1600	14248	-646	-372	-1222	-15896	2272	-272	874	550	143	-15648	2600	1240	788	2254	-378	127	144	1
-14236	2256	16172	-2757	-4366	-2481	-15128	9648	-4536	1428	-4718	-1646	-8704	4488	-9128	2667	-1439	179	-8168	1504	14592	-712	-743	-1729	-15128	2072	-72	999	620	194	-17384	1576	-1936	-19	1675	-42	127	146	1
-18084	-1348	19980	-2642	-4173	-2569	-16240	6960	-7480	151	-4850	-1730	-8200	6392	-9416	2243	-1165	285	-8032	1416	14728	-722	-674	-1960	-15568	2320	-488	592	785	185	-17248	2952	2056	-265	1114	-452	128	149	1
-21636	-4424	23184	-2288	-4150	-3043	-19288	3840	-8480	533	-5032	-1856	-7800	5984	-7984	1396	-758	216	-7672	1200	14704	-473	-241	-1761	-17096	848	-1112	136	752	158	-17800	4480	2472	-18	1204	-361	128	154	1
-24424	-3468	25780	-2192	-4084	-3663	-23656	5840	-10664	1237	-5239	-1771	-7320	6048	-4864	470	-480	-5	-7672	1240	14840	-331	540	-1984	-17464	1336	-976	-73	984	198	-16904	624	1496	47	1322	-356	128	156	1
-27468	2148	29300	-2486	-3978	-3930	-27032	5016	-12496	1011	-5387	-1569	-6880	2056	-2432	-6	-230	-90	-7848	1272	14544	-484	907	-2402	-16680	1704	-960	-195	1036	169	-16176	-216	656	-55	1203	-316	131	155	1
-32712	6216	28804	-2568	-3950	-3867	-26760	3264	-15600	1322	-5405	-1362	-9032	-1808	232	-254	86	-207	-7992	1672	14872	-512	1170	-2847	-16480	2720	-1272	-245	1191	183	-15768	584	1088	82	1160	-148	130	153	1
-32768	10948	23484	-2167	-3703	-3544	-27120	6496	-17504	1625	-5155	-987	-13800	-3800	1712	-573	490	-337	-7704	1784	14768	-561	1760	-3626	-17856	2880	-1816	-196	1242	223	-16752	1376	80	482	1212	-82	134	149	1
-32768	11768	14960	-1195	-3242	-3031	-25816	4416	-17128	1252	-4547	-502	-17896	-2200	9224	38	532	-433	-8176	1160	14192	-593	2956	-4679	-19112	2280	-2776	-96	1343	223	-17616	1088	-1760	817	1184	-49	134	153	1
-32768	15480	4320	-51	-2543	-2174	-22664	3376	-22808	1553	-3593	-544	-19096	-3744	22304	1693	394	-707	-8392	784	14936	-953	5046	-5072	-20472	-144	-2912	123	1531	193	-18296	816	-1928	872	1163	-74	140	151	1
-32768	32767	-3824	-880	-1906	-705	-12360	7016	-29944	437	-2081	-314	-22560	-5304	32767	2052	521	-819	-8088	728	14640	-952	5343	-5113	-18808	2344	-2096	58	1611	195	-16696	3328	-1056	756	829	-215	148	152	1
-32768	32767	-22496	-610	-897	1059	-3136	5320	-27696	-535	169	-299	-24096	6240	32767	664	-352	542	-8312	496	14944	-2272	10045	-5443	-18936	3184	-3192	-489	1730	110	-17208	7248	-816	535	829	-391	156	145	1
-32768	26988	-8220	2127	251	2084	-11288	4560	-26328	-274	1861	470	-25096	7048	32192	638	-299	701	-8672	416	14760	-4397	13384	-5633	-20840	2304	-2728	-607	1901	22	-19192	8160	-648	389	811	-575	142	147	1
5792	924	14200	1258	1673	2288	-19784	-1832	2128	-1371	2582	1171	-10944	4472	3704	-1660	-22	339	-7448	1896	14704	-8177	17377	-7384	-23088	1600	-1856	-262	1979	163	-21952	4584	480	104	669	-675	142	169	1
11252	-32480	20940	1225	1865	2347	-32768	-4120	25376	-6	1522	73	-10168	6096	4216	-1779	-541	564	-10464	840	15520	-12984	22224	-8945	-26136	1088	440	360	2104	205	-24032	4384	3560	-168	386	-649	123	168	1
-15632	-21840	1248	1267	4115	539	-18368	5336	-2760	-129	2035	-105	-22328	6448	-56	-87	954	528	-11136	1264	16456	-17895	27834	-11032	-27368	952	4232	636	2164	193	-25088	4240	8552	43	-226	-564	111	167	1
-17100	21284	32767	1184	3735	510	-27896	912	-8808	788	2362	554	-23152	-15968	11728	-189	417	-1627	-12352	344	16088	-23606	32767	-14324	-29880	-1280	8824	633	1896	232	-27520	1272	16616	198	-1446	-555	107	150	1
-9000	1956	20260	-130	3251	1144	-20808	13264	-4160	746	2232	572	-15712	9544	-8408	-484	1140	-966	-19920	3352	25656	-24593	32767	-18127	-29200	-992	6376	730	1972	454	-23288	-4976	19560	818	-3039	-534	132	93	1
-32768	-17244	14924	566	2742	242	-13664	-8144	-14192	-1083	2272	309	-17152	15904	-9232	-2172	696	-14	-28504	6080	31648	-15254	32767	-20187	-25424	6648	3584	2408	2806	855	-16696	-8784	4360	1598	-3031	-351	124	43	1
-10176	-1004	21236	957	1200	351	-18040	3032	-9968	1180	1721	-461	-15392	-20368	-13408	-3096	486	648	-23752	-2384	32472	-10372	32767	-19071	-29304	8032	-768	2480	2902	1145	-24632	-456	1664	3383	-1834	112	129	96	1
-8468	-304	18828	817	516	248	-20648	560	-6672	-203	1680	233	-13960	-14528	-10784	336	1410	48	-21440	8432	32767	-3492	32767	-20647	-25592	5184	-312	2304	2437	698	-25848	3264	-10088	2822	-1226	677	131	92	1
-9628	-5688	14308	558	244	165	-13784	-2248	-4976	-125	1303	-78	-18200	-1528	-7504	947	1578	113	-32768	-10088	26888	-11429	31338	-26727	-20304	5984	-5360	1466	1912	535	-26120	1096	-9288	1320	-1821	1068	127	124	1
-7816	-3500	14324	393	150	134	-19016	1704	-3944	3	1034	105	-17848	240	-4992	689	1482	227	-21984	22168	32767	9736	9599	-15363	-18600	4968	-10208	1293	1853	652	-25944	-2728	-6576	-170	-2188	1263	131	145	1
-7132	-2888	14388	283	155	95	-18184	1840	-2704	15	753	97	-17496	1336	-1720	457	1580	355	-9864	19000	24192	4956	-4722	-4619	-16584	1728	-112	2681	951	313	-22856	-3864	-5264	-373	-2540	1388	126	149	1
-7176	-2664	14340	209	165	41	-16584	1768	-2248	257	653	37	-16808	2232	-288	225	1557	494	-1704	13456	12616	3919	-7089	4195	-12248	552	2000	1964	458	384	-20720	-1632	-5048	-115	-2489	1566	132	142	1
-7232	-2720	14144	205	171	1	-16448	1400	-2552	418	614	-2	-16128	1928	-1304	-78	1526	657	-1536	12840	12112	3785	-7052	5336	-9792	3584	-176	1082	-316	263	-20440	-328	-3440	-177	-2521	1641	125	134	1
-7712	-3216	13968	177	134	-19	-16048	-400	-2904	304	604	69	-15144	48	-2008	-393	1601	548	-2608	5864	17688	789	-11078	10811	-9048	5432	-432	81	-970	354	-18824	-1616	-3968	-255	-2490	1619	127	132	1
-7676	-3372	14096	140	93	-10	-15464	-1080	-2512	24	588	18	-14856	-1784	-1928	-487	1660	396	-2792	2144	19696	3662	-15981	10691	-9424	3592	-1336	-1141	-1608	409	-18760	-1520	-4488	-8	-2252	1619	128	127	1
-7516	-3064	14016	105	49	16	-15400	16	-1512	-230	614	-2	-14640	-784	-1464	-299	1795	326	-4144	1832	20976	8443	-20770	10491	-9688	2200	-2376	-1729	-2304	333	-17576	-312	-4856	-42	-2190	1520	130	125	1
-7432	-2916	14084	85	28	10	-16224	160	-1392	-387	614	1	-15624	-648	-1000	-378	1901	311	-6152	1840	21712	12329	-26779	11371	-10168	-232	-3304	-1993	-2772	269	-16904	-336	-5480	-61	-2062	1465	128	127	1
-7348	-2660	14060	92	1	11	-16400	-1360	-928	-289	576	36	-14904	-976	-184	-557	1956	342	-6568	1288	18600	14572	-31312	13233	-11288	-1584	-2448	-2094	-3273	112	-15744	-360	-5920	-191	-1942	1343	127	127	1
-7172	-2820	13964	129	-26	32	-16136	-696	-2080	-39	483	11	-12960	-2360	2136	-778	2301	426	-7808	-256	17920	15864	-32768	15163	-11840	-1880	-3232	-2267	-3747	-98	-13712	-1352	-6728	-421	-1823	1087	130	125	1
-7132	-2696	13852	135	-41	36	-16136	-528	-1576	-244	495	84	-14568	-4040	4760	-735	2874	328	-11024	-2392	22024	17620	-32768	16505	-12208	-1872	-4400	-2634	-4271	-314	-11848	-2648	-7432	-896	-1716	849	129	122	1
-7036	-2608	13808	214	-83	93	-15624	-1432	-64	-373	581	97	-18240	-3896	-96	-374	2659	278	-12280	-4864	21632	20581	-32768	17237	-13120	-3296	-4864	-2539	-4681	-656	-9272	-4288	-8216	-1388	-1550	583	134	115	1
-7240	-3280	13792	263	-111	169	-14848	-1384	1608	-319	728	114	-19576	-3760	-2680	-64	1813	182	-11448	-6952	17976	23227	-32768	16882	-16992	-3904	-4576	-2092	-5042	-924	-7568	-5552	-9408	-1621	-1315	376	134	112	1
-7100	-3324	13832	260	-116	181	-14184	-2416	1568	268	867	237	-18680	-2336	2272	705	1001	71	-15960	-7232	25432	21914	-32768	14751	-20792	-608	-7896	-1395	-5316	-984	-7496	-6512	-9528	-1608	-1039	214	133	116	1
-6760	-2936	13876	284	-53	278	-16360	-144	-1344	696	1008	161	-16728	-2456	5544	714	765	104	-20960	-6992	32767	23955	-32768	14026	-25208	240	-10136	-1105	-5512	-1119	-6880	-6440	-7800	-1403	-684	76	132	123	1
-7108	-2464	13920	240	13	295	-17504	1232	-3216	656	1145	229	-15864	1112	1520	99	883	157	-27680	-144	32767	21848	-32768	16751	-31704	1024	-12208	-1260	-5692	-1427	-7936	-2224	-4096	-1340	-269	153	131	124	1
-7056	-2392	14020	238	72	319	-17112	1000	-3792	343	1200	221	-14912	3008	-5192	-353	946	256	-32768	-3344	32767	17284	-32768	23266	-29432	1784	-13712	-1485	-5633	-1786	-10424	1096	-2088	-977	7	247	134	123	1
-7036	-2044	13936	235	131	358	-16640	-192	-3352	182	1206	192	-15152	-1312	-4648	-14	1188	84	-32768	-10392	27928	13774	-32768	26673	-31632	4296	-14304	-1300	-5223	-2173	-15824	4256	3528	-455	366	545	135	128	1
-7248	-2000	14188	257	222	446	-16800	-272	-3048	185	1218	200	-16968	-2744	-808	-137	995	-59	-32768	-16176	18896	6540	-32768	22315	-32768	6800	-14576	-764	-4661	-2137	-19448	7560	16992	-1738	-125	1213	134	129	1
-7412	-1428	14344	295	338	480	-17992	760	-2576	167	1421	275	-18360	-2128	8	-440	833	43	-32768	-23208	-1792	6480	-27350	9435	-21112	10448	-24592	-425	-3779	-1323	-18232	-1752	32767	-4637	375	1916	135	130	1
-7412	-2284	14436	357	540	531	-20688	1480	-1816	46	1614	355	-19256	-2160	2184	-537	792	99	-32768	-32768	-29736	24694	-14562	-1667	-5432	5440	-31512	1623	-1211	17	-13792	-5960	32767	-2592	-1737	212	133	129	1
-7196	-1504	14636	420	774	578	-17440	1984	-2448	153	1786	336	-17584	-2768	3048	-333	686	310	-32768	-27512	-32768	-38	4755	-5578	-6136	14544	-23448	1250	1523	497	-22256	-9936	23760	736	419	-2214	132	126	1
-7396	-1232	14796	452	814	583	-19384	952	-2984	455	1977	572	-19192	-6864	112	-198	737	362	-32768	-18760	10568	-24540	12314	-11364	-19456	8472	-21464	230	2099	917	-12496	-7904	-280	2488	1049	-406	131	144	1
-8072	-2284	14392	923	1740	517	-23000	-2128	-2816	629	2131	715	-21704	-6888	688	-325	419	407	-12184	168	12856	-9015	8898	-10015	-12712	7080	-6976	-47	2943	563	-7264	928	-608	3945	661	197	134	152	1
-8696	-2696	14364	1312	2461	920	-23776	960	-1880	178	2285	548	-21496	264	3944	-126	183	357	19368	13240	21000	-13733	17962	-9161	-31064	-10424	18360	-2294	1619	71	1640	9856	4784	3974	91	-533	128	119	1
-9216	-2288	15112	1672	3135	1287	-25736	792	32	-613	2438	522	-23400	1392	6568	-60	9	437	-7120	-328	10080	-11167	30911	-1759	-19056	-5672	-2776	-2366	1663	1066	-21704	12784	-16664	1114	1370	-44	123	106	1
-10748	-2148	14248	1662	3842	1707	-28088	304	2440	-819	2485	543	-24256	-1376	12072	-747	-422	428	-13888	-13080	32767	-13108	32767	-3103	-27904	4320	-2888	-961	2124	439	-31376	-4416	14616	-3531	-368	126	123	96	1
-11352	-1588	15372	1885	4876	2295	-32160	3640	8344	-1760	2458	593	-25000	-1384	17264	-683	-1763	595	-20664	736	22768	-6408	27141	-3467	-25448	-1512	-9000	-1612	2012	1207	-16960	-8088	2976	-421	1316	982	118	75	1
-18992	-3372	25424	2877	6439	3199	-29880	1024	5776	-3621	2549	822	-18000	5024	8400	-1706	-3193	417	-13552	2424	32767	-9601	20818	2215	-19496	3968	-2784	-565	1974	555	-17736	-4008	-8944	2279	1253	1083	112	0	1
-28396	-4008	25700	2384	6947	3494	-22544	-9640	-3312	-4146	2794	666	-21240	2400	3904	-1732	-1698	708	-16112	3608	17952	-4553	12464	-925	-16304	9800	-6824	-583	1565	1085	-11792	13248	-11280	1263	1008	-431	113	17	1
-28348	-5680	32767	955	7334	3657	-27296	-8272	-6696	-2544	3194	1106	-20072	-10904	-6920	-1996	-1702	-701	-14464	-2064	22776	-4829	8264	-2656	-15224	5824	-8656	-202	1429	1066	-16136	8768	-8384	-783	1558	422	120	109	1
-17808	-17684	29412	432	4367	3627	-25584	-4144	-4584	-1087	2756	1066	-27680	-7640	-12272	-1669	-1839	-1137	-9192	1016	16736	-2591	4137	-1590	-20880	3280	-4576	-269	1226	398	-22656	3648	-8696	-1438	1415	113	121	129	1
-32768	-13600	32767	1204	1848	3027	-18288	-904	-13360	80	2175	613	-25840	-1576	-13480	759	-2301	-956	-9088	1304	16944	-2328	3793	-1524	-18336	1568	-4024	-170	1025	414	-17664	-2576	-3688	-1347	1296	-190	119	132	1
-16040	-31940	32767	-227	-232	597	-17392	2544	-6976	-658	1210	607	-28592	720	-8656	1353	-2651	-1048	-8144	376	15760	-335	2039	-1010	-17872	-824	-3960	504	856	384	-18120	-4912	-1976	-250	1423	-369	123	134	1
-5480	-21184	15280	26	-1107	-730	-15080	-1224	800	-1028	402	312	-24568	2496	-5712	1303	-2970	-1020	-7728	208	15376	-22	1995	-489	-18600	-40	-3304	822	707	418	-17696	-3504	-88	585	1530	-365	123	128	1
-472	-12820	10928	-48	-1105	-1327	-9632	-2080	-392	-537	-312	-91	-23080	1976	-4760	923	-2997	-976	-7992	608	14936	122	2251	21	-18248	640	-2712	864	672	403	-16960	-720	96	989	1657	-366	118	125	1
-2308	-10112	15608	-379	-1439	-1578	-6304	-2688	-3464	-223	-1019	-256	-20816	704	-4544	858	-2751	-997	-8232	1296	15120	150	2262	198	-16792	2168	-1920	1086	683	339	-16128	1248	-1064	1014	1651	-488	124	132	1
-4124	-7712	17680	-658	-2306	-1669	-7472	-1936	-3648	434	-1604	-703	-19328	1312	-5792	806	-2469	-1020	-8056	1416	14952	288	1934	243	-16600	3296	-1520	1250	695	293	-16240	2872	-2072	854	1642	-629	124	136	1
-3960	-5808	14792	-1017	-2918	-1668	-8264	-728	-2512	784	-2231	-961	-15800	1808	-5008	464	-2353	-1080	-8416	1456	14968	263	1702	-120	-16496	3008	-1360	1335	693	291	-16112	2272	-1296	635	1679	-630	125	140	1
-6688	-6424	15792	-1448	-3391	-1775	-8264	1600	-3584	953	-2792	-1203	-15816	1960	-6128	378	-2116	-1019	-8544	1096	14760	215	1256	-370	-15856	1624	-1264	1468	688	279	-15016	1592	104	495	1715	-554	125	138	1
-8628	-6376	16716	-1760	-3890	-2036	-8984	2648	-3400	713	-3260	-1483	-13624	112	-6720	290	-1861	-918	-8264	968	14600	292	979	-523	-15880	1456	-1144	1559	638	298	-14808	-128	856	423	1718	-571	127	137	1
-10504	-4884	16744	-2101	-4241	-2326	-11024	2480	-2912	665	-3702	-1677	-13160	648	-7832	645	-1708	-805	-8120	864	14832	153	674	-541	-15920	2152	-984	1413	551	318	-14672	1136	688	599	1712	-666	129	136	1
-12436	-3992	16744	-2399	-4442	-2593	-12208	2568	-4168	1239	-4103	-1941	-10680	2024	-8872	1204	-1572	-516	-8016	1080	14344	-64	442	-695	-16360	3832	-912	981	518	270	-15080	4704	1448	714	1858	-716	128	139	1
-12904	-880	14984	-2731	-4326	-2832	-13456	5920	-2560	1427	-4554	-1944	-8192	3064	-9384	1761	-1493	-220	-7768	992	14552	-298	368	-1045	-16888	2920	-800	439	521	216	-16144	4248	2976	421	2202	-571	127	139	1
-14756	708	14516	-2973	-3774	-2946	-15864	8024	-4512	951	-4749	-1910	-6400	3848	-9832	2218	-1304	121	-8256	1056	14424	-489	179	-1487	-16008	1520	-976	436	621	173	-14904	2288	3584	144	2396	-225	127	142	1
-17912	-1108	21036	-2563	-3463	-3053	-19272	6072	-8080	382	-4912	-2067	-6216	5072	-9512	2012	-1056	258	-8248	1088	14456	-392	139	-1762	-15344	1688	-1040	707	719	202	-14840	56	96	392	2019	-254	127	142	1
-19832	-1308	24372	-2418	-3251	-3322	-22376	3888	-8064	1163	-5232	-2067	-7448	5104	-6456	1234	-733	122	-8088	1016	14616	-437	109	-2040	-15592	1960	-1264	744	824	323	-17552	2704	-464	55	1599	-293	126	138	1
-27172	-4584	32767	-2227	-3271	-3748	-28080	4760	-12288	1804	-5458	-1952	-8304	4904	-3944	321	-313	-152	-7960	1064	14576	-456	349	-2246	-17280	3160	-1624	208	912	252	-17768	5136	1360	-132	1542	-296	127	143	1
-32768	-832	32767	-2005	-3882	-4357	-28744	5600	-15768	2263	-5603	-1453	-8392	560	-1192	-98	80	-346	-8168	936	14400	-335	1013	-2450	-17704	2176	-1576	-282	1011	164	-16960	4256	-328	79	1399	-233	130	145	1
-32768	8064	28632	-1919	-4062	-4541	-27520	4904	-17088	2326	-5575	-864	-11120	-4328	368	-292	296	-478	-8096	1392	14712	-435	1529	-3001	-17296	2808	-1304	-224	1191	148	-16104	2880	-720	122	1316	-335	128	144	1
-32768	11632	23664	-1241	-3892	-4167	-29416	6368	-18000	1893	-5148	-291	-18568	-5032	5520	132	322	-574	-8488	1272	14520	-518	2287	-4118	-18400	3336	-1984	-77	1217	232	-17864	1896	624	23	1279	-244	131	147	1
-32768	14016	9688	-294	-3488	-3230	-26048	3048	-22896	1566	-4374	-297	-19344	-5040	6944	297	280	-597	-8280	656	14888	-921	4075	-4055	-19896	-24	-1896	-25	1477	128	-18752	1368	904	225	1141	-62	134	145	1
-32768	32767	-5192	-1418	-2642	-1289	-17432	8264	-29672	103	-2974	-464	-19840	672	31136	2825	584	-947	-8088	24	14928	-1146	6564	-4292	-19696	-224	-1920	-39	1504	125	-17952	96	2048	447	976	-147	151	150	1
-32768	32767	-20584	-3628	-1319	260	-2616	8912	-30824	-2354	-675	-581	-21384	9152	32767	1043	-725	794	-8040	-352	14768	-1555	9893	-3853	-19808	312	-3576	-362	1786	146	-17864	2432	-144	435	935	-314	164	149	1
-32768	27860	-23332	273	3	1281	-4584	-2376	-24840	-2120	1352	194	-21200	11192	21216	335	234	1572	-8592	256	14456	-2448	13759	-3364	-19904	1424	-2608	-453	1972	90	-19264	7368	-8	368	819	-555	159	145	1
-32768	16908	1188	2877	535	2127	-17488	-3832	-22056	77	2600	658	-14176	1040	3328	-1443	377	341	-7584	-200	14336	-4454	17504	-4320	-21704	2944	-1360	-372	2127	109	-20520	5912	2160	447	490	-654	122	166	1
-12308	-26832	23528	2345	479	2738	-24592	-9848	19720	-807	2107	491	-12704	-320	2000	-1850	360	171	-10184	1176	14648	-8278	21122	-5992	-24120	344	184	98	2245	223	-21376	2344	5808	216	30	-547	123	189	1
-5328	-22080	-6784	1832	2725	1516	-31496	10592	7760	2281	1631	-263	-25000	520	10472	-293	18	-75	-11176	1408	15096	-13325	26002	-8246	-26808	752	2152	735	2416	276	-24040	3336	11096	434	-554	-534	122	175	1
-15700	9696	31788	1747	4109	256	-27352	10832	-2672	937	2211	279	-23672	-16704	3288	1761	2	-1778	-11912	1752	16344	-18062	32767	-10980	-30896	-768	7656	1381	2602	251	-25224	5288	17480	826	-1834	-517	114	166	1
-12840	18796	32767	502	2997	1264	-24152	5752	-5632	1024	2501	879	-22704	-18800	5104	1899	-152	-2040	-12320	2024	16352	-19469	32767	-11674	-32768	-3040	11256	2303	2739	319	-27520	-1936	19344	1754	-3255	-420	140	118	1
-11100	-32768	17480	1291	2993	574	-12840	144	-5736	-310	2365	728	-16232	27216	-16080	-1947	1481	-324	-25560	-1528	32767	-20568	32767	-20929	-26800	5456	-2856	2903	2640	670	-16432	-6616	9736	1883	-2634	-595	134	0	1
-19660	15476	32767	685	1484	462	-13936	-8656	-13896	547	2077	-341	-5840	-13288	-9016	-3603	-226	1150	-24464	1112	31016	-7325	32767	-19660	-28904	8592	-3304	3239	2994	641	-19800	2824	-2960	2458	-1384	277	112	0	1
-18152	-16100	14140	814	668	260	-22800	3096	-10040	924	1690	10	-18272	-29936	-13480	-51	1080	-78	-22920	4360	32767	-4606	32767	-19833	-28792	8192	1992	2102	2331	403	-29096	4432	-10392	2181	-1188	916	108	115	1
-8528	-2092	16160	767	235	246	-17872	1296	-7768	187	1457	99	-21640	-744	-10696	1820	1709	-604	-8224	8320	15344	-6762	32767	-22412	-23408	3808	3496	753	1716	56	-30072	616	-9488	827	-1723	1152	130	107	1
-7900	-2964	15424	560	50	163	-16176	200	-5128	12	1201	158	-19248	5720	-5584	621	1404	-121	-32768	16808	32767	-5095	32767	-21831	-14664	2656	-16288	-858	1419	451	-26448	-3912	-8880	-313	-2166	1288	132	105	1
-7540	-3068	14500	378	40	95	-17824	3608	-3864	107	855	100	-15840	1440	-1816	-156	1468	198	-26624	29392	32767	354	4641	-2302	-13744	4368	-10816	672	983	-154	-25912	-5288	-4520	-674	-2761	1333	119	122	1
-6380	-2612	14084	213	163	28	-18184	4424	-2320	-333	697	80	-17656	1336	-784	-86	1617	427	-11976	16536	28048	-4759	-15692	11288	-14864	-1376	-320	1020	203	118	-22816	-2360	-2880	-424	-2792	1489	124	123	1
-6560	-2588	14276	152	272	-23	-16712	880	-1832	-193	594	-101	-16232	3072	-184	-220	1534	567	752	2000	12752	-276	-18445	14933	-10032	1104	1176	1152	-479	-85	-22360	1776	-3840	-534	-2701	1558	127	121	1
-6704	-3300	13840	186	279	-52	-16192	-1864	-2712	326	529	-40	-15936	96	-552	-705	1511	524	120	-200	12344	5381	-16979	12465	-9008	5256	752	267	-1301	62	-21552	-24	-4152	-485	-2347	1680	124	119	1
-7760	-3636	14012	263	202	-36	-16040	-1272	-2664	685	530	16	-14760	-2296	-392	-856	1544	493	-5656	1208	18248	3296	-20762	7126	-8744	8488	-2328	-840	-1988	341	-19448	-3296	-4944	-325	-2191	1476	122	112	1
-7764	-3672	14024	226	137	-24	-15680	560	-2056	150	616	-11	-15336	-2568	-296	-812	1620	293	-9824	-408	24312	4792	-28712	4153	-8536	3272	-4328	-2049	-2650	444	-17096	-2624	-4648	-202	-2169	1233	127	113	1
-7132	-3292	13812	211	82	3	-15608	168	-960	-605	728	-18	-15576	-2472	176	-536	1621	319	-11704	-320	24552	13451	-32768	5279	-8824	-2064	-5320	-2408	-3079	28	-13856	-1144	-4680	-168	-2003	1258	121	120	1
-7328	-3076	14004	195	75	53	-16208	-1120	-768	-853	791	-31	-15480	-1552	1080	-260	1608	370	-10256	336	17480	18183	-32768	7874	-11312	-4432	-2232	-1744	-3495	-310	-13056	296	-5952	-254	-1844	1195	121	122	1
-7128	-2728	13984	220	40	64	-16104	-1208	-432	-843	790	-33	-14880	-864	1928	-324	1492	423	-11808	-1144	16208	19298	-32768	10639	-12384	-3792	-2584	-1308	-3928	-292	-10880	-1184	-6344	-575	-1740	1028	122	121	1
-7080	-2924	13880	269	-3	90	-15968	-2640	-656	72	718	66	-14296	-3312	2648	-533	1585	367	-13280	-3904	17208	21193	-32768	12583	-11944	-3464	-4624	-1252	-4341	-311	-10056	-2880	-7224	-1129	-1698	739	126	121	1
-7220	-3448	13800	264	13	129	-15752	-2152	-1664	580	698	76	-14776	-4560	2864	-469	1988	226	-14128	-7192	17608	24353	-32768	13998	-13592	-3768	-4464	-1323	-4781	-565	-8424	-2888	-7552	-1612	-1586	416	127	116	1
-7628	-2896	13836	221	13	148	-15928	376	-2608	394	740	110	-15336	-2960	2552	-311	2497	56	-14424	-9000	14912	27396	-32768	13758	-16792	-2632	-4912	-1346	-5072	-835	-7256	-4328	-8648	-1631	-1365	254	126	113	1
-7412	-2968	13856	202	22	176	-15672	592	-2512	-67	822	113	-16224	-368	296	-84	2326	10	-17328	-5424	17064	23834	-32768	11926	-20752	-712	-7136	-1050	-5273	-842	-6944	-5064	-8032	-1549	-1163	241	128	116	1
-7296	-2544	13804	182	44	191	-15576	544	-2512	-226	864	48	-16288	360	-3072	-38	1829	61	-18328	-4968	18312	22857	-32768	11743	-23832	1392	-10504	-923	-5309	-807	-6824	-5240	-4912	-1333	-949	237	126	122	1
-7420	-2208	13948	177	58	186	-16168	64	-3040	64	884	82	-15792	-2384	-2224	68	1645	182	-32768	6360	28136	17489	-32768	19563	-27720	4208	-12864	-1350	-5298	-974	-7304	-4112	-912	-1310	-656	231	131	124	1
-7460	-1980	14104	166	71	178	-15864	-64	-2768	399	939	99	-15360	-3096	-2096	321	1417	194	-32768	6008	26760	11501	-32768	28248	-26648	6080	-14432	-2114	-5170	-1137	-9776	-2288	1344	-923	-533	222	130	121	1
-7008	-1992	13940	176	90	195	-16320	-200	-2856	423	997	61	-16240	-792	-520	329	1203	171	-32768	-4744	24616	9423	-32768	32767	-27488	5320	-17008	-2978	-4814	-1505	-14728	2808	4840	84	-85	305	129	124	1
-7384	-2552	14016	209	152	269	-17584	-512	-2744	152	1112	92	-17216	-1304	112	-92	1103	219	-32768	-16584	18600	6219	-32768	32767	-27784	4320	-15472	-2285	-4106	-1950	-19000	7608	14856	163	275	498	130	123	1
-7492	-2632	14108	244	228	394	-17088	-1704	-1112	-106	1310	129	-17288	-3536	1432	-355	1045	160	-32768	-26208	7616	-90	-32125	23547	-24088	7992	-16648	-1095	-3342	-1697	-14760	8024	20504	-1973	733	1009	132	126	1
-7832	-2872	14240	344	349	577	-17760	-3208	-1432	-23	1507	189	-19536	-4448	2904	-512	939	20	-32768	-32768	-11712	4980	-23453	2997	-15096	8824	-23248	34	-2244	-729	-17488	416	30800	-3951	843	1397	130	122	1
-7336	-1376	14492	411	592	680	-18200	-2848	-1232	13	1531	194	-20672	-2920	2352	-751	633	-10	-32768	-32768	-26592	15607	-9759	-12250	-7120	5824	-24944	2041	-269	483	-18248	-8576	32767	-1605	-782	-690	129	127	1
-7436	-1440	14796	487	885	713	-19840	2512	-3256	26	1953	435	-18744	-2424	2072	-665	552	158	-32768	-17112	-17112	-7979	3692	-15835	-11960	9072	-21464	1371	1057	682	-16872	-7496	17896	997	299	-1545	128	127	1
-7996	-1696	14492	682	1375	661	-21288	824	-3184	31	2126	573	-19088	-4848	2016	-713	596	254	-32768	-12144	-8672	-15131	9533	-15439	-15848	6464	-8696	1051	2342	774	-13792	-3600	5592	2220	801	-101	127	135	1
-8516	-1948	13992	1012	2041	815	-21872	96	-2608	135	2242	578	-20072	-4048	2904	-709	423	304	13896	20984	32767	-14233	17907	-12980	-29560	-8824	19752	-962	1770	177	-17656	744	3216	2951	156	-154	130	158	1
-8948	-2032	15204	1543	2857	1078	-25000	904	-1184	-86	2394	535	-20304	-3776	3400	-670	399	307	-7592	10984	11384	-12259	30580	-4723	-27784	-4520	-16	-2328	1836	1193	-11856	6000	18064	2078	834	-225	122	99	1
-9892	-2508	15480	1790	3595	1349	-28848	1208	1976	-359	2517	562	-25568	-3032	9072	-380	-24	447	-18200	-12856	32767	-11371	32767	374	-24576	1896	-3272	-1367	2408	676	-21616	6096	6024	-1040	1090	443	119	87	1
-11540	-2036	15524	1815	4430	1843	-31832	1384	4416	-880	2507	503	-27520	-4080	14432	-275	-964	529	-13648	-3536	23936	-6059	23688	-4054	-21136	-824	-6144	-1951	2302	1033	-16072	-9312	-3448	-1478	769	641	118	105	1
-13900	-4596	21516	2440	6023	2772	-32768	952	12200	-2347	2603	694	-26000	1784	20232	-903	-3254	505	-10784	4880	14896	-4837	21483	-885	-14960	1432	-5456	-1134	2059	821	-12432	-15408	-14416	1840	1085	930	110	23	1
-26536	-5080	32767	2912	7174	3457	-23384	-6104	-2272	-3702	2600	433	-13960	11240	1240	-1435	-2092	704	-22368	-4512	25064	-6336	10494	-2920	-17296	14424	-12144	109	1455	1045	-16080	14264	-7264	3012	1186	90	107	10	1
-27188	-2644	32636	1350	7747	3402	-25472	-5416	-6936	-2999	3245	647	-22792	-1896	-864	-1581	-1948	-77	-10104	-3712	20296	-3093	5996	-1628	-23424	3440	-7416	-150	1406	919	-22040	18456	-12904	50	1771	196	118	101	1
-23072	-11344	32767	-490	6070	3619	-27416	-3464	-5784	-2205	2887	941	-26336	-9800	-11952	-2583	-1586	-984	-7696	1144	17576	-824	4721	-1143	-17888	5240	-4392	194	1182	429	-20160	1568	-9112	-1660	1495	206	121	150	1
-32768	9088	22944	-2	4566	3820	-20936	-2984	-4304	-1480	2302	550	-28808	-4032	-13840	-1103	-2271	-1103	-8280	736	17072	-567	4865	-1224	-17480	1288	-4000	-571	802	283	-17832	-2120	-3328	-1330	1465	-213	114	163	1
-23892	-31048	32767	-526	1502	1271	-17296	3792	-10192	-692	1404	402	-26936	184	-11720	714	-2407	-951	-7016	-376	15960	324	4344	-854	-18424	-2872	-4200	558	646	410	-16928	-3624	-608	-756	1534	-583	113	152	1
-10624	-23748	28192	-99	-635	-516	-15064	32	-3288	-1353	652	253	-25320	3848	-5816	1441	-3082	-858	-7048	24	15368	682	3163	-73	-18456	-2240	-4280	695	642	421	-17552	-4904	648	-37	1676	-484	119	152	1
-1980	-12864	15256	-219	-1216	-1290	-11008	-1616	832	-1160	-150	-221	-22320	2944	-3376	907	-3247	-929	-7064	904	15336	302	3150	294	-17680	-104	-2064	487	460	403	-17016	-3264	800	460	1790	-433	111	144	1
-1404	-6636	15684	-861	-1478	-1516	-7088	-2232	-2176	-783	-791	-374	-21592	1592	-4144	381	-3189	-878	-8064	1488	15384	158	3253	453	-16424	688	-1760	854	481	310	-15400	-320	-24	773	1801	-557	120	146	1
-4780	-6008	19472	-1116	-2247	-1447	-6872	-1928	-3648	-312	-1288	-770	-20056	2184	-2872	280	-2740	-862	-8000	1592	15040	411	2964	613	-16184	1568	-736	1499	573	351	-14848	2336	-1720	881	1884	-713	122	152	1
-5100	-5292	17028	-1140	-3201	-1342	-7904	-1568	-2536	409	-1858	-1146	-17144	2472	-5576	-84	-2358	-1116	-8128	2272	14928	230	2352	25	-15896	3296	80	2016	682	409	-15208	2664	-1864	632	1952	-676	123	145	1
-5476	-4672	14608	-1445	-3667	-1397	-8648	768	-2408	838	-2511	-1336	-15136	256	-6344	-180	-2262	-1034	-8048	1416	14776	81	1768	-510	-15504	2488	-496	2061	673	445	-15296	1768	-1720	328	2041	-632	117	141	1
-6756	-5432	14308	-1792	-3936	-1616	-9376	3432	-2040	832	-3019	-1495	-14152	-1136	-6256	-271	-2170	-929	-8344	888	15112	346	1184	-453	-16488	2240	-1488	1886	626	380	-14832	2248	-584	320	2176	-657	125	142	1
-8456	-5480	14884	-2101	-4116	-1967	-10400	3928	-2048	772	-3472	-1701	-12552	-1488	-7080	197	-1931	-761	-8168	568	14976	747	782	-55	-16240	3048	-1160	1465	566	275	-14704	3672	2928	751	2260	-757	127	142	1
-10548	-4400	17164	-2316	-4259	-2364	-11776	3768	-2968	840	-3879	-1866	-10904	864	-8336	874	-1776	-529	-7576	920	14400	945	730	135	-16152	2328	504	1112	570	192	-14232	5192	5328	742	2355	-704	125	141	1
-11708	-2060	18076	-2592	-4352	-2701	-12968	4928	-2072	1107	-4339	-1984	-9064	2528	-8264	1537	-1591	-167	-7456	2064	14280	507	734	-226	-15800	2616	2896	913	646	165	-18008	4280	3560	138	2207	-457	125	143	1
-13144	432	19240	-3028	-4201	-2941	-14632	7040	-3856	859	-4701	-1981	-6800	2728	-9184	1925	-1322	109	-7408	2208	14816	85	799	-949	-15288	2344	3200	905	789	210	-20448	5064	2096	-674	1560	-109	124	144	1
-15864	-72	20256	-3011	-3996	-3045	-17712	5776	-5656	339	-4951	-2013	-5912	3480	-10136	1945	-1008	183	-7784	2000	14816	-92	986	-1684	-16144	2552	1216	589	956	192	-17312	5200	4552	-327	1125	-267	124	150	1
-19956	-1008	25856	-2799	-3867	-3172	-21600	3224	-8752	612	-5247	-2199	-6080	4232	-10016	1696	-492	66	-7872	1256	14968	30	1586	-2031	-17552	1664	-1760	342	1017	219	-17296	4048	1864	245	1281	-342	126	158	1
-25536	-5548	30304	-2801	-3895	-3581	-24992	4184	-10688	1684	-5554	-2114	-6720	4264	-7408	1222	-162	-5	-7944	784	14896	57	1963	-2077	-17880	1120	-2848	23	1211	161	-15896	-1160	-1800	330	1479	-221	127	153	1
-32768	-4660	32052	-2614	-4004	-4402	-29904	7656	-14240	2320	-5740	-1746	-7104	1664	-3560	747	126	-67	-7832	1368	14496	-237	2139	-2099	-16752	1672	-2384	-243	1217	96	-14768	-2816	-2680	-43	1387	-133	130	149	1
-32768	4324	30876	-2432	-3931	-4933	-28720	5736	-18680	1775	-5649	-1099	-9200	-3488	760	381	257	-323	-8032	992	14504	-258	2317	-2411	-16392	1776	-1520	-242	1286	166	-14752	-728	-440	-58	1268	-135	131	151	1
-32768	12736	24512	-1871	-3802	-4627	-29072	4504	-19040	1469	-5231	-666	-16072	-3752	7840	126	140	-574	-7936	1168	14728	-610	3056	-3240	-18144	2168	-2048	-249	1309	215	-17672	1312	784	397	1250	28	132	156	1
-32768	18172	10180	-972	-3205	-3531	-26552	2568	-22880	1331	-4439	-445	-22712	-3176	21640	751	-682	-771	-8472	904	14800	-783	4846	-3323	-19472	688	-2624	-300	1513	147	-18216	2792	256	719	1131	-71	138	151	1
-32768	32767	-3576	-1095	-2544	-1355	-16536	6144	-30200	358	-3060	-514	-20384	-2448	29568	1854	707	-1152	-8168	656	14792	-766	7552	-3731	-19408	552	-2032	-143	1692	181	-17848	2208	600	771	987	-100	153	149	1
-32768	32767	-17548	-2910	-1423	515	-4304	9968	-32616	-1527	-839	-497	-20608	5640	32767	784	30	213	-8576	1136	14608	-1177	10464	-4200	-19568	872	-2184	-213	1842	180	-18200	3928	32	548	846	-266	159	148	1
-32768	32124	-24292	111	-74	1656	-4784	256	-27448	-2354	1336	76	-20112	12864	23504	-23	38	1376	-15760	56	15968	-2510	13298	-4327	-20048	1712	-2504	-432	2004	126	-18720	7208	1008	398	742	-455	159	151	1
-32768	16576	1552	2650	605	2479	-16752	-2360	-24896	-478	2527	436	-15040	3152	4408	-934	337	661	-10008	480	14136	-4649	16608	-4489	-21968	1392	-1520	-558	2189	110	-20104	4888	3496	445	490	-562	134	158	1
20808	-28096	23876	2760	338	1975	-18648	-4264	6424	-599	2905	924	-7040	-4888	-3792	-2734	507	-79	-9120	1616	14664	-8110	20102	-5563	-23632	-1360	144	-264	2322	233	-21568	744	6808	342	64	-518	128	210	1
29720	-32768	-6012	1491	1589	1095	-32768	-1640	32767	2443	882	-161	-13888	-1488	632	-811	143	-93	-10368	1632	15648	-12866	25607	-7191	-27560	-1160	2160	592	2527	289	-24600	1920	11864	491	-722	-612	109	180	1
-16108	1784	12568	2380	4230	120	-16128	12272	-6088	2046	1574	-362	-27472	-7600	-4264	1871	1449	-842	-11536	4160	16760	-17247	32767	-10611	-32376	-688	9568	1515	2769	286	-24600	4376	17952	1220	-2018	-639	112	173	1
-14676	32767	32767	1145	3616	1076	-31080	6952	-5472	1620	2310	1401	-28616	-6688	31128	3179	-71	-1827	-15672	2768	20912	-25545	32767	-18732	-32768	1432	12520	2537	2837	443	-25944	-152	20168	1804	-3329	-455	131	82	1
-19032	-18168	14884	-41	3177	1356	-22400	10936	-7256	477	2259	581	-21624	32767	-9880	290	2107	-284	-27704	4472	32767	-23843	32767	-21311	-28776	8856	-2392	2644	2874	755	-21200	-376	11152	2404	-2533	-360	143	0	1
-20132	1844	22432	1328	1628	151	-15104	-12472	-11336	-924	2467	42	-11280	3368	-16232	-4372	288	1172	-24624	3088	31192	-12183	32767	-19719	-31296	8960	-1544	2500	3096	454	-20976	7624	-3744	2361	-1212	384	133	0	1
-14352	-8964	15156	278	1120	420	-15912	-648	-11368	963	1765	15	-7024	-32768	-10576	-2460	530	674	-24184	5688	32767	-11973	32767	-18795	-28384	5824	3816	1418	2243	261	-28528	4344	-12128	1570	-1327	887	133	104	1
-8400	5544	23116	890	393	363	-15624	-1064	-8056	-60	1487	-41	-20656	-11632	-11952	1929	1736	-839	-7368	4312	12608	-12504	32767	-23118	-22928	5736	2880	267	1775	24	-29864	-416	-10552	288	-1814	1166	123	126	1
-9560	-7312	13868	776	250	223	-21352	1640	-4648	-20	1236	123	-21408	4824	-8560	1178	1468	-407	-32768	15712	32767	-2965	31114	-25821	-13640	6688	-20096	-1325	1644	501	-29648	-1064	-9776	42	-1942	1243	125	152	1
-7332	-3744	13888	696	309	242	-18080	3240	-5008	-230	1001	193	-18712	5496	-2872	191	1543	-6	-24336	30944	32767	-179	-3630	-7292	-15000	2848	-9488	247	940	-213	-27064	-4496	-3928	-883	-2884	1472	125	157	1
-6912	-2020	14804	425	332	133	-17080	4120	-1888	-49	636	83	-16504	3768	-1312	-423	1769	360	-8520	17392	22152	-1024	-19392	8749	-14912	-4384	656	432	109	-97	-23128	-1168	-4008	-567	-2761	1637	125	131	1
-7008	-2376	14380	282	373	36	-17392	3256	-1576	150	581	-99	-16552	2648	256	-249	1691	793	64	7216	9912	3338	-19884	15817	-9536	-1232	752	1180	-493	-459	-22776	1984	-4376	-856	-2737	1714	122	123	1
-7624	-2856	14156	251	334	-41	-16648	-624	-2864	427	575	-8	-15056	896	-1072	-316	1722	806	-1840	2920	13608	3307	-20225	14618	-7136	5840	-720	906	-1337	-186	-21024	-2312	-3096	-666	-2388	1732	126	124	1
-8432	-3932	13828	341	192	-24	-15936	-2928	-3280	861	479	24	-14696	-1840	-2560	-699	1883	541	-4928	-1472	19016	3100	-25359	9854	-6992	10248	-1480	-269	-1970	170	-18032	-3312	-5200	-641	-2203	1484	126	129	1
-8096	-3760	13944	379	61	45	-15208	-1136	-2272	384	531	54	-14952	-4480	-2568	-634	2073	333	-7448	-2176	22016	8630	-32445	6143	-7648	3480	-3112	-2034	-2736	220	-15400	-3560	-4288	-516	-2099	1277	123	127	1
-7576	-3616	13892	394	-30	111	-15344	-1488	-1344	-438	679	34	-15064	-4744	-1752	-316	2136	120	-8712	-888	19648	15325	-32768	5341	-8280	-2272	-3632	-2373	-3237	-201	-13672	-3304	-5312	-474	-1990	1132	124	134	1
-8004	-2704	13780	333	-66	143	-15696	-1752	-1256	-641	743	3	-14496	-2224	1032	-333	2180	162	-9688	800	15856	18192	-32768	7374	-10648	-5120	-2448	-1915	-3635	-332	-13672	-3240	-6112	-377	-1827	1002	121	137	1
-7224	-2344	13808	305	-84	134	-15512	-1168	-48	-291	736	115	-14384	-1032	2936	-802	2207	375	-10120	-512	15024	18327	-32768	10459	-11752	-4936	-2368	-1531	-4125	-256	-11552	-4312	-7168	-437	-1727	792	129	134	1
-6992	-2380	13664	266	-67	127	-15864	-1240	168	-194	739	124	-15680	-2712	6256	-676	2492	325	-12232	-4208	18064	20770	-32768	13036	-11576	-3728	-3872	-1846	-4535	-370	-9176	-4552	-8056	-705	-1692	435	129	132	1
-7468	-2928	13688	245	-42	159	-15648	-144	-96	294	774	126	-17352	-104	1984	-162	2143	89	-10208	-6848	13944	23920	-32768	14240	-14776	-4496	-3064	-1926	-4955	-761	-7408	-3520	-8664	-959	-1498	218	130	132	1
-7420	-3124	13748	225	-27	207	-14400	-240	-160	-12	931	116	-17288	720	-1888	-88	1552	-62	-13448	-7680	17968	21795	-32768	13207	-15424	-4904	-2936	-1989	-5022	-820	-8200	-4040	-9920	-1433	-1263	93	130	131	1
-7580	-2976	13688	217	-7	256	-15640	-2040	-1040	61	1042	132	-17528	-2752	1232	-17	1224	-92	-20368	-7944	30136	20192	-32768	13121	-20992	-384	-10864	-1480	-5397	-1210	-8864	-6544	-9192	-1369	-876	80	130	137	1
-7596	-2452	14116	204	18	270	-16784	-32	-3104	371	1119	163	-16584	-4936	1328	-154	967	-92	-25776	-2368	32168	19453	-32768	16901	-30488	216	-12736	-1928	-5467	-1600	-8576	-3696	-5376	-1089	-599	156	128	141	1
-7568	-2316	14040	202	21	272	-16640	904	-2808	272	1192	170	-14920	-2056	-3432	-86	888	51	-32768	2504	32767	10628	-32768	23878	-30592	2376	-15928	-1809	-5433	-2012	-8600	2680	-784	-1176	-404	455	130	139	1
-7628	-2008	14136	215	119	307	-16400	936	-3064	246	1197	163	-15152	-472	-3016	39	1006	180	-32768	-5120	26736	6487	-32768	31239	-27072	5112	-16152	-1889	-4995	-2365	-12016	3696	-472	-1146	-114	679	131	133	1
-7424	-2100	14172	218	185	350	-17024	-1032	-3704	207	1290	172	-16336	-1304	-1696	-49	999	147	-32768	-9728	19016	577	-32768	31124	-28408	8216	-16000	-2267	-4560	-2460	-15312	4008	5592	-1693	306	975	134	137	1
-7568	-2152	14140	308	251	465	-17712	-104	-3912	103	1379	191	-17288	-2336	-1512	-394	852	112	-32768	-14976	8680	-1126	-32768	23035	-28080	9736	-17752	-1671	-3938	-2083	-17216	2968	21368	-3245	124	834	135	140	1
-7252	-1380	14236	353	450	520	-19872	2072	-3336	-137	1488	246	-19192	-816	-816	-540	830	95	-32768	-28208	-6968	8950	-26952	8571	-17432	10576	-23152	-303	-2914	-1251	-15464	-7032	32767	-3997	305	158	132	142	1
-7260	-1396	14440	394	669	598	-19168	1312	-2440	-276	1679	280	-18280	-1816	1328	-570	808	148	-32768	-32768	-27600	15859	-13443	-6109	-8976	5816	-26976	1718	-960	-41	-18744	-11336	32767	-1825	-441	-1128	130	151	1
-7556	-752	14844	542	970	587	-18664	1072	-2744	-65	1828	389	-17976	-4088	2024	-652	698	185	-32768	-29360	-28128	-2543	2078	-13654	-7496	10912	-23744	2306	961	520	-18840	-6200	22272	920	281	-1458	131	160	1
-8460	-1064	14328	801	1443	546	-21056	-96	-2808	214	2000	603	-19896	-6760	2144	-642	633	262	-32768	-14008	2648	-12909	10064	-18642	-13016	12728	-19616	1677	2363	844	-15312	-4712	6744	2697	473	-285	136	155	1
-8748	-2144	14156	1162	2141	756	-22608	-1224	-1608	154	2186	606	-21448	-3808	4208	-645	339	375	-8352	22344	9344	-10708	17297	-15774	-22304	-1264	17680	364	2196	315	-9504	-3528	9488	3513	475	-558	127	125	1
-9520	-1680	14920	1590	2816	1127	-24056	1064	-248	-295	2350	468	-21968	-184	6320	-688	164	387	-7864	28080	6680	-6851	30361	-9785	-32768	-6880	12224	-2088	1480	773	-2016	1824	-19896	2907	1359	-738	123	121	1
-9592	-1952	14752	1675	3487	1489	-27056	392	2408	-865	2533	477	-24160	-392	10472	-759	-272	406	-10208	26344	4856	-7532	32767	-8268	-18808	4960	504	-1166	2015	1002	-11448	4928	-27248	2982	1663	-711	122	105	1
-11892	-572	14100	1690	4324	1982	-30176	2208	4824	-1345	2552	504	-23992	-744	11568	-855	-341	387	-18168	-15808	30304	-8735	29943	-2541	-29048	1216	-11704	-1960	2046	1397	-17920	4216	10904	-819	797	784	118	54	1
-16480	-4556	22968	2122	5977	2834	-32768	5088	9792	-3142	2648	651	-24016	-232	22592	-1829	-3708	459	-17624	3160	23648	-4565	21395	-1877	-20576	-2536	-4800	-1716	2193	645	-17896	-7088	-10928	1093	1158	1205	106	0	1
-26496	-3736	32767	2246	6996	3446	-24216	-7464	-2352	-4401	2690	585	-17344	6688	3328	-1945	-1775	791	-17160	1080	20456	-5647	10028	-1227	-16248	13152	-10152	-81	1913	1184	-13232	6584	-12152	609	1104	874	106	0	1
-28460	-1496	32767	594	7589	3568	-26296	-9520	-7064	-3069	3434	877	-22680	-8656	-3048	-1623	-2051	-131	-12744	-1448	18248	-251	5122	-1805	-17464	5336	-11088	-868	1326	740	-14408	10112	-11184	-341	1478	-301	122	67	1
-25452	-16412	32767	49	5341	3822	-29128	-4976	-5832	-1692	3022	1056	-28040	-8616	-12112	-1969	-1886	-1082	-8688	-1080	17472	-10	2828	-995	-20312	2928	-5992	525	1257	746	-22408	2208	-10480	-1158	1760	549	121	131	1
-32768	1424	32767	1292	2975	3792	-21096	-3056	-8328	-609	2444	671	-29328	-328	-14280	216	-2371	-1164	-7936	952	16056	228	1582	-524	-18432	3512	-3720	88	1051	445	-19384	1072	-5472	-1225	1375	-46	120	152	1
-18576	-30548	32767	142	540	1252	-18032	3432	-7816	-318	1399	526	-30104	1368	-10728	964	-2554	-1068	-6696	432	15552	463	1669	-405	-18032	528	-3088	-70	708	405	-15848	-1336	-1456	-936	1326	-330	122	138	1
-7980	-24360	22408	178	-733	-300	-15536	-152	-2232	-950	570	277	-26904	3256	-5584	1048	-3122	-1158	-6792	264	15312	857	2108	-115	-17992	-1336	-3000	379	609	407	-17608	-3688	608	-387	1433	-561	123	143	1
-6360	-21260	19568	192	-838	-463	-10168	-1360	-400	-570	-242	-131	-23632	2376	-4512	680	-3106	-1125	-6056	-176	15472	315	2393	95	-17784	-248	-1656	668	563	449	-16816	-3056	768	365	1556	-374	121	138	1
-1172	-14068	13996	-234	-1095	-1229	-5672	-2784	-3472	-382	-969	-332	-21560	1512	-4536	603	-2851	-1116	-6968	1352	15352	-570	2057	-180	-17264	1512	-1800	883	560	425	-16240	528	-216	877	1711	-261	120	132	1
-4324	-6964	18296	-922	-2433	-1568	-6088	-1528	-3648	31	-1521	-878	-19368	2344	-5688	618	-2409	-1130	-7672	1608	15000	-518	1678	-238	-16288	1864	-2216	1249	618	380	-15632	2144	-720	916	1633	-394	126	150	1
-3564	-4500	14228	-1376	-3094	-1513	-7560	-368	-1928	531	-2146	-1170	-17152	3328	-6088	460	-2261	-1103	-7576	1176	15144	-424	1378	-362	-16048	2232	-808	1415	687	316	-15608	1384	-536	714	1604	-504	124	141	1
-5232	-4500	14096	-1842	-3442	-1563	-7672	-96	-1904	593	-2238	-1201	-13984	3040	-5432	333	-2170	-891	-7456	1184	15368	-557	1008	-738	-16064	2008	-312	1378	693	360	-15328	576	680	768	1591	-500	123	140	1
-7000	-4100	15328	-2161	-3756	-1758	-8456	4272	-1984	650	-3134	-1755	-13280	2696	-6112	198	-1991	-737	-7392	936	15232	-428	881	-901	-16400	1296	-400	1283	678	353	-15176	1440	2080	747	1605	-480	124	140	1
-8292	-2656	16004	-2534	-3954	-2030	-10648	5496	-1680	337	-3509	-1967	-11872	2416	-6896	498	-1840	-556	-7472	440	15264	-207	784	-927	-16224	1560	-712	1020	576	334	-15424	1120	2184	768	1485	-555	126	142	1
-9332	-1436	16792	-2830	-3990	-2313	-12336	5496	-1904	507	-3867	-2186	-10056	3440	-6880	1038	-1705	-323	-7048	920	15072	-19	853	-937	-16592	1712	-944	766	555	304	-15928	2640	1912	864	1446	-606	125	139	1
-10520	1864	19644	-3065	-3950	-2576	-13408	7784	-2736	666	-4232	-2261	-8080	4104	-7656	1362	-1629	-72	-7472	984	14832	221	959	-1024	-16136	1936	-1176	595	555	286	-16064	3736	928	777	1520	-555	124	142	1
-11684	4016	20484	-3232	-3796	-2645	-15536	8608	-2768	249	-4506	-2231	-6872	2696	-8616	1557	-1408	152	-7376	1144	14776	588	1031	-1100	-16328	1776	-1168	537	618	248	-15424	2336	2216	389	1376	-326	125	135	1
-14044	3212	22584	-3023	-3651	-2620	-18760	6752	-6192	140	-4786	-2309	-6808	2992	-9352	1562	-1113	191	-7456	1096	15056	577	955	-1326	-16640	1424	-1000	608	596	228	-15848	3416	840	283	1539	-381	125	147	1
-17760	932	25484	-2846	-3498	-2794	-21312	6008	-7592	905	-5088	-2303	-7176	3656	-7992	1328	-691	124	-7456	816	14936	440	917	-1610	-16544	2144	-1280	571	799	330	-15536	3472	2248	91	1415	-394	126	148	1
-18492	132	26216	-2798	-3483	-2861	-24584	5936	-10192	1583	-5342	-2145	-7728	3584	-6064	857	-198	-43	-7376	1144	15032	432	1015	-1603	-16088	1496	-872	184	863	251	-15608	2648	2480	-211	1441	-348	127	147	1
-31144	-3596	32767	-2346	-3885	-4164	-29376	7264	-13632	1966	-5561	-1715	-7944	1616	-3632	35	155	-213	-7408	952	14920	599	1514	-1612	-17208	1352	-856	-108	969	187	-16528	1632	2688	-181	1444	-370	129	144	1
-32768	4040	31364	-2060	-4096	-4822	-29624	5832	-15952	2260	-5626	-1106	-10728	-3696	-248	-505	324	-404	-7576	920	15128	260	1649	-1844	-17824	1496	-1800	-103	1142	195	-16752	1616	2376	70	1473	-315	129	142	1
-32768	10904	25216	-1310	-3861	-4696	-30656	4248	-18000	2292	-5349	-427	-15976	-6168	5320	-364	392	-594	-7544	824	14864	1304	3321	-1632	-17576	-144	-3424	227	1296	145	-16656	728	2344	348	1510	-318	127	152	1
-32768	12420	10848	-191	-3326	-3863	-26952	1696	-20568	2309	-4557	-83	-19880	-6648	18440	952	-86	-893	-7688	112	15344	2181	5528	-1060	-18360	-1304	-2920	1021	1557	115	-16760	-1432	800	836	1529	-358	133	151	1
-32768	31528	-6068	-552	-2386	-1955	-17456	6608	-29432	1467	-3294	-234	-20952	-4032	27592	3341	753	-1365	-6928	272	15328	364	6678	-2184	-19936	2712	-1992	868	1516	293	-18136	1648	912	1136	1583	-355	148	152	1
-32768	32767	-17512	-3676	-1108	-274	-15904	8176	-32408	1129	-2938	-328	-19112	7504	32767	2036	-546	500	-7448	-144	14880	-401	9049	-2741	-19432	664	-3208	-7	1633	171	-17784	5632	432	458	1495	-283	165	154	1
-32768	30508	-25696	-630	280	886	-4504	-2136	-25528	-2858	1232	199	-18600	10064	32767	1578	-651	836	-8232	72	14816	-1439	12011	-2233	-20016	1216	-3224	-482	1803	-43	-19664	7144	-376	-135	1353	-512	162	152	1
-32768	32767	-12076	1615	1682	3083	-23416	-9112	-15680	-1604	2489	587	-12880	4920	2328	-889	625	820	-9336	1600	14552	-2756	15642	-2804	-22176	912	-2248	-399	1974	-87	-21040	5328	400	-298	1145	-741	142	163	1
4496	-32768	30716	2825	1088	2613	-25424	-8936	24688	-107	1881	188	-11896	-3832	-5600	-3416	410	-123	-9576	1728	14440	-4648	20346	-3784	-23608	24	-1056	104	2101	-8	-21840	4104	2984	-252	722	-712	125	172	1
-9060	-23716	-4908	2604	3245	825	-25864	-7312	23936	638	1607	90	-22864	-2920	-3056	-507	741	-564	-10272	2064	15600	-8061	24340	-5657	-26168	920	1248	543	2267	-33	-24040	4416	8224	207	49	-660	120	155	1
-18712	20364	32767	1997	3787	-405	-24480	14728	-3712	2578	2239	324	-32768	-19104	32767	2825	-2818	-2061	-11096	2112	18024	-13718	30534	-8209	-28664	-672	7104	1035	2456	-58	-25536	4768	15024	464	-1166	-687	109	135	1
-5676	31988	32767	298	2461	1286	-25472	16304	-3064	1837	2468	817	-6440	10344	-1568	2870	1214	-2199	-12960	6184	19008	-20351	32767	-14037	-32768	984	14240	1827	2763	-25	-27328	-96	19440	1137	-2878	-593	129	115	1
-11252	-27640	-664	-44	2665	884	-11464	2008	-3184	-935	2569	889	-19000	32767	-22984	-1368	2155	653	-22232	1824	29712	-27320	32767	-23274	-32768	1520	14736	1916	2763	23	-18328	-4360	16968	1156	-2953	-405	143	10	1
-19288	500	26380	1353	1884	422	-6952	-16128	-14424	-485	2061	-478	-4600	6528	-12632	-3813	-426	1277	-24280	1336	29672	-17231	32767	-22010	-27608	4256	152	2368	3186	294	-17648	3144	5376	1973	-2063	378	121	0	1
-19232	-7288	17404	283	898	292	-32768	-8000	-4824	1240	1589	-554	-14648	-32768	-6464	-3666	529	180	-26776	4496	32767	-13914	32767	-21166	-31864	11560	-2040	1577	2796	191	-26544	4880	-7104	1854	-1252	1098	121	59	1
-7824	1648	19568	647	242	268	-26408	2240	-6744	-205	1603	115	-25232	-9960	-12472	1431	1998	-1397	-19416	10096	31544	-17722	32767	-23040	-25024	4600	3360	79	2182	96	-29856	424	-10448	999	-1519	1139	120	129	1
-9360	-5332	14692	557	10	150	-12832	-3312	-4616	-824	1344	-87	-18176	3864	-4544	365	1505	-135	-32768	-6512	22216	-30892	32767	-29683	-21152	7240	-2776	-1289	1658	426	-28936	-3416	-8784	54	-2068	1296	141	181	1
-7584	-3500	14432	480	-52	163	-16416	-592	-3120	-137	944	105	-14544	-1104	-504	-418	1404	111	-28776	13480	32767	-5172	14050	-18155	-13592	3200	-14768	-1282	1172	297	-26240	-3568	-5520	-696	-2574	1360	127	203	1
-6600	-2412	14064	324	4	96	-18232	5200	-2040	130	780	88	-17944	392	-584	75	1529	577	-15984	21752	32767	8892	-10680	-1721	-16008	-3912	-3232	426	800	-133	-23936	-4056	-3392	-1174	-2960	1480	121	198	1
-6672	-2696	13880	237	116	33	-17392	1584	-2200	15	734	123	-16864	3160	168	40	1595	540	-4816	13368	16656	8881	-19327	9819	-12464	-4248	776	967	10	-32	-22808	-3784	-2560	-1042	-2979	1505	122	184	1
-6924	-3080	13648	189	227	-23	-16184	-376	-2824	664	554	22	-14872	2312	-80	-467	1477	418	-864	5752	11312	3407	-21786	12634	-8992	-144	832	1312	-779	19	-21232	-4832	-3576	-774	-3042	1509	121	170	1
-6988	-3584	13420	247	308	-33	-17104	144	-2816	1002	489	35	-16040	-1880	-1632	-734	1623	427	-256	-2240	13992	3058	-23218	10223	-7312	3392	-1392	975	-1505	446	-19600	-5816	-3560	-153	-2576	1426	133	160	1
-7812	-3712	13780	299	306	-4	-16160	392	-3240	646	517	33	-15328	-1984	-1064	-456	1800	487	-712	-5352	15992	10583	-24630	6473	-8856	4280	-1272	29	-2088	464	-17544	-3136	-4560	240	-2470	1221	124	152	1
-7948	-3476	13972	229	255	10	-14680	544	-2600	-164	593	-29	-15344	-1472	-952	-312	1812	342	-2352	-3016	17272	15485	-27176	3319	-8536	224	-1856	-784	-2783	358	-15312	-1776	-5200	421	-2207	1201	119	150	1
-7740	-3100	14004	149	207	27	-15864	136	-1528	-759	675	-97	-16016	376	-200	-146	1881	273	-4568	-816	17624	17398	-30503	2766	-8800	-1688	-1664	-1039	-3328	227	-14216	136	-6392	473	-1987	1179	119	146	1
-7576	-2612	14008	96	158	17	-16408	-768	-1264	-736	713	-98	-14984	664	488	-278	1835	380	-7232	104	19328	19808	-32768	4941	-10136	-1840	-4200	-1152	-3866	197	-10592	1360	-6992	274	-1732	1156	123	143	1
-7624	-2596	13960	50	142	-1	-15848	-1480	-1488	-309	680	-36	-14440	-2120	904	-492	1761	500	-10024	552	20360	22403	-32768	8954	-10856	-1592	-4280	-1296	-4302	5	-10872	-288	-8440	71	-1552	940	124	141	1
-7452	-2900	13664	35	142	-3	-16104	-960	-1576	4	610	-18	-14304	-5104	912	-391	2010	356	-11472	136	17200	23967	-32768	12803	-11560	-240	-1808	-1997	-4725	-213	-9296	-568	-9184	-520	-1376	613	127	133	1
-7652	-3032	13828	71	117	21	-16216	-608	-2472	-37	632	8	-14368	-5328	1648	-106	2441	197	-12280	-1360	11336	26275	-32768	15846	-13200	-792	-3728	-3070	-5141	-521	-7184	-3088	-10384	-1077	-1114	367	128	115	1
-7640	-2756	13844	111	87	59	-15728	-856	-1208	-288	706	34	-15464	-3096	2584	197	2582	93	-17720	-1304	15808	25146	-30775	18982	-18432	-464	-9544	-2963	-5289	-888	-6528	-6192	-11152	-1457	-839	292	127	109	1
-7572	-2520	13796	214	41	132	-15416	-1800	-976	-172	806	52	-17104	48	-1288	363	1968	83	-23072	-2464	26552	22095	-30639	22636	-17704	336	-9528	-2471	-5375	-1293	-6240	-8400	-9464	-1245	-612	178	128	112	1
-7560	-2900	13600	276	-11	191	-14976	-1504	-912	271	887	83	-16696	-656	-1520	287	1413	98	-28360	-208	32408	17269	-32768	24899	-30672	2504	-11816	-2054	-5447	-1300	-5832	-5376	-3616	-1026	-522	92	128	115	1
-7484	-2140	14016	279	-1	220	-15936	-256	-2352	535	994	89	-17480	-1632	1208	225	1173	81	-32768	-2088	32767	12507	-32768	27465	-29640	4832	-14848	-1550	-5424	-1610	-7416	1608	304	-1064	-466	287	129	114	1
-7572	-2548	13920	261	56	262	-17688	96	-2824	211	1136	133	-17280	-2240	328	-262	898	75	-32768	-10712	29472	13095	-32768	29703	-27440	7376	-17376	-1530	-5158	-1832	-10920	6064	1464	-837	-59	402	128	116	1
-7800	-3044	13572	279	126	359	-17216	-1192	-2288	-54	1237	145	-16624	-2344	-1776	-483	901	47	-32768	-18864	20384	11103	-32768	26226	-29240	4488	-17360	-1292	-4602	-2186	-19552	8768	9544	-914	180	927	128	122	1
-7716	-2436	13972	294	223	465	-17120	-1592	-1960	-18	1363	134	-17080	-2704	376	-542	943	-36	-32768	-24000	11224	7875	-32768	14873	-27088	5408	-17160	464	-3840	-1744	-20840	6112	18216	-2700	538	1171	127	130	1
-8024	-2712	14124	348	388	560	-18728	-1224	-1992	30	1535	248	-19736	-2240	1616	-742	854	1	-32768	-32448	-8928	13108	-27206	-2715	-16632	10224	-25904	1888	-2889	-656	-18744	-7448	32767	-3439	581	1025	129	131	1
-8428	-1924	13972	418	645	616	-21424	2864	-2024	20	1756	293	-19680	-2232	2992	-850	679	60	-32768	-32768	-32248	26811	-13296	-14812	-7256	5504	-29224	3509	-485	560	-15296	-6048	32767	-1222	-700	-835	130	124	1
-7332	-1388	14896	507	1004	557	-19056	2456	-2080	-24	1976	413	-18704	-3088	3104	-648	601	191	-32768	-18064	-30712	-2112	5243	-15593	-9736	12184	-23320	2302	1325	701	-16944	-7776	20712	1671	676	-1803	128	139	1
-8620	-928	14200	709	1508	449	-21368	168	-2512	276	2168	514	-20168	-6416	2656	-577	642	317	-16512	288	8992	-28130	16383	-20076	-21208	10816	-2872	1056	2165	747	-15248	-5328	3008	3128	1032	-54	127	146	1
-9764	-1828	14008	972	2231	597	-23312	368	-2472	430	2325	551	-22328	-5248	3624	-636	320	396	-744	29080	16816	-20094	22454	-11038	-30520	-9224	14952	-2025	1502	229	-19616	2760	-560	3472	817	-176	133	125	1
-9052	-3036	15148	1223	3044	940	-26896	1768	680	-169	2489	535	-23088	-456	5768	-327	144	372	-12824	2344	14576	-18346	32767	3859	-20120	-7176	-2048	-3200	1844	1047	-5968	16944	15928	2070	1221	228	118	95	1
-9916	-3024	14004	1315	3897	1447	-28496	832	3768	-894	2648	496	-24936	-336	11048	-425	-433	532	-14808	-32768	32767	-12625	30760	-861	-28384	968	-7392	-2563	2398	595	-28160	10432	6512	-2737	564	899	119	85	1
-11792	-3628	15540	1502	5209	2080	-32528	-200	7992	-1679	2620	577	-26048	-1144	16968	-349	-1478	583	-12312	-32328	32320	-10601	28973	-3332	-21456	-7592	-4992	-2425	2294	579	-15936	-22408	-8832	-2264	696	936	113	0	1
-20340	-5508	25840	2476	6678	3057	-31656	-1504	5280	-2528	2726	667	-22560	3112	16008	-1596	-3737	586	-32768	3456	15464	-4211	23662	1705	-16160	13296	-9232	130	1736	1020	-14168	-17240	-9288	3644	264	-355	107	0	1
-26600	-940	28268	2546	7400	3452	-23528	-6672	-544	-3369	3032	541	-18368	5184	2320	-1986	-1923	648	-18720	-3288	29568	-1281	11059	-2318	-16752	7008	-10328	-693	1554	1161	-15496	24032	-14984	3241	1352	206	107	0	1
-19672	-2584	32767	1284	7907	3277	-27800	-4320	-6448	-2219	2994	735	-21856	-7192	-6488	-1832	-1873	-541	-9536	-5152	19696	-2311	3339	-2475	-19592	3776	-6696	769	1447	920	-16664	27064	-14840	2428	1540	366	121	64	1
-21652	-13884	32767	-1185	5593	3378	-26864	-1336	-4408	-2159	2827	1174	-28552	-9768	-13208	-2394	-1793	-1108	-8640	1464	15624	-787	852	-1419	-18672	4992	-3240	460	1210	360	-20592	-880	-8896	-1666	1371	105	120	154	1
-32768	-3008	32767	376	2778	3317	-18112	-4360	-10848	-1065	2213	686	-26440	-4256	-13216	110	-2415	-1085	-7936	1808	15424	-248	817	-1296	-18240	832	-2856	227	867	302	-18080	-3072	-3160	-1148	1398	-333	116	152	1
-18336	-29796	32767	-190	-206	945	-15864	1176	-7904	-586	1180	510	-28112	-128	-9464	1464	-2613	-950	-7768	376	15232	119	993	-751	-18216	-880	-2888	642	725	357	-16624	-4696	-504	-304	1535	-421	118	167	1
-5884	-19248	20348	295	-1471	-241	-14792	-1088	96	-845	387	294	-28144	864	-8336	1545	-2732	-956	-7496	680	15088	247	1619	-48	-18488	856	-1864	353	637	396	-17920	-4400	1160	422	1635	-430	114	165	1
1504	-10884	10836	-180	-1483	-681	-10432	-512	-192	-795	-434	11	-22336	976	-3968	985	-3151	-845	-7600	952	14904	308	2087	408	-17200	648	-2280	249	616	319	-16088	-1096	680	959	1736	-430	118	161	1
-1812	-9112	14364	-650	-1674	-890	-6112	-1120	-2784	-707	-1066	-127	-21456	-608	-7968	690	-2839	-820	-8240	1664	14880	349	2028	695	-16736	1816	-880	812	706	234	-14928	2072	-1128	1136	1681	-594	119	157	1
-5568	-9472	17824	-735	-2527	-1056	-6552	-2304	-3592	-443	-1553	-592	-19416	808	-4896	453	-2511	-1066	-8392	1976	14944	425	1761	525	-15912	2096	-224	1478	797	353	-15488	3040	-1536	1015	1722	-668	125	155	1
-6020	-8416	15668	-837	-3312	-1285	-8080	-1776	-3072	355	-2196	-905	-16712	1760	-6376	567	-2128	-1014	-8336	1992	14920	267	1326	2	-15984	2120	-208	1574	815	370	-16072	3288	-1640	962	1748	-650	123	151	1
-6480	-7792	13764	-1156	-3731	-1606	-8352	752	-2744	860	-2770	-1006	-16752	96	-6680	367	-2120	-925	-8128	2032	15160	321	1168	-98	-16400	3456	168	2258	814	391	-14920	4064	-704	531	1731	-525	121	149	1
-8252	-6676	14408	-1470	-3996	-1925	-9208	2072	-3248	639	-3321	-1194	-12008	-1744	-7360	481	-1962	-884	-8232	1312	14336	155	666	-675	-16440	4064	-696	1768	673	358	-14952	3288	688	511	1756	-626	127	148	1
-11340	-4784	16692	-1786	-4368	-2171	-10384	1144	-4096	511	-3710	-1470	-12144	-2336	-7728	1162	-1624	-634	-8240	1288	14624	258	560	-507	-16040	3392	-832	1024	601	206	-14488	3944	2576	711	1874	-717	128	143	1
-13628	-2972	17316	-2151	-4681	-2320	-11504	624	-4944	952	-4123	-1706	-10856	-240	-9376	1902	-1664	-461	-7944	1576	14440	434	575	-431	-16504	2064	-568	695	633	115	-14816	4304	5016	570	2164	-562	125	143	1
-14984	-1824	16084	-2553	-4754	-2506	-13016	3160	-4520	1515	-4578	-1801	-9176	2200	-9912	2455	-1505	-144	-7808	1696	14528	464	718	-558	-16368	1712	-152	807	704	131	-16208	2552	1208	438	2140	-231	127	140	1
-15084	-1548	15148	-2610	-4724	-2545	-15048	5568	-4792	1337	-4877	-1685	-8968	2488	-9832	2498	-1466	-101	-7736	1632	14520	142	756	-1097	-15928	1816	-192	989	763	200	-17952	3488	-1808	-83	1717	-143	127	139	1
-18756	-4488	16328	-2369	-3776	-2956	-18216	5184	-8912	848	-5072	-1690	-6440	5072	-10768	1915	-792	39	-8080	1368	14376	-1	767	-1519	-15976	2088	-912	741	906	222	-16408	2784	1416	13	1304	-561	125	139	1
-23648	-6532	22944	-2112	-3599	-3404	-20584	2448	-10432	1278	-5342	-1818	-6928	6592	-8440	1008	-353	-61	-7936	1472	14848	121	1031	-1553	-16752	2040	-1888	435	857	190	-16992	3648	824	61	1328	-411	126	140	1
-30796	-9804	29524	-2041	-3661	-4113	-26200	2928	-12680	1916	-5547	-1778	-6760	6400	-5728	299	-45	-177	-8280	1272	14776	313	1612	-1502	-17216	1384	-2256	75	1051	192	-16072	448	-856	-43	1437	-260	127	142	1
-32768	-4992	32616	-2029	-4004	-4903	-29008	1896	-16184	2298	-5645	-1544	-6552	2192	-2656	64	125	-193	-8280	1296	14200	264	2144	-1405	-16968	1288	-1944	-174	1095	120	-15664	-592	-392	-57	1323	-281	128	143	1
-32768	6040	26720	-2078	-4092	-5063	-27816	1688	-17984	2410	-5596	-1046	-10288	-3432	-280	-25	368	-332	-7824	1776	13840	211	2852	-1868	-17584	2576	-1896	-134	1200	179	-16696	616	248	86	1348	-287	132	145	1
-32768	13060	20436	-1676	-3755	-4458	-29656	5384	-18992	2140	-5147	-599	-18112	-4720	6120	391	461	-570	-8600	1304	14256	366	4256	-2333	-18664	2216	-2528	-103	1275	189	-17416	2696	-24	276	1299	-205	133	144	1
-32768	18620	11324	-931	-3120	-3361	-26024	3616	-23712	1157	-4444	-374	-22696	-4776	19952	1613	-562	-1049	-8376	1376	14616	-219	6118	-2570	-19344	424	-1896	-84	1452	148	-18776	3000	656	455	1201	-183	142	139	1
-32768	32767	-3392	-1652	-2540	-1085	-15080	6056	-32768	-552	-2816	-681	-19248	816	32767	2953	497	-1511	-8696	1184	14512	-314	8589	-2793	-19096	488	-2384	-103	1635	155	-17296	2016	864	504	1029	-170	155	140	1
-32768	32767	-24500	-3831	-1341	730	-2088	9712	-31184	-2838	-312	-625	-20152	8848	32767	135	-271	490	-9256	728	14584	-533	11430	-2360	-18888	-32	-3320	-396	1779	113	-17448	2472	-368	495	921	-331	163	139	1
-32768	29144	-24008	-55	126	2204	-5536	-4864	-24760	-2993	1679	229	-21760	14336	20080	-707	346	1616	-10048	984	13976	-1886	14508	-1457	-20408	512	-3456	-383	1956	15	-18688	5632	-816	542	822	-620	148	147	1
-32768	12720	3384	2955	514	3150	-8072	-6352	-24072	-2755	1934	320	-10528	-520	4288	-2282	129	417	-10160	1376	13608	-3450	17442	-1353	-21584	-608	-3096	-268	2069	55	-19784	1512	1400	643	502	-727	141	174	1
9960	-32768	28508	1799	382	2098	-27184	-8312	32767	-543	1802	859	-9920	-10176	-4304	-3302	-5	-260	-10208	1168	13952	-5354	21206	-1836	-23352	-3920	-2008	485	2174	92	-21936	-2520	5088	665	46	-713	110	174	1
-4524	-16300	-16260	2579	3305	1210	-26376	6856	6904	3096	1803	-333	-24144	-7136	13032	-175	-40	-483	-11120	2336	15104	-7487	26777	-3065	-26784	-1248	2448	1555	2351	123	-23960	776	11416	856	-797	-890	126	161	1
-20100	22304	32767	1702	4440	122	-22480	7912	-4880	1807	2473	529	-24328	-20200	5536	4705	18	-2488	-10736	4080	18096	-10765	32767	-6169	-30776	-16	10928	2546	2617	75	-24560	4456	15392	1632	-1733	-866	111	129	1
-12880	12856	32767	529	3176	1622	-25728	6176	-7792	2127	2609	955	-18512	17184	9768	2226	1250	-925	-14480	3536	20016	-14719	32767	-13422	-30616	6352	12224	2733	2674	190	-25256	2232	17744	1962	-2718	-539	134	66	1
-23736	-32768	20956	1630	2647	527	-12888	-1624	-13192	-327	2629	696	-16408	32767	-14768	-1994	1241	71	-28376	5184	32767	-12864	32767	-17214	-27360	10664	-1168	1887	2917	456	-18560	5712	8280	2360	-2545	-39	133	3	1
-14752	22352	32767	491	1216	676	-12688	1352	-16360	933	2131	-537	-3512	-7952	-12920	-5214	-636	982	-24968	2216	29952	-7057	32767	-17538	-32400	10048	-1784	713	2812	302	-21264	8024	-240	1815	-1652	514	111	15	1
-12692	-7972	17260	831	337	239	-25704	6984	-9464	-716	2028	87	-24816	-32768	-15536	-1747	865	-337	-23832	7552	32767	-2829	32767	-18028	-28856	7976	-752	-67	2317	239	-28984	1384	-9504	946	-1276	881	122	132	1
-11056	-6368	14420	617	142	151	-16184	-2104	-7864	-1410	1595	-354	-21464	-6896	-10520	689	1641	-659	-14320	10248	24184	1085	32767	-22556	-23448	3472	1248	-573	2100	272	-30448	-1816	-9192	264	-1875	973	119	149	1
-7920	-3768	14336	422	35	109	-17728	-3312	-5344	-568	1250	34	-20288	1872	-5120	99	1504	111	-32768	17360	32767	4431	21739	-25418	-17288	6592	-14032	-958	1655	359	-26992	-2296	-8008	-458	-2289	1200	125	133	1
-6696	-2708	14012	296	66	68	-17408	1384	-3592	226	846	-79	-16048	-224	-3520	-229	1541	241	-19608	23184	32767	3415	-2995	-17197	-15768	6400	-4440	360	1025	-56	-26472	-4096	-4264	-713	-2708	1362	135	145	1
-6152	-2468	13904	246	185	35	-17920	2312	-2296	547	655	119	-18568	80	-1592	9	1636	546	-7520	15816	23280	-3059	-15912	-9578	-15624	1120	224	370	253	305	-23048	-2416	-3664	-762	-2790	1479	123	139	1
-6880	-3016	13776	287	289	20	-17240	1520	-4888	858	565	42	-16704	88	-1488	82	1531	761	-1120	9664	12472	-2659	-18276	-3926	-10808	-3128	-224	396	-366	-140	-22320	-208	-4320	-754	-2768	1475	127	134	1
-8268	-3220	14056	329	290	-12	-16704	1416	-5096	797	396	1	-16736	1232	-2096	-12	1755	734	-2136	8032	12544	1678	-18024	415	-8136	-1688	-1200	679	-945	-235	-21168	-2112	-3264	-698	-2595	1584	131	130	1
-7856	-3484	13860	236	230	-32	-15696	1200	-3592	252	434	0	-15200	520	-832	-454	1910	512	-5144	7800	16840	3612	-20680	3312	-7784	2104	-2944	765	-1650	-7	-17992	-4328	-3912	-357	-2318	1461	128	127	1
-7816	-3136	14128	175	178	-26	-15352	120	-2416	-489	529	-45	-15368	-1704	280	-647	1865	385	-5816	7768	17584	3732	-21526	3745	-7664	2896	-3208	551	-2227	83	-16328	-2936	-4520	-69	-2276	1266	122	127	1
-7700	-3100	13868	108	135	-22	-15672	-1120	-936	-771	607	-45	-15072	-2296	1448	-594	1881	235	-7016	3504	17704	8729	-31430	7972	-7784	2888	-2800	468	-2302	91	-14952	-1296	-5360	-17	-2108	1232	124	126	1
-7504	-3184	13832	62	127	-22	-16032	-2200	-320	-524	627	-28	-15448	-1552	2208	-381	1780	294	-7792	2552	16472	11747	-32768	9227	-9672	1152	-1480	-382	-3403	50	-14176	-400	-6704	-25	-1962	1187	124	125	1
-7308	-2640	13892	56	122	2	-15808	-1720	-136	-24	599	-16	-14144	-864	2792	-310	1713	308	-10008	1016	18624	15123	-32768	10514	-10552	1776	-2448	-823	-3886	103	-13024	-96	-8080	-147	-1783	1068	122	123	1
-7304	-2932	13832	120	101	33	-15768	-784	-1376	253	677	-12	-12568	-1856	3728	-468	2005	335	-13296	1288	21112	17787	-32768	11911	-11184	2096	-3528	-1343	-4334	35	-9680	-1248	-8560	-481	-1675	831	125	123	1
-7444	-3200	13620	183	58	85	-15448	-1184	-1824	15	720	19	-14552	-5096	5616	-510	2775	203	-12168	-888	16176	20406	-32768	13325	-12800	1744	-1800	-2301	-4843	-133	-7840	-1432	-9168	-762	-1537	598	130	127	1
-7660	-3212	13568	218	15	146	-32768	32767	32767	-696	699	847	-17432	-7056	1736	-886	2696	339	-6136	-11816	6208	18239	-32768	18823	-16224	-944	-4632	-4212	-5253	-479	-7632	-2600	-10504	-1147	-1290	401	128	125	1
-9604	-540	16020	77	38	173	9640	-32768	-30344	-3708	2159	1020	-16128	-1616	-5624	-375	1640	-7	-22056	-608	21136	28485	-32768	19074	-19744	-96	-10848	-3161	-5155	-1205	-7032	-6224	-10688	-1351	-997	359	131	126	1
-7384	-1964	13828	148	36	130	-18384	13248	-8920	368	461	923	-14944	2536	-3904	566	1431	49	-24440	920	22320	18522	-32768	23367	-20600	672	-9456	-3086	-5374	-1408	-6880	-8600	-7592	-909	-813	289	131	129	1
-7140	-2104	13868	144	93	147	-17768	848	-3048	29	528	-68	-14752	-40	-1040	329	1443	329	-28952	-576	29984	12897	-32768	27182	-31008	-16	-12112	-2363	-5320	-1674	-5952	-2784	-2448	-744	-626	312	133	129	1
-7364	-1812	13952	139	95	137	-16992	336	-3256	238	1115	225	-15184	-1288	-2328	-43	1463	334	-32768	-2912	32767	7743	-32768	27482	-30312	7400	-14144	-1014	-5253	-1816	-9120	3960	1080	-1095	-459	541	133	121	1
-7580	-2980	13708	137	134	183	-15672	-2656	-3176	-116	899	-185	-16384	-3680	-3096	7	1412	267	-32768	-10296	28112	8878	-32768	25841	-29144	10216	-17320	-1401	-5125	-1869	-14400	6304	2744	-1294	34	688	131	124	1
-7164	-2308	14036	159	231	273	-17672	-1336	-2152	25	1089	82	-18528	-6784	312	21	1319	81	-32768	-17696	20040	10697	-32768	20122	-30144	5712	-17376	-1392	-4684	-2127	-20648	7896	9920	-2044	309	949	133	126	1
-7132	-1820	13996	201	350	362	-18144	-1272	-1888	-8	1300	185	-19304	-4584	3832	-363	976	106	-32768	-22112	7504	11796	-32768	9101	-25208	5608	-19288	868	-3744	-1542	-18216	-928	22328	-3260	365	833	132	125	1
-7708	-2580	14304	360	557	502	-21784	-504	-1072	-111	1508	197	-19776	-4144	3552	-387	948	111	-32768	-32768	-14520	16256	-24603	-4882	-15568	9608	-26880	2874	-2485	-380	-16752	-9752	32767	-2400	8	618	133	126	1
-7904	-3348	14116	368	602	516	-19560	968	-1344	-56	1788	345	-20024	-2616	4712	-590	705	187	-32768	-32768	-32768	20520	-9408	-12624	-5824	8720	-28112	3461	-62	803	-17632	-8368	32767	556	-364	-921	131	113	1
-8208	-1656	14196	464	1228	518	-20800	1720	-2320	83	2031	444	-19656	-1328	3576	-711	604	164	-32768	-15264	-21832	-7548	6660	-13793	-11304	15088	-23176	1788	1508	874	-18616	-6352	32767	1142	-116	-1205	134	158	1
-9016	-1136	14024	650	1848	512	-21712	824	-2608	211	2234	558	-20904	-4384	3248	-837	573	267	-32768	-12024	-13848	-12731	8355	-13691	-17784	9192	-5920	36	2475	599	-14088	784	2608	3127	968	70	129	139	1
-8276	-2508	14596	860	2670	693	-24104	1680	-1120	62	2404	547	-22392	-2264	5184	-910	186	280	8008	26792	19064	-18801	22019	-2811	-32056	-11040	17416	-3538	1491	126	-15824	6800	416	2342	1033	-176	126	100	1
-9208	-3884	16036	1090	3550	1149	-27584	1912	1744	-673	2580	479	-24232	-64	7336	-680	-51	429	-6624	-9784	12264	-17430	32767	5402	-21640	-10288	-4448	-4040	1889	1049	-11584	23424	1080	118	2088	466	123	96	1
-9968	-3596	15016	1281	4628	1732	-30496	-288	5144	-1251	2663	479	-25456	-2440	13384	-802	-641	539	-17648	-32280	32767	-10095	31205	-3198	-27056	-2832	-8560	-2527	2426	552	-28712	-7280	6976	-4768	-132	144	121	92	1
-11276	-4440	19572	1633	5956	2533	-32768	120	11080	-2246	2643	582	-25008	-1720	16464	-960	-2173	607	-15248	14224	15104	-3925	28016	-3679	-20696	-5456	-5584	-1436	2211	840	-10416	-26712	-104	-1793	796	611	111	0	1
-24904	-7632	32767	2475	7330	3125	-28128	-3944	-1104	-3090	2746	583	-18136	4672	5744	-1869	-3201	383	-23320	-13592	32368	-7886	19195	-985	-19120	17664	-13816	922	2527	1605	-15144	-6792	-15512	4724	890	-158	110	0	1
-26664	-3068	32716	1484	7958	3313	-26280	-6696	-6296	-2457	3157	608	-23824	-1856	1216	-1717	-1799	211	-18840	7008	18680	-3757	8855	-2149	-18472	3808	-9144	-195	1729	1080	-14952	22536	-14664	2772	1375	526	116	59	1
-23276	-10764	32767	-321	7657	3520	-27840	-1176	-4896	-2259	2983	1082	-23016	-10760	-12368	-1909	-1662	-861	-8744	-1704	16776	-2374	2636	-2393	-15208	5784	-6560	1444	1465	897	-19952	6688	-13888	-796	1649	281	122	197	1
-11492	-10220	20580	-1913	5118	3711	-22576	-4456	-6856	-1337	2528	1086	-29336	-5472	-13720	-783	-2439	-1137	-8224	640	16080	-977	1081	-1521	-20280	4264	-3040	479	1090	291	-19800	1432	-7320	-1059	1319	-184	117	208	1
-30020	-32768	32767	-624	264	1909	-15552	-544	-13096	-304	1744	530	-27608	320	-12264	1076	-2563	-914	-7992	760	15328	-491	697	-1313	-17984	848	-3096	592	872	384	-17248	-2928	-1912	-815	1393	-500	117	182	1
188	-19032	22320	735	-2129	748	-16688	-2488	-8	-735	792	290	-27648	2712	-5704	1463	-3102	-868	-7576	880	15136	-207	952	-585	-18584	760	-2192	577	788	301	-17664	-4264	-40	-155	1509	-475	122	177	1
3980	-11480	8260	-74	-1684	180	-13880	2416	1872	-671	-73	27	-23672	2064	-4152	999	-3258	-894	-7544	704	15144	18	1445	-117	-17648	1296	-1928	181	674	373	-17008	-4104	920	489	1585	-399	117	174	1
1020	-11760	8784	-945	-1322	-264	-6792	2352	-1312	-1071	-746	96	-21776	1208	-4792	753	-3065	-808	-7728	1000	14912	29	1832	212	-17064	904	-1648	421	702	260	-15824	96	-488	961	1735	-456	121	173	1
-3956	-13956	14428	-854	-1688	-695	-5016	-1168	-2552	-1200	-1211	-389	-19280	3016	-3456	587	-2815	-822	-8376	1464	14672	323	1875	413	-16880	1640	-1624	953	785	279	-15064	2560	-1712	995	1749	-586	123	165	1
-5812	-12332	16708	-641	-2514	-1280	-7008	-2776	-3904	-353	-1803	-882	-17952	1152	-4560	589	-2522	-913	-8352	1864	14816	465	1427	102	-15816	2552	-624	1495	869	326	-15352	2408	-1856	852	1802	-624	126	161	1
-5512	-8688	15044	-938	-3092	-1777	-8264	-128	-2920	436	-2442	-1005	-15176	424	-5360	351	-2164	-870	-8360	1728	14632	358	951	-344	-15664	2496	-128	1842	843	349	-15472	3264	-1112	611	1823	-540	123	156	1
-6972	-7612	14532	-1255	-3500	-2122	-8840	200	-2768	649	-2999	-1094	-13984	-2192	-7416	265	-2166	-949	-8240	1488	14640	221	474	-655	-16152	3280	-112	1863	726	324	-14408	3632	96	340	1769	-565	126	152	1
-9068	-6784	15344	-1264	-3902	-2365	-9536	-256	-3288	961	-3499	-1375	-12248	-2968	-8080	471	-1824	-810	-7848	1152	14808	281	323	-653	-16488	3408	-696	1375	586	293	-14928	3640	832	264	1788	-680	127	146	1
-9400	-6540	15624	-1269	-3976	-2404	-11120	328	-4232	1362	-4004	-1527	-11496	-1528	-8632	1195	-1623	-590	-8136	1272	14672	356	391	-611	-16528	2960	-784	814	544	187	-15176	3864	3624	306	2026	-693	127	146	1
-13900	-2756	19048	-1907	-4582	-2725	-12592	2096	-5472	2043	-4434	-1597	-9208	120	-9560	2044	-1596	-330	-8048	1264	14512	495	442	-527	-16520	1672	-328	651	612	139	-14520	3888	5408	238	2418	-499	128	140	1
-14396	-2468	19268	-1990	-4626	-2758	-12776	2496	-5616	2131	-4516	-1568	-7184	2056	-9816	2668	-1433	-27	-9528	1216	14672	421	643	-784	-16360	1392	-48	834	713	149	-16256	2808	632	204	2298	-261	129	141	1
-17396	-1612	14552	-2339	-4489	-3094	-15880	7400	-6520	1711	-5175	-1316	-7024	4368	-10696	2434	-1181	90	-8080	1728	14832	232	640	-1108	-15912	1688	24	969	837	213	-18328	2512	512	-297	1548	-345	126	142	1
-20200	-3096	17568	-1965	-4036	-3327	-18456	5128	-9120	747	-5328	-1292	-6768	4880	-9992	1705	-659	-22	-7976	1504	14600	205	793	-1269	-15952	2488	-440	642	828	175	-17016	3768	2936	-400	1420	-309	127	141	1
-25116	-4488	25048	-2000	-3859	-3639	-22136	2440	-11712	938	-5543	-1422	-6368	4856	-7672	746	-153	-205	-7816	1200	14584	235	1276	-1271	-16944	2024	-1440	216	1058	239	-16496	2832	2072	-168	1386	-272	126	139	1
-32268	-5952	29988	-2055	-3952	-4132	-27528	1448	-14072	1584	-5734	-1274	-6432	3072	-4120	214	92	-288	-7904	1008	14640	296	1741	-1278	-17192	1232	-2192	-185	1150	160	-15736	-256	-176	50	1385	-259	128	133	1
-32768	-1308	30500	-1889	-4233	-4417	-28784	944	-17520	1733	-5702	-1018	-6312	2368	-3784	203	120	-298	-8360	848	14456	609	2577	-1116	-16776	712	-2760	-239	1242	131	-15568	-1912	-832	110	1360	-202	130	135	1
-32768	5980	22488	-1712	-4204	-4154	-27736	944	-19088	1920	-5478	-666	-12512	-4016	520	450	493	-425	-8376	1080	14368	509	3438	-1203	-17952	1224	-3304	161	1336	209	-16216	24	-1264	398	1390	-210	131	134	1
-32768	9556	13380	-1532	-3637	-3448	-27472	3936	-19992	1308	-4845	-523	-21536	-2272	11064	1167	171	-531	-8400	1584	14032	812	5100	-1552	-19056	2872	-2864	290	1396	210	-17152	2072	-1984	625	1366	-203	137	140	1
-32768	21604	3144	-1466	-2710	-2217	-23064	4736	-23728	134	-3889	-627	-21904	2160	24800	2362	-230	-891	-8344	736	14592	287	7335	-1987	-20024	-440	-3680	33	1446	224	-18712	1568	-872	693	1228	-169	148	143	1
-32768	32767	-5476	-2918	-1941	-355	-11312	6792	-32768	-1835	-2080	-825	-19360	4576	32767	1429	84	-263	-8952	1064	14184	348	10269	-1173	-19008	-1936	-3440	206	1705	79	-16856	2072	-488	904	1039	-265	160	136	1
-32768	32767	-26136	-2258	-951	1272	-1640	1280	-28384	-3145	444	-348	-21312	10008	32767	-1026	-55	1036	-10432	1056	13976	169	13141	-447	-19576	904	-3528	86	1808	49	-18672	4672	-160	794	1018	-591	161	138	1
-32768	25528	-16288	1337	365	3186	-10256	-6568	-23704	-1772	2120	298	-20712	1808	9864	-1437	182	647	-9072	1872	14336	-1437	15779	-51	-21744	1056	-2096	24	1990	3	-19912	5536	1184	785	839	-799	141	143	1
-27156	-15076	24384	3589	843	3449	-26896	-6640	17720	-1125	2510	440	-11032	-3992	1512	-3244	126	-175	-9192	1896	14280	-3560	18388	-1225	-23376	376	-136	240	2102	0	-22344	2976	4008	551	473	-750	124	152	1
-5748	-32768	27328	3081	1251	2922	-29360	-4656	27080	-881	2242	453	-21496	-4608	592	-2168	692	-245	-9624	1816	14432	-6491	23264	-2924	-27048	1232	2552	688	2321	15	-25128	4112	10056	576	-75	-687	120	146	1
-22508	23888	32767	2654	4072	147	-24816	11232	-6336	2997	2485	247	-28416	-18664	13664	2798	-1422	-2160	-10832	3872	16208	-8757	30654	-6692	-31248	472	9016	1376	2562	-32	-27904	5440	15856	815	-1417	-789	120	134	1
-8712	23432	32767	274	2533	1377	-25944	16128	-5656	2125	2842	1082	-11200	7680	3088	2111	1114	-1180	-11032	6648	19528	-14073	32767	-13733	-32768	2912	18944	2048	2303	89	-28480	1888	16064	1839	-2462	-589	140	98	1
-8848	-32768	7420	776	2820	655	-11984	-2104	-7616	-352	2859	799	-18016	32767	-21264	-723	1596	252	-27248	9000	32767	-12283	32767	-21689	-26600	8048	-4696	688	2170	927	-22624	1992	17600	1953	-3935	-212	133	35	1
-20080	18036	32767	919	1342	524	-7352	-11272	-17440	496	2265	-721	-1976	-4600	-10536	-4288	-767	1212	-26232	7992	32767	2979	32767	-18227	-29504	6856	-3720	820	3535	344	-21544	6680	7760	1792	-2359	405	128	38	1
-17648	-19172	9596	591	499	210	-28400	17520	-15744	913	1927	-58	-22640	-32768	-17424	-1875	861	-94	-25488	6704	32767	12419	32767	-16404	-32768	8216	-1768	-51	2955	288	-22968	6064	6104	1498	-2149	601	112	127	1
-8396	-1896	16048	580	154	227	-20184	2640	-9824	-1228	1620	73	-23144	-7608	-12064	1254	2010	-963	-15416	24256	24832	7447	32767	-22170	-27152	3552	-1672	-348	2642	207	-32768	-1768	-11560	454	-1835	1165	128	121	1
-7344	-3400	15088	483	-23	164	-14408	-3872	-4912	-1045	1232	-54	-19008	4240	-5032	429	1734	-110	-32768	32767	32767	-4506	11153	-15883	-19928	5584	-7864	-298	1933	141	-28400	-3688	-9512	-434	-2460	1303	137	119	1
-7244	-2596	14764	312	-9	111	-17936	3240	-3696	-108	747	-167	-15960	664	-1760	-94	1683	201	-3328	22312	21400	-11384	-1084	-5670	-18288	3792	1528	479	1113	76	-27624	-6112	-5224	-768	-3013	1346	136	123	1
-6300	-2608	14076	114	135	0	-19160	3856	-2104	33	570	141	-18784	3024	-1208	235	1875	627	-184	9248	17216	-5868	-557	-1050	-15280	840	144	-308	385	267	-23376	-2768	-4152	-663	-3076	1459	122	123	1
-6084	-2868	13600	67	315	-55	-16936	1304	-2000	648	466	-28	-16592	4472	-224	144	1783	774	-2112	11520	19392	1142	-4085	2714	-8248	-1400	-1248	339	-162	-140	-22624	-1960	-3728	-754	-2988	1575	124	119	1
-6976	-3268	13740	170	435	-81	-16024	952	-3264	1213	306	-50	-15168	2640	624	-236	1763	761	-2760	10680	19152	-1597	-11270	4580	-7032	3584	-1288	586	-871	0	-19544	-4176	-3024	-523	-2613	1478	128	123	1
-7064	-4112	13652	285	380	-73	-16112	1344	-2344	727	324	-50	-14808	-160	368	-629	1765	497	-2144	5768	18208	-3658	-17541	5473	-7096	2024	-1224	-153	-1555	158	-18128	-4040	-4072	-180	-2467	1204	126	123	1
-8000	-4092	13896	311	292	-30	-14776	-408	-1992	-505	525	-79	-14760	-1400	1136	-927	1854	367	-4288	2744	20736	-1111	-24309	6331	-7512	56	-2680	-500	-2186	11	-17056	-3896	-4488	-67	-2426	1219	118	119	1
-7392	-3788	13744	287	192	36	-14928	-2832	0	-1350	700	-92	-14752	-3824	376	-1041	1872	208	-5280	1224	20320	1988	-30930	6339	-7944	-408	-2504	-269	-2726	-180	-16088	504	-6232	317	-2206	1199	120	121	1
-7344	-3748	13772	307	140	121	-16728	-4336	808	-862	779	-132	-15088	-4472	208	-720	2109	150	-6624	-552	18568	4330	-32768	5772	-9048	-472	-1712	-201	-3242	-187	-13424	688	-6688	140	-1988	1121	125	124	1
-7324	-3180	13868	361	71	171	-16208	-4472	192	159	824	44	-14504	-2816	2064	-512	2336	174	-8360	-536	17664	7185	-32768	5497	-9880	-232	-1800	-486	-3756	-256	-11864	1048	-7328	-77	-1824	930	123	127	1
-7488	-3080	13688	361	63	184	-16368	-1672	-1896	814	715	79	-13776	-3696	5416	-575	2796	305	-11048	-16	18744	9271	-32768	5865	-10720	32	-2976	-958	-4242	-408	-10208	240	-7784	-484	-1719	738	127	124	1
-7688	-2616	13848	288	50	175	-16160	-1192	-2480	825	695	88	-16288	-4864	1312	-890	2668	411	-13488	280	19776	9204	-32768	6313	-12040	-488	-2944	-1391	-4706	-617	-9416	-2224	-8728	-1006	-1541	519	128	118	1
-7552	-2612	13876	241	11	197	-15368	1560	-2128	-256	746	83	-16752	-2528	-6824	-353	2224	52	-14720	-2200	18672	12062	-32768	7845	-13536	-1704	-3368	-2029	-5162	-861	-7624	-4296	-9952	-1228	-1254	326	128	126	1
-7548	-3164	13780	254	21	262	-15512	-952	-1024	-546	818	-50	-17136	-704	-5688	563	1420	66	-14928	-3120	15688	15673	-32768	8485	-18048	-1720	-5160	-2314	-5441	-1212	-6584	-4304	-10960	-1213	-913	234	131	126	1
-7776	-2624	13688	240	38	277	-16168	-1512	-2368	32	871	-40	-16200	-4376	2200	653	1258	209	-24416	-1656	28280	15744	-32768	9454	-23560	-112	-11608	-1387	-5480	-1337	-7064	-7232	-10664	-1045	-649	137	131	128	1
-7748	-2280	13896	185	83	218	-16584	-144	-2512	609	917	133	-15704	-2408	2008	260	1083	206	-30864	3032	30976	17109	-32768	15468	-27536	3024	-11536	-1452	-5652	-1567	-6576	-5704	-5248	-720	-422	123	130	131	1
-7356	-2544	13856	181	134	214	-16384	952	-1568	467	1033	101	-16368	1768	-1712	157	1104	191	-32768	6560	32767	8790	-32768	23341	-32768	5176	-16352	-2008	-5670	-1710	-7056	-272	-1248	-955	-280	303	130	130	1
-7664	-2536	13972	198	211	289	-17144	-440	-2056	144	1158	36	-17800	-728	-568	149	1279	211	-32768	-6456	26032	7519	-32768	30076	-32624	5368	-16912	-2063	-5632	-1782	-11328	4704	56	-1095	36	471	129	129	1
-7500	-1676	13924	219	320	338	-17656	-984	-1992	-12	1345	92	-18312	-3720	2400	-145	984	57	-32768	-14752	17728	7232	-32768	27237	-29832	9720	-17552	-2147	-4800	-2243	-16680	5240	6592	-2069	517	659	132	131	1
-7252	-1068	14696	346	492	433	-19672	56	-2104	8	1511	141	-19528	-288	2424	-497	716	-71	-32768	-21536	10144	7565	-32768	17581	-28120	8328	-20200	-1144	-4157	-1797	-19112	4176	24312	-3706	-5	979	133	137	1
-7852	-2204	14232	390	676	490	-18952	376	-1624	-80	1734	282	-18192	560	1856	-810	648	-76	-32768	-32768	-13344	19622	-27050	2716	-17216	9880	-27600	1224	-2744	-921	-18728	-4568	32767	-3831	-19	911	134	133	1
-7204	-1648	14368	480	961	492	-19432	1144	-2016	-84	1895	289	-18016	-2624	1256	-1027	703	-19	-32768	-32768	-32768	28136	-12015	-9598	-4192	9504	-29616	3019	-102	594	-17632	-11328	32767	-253	-328	-1248	130	139	1
-8956	-772	13928	620	1362	453	-19816	1696	-2968	47	2042	408	-18120	-6904	984	-1023	671	132	-32768	-18744	-25496	-5561	8051	-15184	-10328	16952	-23416	2600	1611	873	-18984	-7904	15312	2318	892	-1573	126	178	1
-9832	-1216	13552	815	1941	454	-21280	-984	-2992	90	2225	546	-20488	-8528	1928	-772	591	284	-12112	-2712	8256	-17327	11408	-17378	-17896	12592	-3640	1143	2835	1196	-12312	-2384	744	3654	987	113	134	140	1
-9260	-3012	14220	1002	2628	757	-23928	-728	-456	41	2351	532	-20976	-3456	3960	-706	241	388	17584	32767	16400	-15480	16913	-11025	-32768	-9568	24960	-2355	1382	118	-15688	6608	-3624	3213	1074	-179	125	127	1
-8664	-3380	16384	1199	3415	1258	-25848	408	1928	-722	2475	423	-22864	1720	7160	-532	205	429	-8248	2552	11208	-15251	32767	3570	-20968	-7464	-3816	-3261	1853	1246	-4528	19808	5112	1072	2017	132	120	64	1
-10260	-3316	14156	1302	4404	1826	-28592	168	4720	-1233	2590	461	-24000	-904	13072	-759	-531	487	-19624	-32768	32767	-9574	32767	-718	-30352	2640	-8056	-2315	2548	542	-32768	1344	11728	-4776	-555	393	121	65	1
-12768	-3056	18060	1745	5658	2486	-32056	1136	9464	-2187	2606	602	-25072	-576	15952	-1015	-1813	483	-15840	8600	18512	-1025	25319	-7823	-22088	-4472	-6256	-2324	2308	889	-13008	-23624	-4592	-2463	916	1135	111	0	1
-23780	-3768	32767	2643	7033	3145	-29344	-3496	-1584	-3088	2875	578	-23808	2968	12688	-1815	-3737	378	-32768	11248	32560	-7082	21874	278	-17528	12800	-7672	3	2144	1159	-14528	-16128	-11616	4575	398	277	109	0	1
-25900	-4408	32767	1381	7759	3278	-27400	-6472	-2800	-2606	2957	464	-20784	56	-72	-2015	-1742	209	-11480	-1408	18888	-1706	12885	-2324	-16376	3496	-7680	-860	1546	1131	-12712	26496	-14824	3512	1144	-22	113	45	1
-25248	-8928	32767	-192	7894	3540	-27552	-1368	-3736	-2455	3026	975	-23016	-8144	-10048	-1837	-1831	-729	-10232	-3208	18472	-4043	5229	-2430	-17936	6304	-7416	1366	1533	1119	-18792	12152	-13840	-1139	1873	508	119	147	1
-14856	-18328	23728	-1342	4874	3417	-23848	-4904	-6960	-1726	2649	1029	-30088	-5064	-13120	-1125	-2308	-1243	-10056	3280	16256	-2108	1965	-1731	-19400	6456	-3912	330	1289	390	-22512	1128	-9248	-1489	1303	212	117	188	1
-31740	-32768	32767	-627	975	1788	-17352	208	-14552	-406	1846	411	-27736	-184	-11760	780	-2496	-1099	-8272	1320	15944	-1284	966	-1695	-18488	1384	-4408	50	983	309	-17544	-3432	-2608	-1322	1371	-233	115	167	1
-5820	-24640	28904	677	-1735	248	-17480	-2368	-1184	-940	940	232	-28744	4088	-6896	1133	-3017	-975	-6216	-6296	6200	28	1145	-678	-18568	-1152	-4104	77	803	275	-17720	-5944	-800	-748	1531	-410	121	170	1
-264	-12992	13868	120	-1793	-457	-13992	1280	464	-755	54	-208	-24000	4176	-4096	653	-3224	-956	-6608	240	15344	-318	1423	-230	-18400	-1264	-3192	-95	632	427	-17584	-7320	968	-8	1658	-481	113	164	1
-1068	-10400	16156	-1160	-1770	-1011	-7920	2064	-2808	-937	-662	-192	-22440	1472	-3424	582	-3098	-969	-6912	968	15176	-564	1902	121	-17728	-792	-2432	171	622	370	-16472	-3528	-384	778	1839	-440	117	161	1
-3880	-10408	17372	-1328	-2431	-1299	-7144	-1184	-2152	-908	-1198	-580	-21568	2512	-4968	723	-2872	-884	-7944	1328	15112	314	2127	551	-16696	1384	-1256	319	433	397	-15272	904	-936	1000	1761	-501	117	152	1
-2596	-6892	12944	-1049	-3045	-1355	-8664	-2080	-920	-250	-1840	-1187	-18072	4872	-4584	498	-2680	-816	-7832	1736	14704	750	1785	457	-15576	3056	-144	584	344	438	-15152	2720	-1464	1005	1719	-570	123	152	1
-3108	-4228	13188	-1408	-3226	-1442	-8624	1552	-1568	520	-2455	-1370	-15688	3352	-4936	255	-2356	-794	-7552	2432	14616	-2	1281	-563	-15904	3776	800	884	332	436	-16136	4504	-824	869	1714	-527	121	147	1
-5976	-4220	16840	-1855	-3516	-1572	-9000	2352	-2944	369	-2945	-1515	-14712	1040	-6560	-254	-2246	-902	-7784	2152	14608	-558	868	-1183	-16000	3352	664	1119	450	382	-15072	5808	328	483	1675	-476	122	146	1
-8640	-4500	19020	-2134	-4021	-1804	-9960	2240	-2920	444	-3423	-1822	-12912	-1384	-7464	-159	-2012	-802	-7624	1256	14888	-747	390	-1371	-15288	2664	-216	918	556	357	-14776	3496	1584	-62	1550	-473	125	141	1
-9964	-4132	18132	-2220	-4457	-2103	-11552	2048	-1464	643	-3914	-1937	-11976	-1152	-9168	380	-1772	-628	-7768	1208	15064	-956	-6	-1437	-15816	2280	-520	831	656	313	-14296	2712	2048	18	1581	-590	123	140	1
-8612	-68	13252	-2643	-4284	-2237	-13600	1384	-1544	1014	-4377	-2055	-7576	-1520	-9176	1081	-1498	-385	-7576	1664	14648	-881	-28	-1638	-16688	3280	-424	828	795	327	-15632	3400	3152	240	1968	-549	124	138	1
-12188	-1176	15280	-3064	-3798	-2240	-15464	5768	-6000	1472	-4751	-1990	-7152	-16	-10368	1935	-1286	-155	-7672	1312	14552	-651	209	-1668	-16536	1488	-1040	911	960	293	-15592	3272	4592	224	2390	-301	125	146	1
-18236	-2428	17976	-3034	-3393	-2566	-20264	6816	-9384	1042	-5085	-2086	-7880	4936	-11080	2443	-1027	245	-7400	1456	15056	-295	455	-1839	-16496	1448	-1192	1051	1099	281	-15832	1784	136	196	2251	44	126	144	1
-20200	-3268	21936	-2850	-3031	-3042	-17104	6048	-9048	1066	-5227	-1810	-7704	6752	-9776	1840	-793	195	-7552	776	15072	-132	600	-1774	-16080	1792	-1664	762	1055	284	-16080	-808	-2728	-160	1691	-326	126	142	1
-20820	-3752	23084	-2787	-2996	-3113	-29040	5512	-13208	801	-5408	-1963	-7872	5400	-4888	1007	-626	192	-7232	992	14952	12	961	-1534	-16536	1656	-2632	498	1037	342	-17216	1040	-736	-198	1378	-177	126	145	1
-32768	-3096	32767	-2457	-3704	-4034	-26856	3216	-16824	889	-5542	-1874	-7264	1816	-640	723	-660	-72	-7504	608	15144	55	1413	-1430	-17824	1576	-2936	138	1030	295	-15648	1776	-64	-103	1542	-184	131	148	1
-32768	7052	30832	-2775	-4150	-4328	-25064	5024	-18528	1112	-5493	-1711	-8904	-3568	-248	203	-316	-320	-7744	1184	15040	-81	1885	-1566	-17448	2528	-1968	25	1065	230	-15768	1888	-560	60	1610	-235	129	147	1
-32768	15700	24812	-2445	-4217	-4033	-24432	5824	-18088	1251	-5236	-1075	-9616	-3824	-160	110	-223	-350	-7328	1776	14608	-850	1850	-2249	-16992	3168	-1448	95	1156	271	-16720	4080	-160	37	1498	-222	132	144	1
-32768	16788	17792	-1441	-3935	-3304	-28520	5984	-19800	531	-4628	-659	-17728	-4728	9920	-171	372	-580	-7960	800	14920	-953	2893	-3131	-18360	3136	-1576	101	1219	298	-17760	4816	1192	62	1394	-125	133	144	1
-32768	19300	-1268	-482	-3302	-2140	-20848	1232	-26040	620	-3609	-656	-14848	-2392	22016	1669	568	-886	-7688	1296	14680	-1454	4737	-3760	-18720	3008	-2296	100	1247	291	-19392	256	1664	299	1192	31	140	145	1
-32768	32767	-16044	-1974	-1977	-615	-10808	10184	-31552	387	-1971	-689	-20952	-2704	32767	2262	333	-880	-7648	392	14920	-1326	7662	-4519	-19296	40	-2472	182	1584	376	-18784	-2024	1440	713	1019	-23	139	148	1
-32768	32767	-28136	-1854	-211	101	-1704	6152	-27968	-1137	481	-210	-23912	8880	32767	343	-491	917	-7936	-216	14408	-1330	11143	-4453	-19968	-272	-3344	32	1778	357	-18672	1928	792	772	964	-258	157	145	1
-32768	25460	-11992	2606	892	1001	-11920	-1608	-26816	-88	2059	465	-19960	6104	12120	326	356	1053	-7856	-568	14216	-2516	15189	-4179	-20608	1448	-1912	-111	1998	266	-19640	7640	1504	868	794	-495	151	140	1
-32768	13060	6716	2596	1257	1165	-17456	2696	-23568	1477	3088	837	-11208	-2256	3232	-1395	461	-69	-10032	984	14104	-4867	19864	-4394	-22832	2040	-992	-109	2135	316	-20640	4792	4392	715	459	-462	130	177	1
32767	-32768	32767	1132	1344	679	-32768	-20072	32767	-803	1266	1072	-8688	-4928	-4008	-1336	693	-272	-9552	1584	16136	-9393	23950	-5710	-25808	552	1744	471	2289	390	-23504	4008	6736	558	83	-502	124	165	1
-1556	-480	-22376	2215	3524	1342	-26864	10960	-4128	3494	1321	-781	-21040	448	-15808	450	1786	-463	-11232	2024	16488	-14741	29658	-8376	-29520	1808	4568	906	2454	441	-25896	5648	12160	854	-613	-530	116	151	1
-23228	21912	32767	1716	4158	170	-18032	10232	-8040	1415	2059	241	-27384	-10384	16904	3081	-922	-1501	-12136	2704	17728	-21638	32767	-12825	-32480	-752	11232	1526	2536	477	-26064	4440	19472	1224	-2165	-528	115	135	1
-10532	11952	32767	215	2771	1499	-31672	11624	-5768	1459	2235	585	-21800	19888	10744	1736	1963	-1043	-20136	1776	27520	-29434	32767	-20600	-32768	1816	7760	2455	2750	604	-25152	-1496	17760	1706	-3530	-270	132	0	1
-12872	-32268	21228	879	2437	510	-14912	2384	-7128	-1394	2388	743	-18096	28392	-15184	-3225	1276	-114	-27264	2552	27144	-20132	32767	-20132	-28064	7048	2032	3070	2914	839	-21200	-2024	9344	2269	-2613	-367	127	0	1
-10560	7144	27024	657	1382	305	-13584	-10360	-9120	-218	1940	-467	-4960	-20352	-15696	-4787	46	1680	-23496	-816	29944	-13818	32767	-19143	-30272	8496	1008	2394	2488	918	-22912	576	-4448	2152	-1434	445	143	0	1
-16684	-14092	13532	503	827	277	-19080	-1272	-9440	604	1493	-99	-13592	-32768	-11000	511	1726	-252	-22944	1056	32767	-2571	32767	-16958	-25576	1440	2312	1047	1887	508	-29624	-176	-10864	1919	-1586	869	114	137	1
-7888	-504	17808	754	417	263	-18624	-576	-5344	672	1247	-88	-24160	1232	-11400	1852	2056	-798	-5816	-17648	18944	-5348	32767	-22270	-20208	3360	-6288	580	1865	410	-28728	-2264	-9880	938	-2040	1041	127	165	1
-8524	-4048	14904	689	276	188	-18504	1744	-4632	454	1043	136	-18240	7584	-3664	549	1636	-81	-32768	26280	32767	13202	18698	-17736	-15840	2488	-15224	1436	1346	148	-27160	-5872	-6960	-26	-2528	1148	129	189	1
-7500	-2948	14524	443	215	103	-16976	4848	-2720	376	679	6	-15712	3648	-1576	-22	1787	143	-16944	22640	32767	-331	-12283	-2954	-15424	448	-3520	2646	697	482	-24080	-4664	-3680	-79	-2807	1314	125	178	1
-6576	-2092	14800	192	287	1	-16952	6072	-1104	-242	593	-27	-16600	2216	-184	199	1751	716	24	7752	13096	1693	-16644	7360	-13072	-4840	1680	2536	160	181	-22128	1648	-3952	189	-2687	1663	125	164	1
-7192	-3336	14012	110	311	-73	-17032	40	-720	-542	642	-156	-15904	1432	1400	209	1657	798	2224	4160	8848	5877	-13545	11110	-9896	2376	2200	2104	-606	-102	-22096	1880	-3768	-279	-2780	1717	126	148	1
-7380	-4196	13372	211	236	-90	-16176	-4376	-1056	125	584	22	-14456	-2072	440	-241	1553	458	-1672	2704	14920	2746	-14468	9112	-7048	10720	-672	427	-1471	273	-20144	-1248	-5000	-433	-2337	1617	123	141	1
-7264	-4728	13408	433	128	5	-15600	-3616	-648	644	546	26	-15136	-4120	-464	-363	1701	217	-5392	-904	22296	1830	-20597	6092	-7728	5680	-3184	-1523	-2183	510	-20304	-2280	-4912	-386	-2465	1564	123	138	1
-7848	-4324	13344	587	32	123	-14864	-1168	-984	325	665	27	-14920	-3816	-344	-316	1804	122	-9312	-1224	26392	9825	-28707	6231	-8848	-152	-6224	-2492	-2745	180	-15552	-664	-4384	-196	-2184	1445	126	135	1
-7516	-3256	13988	605	-17	185	-15480	72	-1464	-225	871	-10	-14952	-1832	376	-332	1759	132	-9096	1072	20088	13832	-32768	8207	-10104	-2888	-2904	-2232	-3133	-208	-15360	352	-5528	-162	-2003	1331	123	134	1
-7680	-3004	13988	458	-22	166	-16216	368	-1000	-621	983	59	-15248	-1432	216	-358	1772	134	-8328	-216	14848	13698	-32768	10818	-12104	-4080	-2048	-2049	-3587	-245	-14432	-96	-6704	-275	-1842	1200	122	133	1
-7604	-2396	14224	323	-14	129	-16376	-1128	-880	-340	988	87	-14360	-368	1016	-959	1889	289	-11256	-1688	17168	14384	-32768	12846	-11032	-2560	-3192	-2165	-4051	-325	-11616	-2064	-6632	-843	-1753	901	124	127	1
-7292	-2660	13860	294	-28	108	-15784	-1392	-888	149	949	137	-14416	-2928	1016	-905	2160	266	-14016	-4536	20656	17173	-32768	14195	-11288	-2608	-5464	-2341	-4474	-559	-10592	-2160	-6760	-1002	-1782	824	126	125	1
-7052	-3212	13500	258	3	138	-16096	-936	-1424	320	860	126	-15928	-1416	1576	-352	2253	-31	-14040	-6488	19168	21249	-32768	15413	-13392	-4072	-5064	-2323	-4910	-894	-7360	-5432	-8888	-1882	-1613	170	129	126	1
-7308	-2784	13672	220	47	196	-15896	-8	-1992	-19	900	98	-16792	-16	-2784	-290	1911	-185	-15976	-7320	18824	23595	-32768	15808	-15840	-3680	-5952	-2138	-5255	-1183	-6296	-5632	-10464	-1739	-1276	-43	129	126	1
-7268	-2964	13820	223	48	241	-15680	-496	-1864	-203	950	72	-16912	-2168	-3640	-333	1467	-110	-20256	-5856	21784	23268	-32768	15799	-19856	-976	-7344	-1252	-5391	-1311	-6040	-6816	-10064	-1382	-874	-112	127	129	1
-7512	-2444	13816	202	58	261	-16400	-160	-2520	14	997	65	-16496	-5000	-640	-99	1285	41	-24384	-2216	27576	21256	-32768	16366	-25856	1456	-9792	-568	-5547	-1213	-6168	-5528	-6920	-1290	-424	-77	129	125	1
-7332	-2388	13704	197	115	269	-17240	-96	-2320	185	1056	84	-16344	-3232	-856	40	1067	101	-32768	3800	32767	17648	-32768	20821	-30040	5800	-14104	-1051	-5703	-1331	-6744	-3632	-4080	-1474	12	25	128	125	1
-7532	-2316	13940	199	214	299	-17368	160	-2384	276	1136	65	-16704	64	-1464	67	1011	151	-32768	-1312	29968	15196	-32768	28120	-30016	6320	-15456	-1997	-5630	-1698	-10160	-176	-2552	-1085	216	52	130	127	1
-7188	-2152	14044	201	298	323	-17056	112	-2032	186	1268	115	-17536	-328	688	-90	1018	134	-32768	-10744	23504	14686	-32768	30927	-32768	5576	-16400	-2047	-5104	-2141	-19600	5648	6944	-39	386	307	131	127	1
-7476	-1508	14212	217	448	376	-18560	576	-2496	-2	1433	153	-18552	-1112	1800	-362	888	42	-32768	-14968	15992	8938	-32768	26435	-30920	8544	-17896	-918	-4372	-2025	-21848	7848	22928	-1501	-282	870	131	128	1
-7960	-2112	14276	341	647	484	-21112	-336	-2192	-175	1603	203	-20232	-976	2272	-689	769	-22	-32768	-31224	-12120	10248	-26362	11719	-18472	12840	-27648	124	-3063	-1062	-19616	552	32767	-4361	467	1909	130	134	1
-8036	-1960	14328	381	905	526	-19312	872	-1712	-62	1810	293	-18328	-2576	2584	-857	656	22	-32768	-32768	-32768	30573	-8267	-4064	-1984	6792	-32064	2507	-165	473	-17056	-6272	32767	-1221	-921	-234	129	123	1
-8956	-1164	14192	543	1260	444	-18520	2024	-2208	76	2000	404	-17864	-4352	2640	-811	682	149	-32768	-11688	-26112	4767	12183	-10332	-10320	18096	-20208	2395	1700	823	-22680	-14360	16352	1848	971	-2197	127	140	1
-8900	-980	14036	745	1747	343	-20624	-840	-2264	192	2228	590	-20048	-9424	2888	-815	626	279	-29576	-10376	4448	-21230	17943	-16437	-20464	14280	-3736	1461	2181	1167	-9120	-4904	-3928	4138	1424	-94	130	128	1
-8892	-3212	14460	1009	2471	626	-24016	-1680	-112	191	2377	617	-21800	-6016	4640	-697	188	360	7952	31304	20320	-19009	17956	-12657	-23272	-1312	17168	-2015	1741	549	-12576	12848	-5464	3359	1422	215	117	102	1
-9484	-3988	16844	1275	3220	1206	-26600	-152	1304	-488	2549	515	-22800	-16	7800	-494	74	464	-6432	5696	8912	-16642	32767	3009	-26696	-11960	-2256	-3979	1793	1036	-10752	31728	-960	1768	1128	503	119	79	1
-10700	-2932	14392	1369	4180	1843	-26928	-256	2128	-652	2576	510	-25040	-984	13448	-657	-551	499	-15840	-32768	32767	-13198	32767	262	-28808	-2304	-6400	-2707	2417	410	-32768	840	8776	-4429	-843	250	119	91	1
-12184	-3292	16176	1809	5521	2563	-32752	768	11104	-2382	2607	580	-24696	-2016	17272	-642	-1878	520	-14768	3440	18176	-4467	26689	-8970	-21288	-3496	-6208	-1867	2275	848	-12336	-24440	128	-3953	769	192	118	88	1
-21148	-2320	29988	3125	6790	3511	-29576	-4352	1360	-2906	2821	734	-19384	4400	7384	-1964	-3174	278	-32768	18656	31384	-14660	21098	-917	-16792	13568	-7568	-177	2026	1096	-17928	-25480	-4664	2132	1140	1354	114	16	1
-27204	-4672	31768	1344	7651	3489	-26304	-4200	-3776	-2672	2965	564	-22392	1448	2200	-1652	-1807	285	-10168	-9728	26408	-7542	8768	-3759	-17976	3200	-8880	-2112	1265	993	-11832	16440	-15688	4429	1222	-50	115	106	1
-28940	-11128	32767	-62	7748	3860	-28704	-3240	-7344	-2686	3060	1087	-23200	-7272	-10024	-1743	-1715	-902	-9552	-5584	22056	-4726	3656	-3447	-17912	4456	-7848	845	1486	1087	-20168	16328	-14344	-41	1980	572	118	120	1
-4152	-25604	25316	-501	4478	3660	-24344	-4256	-3024	-1733	2612	923	-31000	-3792	-13192	-1270	-2242	-1163	-11096	1912	16488	-1839	957	-1976	-18704	4496	-5168	305	1190	436	-21984	1912	-9416	-1318	1521	52	116	165	1
-32768	-29592	32767	494	1478	1962	-17448	1736	-16776	312	1914	278	-26464	0	-12496	533	-2396	-1017	-8232	1016	15464	-1266	265	-1800	-19272	576	-3552	752	980	386	-17472	-888	-3752	-1398	1330	-312	117	166	1
-12876	-30468	31992	-60	-846	-222	-16624	1352	-3328	-757	1118	227	-29312	4488	-7336	996	-2906	-977	-7104	-72	15648	-828	222	-1174	-17896	-608	-3344	905	870	358	-17448	-5304	-392	-518	1517	-542	120	156	1
2092	-14140	10972	270	-1131	-984	-14416	-392	1632	-871	197	-70	-23992	4264	-3904	852	-3233	-980	-7224	160	15448	-463	1186	-688	-18520	784	-1424	744	750	423	-17560	-3920	1368	340	1633	-575	116	132	1
1544	-8340	11232	-434	-761	-1268	-8192	1144	760	-549	-630	-420	-23528	3936	-4184	764	-3250	-996	-7032	984	15024	-609	1509	-369	-17664	1752	-600	286	679	361	-16512	-416	152	874	1868	-390	121	143	1
-3476	-8752	19068	-929	-1187	-1470	-5112	-8	-4064	-524	-1107	-691	-20760	2656	-5784	375	-2980	-798	-7704	1048	15192	-633	1615	-337	-16464	2704	-1456	58	625	220	-14664	2504	-1216	655	1810	-522	116	144	1
-5548	-7124	21560	-1008	-2349	-1655	-6616	-280	-3472	-173	-1653	-1081	-17448	4336	-5720	187	-2490	-950	-7768	1144	14984	-300	1445	-357	-16136	664	-1232	465	688	253	-15560	1568	-1416	215	1805	-645	127	144	1
-4968	-3792	18068	-1416	-3168	-1832	-8296	1560	-1648	446	-2322	-1318	-16584	5232	-4656	199	-2511	-889	-7816	832	15224	-242	835	-761	-15656	528	-1048	1078	702	311	-15896	280	-712	64	1823	-679	121	142	1
-6044	-2844	17088	-1804	-3702	-1988	-7992	3528	-2536	568	-2847	-1498	-13888	1728	-6456	-304	-2081	-817	-7728	784	15112	-207	442	-1020	-16072	1288	-688	1522	687	337	-14664	1288	480	27	1830	-620	124	140	1
-7408	-2092	16676	-1887	-4137	-2083	-8632	3240	-1848	225	-3328	-1764	-13400	-360	-7640	-273	-1866	-800	-7688	400	14960	1	278	-911	-16176	2552	-752	1377	633	334	-13920	2080	1464	21	1890	-554	124	142	1
-9788	-548	17448	-2056	-4474	-2160	-10632	3320	-2792	456	-3764	-1954	-11168	-480	-8544	217	-1608	-642	-7048	744	15072	-125	205	-938	-16336	3392	-440	837	580	266	-14400	2496	3608	69	2075	-593	127	152	1
-12180	736	18952	-2480	-4669	-2225	-12664	3712	-4368	1076	-4206	-2089	-9096	-96	-8576	1003	-1516	-353	-7360	736	14784	-187	364	-1240	-16720	2352	-344	364	549	221	-14816	4248	5728	227	2522	-686	127	139	1
-16784	3204	20148	-2965	-4741	-2298	-15192	6472	-6448	1593	-4692	-2064	-8168	680	-7832	2140	-1446	-2	-7424	1120	14792	-141	471	-1585	-16600	432	-184	460	676	192	-16920	2120	416	326	2485	-367	125	134	1
-21640	4520	19072	-3189	-4543	-2352	-19080	10504	-8344	926	-4827	-1859	-8040	2912	-7256	3006	-1414	241	-7488	1056	14680	-42	597	-2051	-15224	1032	56	762	789	275	-18920	-320	-1928	-297	1523	-235	126	135	1
-24764	4552	19880	-3018	-4264	-2458	-19984	10008	-10728	-398	-4674	-1820	-8880	5376	-5344	2557	-1249	178	-7504	464	14840	64	885	-2261	-16472	1112	-1416	683	778	337	-17808	1464	1848	-331	1255	-245	127	135	1
