#Activity	walking 
#ActivityID	1 
#Date 09-07-16-25
acc_rf_x	acc_rf_y	acc_rf_z	gyro_rf_x	gyro_rf_y	gyro_rf_z	acc_rs_x	acc_rs_y	acc_rs_z	gyro_rs_x	gyro_rs_y	gyro_rs_z	acc_rt_x	acc_rt_y	acc_rt_z	gyro_rt_x	gyro_rt_y	gyro_rt_z	acc_lf_x	acc_lf_y	acc_lf_z	gyro_lf_x	gyro_lf_y	gyro_lf_z	acc_ls_x	acc_ls_y	acc_ls_z	gyro_ls_x	gyro_ls_y	gyro_ls_z	acc_lt_x	acc_lt_y	acc_lt_z	gyro_lt_x	gyro_lt_y	gyro_lt_z	EMG_r	EMG_l	act
-8572	-5532	12080	131	65	160	-11664	-10480	1800	-364	600	555	-12304	-2912	4776	288	2413	1436	-16360	-472	21384	1852	-5622	1480	-20808	-672	-4392	-379	-5022	3164	-4208	4600	-13136	-1270	-1739	-244	132	142	1
-8808	-5904	12120	181	103	285	-12776	-10416	456	-509	719	579	-16704	-2232	2208	-614	2433	1350	-16560	2664	20120	2011	-5167	1425	-22592	2104	-3088	-549	-5233	3442	-2760	3208	-13368	-1036	-1279	-293	130	138	1
-8880	-4624	12288	247	103	371	-13376	-9504	1080	-792	701	699	-19680	-2840	-5040	-429	1967	1219	-24104	4840	26656	2345	-4214	1726	-27408	976	-5456	-922	-5100	3552	-2256	1200	-9992	-433	-908	-311	130	140	1
-8856	-4560	13144	203	195	455	-14424	-9184	120	-884	702	748	-17848	-1720	-200	27	1723	1034	-27992	10008	27624	2054	-3864	2381	-32768	3352	-7712	-1493	-5074	3705	-7760	-2000	-3456	-280	-1265	-504	126	142	1
-9200	-3860	13068	147	289	428	-14760	-8992	240	-907	774	798	-14800	-1392	-1272	-54	1771	1121	-32768	6504	32767	1762	-3428	2776	-32768	1264	-12624	-1938	-4688	3625	-18392	-5720	3432	-665	-1982	-480	122	121	1
-9156	-5004	12808	130	443	453	-13704	-9736	320	-896	912	872	-14816	-2184	1128	-399	1595	1183	-32768	7800	28624	1443	-4424	3628	-32344	2560	-17424	-2383	-4302	3093	-22096	-7544	-2992	-244	-1904	-452	124	114	1
-9028	-5516	13564	89	640	606	-14656	-10368	672	-1073	1035	984	-19704	-1512	-2632	-373	1338	1037	-32768	-1920	8040	192	-4707	3416	-24608	936	-18296	-2367	-3709	2675	-17192	-9448	8080	55	-1930	-29	115	121	1
-8244	-4536	16004	281	950	684	-17968	-9960	1800	-1222	1164	1158	-23184	88	1800	-500	1184	926	-32768	-26480	-12304	798	-3489	2627	-22392	-15624	-31880	-1786	-2530	2177	-2808	-13376	32767	-1182	-1328	-210	113	140	1
-9756	-2572	16620	156	1427	826	-19496	-8592	2368	-1313	1376	1309	-20608	-904	1648	-632	1000	854	-32768	-32768	-32768	1749	-1803	1452	1472	-12328	-30096	154	-22	662	-21536	-16288	30144	-1871	-28	253	108	129	1
-9944	-3644	16240	116	2106	815	-17176	-10048	1480	-1184	1710	1471	-17200	-5568	3016	-903	602	976	-32768	-16472	-20504	-479	1400	523	-11976	-10304	-26144	-275	2323	-797	-22456	-14216	3128	-1503	-623	707	110	139	1
-10840	-8968	16844	432	2670	1006	-16168	-13424	2728	-1101	2127	1598	-20112	-8160	8304	-705	-132	852	-32768	11280	-8136	-3355	2843	1299	-22560	-6352	-18456	-37	2913	-1072	-16768	-3936	-6824	843	792	257	111	122	1
-10776	-8992	15976	439	3307	1501	-18640	-16424	4672	-1415	2501	1718	-25992	-10104	10944	-252	-1405	372	32767	-17520	32767	-1197	4276	210	-32768	7904	32767	879	611	-1439	-4640	-2288	-18960	-397	-148	230	116	121	1
-12412	-10764	20612	521	4401	2444	-25216	-21240	5848	-1929	2702	1866	-26960	-13280	23016	320	-3235	-334	-27120	-32768	32767	-1394	5090	-3286	-22688	-10592	-12576	-1028	3195	-1351	-32768	-6088	20856	-276	-1162	39	123	136	1
-19064	-16544	21796	576	6266	3799	-30480	-27536	8904	-2245	2587	1865	-25224	-4408	11136	-810	-1616	-633	-25400	23120	15400	-698	3632	-2425	-32768	7576	-7800	330	2876	-1376	-26272	304	-7200	-2207	1108	601	119	79	1
-23344	-15164	29384	221	7344	4845	-31768	-26624	11696	-2441	2599	1737	-26976	88	-1872	-711	-1424	-204	-32768	-11352	19648	-2305	1126	-1024	-15880	13032	-15672	-1105	3481	-719	-15624	-7104	-7904	72	899	1005	125	130	1
-26500	-19076	31524	-497	7280	5037	-23488	-30560	12024	-2653	2136	2149	-27048	-4512	-17688	522	-1955	-359	-14928	21048	11984	-419	795	-439	-23592	-9768	-13208	199	2901	-1283	-3600	1224	-15976	1362	1969	876	123	155	1
-32768	-32768	32767	-632	5154	4743	-19000	-27472	-5288	-2259	1943	1997	-30544	1784	-8872	773	-2442	-1190	-6832	-4800	17744	-279	207	-294	-13576	-3760	-8528	1402	1582	-564	-17048	3880	-15104	2277	1414	921	112	153	1
-8792	-26444	20816	4540	2169	3510	-8264	-16160	-3384	-63	1605	643	-32704	1840	-4392	1025	-2143	-1477	-8632	4048	14592	-164	161	-183	-18104	6408	-7720	2205	975	-386	-19560	12136	-11848	2404	1555	527	133	137	1
2328	-32768	28400	1965	-1311	-2190	-3232	-11152	3712	1822	1407	-308	-30856	608	-10448	1612	-2057	-1782	-8112	5104	14312	-90	144	-160	-17800	9616	-4704	1144	884	-504	-19304	10720	-7808	789	1611	258	135	137	1
16236	-15232	13392	1093	-1220	-2666	-2336	-13304	10312	2791	542	-839	-29064	8760	-10360	1520	-2272	-2052	-7624	3896	14624	-57	217	-226	-17200	5440	-3408	307	891	-507	-17840	2848	-5008	-587	1597	418	127	132	1
5124	-8280	17216	-256	-1593	-2364	-5824	-4288	3744	2813	-431	-1268	-18416	9952	-7872	743	-2030	-1945	-8624	3248	14240	-22	267	-188	-16968	2208	-3600	-90	822	-399	-15832	-2240	-4248	-816	1695	584	126	127	1
-3780	-9920	18728	-872	-2935	-2343	-8200	-2536	1272	2040	-1858	-1502	-13584	9272	-7352	-69	-1810	-1778	-8760	3496	14336	49	264	-150	-15992	3048	-3888	103	659	-334	-15344	-3592	-2840	-275	1926	589	124	118	1
-7672	-8176	17952	-769	-4323	-2542	-9304	-3696	1576	1673	-3013	-1844	-11664	6296	-8216	-635	-1679	-1762	-8408	4840	14104	50	252	-156	-14696	5296	-3104	576	523	-347	-15592	-968	-976	881	2124	430	123	111	1
-8720	-4836	15764	-773	-5070	-2896	-11064	-4320	1568	1876	-3625	-1960	-10864	4968	-9936	-610	-1551	-1754	-8576	5080	13656	-42	195	-205	-14696	7064	-3008	885	405	-400	-14288	4648	-352	1349	2194	334	122	121	1
-7296	-4068	13472	-827	-5168	-3259	-12944	-6432	1528	2468	-3814	-2057	-9120	6256	-10840	-374	-1449	-1652	-8896	3456	13832	-129	145	-285	-14264	7056	-3032	659	492	-475	-13872	4720	-536	735	2312	376	119	243	1
-11276	-4944	15620	-583	-5149	-3380	-14512	-8368	440	3117	-3926	-2080	-7784	5448	-10424	-139	-1230	-1528	-8752	3224	13824	-157	118	-289	-14808	4248	-2624	310	613	-561	-13576	-256	648	337	2652	450	115	215	1
-14252	-6112	18488	-506	-5093	-3336	-18544	-9776	-688	3410	-4297	-2128	-5896	5280	-10504	221	-981	-1387	-8584	3720	14088	-142	124	-277	-15416	4144	-2824	317	687	-610	-14952	-3784	2168	377	2765	486	126	253	1
-18484	-7896	20584	-703	-5042	-3239	-21704	-12840	-2424	3584	-4683	-2237	-3472	6424	-10704	1121	-550	-1146	-12056	6304	13968	-182	91	-390	-15544	5168	-3328	605	735	-638	-17336	-976	1576	187	2414	658	121	253	1
-19152	-8264	20936	-734	-5015	-3207	-26168	-14280	-3824	3771	-4983	-2428	-3040	9336	-9872	1565	123	-835	-8632	3912	13872	-234	180	-413	-14648	4888	-2592	666	848	-716	-18344	80	-1936	286	1798	671	114	253	1
-31628	-11468	30540	-1374	-4879	-3231	-32768	-16736	-5768	3758	-5149	-2600	-4808	8536	-3984	1489	-33	-665	-8960	2784	14480	-191	229	-455	-15488	2744	-2512	679	936	-732	-15856	-2160	-352	-70	1377	825	118	252	1
-32768	-10732	30840	-1555	-4945	-3695	-32768	-17864	-9200	3770	-5208	-2541	-13064	2520	-1984	1379	-576	-926	-8640	2728	14840	-49	338	-461	-17016	4168	-2600	714	1062	-818	-15192	-120	2216	449	1740	587	119	214	1
-32768	-4996	22724	-1208	-4798	-3928	-32768	-16464	-19376	3089	-5056	-2127	-23056	-4000	5504	961	-658	-1932	-8552	4856	16952	112	546	-591	-16760	5976	-1840	736	1252	-968	-19984	-440	3848	493	1784	413	125	181	1
-32768	-2476	-1148	-25	-5220	-2996	-28048	-13112	-27432	2589	-4022	-2275	-25816	4912	20880	2102	-94	-2202	-10776	3768	14536	-27	1104	-635	-18976	4296	-1352	833	1491	-1139	-22432	-5704	4312	378	1498	430	62	214	1
-32768	32767	-18780	-1326	-3387	-1324	-30976	6968	-32768	1102	-2756	-2153	-13760	-26680	32728	363	-1748	-757	-8792	2552	17064	51	1697	-719	-19904	3608	-544	786	1802	-1325	-18920	-4000	7080	652	1451	373	57	253	1
-32768	32767	-32768	-2540	-1296	-595	-12592	15232	-32768	-1395	-686	-28	-13960	-12944	29056	613	9	189	-9200	2416	18720	-131	2368	-681	-20048	4312	-1432	630	2178	-1567	-20632	-3256	10232	666	1012	98	62	93	1
-32768	18096	-22240	685	1022	83	-18856	1008	-32768	-1166	1903	953	-19416	3568	6400	192	482	289	-9768	5968	18232	-145	3157	-798	-22696	6624	-2080	632	2521	-1729	-24648	-4304	14808	128	271	-133	110	208	1
21276	8552	10764	3027	2314	157	-17536	-17152	22208	-799	3243	1309	-18952	4448	-8848	-710	441	243	-11312	8336	21008	-276	4130	-1275	-28360	12888	208	914	2775	-1848	-29208	-1984	19280	-448	-1122	-538	140	252	1
-11752	11176	27760	2004	5863	2587	-25896	-8912	2568	1950	4357	347	-32768	-11112	24968	-1725	-691	-39	-11672	13024	26176	-566	5594	-2363	-32768	22464	1176	1247	3175	-2012	-27688	-4384	21496	-1924	-1319	-781	164	253	1
-32768	3116	32767	1281	3887	3109	-32768	408	-1256	-9	4314	1488	-13440	-14496	14880	1336	512	526	-10152	18368	28848	-956	7179	-4388	-32768	20664	7880	1742	3382	-1684	-28176	-18544	9880	-264	-1373	-645	142	253	1
-26904	-21288	13068	317	3400	1867	-22584	-15024	-4272	-2113	2580	1109	-23872	17936	-13552	2266	504	311	-20000	4736	32767	236	8382	-5039	-32768	9144	7624	2843	3013	-1483	-31568	-7600	1536	2354	-659	-1094	148	164	1
-16900	13924	26948	1714	1352	1584	-11648	-15144	-6872	-1205	2529	232	-9232	14576	-21656	-534	234	264	-32184	8536	32767	2152	8274	-5017	-27704	16944	2896	4242	2086	-1428	-31944	-5416	-20000	4739	-600	-1332	127	0	1
-18356	-24104	7732	924	481	705	-14336	-8968	-9200	-1191	2225	845	-6800	5872	-12272	-1500	995	351	-32768	32767	32767	2746	5544	-4408	-19256	6152	-10616	3329	2026	-1610	-29952	-4920	-17808	4837	-810	-1418	116	0	1
-9424	-1596	15316	395	96	282	-19592	-1736	-5160	-840	1674	584	-26696	-224	-14480	-1177	1444	899	-32768	12800	32767	-2244	592	-2052	-8464	2432	-8080	1311	878	76	-32328	3032	-12016	2460	-1393	-146	134	0	1
-10356	-2788	14640	280	39	191	-19816	-12192	-2400	-1389	836	552	-18160	2312	-9008	-528	1484	850	12064	19776	25280	-706	-3652	1501	-9400	14384	8392	716	-286	939	-32072	9544	-19272	1129	-1825	136	114	97	1
-8764	-3848	14428	260	75	197	-17152	-12056	-400	-1257	525	439	-18400	2848	-5360	-532	1506	916	17424	3408	10840	237	-2483	1886	-5208	10840	10488	-693	-881	1285	-21752	-560	-14384	149	-2592	706	126	90	1
-8052	-4148	13428	32	258	206	-14576	-9272	-944	-903	594	305	-17792	1376	-4600	-618	1538	1255	3720	4776	16776	1783	-2364	2145	-5760	1784	2432	-1415	-1108	1599	-11800	-4528	-12728	-26	-2929	508	133	0	1
-8440	-4388	12992	64	252	190	-13912	-9440	-1152	-482	736	212	-17008	296	-3496	-414	1663	1541	-5256	9728	21512	1532	-3628	2463	-7272	-64	-336	-1545	-1885	2144	-10752	-2568	-11376	-20	-2675	333	130	0	1
-9012	-4192	12928	49	295	103	-14976	-8688	-1560	-275	795	216	-16816	560	-2544	-314	1852	1595	-4176	1472	18584	992	-4740	2590	-9200	-1184	1512	-1513	-2684	2654	-10168	-40	-12040	-141	-2499	283	138	1	1
-8508	-5048	12924	-19	307	30	-14040	-9808	-568	-463	615	295	-14968	-120	-2544	-538	1945	1709	-3784	-4160	16200	1534	-5160	2490	-12296	-2016	1264	-1250	-3367	2902	-8936	2312	-13216	-350	-2578	189	140	0	1
-8616	-4756	12672	-43	278	53	-12848	-10488	-16	-802	240	393	-15032	-984	-2200	-750	1988	1781	-7088	-3184	18584	1953	-5185	2155	-14280	-1352	400	-887	-3929	2990	-7080	1904	-12584	-885	-2484	103	139	71	1
-8900	-5200	12232	46	203	131	-12416	-10608	32	-833	189	425	-15456	-2576	-1088	-658	2096	1883	-11576	-1520	21776	1900	-5231	1901	-17440	-2568	-1888	-734	-4463	3101	-5848	2080	-11664	-1143	-2219	-59	138	71	1
-9416	-3748	12920	113	167	198	-12352	-9680	-128	-696	325	572	-13504	-1912	1952	-47	2426	1592	-14920	-160	22536	2003	-5359	1789	-20072	-1240	-2808	-478	-4838	3235	-4608	3640	-11600	-1048	-1943	-281	133	84	1
-8536	-3968	12696	150	162	231	-13080	-9144	-88	-522	600	595	-13992	-1872	4640	92	2869	1444	-16112	3832	21600	2035	-5178	1826	-20776	1096	-3072	-491	-5041	3371	-2928	4224	-12416	-780	-1590	-339	139	105	1
-8920	-4440	12280	163	150	284	-13080	-9328	272	-786	617	700	-18136	-4416	-280	-715	2158	1410	-17672	7696	22848	1989	-4590	2087	-23296	3760	-3568	-992	-5034	3588	-2440	4872	-12144	-555	-1118	-256	135	109	1
-8652	-4500	12416	197	163	309	-11312	-10376	936	-1147	596	833	-15768	-2392	-2000	-149	1565	1051	-22520	11264	26784	2197	-3919	2538	-31272	4040	-6144	-1629	-4977	3852	-3664	2992	-7904	-733	-1165	-172	132	107	1
-11768	-4804	13964	313	191	543	-14128	-8080	-952	-1218	604	817	-14312	1072	-312	-115	1445	860	-32768	13992	32424	2402	-3567	3620	-32768	3544	-12208	-2400	-4826	3899	-10104	-2936	-9704	-1132	-1374	-339	125	101	1
-8656	-3044	13540	249	403	524	-17040	-8088	-768	-1252	613	899	-16120	344	-680	-928	1553	1172	-32768	15840	27360	1457	-3727	5016	-31648	4400	-15416	-3438	-4299	3481	-19512	-3736	-8	-1642	-2177	-719	125	97	1
-6292	-3744	11980	167	605	634	-15304	-10296	-128	-1363	714	1001	-19424	-2400	1216	-951	1641	1216	-32768	6592	12464	-722	-3825	5233	-31624	6176	-24872	-4344	-3207	2470	-23328	-13152	10232	-1045	-2783	-855	117	106	1
-11052	-3908	14204	104	633	625	-16912	-10664	2696	-1417	964	1199	-23504	-3248	2816	-758	1431	1016	-32768	-17800	-15840	-1682	-3358	4017	-21520	-16376	-32768	-4102	-1932	1812	-5776	-15520	28992	-1971	-1406	101	106	102	1
-8952	-4084	16984	195	1507	926	-18288	-9600	3392	-1455	1331	1373	-21488	-4536	6224	-609	894	899	-32768	-32768	-32768	1368	-1585	2438	1480	-17544	-32768	-555	-279	916	-16160	-14184	32496	-2695	-252	97	109	129	1
-9024	-3900	17368	321	2299	939	-18488	-11400	2168	-1400	1775	1639	-17680	-9184	6808	-750	177	927	-32768	-32768	-32768	1610	-1136	2229	-12640	-6744	-28968	-71	2466	-632	-21256	-21816	6272	-2225	591	716	113	113	1
-11368	-5224	17224	564	2997	1240	-19296	-13984	864	-1418	2327	1799	-21312	-12240	13424	-615	-900	707	18168	-192	2016	-967	3376	1218	-32768	2096	6920	207	2587	-1713	-22032	-8880	-5552	477	-447	-217	116	116	1
-12980	-12012	21532	786	3907	1894	-24192	-21824	5128	-1633	2616	1963	-26136	-11368	17048	-714	-2038	188	-32768	-32768	32767	-1640	5586	-2434	-28128	6960	-840	-1221	3377	-996	-29688	-15528	12256	-1328	-1113	-444	113	128	1
-16772	-19564	27368	948	4992	3098	-25504	-22944	4232	-1698	2627	1965	-28408	-10848	18408	-791	-2222	111	-32768	9328	32767	-429	3766	-2673	-32768	-22568	-4432	-158	4169	-1776	-20920	-2464	-8176	-767	946	631	102	126	1
-27760	-23816	27508	603	6957	4640	-31112	-31352	12752	-2394	2366	1784	-28424	-1336	2264	173	-1753	-691	-31024	32767	4840	-1807	2505	-1040	-11840	22728	-24160	707	3863	-691	-15616	-5704	-18320	632	1394	1274	103	133	1
-17172	-19100	30636	76	7205	4880	-28600	-25792	10872	-2409	2078	2133	-28472	-928	-12384	189	-1696	-367	-9376	-27088	24160	-994	484	-1146	-19744	-13392	-12768	-395	3046	-1173	-5792	17104	-21368	2484	1448	408	100	113	1
-32768	-32768	29408	-1100	5857	4632	-21880	-23576	-4184	-2629	1932	2017	-21472	528	-5616	66	-2134	-938	-10152	-4528	20632	-1262	259	-694	-15776	4344	-9400	739	1794	-525	-19544	10456	-13096	696	1328	875	110	124	1
15572	-32768	30672	2964	3128	4105	-8008	-20912	-8904	-1360	1331	634	-29920	4008	-3968	299	-2080	-1198	-14336	10824	14280	-250	241	-144	-21840	6744	-8152	1415	1307	-575	-22832	8840	-12600	313	1510	643	125	133	1
-11796	-32768	32256	1593	-826	-1902	-11336	-7520	1616	812	717	-289	-31960	3280	-8024	1017	-2098	-1433	-8808	3272	15560	-214	174	-235	-18096	4944	-4656	719	1032	-494	-17800	3808	-7544	-323	1510	614	139	115	1
16140	-19600	11272	1029	-949	-3171	160	-20640	9704	2085	615	-949	-27112	7648	-7864	1415	-2026	-1916	-7168	3616	15016	-102	296	-266	-17632	3072	-2680	249	966	-435	-16296	-2552	-5304	-629	1742	740	141	122	1
15672	-16792	11776	1028	-801	-3068	-5480	-5864	4640	2891	318	-1588	-19984	11816	-6864	864	-1976	-1946	-9032	4024	14408	-12	342	-202	-17896	1248	-3336	277	768	-251	-16296	-3808	-5592	-252	1883	550	142	138	1
-848	-7880	18212	-1276	-2036	-2616	-9184	-1552	2256	2357	-1073	-1837	-14792	10688	-6168	-6	-1932	-1820	-8592	3608	14824	38	399	-146	-16504	2696	-3160	389	616	-170	-15816	-2384	-2792	62	2003	471	138	124	1
-5656	-7648	18140	-1167	-3339	-2562	-9560	-1968	2248	1610	-2424	-2159	-12320	8184	-6936	-914	-1721	-1701	-8008	4224	14128	123	412	-152	-14872	4904	-3104	523	526	-222	-15464	-1440	-840	512	2136	488	134	114	1
-6404	-2172	16616	-1176	-4166	-2713	-12136	-2808	2632	1485	-3165	-2316	-11608	5984	-7912	-1102	-1525	-1727	-8096	4760	14184	31	404	-208	-14552	7200	-2568	737	411	-276	-15288	2864	184	788	2122	498	132	110	1
-7032	-1728	16348	-1376	-4457	-2916	-13704	-4304	2040	1826	-3443	-2288	-10032	7440	-8648	-978	-1397	-1763	-8456	4328	13680	-38	315	-229	-14424	6184	-1968	554	480	-406	-14656	3464	-184	395	2109	500	128	117	1
-8184	-2988	17372	-1220	-4495	-3071	-15320	-7056	1960	2322	-3709	-2303	-8512	4976	-8624	-901	-1245	-1668	-8888	4088	13520	-75	221	-238	-14096	4880	-2152	348	580	-477	-13536	-128	392	117	2219	487	122	244	1
-8312	-3172	17616	-1162	-4493	-3069	-18448	-8224	664	2662	-4086	-2336	-7296	3416	-9280	-520	-1094	-1589	-8784	3088	14008	-110	169	-227	-14856	3576	-2792	294	693	-517	-13032	-3128	1288	274	2437	436	122	253	1
-14680	-4152	20316	-1157	-4421	-2683	-20208	-10072	-1336	2843	-4459	-2358	-5760	1896	-9056	146	-920	-1539	-8616	4104	13992	-154	159	-261	-15440	4352	-2584	423	750	-540	-14664	-3296	1400	555	2696	478	123	252	1
-19556	-7496	22796	-1186	-4241	-2563	-23584	-11128	-2632	3071	-4515	-2464	-4664	5368	-7536	994	-672	-1485	-8400	3944	13936	-151	148	-275	-15576	4288	-2968	571	811	-595	-19000	-536	456	276	2429	555	120	252	1
-22868	-9852	24732	-1144	-4148	-2851	-27320	-14368	-2216	3445	-4482	-2574	-4936	7472	-6248	1536	-257	-1286	-10536	4944	13536	-128	115	-391	-15064	3888	-2728	707	896	-657	-17464	288	-1824	29	1769	580	118	253	1
-25900	-10060	28572	-1251	-3772	-3071	-32768	-15696	-3072	3679	-4581	-2638	-8024	5144	-1744	1482	-353	-1063	-8632	2904	13984	-69	216	-380	-15184	3120	-2232	731	1004	-726	-14288	-2552	-488	-355	1293	623	112	230	1
-32768	-9924	32767	-1603	-3951	-3814	-32768	-15560	-11144	3340	-4805	-2402	-13136	1200	-864	1124	-769	-1366	-8112	2128	14952	56	384	-357	-18288	2728	-2976	645	1111	-825	-14952	-296	-272	203	1834	514	107	154	1
-32768	-4640	24012	-1076	-5117	-3895	-29760	-15536	-14240	2862	-4613	-2337	-20976	-2584	4264	1037	-162	-2015	-8680	3576	14944	33	771	-309	-18048	5008	-2096	740	1222	-947	-18912	-1320	560	14	1723	406	94	97	1
-32768	5284	8196	-613	-5030	-2614	-31312	-15592	-20264	2350	-4079	-2028	-17440	-960	15936	1213	170	-1912	-9240	3992	15992	89	1080	-436	-17888	5456	-2184	663	1494	-1119	-23336	-2344	2448	75	1497	375	0	169	1
-32768	27584	-12640	-1893	-4142	-845	-28744	8976	-32768	739	-3286	-1872	-19264	-11480	31296	-345	-1361	-639	-8880	3152	17176	117	1619	-549	-20560	3128	-2440	705	1693	-1263	-19280	-3728	4664	271	1406	344	25	189	1
-32768	32767	-32768	-3585	-2102	-327	-13696	14640	-32768	-2329	-2012	-308	-15968	-22200	25544	55	-920	-235	-8120	3440	17536	64	2257	-598	-21184	4440	-992	731	1886	-1454	-19832	-4168	7488	649	1170	150	44	0	1
-32768	18476	-23900	-185	473	497	-12960	-56	-32768	-1979	870	734	-21008	-2920	16176	-127	224	135	-10256	4136	16304	-65	2933	-772	-21336	5400	-2456	717	2180	-1605	-22680	-4840	13904	504	384	-103	73	253	1
2020	-14176	16856	2852	996	-515	-21592	-8560	-13576	-1345	3171	1363	-15288	3688	-904	327	194	135	-10712	6608	19592	16	3780	-1110	-25344	8352	112	949	2435	-1748	-24416	-4784	14512	-828	-134	-239	116	208	1
30568	-4852	32767	3023	5186	593	-20136	-32768	32767	1351	3217	716	-16816	-1272	1360	-1146	417	256	-10648	8752	22048	-21	5043	-1830	-32768	13744	864	1360	2614	-1989	-27256	-1328	16432	-876	-700	-340	145	253	1
-32768	32767	32767	2415	5446	3021	-32768	15440	-16624	2559	5752	771	-30984	-23408	32384	145	-528	-160	-9448	9528	22584	-53	5315	-1930	-32768	16520	3576	1459	3033	-2018	-27032	-13632	13640	-853	-1026	-330	157	144	1
-32036	-1292	28472	917	3483	3280	-32768	-9848	-4336	-938	3317	1465	-22984	-3216	5832	3114	935	819	-17144	12248	27112	-695	7818	-4509	-32768	11096	8768	1863	2891	-1770	-31808	-7344	7280	720	-908	-977	150	0	1
-32768	-32768	25336	1528	2613	1224	-14632	-26240	-10896	-2228	2484	1035	-23208	2920	3688	3206	928	804	-22136	15312	31704	1066	8797	-4526	-32768	15208	7288	2715	2361	-1780	-29632	-2688	-9008	2925	-921	-1305	145	0	1
-12508	23840	29800	908	770	1170	-26160	640	-5552	-591	2708	309	-7760	17448	-16544	-1531	46	403	-32768	8008	32767	2782	6877	-4200	-19056	13240	-5496	2143	2105	-2132	-23368	-2704	-8928	3250	-1043	-1062	118	0	1
-17524	-14276	13720	843	357	485	-8712	-13728	-9336	-1324	1881	493	-11144	4944	-16264	-2937	1159	660	-4168	21440	32767	1777	3980	-3552	-16880	7208	-16912	599	1803	-1208	-30384	2656	-15080	2452	-1249	-718	136	0	1
-12232	-9816	11888	230	149	158	-17392	-9096	-4520	-1596	1217	759	-28440	-5280	-15648	-2125	1363	917	-22768	32767	32464	-1123	-1903	375	-12680	7936	-1192	134	518	-101	-32768	7608	-16712	816	-1565	-328	137	11	1
-10112	-5056	13280	152	105	152	-17712	-12280	-3768	-1596	365	503	-16776	-1176	-10880	-513	1378	802	13408	7768	17704	-1574	-3540	1176	-13168	15616	9264	-563	-587	590	-27800	656	-15536	-376	-2041	238	128	34	1
-6792	-5676	13056	63	195	128	-14096	-12536	-1912	-1107	372	439	-15128	3248	-6264	-541	1691	843	5408	3528	12184	204	-2771	1057	-6552	2120	6360	-919	-1054	762	-19344	-3128	-13080	-238	-2623	248	139	47	1
-7916	-4856	13120	99	158	205	-13584	-9816	-1208	-565	677	293	-17752	72	-4176	-652	1501	1303	-1040	9216	14416	1329	-2929	1567	-6712	40	-608	-843	-1476	1190	-14200	-4680	-11984	-189	-2801	109	131	68	1
-8052	-5488	13060	151	126	187	-14352	-9560	-1096	-62	907	124	-18472	1144	-2432	-363	1663	1502	-5016	11552	15816	832	-3845	1995	-6456	1296	-1256	-796	-2239	1840	-11936	-3120	-11144	95	-2562	8	142	84	1
-8720	-4036	13024	74	209	83	-16032	-8584	-1264	-243	747	177	-17616	2064	-3328	-603	1864	1624	-1504	1656	12976	445	-4475	2270	-8856	576	-224	-933	-2806	2255	-9544	-1968	-11024	127	-2489	-18	146	95	1
-9188	-5400	12528	-15	196	20	-12936	-9968	-48	-747	325	279	-15392	-1216	-3080	-1082	1943	1777	-5552	544	14400	1049	-4775	2419	-11224	-384	-704	-742	-3369	2424	-10688	440	-11144	218	-2437	-24	142	104	1
-8612	-6128	12272	-13	144	78	-10800	-12304	152	-1021	-112	427	-13792	-5368	-1352	-1177	1901	1803	-9632	3144	16672	1354	-5054	2325	-12304	1152	-2032	-584	-3820	2626	-7872	3240	-12808	-432	-2446	2	140	111	1
-8804	-5424	12056	91	92	163	-10344	-11448	152	-842	-36	523	-13496	-5976	208	-558	1918	1564	-11496	2664	17904	1273	-5353	2025	-14064	1648	-2824	-715	-4237	2949	-6664	3136	-11960	-844	-2400	-88	138	115	1
-8504	-4960	12408	180	102	214	-11392	-10392	-24	-417	392	552	-13232	-2144	1920	61	2121	1497	-14264	3552	18184	1626	-5422	1847	-16112	1320	-3576	-711	-4586	3136	-5328	5080	-13056	-1039	-2192	-133	139	155	1
-8236	-5144	11888	260	103	291	-13608	-9336	248	-408	544	572	-14136	-504	1768	-39	2458	1272	-15864	7576	16888	1836	-5211	2014	-18600	2544	-3792	-829	-4757	3370	-1640	4512	-14160	-1236	-1890	-249	140	150	1
-10152	-5476	13272	199	84	280	-13776	-9064	-136	-675	526	617	-17752	-2024	-536	-777	2328	1360	-16384	9160	19312	1775	-4430	2272	-22376	2888	-4176	-1205	-4893	3632	48	2040	-13048	-982	-1269	-251	136	144	1
-8364	-4896	12760	213	149	355	-13016	-10104	192	-895	539	732	-17832	-1400	-328	-620	1979	1312	-28376	10328	28304	2062	-3902	2787	-27480	2168	-8432	-1642	-4835	3809	-2800	-256	-8296	-393	-1063	-431	134	139	1
-8692	-4160	13044	205	235	447	-13944	-8920	-40	-961	562	734	-16760	-800	392	-221	2012	1103	-32768	14640	31376	1761	-4222	3409	-32768	3144	-11576	-2045	-4770	3951	-3760	-1056	-6712	-435	-1125	-442	126	138	1
-9148	-4208	13220	191	381	481	-14408	-9552	-200	-1027	625	765	-15888	-4360	-592	-523	1798	1165	-32768	9752	29168	1080	-4404	4116	-32768	3136	-14536	-2483	-4638	3570	-18720	2528	-3976	-1101	-1762	-270	122	130	1
-10900	-6892	15652	187	507	562	-13696	-11056	200	-1126	778	867	-17352	-5488	344	-593	1638	1112	-32768	3384	17136	242	-4552	4240	-32480	3352	-14736	-2565	-4588	3456	-23336	-4136	1776	-1271	-2447	-124	124	130	1
-9684	-5964	13332	147	715	716	-13824	-11168	992	-1309	1018	1053	-21336	-4168	504	-448	1373	970	-32768	-1552	-4856	-656	-3880	3575	-26336	-1920	-29200	-3206	-2674	2312	-12984	-16688	28120	-1665	-2662	92	120	129	1
-8656	-6216	15472	280	1173	852	-17504	-11168	2120	-1392	1261	1220	-22328	-2720	3664	-618	1091	819	-32768	-29040	-32768	707	-2139	2468	-10472	-16576	-32768	-1891	-1207	1594	-8088	-15856	32767	-2078	-305	-197	107	145	1
-9728	-2728	17200	427	1735	1014	-18976	-10048	2104	-1465	1627	1418	-19720	-4488	3984	-935	759	847	-32768	-21800	-32768	546	776	1934	-4000	-11704	-31312	-831	1764	-113	-18680	-25984	23752	-2282	599	629	111	155	1
-8996	-5072	17704	602	2438	1076	-18416	-12688	2104	-1415	2041	1604	-19984	-8288	6008	-1022	2	818	-32768	-17728	-32768	-1200	4148	1302	-20520	-13104	-19432	-607	2929	-947	-21856	-13896	496	-765	120	275	102	126	1
-11524	-8048	18496	690	3257	1454	-18576	-13296	1800	-1431	2109	1628	-25064	-11696	9200	-725	-1194	452	5112	-30248	32767	-554	7059	64	-32768	6336	32767	-218	1672	-1575	-20656	-960	-5696	1097	369	-221	112	151	1
-12360	-10532	21004	794	4202	2254	-25176	-22256	1912	-2076	2769	1749	-25952	-12280	9456	-687	-1370	379	-32768	-32768	32767	-1600	4523	-3843	-26776	-18456	-21784	-2029	3973	-1158	-9160	-3840	4488	-917	-1027	-355	119	138	1
-16156	-18468	27640	924	5450	3649	-30568	-32640	7808	-2353	2929	1701	-26592	-11048	8144	-1117	-1541	-746	-32768	32767	-11520	-2023	3029	-935	-26936	12352	-28176	300	4416	-923	-32768	-2544	-13368	-705	972	995	113	106	1
-17660	-17244	31792	711	7268	5156	-32768	-30056	9232	-2616	2796	1484	-27728	448	736	-144	-1887	-279	-6320	-32768	32767	-1510	239	-1407	-22752	-19712	-9568	-2372	3242	-1025	-6664	3904	-16968	1947	2079	747	121	151	1
-26092	-18000	30656	-10	8348	5227	-30232	-28736	17200	-2710	2032	1910	-31912	16	-16648	1087	-2253	-478	-11296	12592	13832	-858	22	-392	-10120	10480	-16104	1003	2285	-574	-6496	8544	-18032	374	765	1136	109	114	1
-32768	-32768	32767	-2290	5988	4332	-20864	-20504	-1008	-3524	1517	2045	-30840	7232	-9056	179	-2480	-1179	-6384	-3792	17624	-892	-36	-480	-20400	-4088	-6864	1413	1202	-472	-24760	4744	-18552	941	1437	792	111	111	1
-11636	-32768	24076	4656	2772	3610	-6584	-17864	-5360	-1149	834	286	-31696	6008	-2216	-22	-2373	-1340	-8648	3560	15392	-147	55	-120	-21416	6240	-5728	1653	743	-298	-20744	7464	-8664	829	1636	550	127	117	1
6388	-29940	28900	1433	-1429	-2647	-5400	-9368	11528	1228	460	-671	-32464	2848	-9480	786	-2168	-1764	-7224	3832	15456	-49	133	-120	-17592	7816	-1792	572	802	-338	-17464	2120	-4840	-278	1695	627	134	148	1
10868	-24804	25728	1163	-1316	-2926	624	-12608	10952	2234	148	-1175	-27040	9728	-10128	1332	-2411	-2226	-7080	2912	15152	-1	256	-150	-16376	1864	-2000	-46	866	-307	-15688	-4016	-3768	-709	1788	716	132	128	1
4768	-5972	19164	-842	-1464	-2802	-5008	-3592	3584	2793	-321	-1747	-16712	11664	-7528	562	-2202	-2024	-8216	3560	14768	53	294	-83	-17104	2224	-2480	31	663	-185	-14904	-2488	-2688	-386	1873	623	130	112	1
-4224	-7392	21536	-1298	-3052	-2736	-10336	-1584	2640	2448	-1744	-2029	-11528	10320	-7056	-444	-1966	-1788	-7952	4216	14256	71	283	-65	-14984	5432	-2856	279	500	-228	-15080	-1976	-656	352	2004	601	128	104	1
-6284	-3284	19768	-1232	-4358	-2733	-11312	-424	3336	1823	-3083	-2278	-9856	6840	-8656	-1097	-1747	-1780	-7848	5320	13896	-5	225	-151	-13696	6264	-2200	918	350	-319	-14464	896	656	1219	2165	511	126	103	1
-7228	-1196	17096	-1389	-4960	-2975	-12080	-2392	2856	1817	-3788	-2354	-8928	6840	-9912	-1154	-1681	-1673	-8016	3912	14184	-90	149	-209	-14728	6064	-752	944	330	-335	-12784	3944	1576	1239	2368	477	122	105	1
-8780	-2040	16968	-1237	-5036	-3281	-14360	-4952	2368	2350	-3979	-2364	-8512	5480	-10720	-883	-1489	-1489	-7952	3912	14112	-143	144	-236	-13584	7128	-216	431	599	-440	-13592	1848	2296	400	2446	489	122	125	1
-10684	-2356	18472	-881	-4951	-3450	-17096	-7848	1704	3103	-4032	-2343	-6328	5464	-9880	-486	-1329	-1401	-8480	1880	13968	-168	105	-254	-14360	3728	-1568	0	840	-556	-15800	-3208	3992	-198	2495	513	122	169	1
-13748	-2896	21160	-761	-4838	-3343	-20544	-8960	-272	3550	-4338	-2304	-4048	4136	-10096	-2	-1085	-1291	-8360	2888	14720	-183	58	-252	-15576	3880	-1576	209	904	-608	-16904	-3104	2416	-153	2296	525	128	151	1
-17752	-4232	22980	-850	-4661	-2992	-23448	-11456	-1912	3649	-4794	-2305	-3024	6288	-9992	990	-607	-1174	-8552	3288	14568	-223	69	-340	-15216	5136	-2096	515	967	-667	-17288	-1296	-528	169	1967	502	126	143	1
-26176	-7116	27452	-1064	-4595	-2755	-28064	-13256	-4248	3599	-5078	-2366	-2064	9120	-8760	1535	86	-898	-7984	3776	14712	-253	101	-415	-15760	4192	-2560	639	1059	-693	-16648	-1464	-1296	4	1646	597	124	167	1
-32768	-10516	32576	-1422	-4810	-2945	-32768	-16624	-5744	3614	-5217	-2517	-5264	6400	-936	1596	-160	-770	-7720	2920	15184	-261	225	-483	-16416	3192	-2304	727	1085	-716	-15432	-24	-1688	-29	1645	703	118	181	1
-32768	-6804	30552	-1440	-5111	-3465	-32768	-17168	-8968	3535	-5295	-2432	-11888	648	144	1305	-829	-1038	-8136	2336	14984	-168	404	-480	-17048	3680	-2760	715	1164	-814	-17440	816	-528	117	1673	421	121	206	1
-32768	2412	23468	-1260	-5006	-3487	-32768	-13544	-18096	2968	-5029	-2037	-24840	-7480	9104	579	-908	-2137	-8448	2584	15400	-60	614	-485	-17112	4216	-1648	686	1313	-973	-17216	-2232	3032	-78	1550	409	102	228	1
-32768	8172	2200	-694	-5187	-2479	-31248	-9096	-28504	1929	-4389	-1646	-24248	5456	15408	1167	75	-2410	-8712	2656	14976	-18	631	-501	-19272	4144	-1544	763	1525	-1117	-19200	-5696	4512	259	1610	585	1	247	1
-32768	26412	-23080	-719	-4497	-369	-19472	9088	-32768	625	-2946	-1483	-15752	-22584	32767	-643	-1723	-200	-9072	2608	17160	111	1631	-650	-20392	2744	-552	902	1756	-1250	-20080	-6384	5896	700	1548	539	3	252	1
-32768	32767	-32768	-3306	-1797	405	-17096	13912	-32768	-2448	-1137	36	-13248	-14848	29376	39	-743	504	-8176	1776	17776	119	2354	-600	-20888	4000	-656	744	2086	-1516	-22632	-2520	5536	899	1100	81	20	183	1
-32768	12004	-21784	220	986	510	-16184	-2776	-32768	-1813	1505	1291	-21752	608	9184	119	343	269	-9088	4528	19528	-97	3113	-708	-22640	5704	-2016	603	2420	-1673	-24928	-3664	11288	418	348	-289	72	234	1
-2292	1268	-1504	3510	2094	893	-15736	-29496	11792	-813	2963	1309	-18632	4376	-9792	-35	327	315	-11392	7184	21784	-85	4045	-1104	-27888	9528	-1032	864	2636	-1787	7000	1384	8096	147	-327	-528	148	253	1
-7380	4	24624	1449	5839	1742	-26024	-9176	8944	2685	3685	143	-19344	112	7856	-1682	97	320	-12960	9352	21248	-287	5300	-1872	-32768	16592	-1208	1228	2877	-2006	-26704	-2904	20688	-1805	-1165	-569	181	253	1
-32768	14500	29652	1643	4803	2744	-32768	4032	-7672	445	4598	1298	-18680	-20080	16616	200	-227	116	-14728	16064	24152	-588	6684	-3457	-32768	19640	5056	1530	3230	-1948	-23960	-16976	10760	-1028	-1308	-395	180	253	1
-22540	-3276	19000	648	3702	2586	-29936	-12576	-3944	-1270	3178	1132	-22512	6424	-4480	2216	1038	391	-14400	8200	28224	-709	7727	-4874	-32768	10008	6752	2107	3148	-1619	-30232	-5896	7008	1327	-209	-1004	177	0	1
-32768	-15384	32767	1556	1190	1281	-8520	-22600	-24104	-1107	2017	228	-18176	13688	-10280	448	637	-59	-24656	21280	32544	1559	8763	-4467	-32768	14448	7008	3619	2255	-1578	-29360	-4128	-13480	3498	-688	-1265	135	1	1
-19424	-5344	10956	399	149	692	-27800	-3144	-9632	-877	2159	757	-11224	11120	-11192	-1053	483	617	-32768	26512	32767	2628	6312	-4089	-17744	11168	-6544	2924	2115	-2179	-24832	-2408	-12488	3886	-1122	-993	102	0	1
-8852	-1048	15892	191	185	245	-20608	-7200	-10128	-1208	2215	855	-19368	6768	-14808	-1659	1191	770	32767	32767	32767	-1028	3223	-3237	-15000	2640	-13320	762	1290	-679	-31520	4512	-12952	2643	-1232	-442	131	0	1
-8944	-5880	13232	119	130	147	-16136	-9704	-3192	-1850	724	557	-19368	-480	-12440	-1664	1343	813	-5344	32767	26344	-1175	-2351	1134	-12360	3824	400	301	139	244	-32768	10496	-17968	1225	-1494	-149	133	0	1
-8816	-4372	13588	22	170	124	-16296	-13832	-1416	-1708	207	384	-16368	-2440	-7656	-854	1428	886	18032	9600	12192	-616	-2331	1791	-7296	13336	8472	-427	-720	829	-25008	432	-15192	-254	-2146	545	133	6	1
-8312	-5684	12976	0	208	197	-13584	-12528	-1624	-907	420	308	-17024	816	-7248	-706	1435	1108	8672	6512	11840	734	-1841	1821	-3112	5336	5264	-1229	-1011	1017	-22568	-752	-14936	-282	-2333	641	131	48	1
-7820	-5108	12932	48	237	188	-14240	-10208	-728	-387	639	210	-17272	-392	-3264	-616	1581	1349	-1552	11576	18288	1112	-2587	2192	-4864	2080	-2016	-1594	-1546	1468	-10616	-2352	-11248	-240	-2696	274	135	52	1
-8412	-4536	13012	12	320	107	-15400	-8768	-392	-96	767	146	-18200	272	-2632	-459	1668	1496	-6088	9456	17680	506	-3854	2434	-6600	1824	-2112	-1637	-2300	2122	-11592	208	-11744	-170	-2389	243	145	78	1
-9140	-4992	12524	-60	318	0	-14472	-9336	-200	-474	482	243	-16208	1360	-3000	-637	1850	1611	-6688	3120	16088	677	-4723	2552	-9816	576	-904	-1424	-2946	2448	-11408	1592	-12496	-292	-2413	243	146	96	1
-8592	-5576	12364	-102	227	22	-12344	-10576	120	-924	-21	355	-14488	-936	-3336	-1065	1947	1735	-7512	1920	15408	1240	-5103	2575	-11856	888	-1176	-1135	-3501	2621	-9200	3208	-12536	-676	-2497	145	142	102	1
-9044	-6044	11964	-43	114	109	-11256	-11840	104	-1004	-229	440	-14456	-2904	-2112	-785	2091	1708	-10832	3560	17056	1395	-5247	2448	-12432	936	-1176	-1095	-3581	2654	-6736	1880	-11600	-1117	-2420	83	140	106	1
-7680	-5096	10808	104	108	162	-11624	-10488	-112	-643	67	506	-12712	-3832	2128	-94	2335	1736	-13144	3768	18816	1340	-5297	2284	-16832	1344	-3448	-940	-4404	3012	-6536	3560	-11632	-1372	-2254	-8	140	151	1
-9052	-5032	12200	81	85	160	-11800	-9480	216	-408	356	506	-12184	-1880	4576	116	2752	1362	-15520	5264	17848	1504	-5156	2187	-19016	2448	-4608	-907	-4686	3200	-4208	5224	-12736	-1479	-2008	-130	137	144	1
-8824	-5060	12208	99	87	158	-12856	-9904	232	-557	461	551	-14568	-1760	1504	-983	2537	1368	-16600	7720	18376	1499	-4651	2148	-21416	3632	-4472	-1130	-4808	3432	-1880	2512	-13608	-1345	-1570	-162	137	150	1
-8868	-4580	12252	178	52	260	-12752	-9392	936	-780	473	717	-19120	-1224	-7632	-532	1937	1207	-23040	8224	25000	1690	-3988	2266	-25192	1752	-6976	-1568	-4821	3645	-2784	304	-10920	-871	-1134	-131	133	148	1
-8480	-4940	12560	209	84	330	-13080	-9672	536	-904	432	717	-18776	-3400	-552	-145	1631	1041	-30512	10184	29656	1958	-3974	2781	-32768	1576	-9192	-1780	-4764	3777	-5960	-3416	-4152	-547	-1431	-492	132	139	1
-8676	-4812	12664	210	204	418	-14192	-10040	456	-905	550	730	-16856	-1296	256	-122	1805	1027	-32768	10064	32512	1545	-4074	3274	-32768	1384	-12752	-1991	-4754	3727	-16344	-3056	-1048	-911	-2051	-543	128	127	1
-9120	-5820	12920	205	327	502	-13032	-10528	1488	-1014	700	812	-16744	-4216	2344	-682	1495	1061	-32768	3136	25080	755	-4510	3701	-31184	2608	-16920	-2216	-4313	3137	-20768	-2800	-1752	-747	-1877	-143	124	134	1
-8432	-6496	13388	250	539	643	-13720	-10976	1984	-1211	936	968	-20312	-5256	4984	-635	1414	888	-32768	-4624	8120	186	-4696	3311	-27112	-3360	-23864	-2628	-3299	2539	-15192	-11432	8200	-116	-2086	75	125	117	1
-10128	-5912	13268	121	819	801	-15800	-10608	2192	-1412	1150	1158	-22504	-968	2632	-720	1136	706	-32768	-17760	-20584	475	-3186	2406	-18952	-14248	-32768	-1975	-2018	2209	-6984	-17136	32767	-1775	-1426	-145	116	132	1
-9040	-3348	17012	237	1422	855	-19512	-10448	2456	-1437	1441	1379	-21776	-2504	2160	-903	908	754	-32768	-25344	-32768	1129	-581	1915	128	-14544	-32768	-855	580	555	-17120	-12920	27552	-2036	-120	576	115	138	1
-7996	-4072	17868	294	2053	953	-18856	-10512	2920	-1352	1869	1556	-17576	-6552	3208	-936	346	891	-32768	-10192	-22584	-2393	3216	809	-17368	-10416	-28328	-864	2682	-693	-18840	-14112	5016	-1998	-279	580	112	148	1
-10008	-6840	18896	528	2727	1075	-18568	-13752	3216	-1351	2327	1723	-21528	-8560	8104	-805	-589	744	-9688	-6984	22712	-1517	4243	985	-32768	2160	17496	-563	2233	-1549	-19712	-2544	-8952	189	437	219	113	131	1
-10424	-10332	19968	568	3655	1613	-22544	-19056	4024	-1620	2676	1785	-29792	-12160	11040	-509	-1824	297	-32768	-32768	32767	-1614	5814	-1549	-25456	-2080	-1328	-793	2762	-1094	-25952	-15496	30048	-1313	-525	-77	115	141	1
-12600	-13020	24132	770	4807	2700	-28744	-26216	4288	-1850	2950	1802	-30264	-18536	30272	156	-4486	-501	-32768	1352	32767	-429	3819	-2470	-32768	-8960	-2720	196	3228	-1657	-16536	-5864	-104	-1590	644	283	119	137	1
-20776	-27420	27504	454	6307	4133	-32768	-32768	11808	-2279	2854	1716	-27456	-1416	12728	322	-1961	-787	-32768	32767	12544	-1598	2271	-967	-14016	27488	-25184	299	3950	-627	-18888	-4888	-13504	596	1196	955	120	121	1
-14172	-14720	28960	151	7804	5535	-32056	-30776	18112	-2450	2506	1745	-28064	-2056	-6184	253	-1567	-139	-5504	-17344	23632	-727	749	-955	-22416	-19128	-6424	-962	2923	-1344	-6432	13752	-19112	2349	1838	708	123	134	1
-30520	-22640	30976	-1000	7220	5221	-18112	-23448	4008	-3197	1608	1990	-27792	4568	-15520	952	-2090	-519	-14976	-7472	20880	-706	172	-472	-10712	4224	-13160	777	1886	-491	-14144	7488	-15040	749	1009	973	114	118	1
-14620	-32768	32767	-667	3761	4514	-17944	-23584	-6632	-2401	1369	1361	-30056	7472	-7456	171	-2446	-1193	-11384	5472	14424	-159	133	-73	-21520	1904	-7696	1534	1087	-454	-23472	7896	-14736	1120	1549	664	111	120	1
-32768	-32768	28800	2400	-29	214	-5504	-15760	3688	-613	1341	-51	-28592	2200	-5696	42	-2324	-1482	-10184	1296	15456	-106	124	-120	-19072	6184	-4384	1399	757	-337	-17968	5864	-5536	551	1624	571	135	127	1
13844	-18724	18784	746	-1134	-2454	-3040	-17008	16472	1443	548	-498	-31688	2592	-9664	1010	-2155	-1884	-7688	4352	15344	-58	208	-145	-16360	7240	-1576	504	887	-369	-16792	1392	-4360	-367	1656	614	135	137	1
10740	-11344	11148	53	-741	-2459	136	-7312	7544	1992	96	-951	-21592	9576	-9944	994	-2174	-1969	-5392	3240	14576	49	279	-145	-16352	2792	-2232	-123	913	-302	-16080	-2840	-3944	-591	1743	604	131	126	1
2264	-8888	17308	-590	-1648	-2357	-4632	-4688	2240	2202	-823	-1443	-15088	9056	-8024	211	-1982	-1804	-8320	1784	13840	139	291	-97	-17056	1896	-3680	-31	746	-212	-14832	-3088	-1952	-424	1806	579	127	105	1
-3140	-7628	17684	-686	-3007	-2365	-8336	-2880	2168	1989	-1960	-1780	-11576	6552	-7920	-551	-1723	-1734	-8672	3168	15224	153	274	-77	-15448	4872	-3648	491	464	-197	-15272	-1160	-1992	542	2037	553	126	102	1
-5764	-3728	16628	-962	-4035	-2508	-9480	-1856	1776	1804	-2909	-1970	-10264	4088	-8576	-777	-1566	-1796	-8000	4568	14056	9	217	-142	-13928	6808	-2360	945	366	-291	-14872	2512	440	1285	2206	509	129	105	1
-8680	-4560	15356	-1137	-4639	-2827	-9344	-4040	864	2044	-3409	-2062	-8920	4600	-9440	-663	-1452	-1689	-8408	4344	13920	-50	168	-184	-14528	7304	-1424	866	402	-352	-14296	4112	160	1084	2317	497	124	110	1
-9760	-4716	14880	-880	-4900	-3114	-12184	-6544	1488	2621	-3542	-2175	-8744	4328	-10440	-286	-1436	-1617	-8672	2736	14096	-63	113	-220	-14312	5824	-1080	402	629	-446	-13288	776	1448	554	2508	521	124	120	1
-10608	-4956	15432	-680	-4882	-3330	-15328	-7864	1288	3144	-3740	-2174	-7392	5504	-9048	-10	-1285	-1435	-8552	2992	14592	-104	117	-220	-15096	5240	-1896	182	740	-531	-15464	-2088	2928	455	2678	490	123	143	1
-13856	-5916	17916	-661	-4768	-3428	-18352	-9464	-448	3355	-4108	-2164	-5472	5272	-9816	402	-1146	-1414	-8104	3800	14208	-141	97	-252	-15056	4832	-2144	415	800	-594	-15928	-2632	3056	429	2678	476	126	167	1
-17368	-6880	19668	-800	-4660	-3359	-20640	-12120	-2056	3499	-4513	-2276	-4328	6352	-9760	1155	-658	-1272	-7600	5864	14576	-105	74	-331	-14528	5472	-1928	755	867	-656	-16720	-440	680	264	1825	673	123	184	1
-23656	-8564	23688	-1036	-4452	-3125	-24920	-14168	-4176	3559	-4787	-2417	-3400	8128	-9144	1525	25	-766	-9944	5624	16056	-132	46	-462	-14760	4352	-1568	773	1004	-682	-17184	-88	-1360	92	1451	724	120	185	1
-32332	-10232	30144	-1475	-4637	-3298	-32128	-16600	-6400	3671	-4812	-2635	-5880	6792	-3360	1719	41	-786	-4688	-672	13480	-186	211	-432	-16032	4104	-2272	700	1158	-772	-15312	1112	-1360	69	1515	555	109	163	1
-32768	-12372	31168	-1458	-5072	-3735	-32768	-18640	-8144	3726	-4851	-2566	-12784	2352	-3272	1558	-617	-1042	-7816	2760	14944	-124	391	-435	-16904	4160	-2536	555	1251	-837	-16568	656	344	100	1698	388	116	160	1
-32768	-2996	24084	-1030	-5119	-3945	-32768	-15520	-15688	3237	-4863	-2267	-22600	-1160	4336	1035	-330	-1698	-9768	3648	14736	17	545	-498	-17480	5216	-3024	622	1383	-984	-17416	-1800	2648	29	1562	529	98	157	1
-32768	1312	5624	-478	-4991	-2963	-31808	-13552	-24872	2424	-4189	-2186	-22416	2320	18992	1348	222	-2102	-5800	1896	18312	117	866	-597	-19960	3624	-1648	832	1501	-1118	-20568	-4568	3304	383	1599	613	63	170	1
-32768	25364	-15828	-1300	-4057	-1045	-22488	4408	-32768	1346	-2814	-1949	-19576	-18952	32767	-492	-1311	-689	-9152	3304	16592	11	1600	-674	-19880	3208	-1368	985	1729	-1237	-20840	-5144	3576	866	1529	459	56	185	1
-32768	32767	-32768	-3230	-1681	-298	-15984	16576	-32768	-2044	-1235	-272	-12800	-18936	30928	149	-480	11	-7192	1888	17848	55	2322	-620	-20888	4360	-1536	744	2022	-1470	-21232	-1920	4512	800	980	52	59	103	1
-32768	32767	-32768	-2852	-1130	-145	-15768	2304	-32768	-1725	1526	944	-21504	224	10368	-124	560	81	-9128	4200	18096	-92	3034	-729	-22904	5448	-3864	743	2278	-1574	-24104	-1368	11120	440	406	-233	105	190	1
12212	-1552	8340	3745	2683	133	-16816	-20648	24536	-925	3102	1244	-20680	3040	-9784	-304	533	116	-9752	6168	20792	-111	4056	-1022	-27144	9872	-992	1006	2454	-1743	-29840	984	14480	-346	-576	-613	131	243	1
-10028	3580	26588	628	5977	644	-30256	-4168	8040	2561	4568	445	-25824	416	15600	-607	278	356	-11864	10752	20696	-189	5212	-1840	-32240	18144	-664	1351	2777	-1915	-26880	-4920	20944	-1666	-1393	-640	161	246	1
-32768	29428	32767	1534	4241	3075	-32768	3280	-176	668	4881	1164	-11016	-15456	13920	758	18	-7	-11008	11520	23744	-632	6678	-3438	-32768	17848	4952	1703	3115	-1822	-25208	-5584	19528	-1951	-1406	-627	167	195	1
-22708	-14556	14228	409	3130	2506	-31584	-11272	-3136	-1354	3108	1129	-22936	9592	-11472	2263	1224	673	-15872	7656	30272	-39	7891	-4513	-32768	12592	8696	2273	3006	-1629	-27064	-16952	10240	-692	-1132	-626	141	84	1
-32768	-22212	4120	1532	1890	1391	-5040	-23152	-18584	-1370	1994	454	-14728	17232	-14272	235	492	416	-28056	18488	32752	1816	9074	-4271	-32768	13776	7592	3647	2208	-1587	-31632	-3216	-10072	4020	-414	-1342	116	0	1
-14000	-1576	15376	649	325	957	-24744	1112	-8688	-697	2128	600	-5720	2904	-11552	-1612	568	557	-32768	25496	32767	3671	6721	-4030	-32584	15296	5256	3683	2104	-1652	-24720	-2968	-11040	4015	-1142	-1214	127	17	1
-10736	4544	20644	466	127	423	-18536	-3496	-6112	-1034	1478	454	-24528	2600	-14304	-1364	1462	497	32767	32767	32767	-61	3093	-3505	-15632	7832	-13160	885	1558	-685	-32768	128	-14864	3176	-1316	-449	142	1	1
-7852	-6120	12932	179	181	127	-21008	-12464	-2144	-1864	550	642	-18896	3008	-8984	-942	1501	766	-6040	32767	26120	-1392	-2033	795	-13696	6672	-1592	463	363	319	-32768	9656	-16208	1496	-1600	-54	121	35	1
-9384	-4708	14220	26	225	145	-16104	-12312	-32	-1615	261	363	-15784	1432	-4432	-874	1497	883	16200	10048	15712	-791	-2659	1989	-7944	14208	8952	-364	-712	877	-25480	3104	-15728	-18	-2352	534	128	102	1
-8160	-5704	12908	-31	260	197	-11896	-11080	-1288	-854	560	224	-16592	816	-4648	-881	1471	1051	10600	5720	11520	714	-1983	1954	-2408	5424	5864	-1230	-997	1162	-15328	-1888	-13448	-115	-2851	475	130	57	1
-8072	-5704	12600	5	193	242	-13488	-10888	-24	-253	801	100	-16968	-1976	-3320	-749	1470	1424	-456	9752	16240	1091	-2403	2201	-3184	2104	-928	-1539	-1509	1487	-11280	-3528	-12320	-247	-2814	390	131	81	1
-7976	-5764	12516	13	194	243	-15368	-8824	-1096	-203	783	155	-16960	-872	-3392	-430	1689	1528	-6176	9584	17968	497	-3642	2429	-5304	760	-2448	-1726	-2140	2094	-10128	-96	-12288	7	-2505	137	140	99	1
-9396	-4732	12468	-14	252	62	-14408	-8848	-448	-635	423	297	-15192	168	-3576	-591	1817	1570	-7192	3896	17456	562	-4643	2714	-8688	-736	-1480	-1600	-2861	2461	-10584	3848	-13192	-89	-2437	145	137	114	1
-8920	-5904	12396	-42	156	61	-11768	-11016	504	-1099	-8	392	-15008	-1288	-2856	-800	1936	1613	-6952	1312	15680	985	-5344	2851	-11520	608	-760	-1383	-3552	2638	-8584	4400	-13576	-567	-2505	198	139	162	1
-8524	-5664	12448	10	108	123	-11496	-11640	472	-990	-48	483	-14744	-2312	-1072	-503	2069	1626	-8440	1776	16056	1096	-5522	2620	-13952	1368	-800	-1231	-4124	2800	-7312	2304	-13912	-1148	-2458	144	134	162	1
-8716	-4348	12844	86	149	179	-12616	-10448	-424	-384	360	506	-13848	-1976	1464	64	2493	1687	-11680	1048	19184	1260	-5397	2271	-16264	-56	-3096	-1102	-4653	2957	-6528	4728	-13072	-1407	-2225	-44	136	155	1
-8956	-4536	12192	101	174	195	-13752	-9456	-496	-274	530	540	-14792	128	2064	-117	2907	1534	-16976	3640	20696	1533	-5452	2020	-18952	488	-5048	-752	-5046	3140	-2400	5248	-14408	-1687	-1962	-199	135	156	1
-8668	-5372	12376	113	150	238	-13400	-8936	184	-633	389	604	-14496	-1552	-152	-1061	2511	1474	-20320	6216	21288	1602	-5272	1869	-21600	2512	-5072	-668	-5248	3424	392	3920	-14624	-1537	-1521	-301	131	145	1
-8468	-5412	12400	159	143	333	-13200	-9256	536	-697	369	621	-16544	-1824	-2528	-477	2117	1246	-23920	9120	25600	1804	-4826	1886	-25368	3768	-6112	-1083	-5247	3688	-904	1656	-11424	-794	-982	-236	132	141	1
-9116	-5056	12488	210	186	420	-12520	-9776	672	-946	437	696	-18560	-3904	-2760	-153	1766	1014	-32768	14264	31496	2049	-4643	2485	-32768	2648	-9672	-1615	-5064	3927	-7088	-3256	-4752	-764	-1366	-457	128	139	1
-8748	-4604	13128	246	258	459	-13648	-9488	800	-815	706	726	-17168	-2744	-896	-70	1667	976	-32768	13784	32384	1447	-4766	3554	-32768	1128	-12832	-2172	-4986	3930	-16688	-5040	-3768	-1105	-1845	-628	125	126	1
-9708	-4352	13404	219	422	533	-14512	-10112	736	-904	887	840	-18016	-2944	480	-446	1468	1060	-32768	-8568	10864	-442	-4402	4440	-30368	4656	-16712	-2575	-4460	3303	-24352	-3144	1360	-1303	-2105	-406	125	129	1
-10388	-5028	13796	170	628	698	-14304	-11448	1752	-1186	981	1005	-21128	-4616	4008	-544	1395	946	-32768	19064	10624	-723	-3699	3931	-30360	-1008	-30696	-3585	-2775	2242	-18392	-16856	17576	-927	-2712	-76	124	133	1
-8972	-5976	14784	328	1097	855	-16104	-10680	2880	-1376	1190	1190	-23152	-2328	6400	-651	1093	667	-32768	-31064	-30712	-89	-2786	2544	-14352	-19040	-32768	-2686	-1527	1753	-4448	-14896	32767	-2346	-358	-239	117	126	1
-9072	-2864	17180	356	1558	1046	-17704	-9808	3768	-1525	1555	1394	-21104	-4328	4776	-945	785	660	-32768	-31600	-32768	450	365	1817	608	-15464	-32768	-1137	1519	20	-16984	-21520	23224	-2772	266	563	112	144	1
-10128	-6136	17844	612	2233	1087	-17384	-12888	2992	-1435	2050	1607	-18096	-7720	4216	-1047	56	719	-32768	-28000	-32768	-1420	3958	600	-19736	-13664	-28616	-766	3089	-1208	-22384	-14496	-776	-1220	262	285	112	123	1
-10496	-7808	17776	762	3032	1425	-19744	-15896	2616	-1516	2502	1733	-24848	-11104	9320	-983	-1081	590	4328	1552	32767	-1017	5823	-849	-32768	13912	32767	389	1256	-1183	-24696	-5304	-5344	1373	414	57	110	135	1
-12224	-12504	21460	981	3875	2225	-24536	-24064	5464	-1806	2818	1780	-30328	-14184	12592	-723	-2238	140	-9824	-16016	32767	-891	5864	-1284	-31352	-28000	-19688	-711	3400	-1456	-21464	-20864	-4912	-953	-1597	-601	112	136	1
-14960	-11288	25692	889	5207	3489	-32288	-28504	3736	-1952	2933	1697	-32680	-18032	21864	202	-4470	-897	-21360	30680	32767	-146	3457	-1561	-27456	3216	-12664	1070	3357	-1247	-21064	-456	-9720	623	1776	1199	122	98	1
-19912	-21684	25212	372	6772	5158	-32768	-32768	12120	-2451	2623	1514	-26200	3408	5152	194	-1742	-752	-6488	-17448	25664	-1705	1119	-1045	-18288	2176	-6488	-480	3172	-864	-8080	5856	-19512	2443	1966	850	129	140	1
-17652	-13572	32767	58	8437	5469	-28856	-28648	14520	-2510	1991	1930	-26776	-816	-9672	1285	-1369	-268	-15960	25960	11320	-419	603	-349	-11744	1056	-15696	591	2685	-804	-5848	15024	-17024	1476	882	637	130	120	1
-32768	-32768	32767	-1826	6272	4705	-12928	-22872	1584	-3665	1438	2196	-24792	3464	-3216	628	-2484	-871	-7576	-2040	17488	-391	106	-267	-16960	-936	-7568	392	1605	-666	-20624	9024	-14624	288	1500	1034	118	120	1
32424	-32768	32767	2314	2984	4334	-11608	-21912	-3136	-1325	1328	721	-29800	9008	-4784	307	-2629	-1379	-7600	4232	15112	-186	107	-105	-21832	3640	-5552	1043	1132	-492	-20832	4104	-9592	163	1619	716	122	122	1
-180	-21240	26848	1716	-713	-1582	-9584	-10408	7504	542	685	-485	-31112	1168	-8144	442	-2363	-1722	-7944	3848	15080	-84	127	-93	-17992	5560	-2808	1087	842	-415	-17136	2360	-5280	20	1660	724	129	128	1
16288	-15264	17872	725	-754	-3447	-2592	-15800	14632	1967	360	-819	-27776	4680	-9408	1227	-2195	-2109	-7552	3824	14832	-43	223	-145	-15752	5240	-1928	558	867	-362	-15744	-1920	-3768	-178	1817	696	132	132	1
8636	-9576	15860	-71	-981	-3082	656	-6136	7720	2359	-42	-1310	-17680	9320	-9104	809	-2106	-1903	-960	4552	10688	3	272	-123	-16312	3320	-2352	30	837	-329	-15600	-1800	-3120	-17	1913	524	127	118	1
356	-6656	20568	-653	-2208	-2621	-6568	-4568	3576	2547	-1088	-1725	-13472	8904	-7872	-143	-1977	-1609	-7864	3680	14488	40	223	-106	-16240	3728	-3120	97	733	-315	-15256	-544	-1776	91	1935	474	126	109	1
-5988	-4272	20240	-1020	-3691	-2408	-10864	-2400	2248	2122	-2373	-1934	-11296	5104	-8040	-788	-1687	-1643	-8192	4080	14368	34	211	-127	-14840	5984	-3320	449	601	-332	-14936	472	-640	486	2043	531	121	104	1
-8360	-3628	18400	-1376	-4822	-2576	-11368	-2424	1656	1831	-3380	-2057	-9968	4464	-8728	-833	-1558	-1723	-7880	4880	14016	-41	171	-185	-14488	6544	-2176	764	514	-372	-14632	2232	200	863	2152	556	119	112	1
-9616	-4760	15464	-1328	-5290	-2881	-11736	-5392	1888	2047	-3916	-2173	-8584	5016	-9720	-705	-1521	-1546	-8056	4480	14112	-114	155	-254	-15016	6376	-1360	682	561	-424	-13904	2392	-192	786	2366	459	123	122	1
-9752	-5436	14988	-1046	-5229	-3168	-13632	-7072	1776	2582	-3989	-2223	-8096	6088	-10400	-266	-1424	-1479	-8224	3400	14440	-142	167	-310	-14760	4872	-1752	374	717	-494	-13896	-1056	112	531	2640	502	121	209	1
-12044	-5952	16780	-816	-4936	-3483	-17016	-9440	856	3196	-4089	-2240	-5944	6096	-9712	-165	-1275	-1322	-7568	3144	14584	-134	198	-308	-15896	4304	-2288	208	798	-552	-16104	-2600	1216	378	2792	530	123	234	1
-15992	-7168	19644	-745	-4701	-3530	-20488	-11416	-600	3509	-4427	-2347	-4160	5400	-9504	424	-817	-1159	-10288	4408	14152	-105	147	-383	-15808	4336	-2760	461	827	-590	-15992	-1768	2056	67	2304	737	126	252	1
-20988	-8652	23148	-936	-4450	-3309	-24040	-15944	-2640	3516	-4781	-2439	-4000	5888	-9464	965	22	-812	-7472	6272	14216	-83	187	-474	-14960	4464	-2264	869	800	-627	-17160	-176	-832	189	1751	874	127	243	1
-30500	-10196	29400	-1348	-4570	-3190	-29936	-16552	-5552	3582	-4989	-2620	-4720	5768	-6008	1309	327	-755	-10480	4032	15056	-190	212	-524	-14304	4720	-1664	877	969	-680	-18544	1984	-2496	189	1504	723	125	192	1
-32768	-12368	32767	-1800	-5065	-3495	-32768	-20048	-6528	3572	-5127	-2734	-9344	936	-2864	1596	-430	-1124	-9264	1952	15728	-155	360	-492	-17072	2928	-2536	587	1150	-795	-15624	504	-480	3	1577	459	127	159	1
-32768	-5996	26928	-1562	-5175	-3933	-32768	-15464	-12216	3338	-4985	-2392	-17920	-4272	888	1201	-559	-1635	-8856	-7616	9128	99	553	-482	-17336	4864	-2512	591	1223	-910	-16304	-1160	3040	40	1770	396	124	162	1
-32768	-3048	9708	-696	-4935	-3741	-32768	-14328	-23096	2748	-4507	-2222	-29600	1936	11984	1620	-10	-2378	-5816	2048	17120	-25	885	-476	-18552	4736	-528	712	1407	-1096	-20760	-5128	5552	153	1690	559	87	127	1
-32768	7280	-14188	-234	-4574	-2241	-25016	-7288	-32768	2317	-3047	-2199	-16928	-4104	26504	1583	-1550	-1769	-8480	3040	16440	100	1361	-646	-19088	4096	-168	900	1702	-1218	-20288	-7168	7312	648	1623	677	15	228	1
-32768	32767	-32768	-3500	-2389	-971	-23352	19728	-32768	-1085	-1786	-1037	-11704	-25168	32767	-100	-1253	-20	-7440	2688	18200	10	2062	-649	-19992	4528	568	797	2046	-1482	-21960	-2704	5840	1027	1357	315	39	129	1
-32768	23252	-32572	-1461	613	-372	-9024	3864	-32768	-1916	981	754	-18328	-2760	16280	278	837	244	-8000	4720	17880	-116	2805	-745	-22232	5856	-2040	668	2419	-1663	-24880	-1584	9888	703	653	-152	87	253	1
-32768	14800	-22448	3906	3007	1404	-20048	-12336	-16264	-1002	2898	994	-22136	4264	-4640	139	477	-23	-9440	6440	19936	-146	3873	-1074	-27112	7344	-1896	847	2719	-1802	-32016	952	16848	-5	-229	-561	120	253	1
21920	-2864	32767	1705	5283	1374	-32768	-20808	26744	2966	3496	323	-23544	2904	-256	-557	744	184	-11448	11064	22504	-244	5126	-1696	-32768	18688	792	1284	2886	-1967	-31944	-3128	22880	-1354	-1619	-784	171	253	1
-32768	26868	32767	2149	5133	3024	-32768	10240	-4560	1482	5322	1119	-27280	1544	8896	-581	544	156	-11800	11064	22592	-273	5391	-1922	-32768	21080	5344	1650	3405	-1887	-22992	-14952	14256	-1797	-1681	-715	170	253	1
-30016	-2776	23508	598	3614	2868	-32768	-5536	-6840	-1081	3624	1059	-18864	6312	-2384	1822	1133	790	-14848	8280	31480	-512	8376	-5239	-32768	10264	5224	2399	3284	-1529	-32128	-15208	10168	540	-883	-908	154	147	1
-30588	-29884	9832	1795	1330	1311	-5976	-30928	-17128	-2360	3148	126	-19528	17944	-20536	212	539	98	-28936	15600	32767	2059	9453	-4541	-32768	14640	8080	4059	2308	-1447	-32768	-2120	-15208	4937	79	-1400	115	0	1
-13728	-6892	13796	519	400	786	-22712	2056	-9488	-1270	1880	753	-5192	10744	-14480	-1811	180	577	-32768	23112	32767	2657	9308	-4314	-18920	17168	-4112	3520	2234	-2225	-25744	-4504	-13128	4535	-1272	-1211	117	1	1
-8508	6356	18096	438	146	432	-12872	-2056	-5928	-1142	1455	385	-16912	-1224	-15160	-2043	1315	564	-18304	32240	32767	-15	3216	-3693	-15216	5232	-11552	660	1349	-486	-32768	-1136	-14296	3229	-1414	-267	136	0	1
-9068	-6876	13116	202	192	156	-18968	-10936	-1856	-1975	730	651	-22528	720	-10760	-1010	1705	829	2848	32767	22328	-1217	-2577	1506	-12160	6032	2552	414	-14	713	-32768	11832	-20312	1516	-1765	-21	119	28	1
-10532	-3936	14212	57	216	140	-17672	-15400	-192	-1480	388	397	-15504	1464	-6184	-696	1352	1000	10720	25712	23000	-1185	-2928	1590	-5744	11768	9224	-284	-825	1200	-22720	2288	-15824	84	-2432	589	121	83	1
-8448	-5464	12864	10	253	221	-12696	-10760	-872	-847	586	280	-17672	960	-5120	-679	1502	1090	8320	5200	13232	1158	-2053	2195	-3192	5600	3168	-1297	-1083	1463	-14296	-1040	-13712	-84	-2924	475	118	106	1
-7996	-4992	12700	66	216	225	-12648	-10016	-560	-353	815	157	-16440	-1216	-2840	-606	1538	1446	-3368	9160	19088	1060	-2966	2317	-4776	1672	-1608	-1663	-1736	1818	-10912	-1712	-12384	-82	-2743	355	127	4	1
-8612	-4468	12972	45	263	155	-15136	-8392	-528	-156	847	177	-16920	-416	-2560	-328	1724	1544	-7152	5832	18528	554	-4282	2508	-6800	104	-2224	-1843	-2427	2332	-10080	1648	-12088	-115	-2565	272	136	36	1
-8804	-5060	12332	-63	264	30	-14096	-9360	-136	-553	540	325	-15928	200	-2768	-519	1862	1593	-6048	584	15408	736	-5103	2561	-10224	-1040	-64	-1572	-3149	2606	-10496	3712	-13912	-313	-2578	215	135	62	1
-9108	-5916	12344	-29	170	72	-11968	-11024	504	-985	126	427	-14008	-2968	-1576	-842	1904	1671	-7256	264	15528	1229	-5281	2467	-12752	-856	-720	-1217	-3763	2703	-7400	2952	-13816	-924	-2583	250	150	127	1
-8828	-5560	12148	43	93	129	-11216	-11488	392	-995	-9	551	-13872	-4240	-288	-646	1966	1615	-9576	2000	17936	1346	-5292	2410	-15016	-368	-1968	-1043	-4322	2860	-6272	1496	-13016	-1194	-2423	83	146	124	1
-8812	-4412	12484	139	64	184	-11592	-10216	272	-592	351	602	-13360	-2552	2240	-4	2301	1675	-14248	3000	20448	1365	-5308	2298	-17336	48	-3592	-817	-4808	3029	-6032	1424	-13224	-1225	-2375	38	146	124	1
-7004	-5012	11928	192	47	236	-12696	-9768	-328	-339	625	612	-12728	-520	4664	158	2832	1397	-17264	4704	20248	1554	-5355	2228	-19488	2568	-4896	-794	-5043	3269	-1984	5080	-13408	-1316	-1779	-159	141	134	1
-9560	-4396	12812	158	77	243	-13704	-9768	96	-568	609	641	-15128	-2312	2352	-1143	2736	1512	-18720	6880	20800	1708	-4857	2096	-19872	2832	-4592	-819	-5071	3294	-760	1632	-13488	-1219	-1306	-197	134	146	1
-8852	-4844	12232	246	74	373	-12720	-9288	128	-911	567	749	-18920	-1048	-7944	-755	2114	1369	-28464	9344	27808	2051	-4411	2275	-26720	1496	-7104	-1480	-5040	3764	-1384	504	-8648	-750	-1121	-398	134	149	1
-7908	-4632	12212	314	124	509	-13144	-8440	-232	-1054	527	715	-17200	-1680	-400	116	1784	1058	-32768	12640	29312	2014	-4466	2863	-32768	1288	-9528	-1743	-4929	3903	-7344	-5216	-2296	-974	-1630	-728	129	145	1
-10132	-2864	13716	218	207	465	-14840	-8712	344	-933	644	739	-14592	-752	-1480	-135	1947	1108	-32768	8960	29104	1423	-4299	3579	-32768	784	-12120	-1904	-4711	3737	-17480	-4736	-376	-1224	-2028	-600	123	131	1
-10540	-3692	14056	170	361	512	-13304	-9864	728	-995	836	799	-15568	-4016	2424	-603	1667	1201	-32768	-1528	21360	-146	-4051	3865	-28960	1232	-16256	-2491	-4216	3022	-25104	-4760	2048	-1130	-2113	-418	121	113	1
-8940	-5552	13976	206	616	627	-13552	-11520	1944	-1152	1114	978	-20352	-3128	4256	-449	1559	933	-32768	680	5384	-129	-4231	3620	-27920	-880	-25488	-2899	-2881	2247	-17280	-14264	23992	-1115	-2873	-143	114	117	1
-6624	-5580	18884	438	918	826	-17488	-10144	4136	-1443	1314	1178	-23920	-1656	2104	-778	1159	787	-32768	-28984	-30416	310	-2697	2024	-11784	-16128	-32768	-1770	-1572	1677	-6456	-16744	32767	-2093	-460	-203	110	134	1
-11076	-4168	16748	270	1612	953	-19448	-10992	1472	-1550	1649	1380	-22448	-4424	3280	-1042	649	722	-32768	-23976	-32768	330	201	1304	-3304	-11880	-31016	-856	1535	-113	-19384	-23224	20152	-2157	192	518	111	143	1
-8840	-6056	18180	402	2447	1038	-19376	-12936	1208	-1536	2006	1581	-18584	-9352	3408	-1186	58	814	-32768	-9032	-22840	-2872	3728	99	-22200	-10088	-26552	-555	2819	-937	-21976	-14664	368	-669	156	194	107	120	1
-9256	-6760	18588	588	3267	1437	-21704	-16184	1968	-1610	2412	1677	-19120	-9472	4048	-1196	-67	807	16280	-2192	27416	-1697	5655	765	-32768	10136	32767	607	1562	-1565	-22640	-1736	-8008	1378	-155	92	113	103	1
-13480	-10124	24260	806	4320	2176	-26304	-22120	6848	-1883	2668	1823	-30064	-16296	16192	-77	-2405	111	-32768	-30368	32767	-1002	5470	-1788	-25072	-14224	-8304	-1502	3298	-1588	-23216	136	-5200	1499	51	85	112	124	1
-14632	-13864	27296	707	5555	3281	-29520	-29912	10408	-2239	2795	1903	-26456	-15592	16392	-921	-2555	-687	-32768	5176	32080	-65	3826	-2361	-32768	-9992	-8088	-43	3423	-1486	-23176	-3504	-8760	-1004	1128	606	113	122	1
-24752	-19392	23828	420	7274	4812	-32768	-32560	14448	-2678	2724	1764	-28168	3344	6792	-186	-1825	-350	-32768	32767	20312	-1519	1884	-657	-13104	23824	-22704	95	3606	-489	-17008	-5816	-13752	414	1091	832	126	132	1
-17880	-20000	32767	296	8932	5499	-31320	-32144	18936	-2586	2170	2059	-28704	-5976	-9848	1101	-2490	-286	-7248	-2800	15928	-717	637	-683	-22448	-14552	-11272	-880	2816	-1118	-6448	15424	-19272	1673	1709	635	104	113	1
-32768	-32280	32767	-1817	6431	4714	-14904	-25656	5232	-3309	1903	2309	-27264	2584	-4104	354	-2749	-1067	-8832	-4056	18992	-639	-29	-367	-16312	-1392	-7664	726	1798	-580	-16680	3944	-13136	765	1270	1176	101	116	1
32767	-32768	32767	3115	3370	3977	-7760	-20232	-8552	-984	1461	614	-30408	6808	-3976	110	-2369	-1302	-8936	6752	14224	-149	30	-53	-19752	3536	-6496	1707	1222	-540	-18888	3840	-12616	1047	1525	1108	118	120	1
-6544	-32768	32767	1688	-1666	-2146	-12760	-7224	2936	1142	373	-453	-30848	144	-10880	1051	-2169	-1546	-7736	4744	14720	-113	37	-97	-17856	6240	-4000	1507	897	-434	-16536	6400	-5528	758	1693	553	132	119	1
19960	-17172	15560	1126	-1735	-3314	-3520	-19072	15016	2455	7	-798	-32768	5760	-10032	1576	-2522	-2068	-7512	4616	14552	-105	119	-165	-15944	6496	-2568	912	871	-434	-16888	2336	-5104	174	1822	532	140	127	1
8956	-6724	16176	16	-1704	-2708	-4248	-5072	6560	2771	-416	-1291	-19704	12264	-8496	998	-2266	-1957	-7776	3832	14664	-80	185	-165	-16376	5120	-2136	189	917	-407	-16744	1032	-3768	7	1896	504	135	114	1
-3240	-7816	21016	-839	-2941	-2558	-8992	-2288	1488	2472	-1682	-1514	-14272	11400	-7296	18	-2041	-1767	-8048	3616	13944	-71	168	-135	-16072	4120	-3072	-326	872	-399	-15504	320	-2888	-353	1948	484	129	111	1
-8704	-6372	20808	-790	-4577	-2692	-11240	-2448	1816	1989	-2940	-1806	-11312	6792	-8608	-759	-1877	-1679	-8176	3904	14256	-56	150	-140	-15544	3432	-3680	12	682	-391	-15032	-1904	-1072	-178	2027	515	124	107	1
-9240	-3384	17328	-865	-5529	-2979	-11728	-2736	1632	1999	-3789	-1984	-9624	5712	-9880	-724	-1706	-1741	-7904	4800	14040	-80	129	-164	-14720	5360	-2904	492	498	-393	-14840	-744	568	542	2173	463	131	109	1
-9020	-2148	15476	-960	-5809	-3269	-13088	-5880	2256	2537	-4025	-2079	-7712	6816	-11400	-497	-1560	-1594	-7672	4608	13904	-176	117	-239	-15168	5888	-1976	775	460	-413	-14528	1992	1232	677	2261	456	129	124	1
-8648	-3236	15120	-709	-5542	-3305	-14168	-8544	2120	3270	-4129	-2112	-6728	6120	-11400	-237	-1359	-1439	-10056	4512	14032	-219	46	-305	-14680	6136	-1048	584	590	-488	-14344	688	1056	352	2330	453	130	168	1
-12652	-4104	19000	-621	-5049	-3060	-20088	-9528	-424	3503	-4506	-2088	-5424	5560	-11088	151	-1073	-1323	-9848	3584	15544	-210	35	-295	-14200	4824	-1720	204	808	-606	-14320	-1944	1200	224	2420	461	129	212	1
-21024	-6920	23336	-907	-5005	-2989	-22312	-11856	-4160	3531	-4970	-2147	-1192	8112	-10320	877	-533	-987	-8552	3480	14688	-208	98	-327	-15728	3872	-2432	253	907	-646	-14992	-3752	1760	305	2465	475	129	249	1
-26772	-9552	27440	-1135	-5174	-2956	-26712	-14904	-4176	3646	-5150	-2392	-1208	9616	-6208	1306	-65	-752	-7632	4192	14208	-245	162	-413	-15584	4728	-2192	678	950	-675	-16896	-2264	1928	316	2294	714	128	240	1
-32768	-11516	32767	-1516	-5288	-3062	-32768	-18552	-5824	3713	-5323	-2558	-5232	6136	-256	1774	-739	-783	-8136	3208	14600	-299	246	-520	-15280	4120	-1592	828	1018	-683	-16952	-720	-432	25	1736	781	125	186	1
-32768	-10096	30108	-1783	-5571	-3435	-32768	-17080	-11624	3406	-5459	-2683	-13080	1104	-1280	1586	-1317	-1136	-9016	2608	14352	-222	392	-511	-16552	3776	-1960	724	1180	-811	-16128	352	1272	48	1591	628	120	192	1
-32768	3124	20516	-1954	-5287	-3261	-32768	-12192	-19416	2390	-5406	-2290	-24312	-2200	6816	569	-739	-1749	-8712	2816	15008	-123	585	-468	-16704	4616	-1808	622	1326	-962	-16200	-96	4536	95	1626	463	95	198	1
-32768	7096	2468	-1291	-4975	-2053	-29864	-10280	-27776	1688	-4630	-1792	-27648	7792	17072	817	120	-2518	-10784	5680	16496	185	770	-658	-17512	5888	-1872	730	1586	-1125	-18872	-4272	7824	104	1382	538	27	185	1
-32768	32767	-19816	-2030	-3798	-327	-28048	10744	-32768	108	-3668	-1709	-10368	-28728	29896	-984	-1605	-995	-7768	3936	16560	-34	1609	-702	-21336	3736	-376	888	1813	-1317	-22816	-5064	5664	724	1557	595	24	180	1
-32768	32767	-32768	-2646	-1462	467	-13440	14760	-32768	-2390	-1470	56	-12848	-11944	28336	-536	-148	413	-8608	4744	19176	-37	2265	-776	-20624	5152	-1408	779	2212	-1528	-24176	-3240	7928	737	921	-24	56	204	1
-32768	17616	-22648	441	1161	830	-16744	1008	-32768	-1785	1705	1162	-19360	800	7608	-529	314	270	-9752	5056	19104	-211	3156	-954	-25424	5312	-2976	761	2560	-1698	-24944	-5368	15040	395	256	-218	122	253	1
-32768	-32768	-640	3411	2491	-1134	-20192	-24536	29072	-1264	3762	1378	-15512	5160	-12432	-117	740	121	-9784	8672	22472	-348	4284	-1440	-28912	12696	1136	1220	2805	-1800	-24624	-4472	20120	-1075	-531	-577	160	253	1
20344	6472	28356	1182	5994	748	-25208	-8872	12592	3138	4428	32	-14168	144	-7304	-1285	1187	691	-11200	12840	25816	-633	5741	-2454	-32768	20864	2536	1506	3210	-2003	-24448	-7792	23224	-1123	-1281	-560	176	253	1
-32768	22596	32767	2094	5372	2446	-32768	1992	-9080	1141	5221	1167	-21888	-26224	20664	2321	-79	-508	-15400	16632	30520	-703	7181	-4389	-32768	15648	6176	1881	3538	-1738	-30496	-14704	12536	-437	-927	-575	167	253	1
-26568	-8836	18636	1158	3970	3086	-32768	-8248	-5200	-578	3557	977	-27488	10088	-5728	4180	1187	406	-17632	7640	32767	800	8362	-4788	-32768	14584	10904	3128	2942	-1651	-32768	-6048	-568	2842	-307	-1195	143	137	1
-32768	-3400	21368	1550	769	1501	-14920	-15600	-27064	-906	2218	106	-17680	23680	-9536	713	500	-185	-32768	15544	32767	2054	8668	-4713	-27248	16200	4480	3808	2019	-1839	-32632	-4008	-18472	3958	-670	-1275	119	10	1
-11128	-3748	15768	372	347	766	-25368	-4456	-8368	-1369	2272	598	-13288	20440	-14608	-2055	477	682	-32768	32767	32767	2799	5458	-4198	-18520	3248	-10944	2595	2056	-1587	-27520	-1856	-17072	3801	-1277	-733	133	0	1
-9164	-2456	14660	66	269	213	-12920	-4440	-4944	-1921	1403	529	-17480	672	-15408	-3313	958	590	-32768	20376	31464	-2445	1356	-1956	-9040	2472	-10120	906	710	-77	-32768	4520	-11496	1837	-1646	-433	130	0	1
-9188	-5864	13220	72	211	154	-15736	-9656	-2784	-2285	386	598	-17112	-6640	-11480	-2189	1402	923	10712	17992	21384	-1353	-3132	1834	-11160	13776	6344	59	-367	647	-30312	6784	-18864	539	-1808	208	124	88	1
-7940	-4460	14004	10	225	174	-15312	-14912	-1704	-1750	138	372	-16616	-2792	-9072	-816	1294	1291	17712	2264	9712	-353	-2153	2325	-3216	9360	8224	-999	-949	1018	-20688	-1904	-15304	22	-2495	637	117	42	1
-8384	-4940	13052	8	302	205	-14536	-12016	-2104	-733	511	319	-18920	3048	-7864	-582	1597	1086	3928	4496	14408	1064	-2075	2253	-4208	3304	1976	-1750	-1170	1387	-12240	-2864	-11912	-57	-2813	421	125	0	1
-7972	-4000	13108	32	333	145	-15504	-9336	-712	-195	850	214	-18008	-296	-3944	-557	1573	1426	-4648	9040	19720	1045	-3104	2324	-5920	448	-1648	-1810	-1903	1812	-10552	-1688	-11592	-225	-2601	231	133	0	1
-8604	-4448	13192	-42	369	74	-15408	-8296	-672	-20	871	174	-17664	256	-2328	-287	1764	1556	-6304	4128	18312	557	-4319	2360	-7792	-1376	-1176	-1667	-2677	2380	-9624	-208	-12256	-440	-2472	237	143	21	1
-8212	-4636	12548	-156	367	20	-14248	-8808	-40	-508	528	270	-16096	896	-2432	-465	1903	1727	-6536	-848	16544	938	-5069	2414	-11200	-2064	-64	-1274	-3324	2591	-10336	1184	-12416	-611	-2447	210	140	46	1
-8660	-5564	12336	-145	269	63	-11728	-11144	144	-1024	25	386	-14224	-2136	-1160	-884	1974	1854	-6504	-152	15344	1371	-5323	2326	-13048	-784	-40	-912	-3937	2712	-7912	2280	-13008	-730	-2348	66	147	67	1
-9116	-5428	12212	-50	118	150	-11352	-11536	88	-1113	-198	467	-14328	-4624	-736	-825	2033	1826	-10208	1256	18720	1401	-5237	2175	-15104	-760	-1864	-757	-4427	2888	-5032	1432	-12840	-1064	-2217	-146	142	135	1
-7748	-5212	11604	144	69	221	-11296	-10320	560	-756	168	583	-12680	-4040	1664	-213	2177	1537	-14904	2552	21424	1578	-5388	2125	-16936	160	-3248	-629	-4805	3090	-4272	3728	-11896	-1041	-1948	-238	138	136	1
-9076	-4328	12380	158	59	219	-11584	-9264	536	-488	500	634	-11680	-336	3552	57	2654	1332	-16376	4240	20776	1717	-5385	2061	-20400	2448	-2960	-646	-5054	3335	-1120	4488	-12192	-1098	-1724	-367	134	132	1
-8636	-4868	12280	236	81	293	-13392	-9320	-120	-615	565	652	-16736	-776	-272	-813	2493	1429	-17856	5776	21928	1790	-4765	1945	-23792	2960	-2904	-900	-5150	3514	-1248	4192	-12560	-1086	-1614	-342	132	131	1
-7884	-5036	12836	233	21	377	-13664	-9072	-208	-847	515	731	-17792	-360	-1472	-894	2157	1362	-28064	9448	29824	2007	-4285	2321	-28216	2040	-5568	-1544	-4993	3730	-936	128	-7920	-465	-842	-398	130	131	1
-9348	-3672	13112	230	104	434	-13784	-9144	232	-871	522	753	-16224	-616	-688	-275	2210	1212	-32768	13984	32767	1594	-4335	3063	-32768	2296	-8640	-2218	-4957	3769	-8120	-2456	848	-988	-1542	-748	121	131	1
-8124	-4136	13096	211	199	444	-14032	-8640	888	-936	516	799	-14048	-2704	-1328	-449	1879	1227	-32768	8272	30400	648	-4650	4136	-32768	544	-10968	-2821	-4726	3363	-18624	-1736	-3632	-1612	-1825	-503	114	132	1
-8964	-4428	13580	241	401	511	-13360	-10696	1272	-1002	830	899	-17160	-5488	1824	-574	1596	1200	-32768	4392	17984	-431	-4597	4357	-27264	6136	-16736	-3476	-4151	2593	-23864	-8592	-4944	-1468	-2138	-222	115	123	1
-9124	-4532	14200	266	664	665	-14608	-10344	1632	-1100	1134	1099	-22288	-3800	544	-251	1372	1015	-32768	-5368	-6584	-1440	-4066	3325	-25456	-4008	-31664	-3988	-2537	2219	-18976	-19464	32767	-3094	-3108	-586	111	127	1
-9668	-4004	14428	267	718	710	-14904	-10288	1928	-1135	1182	1127	-24304	-2800	3912	-442	1066	848	-32768	-32768	-32768	1720	-2258	2159	-7480	-17408	-32768	-1343	-1109	1289	-6664	-18952	32767	-2411	-313	-476	105	145	1
-9984	-3256	16504	285	1723	867	-18296	-10520	1600	-1341	1622	1493	-19984	-5280	3680	-818	721	882	-32768	-18248	-32272	70	902	1197	-6552	-7640	-32768	-138	1848	-397	-17768	-25824	15400	-2071	458	875	108	149	1
-8404	-5204	18684	501	2453	984	-20336	-12352	1616	-1249	2063	1713	-19248	-9040	4224	-899	78	941	-32768	-32768	-12408	-1399	2596	1253	-22512	-9912	-25208	263	2830	-1061	-20040	-11504	-5336	1330	1427	272	117	137	1
-11148	-9652	19444	576	3256	1318	-21240	-17480	3200	-1477	2367	1877	-26720	-9712	8368	-555	-1137	648	10240	-12360	32767	137	4971	388	-32768	4672	32767	1285	874	-1444	-20576	-3072	8776	2126	-55	-93	116	131	1
-13280	-11552	22076	941	4141	2198	-21512	-18936	3872	-1530	2396	1862	-28440	-15440	14872	-136	-2327	84	-32768	-28232	32767	-1636	5952	-2401	-21032	504	-12528	-853	3190	-1372	-19320	1840	20136	577	-1344	435	116	120	1
-15208	-16376	24384	874	5221	3570	-27008	-30904	8712	-2107	2764	1911	-24944	-17008	21448	-2254	-2774	-588	-27056	17064	18968	-267	3773	-2700	-32768	-5848	-7208	-421	3450	-1235	-27088	2488	-10440	-2049	945	972	110	97	1
-20984	-22216	23036	496	6688	5378	-30720	-31064	8640	-2370	2639	1657	-25784	6224	5928	-215	-1973	-496	-32768	25304	16024	-1839	1489	-837	-16064	17400	-26000	-722	3787	-400	-15456	-6768	-9088	-208	659	1139	122	136	1
-22152	-18032	32767	-53	7863	5763	-31704	-28928	13088	-2977	1790	2035	-29232	-6688	-11368	896	-2171	-284	-14296	11736	15320	-598	468	-586	-22264	-10312	-15160	-296	2934	-1065	-5992	7648	-16360	856	1757	707	103	106	1
-32768	-32768	32164	-1854	5646	5085	-18528	-25760	-2384	-3635	1860	2401	-26776	2112	-1016	242	-2679	-1042	-5696	-5976	17480	-348	64	-242	-14584	-4368	-6824	854	1598	-535	-17512	3248	-13424	994	1450	1140	97	129	1
18784	-32768	17908	4187	3332	4880	-7472	-22056	-9144	-1340	1230	551	-32768	10672	-3800	321	-2312	-1339	-8440	4856	14968	-167	106	-130	-18720	5184	-7624	2059	1193	-351	-19120	7216	-10304	1457	1580	792	129	128	1
340	-28456	20560	2114	-812	-2298	-9960	-10144	5480	1012	806	-508	-30800	2888	-10056	962	-2089	-1686	-7928	4112	14696	-91	141	-132	-18808	6960	-3632	1375	843	-340	-18008	6296	-6864	563	1639	497	128	128	1
16420	-16760	12360	996	-288	-3402	-256	-16432	10064	2222	849	-854	-30920	6840	-10384	1375	-2426	-2275	-7272	4024	15000	-18	249	-171	-17184	4992	-776	575	914	-316	-16648	-560	-4592	-214	1769	573	130	125	1
8888	-9216	14976	19	-521	-2906	-2384	-7312	5088	2948	485	-1533	-19464	11344	-8008	758	-2165	-2196	-7512	3864	14168	42	345	-154	-16904	3240	-2280	72	926	-247	-16344	-1440	-4392	-159	1915	615	133	112	1
96	-7488	19504	-708	-1741	-2626	-8496	-2056	2912	2769	-882	-1861	-13776	10200	-6832	-144	-1912	-2025	-8336	3376	14328	49	306	-126	-16240	3088	-3528	-67	806	-223	-15104	-976	-3304	-182	2043	659	131	102	1
-5588	-4548	20160	-998	-3276	-2559	-9864	512	1784	1968	-2272	-2098	-10832	8256	-7936	-803	-1769	-1895	-8608	3720	14024	59	265	-112	-14880	3704	-3864	194	614	-229	-14560	-1616	-1696	213	2120	594	126	108	1
-7148	-2744	18344	-1289	-4346	-2872	-10712	-1128	2296	1744	-3230	-2220	-9440	5824	-8336	-966	-1639	-1833	-8456	4784	13824	16	192	-140	-14544	6208	-3168	736	502	-295	-14520	1520	-624	876	2189	535	130	107	1
-7764	-2908	16484	-1118	-4785	-3214	-12184	-3152	2512	2152	-3614	-2339	-8840	7288	-9080	-960	-1595	-1743	-8120	4472	13792	-81	136	-208	-14936	6488	-1928	840	467	-311	-14264	3200	656	799	2341	582	129	118	1
-9376	-1660	17292	-817	-4781	-3566	-14984	-5152	2520	2769	-3748	-2311	-8112	6664	-10248	-714	-1364	-1610	-8176	3496	14160	-137	107	-249	-14040	6240	-1360	486	642	-410	-14496	1320	464	421	2537	499	130	128	1
-11316	-1768	19436	-588	-4769	-3625	-17728	-8048	1400	3381	-3992	-2251	-6864	3520	-9624	-331	-1054	-1484	-8208	3712	14040	-166	84	-269	-14848	5216	-2328	114	799	-545	-14984	-1248	1448	213	2556	489	128	136	1
-15152	-2164	22152	-582	-4790	-3279	-20968	-10000	-232	3605	-4486	-2195	-3208	3864	-11064	402	-753	-1352	-7920	3384	13728	-186	95	-320	-15096	5048	-2320	133	812	-554	-15504	-3696	3240	187	2409	701	130	163	1
-20492	-5176	24076	-766	-4823	-2772	-23992	-12016	-2664	3662	-4896	-2241	-3872	6480	-10800	1478	-162	-867	-8688	5056	14040	-192	91	-366	-15112	4800	-1992	916	807	-581	-15616	-3536	3704	176	2347	764	128	212	1
-29280	-8968	29576	-1099	-4984	-2776	-29352	-13944	-5008	3779	-5011	-2381	-3376	10592	-8808	2056	366	-844	-7840	3360	14472	-257	201	-451	-14688	4360	-896	831	1002	-633	-19120	-1024	-2048	83	1517	740	118	209	1
-32768	-14184	32767	-1405	-5425	-3313	-30728	-14784	-5184	3805	-5035	-2418	-7736	7160	-2264	2233	-332	-824	-8208	2176	14816	-149	364	-426	-17464	2440	-2192	592	1194	-753	-16144	-344	-320	26	1453	569	132	207	1
-32768	-9740	29568	-1159	-5453	-4162	-32768	-18688	-12704	4046	-5287	-2394	-14760	1592	-1048	1516	-631	-974	-9048	3768	14792	-11	566	-406	-17296	4632	-3128	586	1269	-863	-15648	1152	2064	197	1740	549	126	133	1
-32768	-2816	16620	-824	-5230	-3975	-32768	-15928	-21912	3115	-4940	-2219	-27648	2128	13408	1402	-519	-2058	-9808	3944	16008	230	751	-543	-17736	5592	-2520	634	1465	-1044	-19680	-920	4192	207	1542	664	102	135	1
-32768	8460	-11996	-934	-5162	-2038	-25776	-9048	-32768	2133	-4202	-1923	-23464	1864	26928	1532	-972	-2394	-9144	4144	14184	143	1403	-623	-19896	4224	-2184	870	1614	-1186	-20504	-4768	4136	505	1558	761	9	215	1
-32768	15936	-15120	-1125	-4912	-1573	-23992	16208	-32768	-1119	-3293	-1201	-10160	-32768	32767	-476	-1536	20	-8640	2216	17256	66	2019	-680	-20520	3568	-1272	789	1934	-1399	-22992	-3672	3000	802	1419	280	12	185	1
-32768	29348	-32768	-1816	110	417	-4976	5928	-32768	-2880	58	735	-14224	-3480	23544	-352	878	211	-7776	4288	17656	-71	2651	-727	-22776	4664	-1488	685	2179	-1572	-22256	-3488	7744	643	973	-35	47	204	1
-23016	-1976	-5264	1879	2171	540	-18976	-3456	-25160	-1701	2857	1432	-19808	3536	-1424	-383	500	72	-9944	6360	17592	-15	3572	-922	-23888	5752	-2424	817	2471	-1690	-25584	-4240	14624	267	188	-245	116	231	1
14640	-15408	32767	3736	3777	450	-12656	-32768	32767	1005	2651	662	-13928	4000	-13216	-1130	600	441	-11440	8792	22264	-40	4643	-1430	-29288	12584	-720	1201	2650	-1840	-28072	-304	19736	-338	-862	-368	135	253	1
-23392	32767	32767	2652	6640	1767	-32768	12280	-15528	2968	6025	808	-32768	-25056	32767	-667	-865	-553	-13088	17920	13992	-575	5967	-2670	-32768	18824	3336	1567	3034	-1978	-26032	-8760	18224	-1925	-1527	-652	187	253	1
-32768	13916	32767	1353	4001	3868	-32768	-9416	984	-93	4214	1196	-12592	-10400	6256	3548	1530	462	-18488	13304	21200	-293	7502	-4281	-32768	16784	6872	1953	3162	-1668	-26960	-16040	12672	-521	-1278	-704	131	163	1
-32768	-32768	-132	1552	1995	1203	-10448	-28976	-22928	-2151	3283	724	-18216	30752	-6952	2632	672	114	-10248	8656	29632	1063	8633	-4838	-32768	16280	11832	2958	2651	-1624	-32768	-5192	-2440	2697	-408	-1241	126	7	1
1640	15540	19024	480	500	1042	-32768	9664	504	-543	2644	170	-11168	23448	-20448	-790	117	154	-32768	15944	32767	2529	8283	-4641	-25336	17456	2616	3307	1995	-1785	-32768	-5624	-5920	2896	-573	-1313	114	0	1
-8136	-8944	13312	341	126	276	-6528	-12624	-5744	-1788	2072	642	-3808	7656	-14384	-2478	988	597	-26344	32767	32767	1848	4944	-4221	-19472	6736	-11680	2185	2087	-1565	-27952	-3856	-15504	3348	-1444	-678	160	0	1
-8340	-2912	14308	262	77	166	-15576	-1952	-4064	-1758	1119	638	-28096	-3176	-16496	-2709	1587	1213	-32768	23520	32767	-2343	-308	-987	-11352	2856	-8424	427	988	-275	-32768	2808	-11384	1965	-1673	-329	132	0	1
-8636	-4452	13992	144	55	97	-19120	-16328	-1384	-2200	144	416	-18392	-2088	-10504	-1071	1495	700	12384	15152	23144	-1445	-3403	1415	-12704	12976	8264	-9	-427	807	-32768	5800	-19160	767	-2015	99	127	0	1
-8252	-6244	13260	77	156	177	-15208	-16632	-992	-1087	690	380	-17272	592	-5712	-563	1650	707	14296	1920	13248	67	-2473	1637	-6048	6848	7584	-716	-868	1092	-22008	-2608	-14848	128	-2667	570	112	22	1
-8288	-4152	13544	105	208	185	-13680	-8896	-1784	-471	1045	316	-16576	952	-4848	-635	1457	1147	1704	5424	16280	1562	-2543	1906	-5320	336	848	-1096	-1300	1466	-14904	-3408	-13040	146	-2941	295	124	40	1
-8360	-4804	13296	102	229	71	-13992	-8928	-2144	170	1306	144	-17776	-1240	-4088	-473	1554	1406	-4184	9456	19808	1335	-3764	2293	-6288	232	-968	-1174	-2110	1992	-9768	-2240	-12184	172	-2673	160	138	69	1
-8980	-4864	12728	20	267	26	-16264	-9448	-1456	-236	766	223	-18664	448	-4416	-413	1852	1582	-4560	3440	16224	747	-4661	2515	-7792	-504	712	-1194	-2881	2508	-11680	800	-13792	-71	-2398	192	150	87	1
-8804	-5504	12484	-33	239	53	-13032	-10336	-864	-870	101	332	-15040	-1944	-3384	-749	1994	1735	-6176	-568	15736	1018	-5084	2579	-10744	-920	376	-1151	-3424	2666	-11080	2480	-15320	-127	-2472	74	145	99	1
-8484	-5792	12272	-13	195	146	-12104	-12160	176	-1163	-326	395	-14920	-3160	-2432	-758	2067	1861	-8000	1288	17192	1289	-5327	2521	-12952	-464	-1256	-1112	-4035	2850	-7360	4032	-15392	-545	-2557	36	146	108	1
-8756	-4596	12512	82	176	220	-11888	-10456	-112	-831	-2	463	-13984	-3408	160	-300	2118	1727	-10480	1304	19608	1363	-5469	2313	-15040	104	-2872	-973	-4636	3068	-4776	3736	-14048	-984	-2366	28	146	143	1
-9104	-3616	12864	106	174	197	-12272	-8376	-408	-352	447	471	-13392	-664	3064	224	2415	1624	-15456	2264	20456	1710	-5573	2109	-17160	-112	-3864	-737	-5069	3268	-2864	5224	-14680	-1245	-2064	-147	143	151	1
-8576	-4588	12408	113	164	201	-13192	-9632	-136	-399	482	502	-12144	-296	4920	116	2823	1432	-18968	5304	20888	2027	-5463	2048	-19864	1416	-4952	-650	-5299	3494	1016	4016	-15712	-1240	-1604	-233	138	145	1
-9500	-4580	12564	121	156	297	-13160	-9712	120	-780	434	557	-15392	-2512	2616	-1099	2538	1499	-22272	8656	23888	2152	-4997	2184	-23808	2752	-5544	-916	-5386	3811	2584	1272	-13992	-778	-922	-305	134	136	1
-10440	-5832	13416	196	138	376	-12112	-9728	704	-1056	438	707	-15848	-2256	1552	-1148	2451	1474	-32448	11328	31152	2449	-4711	2641	-32416	2520	-8304	-1253	-5287	4117	-1560	-400	-4816	-406	-1011	-527	134	134	1
-9224	-3952	12844	244	205	445	-12552	-8784	-632	-986	544	729	-16328	-1848	-1200	66	1832	898	-32768	14496	32767	2349	-4759	3344	-32768	2792	-12128	-1635	-5190	4210	-10488	-2400	448	-690	-1559	-779	127	123	1
-8868	-2988	13292	212	304	440	-15408	-8608	-224	-872	741	779	-14664	-2168	-2072	-338	1757	977	-32768	6712	18944	196	-4356	4065	-32312	6832	-17208	-2103	-4918	3718	-23312	1616	1712	-1162	-1672	-307	125	122	1
-9060	-4476	13712	172	519	458	-14856	-10144	-200	-1006	833	861	-17552	-4896	1632	-624	1579	1125	-32768	7680	16512	438	-4649	4240	-26520	1352	-22688	-3100	-3388	2606	-32216	-11992	5616	-1307	-2641	-119	127	119	1
-8984	-4816	14404	171	754	628	-15424	-9960	1616	-1221	1021	993	-21392	-3416	4728	-419	1529	1014	-32768	-18184	-23608	-578	-3324	3075	-22176	-15048	-32768	-3093	-2136	2307	1040	-19032	32767	-2096	-2807	20	120	151	1
-9372	-3476	15632	298	1236	767	-17496	-9608	2136	-1377	1311	1162	-23024	-3064	4160	-572	1223	832	-32768	-32768	-32768	808	-692	1979	4128	-15736	-32768	-1306	528	715	-11224	-16488	30520	-1807	-34	162	113	155	1
-10160	-2172	17840	310	1823	846	-18776	-10688	1456	-1352	1718	1425	-20248	-5480	1504	-800	711	851	-32768	-23168	-29752	-2600	3783	2115	-16992	-5528	-27352	-981	2916	-746	-20720	-13848	5096	-2035	748	716	109	137	1
-9260	-7908	18012	511	2630	950	-19512	-15208	2072	-1396	2130	1580	-22432	-6920	5192	-903	-143	782	4384	-15096	9872	-2434	3695	1086	-32768	-856	18064	-569	2338	-1427	-18864	-6528	-2360	-318	-708	307	113	154	1
-12448	-8488	19860	673	3486	1612	-23360	-18512	2896	-1717	2433	1669	-29560	-12096	10144	-964	-1059	437	-31480	-32072	32767	-1024	6850	-880	-24664	2232	2712	-1108	3066	-1284	-32768	-12440	28232	-96	-1225	-78	108	120	1
-12392	-11664	22056	702	4601	2488	-26552	-23456	5056	-2130	2701	1749	-29144	-15792	18704	-389	-2853	-195	-32768	-5200	32767	-1024	4803	-3237	-32768	-16720	-200	-1153	3737	-1729	776	-3248	-24	-1799	195	123	117	119	1
-19344	-20684	25864	779	5924	3927	-31144	-32768	10792	-2524	2802	1738	-26816	-13952	15200	-2402	-2020	-688	-32768	27920	20744	-3702	1275	-2008	-19048	28776	-20288	241	4340	-293	-26184	-440	-14896	602	1406	975	118	120	1
-21580	-16956	32767	404	7529	5279	-32768	-29648	14040	-2815	2730	1627	-29552	-2016	-856	81	-1910	-267	-18920	17240	12672	71	496	-192	-25536	-22424	-10968	-649	3475	-1269	-7440	4776	-20896	1339	2187	621	129	127	1
-23860	-17672	32767	-498	9053	5173	-25032	-27152	17456	-2523	1795	2038	-30024	3312	-17112	1452	-2236	-525	-8576	736	15320	-404	53	-261	-8848	3512	-12896	1259	2100	-634	-5504	5960	-15160	1321	1061	1077	111	132	1
-32768	-32768	32767	-1651	5858	4615	-16776	-22632	-7224	-3120	1536	1995	-29880	8896	-8544	661	-2649	-1258	-7424	-1152	16592	-168	6	-136	-17352	-1856	-6904	1683	1248	-448	-23920	10856	-15024	2134	1490	731	111	125	1
-32352	-32768	32767	5922	1832	2898	-7248	-14712	-4984	-350	1217	21	-31240	6360	-2976	156	-2563	-1560	-7488	3480	15280	-141	-17	-94	-22240	9312	-4864	1786	850	-392	-21176	11952	-7432	730	1589	495	117	133	1
11980	-23620	30532	1394	-1726	-3227	-7912	-6328	15192	1873	722	-737	-31448	2856	-9200	757	-2244	-1858	-7160	4704	15064	-116	84	-134	-16656	9632	-1736	476	1012	-522	-17456	4920	-4640	-786	1724	551	135	173	1
18784	-11636	15028	-176	-1171	-3494	400	-10848	13176	2248	-200	-1147	-26008	11520	-9288	1177	-2416	-1993	-7736	2712	14992	-48	163	-139	-15904	2232	-3016	-462	1100	-530	-15848	-3544	-3952	-1159	1740	751	135	141	1
1556	-5192	22548	-954	-2047	-2754	-6256	-2152	3104	2628	-953	-1723	-14448	11808	-7240	293	-2289	-1664	-8096	3328	14512	21	189	-80	-16960	1352	-3904	-366	864	-378	-14368	-3208	-2392	-713	1873	658	127	118	1
-6872	-4712	23968	-1163	-3956	-2693	-12432	-1248	3624	2042	-2346	-2004	-11504	9752	-7152	-853	-1998	-1517	-7872	4040	14256	30	183	-89	-15904	4176	-3800	294	593	-322	-14984	-1928	-976	101	2001	555	122	109	1
-8644	-2620	21576	-1104	-5259	-2844	-13408	-184	4288	1719	-3469	-2131	-11000	8216	-7616	-985	-1958	-1525	-8096	4544	14064	-60	108	-162	-14344	5592	-2408	690	466	-360	-15240	-128	152	715	2155	494	124	105	1
-8772	-2360	20632	-1081	-5384	-2883	-14016	-3248	3968	2092	-4037	-2173	-8752	5560	-10072	-1198	-1827	-1565	-8040	3904	14096	-138	57	-198	-15016	4904	-1848	798	470	-386	-14200	1880	-24	892	2288	446	125	113	1
-8324	-268	17412	-752	-5493	-3364	-16240	-6144	3720	2915	-4069	-2157	-8472	4944	-11432	-700	-1599	-1439	-8304	3464	14192	-186	48	-207	-14856	6048	-976	429	629	-451	-13120	1336	-888	478	2482	496	128	149	1
-11196	-1704	20244	-414	-5102	-3329	-19616	-8040	1888	3583	-4203	-2001	-6344	4496	-10472	-42	-1364	-1374	-7960	2944	14296	-206	47	-227	-15096	3632	-2432	-38	803	-534	-13912	-1752	-264	112	2701	539	127	167	1
-17264	-3684	24068	-346	-5097	-3142	-22656	-9656	-1128	3848	-4697	-1910	-3104	4472	-10296	677	-998	-1207	-7680	3288	14584	-196	79	-224	-16328	3336	-3032	19	800	-587	-15720	-4504	2120	-95	2684	617	130	211	1
-22960	-6836	26496	-467	-5291	-2885	-25528	-12864	-3368	3714	-5117	-1903	-2088	7664	-9232	1333	-264	-1032	-7672	3744	14104	-216	137	-329	-16600	3968	-3272	509	760	-577	-16080	-944	0	97	2312	940	127	230	1
-29872	-9408	30748	-858	-5571	-2794	-29912	-14936	-5296	3645	-5511	-1993	-2048	8304	-5248	1663	-124	-685	-7992	3432	14160	-217	177	-446	-14536	3808	-2352	881	745	-585	-19536	1280	-3000	244	1847	858	120	214	1
-32768	-13144	31700	-1292	-5992	-3033	-32768	-18680	-7064	3512	-5637	-2235	-2360	7992	-4432	1676	-225	-688	-8912	3600	15648	-255	245	-557	-15760	3472	-1280	853	903	-610	-18248	96	88	6	1530	596	116	181	1
-32768	5272	32767	-1224	-5711	-3589	-32768	-16408	-14904	3492	-5485	-2111	-15200	-648	5872	1276	-1312	-982	-8464	1888	15032	-147	483	-473	-16640	4392	-720	659	1129	-798	-14968	272	4560	-17	1891	475	126	199	1
-32768	-7688	6384	-822	-5273	-3009	-31544	-12584	-28936	2545	-4632	-2008	-29864	-4296	15728	693	-1003	-2084	-8384	3056	15112	-71	714	-466	-15840	5112	-520	533	1451	-1034	-18288	-4800	6584	-43	1892	617	29	144	1
-32768	13500	-10924	-1282	-4374	-1802	-22384	-5720	-32768	1651	-3611	-1568	-15224	2912	18544	1481	-1701	-2180	-8720	3632	16192	231	1025	-632	-19504	3856	-1256	679	1767	-1251	-20360	-6920	7296	468	1654	621	0	253	1
-32768	32767	-28216	-2694	-2572	-222	-20584	12128	-32768	-928	-2575	-714	-9144	-22888	31960	-861	-996	266	-8832	4208	17528	66	1925	-615	-20664	4336	-656	868	1998	-1471	-25552	-3088	5208	1097	1443	280	7	98	1
-32768	22368	-32768	-1695	-321	435	-9776	4096	-32768	-2231	126	537	-16584	-4112	18280	-199	241	307	-8728	5224	20648	-44	2571	-731	-22480	5656	-2408	674	2371	-1710	-22568	32	7064	735	758	-43	79	100	1
-32768	23416	-32060	2907	3264	1614	-24232	-4384	-17848	-1154	2140	896	-26688	4800	-912	-441	161	-146	-9912	6040	19888	-150	3508	-994	-26760	7848	-3856	780	2580	-1851	-27392	-192	15296	390	109	-243	131	253	1
3612	-16104	32767	1892	6700	1110	-32624	-32768	32456	2233	3411	784	-25760	5112	-4936	-534	279	-145	-9752	10568	23264	-482	4660	-1561	-32520	16808	-120	1145	2687	-1980	-29880	88	20104	-412	-978	-456	174	253	1
-29356	28280	27756	2068	5474	2987	-32768	10880	-16472	2091	5571	945	-12688	-15312	10112	552	-358	-558	-13536	13448	30816	-1142	5903	-3268	-32768	20040	3952	1584	3197	-1974	-25800	-10792	18240	-2946	-1762	-367	192	231	1
-28032	-2584	23828	219	3720	2691	-32768	-2664	-2416	-818	3981	996	-21168	1664	-1992	2369	1130	1212	-19512	14112	32767	-880	7540	-4867	-32768	10792	5600	2216	3336	-1715	-32768	-15552	10240	-457	-1771	-938	159	0	1
-32768	-32768	7188	1078	1024	1005	-4120	-31024	-24728	-1864	2827	477	-18640	19400	-17552	1041	519	4	-12544	11896	32767	1062	9010	-4983	-32768	16760	13768	3308	2561	-1657	-32080	-4464	-6632	3192	-255	-1326	149	0	1
-12924	3768	17616	473	316	877	-28224	3232	-8784	-710	2240	514	-7056	14808	-15328	-1862	269	474	-32768	17312	32767	2850	7995	-5038	-22408	16240	2648	3393	2135	-1905	-27176	-11672	-11448	3665	-1347	-1239	148	0	1
-9136	-2560	15788	350	87	300	-10584	-4632	-5576	-1724	1545	509	-14800	1840	-16688	-2631	1422	694	-26136	32408	32767	2000	4825	-4476	-17936	2080	-14608	1365	1917	-899	-27696	-8664	-17280	3499	-1465	-723	130	1	1
-9064	-6288	12948	233	76	123	-16968	-9440	-2856	-2129	690	630	-24176	-6448	-12384	-1634	1403	756	-22856	32767	32767	-1219	-646	1626	-9536	6872	-784	1012	816	482	-32768	1752	-15832	2545	-1604	-524	127	11	1
-8012	-4040	14260	137	101	123	-17264	-14928	-872	-1745	317	428	-15448	-1760	-6768	-176	1554	880	16544	13696	19640	-1000	-2647	3344	-10120	20272	12320	205	-515	1387	-30032	4608	-15952	1052	-2031	299	128	30	1
-8484	-5592	13244	133	185	232	-14888	-12048	-2016	-620	967	330	-15832	2600	-5344	-207	1622	794	9832	848	16432	595	-1994	2851	-2672	9816	8792	-1342	-678	1539	-17928	-384	-13592	609	-2658	676	131	50	1
-8036	-3964	13156	119	207	156	-14000	-8624	-1608	-183	1113	263	-16768	-528	-4432	-369	1627	1354	-928	5152	22176	1600	-2681	2490	-6960	1872	-1080	-2209	-1084	1887	-12944	-1760	-12112	285	-2760	631	136	76	1
-8384	-4696	13140	97	274	53	-13800	-8968	-1752	-94	1137	219	-18136	-1032	-3392	-205	1744	1526	-7520	6208	21888	1178	-4267	2393	-9304	-640	-1136	-2092	-2005	2411	-12640	912	-11904	110	-2593	402	142	85	1
-8496	-4948	12700	48	285	7	-15368	-9096	-656	-262	689	319	-16832	8	-2824	-155	1914	1584	-5424	3264	18992	1220	-5039	2443	-11752	-3184	1776	-1506	-2913	2745	-11952	3400	-13432	-148	-2568	487	146	110	1
-8604	-5296	12632	-4	261	51	-13616	-9664	-632	-825	98	386	-15040	-1248	-2080	-453	2009	1673	-4104	136	17040	1100	-5150	2464	-13480	-1736	2104	-1080	-3664	2782	-10320	1584	-15128	-183	-2698	206	138	163	1
-8904	-4984	12472	18	191	145	-13184	-10696	64	-962	-172	432	-14536	-952	-1096	-521	2041	1831	-8112	1648	18560	1371	-4960	2800	-14632	-1296	-1064	-1074	-4202	2873	-6192	3320	-14256	-503	-2637	210	137	153	1
-8760	-4284	12460	73	162	162	-12456	-9104	256	-677	132	487	-14688	1336	648	-4	2296	1676	-12720	1136	22048	1203	-5119	2789	-16144	-256	-3568	-1008	-4722	2977	-4816	4992	-13752	-723	-2383	47	135	136	1
-8312	-3964	12964	95	147	144	-12472	-8128	744	-235	552	428	-12408	2936	4968	496	2895	1735	-15760	1584	22728	1399	-5356	2457	-18632	2096	-4552	-910	-5167	3124	-2128	7872	-14384	-1145	-2072	10	137	142	1
-6044	-3648	11836	124	170	208	-15032	-7904	-128	-313	598	423	-14400	-592	5360	-228	3230	1604	-19080	4056	24000	1750	-5186	2028	-21592	2752	-5664	-892	-5451	3316	72	6384	-15776	-1410	-1654	48	140	135	1
-8560	-5664	12092	75	210	225	-12912	-10208	712	-797	522	601	-17440	-2240	-128	-1212	2555	1605	-26968	10176	29040	2108	-5031	1961	-26152	2488	-7520	-1185	-5525	3640	2408	1904	-12608	-1233	-1310	-183	133	131	1
-8296	-4460	12624	176	180	379	-11088	-8808	528	-1106	500	655	-19608	-3616	-6136	-183	2101	1105	-32768	15376	30896	2214	-5135	2640	-32768	1208	-8552	-1626	-5415	4003	-1928	-2144	-5760	-1105	-1310	-534	130	128	1
-9260	-4076	13052	216	244	442	-14384	-9136	-816	-1022	605	668	-16664	-2128	384	-76	1941	898	-32768	14072	30456	1857	-4885	3662	-32768	1640	-9456	-1666	-5366	4039	-12560	-5248	-1800	-1365	-1550	-813	122	123	1
-8992	-4232	13296	222	417	471	-15256	-9736	1136	-1029	749	782	-15560	-3072	-8	-707	1726	1061	-32768	-8848	21336	-188	-4449	4435	-28608	-2432	-18384	-2446	-4597	3270	-27256	-5288	2528	-2098	-1938	-580	127	115	1
-6056	-4112	10812	256	647	660	-15112	-9920	1240	-1060	746	792	-19176	-6632	5400	-762	1561	1049	-32768	-3128	2120	183	-4322	3784	-31456	-2704	-29440	-3510	-2950	2339	-26896	-19064	21456	-1887	-3451	-270	122	124	1
-9256	-5252	14880	291	848	860	-14600	-9736	2512	-1416	1286	1125	-22632	-4248	6120	-638	1299	745	-32768	-29424	-31744	398	-2954	2193	-10760	-18408	-32768	-1899	-1617	1823	5336	-16632	32767	-1256	-329	-347	118	143	1
-8296	-4892	17044	503	1422	968	-18344	-10104	2248	-1488	1630	1348	-22576	-2584	3544	-1023	898	703	-32768	-21672	-28176	-1013	951	910	-2320	-9016	-32448	-597	1518	-22	-19136	-23496	22056	-2018	359	435	105	137	1
-9524	-4584	18180	549	2184	1087	-21024	-12384	1584	-1497	2012	1547	-20664	-6640	3024	-962	238	739	-31816	-32768	-26936	-2255	3016	69	-23688	-16000	-17624	79	3002	-1501	-26256	-13872	-936	-858	232	393	108	120	1
-10260	-7048	18876	749	3136	1461	-23296	-15632	1896	-1644	2412	1687	-26712	-11936	8008	-744	-837	576	30808	-23816	-6792	-2122	2973	2	-32768	20728	22896	-147	2407	-1275	-32120	-12440	8424	1463	-94	159	115	109	1
-10196	-13344	22084	948	4211	2145	-26200	-24344	4512	-1825	2764	1780	-31408	-16928	14816	-475	-2158	83	-32768	-10592	30648	-1100	5322	-2845	-32768	-12416	-7592	-841	3900	-1882	-10000	-25368	-9512	-2597	-1580	-596	120	114	1
-14376	-13400	26104	1079	5459	3590	-31192	-32472	8304	-1918	2935	1842	-26568	-21152	17024	-1983	-3713	-829	-32768	32767	32767	-2069	3120	-1547	-22032	8584	-15648	379	4141	-976	-19240	8784	-15656	1593	2515	1454	117	115	1
-20148	-18300	22528	586	6871	5468	-32768	-31472	12048	-2465	2699	1549	-30256	4888	-120	124	-1956	-807	-9920	-27592	27832	-1483	794	-1196	-17424	-3824	-13736	-1079	3149	-751	-4576	13520	-16344	2281	1465	340	130	164	1
-14724	-21148	32767	-187	8892	5598	-29544	-29312	18280	-2578	1707	2104	-29520	-224	-13264	1909	-1427	-408	-16080	17040	19472	-1037	255	-419	-9224	7736	-15616	561	2273	-854	-10328	15680	-15800	-196	672	735	111	144	1
-19592	-19880	32767	-585	8904	5455	-11856	-19624	2024	-3583	1140	2330	-25200	5400	-4392	805	-2645	-1110	-10296	2280	15504	-474	-36	-252	-23064	-4016	-6792	912	1456	-783	-23800	3256	-14616	191	1445	980	114	129	1
17444	-32768	26508	3341	4745	5295	-9680	-18272	-16968	-848	947	531	-28880	11216	-2256	153	-2578	-1450	-8640	3272	14288	-252	-4	-160	-21848	3088	-5320	1702	938	-599	-18360	1904	-6696	209	1602	876	124	132	1
-6764	-26068	25292	2721	-763	-3317	-15216	-5720	6120	934	462	-580	-30136	2664	-9128	397	-2169	-1651	-7648	3288	15712	-117	71	-137	-15808	5760	-552	1157	876	-442	-15992	-2112	-5216	-95	1694	799	135	143	1
20816	-14456	14984	1637	-446	-4843	248	-21032	13608	2801	473	-956	-30112	5880	-10720	1264	-2196	-2146	-7240	3328	14952	5	174	-137	-15000	4320	-1520	235	1060	-403	-15712	-3072	-4776	-143	1869	674	133	136	1
4112	-4192	16628	432	-887	-3483	-152	-5664	3080	3458	639	-1500	-16888	9992	-8376	935	-2198	-1987	-7896	4256	14584	42	230	-106	-16840	4080	-2424	-312	1019	-310	-15896	-1096	-4624	225	1990	519	129	122	1
-3984	-3060	23072	-643	-2720	-2715	-9272	-2832	640	3402	-577	-1833	-12136	8976	-6704	-14	-1839	-1766	-8456	3352	14472	25	211	-117	-17080	2976	-5192	-15	746	-295	-15416	912	-2976	398	2023	406	126	122	1
-7896	-3120	20848	-1118	-4511	-2409	-12888	1608	2744	2370	-2327	-1953	-11256	6232	-8168	-735	-1627	-1702	-8168	4328	14288	9	165	-106	-15128	4016	-4392	678	428	-282	-15496	168	-1168	779	2134	458	123	117	1
-8008	-2360	16940	-1239	-5458	-2360	-12336	184	2960	1446	-3760	-2031	-9760	6080	-9336	-845	-1582	-1601	-8216	4880	13960	-80	113	-180	-14296	6944	-2496	1146	250	-285	-15104	2304	-464	1096	2225	544	123	120	1
-7776	-1944	14908	-1280	-5589	-2683	-12800	-3104	3016	1618	-4254	-2043	-8440	7256	-9672	-655	-1619	-1427	-8008	4000	14224	-149	53	-221	-15264	5928	-1024	833	377	-357	-14440	2552	-1424	826	2401	523	123	108	1
-10044	-4604	16040	-877	-5218	-3201	-14488	-6416	2232	2338	-4285	-2004	-8224	5664	-10584	-476	-1419	-1280	-8256	3616	14256	-150	62	-204	-14368	5824	-1304	179	601	-471	-13352	184	-1128	501	2672	383	125	201	1
-10468	-5096	16512	-766	-5154	-3297	-14936	-6976	1960	2491	-4263	-2025	-5768	5368	-9744	-408	-1173	-1097	-7936	2792	14480	-128	65	-174	-16408	2680	-2856	-145	729	-523	-14152	-2616	1000	157	2823	435	128	239	1
-17976	-5220	21952	-268	-5040	-3542	-20392	-11992	-472	3616	-4482	-2123	-4928	5128	-10328	-372	-1110	-1040	-7264	3568	13944	-161	109	-198	-15600	4160	-2648	359	665	-523	-14896	-3464	5304	-234	2451	765	129	237	1
-22048	-7584	24804	-559	-5144	-3016	-24920	-16176	-2256	3774	-4787	-2188	-3088	5248	-9512	1359	-84	-1039	-8928	4608	14184	-231	59	-348	-13960	6232	-912	849	686	-516	-17448	-96	1128	76	1841	1090	130	253	1
-28340	-10460	29156	-922	-5197	-2697	-31416	-16416	-4016	3838	-5059	-2361	-5304	6392	-5112	1946	33	-858	-7496	3760	14088	-351	103	-432	-13520	5960	-432	681	886	-634	-21920	2568	-2360	227	1549	708	127	247	1
-32768	-11768	30780	-1292	-5281	-2998	-32768	-18600	-5832	3817	-5144	-2424	-10008	5184	-2560	2091	-777	-1037	-8560	2440	15056	-272	261	-475	-18880	3240	-1368	424	1130	-751	-16952	-1704	520	-306	1658	366	127	196	1
-32768	-5728	25544	-1175	-4950	-3657	-32768	-14728	-13992	3532	-4976	-2101	-18784	-2048	3304	1525	-1124	-1527	-8080	3080	15184	-170	485	-464	-16040	4720	-1408	621	1235	-852	-14968	-2096	4880	177	2045	487	116	150	1
-32768	-2340	10364	-260	-4889	-3304	-32768	-15216	-24328	2758	-4414	-1800	-28032	5552	17280	1420	-750	-2204	-9024	3416	15104	-83	687	-540	-16200	6064	-992	660	1491	-1046	-18248	-4352	6344	241	1601	577	55	141	1
-32768	-508	5212	-106	-4933	-3086	-29592	-2752	-32768	1499	-3318	-1835	-16680	-10912	26192	953	-1833	-1632	-5424	1848	17472	128	928	-712	-19552	3048	-1088	826	1757	-1221	-19904	-4728	5784	781	1512	612	0	211	1
-32768	32767	-32768	-3587	-2860	8	-19464	12672	-32768	-1440	-2252	-572	-8744	-22120	31448	-118	-1009	245	-9128	-984	15608	9	1851	-657	-19912	4608	-1104	775	2058	-1473	-24472	-1944	3128	994	1248	408	0	188	1
-32768	20656	-29640	-704	-274	715	-9096	2200	-32768	-2113	356	667	-17648	-872	17104	-192	409	209	-8816	3776	21176	-172	2559	-757	-22696	5864	-3200	605	2420	-1640	-23136	376	6408	567	620	-74	60	249	1
-32768	12148	-9568	1429	1434	596	-22920	-832	-27352	-1386	2636	1352	-23992	5864	-2456	-344	101	-44	-9288	5904	18008	-272	3505	-1023	-25000	6584	-3560	873	2567	-1739	-25856	-3056	15856	140	-127	-210	113	80	1
23308	-11084	32767	2176	3589	292	-15048	-32768	32767	-326	2637	1220	-18736	4424	5640	-1200	114	341	-9184	9744	21008	-460	4571	-1652	-29640	16072	320	1354	2762	-1824	-30536	-960	18616	-904	-940	-690	156	169	1
-8832	24056	21992	1648	6102	2126	-26664	680	-7408	1765	4782	710	-16440	-9752	5928	-1743	584	758	-11656	11216	29840	-975	5801	-3055	-32768	19384	3640	1590	3278	-1845	-23608	-11320	18120	-2299	-1721	-613	180	253	1
-31396	5760	32744	1063	3816	3238	-32768	-13096	-4200	-440	3287	1007	-22696	-14920	6416	2196	1218	231	-13888	15576	28816	-731	7109	-4605	-32768	16080	7968	2285	3417	-1549	-29392	-17936	10624	-202	-1552	-941	181	33	1
-28960	-24364	12492	867	3148	1770	-21576	-15656	-5920	-1500	2358	999	-23120	16880	-6704	2664	700	276	-11112	14864	31872	460	8405	-5197	-32768	16128	10904	3662	2759	-1552	-32768	-1736	-5232	3704	-117	-1237	144	0	1
-756	26476	25936	1128	605	1432	-27152	-1344	-1208	-1029	2702	292	-12256	15680	-17440	-298	623	281	-32768	16760	32767	2556	7909	-4787	-23704	15208	1792	3703	2006	-1918	-30744	-4592	-16680	4290	-861	-1272	117	0	1
-19560	-3560	14428	409	261	568	-15240	-6856	-8584	-1304	2312	653	-14648	12464	-11560	-1781	951	527	-26664	32767	32767	2201	4909	-4239	-18736	1392	-12328	1781	2003	-1141	-28576	-4184	-17656	3334	-1367	-481	144	0	1
-9760	-5728	13548	112	197	188	-16760	-7280	-3496	-1718	1197	582	-21264	-808	-11408	-2144	1109	724	-32768	29864	30696	-1092	-420	499	-8416	10328	-2152	1270	556	245	-32768	5768	-17352	2035	-1742	-364	135	0	1
-9508	-5220	13324	80	158	148	-17264	-11280	-2160	-1964	338	440	-18968	-3560	-10424	-1026	1572	820	13000	20832	23120	-729	-2393	2706	-9136	20744	9936	66	-539	1003	-28928	7024	-18240	394	-2142	422	144	8	1
-8292	-5440	13224	-20	231	152	-13944	-14000	-1840	-1248	322	338	-15808	1880	-8288	-612	1467	845	12400	5168	12472	103	-1719	2820	-2176	9192	8720	-1513	-809	1246	-18760	-1680	-14856	39	-2658	671	131	31	1
-8032	-4956	12924	33	260	178	-14216	-10056	-1344	-501	637	237	-17552	-832	-5960	-612	1559	1177	1240	5168	18496	1186	-2016	2747	-4584	2552	-872	-2280	-1200	1635	-12256	-3744	-13696	-114	-2921	534	132	46	1
-6892	-4900	12848	79	248	155	-14704	-9320	-120	67	840	116	-17152	-416	-2832	-227	1637	1449	-6344	8352	20832	956	-3467	2648	-6712	408	-2232	-2226	-1953	2169	-10624	-1496	-12616	-176	-2685	361	126	86	1
-8940	-4692	12972	20	261	65	-15640	-7880	-496	-146	667	156	-17520	2400	-2424	-185	1828	1478	-6832	896	19016	829	-4708	2475	-9032	-2656	-632	-1765	-2850	2702	-10328	-1376	-12736	-233	-2654	365	143	105	1
-8432	-5004	12564	-83	227	-15	-13848	-9184	-336	-650	306	233	-15464	1656	-1888	-666	1897	1603	-8144	-1696	17752	1528	-5409	2480	-13000	-2584	-760	-1133	-3563	2867	-7192	1728	-12752	-495	-2577	182	153	117	1
-9000	-5312	12580	-92	140	15	-12144	-10600	560	-958	-99	356	-14712	-848	-1480	-1009	1932	1729	-8760	-408	17888	1894	-5626	2326	-15168	-1400	-1008	-587	-4228	3039	-6312	880	-12848	-832	-2454	65	146	133	1
-8824	-5280	12648	-89	119	26	-11800	-11144	776	-816	-59	437	-15360	-3232	-616	-721	2007	1700	-12216	-1240	19632	1945	-5476	2002	-17440	-1192	-2768	-172	-4745	3254	-6312	2864	-11456	-971	-2211	-94	144	143	1
-8944	-5032	12364	66	55	72	-11552	-10512	160	-436	294	490	-13160	-3184	2368	-49	2307	1523	-16800	-200	20728	2272	-5355	1676	-19128	488	-4208	131	-5031	3447	-4680	5808	-11168	-927	-2022	-216	140	136	1
-8200	-4924	12612	172	73	138	-12808	-9488	616	-374	415	506	-11008	-64	4112	105	2998	1426	-19672	5872	20928	2331	-5071	1544	-21008	3568	-4288	-140	-5013	3622	-2368	5104	-11800	-968	-1693	-221	138	139	1
-8272	-4808	12512	113	44	179	-13792	-9024	512	-588	383	536	-15080	-1200	3168	-1024	2934	1483	-23168	9592	23672	2163	-4460	1862	-25176	3304	-4952	-985	-4825	3850	-1608	2520	-10512	-821	-1337	-349	140	141	1
-6160	-3720	10800	125	39	277	-13384	-8688	2000	-843	342	698	-19048	-2288	-9344	-435	2254	1345	-27680	9704	25008	2139	-4072	2825	-31000	1312	-6088	-1767	-4636	3906	-5256	-1208	-6528	-761	-1277	-372	132	138	1
-7880	-4444	13496	141	61	286	-11064	-10056	1240	-929	342	662	-19560	-3264	-2376	167	1827	1099	-30720	9272	26136	1569	-3384	3499	-32768	1152	-7768	-2390	-4501	3852	-13728	-4576	-1544	-931	-1939	-422	127	136	1
-8004	-4348	13560	162	172	388	-15312	-9504	1776	-748	647	714	-16904	-1600	952	96	1732	1048	-32768	4424	29408	935	-3191	4290	-32768	1088	-8488	-2514	-4424	3792	-18872	-3344	-528	-936	-2263	-485	122	128	1
-7928	-3972	14068	144	378	437	-12960	-10712	2536	-940	829	826	-18088	-4728	3792	-646	1605	1154	-32768	3456	18824	-465	-4007	4409	-30024	1664	-19464	-3528	-3594	2480	-15520	-7032	1320	-506	-1986	-277	122	117	1
-9168	-4936	14156	209	562	685	-12752	-11536	3928	-1237	1079	1001	-21872	-3304	6592	-515	1462	826	-32768	-13368	-6048	-1143	-3760	3344	-23944	-9256	-30576	-3407	-2393	2091	-5696	-15240	31256	-1896	-1448	-342	117	132	1
-8720	-5028	15240	210	883	899	-16264	-9544	3784	-1510	1370	1229	-23120	-4272	1880	-759	1071	586	-32768	-32480	-32768	1030	-2192	1909	-3976	-16112	-31704	-902	-751	1119	-20496	-19832	32504	-2888	-140	-238	109	122	1
-7840	-3184	17704	353	1508	870	-19232	-10528	3136	-1479	1725	1503	-20680	-3664	-312	-946	592	697	-32768	-20024	-29456	-150	860	864	-8704	-8000	-29152	-419	1862	-516	-22048	-20472	15176	-2175	5	321	116	111	1
-10600	-6844	18220	187	2206	1004	-20368	-12760	984	-1401	2062	1661	-19872	-4464	888	-1018	0	822	-20160	18504	3880	-1766	2823	50	-20632	-5056	-23928	-146	3009	-1188	-16208	-12864	-2336	-167	-17	15	115	100	1
-9012	-8432	18772	709	3051	1331	-22376	-14976	1720	-1414	2278	1748	-25744	-5312	4888	-938	-504	616	5672	-1248	32767	-1315	2273	-11	-32768	14144	32767	1178	1068	-1302	-16288	2416	11912	1317	569	139	113	105	1
-9840	-6828	17172	677	3210	1438	-24520	-18944	5640	-1632	2492	1832	-27488	-10152	9144	-569	-1671	200	-17424	-23616	16856	-376	5288	-1322	-24040	-3400	-8016	-631	2678	-1399	-13872	-2720	12200	811	560	567	120	99	1
-12220	-12772	23468	770	4860	2754	-23864	-24616	7232	-1773	2687	1839	-26608	-17368	27128	-116	-4298	-435	-32768	8720	32767	-1009	3723	-2286	-32768	1680	-9368	-718	3091	-1367	-32528	2488	-304	-894	-146	71	124	131	1
-16108	-22152	25448	662	6241	4382	-29520	-30952	12256	-2056	2746	1713	-24376	-6608	10224	-559	-1958	-629	-32768	32767	32767	-2027	2873	-1300	-23872	10120	-13056	-118	3167	-845	-23872	-6152	-8128	-1235	1134	1432	125	120	1
-21244	-15676	25564	735	7611	5603	-30432	-29600	19824	-2484	2542	1774	-26392	-6128	-8432	275	-1605	-101	-10384	-32504	31456	-1206	810	-910	-23056	-10912	-6648	-1084	2768	-957	-6104	7016	-14568	1422	2098	455	121	154	1
-27064	-16988	32767	-633	7836	5300	-20264	-25160	7672	-2848	1646	2230	-26688	568	-10920	996	-2173	-599	-27352	10728	14792	-420	25	-200	-11504	3760	-16632	658	2300	-609	-12896	984	-12640	945	1146	1178	107	130	1
-18440	-32768	32767	-1051	4190	4568	-13000	-28576	-4936	-1829	1442	1567	-29480	8712	-7008	652	-2426	-1181	-10560	6944	14752	-145	83	-97	-20240	-1216	-6608	1473	1264	-562	-21840	5752	-13256	1740	1628	806	109	132	1
-32768	-19888	18244	4068	342	746	-3664	-16488	-2184	293	1502	-188	-29720	1224	-6232	631	-2169	-1465	-8008	3656	15184	-53	90	-69	-19272	5824	-5752	1672	840	-362	-17528	8720	-7768	955	1635	611	128	138	1
12500	-22916	22600	1344	-1642	-3351	-2680	-18536	16248	1968	1127	-475	-30928	-272	-10928	1108	-2151	-1855	-7760	3888	15072	-7	140	-86	-16528	7640	-2200	967	736	-351	-17120	4336	-6104	-248	1690	538	139	126	1
14044	-12648	11568	737	-788	-3032	-96	-10992	8608	2716	357	-1097	-23472	8688	-10200	996	-2171	-2071	-7256	4040	14576	44	201	-99	-16112	6144	-1960	-88	895	-273	-16504	-2320	-4520	-589	1760	606	132	132	1
-1220	-8188	19008	-593	-1586	-2663	-6688	-4976	760	2726	-647	-1464	-15784	8752	-7704	216	-1922	-1997	-8176	3920	14512	47	173	-108	-16688	1592	-2592	-372	810	-206	-15408	-2176	-3344	-441	1948	623	128	127	1
-8472	-10372	20344	-942	-3464	-2753	-8816	-5472	-56	2096	-2067	-1736	-12680	5048	-7576	-449	-1713	-1946	-7952	3832	14296	80	207	-36	-16736	2280	-3696	202	515	-166	-14912	-2616	-1624	100	2140	614	127	114	1
-9540	-6560	17908	-861	-4768	-2919	-11168	-4256	1832	1953	-3124	-2023	-11888	4224	-8424	-439	-1654	-2060	-8856	4520	14448	166	163	-21	-14816	5312	-2864	878	291	-219	-14656	-592	-832	1192	2317	542	122	106	1
-8560	-3816	14336	-1006	-5231	-3168	-11656	-4880	2184	2214	-3644	-2079	-9944	6056	-9616	-196	-1556	-1946	-8080	5392	13920	-2	79	-86	-13824	7688	-1424	1112	278	-274	-14000	2856	608	1478	2534	512	122	102	1
-10092	-4948	14264	-993	-5117	-3346	-12744	-7616	1400	2693	-3787	-2126	-8528	5952	-9816	-145	-1455	-1814	-7848	4048	14208	-59	38	-118	-13608	6912	-824	715	490	-385	-12872	2144	2144	969	2689	541	122	220	1
-12552	-7264	16076	-602	-4895	-3499	-16344	-10200	144	3201	-3908	-2205	-7824	5904	-9376	-4	-1314	-1601	-7592	3832	14408	-89	54	-135	-14464	6392	-808	204	697	-495	-14136	-648	3072	415	2644	620	124	252	1
-15868	-7660	18764	-400	-4708	-3565	-19672	-10672	-792	3509	-4246	-2283	-5600	4616	-9520	545	-1077	-1526	-7424	4896	14296	-132	79	-186	-15784	5376	-1584	191	830	-601	-16304	-2112	5480	5	2180	821	128	253	1
-19420	-8748	20788	-619	-4590	-3441	-22632	-14624	-2104	3669	-4555	-2439	-4000	7072	-9728	1437	-600	-1410	-7624	4480	14336	-223	57	-291	-14864	5000	-1144	641	828	-616	-17192	-416	728	404	1918	952	126	253	1
-25324	-10944	24988	-872	-4465	-3243	-26944	-17024	-3856	3849	-4675	-2637	-3512	9640	-8600	1830	59	-1067	-6760	4552	14448	-297	68	-379	-13040	6976	-72	848	984	-674	-22616	2352	-2632	459	1580	618	123	247	1
-32276	-11052	30276	-1353	-4570	-3263	-32768	-17408	-5680	3913	-4903	-2842	-6744	6424	-4680	2061	-252	-989	-7592	2976	14848	-247	160	-494	-17744	4120	-1776	506	1238	-755	-15432	-1856	-552	-247	1398	624	120	208	1
-32768	-4784	29876	-1786	-4616	-3784	-32768	-14528	-12416	3546	-5098	-2512	-14224	4880	-760	1465	-627	-1065	-9232	10688	15224	38	343	-534	-17328	3360	-1984	579	1282	-821	-14000	-480	2640	268	1980	565	114	172	1
-32768	-1000	21424	-1361	-4882	-3869	-32768	-14096	-19072	2864	-4689	-2198	-23768	-2584	10864	858	-846	-2153	-8520	2944	14840	-148	441	-465	-15784	6536	-1760	709	1458	-973	-18152	-2320	5584	356	1577	580	73	189	1
-32768	7192	-2300	-61	-4864	-2815	-30024	-9320	-30072	2198	-3993	-1915	-24192	3128	18024	716	307	-2227	-8304	3096	13016	179	821	-764	-18496	5728	-2288	896	1707	-1134	-20168	-4216	6864	696	1365	845	24	212	1
-32768	32767	-26680	-864	-3771	-768	-22680	14280	-32768	666	-3066	-1689	-16800	-25768	32767	-222	-1510	-361	-5016	760	20144	41	1549	-761	-22592	2664	1408	1096	1835	-1370	-25080	-2888	1400	1311	1528	495	28	253	1
-32768	32767	-32768	-2984	-1085	-282	-15272	14928	-32768	-1935	-389	157	-13888	-11160	27208	461	-326	369	-8384	2168	18768	307	2381	-821	-21552	3760	-1752	917	2275	-1577	-21560	-2688	4648	851	871	-53	68	174	1
-32768	12632	-18292	695	1723	233	-21080	-2288	-32768	-1088	2271	1200	-21912	3832	6720	535	550	282	-9336	7560	19888	-13	3320	-825	-25984	5080	-1296	761	2565	-1706	-28504	-1104	7552	259	407	-395	115	217	1
-4536	-7768	11228	3567	2800	235	-14888	-32768	32767	-506	3330	1186	-15536	6136	-14208	305	760	270	-10320	6928	22880	16	4473	-1124	-28576	8336	224	996	2793	-1797	-27320	-1608	17640	42	-608	-422	143	253	1
-2664	14036	27128	1666	5189	2300	-30864	8296	1960	1955	4722	315	-15176	4360	-5408	-1449	676	732	-11976	15784	24352	-371	5664	-1901	-32768	17344	2352	1334	3091	-1940	-27512	-7992	20792	-2013	-1589	-691	172	253	1
-32768	4620	30980	1125	4115	3014	-32768	-5800	88	-263	3494	1332	-19384	-15488	17016	326	-70	-70	-12000	16248	25048	-293	7082	-3712	-32768	18896	2896	1378	3189	-1938	-25152	-21816	11696	-1101	-1618	-886	169	243	1
-23440	-14828	16716	940	3728	2334	-23672	-16176	-5464	-1481	2741	1150	-25576	5800	-3912	1713	1081	381	-17608	6592	32767	781	8416	-4849	-32768	9360	10016	2799	3226	-1444	-31944	-7016	6568	1810	-380	-1225	172	0	1
-29064	16040	29388	1825	1041	1666	-21000	-11984	-10984	-1089	2287	62	-19056	10528	-14752	115	679	139	-32768	14320	32767	2488	9255	-4955	-32768	11144	11768	3128	3033	-1415	-32768	-4184	-14608	4454	-396	-1392	127	0	1
-16436	-16100	10012	560	370	602	-16440	-10664	-7344	-1190	2259	871	-10584	12872	-9816	-675	659	684	-32768	28440	32767	4297	6923	-4325	-18128	13272	-2024	3746	1805	-1946	-27808	-696	-14912	4663	-1163	-1117	117	0	1
-9512	-1976	14580	240	123	224	-15880	-3144	-3528	-797	1699	465	-19984	4368	-12472	-1382	1286	761	-32768	32767	32767	-390	3469	-3800	-9536	4936	-16952	608	1259	-216	-32768	5528	-14384	2848	-1610	-231	128	0	1
-9488	-4756	13836	131	111	114	-17624	-9512	-2144	-1663	650	496	-17360	-216	-9296	-1193	1482	900	8400	32767	26064	-1706	-3444	1464	-12824	7264	-1648	334	-43	730	-32768	11192	-17912	984	-1926	3	138	31	1
-8324	-4888	13848	0	142	104	-15760	-14328	-296	-1599	204	380	-15016	-1240	-8440	-952	1288	902	16528	6552	11824	-791	-2994	1941	-8680	11504	10112	-393	-1116	956	-24712	2648	-16032	-158	-2536	786	127	145	1
-8184	-5516	12924	19	154	186	-12640	-11632	-992	-881	363	354	-17264	-512	-5760	-767	1472	1170	9080	5088	9656	977	-2348	2179	-3184	4064	5440	-1431	-1300	1292	-15592	-1808	-15232	-229	-3009	527	127	0	1
-8048	-4852	12936	52	143	182	-12960	-10256	184	-346	650	268	-17344	-1416	-3424	-552	1526	1308	-1112	11312	16616	1182	-2727	2717	-3720	1360	-768	-1789	-1869	1643	-9864	-1728	-13352	-240	-3063	316	131	35	1
-8268	-4896	12752	66	198	106	-14504	-8944	-216	-27	805	236	-15920	-216	-2392	-349	1754	1413	-7192	10008	17368	149	-3828	3019	-5168	1080	-2168	-2016	-2531	2196	-9072	408	-13448	-316	-2764	197	145	60	1
-8328	-4964	12688	43	206	38	-14520	-8800	608	-391	531	314	-15200	656	-1536	-581	1854	1560	-7552	1512	16776	13	-4793	3190	-8944	-1824	-424	-2064	-3193	2479	-8976	3864	-15160	-442	-2686	179	147	92	1
-8912	-4824	12456	11	130	27	-12992	-9512	1088	-883	118	435	-14536	136	-1296	-814	1941	1696	-9896	8	15200	596	-5272	3227	-11752	-880	-648	-1855	-3841	2611	-5760	4880	-15432	-872	-2572	188	141	112	1
-8820	-5524	12556	17	60	65	-11240	-11232	1288	-946	15	491	-14992	-1480	-136	-631	2155	1720	-9560	840	17904	687	-5451	2956	-12856	-104	-1728	-1645	-4442	2727	-4536	3504	-15680	-1404	-2366	68	140	113	1
-7980	-5100	12500	133	43	126	-11760	-10432	328	-590	297	533	-13864	-2032	2936	62	2584	1561	-15216	1952	20336	755	-5614	2544	-16080	-624	-3280	-1559	-5038	2882	-2816	5248	-15280	-1791	-2091	-102	136	111	1
-8140	-4328	12876	119	65	135	-13296	-9528	896	-370	555	546	-11432	-1608	5712	45	3113	1468	-17432	2864	21792	1109	-5721	2279	-20544	-56	-4576	-1285	-5485	3008	416	5328	-16672	-2065	-1604	-165	134	118	1
-8316	-5112	12500	120	106	190	-12832	-10032	712	-545	618	596	-14848	-2456	2200	-1196	2636	1543	-22952	5752	24376	1501	-5393	2145	-23984	1400	-5728	-1011	-5785	3230	2120	2648	-16320	-1657	-758	-227	134	118	1
-7424	-5544	12012	193	55	319	-11944	-9904	2008	-966	485	736	-19992	-4808	-7848	-379	2169	1231	-32768	12328	31344	1781	-5306	2195	-28952	2368	-8344	-1132	-5807	3624	120	-1968	-6960	-877	-641	-377	132	112	1
-10216	-4996	13400	189	62	451	-11288	-10496	1280	-1039	604	720	-19048	-3832	-1096	196	1742	942	-32768	16336	32767	1771	-5526	2717	-32768	4656	-12272	-1648	-5514	4005	-6088	-5712	-1472	-720	-1104	-903	127	128	1
-8232	-4488	13460	335	277	543	-15376	-10464	2224	-874	918	777	-16864	-2424	208	-184	1598	985	-32768	32192	32767	502	-4986	3610	-32768	7592	-16088	-1986	-5229	3731	-21248	-3424	1648	-1001	-1321	-1078	126	114	1
-8256	-5112	14304	308	525	650	-13680	-11440	1880	-1090	1052	903	-18360	-6520	4520	-689	1436	1085	-32768	824	12096	607	-4924	4078	-27568	1600	-23560	-3010	-3818	2637	-32768	-15624	6464	-1978	-2450	-654	126	112	1
-8480	-5184	14188	331	747	812	-13504	-10776	3112	-1392	1209	1096	-21896	-4400	6368	-625	1304	879	-32768	-17696	-26824	-221	-3231	3131	-23568	-13384	-32768	-3239	-2048	2136	-7448	-22736	32008	-1201	-2541	-238	122	127	1
-5632	-2936	18240	345	1062	962	-18016	-8528	4232	-1628	1552	1351	-22224	-3408	5704	-788	940	688	-32768	-32768	-32768	761	-648	1655	5624	-15888	-32768	-740	228	751	-4456	-19800	32767	-1478	-516	282	115	169	1
-9932	-4048	17260	235	1819	908	-17728	-12048	1600	-1533	1975	1599	-19464	-4872	2328	-959	351	722	-30496	-2672	-17256	-912	3083	537	-14992	-5624	-29600	-236	2911	-953	-21632	-18976	3624	-1261	1407	1085	109	149	1
-10252	-7008	19508	561	2593	1174	-19952	-15352	1176	-1486	2357	1703	-21952	-6896	4744	-946	-576	722	-3168	-12688	17528	-2239	2923	318	-32768	-1112	19552	554	2193	-1466	-21120	-7488	-13120	1595	277	188	112	138	1
-9484	-9284	19600	710	2762	1271	-24360	-16440	2216	-1892	2580	1768	-28744	-10352	10608	-769	-1608	429	-15896	-21648	32767	-1070	5982	-1902	-24528	7624	4504	43	2888	-1213	-26848	-15344	16296	9	-1067	-100	110	127	1
-11464	-9812	23032	886	4763	2661	-28160	-24360	2904	-2135	2756	1763	-28432	-16488	17152	-299	-3211	-283	-32768	-2040	32767	-442	3779	-2905	-32768	-17712	-8224	-594	3743	-1718	-13240	3944	3320	-735	61	301	121	125	1
-11500	-17724	27036	940	6267	4181	-30824	-32768	10216	-2306	2778	1687	-30040	-11752	10696	-1840	-1738	-646	-32768	32767	11088	-1780	2153	-870	-16984	27176	-23712	421	4020	-573	-24360	1584	-16168	302	1172	835	114	109	1
-15380	-18020	32767	641	7881	5404	-32768	-30008	11120	-2686	2470	1690	-26384	-1528	-864	212	-1621	-289	-11192	-21016	23984	-625	542	-916	-22704	-22208	-9656	-1130	3006	-1296	-6992	7048	-20504	810	1702	643	127	108	1
-30328	-22600	32767	-829	7291	5308	-20288	-26624	8944	-3147	1632	2032	-27184	4992	-17664	1452	-2083	-480	-10216	-10200	16848	-633	-113	-379	-11152	1192	-12208	644	2044	-600	-10856	320	-14440	84	1204	913	122	144	1
-19016	-32768	32767	-556	4422	4701	-17808	-22720	-6968	-2914	1656	1580	-30000	7528	-6904	388	-2743	-1187	-8368	7288	14296	-155	97	-83	-20912	1256	-8856	1548	1340	-450	-23376	3976	-14784	1381	1593	672	117	130	1
-32768	-32768	31000	3150	878	196	-5224	-17024	-1272	-853	1469	28	-31384	6616	-3536	87	-2569	-1522	-10208	2576	15176	-87	101	-100	-19472	6064	-5760	1574	822	-338	-19336	8264	-6984	1089	1744	617	123	125	1
11188	-24452	22572	872	-1053	-3255	-2120	-15544	15936	1593	793	-719	-30952	3752	-9656	738	-2073	-2050	-6776	4912	14848	-65	190	-160	-16080	8424	-1648	659	872	-356	-16504	3704	-3448	-73	1864	506	135	123	1
15804	-13772	13224	162	-803	-3622	2000	-8488	10072	2254	252	-1236	-23176	9032	-10440	827	-2162	-2132	-7904	3312	15360	-17	296	-213	-16344	3792	-2184	-16	924	-369	-16704	-1496	-3544	-649	1703	560	135	122	1
4968	-7064	18896	-688	-1639	-3011	-3528	-6304	3904	2695	-620	-1861	-15792	9544	-8520	-49	-2034	-1918	-8032	3200	14736	-14	301	-206	-17112	2264	-3104	-27	762	-346	-15320	-2440	-2744	-659	1858	539	128	113	1
-3316	-4612	20184	-1092	-3108	-2543	-9768	-2528	2488	2413	-1973	-2151	-11040	7096	-8408	-842	-1689	-1774	-7824	3680	14552	106	379	-158	-17248	2544	-2976	20	721	-336	-15480	-3456	-1184	-113	1948	530	127	107	1
-7312	-2468	18940	-1485	-4379	-2452	-10976	-1088	1536	1824	-3184	-2287	-9088	4072	-9312	-1083	-1451	-1855	-8760	5120	14216	94	396	-192	-14568	6008	-2992	871	421	-362	-14800	-8	-104	845	2112	427	125	103	1
-8832	-3416	16456	-1676	-5072	-2676	-11456	-3696	1768	1839	-3858	-2395	-8376	5040	-10032	-899	-1383	-1725	-7792	4232	14088	-32	309	-291	-14728	6720	-1824	878	406	-382	-14048	2784	464	1009	2297	444	122	90	1
-11076	-3708	15184	-1514	-5104	-3025	-14232	-6176	1848	2317	-4028	-2383	-8656	6160	-10720	-539	-1335	-1612	-8440	3648	14048	-76	258	-312	-14528	5656	-2080	575	552	-472	-13320	1824	1192	597	2522	503	125	136	1
-11160	-5712	16976	-969	-4763	-3405	-16960	-9992	576	3061	-4109	-2436	-6896	6336	-9880	-366	-1149	-1400	-6808	4800	13800	-73	212	-339	-15040	4688	-2296	316	706	-582	-14880	-1688	1056	390	2713	486	127	233	1
-14992	-6048	20380	-792	-4474	-3543	-20968	-11040	-520	3553	-4303	-2478	-5120	4760	-9856	111	-780	-1219	-8072	3768	14048	-112	168	-323	-15376	4000	-2248	469	748	-633	-15840	-3504	2376	386	2534	524	129	252	1
-21868	-8344	24520	-856	-4409	-3421	-24432	-14784	-2680	3669	-4609	-2568	-4512	6688	-10672	1092	-276	-1113	-3176	976	11616	-142	177	-415	-15208	4896	-1688	724	822	-642	-16504	-1984	488	151	1912	682	129	253	1
-29148	-9996	29152	-993	-4596	-3328	-28960	-16936	-4416	3909	-4754	-2737	-3832	7384	-8976	1705	248	-1031	-8488	3368	14200	-131	233	-429	-15088	3096	-1352	730	954	-721	-16688	-248	-2688	52	1505	690	127	237	1
-32768	-11208	32352	-1268	-4817	-3351	-32768	-19528	-4960	4010	-4900	-2882	-9080	4160	-4504	1947	-143	-1040	-8504	2712	14648	-46	330	-387	-15160	3024	-1664	728	979	-724	-16248	1000	-2392	108	1529	513	125	160	1
-32768	-3492	30888	-1605	-4695	-3750	-32768	-15024	-12304	3764	-5017	-2429	-16864	248	-64	1486	-537	-1445	-8920	2904	15056	34	527	-398	-18592	4080	-2704	515	1176	-935	-17584	928	384	116	1687	384	118	150	1
-32768	1676	21000	-1161	-4775	-3873	-32768	-13136	-21784	2960	-4543	-2024	-28072	-2920	15528	1166	-548	-2324	-8744	4368	15392	28	934	-424	-18448	5040	-2536	586	1276	-1077	-19568	-2816	3792	64	1583	470	68	118	1
-32768	7880	-12152	273	-5056	-2308	-22144	-9400	-32768	2285	-3770	-1646	-19336	4584	24944	1976	-447	-1967	-8672	3864	16024	29	1363	-601	-19552	4096	-992	775	1460	-1178	-20640	-7416	6112	355	1572	669	7	191	1
-32768	32767	-32768	-2723	-3233	-6	-19232	25576	-32768	-343	-2379	-1107	-11696	-25528	32767	-356	-1559	-162	-7936	3528	17784	72	1975	-706	-20632	3696	152	926	1719	-1344	-21968	-4840	6112	834	1480	375	9	253	1
-32768	26124	-32768	-2229	-399	394	-7944	6424	-32768	-2441	158	739	-13976	-8896	23752	321	247	391	-7400	3960	17616	-173	2686	-761	-21136	6072	-520	680	2054	-1569	-23912	-4216	9640	798	849	-105	38	253	1
-32768	13096	-13444	2107	1770	719	-24808	1728	-31136	-1122	2920	1404	-19984	4904	1568	503	506	125	-11320	5728	18016	18	3535	-1033	-23824	6672	-752	711	2435	-1698	-22808	-5344	22576	125	263	-401	120	253	1
3112	-32596	32767	2503	2356	-373	-12304	-32768	32767	-469	2935	1291	-17568	5872	-3080	-540	576	579	-9984	9648	20192	41	4474	-1576	-29216	13872	2768	1196	2603	-1855	-27248	-2928	23296	-664	-1259	-641	164	253	1
10696	28012	15316	1367	5532	2116	-28296	9256	-3960	1913	5028	503	-18184	-3544	1672	-1618	939	1333	-7456	10088	24328	49	4718	-1671	-32768	21456	3280	1455	2975	-2038	-25016	-7152	19280	-1887	-1457	-958	177	253	1
-32768	-1400	32767	947	3796	2870	-32768	-16968	-2240	-1157	2965	1363	-22664	-13680	13128	1525	463	-312	-20424	13016	20648	55	7370	-4669	-32768	16520	5664	2068	3251	-1629	-22304	-21528	13864	-348	-1294	-828	166	253	1
-25268	-20020	12620	877	3372	1936	-24784	-17416	-6936	-1603	2391	922	-26048	9464	-7560	1565	990	164	-18256	11112	31240	1904	8437	-5012	-32768	15112	8880	3177	2749	-1541	-31040	-1720	-1064	3408	193	-1121	149	45	1
-17336	25092	24220	1545	754	1416	-19280	-6640	-7664	-1225	2290	281	-16216	12840	-14696	-521	541	341	-32768	16512	32767	3544	7537	-5196	-24152	22320	688	4026	1888	-1812	-31560	-1880	-21816	4842	-349	-1395	137	0	1
-16784	-14200	10336	542	509	605	-12888	-11152	-8552	-1407	2180	707	-9728	9264	-11352	-1299	773	654	-20560	32767	32767	2692	4464	-4894	-19824	8416	-13032	2317	2317	-1387	-31176	2128	-17640	3910	-1218	-412	130	0	1
-10644	-5500	14716	125	230	219	-14824	-5280	-3512	-1213	1500	480	-21288	1720	-16232	-1586	1379	631	-32768	32767	32767	-2889	-421	-490	-7864	3080	-9928	85	1015	-128	-32768	9664	-13720	1336	-1608	198	137	0	1
-9928	-4612	13936	39	166	136	-17816	-11832	-2272	-1733	566	479	-17928	-3688	-10872	-1173	1427	807	7416	21048	19232	-2178	-3557	2216	-9576	11816	4912	-841	-423	769	-30088	10784	-18592	-77	-2172	389	130	37	1
-8084	-5152	13344	-37	204	155	-14192	-13888	-1248	-1458	246	330	-15984	-520	-7264	-995	1388	943	12344	3640	9920	-742	-2676	2712	-6560	7360	7504	-1439	-990	883	-21240	1328	-15216	-514	-2598	779	121	66	1
-8504	-5600	12720	-25	225	191	-12288	-11992	-1440	-912	403	319	-17648	-416	-6264	-873	1465	1117	4072	3728	10904	787	-2375	2622	-3016	2648	1072	-1780	-1443	1279	-12600	-704	-13656	-559	-2992	499	135	0	1
-8200	-5212	12768	24	246	181	-13384	-10656	-392	-235	791	213	-17160	-1400	-4032	-617	1573	1303	-7416	10344	18192	704	-3298	2609	-3616	2824	-4240	-1873	-2001	1648	-10224	-728	-12464	-533	-2834	276	136	0	1
-9452	-5100	12612	27	290	106	-15224	-8952	-1640	-138	799	185	-16928	200	-3488	-465	1750	1416	-9232	8120	16376	-77	-4739	2694	-6312	1656	-3648	-2076	-2691	2223	-9344	1448	-12728	-517	-2598	267	145	10	1
-8708	-5124	12108	-67	228	-6	-13776	-9816	-544	-652	379	278	-14904	1240	-2936	-831	1870	1575	-7296	2224	14152	153	-5449	2690	-7304	1600	-3176	-2068	-2833	2287	-9640	5008	-14464	-856	-2556	374	145	44	1
-9012	-5468	12084	-75	137	29	-11992	-10920	-32	-997	-32	351	-14112	-592	-2632	-1086	2006	1674	-8616	3136	13208	837	-5532	2735	-12400	688	-1944	-1379	-4034	2540	-7232	3552	-14728	-1527	-2459	339	142	63	1
-8676	-5488	11980	-63	77	64	-10896	-11800	144	-919	-70	448	-15160	-3176	-1416	-728	2189	1637	-11808	5912	16504	969	-5520	2724	-13904	1800	-4200	-1254	-4523	2821	-5800	3496	-14128	-1947	-2357	181	137	89	1
-8832	-5144	12176	30	72	110	-11392	-10648	184	-595	231	482	-11912	-3752	2896	38	2567	1405	-16560	6912	17448	1016	-5538	2653	-16872	3184	-5144	-1159	-4905	3093	-2696	6072	-14992	-2197	-2078	-9	137	96	1
-8484	-5332	12304	68	99	153	-2144	-6688	-10784	-645	1275	-190	-12032	-1496	4632	61	3092	1174	-18688	7848	18608	1194	-5289	2493	-20472	5736	-6152	-1334	-5021	3336	-1248	4728	-14664	-2223	-1653	-98	136	103	1
-8420	-4852	11960	74	125	275	-12784	-10760	3912	-880	259	547	-15560	-2312	696	-1082	2582	1272	-22120	9088	22216	1710	-4681	2224	-24872	4472	-7952	-1502	-5181	3728	-1608	968	-12712	-1545	-1131	-238	138	105	1
-8428	-5208	12292	121	159	305	-11216	-10008	1856	-659	877	674	-19888	-4296	-8384	-460	1873	1117	-32768	14416	30768	2424	-4544	2542	-32768	2624	-12624	-1686	-4959	4104	-5112	-5240	-5552	-826	-1167	-456	128	103	1
-6020	-4000	11452	169	196	407	-12336	-11424	528	-736	862	675	-18576	-4800	-2008	-86	1622	876	-32768	13288	28824	2153	-4785	3427	-32768	1320	-14848	-1549	-4988	4041	-15296	-5936	-2280	-597	-1586	-591	129	102	1
-9200	-4196	13936	108	368	501	-16160	-10888	656	-892	777	721	-18512	-2080	16	-455	1511	953	-32768	3704	20824	1736	-4587	3939	-28752	2872	-17088	-1500	-4586	3534	-27424	-4296	848	-365	-1841	-160	128	95	1
-8708	-6436	13260	166	617	623	-13256	-12616	2072	-1385	673	818	-20816	-5104	5800	-994	1414	918	-32768	2496	19416	1626	-4541	3914	-31200	560	-22584	-2056	-3303	2942	-18920	-13984	10248	565	-2282	-84	125	103	1
-8252	-4876	15208	162	826	789	-13576	-10568	3280	-1586	1067	1018	-21592	-5544	7152	-973	1156	616	-32768	-22520	-16888	334	-2726	2212	-21000	-17960	-32768	-2078	-1748	2223	-1328	-11808	32767	-1397	-1478	623	119	119	1
