#Activity	walking 
#ActivityID	1 
#Date 09-23-16-55
acc_rf_x	acc_rf_y	acc_rf_z	gyro_rf_x	gyro_rf_y	gyro_rf_z	acc_rs_x	acc_rs_y	acc_rs_z	gyro_rs_x	gyro_rs_y	gyro_rs_z	acc_rt_x	acc_rt_y	acc_rt_z	gyro_rt_x	gyro_rt_y	gyro_rt_z	acc_lf_x	acc_lf_y	acc_lf_z	gyro_lf_x	gyro_lf_y	gyro_lf_z	acc_ls_x	acc_ls_y	acc_ls_z	gyro_ls_x	gyro_ls_y	gyro_ls_z	acc_lt_x	acc_lt_y	acc_lt_z	gyro_lt_x	gyro_lt_y	gyro_lt_z	EMG_r	EMG_l	act
-10856	-6092	10524	135	163	336	-17856	-4000	-5256	-1127	721	-485	-14224	-2024	-7344	-619	1780	-412	5672	984	6064	-879	-5369	1446	-6608	1824	144	674	-2100	440	-15376	-592	-13408	40	-2286	1279	135	131	1
-10808	-5044	11036	82	245	151	-17768	-4312	-5656	-472	649	-382	-16816	-904	-8856	-487	1823	-264	-648	3384	7680	-49	-4979	1630	-4624	2992	-2176	466	-2787	619	-12752	-3232	-11880	323	-2325	1173	132	130	1
-9504	-4880	11152	-107	291	100	-17168	-1824	-4440	274	296	-118	-15328	1632	-7544	-288	1622	-123	-10384	6752	10032	-20	-5165	1701	-3480	3464	-4720	-549	-3444	776	-9352	-2512	-12600	571	-2210	1323	127	132	1
-10308	-5400	10888	-246	332	95	-17272	3144	-4016	-18	194	2	-14392	2944	-6296	-446	1720	-159	-10360	6720	10096	-521	-5810	1810	-2904	1648	-4640	-1682	-4173	719	-6968	-1440	-13256	229	-1695	1159	125	130	1
-10172	-5176	9948	-366	260	8	-17600	3288	-7968	-942	-121	-222	-12056	1680	-5080	-1053	2201	-403	-8376	2944	9648	-709	-5861	1996	-5328	-2432	-3440	-1602	-4860	418	-5376	-928	-13752	-91	-1512	1192	122	127	1
-10368	-6360	10168	-185	236	132	-14928	-2872	-3648	-1240	503	-274	-13000	464	-4520	-1089	2397	-312	-13712	488	13584	-418	-5897	2288	-10744	-3904	-5024	-1060	-5429	19	-5104	-1112	-12920	-536	-1343	1233	120	127	1
-10468	-5964	10092	-88	166	171	-16360	-5568	-1680	-392	479	-387	-14168	-2208	-504	-783	2451	-322	-21920	1280	17088	-172	-6201	2548	-16280	-5632	-7872	-829	-5794	-349	-5368	-2384	-12264	-1122	-1015	988	117	125	1
-10440	-6884	9764	53	-5	241	-15224	-3728	-568	-79	602	-282	-15800	-3736	376	-483	2129	-362	-27448	384	18824	-199	-6380	2481	-19392	-8296	-7776	-192	-6112	-450	-4408	-3832	-11712	-1333	-730	666	115	125	1
-10532	-6572	10000	206	-169	365	-14904	-3504	-256	-66	717	-222	-15032	-1416	808	-38	1334	-479	-29576	2344	19184	-309	-6344	2301	-21976	-5032	-9344	849	-6037	-367	-2376	-2928	-11104	-907	-215	468	119	124	1
-9988	-6564	10296	289	-214	417	-13744	-2304	-144	157	931	-167	-17648	-1056	-4536	105	1320	-403	-31848	7960	21216	-783	-5973	2173	-26872	-1416	-11416	545	-6347	-366	-3704	-2008	-6072	-811	6	618	120	121	1
-10928	-5540	10628	321	-170	471	-14680	-1232	-3488	459	1019	-83	-19672	-920	-8408	-391	1469	68	-32768	7728	21704	-1402	-5459	2440	-32024	-2584	-10976	-751	-6331	-566	-10688	4776	4560	-1252	-752	689	124	124	1
-10580	-4360	10600	184	-28	423	-18848	1456	-3152	24	1089	-231	-15816	96	-4904	-407	1616	54	-32768	7048	14640	-1843	-5115	2607	-30352	-592	-12624	-1199	-5727	-781	-18000	11424	6120	-1953	-1470	799	118	121	1
-10492	-5216	10996	25	183	378	-19216	-984	-848	-210	1241	-422	-16760	1168	-408	-352	1846	-190	-32768	5632	824	-2250	-4662	2372	-26112	4848	-20800	-2749	-4639	-844	-31000	9896	4400	-3984	-1856	1226	115	121	1
-10348	-5320	11552	-37	381	406	-15840	-1592	-440	288	1414	-377	-18376	4864	800	-222	1673	-416	-32768	6936	-20856	-2254	-3281	2361	-16912	-176	-27968	-4668	-3778	-818	-31264	-488	864	-4559	-2262	1135	117	114	1
-10132	-4616	12568	-17	850	423	-18136	3032	-2384	385	1607	-319	-20656	7512	-7128	-220	1352	-422	-32768	-6960	-28728	-1473	-1239	1975	-7904	-5392	-23808	-3606	-2158	-695	-10960	-15952	28936	-1981	-846	-1227	118	114	1
-10872	-2964	12896	-76	1350	300	-19336	2416	-4696	217	1854	-391	-18880	2384	-5576	-387	913	-266	-32768	-1392	-32768	-782	2	1837	-8256	3584	-27368	-599	257	-69	-11248	-8256	25952	-475	796	-951	120	124	1
-11780	-4372	12160	-138	2015	136	-19312	2208	-4768	182	1895	-405	-18224	-5432	-2752	-514	862	-188	-32768	-10664	-30608	-110	1355	861	-8488	10648	-19216	43	2118	418	-19408	-2152	14672	31	1261	-264	118	121	1
-11132	-6400	12552	-147	2760	216	-21408	-2656	-2800	303	2225	-401	-21536	-4712	-1800	-214	352	99	-3744	8280	27560	-223	1225	-462	-25240	-6144	25000	1500	2306	323	-17448	-1896	4104	567	3475	398	114	112	1
-13516	-8596	11932	-403	3488	454	-21400	-1624	-200	-75	2427	-469	-24928	-4520	2648	79	-267	253	-1560	-232	13944	2843	2730	-2117	-32768	-5992	8984	-736	1599	1272	-21824	-3720	-4104	2158	3084	947	112	113	1
-13292	-8744	11632	-1237	4407	674	-26184	-1936	-608	-396	2662	-482	-28440	-1656	6416	558	-1033	320	-32768	72	9496	1598	3712	-686	-4592	-8040	-19480	-586	2258	892	-25512	17592	544	1330	-265	468	108	101	1
-13192	-11936	12016	-2316	5191	821	-29536	7296	1648	-1087	2863	-885	-31088	8568	11472	338	-2030	445	-17344	8904	21760	879	2606	-73	-16416	-2240	-848	1289	2459	227	-10616	7896	-1808	-978	-487	-67	111	107	1
-14724	-15436	13448	-2425	6272	1586	-32768	10272	3360	-2462	2861	-1475	-32768	19592	12424	1536	-3511	1118	-13904	18032	8968	214	3211	-349	-24592	10456	-6840	400	2450	927	-7960	-6888	-3272	-839	629	-240	118	111	1
-16020	-14412	12264	-2259	7750	3105	-31344	2960	6592	-2120	2385	-1794	-8360	23248	-4728	-430	-1979	1638	-29384	10856	21056	-817	1966	-1171	-17304	5600	-10744	-996	1839	586	-11816	-5120	-4008	-574	836	-82	111	109	1
-32736	-3936	17960	-3585	6119	3693	-16552	-9848	-1384	-3223	3378	-1427	-12416	-832	-5608	-3692	-382	103	-13216	4560	15960	-278	-61	-720	-18272	-240	-8088	-1502	1585	472	-12136	5056	-11448	86	1009	-173	116	117	1
-32768	-5468	17260	-3247	2540	3240	-26064	-12576	-18600	-2550	3515	-991	-13976	-4352	-8160	-3818	-98	-47	-16704	1944	15856	128	252	-395	-17200	-4088	-7168	-1632	1353	386	-15392	88	-10528	-221	1337	-54	123	122	1
-22372	-26828	32767	-982	896	2232	-26520	-7000	-14872	-1373	3144	-644	-32768	-5200	-17936	-2513	-2055	-1154	-10720	4240	13512	236	13	-298	-18000	-4816	-5416	-340	1195	324	-17504	-1000	-8616	237	1461	130	127	112	1
-5684	-29212	30312	-1160	-1890	1719	-20960	-4464	-672	-391	1134	-441	-23928	13360	-18144	-726	-2269	-219	-10280	3872	13392	144	87	105	-16360	-1848	-4952	786	1074	371	-15704	4848	-7616	365	1347	117	117	110	1
5344	-19196	17216	-473	-2063	1629	-20056	-5448	584	-422	923	-474	-21376	728	-16008	-637	-2383	-353	-10272	4440	13240	109	145	70	-18200	1032	-4352	1362	968	339	-14976	4168	-6224	304	1384	-83	121	115	1
6932	-15616	13828	-860	-2267	558	-6320	1984	1680	-581	-856	-309	-19576	-720	-14816	-567	-2055	-300	-9632	4344	13072	129	176	-20	-17368	2488	-3488	1107	748	305	-16280	3000	-6104	427	1554	-292	119	115	1
7684	-16480	11468	-939	-2331	-578	-5680	768	-1016	-1012	-1694	-578	-13432	3032	-14880	-393	-1962	-342	-9696	4032	13352	106	205	-42	-16712	1768	-3136	268	513	281	-15496	1688	-3728	470	1521	-290	122	115	1
3432	-14776	10980	-466	-2422	-1512	-7280	-1624	-2536	-812	-2478	-543	-11272	3184	-14264	-371	-2002	-408	-9816	4000	13176	92	256	5	-16608	-104	-1928	-371	394	183	-14848	2680	-3944	633	1653	-234	122	119	1
-940	-11076	11776	-47	-2674	-2452	-6752	-3000	-2984	-252	-3047	-386	-10552	504	-14432	-400	-1838	-376	-10056	4904	12920	97	295	61	-16320	488	-2208	-366	503	37	-14640	4064	-3160	750	1614	-245	129	117	1
-5936	-8412	13056	298	-3128	-3012	-7392	-3152	-4800	424	-3611	-229	-8992	-328	-14408	-297	-1853	-503	-9192	4784	12840	116	245	-7	-15920	192	-832	-54	605	14	-15576	3536	-4248	794	1623	-350	124	117	1
-11024	-5688	15612	403	-3772	-3191	-9752	-2392	-5712	1132	-4238	-107	-6584	-1952	-13600	-102	-1885	-630	-10072	5120	12760	146	150	-106	-15304	-472	-2064	530	723	51	-14928	1472	-3736	903	1494	-377	123	119	1
-14340	-3980	17288	354	-4538	-3210	-10056	-2312	-6424	1202	-4317	-84	-5320	-3688	-12584	272	-1836	-687	-9976	4880	12576	132	130	-120	-15264	-712	-3048	953	714	101	-13120	2176	-3240	1111	1623	-243	125	119	1
-15756	-2692	16864	250	-4897	-3049	-15096	264	-7624	1921	-5266	577	-4928	-4472	-12040	785	-1673	-583	-10128	4264	12304	23	-6	-173	-15968	1296	-2080	793	637	107	-12912	3376	-2936	1083	1759	-220	124	121	1
-19508	-3776	18004	134	-4860	-2960	-18640	3264	-9352	1757	-5534	1149	-5168	-3968	-11344	1734	-1510	-459	-10104	4376	12272	-35	0	-150	-15584	1216	-1944	315	559	81	-14256	3072	-1640	793	1800	-287	130	126	1
-22076	-5128	17844	191	-4574	-2811	-19992	4368	-9000	1093	-5633	1487	-4984	-1520	-9504	2254	-1375	-461	-9536	4120	12664	-28	72	-100	-15640	776	-1176	233	551	72	-14000	2448	1112	661	1966	-403	133	128	1
-25652	-7880	20792	285	-4290	-2761	-20896	3272	-9216	540	-5657	1656	-4472	712	-7088	1910	-1175	-295	-9296	4704	12808	-13	97	-124	-16528	-896	-1088	-63	765	14	-15584	1784	1048	588	2301	-194	135	131	1
-27528	-12364	21616	274	-4129	-2970	-27520	2304	-9336	208	-5635	1658	-5016	1792	-3808	1421	-1200	-237	-9848	3720	12488	-39	98	-157	-15168	-1344	-1144	156	906	108	-14640	1856	-296	403	2122	53	130	127	1
-29692	-18568	17812	348	-3791	-3281	-30528	-224	-10552	-16	-5557	1321	-8264	5800	-80	1074	-1344	185	-9480	4344	12576	-113	69	-223	-14232	888	-88	121	1079	176	-15720	3760	-6176	533	1440	-257	130	129	1
-32768	-18412	13392	682	-3577	-3516	-23648	-7528	-11904	0	-5252	692	-13128	6144	976	606	-1186	658	-9896	4368	12904	-151	44	-292	-13864	1352	-1392	-309	1088	134	-18560	5192	-7408	425	803	-653	125	128	1
-32768	-11084	5964	522	-3768	-3614	-21240	-8840	-14344	1157	-4667	770	-32768	6544	11288	1194	-2006	903	-10520	4648	12352	-135	84	-260	-15984	-208	-3912	-645	1275	81	-16320	2784	-3224	91	1028	-344	122	125	1
-32768	496	-6184	-110	-3322	-3032	-28144	-2248	-27752	243	-4590	544	-23768	6424	9576	2082	-1430	524	-9776	3912	12640	-83	250	-240	-18008	-1416	-2584	-748	1352	96	-15944	-1832	-2088	290	1369	1	113	123	1
-32768	7796	-14824	-379	-2412	-2216	-13776	-392	-14120	1608	-2363	1081	-21872	13792	11648	1124	-1039	680	-9816	3320	13408	90	599	-196	-16376	-2664	-1816	-621	1532	93	-17288	-2296	-1416	599	1329	-81	93	125	1
-32768	9260	-26876	-50	-1188	-1091	-4560	2584	-16520	109	-1199	113	-13632	12008	21904	405	-880	201	-10144	2576	13848	257	930	-130	-16928	-2808	-2872	-382	1699	38	-17648	-1648	-2048	626	1281	-116	101	123	1
-32768	14476	-29508	-602	77	-130	-4112	-6064	-17416	-894	679	-635	-15592	7336	15960	133	151	212	-9752	3904	14120	391	1398	-68	-19728	-24	-2704	-302	1950	39	-20520	8128	-5304	581	908	-239	119	128	1
-32768	13080	-28888	-649	273	-73	-8528	-8384	-14896	-366	2062	-923	-17872	6800	9520	54	1216	-228	-9448	4432	14696	381	1479	-34	-20184	456	-4352	-513	2064	31	-19136	7648	-5984	352	591	-327	131	127	1
-28964	-13452	-15044	1683	3404	1510	-20560	-5456	-8952	989	2887	-1143	-15360	3896	-1864	-105	1907	-658	-10888	4440	13416	687	2823	-125	-21416	-1952	-4320	-592	2220	82	-20520	4768	-2184	288	192	-559	129	129	1
20504	-15744	32767	903	4276	594	-32768	10880	32767	3051	1913	-103	-14176	-1536	-8504	132	2259	-1459	-10856	3960	15232	1213	3639	-192	-22512	-2160	-2000	-411	2446	66	-23312	3672	1960	245	-256	-626	135	124	1
-19148	22152	27308	412	4129	2445	-25992	11304	-11896	4461	2070	-853	-29880	-1208	10680	-249	326	-591	-15824	8840	16856	1603	4578	41	-27440	-2368	-208	-284	2727	105	-29360	2424	7568	59	-901	-519	139	127	1
-32768	7052	6612	-245	3840	2082	1080	-11776	-29728	163	3347	-845	-22520	-1592	-3512	1971	1	-675	-10528	7848	14864	1479	5837	-125	-29616	-4624	3872	-10	2852	358	-32768	2192	18648	21	-2340	-612	130	126	1
-20868	-21964	12084	-994	2521	1497	-28808	-3056	-14768	-1989	2211	-1587	-8816	6704	-3120	2031	-127	257	-11352	17184	17344	2176	7292	-603	-32768	-7520	8280	535	2990	708	-32768	-1808	22840	-1619	-3341	-935	109	116	1
-32768	-27204	11024	113	839	1192	-15544	-23248	-11240	-1178	2441	-1450	-8504	14888	-6008	1120	1064	-235	-16272	14880	16232	2418	9077	-1797	-32768	-6840	13176	1701	2955	916	-11464	-10136	1792	656	-2048	-1010	110	118	1
-16936	28	15744	454	3	1443	-15048	-7368	-11024	3178	1869	-590	-9416	-5528	-12808	-1557	810	-740	-32768	10176	10920	3247	9630	-2302	-24472	3952	-1192	2355	3056	809	-20640	7232	-32	2671	-1295	-264	125	121	1
-12640	-13224	7636	648	-321	1127	-17512	1096	-4880	1040	1705	-696	-11728	-11472	-15704	-1994	1139	-264	-32768	17544	9776	2313	7390	-4515	-24488	6736	-8376	2626	3280	431	-27408	11224	-22352	3185	-430	676	125	120	1
-13480	-332	13616	620	-298	865	-16264	-1824	-8584	-142	1294	-682	-13648	-8776	-11440	-224	1101	-609	-29640	18360	19744	2313	4168	-5177	-26912	7896	-13136	1506	2835	554	-31592	10768	-12536	211	-1653	962	126	125	1
-10700	-4648	11176	370	-177	476	-19976	-720	-6384	-1267	1179	-582	-18616	-1360	-11360	454	1308	-1082	-18288	13248	27584	3939	4031	-1309	-18552	832	-7736	-13	2120	64	-29696	-2560	-12416	-1076	-2307	924	132	134	1
-9948	-4944	11712	40	-17	221	-17856	-3464	-5696	-835	910	-580	-18424	-1280	-8296	215	1319	-434	-32768	32767	32767	1297	522	-714	-9272	7912	-20840	-662	951	-89	-22648	-3624	-10784	-1610	-2726	723	124	133	1
-10592	-5180	11376	-3	155	124	-18048	-4328	-6560	-59	717	-352	-12888	1560	-6992	330	1237	-168	-12304	26752	29424	-1442	-3754	319	-6824	416	-1520	84	-458	-245	-23584	-2800	-12664	-894	-2940	648	136	135	1
-10468	-4908	11620	37	275	10	-17776	-4808	-5640	925	682	-311	-12328	1192	-7144	-262	1592	-108	-3608	7928	13288	-2452	-4707	512	-9088	776	2536	989	-826	103	-22104	912	-15000	-289	-2506	878	145	141	1
-10236	-6100	11256	95	336	-43	-16216	-1656	-3128	813	564	-86	-16248	-2416	-7344	-473	1991	-310	-48	1368	8912	-1677	-5035	715	-6328	2840	-1080	1064	-1964	303	-17064	-1872	-14048	-211	-2291	1115	143	141	1
-10152	-6092	10524	31	294	-28	-15952	848	-2240	-355	467	-59	-16840	-3976	-7600	-411	1922	-446	-3136	1752	8880	-231	-5278	1145	-4224	4440	-3928	802	-2787	358	-14112	-1992	-14136	5	-2282	1139	141	135	1
-9816	-6072	10672	-49	218	55	-15872	-1440	-3536	-1171	415	-408	-13712	-1128	-6416	-436	1764	-462	-9416	8248	9312	189	-5588	1378	-4848	4256	-4688	-242	-3458	492	-11408	-3568	-14368	67	-2293	1256	135	131	1
-9708	-5464	11136	-73	208	116	-16296	-3304	-3888	-1040	303	-323	-12464	2424	-5368	-829	2020	-331	-9480	9952	9840	-604	-6079	1389	-3880	2424	-4624	-1405	-4302	514	-6144	-3416	-11472	40	-1842	1110	127	125	1
-10300	-5384	10724	-100	203	120	-16288	-2192	4576	-164	-21	-13	-10304	1080	-5480	-1236	1911	163	-10512	5592	9640	-954	-6184	1608	-5880	-2064	-4192	-1699	-4950	375	-5688	-2728	-15440	-164	-1804	1165	122	123	1
-10148	-4236	10852	-118	217	89	-15536	-456	-144	-914	953	-166	-13624	-1352	-5080	-624	2319	-370	-13248	4120	11768	-564	-6290	2161	-9176	-3656	-4672	-1341	-5619	26	-3432	-2368	-16000	-379	-1537	1187	120	124	1
-10248	-5552	10392	-133	222	64	-16712	-3144	-1136	-545	261	-190	-15488	-1752	-1376	-353	1818	-538	-20760	4864	16920	-322	-6495	2552	-13920	-3480	-7080	-513	-6013	-262	-2584	-2960	-15456	-666	-1084	1058	121	127	1
-10248	-5616	10272	-101	151	104	-15088	-2616	1016	-512	333	-232	-16832	-5096	-240	-236	867	-334	-23576	680	17896	26	-6806	2770	-19304	-3632	-7088	-157	-6472	-398	-568	-3936	-16832	-931	-518	719	119	125	1
-10392	-5632	10192	-80	97	150	-14832	-2640	368	-464	479	-196	-20496	-4528	-2280	-524	392	-25	-30112	2368	18120	421	-6384	2659	-23768	-816	-10136	75	-6599	-324	-136	-2568	-13904	-1156	8	659	120	122	1
-10712	-4628	10372	-63	79	188	-15232	-1200	-1848	-466	659	-152	-17232	960	-2392	-724	841	-29	-32768	7864	25256	205	-5898	2175	-31224	-1824	-12096	5	-6753	-626	-3456	1480	-6032	-1265	-155	1009	118	124	1
-10460	-5192	10832	-26	120	171	-16464	-456	-976	-528	799	-158	-14344	3592	-2096	-775	1701	-94	-32768	8760	25584	123	-5849	2096	-32768	-3328	-17816	-484	-6540	-677	-10352	4176	-8	-1739	-743	912	121	125	1
-10448	-5516	10556	-27	160	233	-16232	-1952	-184	-578	948	-272	-16288	2544	-1416	-555	1996	-121	-32768	13736	16912	-1584	-5809	2753	-32768	496	-20328	-1253	-6164	-756	-13384	7016	5104	-2088	-1345	706	121	123	1
-10168	-4836	11108	-23	282	234	-15280	408	792	-330	1175	-300	-20176	-480	512	-466	1780	-257	-32768	12920	-864	-1934	-4937	3175	-25280	3552	-20408	-1441	-5311	-1032	-31904	6864	15064	-2924	-2528	840	121	122	1
-10176	-3520	11644	-85	519	161	-17384	2232	-2384	-151	1425	-292	-18552	3784	256	-511	1610	-380	-32768	-9624	-26176	-796	-3421	2296	-16528	-1128	-24016	-1958	-4005	-354	-31728	-3880	12576	-2721	-1864	160	118	115	1
-10740	-4660	12040	-280	879	-8	-19640	4248	-520	-436	1712	-355	-18888	8680	-3312	-709	1365	-337	-32768	-2936	-32768	959	-1864	2105	-3592	5544	-23616	-286	-1673	175	-3736	-15472	32767	-356	-1243	-30	111	111	1
-10476	-5268	12540	-299	1366	-17	-18056	-1848	-1808	-258	1887	-435	-17096	1376	-3976	-607	1089	-141	-32768	-4520	-32768	-510	-161	745	-3792	4480	-20656	248	521	459	-9632	-1984	29000	406	-230	8	110	111	1
-11312	-6032	12192	-316	1986	-4	-19528	-4352	-3072	385	2105	-313	-21672	-4544	-3832	-407	985	-154	-32768	-2928	-23832	-176	1278	206	-8816	5048	-22040	415	2279	607	-19440	13928	11008	1231	1163	748	114	114	1
-10684	-8168	11784	-338	2699	198	-20824	-2784	-2464	552	2268	-404	-21368	-3688	-3216	-73	428	142	-18656	20288	3144	-1984	1082	983	-16560	1280	-9040	-131	3022	741	-18624	40	-3504	831	2986	434	111	114	1
-13584	-9104	10420	-655	3400	552	-20832	-1112	-2088	215	2339	-552	-20968	-2128	-1648	137	-97	417	32767	-9328	32767	-406	3468	-33	-32768	-20864	32767	1055	1503	-761	-1024	1128	-11768	910	3540	538	119	115	1
-13280	-7784	12648	-1229	4132	903	-23408	-1880	-832	-405	2512	-655	-24272	-1160	3440	-3	-569	460	-9400	-32768	6280	1896	3359	-2733	-20416	-4248	-2296	-1873	1496	858	-32768	11632	-4072	1157	1524	-239	113	114	1
-12664	-10996	10880	-1724	4913	1113	-28360	-528	-1656	-647	2649	-747	-28328	5432	10624	155	-1489	279	-32768	8160	16400	947	3156	-783	-5592	-20920	-21072	-1738	1508	-211	-25768	16696	3712	-1999	-1012	369	105	102	1
-14496	-12196	11216	-2187	5797	1848	-32768	6416	4744	-1407	2664	-1298	-32768	14992	19024	1756	-3504	764	-14288	30376	12952	372	3001	-65	-32416	8776	-3328	1688	2295	94	-7544	-8344	2560	-1913	675	-1135	109	104	1
-11244	-14764	14448	-2531	7462	2691	-32768	16208	-23976	-2426	2387	-1727	-18616	24608	-4392	1696	-2223	2043	-21632	4640	17992	-607	3050	-691	-15416	8504	-4352	-430	2224	786	-16760	-3872	-7256	-187	1279	-56	114	119	1
-18484	-5872	10476	-3528	9247	3318	-22000	4480	3576	-3503	2807	-1555	-15616	13624	-1200	-3367	-1288	1034	-24832	8824	17064	-526	739	-1090	-17128	2472	-8832	-781	1821	471	-13784	8168	-12560	217	1011	370	123	117	1
-32768	-5952	9956	-3396	7663	3280	-17256	-4616	-8920	-4182	2626	-1053	-24152	-8176	-17416	-4913	-15	134	-11792	5456	16800	-752	-78	-1176	-17016	4496	-8064	-1424	1490	378	-9728	3688	-9800	142	987	-398	130	134	1
-32768	-17152	6488	-4223	4031	2877	-25344	-8328	-9696	-3578	2768	-677	-32768	-13040	-16696	-5388	-726	-528	-14456	1840	16480	-391	148	-705	-16904	-4176	-7672	-2595	1044	236	-16448	2464	-7608	-70	1473	59	127	123	1
-27040	-29220	22204	-3928	2943	2121	-20504	-6896	-18192	-3236	2329	-339	-28864	2192	-16480	-2603	-1606	-1469	-12128	3032	14472	-319	61	-256	-19336	-6816	-4544	-1534	1062	148	-18688	384	-7896	-134	1389	182	130	120	1
-32768	-25884	27136	-1028	372	918	-14528	-4000	-16832	-1344	1037	-376	-21880	1440	-16992	-555	-2245	-699	-9416	3304	14104	-152	344	-65	-16176	-2336	-3648	163	1081	225	-14856	2448	-6736	276	1293	-9	123	115	1
-7856	-29280	23188	593	-4361	-1158	-2856	-11680	1856	-814	-420	-19	-18672	1736	-14000	257	-2257	-204	-9464	4024	13640	-53	62	-90	-16424	-368	-3896	1275	971	295	-13880	3216	-6352	533	1469	-4	125	121	1
2084	-12948	9752	1831	-4847	-634	-7144	-5136	4024	-63	-1429	45	-19088	352	-15664	281	-1947	-247	-9448	3920	13480	18	-350	-177	-17584	184	-4128	2006	848	441	-14672	3528	-6016	684	1635	-133	125	119	1
-204	-5576	6804	1282	-5079	-737	-7352	-4672	-3960	1183	-2000	-391	-14848	72	-16240	68	-2062	-524	-8584	3456	13504	124	12	-181	-17856	968	-2688	1620	651	389	-15256	2968	-4960	643	1616	-263	124	124	1
-1464	-6608	5340	475	-5325	-1510	-5520	-1088	-3952	1706	-2706	-354	-9600	1248	-13896	56	-2225	-415	-9120	4208	13248	24	67	-168	-16688	1696	-2800	601	384	279	-14920	2872	-4328	639	1619	-414	132	127	1
-2280	-8648	4888	203	-5182	-1964	-6528	352	-1888	1587	-3380	-207	-8264	712	-13400	254	-2060	-361	-9368	4280	13344	-104	139	-64	-16232	2504	-1576	-315	283	57	-15152	2160	-4200	705	1697	-453	131	128	1
-6584	-10196	6796	431	-4948	-2339	-6848	-408	-4136	1473	-3935	112	-7208	-880	-13296	411	-1963	-425	-9776	3472	13328	-75	124	-31	-16128	-120	-2032	-812	343	-79	-15928	1016	-3136	773	1654	-350	128	127	1
-10620	-9436	9564	738	-4961	-2907	-7408	-264	-4696	1196	-4462	211	-5528	-2408	-12416	655	-1920	-499	-9368	3552	13232	27	94	-11	-15800	-2264	-1008	-338	574	-71	-14512	1680	-3424	989	1664	-248	130	123	1
-13008	-7720	11772	842	-5000	-3412	-12816	-112	-5144	1314	-4864	536	-3888	-2736	-12256	891	-1837	-473	-8944	3704	13152	75	65	-7	-15416	-2816	-888	521	735	-5	-14456	1664	-2320	1254	1730	-215	127	122	1
-15192	-8628	14080	949	-4881	-3639	-16912	-1472	-5648	1802	-5215	831	-3248	-2992	-11976	1449	-1518	-331	-9440	3824	13208	121	54	-27	-16000	-528	-904	1283	858	88	-14496	2216	-1248	1458	1755	-259	127	125	1
-21412	-8936	17908	1050	-4859	-3643	-20456	1256	-8600	1980	-5504	1260	-3184	-3056	-11712	2146	-1056	-218	-9320	3728	12928	91	15	-59	-16024	-144	-744	1330	858	104	-12848	2560	352	1522	1929	-260	126	130	1
-25748	-8720	20024	944	-4966	-3633	-22048	2688	-8552	1459	-5776	1536	-3728	-1512	-10168	2164	-607	-353	-8760	4056	13184	85	-28	-87	-15920	2208	1184	751	810	170	-12888	2632	1272	1429	2353	-206	125	127	1
-28320	-12564	20452	923	-4767	-3471	-25840	1600	-8096	920	-5911	1693	-4520	528	-8096	1939	-460	-284	-8848	4184	13136	61	-4	-131	-15752	2328	-568	-253	811	81	-14656	3016	336	808	2310	46	130	130	1
-32768	-19168	21552	1269	-4421	-3256	-32696	-1504	-10656	687	-5984	1522	-7704	5144	-1072	1842	-956	-9	-9392	3664	12816	52	52	-108	-14480	-768	-1056	-676	1039	31	-15608	2152	-6832	112	1558	49	134	127	1
-32768	-15168	14424	1364	-4130	-3509	-27440	-2336	-11504	1405	-5752	1214	-12336	3088	1064	1485	-1169	527	-9320	3592	12608	45	114	-94	-15296	-448	-1688	-728	1113	23	-19640	4624	-9752	529	715	-407	128	126	1
-32768	-11256	8004	576	-3730	-3940	-25024	-5920	-12864	1454	-4944	1369	-26304	6336	11600	1620	-2164	930	-9480	3704	13048	45	141	-99	-14640	-1312	-1088	-391	1270	75	-19128	8184	-2944	352	656	-513	122	125	1
-32768	-8920	-2236	644	-3624	-3402	-28968	-5912	-31848	131	-2974	820	-24992	10424	9952	3039	-2071	1109	-9072	4616	13384	90	260	-145	-17048	1080	-616	-211	1489	122	-17120	1608	1032	166	894	-246	119	125	1
-32768	9792	-17924	49	-2841	-1911	-12656	136	-17552	1704	-3078	1168	-26104	18336	864	1795	-1065	366	-8808	4032	13824	129	486	-204	-16248	-128	-184	-468	1514	165	-17040	-4176	2112	569	1372	-3	87	123	1
-32768	6748	-26664	-558	-1755	-1559	736	-13792	-19776	-131	-1445	623	-8840	14448	24584	324	-1962	688	-9416	3816	13992	208	783	-226	-16320	-1544	-2296	-566	1777	150	-19760	1976	-1768	558	1111	-69	97	120	1
-32768	10932	-32768	-47	-160	-197	-6856	-7680	-16816	-241	306	-580	-10016	7320	19856	217	-75	559	-9728	4024	14640	251	1194	-167	-19160	-768	-2816	-412	2123	81	-20200	9160	-4056	524	769	-160	111	122	1
-32768	7704	-26200	149	1201	384	-6200	-7200	-20184	240	1965	-725	-16888	4752	9656	297	1076	39	-8000	6456	15504	355	1772	-156	-21512	-272	-3792	-412	2308	71	-20712	6520	-4480	641	453	-190	127	128	1
-24376	-112	-9088	981	2564	716	-16608	-7416	-12056	673	3058	-1030	-16168	4096	-1952	-49	2049	-705	-10456	4344	13648	439	2701	-274	-21728	-1056	-5024	-560	2468	138	-20328	3984	-2024	438	-34	-405	129	130	1
17972	-992	32767	816	3034	1001	-32768	8152	32767	2328	1781	-174	-15976	256	-5128	11	2450	-1499	-11112	3928	15704	838	3584	-390	-21872	-1256	-3392	-453	2659	162	-21072	4240	368	288	-330	-533	142	137	1
-11104	15720	22908	-1161	3152	3288	-29360	16744	-3488	3735	1481	-740	-25640	6040	3304	-230	964	-742	-14656	8224	16136	1065	4506	-454	-26400	-280	-1968	-305	2864	202	-26240	3464	5280	105	-798	-463	142	133	1
-29780	2276	3700	-1393	3042	2035	-4120	13208	-15752	-440	2576	-649	-24440	344	3072	222	-198	-709	-12544	7792	17368	1118	4582	-442	-28336	-1160	2056	-166	2919	513	-30568	3472	17360	-177	-2336	-569	140	134	1
-28676	92	1672	-973	3215	1831	-24696	7272	-912	-2229	2122	-1076	-23032	2872	-10848	784	-296	-64	-13696	15864	18208	936	7162	-1272	-32768	-5752	6856	355	3018	894	-32768	-1480	20456	-1773	-3024	-860	122	121	1
-32768	-32540	26620	457	1907	1524	-20136	-17768	-23792	-5033	2679	-2250	-7648	15264	3976	1173	702	-859	-10464	6960	16192	1485	9217	-2196	-32768	-9208	12768	1291	2929	1297	-16856	-14744	9024	237	-2535	-867	102	114	1
-9936	100	18584	1114	667	1273	-15200	-8800	-13976	790	2279	-1119	-13456	-3080	-18592	-1235	1224	-1142	-29816	11856	19064	3202	10158	-2537	-25336	-2376	-2760	2360	2908	1056	-23160	4456	664	2591	-1415	-352	124	120	1
-17384	-13060	10476	807	-101	985	-18152	-6840	-9056	1807	1892	-405	-11040	-8736	-13160	-2173	1091	-150	-32768	7784	9432	2983	8535	-3807	-21136	5520	-7720	3580	3194	585	-25248	9288	-26392	3742	-118	611	128	121	1
-10444	-2648	13340	841	-147	652	-14184	-4640	-8336	1896	1417	-334	-13224	-12864	-11520	-88	971	-295	-32768	17152	12352	2709	4513	-4782	-26048	4880	-13920	2569	3009	698	-30640	10552	-12992	1022	-1401	866	126	126	1
-10336	-7056	11108	450	-56	452	-19376	1080	-4032	851	1045	-237	-14136	-4384	-9800	1158	1125	-571	-31432	16288	16504	3046	4415	-4707	-20992	3400	-6472	1434	1879	225	-30856	-5096	-11536	-476	-2217	890	131	135	1
-10696	-6012	11388	272	-18	373	-18288	-2720	-5720	-172	913	-402	-20176	-1528	-9624	972	1444	-505	-32768	32767	24768	876	1423	-1070	-7696	6848	-18448	496	972	259	-22224	-6288	-11896	-885	-2641	833	139	135	1
-10072	-6244	11568	135	66	313	-18248	1896	-3568	-550	717	-419	-15896	1184	-6096	794	1379	-252	-32768	32767	32767	-16	925	-744	-5520	440	-1256	526	-348	98	-22576	-2672	-10936	-380	-2948	782	134	133	1
-10400	-5168	11520	97	154	198	-16712	-688	-3864	-957	714	-450	-14200	3072	-3904	160	1485	-259	-2704	6680	12904	-2124	-4856	1565	-9600	3520	3920	1295	-598	337	-21688	2080	-13120	1	-2494	958	145	136	1
-10236	-5000	11448	97	174	183	-17544	-3680	-3208	-784	787	-386	-14592	-464	-4648	-270	1661	-358	6504	-176	5832	-1082	-4768	1720	-7584	1776	624	650	-1985	598	-15472	-1960	-12400	59	-2263	1235	138	136	1
-9836	-5456	11136	26	258	60	-16928	-5952	-3232	24	794	-370	-15744	-1992	-5600	-229	1770	-205	1608	560	7056	-73	-4182	1681	-4952	3496	-1392	422	-2694	699	-13504	-3296	-12248	297	-2197	1172	133	134	1
-9900	-5636	11240	-5	285	69	-16200	-2496	-3080	588	669	-122	-15976	-1728	-5720	-199	1761	-160	-11032	5536	11096	161	-4365	1564	-4080	4600	-5912	-925	-3246	974	-10696	-2896	-12496	537	-2145	1277	126	127	1
-10132	-5700	10804	-29	263	105	-16528	2128	-3904	210	544	8	-13960	1296	-7056	-339	1763	-222	-12584	5984	12808	-305	-5295	1655	-2776	1176	-5984	-2065	-3889	878	-6952	-1536	-12552	455	-1670	1191	125	129	1
-10416	-5340	10696	-42	216	108	-17256	-1584	-5040	-225	76	-84	-12504	3784	-3776	-1159	1850	-154	-9592	3848	11392	-486	-5756	1954	-5912	-3656	-2944	-1795	-4623	542	-6464	-776	-12616	109	-1558	1199	119	122	1
-10104	-4820	10620	-76	161	72	-14400	-2416	-1840	-813	72	-162	-11672	792	-5224	-1066	2210	-657	-10184	2032	12680	-425	-5604	2248	-11736	-5272	-3208	-1127	-5182	203	-6376	-48	-12832	-204	-1359	1265	119	123	1
-9992	-5128	10864	-91	148	103	-16728	-4064	-2880	-921	518	-226	-15672	-448	-4944	-917	2346	-411	-18704	1728	17120	-358	-5609	2424	-14680	-2976	-6848	-590	-5598	-175	-5136	480	-12392	-897	-1013	1076	113	121	1
-10036	-5068	10844	-59	127	111	-16736	-1704	-3536	-433	389	-209	-15368	-1536	-4176	-591	1992	-282	-26568	1632	20928	-323	-5995	2454	-17728	-5560	-8232	-522	-6066	-438	-3040	-1856	-13032	-1552	-686	920	114	121	1
-10376	-4960	10732	-65	121	89	-16872	336	-2968	-640	443	-233	-13752	1016	-2400	-336	1834	-438	-29896	4144	20736	-409	-6389	2275	-20936	-5400	-7408	224	-6205	-413	-1656	-2304	-13304	-1578	-244	596	117	123	1
-10656	-4980	10544	-59	97	58	-14256	-400	-1352	-910	562	-192	-14760	-1032	-2800	-413	1352	-364	-32768	9144	22352	-710	-6372	2108	-25120	-272	-9848	699	-6366	-378	-3136	-2360	-10960	-1233	111	849	123	123	1
-9980	-5924	10416	-29	81	117	-13088	-3672	-1464	-748	645	-144	-17320	-1968	-4248	-683	1050	-129	-32768	14672	24480	-1088	-6386	2139	-32768	1712	-10720	93	-6628	-371	-7640	-2976	-2584	-1061	-150	638	125	122	1
-10088	-5848	10628	-2	75	185	-16376	-3552	-2704	-265	776	-86	-17200	-864	-4936	-737	1187	-49	-32768	6336	18816	-1226	-6205	2616	-32768	-3304	-12960	-1285	-6576	-452	-12952	4624	1896	-1182	-1223	203	128	122	1
-9928	-5536	11052	-84	176	294	-19680	-952	-2344	-303	929	-132	-18272	264	-4528	-812	1713	-104	-32768	3792	8768	-571	-5817	2931	-30496	1648	-16232	-679	-5370	-630	-27392	10648	10016	-1773	-1887	572	124	121	1
-10284	-5084	11076	-163	319	326	-17584	352	-104	-599	1094	-212	-19656	352	-1032	-713	1802	-251	-32768	2952	-17608	-852	-4318	2609	-23920	3792	-27744	-1956	-4333	-528	-32768	3344	10832	-2745	-2522	1421	115	118	1
-9820	-4692	12064	-293	598	317	-16976	904	1376	-305	1331	-154	-21720	3136	2192	-454	1539	-279	-32768	-15096	-32768	-361	-2090	979	-3328	-2232	-26400	-2044	-2301	-345	-12192	-15728	29432	-1926	-979	605	107	109	1
-9880	-4516	12420	-357	1079	422	-17784	2696	368	149	1692	-163	-19960	8080	1936	-325	1296	-187	-32768	-1704	-32768	797	-629	411	-1064	1792	-26984	791	117	359	-6832	-8704	32192	26	31	267	110	113	1
-11308	-3980	12924	-375	1507	414	-17992	1984	-1672	386	2062	-177	-21712	2176	232	-357	929	11	-32768	832	-32768	14	1036	-259	-6992	8880	-24896	468	2140	691	-12928	1728	21840	1381	742	-352	107	109	1
-11408	-4996	12280	-419	2215	334	-21224	-80	-1928	515	2389	-188	-23312	-2760	48	-89	715	151	-18488	19704	2992	-1900	1551	4	-15064	-1848	-3048	498	2893	490	-14744	5344	2328	530	2697	277	107	110	1
-11972	-7088	12092	-498	3085	419	-21520	-40	-1360	456	2656	-353	-23264	-2680	544	145	150	384	32767	-1888	32767	796	3452	784	-32768	-7520	32767	1055	1256	-270	-16928	2112	-6480	1021	3964	887	109	110	1
-12136	-7280	15328	-971	4272	592	-24984	-1512	-488	15	2891	-350	-26632	-3568	2184	174	-503	569	-24872	-32768	10368	1124	4200	-2629	-10624	-5024	-27904	-4314	1857	1255	-32768	20968	5960	-595	-126	228	104	104	1
-13364	-10276	12436	-1789	5044	950	-30368	1832	-1704	50	3020	-408	-28904	3504	7104	308	-1133	493	-26400	9432	21312	812	3570	-492	-13416	-22728	-8064	-2462	1965	-668	-12608	2360	12336	-2881	-1422	-380	101	100	1
-12532	-15928	13880	-2311	6165	1452	-32768	8368	1560	-1164	3036	-820	-32248	13288	15472	646	-2741	840	-15480	26896	8488	410	3978	-151	-30224	12984	-9536	1465	2843	179	-17568	-21040	-4552	-1858	1566	-1389	104	101	1
-14480	-17976	15792	-2464	7422	2430	-32768	11096	6176	-2139	2758	-1329	-29304	26240	9152	3981	-3665	1912	-28024	10096	25384	-679	3035	-845	-13968	5456	-6744	-789	2216	720	-18608	768	-8184	698	407	417	108	104	1
-20372	-13444	10660	-2703	8777	3801	-25080	3160	7936	-3099	2343	-1323	-5120	12928	-7872	-3543	-933	1438	-14944	9680	13200	-478	936	-762	-18712	5176	-7736	-168	2132	750	-8424	10552	-17008	1940	756	478	117	116	1
-32768	-14840	15624	-3170	7325	3687	-18072	-11136	-904	-3221	2683	-751	-22624	-6864	-17232	-3748	-166	188	-19912	368	14864	-188	-878	-1238	-15488	4048	-11056	-1243	1640	716	-11128	7240	-10112	747	961	-106	125	127	1
-32768	-16260	4332	-3920	3940	3683	-24944	-9952	-18920	-3117	3093	-518	-32768	-8728	-13296	-4467	-1175	-629	-11912	3136	13200	108	-305	-625	-18272	-8256	-6864	-1344	1258	280	-18288	1736	-12552	126	1430	82	128	119	1
-17784	-28492	24508	-3465	2183	1923	-23424	-4520	-16552	-1863	2611	-250	-29656	1360	-14304	-2626	-1864	-1034	-10376	3224	13808	-245	-138	-121	-17776	-2888	-5344	33	1326	279	-17056	2528	-9400	215	1340	103	130	117	1
-32768	-32768	32767	270	-754	840	-15848	-4808	-6744	-621	990	-433	-23792	4192	-19456	-293	-2052	-421	-8816	4104	13672	-148	123	-39	-16952	-872	-5224	846	1131	221	-14712	4576	-10240	340	1341	-66	127	117	1
2384	-24076	22780	1681	-3477	-328	-6840	-10496	928	-400	-297	-175	-20176	-760	-15344	97	-2369	-244	-9752	3808	13480	-76	23	-70	-17760	2328	-6320	1489	953	297	-14832	10272	-8152	486	1555	-139	121	122	1
3352	-11040	11864	1804	-3616	-272	-4816	-2112	1392	881	-1273	-45	-19040	1064	-16264	261	-2027	-300	-9192	4120	13376	-71	-366	-162	-17904	4688	-4232	860	559	375	-15152	4528	-6584	246	1610	-381	124	116	1
1000	-6884	10152	887	-4107	-1072	-5624	-1208	-2312	1204	-2026	-268	-13976	2336	-16208	58	-2137	-524	-9224	3592	13208	-17	55	-80	-16392	2824	-3528	-402	238	282	-15840	3904	-5392	88	1603	-425	119	120	1
-2192	-9748	8996	396	-4545	-1784	-6008	672	-3240	1061	-2800	-268	-10272	1928	-14720	-8	-2182	-481	-8504	3592	13464	-51	136	-35	-16696	648	-2792	-1270	143	31	-14936	2504	-3240	36	1612	-487	127	122	1
-4628	-10836	8448	605	-4803	-2191	-7104	-984	-3232	1174	-3419	-118	-8800	624	-14624	101	-2200	-464	-8488	3784	13456	-33	172	4	-16816	-648	-1048	-1444	269	-98	-17544	-2072	-1240	211	1580	-505	123	123	1
-5184	-7008	8988	957	-4777	-2681	-6624	-1344	-4344	1258	-4049	184	-8168	-1872	-14744	221	-2170	-617	-8584	4032	13264	2	142	-26	-16064	-2208	-1200	-677	414	-57	-14864	184	-1584	612	1669	-372	122	122	1
-10864	-6280	11068	1018	-4770	-3206	-8760	752	-4984	1454	-4525	555	-5520	-3856	-14704	348	-2033	-626	-8624	3640	13344	31	89	-33	-15104	-2440	-592	569	530	48	-13912	1800	-1648	1174	1748	-220	125	122	1
-15832	-5960	14204	915	-5225	-3609	-11064	-880	-5712	1440	-4935	866	-3032	-5328	-14752	591	-1806	-544	-8528	3872	13248	36	86	-37	-16056	512	-1048	1433	637	77	-12984	3288	-2216	1550	1793	-103	125	122	1
-14764	-3720	12800	656	-5410	-3490	-15840	-1832	-4840	1842	-5321	1197	-1592	-5736	-15344	1610	-1497	-471	-7904	3224	13328	87	60	-34	-16992	840	-1776	1398	591	165	-14576	2472	-472	1503	1951	-135	129	124	1
-21236	-5228	12596	376	-4829	-2969	-19776	-3024	-11312	2388	-5445	1528	-2600	-3264	-14512	2772	-1135	-442	-8680	3400	13312	110	45	4	-16176	920	-496	932	559	90	-14656	1208	1896	1753	2286	-319	120	125	1
-27652	-8980	15992	339	-4502	-2700	-20144	2152	-10976	1956	-5610	2157	-3704	-256	-7784	2658	-1101	-468	-8888	3264	13368	115	88	-2	-16872	672	672	297	652	77	-14752	2656	3048	1490	2684	31	129	126	1
-32768	-15616	22544	285	-4380	-2576	-29784	5480	-10288	651	-5822	2328	-4528	1200	-2272	2336	-1539	-97	-8912	3776	13248	98	63	-15	-13672	200	392	86	801	56	-14384	2984	-4888	684	2041	118	130	127	1
-32768	-18536	18484	-145	-4471	-3097	-31736	-1632	-12504	-226	-5671	1780	-9352	5728	1952	2247	-1890	766	-9016	4808	12952	89	76	-37	-12880	96	-1040	157	1005	74	-18632	4320	-9912	623	809	-287	129	128	1
-32768	-26532	12844	191	-4678	-3550	-31496	-5224	-15728	-619	-5371	959	-15664	11016	1464	2024	-1900	1515	-9168	3832	13008	104	112	-63	-16664	632	-2304	103	1259	85	-20280	8488	-5024	535	419	-491	123	128	1
-32768	-19688	1144	825	-4329	-3987	-20000	-7880	-16744	1041	-5104	340	-20632	12168	1264	1265	-1055	1859	-9144	3856	13128	117	197	-83	-17024	144	-2184	138	1243	42	-15784	5232	-3040	626	1014	-272	123	127	1
-32768	-2152	580	230	-3160	-4446	-20352	-32768	17192	8100	-2688	1658	-25616	9064	6704	850	-620	999	-8696	4864	13400	100	315	-100	-17008	192	-1984	180	1281	43	-16176	1312	-136	766	1216	-229	113	126	1
-32768	-2880	-4368	427	-2618	-3624	-21552	-5416	-15832	1115	-5001	940	-15120	10144	10000	1989	-1794	-566	-9088	4512	13832	137	531	-176	-15264	504	-64	-128	1522	152	-18336	-392	2728	761	1267	-74	102	125	1
-32768	10508	-22024	620	-1812	-1982	-13752	-3408	-18184	26	-1931	167	-9152	16728	26064	844	-1254	58	-9184	3976	13760	212	755	-205	-15864	-872	-1440	-329	1817	118	-18328	1472	128	573	1123	-6	108	123	1
-32768	16528	-32768	-437	-585	-793	2336	-3928	-15128	437	-439	-311	-22280	14008	22944	740	408	32	-9376	3784	14528	249	1107	-204	-18720	256	-3208	-521	2064	63	-19040	5504	-3960	476	823	-145	118	126	1
-32768	8656	-27728	-352	770	-50	-1336	-5992	-15600	360	1378	-790	-20528	8280	13016	-145	888	-25	-7520	5672	15304	328	1669	-181	-21216	-1256	-3848	-571	2244	53	-19696	5488	-5080	612	677	-338	130	128	1
-32768	112	-12656	486	1940	474	-12408	-5352	-17096	827	2644	-1049	-16624	4968	3408	-599	1145	-412	-11264	4432	13536	480	2585	-274	-20744	-1792	-5376	-527	2426	158	-20088	4616	-4560	459	219	-400	135	132	1
-9108	-13592	18228	2123	3294	635	-27008	1512	4688	1292	2651	-1011	-14800	3104	-2280	-563	1838	-1154	-10264	3120	14904	779	3396	-360	-20408	-1776	-4208	-460	2585	251	-19936	2504	-128	279	-260	-532	141	137	1
15432	12112	32767	-751	3362	1518	-32768	19752	18016	3320	1285	185	-7704	6904	-7800	28	758	-1288	-18112	7680	15008	1054	4010	-455	-25336	24	-2320	-238	2752	227	-24640	2632	3240	166	-590	-521	147	141	1
-32768	16668	11716	-1214	2755	2153	-12632	13296	-22872	674	2618	-929	-28576	288	1296	-1442	1064	-1110	-11680	10632	16304	730	5256	-577	-28928	-1400	-200	-259	2803	420	-30816	3224	11928	-136	-1674	-469	150	139	1
-20580	-17332	17168	-1344	3350	1217	-14200	6488	-7032	-2191	2288	-647	-23880	-3608	-15488	1302	-29	138	-11408	17432	18616	960	6691	-1142	-32768	-3216	6680	275	2971	840	-32768	2720	22776	-1256	-3271	-752	130	126	1
-20096	-22876	1236	-1190	3352	813	-22352	-12648	-7752	-4702	2490	-1708	-7176	13328	-1392	2049	99	-152	-9432	13896	18272	1430	8578	-2076	-32768	-6448	11648	988	2940	1283	-16072	-9064	-1544	-41	-2211	-1048	108	124	1
-32768	-19484	27056	226	1716	1226	-10760	-13512	-13944	-129	2032	-870	-17056	-272	-5776	-319	867	-512	-23096	6928	16968	2694	10102	-2759	-27488	-1792	1104	1826	2785	1225	-20344	-1768	5640	1886	-1802	-585	128	123	1
-9836	-13080	9124	735	878	795	-21456	-6184	-9056	1952	1766	-295	-16416	-1752	-7344	-600	896	-440	-32768	9792	10376	3006	9058	-2724	-21448	3808	-7648	3265	3113	804	-24408	11504	-22432	4053	-127	239	127	121	1
-16112	-3464	14360	1126	231	705	-16776	-4736	-10576	3099	1346	-388	-14896	-8680	-10904	-14	930	-415	-32768	19640	7904	2782	5502	-4396	-24720	4120	-10864	2935	3211	523	-25448	10800	-27064	3942	-98	520	121	123	1
-12000	-8416	10880	729	95	370	-17520	-360	-4880	3295	937	32	-12648	-4672	-9696	968	926	-386	-32768	16848	16352	3386	4308	-3121	-22448	4864	-10536	2422	2083	469	-31192	-1160	-12944	-833	-2315	1035	128	132	1
-10664	-5792	11444	532	-16	333	-17304	6248	-2352	518	856	-293	-18024	-72	-10872	979	1126	-473	-26408	28640	32767	2318	1918	-897	-21024	4264	-8160	2019	1964	426	-24816	-6224	-14680	-1203	-2709	817	130	135	1
-10104	-7116	11012	263	3	375	-16752	-1896	-4696	-751	652	-434	-15120	1536	-6864	548	1250	-277	-20416	32767	32767	-281	-3735	778	-6456	4416	-5864	530	-73	88	-22704	-4808	-10736	-633	-3144	839	136	136	1
-9872	-6572	11256	253	-19	443	-17704	1080	-2096	-1181	554	-558	-14112	616	-5912	-72	1520	-412	-15352	28872	30304	-743	-4201	898	-7896	688	5480	1039	-648	337	-22024	-1552	-13976	147	-2643	965	141	132	1
-10368	-6996	10744	403	-81	481	-17672	-2576	-4176	-1585	645	-742	-15304	-2072	-6064	-654	1790	-500	8920	-1664	5608	-947	-4725	1801	-7720	704	1128	664	-1753	577	-16248	-1808	-13272	83	-2273	1335	132	129	1
-10136	-5736	11020	433	-93	420	-17288	-4976	-3752	-1129	572	-584	-15424	-1480	-5536	-498	1701	-468	192	1296	8040	55	-4066	1957	-4464	2392	-1152	488	-2563	607	-13560	-2720	-12808	380	-2273	1227	128	132	1
-9972	-5644	11204	321	-35	333	-16672	-5616	-3088	212	445	-343	-13736	-904	-4616	-267	1619	-243	-8912	4616	12312	-88	-4434	1809	-3592	3440	-5632	-757	-3290	887	-10072	-3000	-11944	587	-2180	1264	127	124	1
-10336	-5696	10788	285	77	253	-14872	-3088	-3440	1293	371	105	-14160	-216	-3968	26	1791	-63	-10720	3280	13768	-621	-5138	1811	-3192	528	-4248	-1883	-3882	781	-7880	776	-13920	276	-1944	1250	123	126	1
-10140	-5468	12232	282	183	163	-18680	3088	-8616	737	673	97	-13096	1664	-2848	180	2203	-26	-10088	1464	13016	-751	-5612	2075	-6496	-5128	-3104	-2021	-4546	428	-6136	-120	-10680	-150	-1714	1178	124	125	1
-9932	-5184	11104	191	141	93	-16104	3824	-416	307	434	1	-15344	4080	-3432	-151	2286	-159	-12488	1240	14752	-738	-5718	2393	-11656	-6736	-4800	-1459	-5101	-8	-6976	-216	-12056	-528	-1583	1195	122	125	1
-9372	-6136	10824	110	88	150	-15656	-744	-344	-580	537	-324	-14264	576	-2128	-561	2454	-354	-16368	-1280	17072	-855	-5726	2586	-15416	-5264	-6168	-932	-5573	-541	-6512	-504	-11968	-979	-1382	1042	120	123	1
-9040	-5596	11128	33	16	287	-16656	-2040	-856	-735	526	-421	-14216	-1920	-1352	-595	2312	-494	-23048	-2480	19776	-795	-5861	2514	-18024	-7552	-7488	-918	-6016	-889	-4280	-3776	-9112	-1570	-905	706	118	125	1
-9108	-4944	11152	15	18	235	-17704	-2528	-1520	-387	562	-346	-17360	-864	-2616	-103	1873	-643	-28416	-232	20072	-662	-6007	2234	-18848	-7696	-7584	-143	-6107	-880	-2472	-4368	-11224	-1533	-625	445	116	127	1
-9376	-5284	10876	32	12	213	-16120	-1160	-96	-102	679	-231	-16608	-1352	-3768	-35	1189	-192	-32768	7344	22792	-906	-6151	1918	-22808	-3312	-10384	651	-6034	-799	-1768	-5048	-8696	-1251	-231	502	113	120	1
-10016	-4708	10852	40	-13	239	-13904	-800	-472	2	751	-190	-17648	-968	-4248	-152	1161	-101	-32768	11200	22008	-1327	-6272	1908	-28328	-160	-9432	214	-6262	-777	-4696	-3192	-1584	-994	-202	371	112	117	1
-8916	-4936	11324	8	1	228	-15560	-592	-752	-48	920	-159	-17880	448	-4616	-357	1065	77	-32768	8208	17504	-1410	-5921	2314	-30096	-1336	-10424	-1084	-6187	-783	-11024	3816	6600	-1480	-1146	37	117	119	1
-9876	-5392	11024	-20	71	247	-19112	-1456	-952	-238	1033	-263	-17008	1168	-2784	-569	1408	24	-32768	7880	10992	-1178	-5268	2761	-29384	-192	-13360	-1216	-5442	-992	-19000	7296	4816	-2259	-1483	230	114	118	1
-10496	-5400	11148	-17	157	299	-17264	-424	-288	-478	1169	-334	-17096	1344	-2928	-587	1462	-42	-32768	7072	-2400	-1556	-4160	2781	-26208	3824	-20640	-2335	-4385	-1054	-32768	5224	12496	-3721	-2174	732	117	118	1
-10204	-5664	11476	-77	273	329	-16160	-1232	1296	-645	1424	-340	-17384	2040	480	-866	1744	-611	-32768	4600	-20608	-2012	-2637	2013	-12768	1792	-19752	-3285	-3176	-1208	-22128	-10304	17320	-3037	-1157	538	119	120	1
-9784	-5736	11476	-104	306	348	-16600	400	312	-160	1673	-306	-19184	5560	-1064	-626	1310	-506	-32768	-7672	-28896	269	-961	1445	-5592	-672	-19608	-1060	-1404	-445	-11632	-15304	30352	-285	-24	-290	119	116	1
-10932	-4164	12800	-210	881	309	-17768	784	-2400	37	2043	-361	-20664	2576	-2328	-690	997	-381	-32768	2840	-31488	1233	-244	551	-7880	7264	-19880	1353	761	457	-12520	-4232	23232	1389	352	-189	115	117	1
-10060	-3000	14228	-142	1570	288	-21688	-504	-2984	102	2319	-341	-20824	-4688	-4064	-573	951	-164	-32768	15184	-17800	99	1029	-298	-9832	8600	-15864	1585	2343	753	-18456	5048	9640	1484	1038	-128	113	115	1
-10188	-7624	13484	-275	2434	373	-22040	-832	-3824	159	2506	-409	-22552	-3032	-4408	-222	428	57	-7224	4472	20696	-704	1113	-763	-24776	-1528	18864	1841	2403	242	-15904	4640	-5808	1352	2923	760	113	110	1
-10744	-6312	13728	-253	3331	592	-22928	72	-3064	-89	2619	-467	-22736	-1928	-2048	-55	68	395	432	-8960	29568	1465	3496	-2019	-32768	-2616	10720	-1458	1389	771	-22136	4864	3392	975	2895	901	111	110	1
-14884	-8612	14232	-476	4474	869	-26784	-1888	-720	-246	2731	-428	-26320	184	1016	130	-415	475	-32768	-4840	4816	997	3919	-1847	-8096	-7728	-21048	-2432	2095	1013	-22808	17664	3768	266	75	-55	111	108	1
-12836	-11108	13492	-895	5276	1372	-27448	1728	584	-362	2824	-686	-28136	6024	8072	184	-1307	451	-26880	12104	23344	536	3066	-449	-18352	-9744	-1312	-519	2517	-82	-15808	4152	-440	-2018	-73	-268	108	105	1
-12888	-14700	14576	-1178	6008	1984	-31904	4384	2248	-1385	2789	-1063	-32248	11456	16624	728	-3129	760	-14096	15960	10160	183	3583	-604	-26040	7432	-8912	860	2611	607	-9832	-16752	-6128	-1294	1088	-945	108	99	1
-13068	-15932	14764	-1244	7025	3386	-32768	5416	6800	-2308	2607	-1693	-26080	24312	12272	4338	-3649	1807	-30760	15672	21496	-1211	1975	-1383	-15728	9224	-9760	-389	1947	605	-11320	-13440	-5640	-779	781	-602	111	107	1
-24440	-11948	13084	-1873	8611	4457	-21752	1480	3600	-1978	2285	-1705	-3480	9096	-5640	-3238	-1145	947	-12848	2560	16416	-537	-148	-950	-19408	1720	-5632	-624	1786	683	-9896	9248	-11760	868	949	160	119	120	1
-32768	4244	14480	-3801	5771	3479	-16832	-5472	-12104	-3291	3283	-1073	-23360	-7168	-15320	-4187	-34	-130	-12232	3416	13624	-204	-649	-804	-16744	376	-7928	-1453	1472	672	-13200	3120	-9480	5	1199	5	129	129	1
-32768	-24328	18524	-3576	1628	3268	-26952	-6456	-25304	-3049	3548	-701	-32768	-6752	-14848	-4492	-1078	-771	-11768	3280	13888	33	-192	-500	-16920	-7664	-6000	-1233	1205	346	-17320	-440	-9224	193	1541	60	127	121	1
-22436	-25384	32767	-956	-419	1352	-21200	-5736	-7856	-2552	2517	-532	-29240	5968	-16200	-2377	-1918	-1291	-8752	2912	13712	-80	-35	-2	-17360	-4080	-4416	172	1235	313	-16696	4040	-7256	361	1393	113	129	116	1
7828	-24052	20580	-22	-2216	899	-18432	-8584	4552	-1474	752	-585	-25152	8968	-17392	-718	-2024	-545	-9720	4104	13704	-1	33	63	-17320	184	-4560	1197	1186	223	-14800	4968	-7744	319	1424	47	128	116	1
8252	-14996	14632	-25	-2046	628	-9864	-3368	600	187	-397	-420	-22608	-2264	-15776	-306	-2679	-671	-9216	4232	13440	49	74	-19	-17784	1928	-4896	1524	965	264	-14840	4144	-7720	391	1546	-191	123	120	1
4164	-16544	13400	-889	-2419	-582	-4144	1480	248	332	-1142	-191	-16880	992	-13696	-133	-2137	-380	-9312	4304	13568	66	67	-31	-17552	3064	-4368	1098	696	335	-15064	2680	-5696	361	1615	-313	125	121	1
1572	-18968	13252	-725	-2952	-1618	-5488	0	-2192	-230	-2022	-642	-12192	3376	-14520	-182	-2043	-322	-9448	3552	13424	145	177	4	-17616	1784	-3656	185	427	236	-15240	3760	-5640	371	1747	-382	122	122	1
756	-15828	10984	-92	-3361	-2391	-7208	-3728	-2136	163	-2800	-711	-9808	2824	-13808	-296	-1972	-415	-9048	3256	13720	120	257	90	-16936	1072	-3192	-807	327	54	-15680	1752	-3920	159	1664	-378	127	121	1
-2824	-10028	10664	340	-3598	-3173	-7040	-3528	-4104	988	-3391	-493	-9632	-296	-14472	-322	-1744	-633	-9336	3984	13272	141	311	129	-16792	-1248	-2472	-1067	388	-126	-14544	224	-3168	400	1814	-496	124	117	1
-6668	-5684	11656	482	-4068	-3541	-7208	-2072	-4176	1565	-4043	-185	-8096	-2552	-15024	-38	-1691	-761	-9008	4632	13184	166	307	37	-15688	-2928	-1000	-90	640	-76	-14496	-24	-3248	491	1815	-517	125	121	1
-9528	-2464	13488	167	-4502	-3691	-9432	-1760	-5096	2021	-4647	38	-5856	-3256	-14704	476	-1713	-768	-9536	4488	13048	178	256	-32	-15280	-1144	-1616	979	698	58	-14512	1552	-4224	1361	1871	-182	123	120	1
-13868	-3312	16556	-165	-4786	-3665	-12328	-632	-6720	2582	-5162	359	-4104	-2616	-13864	981	-1731	-730	-9240	3968	13096	195	207	-102	-16344	304	-2488	1314	630	153	-14024	3328	-2312	1601	1912	-272	124	119	1
-15128	-3244	15920	-249	-4898	-3623	-16744	3008	-8016	2758	-5432	832	-3608	-3432	-12984	1654	-1709	-563	-9504	4320	12888	168	216	-92	-17064	-240	-2360	1120	516	167	-13736	1112	-944	1429	2076	-385	124	123	1
-20932	-4220	17356	-171	-4480	-3388	-19368	3400	-9680	1917	-5553	1272	-3696	-3568	-10632	2037	-1376	-623	-9856	3408	12424	123	202	-58	-15912	-728	-1296	857	567	85	-14360	3024	1248	1279	2616	-169	125	125	1
-26156	-6672	23064	-77	-4311	-3038	-20848	6072	-8304	498	-5627	1752	-2624	-136	-8448	2159	-1088	-580	-9712	3992	12680	76	205	-51	-14352	1696	-344	362	703	60	-13400	4344	-2608	698	2640	-111	126	126	1
-30516	-11204	26532	-155	-4654	-3014	-28664	456	-11936	-226	-5680	1456	-4768	2160	-2744	1971	-1485	-181	-9456	3792	12504	20	185	-67	-12992	1144	-272	-262	734	15	-16672	2920	-8896	241	1434	-435	127	128	1
-30516	-16812	21944	-107	-4663	-3320	-31520	-224	-12928	-273	-5723	1159	-8808	5656	2920	1686	-1750	470	-10488	4392	12096	9	182	-124	-13392	248	-1288	-348	890	15	-18920	4408	-5832	192	581	-696	120	129	1
-28668	-12704	12820	289	-3930	-3558	-27024	-3344	-10952	428	-5580	650	-12592	5384	1248	663	-771	854	-9784	4224	12312	-15	168	-138	-16600	-144	-896	-313	1065	28	-17032	4632	-1840	197	909	-382	124	127	1
-32768	-9184	9784	447	-3170	-3433	-18656	-6280	-13184	842	-4932	1134	-24184	5688	11408	801	-1182	779	-9912	5184	12448	-43	194	-208	-16080	672	80	-287	1320	70	-16352	1128	216	423	1223	-187	125	124	1
-32768	5052	1640	491	-3193	-2802	-32768	3352	29528	3295	-4402	1744	-30136	6592	8504	1421	-1435	607	-9544	4160	13272	12	316	-250	-14928	-776	1224	-446	1453	121	-17696	-808	3208	776	1315	-121	114	123	1
-32768	480	-9972	60	-2459	-2407	-15048	-2680	-8584	1134	-3132	917	-19720	16792	1648	1765	-926	50	-9800	3576	13712	120	590	-247	-16888	-3744	-728	-511	1672	130	-19984	-3904	2272	954	1394	-7	89	122	1
-32768	11680	-23388	207	-1355	-431	-4976	-3024	-26496	-757	-1814	707	-9880	20272	23600	19	-1345	474	-9760	3392	14248	294	1005	-184	-18048	-2496	-840	-434	2015	121	-21240	1752	-1680	505	1004	-41	99	124	1
-32768	9772	-27288	-239	64	-543	-5424	1392	-16040	-170	268	-347	-13064	9240	19024	-162	225	875	-9296	3216	14872	387	1668	-130	-20704	264	-2864	-604	2213	30	-21008	8832	-4928	504	688	-70	115	124	1
-32768	6944	-22256	883	1827	739	-8776	-8784	-16584	112	1801	-736	-19520	3888	10280	449	739	7	-8928	5344	14688	517	2464	-121	-21888	248	-3088	-890	2387	52	-21168	9376	-4024	437	227	-244	129	131	1
-25680	6628	-14208	1227	2488	1854	-17112	-7808	-12880	1068	2990	-927	-19336	2744	-1264	40	2078	-607	-11224	4584	14240	820	3294	-264	-21024	-1176	-2136	-935	2616	175	-21264	7824	88	109	-313	-514	138	134	1
25004	-9128	32767	542	3986	1583	-32768	17360	32767	3067	1451	288	-22056	944	-2584	2	2179	-1492	-22400	9920	12744	1207	3892	-489	-25032	-280	56	-607	2903	194	-24456	6912	4560	-99	-829	-592	142	136	1
-28592	11956	16468	-896	2754	3102	-21160	12448	-15936	2471	2439	-1160	-22032	4520	7240	-286	-19	-424	-11528	11320	15960	1030	5322	-518	-30760	-2112	1008	-371	3094	359	-31832	3408	13760	-447	-1846	-496	146	134	1
-28432	-9076	13952	-1003	3709	1468	-13824	13224	-2120	-1449	2427	-569	-18648	-3048	-10032	-232	214	-389	-10544	13632	17432	1279	6856	-1071	-32768	-5864	4984	120	3139	834	-32768	-1584	25448	-1889	-3755	-801	135	124	1
-18108	-18428	5472	-1141	2701	1247	-27712	-6272	-15224	-5778	3140	-1751	-5112	4944	-11840	869	489	210	-10136	12696	20000	1694	8843	-1911	-32768	-8608	11072	1134	3030	1105	-11256	-13584	-7304	-49	-2030	-1189	111	120	1
-32456	-23816	6852	298	877	1534	-11120	-23784	-17672	-1264	2145	-1084	-16840	1672	-12248	187	922	-981	-24664	8800	16896	3132	10311	-2515	-24904	-1424	1464	1891	2876	961	-18776	-376	4392	2055	-1540	-673	118	122	1
-17844	396	19580	937	91	1267	-19448	-3792	-13376	2540	1679	-407	-10128	-3608	-14056	-1161	886	-407	-27952	15432	11408	3198	8925	-3073	-21368	6416	-7136	3228	3128	531	-25776	13680	-24352	4293	399	200	129	124	1
-16384	-10792	10756	1006	-259	688	-17936	1448	-10776	2533	1134	41	-15880	-3560	-13248	-810	1243	-307	-32384	19584	8472	2430	5240	-4722	-26744	5112	-10832	2123	3115	442	-30512	14648	-15096	1635	-1042	1135	128	125	1
-14656	-6532	11512	980	-229	588	-19624	5264	-3280	607	882	-174	-15168	-5424	-11184	81	1007	-617	-32768	19104	17744	2788	4523	-2650	-22648	4816	-12128	1418	1930	142	-32448	48	-12816	-1156	-2403	1010	129	129	1
-9780	-5416	11668	274	-13	226	-17696	-736	-4808	-1401	804	-575	-16048	-1688	-9176	286	1265	-590	-32768	27480	26552	1155	1101	-1319	-10568	7560	-15448	-141	1092	-71	-24448	-3904	-15920	-1562	-2638	836	134	134	1
-10316	-6336	11516	-59	116	117	-17144	-4984	-2904	-1340	614	-505	-16408	-1952	-6304	84	1332	-254	-12272	23352	27488	-887	-3576	349	-7264	2928	-2872	6	-272	-315	-21600	-632	-13264	-880	-3063	723	133	128	1
-10244	-6856	10972	0	121	142	-16752	-4144	-3144	-890	500	-416	-13656	-1608	-4592	-298	1524	-85	-1640	7496	12336	-1927	-4308	947	-7240	1160	3416	634	-744	-222	-21736	4520	-15880	-514	-2540	923	139	130	1
-9688	-6852	11100	148	84	152	-17528	-2936	-3200	-813	500	-291	-15584	-3152	-7216	-576	1739	-275	4600	3560	6640	-1322	-4320	1232	-5720	2560	-808	625	-1783	-37	-14736	736	-15016	-670	-2342	1155	139	142	1
-9764	-5724	11180	261	51	148	-17352	-4384	-4632	-617	464	-198	-15504	-2704	-6928	-438	1688	-386	-3368	4776	8800	-821	-4091	1204	-2544	5856	-2216	393	-2666	68	-12352	-2368	-14744	-598	-2341	937	131	125	1
-9956	-5556	11112	168	70	88	-17520	-3040	-4184	-99	271	-61	-13584	456	-6616	-238	1665	-175	-13032	9192	12216	-829	-4906	1332	-2200	5184	-7664	-804	-3209	212	-9592	-3656	-13144	-369	-2072	926	125	128	1
-10256	-5336	11304	34	108	28	-11440	15104	-32768	-161	372	81	-17232	824	-7744	-272	1912	-103	-11824	8992	10280	-1251	-6073	1606	-2968	3208	-5256	-1871	-3950	130	-7928	-1304	-13512	-511	-1875	1036	128	128	1
-9644	-5480	11312	39	141	-19	-15992	1344	-3056	-275	-330	121	-13336	1736	-3104	-565	2354	-327	-7288	4280	7120	-1345	-6187	1783	-5576	-2080	-1904	-1870	-4710	-82	-6360	-1424	-14024	-661	-1760	968	122	130	1
-9260	-5412	10944	-18	127	-33	-16832	688	-1288	-965	415	29	-14144	2160	-2464	-1005	2435	-136	-11840	3864	9568	-1023	-5978	2047	-9096	-2984	-5072	-1510	-5245	-356	-5424	-1872	-14024	-741	-1406	1076	125	129	1
-9668	-5212	11072	-36	95	-14	-17880	-2896	-1064	-857	287	-140	-12096	736	-264	-1116	2767	-387	-19328	5272	15312	-933	-6083	2233	-13664	-1776	-5664	-884	-5666	-674	-4992	-2200	-13176	-1205	-1196	1009	119	127	1
-9452	-6132	10880	-68	58	8	-15648	-1208	840	-847	396	-115	-14272	-2512	1208	-1142	2659	-582	-24760	3600	18552	-930	-6408	2205	-19920	-4192	-8328	-699	-6182	-795	-4160	-4568	-11968	-1535	-894	778	113	124	1
-9756	-6196	10636	-25	6	51	-16488	-976	1240	-1296	456	-191	-18216	-808	752	-595	1738	-746	-29432	4064	18104	-566	-6466	2122	-21616	-6392	-8896	64	-6253	-840	-3008	-4048	-11448	-1383	-419	507	113	123	1
-9356	-6064	10868	12	-30	141	-14704	-3176	1312	-769	687	-199	-19504	-4152	-2960	-215	922	-163	-31744	10528	19176	-602	-6250	2028	-23712	-480	-9240	786	-6280	-564	-2888	-4880	-9320	-1104	-84	471	117	120	1
-9240	-5880	11144	19	-41	162	-13792	-1384	680	31	810	21	-22304	-1080	-7104	-686	826	-17	-32768	14264	21184	-1048	-5763	2005	-23672	928	-9208	774	-6316	-535	-5800	-5448	-1640	-942	-310	470	120	122	1
-9592	-5448	10996	-10	19	165	-17672	-232	-1272	-44	973	61	-15976	-1072	-4264	-582	1191	310	-32768	11432	21160	-1249	-5523	2251	-31504	536	-10712	-839	-6385	-340	-9256	1888	4232	-1082	-1084	81	119	121	1
-10044	-5456	11044	-59	145	143	-18952	-536	-480	-378	1106	-165	-17848	-320	-2568	-380	1798	163	-32768	5672	13232	-460	-5569	2782	-30976	680	-14248	-739	-5538	-510	-22744	11040	10360	-1628	-1908	441	119	119	1
-9840	-5896	11032	-112	239	194	-15344	-576	2056	-697	1345	-135	-18968	1872	1792	-352	1748	-79	-32768	2712	-4168	-462	-4624	2906	-26696	888	-21312	-1761	-4636	-550	-32768	5368	15896	-2777	-2570	1141	117	119	1
-9740	-5292	11180	-110	356	259	-15040	-1016	2832	-457	1578	-116	-17912	3648	4112	-381	1624	-292	-32768	-7016	-23728	-804	-2600	1481	-14224	-7120	-23760	-2227	-3117	-836	-23952	-10272	15872	-2148	-1415	508	116	113	1
-10316	-4876	12080	-256	646	231	-16480	2152	816	82	1999	-149	-21536	8240	256	-317	1245	-327	-32768	-9856	-32768	933	-1424	903	-1672	-1560	-24536	304	-1090	63	-10024	-15472	32767	390	-1162	565	115	114	1
-10428	-4560	12452	-394	994	164	-17952	1528	-688	486	2367	-185	-20240	2280	-1000	-679	854	-202	-32768	-5256	-32768	1183	208	-391	-4752	7048	-21640	1991	1195	613	-11320	-368	23896	2367	182	-273	113	115	1
-10456	-5536	14048	-658	1550	-36	-21992	-752	-3152	630	2561	-165	-20528	-3320	-3808	-527	834	-73	-32768	4880	-20736	391	824	-1079	-9112	6464	-18064	1665	2694	733	-20240	9680	10256	1582	682	390	111	117	1
-6572	-9512	15772	-608	2484	344	-22720	520	-4040	514	2703	-241	-20224	-1528	-5200	-365	440	98	1320	-8488	32767	-2595	276	-1722	-28752	-9120	32767	2191	2303	-134	-14368	1912	-11336	1536	2798	730	117	115	1
-11416	-5724	14036	-618	3460	727	-22592	-528	-4960	237	2804	-307	-21360	-1640	-3568	-200	-36	482	864	-16936	19616	1491	3556	-3066	-32768	-616	3760	-2808	1398	877	-32080	4304	4424	820	3142	413	106	114	1
-13472	-8788	12592	-1302	4932	761	-27424	-1016	-2936	75	2925	-201	-25184	120	-480	172	-512	627	-32768	-6448	2872	803	4328	-1767	-2240	-17064	-27280	-3476	2054	558	-19440	13496	7424	-607	121	29	110	108	1
-11756	-10596	12668	-1940	5775	1511	-27520	1968	2024	-208	2961	-505	-28184	4976	10400	393	-1689	821	-27968	7920	27824	354	3409	-93	-20432	-10760	2736	-1064	3287	-252	-16912	6376	5416	-3061	-396	172	111	103	1
-13960	-15488	12152	-2568	6600	2073	-32768	6424	3512	-1154	2903	-817	-32768	10640	13816	1447	-3340	1213	-16272	17568	9864	119	3781	-506	-27888	10312	-4256	611	2702	578	-7504	-17288	-5160	-1534	1297	-1390	114	106	1
-14260	-17568	11040	-2297	7713	3251	-32768	6304	7368	-2213	2682	-1339	-18216	17784	3928	2718	-2642	2067	-23864	4568	14168	-945	1630	-1163	-13224	12448	-9432	-332	2303	776	-17528	4040	-14648	353	1026	185	116	111	1
-23268	-11068	9896	-2111	8234	4239	-20760	-2504	3336	-3193	2471	-1153	-11272	1728	2824	-3288	-1259	1231	-21672	-128	20352	-358	-556	-1123	-17864	2168	-6536	-1713	1762	807	-9432	8248	-12456	1094	845	479	124	126	1
-32768	-13684	8096	-2504	6551	3960	-19560	-13272	-3320	-2959	2833	-436	-25632	-9752	-19768	-4057	316	-38	-10344	4120	14480	-181	-1132	-1048	-16384	-2912	-8088	-1548	1504	413	-11496	1104	-12216	593	1303	-182	132	126	1
-32768	-27976	10248	-3252	3763	3511	-25440	-8704	-25624	-2272	2889	-304	-32768	-5592	-15088	-3141	-1349	-802	-11240	3704	13784	-12	-283	-448	-17704	-6344	-6976	-686	1294	315	-19784	392	-12816	600	1745	283	128	123	1
-9296	-25952	23900	-2532	1964	1786	-20016	-3680	-16912	-1458	2233	-72	-25616	5248	-14520	-1465	-1822	-803	-9424	3048	14160	-125	35	-44	-17688	-3760	-5616	893	1242	307	-19952	520	-10936	659	1697	411	126	110	1
-30304	-32768	31688	-590	-2224	126	-16360	-7640	-3744	-102	617	-412	-22688	3640	-16264	-171	-2062	-354	-9456	3392	13576	26	144	-4	-18600	640	-4312	1941	1079	192	-14200	5720	-6904	595	1468	-71	127	119	1
3976	-22204	19656	1013	-3632	-245	-9744	-8776	2120	-242	-373	-237	-21512	-2424	-13240	-96	-2311	-373	-9144	4456	13272	74	-139	-107	-17712	4640	-3360	1549	822	354	-15152	4272	-5568	483	1602	-342	129	119	1
3460	-12740	9832	1207	-3533	-179	-6288	-2984	1736	729	-1242	-137	-18072	-1144	-15080	-61	-1964	-380	-9192	4192	13312	83	-283	-160	-17176	4416	-3424	277	532	394	-15072	3312	-5048	506	1649	-431	125	119	1
-780	-9964	9504	718	-3894	-1007	-4336	-1192	-3704	890	-1863	-290	-12416	1592	-14184	23	-2107	-406	-9120	3304	13432	79	142	-42	-17144	1328	-1848	-1210	225	272	-15840	2848	-2456	318	1645	-447	121	122	1
-1408	-10412	8328	434	-4348	-1777	-5216	-224	-2464	806	-2633	-282	-9160	1936	-13096	-61	-2036	-509	-9224	3448	13272	36	286	65	-16664	-1192	-816	-1748	413	-26	-16080	1352	-528	243	1629	-497	125	123	1
-1588	-10136	8196	466	-4364	-1889	-7024	-2040	-2304	956	-3293	-86	-9016	-384	-13504	54	-1962	-617	-8856	4464	13112	9	287	97	-16424	-2976	-264	-916	777	-85	-14984	1192	-800	552	1628	-345	124	123	1
-6176	-8980	8604	933	-4469	-2673	-7104	-3232	-4120	1245	-3816	132	-8264	-2264	-14272	243	-1918	-760	-9048	5016	13272	16	212	1	-13744	-1520	-288	758	980	117	-14176	1632	-2456	1261	1719	-119	124	122	1
-9612	-7616	10148	1174	-4599	-2980	-8328	-1280	-5008	1566	-4359	361	-5976	-3688	-14904	656	-1860	-727	-9368	4344	13208	116	121	-138	-15600	1896	-2816	1360	937	231	-13024	3112	-3528	1863	1735	-106	125	118	1
-12480	-6136	12928	1063	-4872	-3237	-12024	-1176	-6336	1753	-4847	636	-4328	-2736	-14720	1059	-1773	-600	-9352	3360	13408	180	100	-159	-16944	1664	-2280	1017	803	209	-15800	3424	-2056	1536	1815	-227	125	119	1
-17264	-7548	15964	925	-5037	-3312	-15368	48	-6616	2003	-5336	959	-3152	-2000	-13512	1596	-1624	-401	-9128	4056	13128	147	143	-101	-16264	1472	-2488	209	705	109	-16248	2632	-2640	1455	2225	-396	126	119	1
-21820	-8684	19120	756	-5173	-3336	-22136	1072	-9096	1847	-5748	1306	-2640	-2384	-12984	2193	-1191	-169	-9600	3888	12960	74	202	-54	-16392	128	-2864	-223	765	69	-14072	2880	-3328	998	2351	-260	123	123	1
-24744	-9612	20240	672	-5145	-3357	-22808	2848	-9456	1395	-6010	1595	-2832	-2072	-12616	2269	-1123	-159	-9576	3784	12968	107	318	-62	-15816	-584	-2176	-225	874	53	-13720	1480	-3976	261	1869	185	129	124	1
-28100	-12444	21824	601	-4775	-3418	-25272	1992	-9536	1051	-6182	1797	-3520	1232	-8952	1965	-739	29	-9624	3472	12776	103	263	-77	-14016	328	-2256	-48	996	107	-14816	3048	-4336	94	1119	-130	121	122	1
-32768	-20516	23364	754	-4557	-3633	-32712	-912	-11912	780	-6194	1620	-6136	5880	-4064	1869	-1156	230	-9488	4208	12920	116	298	-89	-15072	680	-2400	23	1083	119	-16632	4496	-4784	386	864	-419	128	125	1
-32768	-16660	17656	1165	-4358	-3955	-29232	-2240	-11552	1141	-5908	1214	-11672	3080	1432	1356	-1183	755	-9584	4408	12976	94	445	-118	-17512	520	-3680	88	1158	152	-17480	3840	-5272	801	1074	-516	125	126	1
-32768	-10600	8460	715	-4155	-4323	-27464	-8104	-14280	987	-4992	1274	-30272	5576	17312	1746	-2584	1183	-9640	4032	13096	77	574	-140	-17160	-264	-2960	158	1249	172	-17232	2352	-4072	723	1398	-309	121	123	1
-32768	-4056	-10168	265	-3603	-3300	-27224	-10096	-14360	1150	-4897	1308	-27928	12776	8976	2191	-1767	1360	-9056	3928	13896	137	721	-175	-17304	-1232	-2592	64	1371	162	-17296	-328	-2056	503	1510	-89	116	123	1
-32768	9924	-23240	-549	-2597	-1959	-6728	-3920	-17360	1903	-3013	953	-22888	21776	5008	2548	-1149	188	-9848	3096	13672	178	1090	-158	-17856	-3392	-2952	-128	1527	155	-19000	-3520	-304	593	1443	-166	80	123	1
-32768	4840	-30312	-735	-1180	-1705	968	-7760	-20280	833	-1069	-56	-6784	15424	28744	664	-1848	694	-9800	1656	14184	258	1511	16	-17496	-3552	-3224	-132	1554	156	-18408	2208	-3696	477	1120	-333	101	122	1
-32768	7688	-32768	-148	695	-822	-7248	-8064	-18576	34	744	-616	-13432	6664	17760	46	157	561	-10272	4480	13616	367	2258	150	-19832	904	-2480	-339	1957	17	-19408	10448	-4912	527	942	-298	119	122	1
-32768	6688	-26384	109	1891	-153	-5688	-8968	-17416	422	2325	-1005	-16344	5704	7320	-35	1415	-127	-10360	5688	13560	538	2848	12	-19944	2216	-2000	-491	2129	84	-20416	9080	-3472	340	474	-484	124	128	1
-14512	-8204	792	1461	3992	637	-19312	-7280	-3000	1233	2927	-1211	-14408	2304	-5528	-383	2305	-1023	-16448	7880	13136	733	3283	-217	-20392	1064	-1576	-405	2316	142	-20360	7016	-576	228	36	-644	138	137	1
21112	2992	32767	-329	4395	1130	-32768	20208	29360	4522	1366	514	-18728	-1872	-6912	-140	1830	-1819	-11648	8696	14944	798	4034	-360	-24520	1160	712	-10	2560	163	-23760	5904	3504	139	-303	-566	139	135	1
10688	4296	32767	-731	3947	2234	-15888	12008	-21184	1976	2780	-1226	-29640	3488	11800	-318	-132	-715	-12096	10184	14712	800	4944	-586	-26048	-712	2008	-41	2720	374	-27704	2440	9808	32	-1086	-306	147	138	1
-24372	-9556	16000	-942	3766	1734	-13568	18344	-2976	-1197	2305	-668	-23944	-1696	-15112	963	-262	-676	-10672	12504	15608	932	6171	-1132	-29688	-3032	4256	320	2898	662	-32584	176	20008	-122	-2654	-526	138	131	1
-16136	-16260	2868	-1245	3157	1107	-15992	-4120	10464	-4775	2677	-1816	4144	11952	-8504	1158	-176	563	-10312	12680	16120	1261	7895	-1962	-32768	-7976	8616	1036	2831	1077	-29464	-8448	16136	-1595	-2914	-871	96	117	1
-32768	-32768	14184	1	1367	1286	-11176	-26152	-12008	-1342	1691	-1534	-192	10336	-8680	1561	531	198	-22688	6568	12400	2396	9533	-2729	-28864	-6776	3248	1797	2732	1262	-10648	-10992	3112	1621	-2000	-588	120	118	1
-19480	-7884	19084	938	499	1117	-19328	-5320	-8056	2223	1881	-758	-11016	-8976	-13936	-1622	864	-246	-32768	4144	7680	3093	8792	-2040	-21496	744	-7736	3148	3163	875	-23616	8352	-12552	3809	-826	-124	129	118	1
-16176	-10672	10048	1016	-205	937	-15000	-6976	-11448	2654	1637	-251	-12592	-7744	-10768	-573	1003	-302	-32768	15048	7952	3161	5500	-3967	-26768	3720	-9280	3514	3363	526	-28984	9760	-21184	3149	-682	882	126	122	1
-12492	-3808	11568	697	-134	579	-18320	7488	-4768	1762	1140	-269	-13840	-4728	-12440	597	963	-679	-32768	18008	16608	3300	3971	-3334	-25904	4904	-13096	2936	2640	624	-29432	4072	-12032	290	-1625	1288	126	122	1
-10316	-6168	11888	421	-80	486	-18096	-1536	-4056	-287	1077	-420	-19416	-1232	-10936	307	1194	-730	-22080	16200	32767	2353	2343	-1044	-11560	8736	-16008	1076	1862	45	-25312	-3584	-15112	-1579	-2072	739	134	137	1
-9584	-6504	11852	167	-27	474	-16640	-856	-3888	-934	860	-668	-14768	-3840	-8192	210	1322	-406	-22904	30672	32767	203	-2419	-282	-9368	4672	-11528	71	715	-42	-23152	-5664	-10936	-1423	-2840	550	134	133	1
-10772	-5708	11292	131	-3	425	-17088	-3080	-5808	-1234	816	-647	-13592	-272	-5368	-14	1450	-288	-6328	11840	18016	-1501	-3873	427	-9920	-704	856	326	-202	89	-22912	-1576	-12200	-423	-2628	743	142	136	1
-10572	-5516	11112	120	75	252	-17160	-3408	-5624	-1219	814	-615	-15328	-912	-5872	-217	1632	-265	3488	3584	8304	-908	-4119	1031	-9512	424	-1368	340	-1079	363	-20960	-2072	-13784	-119	-2150	1093	139	138	1
-10372	-5148	11236	155	136	111	-17520	-5824	-4992	175	745	-279	-15688	-2096	-6296	-215	1593	-178	1080	3640	6856	-379	-3717	1288	-5576	1216	-2328	237	-1969	404	-16528	-4288	-13240	-181	-2302	1241	135	135	1
-9924	-5216	11316	138	202	61	-16608	-3584	-3736	1030	591	-91	-15448	-1584	-5544	-109	1477	-70	-5344	5376	8752	-461	-3751	1348	-4144	2632	-4088	-366	-2727	675	-13200	-3560	-12448	82	-2313	1208	135	134	1
-9948	-5828	10996	34	254	50	-16528	192	-3672	938	479	124	-15472	-776	-6168	81	1538	-259	-10664	4736	11960	-693	-4324	1582	-2712	1312	-6072	-1706	-3268	709	-10592	-3560	-12448	118	-2131	1272	126	127	1
-10116	-5688	10764	8	214	115	-16216	3280	-3528	28	439	-56	-15064	1704	-7344	-103	1701	-344	-9920	3648	12344	-733	-5029	1928	-3472	-2448	-4744	-2086	-3852	462	-8744	-3048	-12848	-132	-1954	1215	119	124	1
-10492	-4908	11172	0	152	153	-15656	1200	-4256	-1403	1082	-432	-11304	608	-7408	-432	1957	-249	-9808	1864	12104	-747	-5368	2143	-7592	-4088	-3664	-1306	-4473	126	-8224	-2184	-14224	-210	-1927	1194	118	123	1
-10168	-5032	10832	-43	142	104	-15232	-1672	-3304	-843	428	-207	-13616	1680	-5032	-605	2190	-465	-14392	1144	14592	-767	-5695	2241	-9536	-1864	-4768	-946	-5090	-114	-6192	-2072	-14848	-249	-1699	1150	119	121	1
-10032	-4704	10692	-42	109	75	-16824	-4288	-2352	-323	415	-295	-14504	-96	-3352	-543	2251	-289	-18160	-1152	16560	-679	-6268	2284	-11240	-2384	-6504	-877	-5667	-311	-3256	-1616	-13616	-614	-1264	987	112	121	1
-10120	-4772	10992	-29	111	81	-16224	-968	-2288	32	371	-221	-15536	40	-3016	-446	1794	-190	-20736	-2760	15456	-225	-6566	2249	-16040	-4416	-5192	-568	-6125	-557	-856	-1528	-15384	-935	-801	829	114	123	1
-10220	-5500	10748	-48	148	101	-16656	-176	-2528	-183	411	-209	-15168	904	-2008	-232	1617	-546	-25952	-472	16240	268	-6079	2014	-22816	-2312	-8968	-99	-6192	-711	-1304	-2008	-14680	-1520	-221	601	119	126	1
-10424	-5128	10548	-84	133	101	-15448	-800	-3096	-412	495	-219	-15272	-1608	-3952	-240	1237	-425	-32768	4184	21368	-62	-5566	1584	-26552	-1904	-10984	-254	-6378	-1003	-3816	1104	-6888	-1556	-84	690	120	123	1
-10844	-4892	10572	-47	119	103	-14792	-952	-1616	-591	561	-238	-17768	-1536	-6040	-711	1077	-119	-32768	14112	26216	-726	-5188	1403	-32648	-3096	-14256	-368	-6241	-1096	-10104	2736	48	-1851	-749	706	118	126	1
-10352	-5628	10452	-47	120	126	-15368	-2696	-1280	-525	706	-209	-17432	-1024	-3768	-972	1241	-34	-32768	16912	20712	-2067	-5497	2400	-32768	-1408	-20664	-1258	-6036	-1289	-13832	5744	2384	-2022	-1338	398	124	123	1
-10488	-5784	10356	-38	153	201	-16928	-1208	-960	-489	862	-230	-17792	-344	-1824	-932	1669	-136	-32768	10056	6720	-2648	-5366	3127	-28480	4032	-17136	-1517	-5366	-1540	-25592	8576	14144	-2523	-2118	321	120	122	1
-10168	-5644	11120	-53	225	221	-15984	-1512	-96	-547	1109	-286	-17848	304	-48	-708	1738	-395	-32768	2328	-18952	-2172	-4084	2003	-20440	1880	-21288	-1873	-4453	-1187	-32768	-1408	12720	-3550	-2109	420	119	120	1
-9916	-6016	12164	-84	473	273	-17704	56	-1000	-208	1305	-245	-18240	5136	-1080	-563	1638	-469	-32768	-9104	-32768	768	-2641	1683	-4408	7008	-21864	-1074	-2454	-203	-18000	-20352	23488	-1302	-1804	-1190	119	114	1
-10608	-3864	12228	-169	905	272	-18800	2920	-2304	-123	1562	-288	-19912	4800	-3568	-542	1386	-304	-32768	3984	-32768	785	-692	705	-5632	1720	-21648	434	-535	359	-9096	-5808	28312	1025	-279	-160	118	112	1
-11128	-3756	12676	-239	1417	134	-18928	8	-2632	-48	1840	-288	-21408	-2424	-3040	-559	1065	-228	-32768	-1216	-30960	313	236	77	-10448	7784	-22560	1714	1628	564	-7496	-4328	26840	1122	-38	9	117	118	1
-11048	-5988	12372	-273	2054	128	-20256	-1792	-2640	224	2091	-283	-21696	-3176	-2688	-141	674	65	-32768	4944	-19688	476	1070	-221	-11536	8176	-19840	938	2679	818	-16216	2528	2640	1233	2531	817	117	121	1
-10876	-7512	12176	-290	2782	324	-20416	-1472	-1528	204	2286	-373	-22120	-1360	-256	69	62	333	32767	-10176	32767	-2773	224	239	-25840	-11488	31288	824	1808	44	1704	0	-9872	589	4008	460	118	122	1
-15520	-9168	13400	-734	3651	784	-22088	-1544	152	-151	2451	-452	-22912	-1808	2688	89	-199	495	7968	-32768	23616	2787	2466	-1929	-32768	-6008	8872	-2208	900	672	-22440	4200	-14744	1513	2441	187	121	121	1
-16664	-2672	3992	-1043	4395	1019	-26272	-960	-2424	-148	2766	-528	-27592	1952	5440	145	-647	319	-32768	-11312	3568	1414	3128	-1891	-2120	-11256	-25232	-2595	1597	549	-31288	17832	8464	-1200	-158	171	112	105	1
-13712	-13428	12548	-1278	4991	1733	-26544	1696	3640	-451	2891	-960	-27952	7112	13784	-2	-1886	327	-19104	26464	20432	802	3106	156	-21152	-5488	6168	-582	2214	-262	-19440	-3480	2832	-2937	-56	-179	104	103	1
-12952	-16700	12908	-988	5758	2697	-31392	3192	3544	-1312	2948	-1391	-30880	12040	18568	1257	-3397	743	-18488	28936	16336	784	3069	279	-27456	8864	-4488	-120	2005	806	-15864	-15392	3176	-667	1272	-1177	106	98	1
-16440	-12092	13040	-1432	7330	3793	-32768	2872	9384	-2271	2536	-1870	-15096	15424	-5632	2252	-2246	1673	-19592	2344	13784	-248	1244	-485	-16448	3232	-5952	-751	1824	801	-19208	7552	-10752	800	1203	881	118	112	1
-31260	-11652	15104	-2305	8004	4196	-23552	240	-4696	-2331	2880	-1492	-14680	4576	-4040	-3285	-720	809	-16624	4320	17424	-98	-382	-785	-18208	1872	-3368	-738	1731	695	-9000	8080	-7128	1014	662	143	123	119	1
-32768	-7808	19544	-3346	4624	3710	-21304	-8712	-9328	-2311	2867	-993	-31784	-5680	-20880	-4134	-118	-255	-11048	5096	14296	153	103	-564	-14128	112	-5248	-1084	1468	592	-7896	7080	-6120	782	621	-88	130	131	1
-32768	-26160	18848	-2359	2946	3111	-25544	-4208	-17880	-2400	2909	-822	-32392	-5832	-16912	-3836	-1626	-1060	-10928	3696	13056	-99	-82	-350	-15616	-3760	-5280	-547	1298	390	-17624	-1144	-8640	473	1518	256	131	115	1
-27396	-7584	32767	-1939	586	2210	-19224	-152	-7184	-2182	1842	-701	-25384	6752	-19608	-1855	-1891	-1005	-9728	3432	13288	-265	27	-57	-18632	-3680	-4112	612	1239	367	-16200	6120	-10640	702	1186	276	126	120	1
-4008	-25992	24992	-1831	-2142	639	-14336	-7024	-1264	-2026	699	-598	-22976	4384	-14752	-566	-2597	-431	-9720	4544	13320	-136	95	-21	-18560	1048	-4880	1657	1211	239	-14616	5896	-9824	457	1302	3	125	119	1
4632	-17168	13432	-540	-2391	745	-6840	-3048	408	-552	-642	-358	-19576	-256	-13992	-465	-2473	-295	-10112	4472	13128	-29	114	-94	-17376	5168	-4288	1383	913	352	-14224	1832	-6344	550	1488	-221	126	122	1
3648	-14284	11412	-764	-2497	-544	-3328	640	-1480	-394	-1438	-342	-13976	-64	-14168	-452	-2122	-173	-9680	3808	13048	31	122	-69	-17184	5232	-4392	1225	856	359	-14728	2136	-6208	655	1559	-216	127	122	1
344	-16608	11128	-463	-2985	-1717	-5248	-2264	-2760	-379	-2197	-437	-10288	2504	-13992	-323	-1995	-312	-9144	3608	13200	48	185	20	-17344	672	-2824	-446	397	125	-15272	4536	-7016	537	1606	-281	126	124	1
-1400	-13516	9636	293	-3418	-2423	-5704	-4832	-2784	238	-2795	-436	-9992	888	-13808	-113	-1836	-490	-9536	4192	13376	60	240	83	-17152	808	-3464	-891	402	-64	-14592	2544	-5432	386	1583	-355	127	127	1
-4940	-8776	9796	617	-3751	-3032	-5552	-4832	-4568	1422	-3377	-227	-10008	-2416	-14968	107	-1735	-707	-9320	4328	13240	56	213	33	-16080	-2368	-2528	-410	459	-149	-14040	800	-5728	579	1744	-461	127	121	1
-6912	-6600	10296	744	-4116	-3459	-6576	-2624	-3992	2037	-4008	118	-7576	-3200	-14792	434	-1748	-755	-9192	4352	13336	78	164	-73	-16000	-1720	-1792	858	584	66	-14256	1728	-4896	986	1906	-221	122	118	1
-12244	-4700	12880	654	-4494	-3579	-8576	-1376	-6384	2172	-4525	380	-6056	-3320	-14808	857	-1780	-629	-9352	4368	12928	111	102	-106	-16216	-232	-2384	1430	472	142	-13200	2088	-4008	1322	1988	-257	122	121	1
-14572	-4812	14784	457	-4979	-3706	-12448	-792	-6256	2523	-5048	721	-3928	-2512	-14584	1335	-1782	-459	-9704	3632	12688	120	110	-83	-16904	304	-2488	1361	417	163	-13920	888	-784	1304	2012	-340	124	119	1
-15476	-3992	14724	312	-5029	-3734	-16480	1600	-7032	2811	-5432	1134	-2328	-2024	-15128	1931	-1504	-252	-9280	3792	12992	119	168	-46	-16568	632	88	977	432	65	-13936	1664	1680	1256	2161	-205	124	119	1
-18856	-4256	14620	-108	-4611	-3804	-19568	3064	-9160	2602	-5638	1500	-2336	-1144	-13808	2397	-863	-220	-9264	4424	12736	71	167	-54	-15464	1336	472	468	519	58	-15616	4216	-1320	588	2021	62	122	126	1
-28200	-8132	19560	-75	-4214	-3705	-20352	2840	-9032	1415	-5660	2010	-2928	624	-8960	2261	-682	-296	-9480	4240	12504	29	118	-76	-13192	584	-56	217	654	50	-18048	4848	-8656	398	1148	-235	124	126	1
-32768	-11732	25192	233	-4199	-3149	-29032	3552	-9072	60	-5710	2128	-4864	2248	-2184	2228	-1220	-69	-9960	4288	12264	8	49	-116	-13760	32	-744	70	959	58	-19056	4488	-6824	454	687	-389	132	133	1
-32768	-17860	24820	296	-4445	-3167	-32768	-3352	-15656	-214	-5697	1543	-9992	2832	2976	2329	-1664	516	-9728	4248	12392	13	34	-141	-16304	256	-1736	9	910	26	-16720	5416	-3088	479	1030	-357	133	127	1
-32768	-14388	12040	631	-4116	-3480	-32240	-2432	-15824	794	-5567	1045	-16504	3632	2120	1308	-1190	989	-9720	4736	12576	17	89	-153	-17328	-48	56	91	1090	22	-17016	2440	-1544	765	1327	-305	127	127	1
-32768	-9612	6700	468	-3564	-3780	-17992	-8352	-18640	1367	-4732	1196	-29960	8472	12648	1444	-1510	1060	-9072	4464	12704	-5	133	-180	-14544	80	1952	106	1242	109	-16888	1680	1936	758	1174	-156	124	128	1
-32768	-280	-5968	426	-3662	-3349	-17720	-264	-15632	1081	-4081	1628	-32768	10600	1872	2088	-1130	771	-9216	4152	13224	72	291	-212	-14768	-1888	1112	-123	1434	70	-32768	15344	-25696	759	938	-51	115	128	1
-32768	13076	-21756	-17	-2843	-2184	-14984	-11608	-27560	204	-3761	359	-14520	21648	9136	1270	-1754	269	-9768	3392	13280	170	542	-200	-16648	-2952	-320	-304	1832	85	-19392	-1192	-984	712	1078	126	97	124	1
-32768	9576	-26628	-284	-1501	-979	-29664	32767	-15144	423	-1158	227	-7848	17432	23344	-40	-1353	333	-9704	3384	13896	277	927	-131	-18192	-496	-1928	-640	1930	11	-18576	5616	-4344	651	810	-25	106	121	1
-32768	9180	-28956	-31	-168	-181	-6576	-5928	-16688	-265	488	-448	-13224	6704	17192	-123	362	348	-10248	4696	14088	412	1399	-79	-19408	624	-2504	-757	2132	-5	-18192	8016	-5040	535	607	-180	121	125	1
-32768	5656	-21484	357	1264	118	-8576	-7152	-18608	580	1994	-650	-18320	5088	6064	-214	1441	28	-9088	5144	14472	504	2085	-129	-20200	616	-3368	-796	2262	45	-19080	6304	-4600	330	269	-342	129	131	1
-19040	-4148	-6488	1182	3165	1060	-16024	-4296	-7448	911	2642	-783	-15768	3072	-3696	-463	2150	-656	-9600	4560	14184	556	2688	-217	-19896	-1320	-3664	-775	2392	114	-19176	5320	-1984	239	-108	-471	136	138	1
22940	-12120	32767	836	3029	878	-32768	12872	32767	2563	1271	-4	-11232	-1776	-10200	85	1798	-1765	-11272	3944	14728	1051	3517	-299	-22824	-920	-2440	-456	2624	132	-22272	5024	368	103	-483	-517	147	141	1
-24772	16680	16672	-663	2775	3398	-22328	11328	-14376	2583	1935	-948	-12408	2264	-10608	224	1492	-1514	-12728	6256	15664	1079	4499	-221	-26024	-2624	-1720	-392	2807	245	-26416	2456	6208	-104	-1106	-438	148	140	1
-22220	-2764	3196	-818	2891	1461	-10472	12832	-6416	-1285	2191	-481	-21952	-120	-9432	219	106	-558	-11720	9096	15416	1242	5711	-378	-28224	-3576	1736	-117	2927	527	-30808	1336	17376	-386	-2718	-655	144	134	1
-13280	-18176	9744	-1499	2761	839	-8968	-32768	-32768	-3192	2397	-1177	-11184	1712	-4800	570	-19	149	-11752	12848	16120	1681	7090	-955	-32768	-7528	7152	488	2955	913	-29688	-6952	17912	-2133	-3046	-1001	116	122	1
-32768	-18312	28788	78	2009	1462	-14024	-19160	-16752	-3010	1976	-1518	-8912	8024	5760	1061	991	-959	-12048	7064	16920	1901	8787	-1917	-32168	-7424	10464	1519	2875	1134	-11576	-16336	9024	489	-2477	-888	112	120	1
-19856	-6188	16384	1499	617	1508	-16472	-9136	-12696	677	1978	-742	-15776	-6192	-14704	-828	1042	-547	-32752	11512	13160	3054	9321	-2093	-22512	-304	-4472	2419	2877	953	-23520	5656	-4464	3176	-1174	-490	127	120	1
-17840	-6088	11200	975	-304	984	-19272	-6040	-11072	1896	1672	-278	-13224	-5944	-11544	-662	1035	-137	-32768	11480	5952	2875	7685	-3399	-20232	4736	-9072	3069	3016	521	-27880	12000	-23880	3974	-149	499	129	122	1
-12016	-2340	13080	855	-113	544	-16952	-1560	-6120	2457	1183	-186	-14808	-4096	-9336	571	849	-364	-30568	17160	12400	2595	4286	-4188	-27064	4640	-15832	1849	2954	626	-29552	10632	-13128	939	-1313	1156	127	127	1
-10792	-6272	10768	466	23	235	-19016	3552	-3536	949	976	-134	-15240	-280	-10048	751	1000	-508	-31936	12832	18280	3295	4302	-1802	-18768	3280	-7368	1052	1886	82	-28776	-2872	-13488	-904	-1994	917	130	133	1
-10408	-6164	11380	227	50	237	-16608	-1776	-3992	-126	786	-330	-17312	-1816	-8656	376	1129	-256	-32768	25672	21568	2025	1795	-1693	-7160	9840	-16416	138	971	21	-22936	-3072	-12552	-1387	-2665	798	129	128	1
-10372	-6308	11008	57	54	250	-17184	-840	-4416	-748	616	-452	-13848	-1272	-7560	203	1288	-168	-18480	27208	29600	34	-2831	47	-4960	1016	-9048	-94	-238	-145	-19960	-4280	-11760	-703	-2796	724	138	133	1
-10700	-6020	10912	86	55	178	-16696	-344	-3648	-1120	648	-522	-15064	-952	-6688	-361	1449	-281	-9976	12632	14400	-1839	-4626	787	-8104	1128	-1600	1100	-501	66	-21400	1216	-14480	-167	-2353	865	131	134	1
-10332	-5424	11024	103	64	102	-17816	-2784	-3944	-1277	620	-373	-16024	-1528	-5496	-312	1469	-384	1288	3944	6592	-1591	-5217	1153	-6840	3496	-1864	1178	-1577	292	-16600	-1104	-14208	-218	-2243	1214	128	127	1
-9892	-5400	11064	34	106	60	-17752	-3936	-3072	-882	484	-273	-14696	200	-4968	-223	1370	-317	1032	1616	4624	-695	-4805	1050	-3112	3928	-672	791	-2478	378	-13792	-3208	-13000	-41	-2281	1138	129	124	1
-9872	-5312	11048	-13	121	46	-16224	-4616	-2952	-92	372	-188	-14408	-128	-5080	-308	1410	-240	-5720	4544	5976	0	-4792	1251	-3536	3552	-4520	-231	-3043	563	-10880	-2360	-12560	60	-2119	1158	125	123	1
-9920	-5320	11104	-46	129	27	-15280	-808	-2392	426	248	111	-16168	496	-5128	-359	1564	-193	-9880	8616	8736	-207	-5133	1493	-2816	3160	-6320	-1530	-3691	591	-8568	-1976	-12928	-55	-1908	1131	118	122	1
-9992	-4780	10548	-111	103	-21	-19496	1880	-7384	26	-111	53	-13504	1248	-3824	-655	2054	-235	-8216	6968	9528	-814	-5493	1713	-3760	-992	-3216	-1803	-4342	435	-6112	-2296	-12432	-286	-1519	1090	116	123	1
-10280	-5380	10808	-69	96	33	-16200	2104	-2920	-778	383	-93	-13752	2536	-5056	-882	2163	-211	-10760	5560	10456	-967	-5537	2041	-8160	-2456	-4104	-1403	-4879	214	-5136	-1664	-14376	-361	-1506	1157	119	123	1
-9996	-5628	10672	-71	42	28	-16256	-296	-1640	-1351	357	-310	-13688	616	-2888	-1156	2472	-529	-15600	4448	13680	-824	-5848	2386	-10776	-1984	-5392	-1035	-5306	-37	-3456	-888	-14248	-496	-1091	1158	117	122	1
-10008	-5092	10848	-50	30	14	-16144	-40	-1672	-1390	338	-317	-16912	-536	-1744	-950	2070	-624	-19504	3480	15856	-538	-6196	2700	-13752	-344	-6392	-782	-5860	-312	-888	-1280	-14824	-1068	-501	1051	115	122	1
-9888	-5372	10936	-38	46	51	-16616	-2712	-1280	-915	443	-174	-15424	-896	-912	-578	1483	-510	-24200	2288	16288	-170	-6258	2723	-20232	-2088	-6472	-776	-6259	-415	-64	-2560	-14864	-1696	223	769	116	121	1
-9904	-5580	10728	-11	45	62	-15608	-1936	-1280	-329	453	-50	-14640	-2472	-3576	-414	1093	-252	-32768	3736	19096	125	-5881	2520	-26728	408	-9896	-769	-6356	-638	-3280	-1104	-9200	-1970	457	772	121	124	1
-10212	-5212	10740	17	9	61	-14344	-264	-1328	-165	529	30	-16664	-1472	-5264	-543	980	-220	-32768	11368	23168	18	-5554	2022	-32768	-5416	-11032	-790	-6337	-925	-10904	48	1640	-2256	-519	466	120	120	1
-10436	-4980	10844	42	-3	58	-15416	-72	-1776	-384	667	-28	-17080	-128	-5520	-649	1299	18	-32768	13096	22072	-942	-5087	1789	-31728	-7928	-18016	-663	-5973	-754	-12832	632	3784	-2386	-865	344	120	122	1
-9768	-5980	10908	28	42	70	-17680	-2160	-1416	-504	727	-117	-16952	-816	-4480	-565	1659	100	-32768	8032	14256	-1170	-5318	2869	-31280	-792	-16536	-629	-5447	-853	-24088	5016	13048	-1691	-1743	82	119	120	1
-10024	-5932	10644	23	71	146	-17352	-1568	256	-446	917	-157	-18192	-536	-1704	-477	1786	-38	-32768	-2312	-264	-1434	-4532	2404	-22496	176	-12960	110	-4605	-1175	-31712	4000	13040	-1899	-2003	678	118	120	1
-9396	-5484	11220	-38	166	172	-15728	-2072	1424	-178	1152	-135	-18864	1440	1360	-246	1671	-177	-32768	-11232	-22832	-689	-3556	656	-13968	-1552	-17880	495	-3192	-337	-20024	-13960	12056	-412	-1676	405	115	114	1
-9792	-5024	11660	-124	358	194	-16832	1288	1664	356	1376	-55	-20456	6760	552	-112	1248	-185	-32768	-9080	-26976	1422	-2250	152	-5816	3792	-19080	467	-1507	150	-7272	-10960	32696	1616	-1452	-197	118	111	1
-10272	-4708	11816	-261	614	131	-16704	1448	-576	517	1729	-105	-18896	3728	-1984	-352	1026	-102	-32768	-984	-26392	619	-666	-1037	-7192	-2200	-14768	1619	313	360	-14856	2872	24784	1353	14	37	114	117	1
-10828	-4964	12428	-396	1006	43	-19800	-256	-2752	432	1992	-107	-20440	-1376	-3832	-381	962	-104	-32768	104	-17112	-104	344	-1132	-11368	3000	-17704	1672	1796	425	-18856	4280	10968	827	1442	41	115	121	1
-10396	-6452	12928	-694	1493	-13	-21776	-624	-3480	388	2160	-188	-20744	-1240	-5640	-328	667	-29	-12144	3160	-6040	-2109	1704	-1562	-11480	3096	-17064	1540	1937	434	-20808	336	-464	1047	2957	334	118	118	1
-11312	-7576	12992	-597	2266	464	-20696	8	-3992	250	2281	-247	-20352	-1152	-4120	-273	172	221	27056	5704	32767	-781	3006	27	-32768	-9824	32767	470	1365	-767	-18264	120	-1120	648	2658	690	114	114	1
-11544	-5384	12260	-664	3149	698	-22504	-1280	-3448	69	2407	-186	-22016	-1456	-2440	-91	-149	413	-12024	-23792	9408	603	3419	-2324	-20808	-6680	-12576	-3572	1511	845	-15456	10656	3232	776	1025	349	118	108	1
-13076	-8956	10976	-1085	4317	782	-25672	-1360	-2128	180	2547	-169	-23744	2408	1128	62	-567	368	-27216	2128	19416	251	3236	-803	-8816	-22080	-4488	-1999	2476	-384	-22024	11256	6264	-1057	-94	244	111	105	1
-12368	-8480	11360	-1688	5116	1514	-24280	1608	976	-82	2672	-459	-26680	3696	7472	82	-1413	556	-16120	17352	16872	590	2462	170	-24696	1600	-1640	774	2372	92	-16408	1224	-6792	-1759	895	-18	104	107	1
-11828	-12600	10196	-2112	5744	1802	-28968	5232	696	-721	2617	-667	-31008	6696	12184	853	-2723	931	-12808	9392	12224	5	2352	-220	-17512	10144	-4312	805	2436	525	-16416	1368	-8224	-1519	781	-135	114	108	1
-15560	-14048	13476	-2112	6608	2590	-32768	8192	5856	-1775	2492	-1104	-26704	19784	7208	3851	-3514	1874	-23032	10936	22608	-355	1336	-869	-12168	5880	-6984	-292	1716	484	-11736	-2856	-4448	-357	1170	-139	121	115	1
-16124	-8956	10340	-2242	8157	3367	-28048	4984	6808	-2636	2467	-1136	-5520	15912	-3808	-1697	-1647	1592	-11072	7368	13568	-450	74	-709	-18568	3096	-4280	-689	1474	407	-14816	6936	-14536	960	1164	226	125	125	1
-25260	-6076	8044	-2940	7941	3373	-17520	-5304	-3560	-3671	2611	-497	-17688	-6632	-6264	-2886	-481	519	-14192	2576	16320	-308	26	-931	-17120	1600	-8072	-1262	1214	92	-13120	6096	-12896	864	909	72	126	130	1
-32768	-19036	5452	-2703	4991	3593	-20192	-10296	-8144	-2778	2695	-199	-27808	-7608	-15920	-3926	42	-82	-10992	2880	14936	-280	-217	-313	-19048	-6960	-5240	-1424	995	-40	-21616	-688	-7968	355	1659	352	125	117	1
-32768	-24592	10504	-2425	3471	3759	-22768	-11944	-18568	-1952	2290	-331	-31984	-5008	-13312	-2580	-1352	-1090	-9968	3120	13840	-105	124	-87	-16752	-6656	-3472	194	1057	240	-18136	1392	-5160	528	1281	134	124	113	1
-21256	-19692	17268	-2427	2132	1816	-17400	-392	-15216	-270	1600	156	-24632	32	-13840	-969	-1596	-840	-9968	3600	13352	-16	-49	-51	-16136	-480	-3184	1504	1061	258	-12680	2320	-3624	520	1197	-130	122	118	1
-32768	-32768	31676	263	-1401	-372	-15264	-5840	-9920	37	585	-93	-21848	-920	-14576	-129	-2039	-408	-9344	3856	13320	8	-225	-114	-16544	2488	-2576	1816	946	318	-14488	2544	-3760	765	1345	-259	125	119	1
-6516	-29292	23372	2089	-4185	-1321	-6816	-7488	3688	-16	-435	129	-20168	-1400	-13128	353	-2495	-236	-8768	4280	13128	29	1	-152	-17736	3208	-2432	967	733	296	-14704	4480	-3840	801	1345	-259	125	117	1
1620	-10408	10184	2557	-4593	-913	-9296	-6336	1904	522	-1272	-25	-15912	-3104	-12384	369	-2328	-190	-8832	4032	13648	-78	56	-133	-17336	2160	-1816	-97	520	163	-15672	6384	-5328	696	1393	-318	120	119	1
880	-3508	8016	1612	-4686	-1259	-6808	-4144	-1224	1746	-1931	-17	-11840	-64	-13104	479	-2074	-173	-9160	3936	13536	-140	79	-79	-17040	2368	-2608	-928	437	-95	-15192	4200	-5072	357	1480	-374	122	120	1
-4580	-8500	8384	745	-5071	-1792	-5608	-1768	-3088	2013	-2653	181	-9352	2384	-12176	490	-2072	-185	-9696	4016	13368	-90	59	-27	-15648	-968	-2656	-942	581	-147	-15272	1128	-4928	475	1518	-382	124	123	1
-6024	-12036	8708	816	-5407	-2032	-6984	-1072	-1264	1844	-3474	363	-9528	728	-12352	526	-1928	-262	-8968	3664	13480	-9	27	-38	-16120	-3112	-2136	-4	688	-114	-14000	152	-4672	864	1601	-332	124	116	1
-6532	-9784	8756	1130	-5487	-2276	-8624	-424	-3424	1443	-3954	514	-9840	496	-12328	542	-1919	-278	-8728	3504	13328	49	-23	-73	-16240	-2016	-1536	859	749	-9	-13560	1424	-5664	1274	1784	-338	124	116	1
-8480	-7948	9316	1156	-5301	-2696	-12528	1112	-3360	1426	-4558	838	-7320	-2656	-12888	873	-1929	-475	-8728	3760	13192	87	-37	-114	-16936	992	-2504	1137	687	55	-14104	2648	-6232	1401	1868	-397	126	118	1
-12324	-8892	11800	983	-5060	-3139	-15648	1000	-5304	1327	-4907	1070	-5472	-2240	-12440	1076	-1821	-381	-8824	3488	13432	121	3	-79	-17824	928	-424	875	532	121	-15360	3640	-2360	1270	1955	-531	124	122	1
-17520	-10332	15644	950	-4853	-3337	-17960	1656	-6480	1148	-5271	1260	-5024	-1512	-12656	1379	-1501	-359	-9464	3064	13416	145	81	-54	-16232	1824	-880	-118	498	4	-14584	3280	352	923	1951	-664	126	127	1
-21488	-11040	18308	876	-4816	-3455	-21832	432	-8632	935	-5624	1317	-3400	-424	-11544	1656	-964	-330	-8856	3784	13112	97	123	-14	-13968	824	-912	-500	594	-105	-12328	2848	544	769	2278	-485	125	126	1
-23940	-12204	19384	744	-4538	-3479	-25352	48	-9000	984	-5922	1455	-2960	2168	-9312	1575	-674	-278	-8688	4024	13096	68	145	-59	-15072	488	-480	-465	664	-74	-12880	2888	608	339	2238	-196	124	125	1
-29544	-19068	22376	747	-4187	-3481	-31752	-432	-11904	806	-6144	1461	-6032	4360	-5472	1540	-913	-48	-8904	3640	13360	80	177	-146	-16232	-208	-424	-265	901	5	-16520	2208	-3408	-125	1378	60	122	126	1
-32768	-22940	22856	953	-3982	-3849	-32768	-6160	-10656	980	-6142	1267	-11192	6256	2040	1698	-1651	717	-9416	4528	13032	75	170	-199	-14280	312	-808	-100	1125	25	-20568	4632	-7128	323	448	-473	124	128	1
-32768	-15940	13380	1188	-3974	-4366	-23664	-5152	-12368	1977	-5689	1182	-10704	4344	-416	1610	-1613	872	-9192	4072	13088	87	249	-214	-15072	-72	-752	-150	1287	23	-23112	9624	-5272	427	311	-507	122	126	1
-32768	-7768	1760	966	-4132	-4380	-24840	-7592	-14280	1676	-4607	1470	-32768	5312	15704	2480	-2160	764	-9160	3640	13672	112	379	-185	-17424	-624	-1584	-333	1429	6	-16976	1208	880	354	1088	-173	121	121	1
-32768	-36	-16788	597	-3281	-3242	-23832	-4096	-32768	1898	-4793	1281	-28192	15064	4936	2868	-947	292	-9560	3984	13608	142	658	-193	-17288	-1440	-920	-398	1635	49	-17472	-6720	2288	797	1390	-121	116	123	1
-32768	15196	-26692	344	-2124	-1407	-3592	-616	-17528	1754	-1975	614	-17464	19696	15528	1588	-1624	389	-9760	4496	13920	184	924	-206	-15088	-1136	-232	-377	1970	66	-19216	-728	1328	760	995	-54	85	126	1
-32768	15488	-27744	89	-1934	-1367	-2656	-2760	-21152	-105	-497	-334	-8768	11752	23152	315	-763	673	-9152	2424	14768	247	1226	-173	-17584	-1032	-2624	-449	2280	8	-19896	1184	720	709	894	-26	92	127	1
-32768	9940	-31468	-205	397	182	-6600	-9224	-21648	25	1416	-701	-11320	7992	15784	73	496	523	-9296	5456	15352	366	1960	-168	-22032	-1560	-3192	-461	2513	-16	-20864	7008	-4312	651	213	-90	117	131	1
-32768	4840	-19724	377	1459	688	-8640	-6272	-17288	454	2764	-827	-15384	5424	3592	-55	1473	-268	-10752	4440	13744	405	2821	-304	-22280	-728	-5088	-635	2652	130	-20456	5528	-2544	560	-242	-392	134	138	1
6508	-12480	30332	962	2499	1095	-31576	2536	23408	1345	2230	-777	-9576	-3064	-1840	-69	1982	-1722	-16152	5800	15408	654	3495	-470	-23232	-1416	-2472	-476	2790	214	-21248	5464	960	275	-654	-694	151	142	1
7412	-1464	30704	-2495	2114	2943	-32768	15208	4088	3232	1455	-490	-32032	3736	-5112	-1552	1528	-951	-10352	7576	15944	700	4648	-654	-28504	360	-1688	-255	2980	235	-29272	6104	9480	-162	-1331	-689	158	145	1
-32768	-332	2908	-1041	2890	2172	-9184	1984	-17720	-1460	3053	-1095	-27696	1248	-6680	-794	-168	-770	-11320	13072	15648	606	5861	-1189	-32320	-3344	4360	-231	2910	658	-32768	1376	20600	-1355	-3077	-685	146	135	1
-14252	-21556	18908	-1094	2480	1335	-21696	-1400	-6616	-2547	2194	-922	-4376	4640	-11480	1250	-384	-130	-10664	15408	21440	647	7952	-1875	-32768	-6856	11728	596	2990	1093	-19736	-10112	1464	-1052	-2520	-1198	123	122	1
-14640	-7480	7544	-483	2839	1204	-19632	-8024	-20968	-3027	3594	-1412	-8232	12168	-7688	23	1390	-861	-8416	6456	18216	1560	10223	-2968	-32288	-4200	9384	1508	2865	1233	-20568	-9176	12064	1010	-2347	-761	125	123	1
-32768	-23824	17596	92	941	1361	-17624	-7992	-10768	168	1342	-499	-16912	-2552	-10584	-1660	897	-892	-32768	5904	14776	2589	10400	-3065	-22776	-80	-5176	2815	2840	1012	-21504	7808	-7272	3670	-975	-171	131	123	1
-12056	-11848	12112	1119	674	991	-19752	-2408	-9544	-273	1385	-677	-16008	-13616	-11456	-1605	1116	-270	-32768	6768	7568	2901	7972	-4400	-20832	6248	-9936	3471	3100	531	-28800	12320	-25936	4016	-190	739	129	120	1
-12804	-4788	13484	800	89	540	-18912	-6440	-7912	834	1226	-556	-14264	-9824	-9368	870	862	-291	-32768	17544	18360	3107	4038	-4530	-27136	10032	-19232	2800	2794	577	-32768	9992	-14728	345	-1366	1466	126	124	1
-11520	-6292	12008	561	64	272	-18136	-6400	-6328	1955	933	-360	-16168	160	-8408	1405	1098	-419	-24192	17456	30680	3218	3450	-660	-15624	6168	-14928	808	1702	47	-28352	-3608	-13480	-1257	-2032	999	131	135	1
-10100	-6908	11296	252	125	222	-17664	3488	-2464	1411	615	34	-18664	1528	-8760	1049	1097	-348	-32768	32767	32767	-1185	80	144	-3880	8608	-17784	416	332	-3	-22864	-4152	-13264	-1511	-2907	817	132	133	1
-10064	-5104	12004	171	219	132	-16824	3136	-3624	-353	510	-192	-18120	2488	-7888	965	1103	-321	-13856	18616	20880	-2655	-3770	1562	-5704	840	-1312	194	-368	50	-21504	-2640	-13000	-608	-2836	885	138	131	1
-10444	-6064	11360	19	287	44	-17480	1608	-2888	-1296	463	-431	-14296	736	-5256	-159	1508	-308	-1704	232	7936	-2169	-4831	2124	-8512	4384	-816	369	-921	164	-19656	1144	-13968	-281	-2404	1342	130	134	1
-10016	-5644	11080	-158	288	-19	-17824	-1448	-3048	-1756	513	-558	-15968	64	-5400	-616	1743	-377	6320	-1200	3384	-1045	-4491	1995	-5664	2864	-288	88	-2232	345	-15376	-2520	-14352	-211	-2391	1355	125	128	1
-10000	-5920	11108	-274	314	-24	-17568	-3568	-3176	-1452	406	-508	-15512	-632	-4912	-906	1705	-316	4088	-544	3352	-878	-4356	1922	-3864	4872	-3312	-405	-2777	629	-12728	-3112	-13384	260	-2491	1292	127	128	1
-10088	-6920	11160	-338	296	-31	-16440	-5448	-2800	-544	362	-367	-14616	-1576	-4928	-791	1619	-204	-10688	5096	9440	-320	-4527	1286	-1904	4752	-7560	-1991	-3343	863	-9096	-4048	-12456	389	-2014	1303	125	127	1
-9660	-5636	10748	-221	208	7	-14216	1008	2824	-42	802	-1	-12160	-3024	-5304	-594	1416	-33	-8624	4192	9496	-329	-5244	1485	-1200	-1032	-4544	-2625	-4057	657	-6184	-2904	-12544	-53	-1840	1263	118	124	1
-9796	-5944	10704	-196	218	-26	-17032	-608	-1112	475	188	194	-14640	1416	-4792	-359	1686	-99	-7696	4656	9432	-387	-5371	1733	-4848	-4600	-3712	-1913	-4631	336	-5960	-4368	-14144	-283	-1750	1206	119	125	1
-10116	-5884	10612	-254	147	6	-16440	1160	-1496	25	265	19	-12760	3656	-3208	-685	2307	-235	-10576	2520	12176	-384	-5388	1975	-9160	-3432	-5544	-1093	-5146	33	-4992	-2712	-12960	-414	-1465	1239	119	127	1
-10072	-6148	10212	-230	44	-60	-16376	1744	-1584	-93	269	6	-14168	1056	-1864	-971	2482	-496	-18152	1256	15768	-224	-5514	2199	-12760	-3712	-7664	-558	-5616	-408	-4056	-1888	-11984	-671	-1032	1122	122	128	1
-10144	-6600	10092	-126	-64	19	-16184	-2344	-8	-1277	485	-413	-14000	-2976	288	-900	2239	-613	-26176	-696	19384	-68	-5801	2121	-17224	-6808	-7648	55	-6015	-498	-2192	-3432	-11648	-1192	-721	832	118	125	1
-9552	-6412	10444	32	-183	166	-15144	-3552	152	-957	626	-387	-20968	-1224	1200	-423	1768	-816	-31120	192	18856	230	-6205	1815	-19976	-7472	-8480	1235	-6018	-346	-1424	-4064	-10528	-1126	-223	484	113	121	1
-9040	-7248	10132	186	-288	314	-15096	-3064	616	-182	676	-207	-14248	-1032	-496	-86	1313	-170	-32768	5672	19472	280	-6161	1646	-24320	-912	-9344	1864	-6099	24	-3752	-3936	-5304	-908	-199	487	114	118	1
-9712	-6004	10656	274	-244	385	-13432	-1368	-984	487	769	-125	-18056	-936	-5168	-292	1130	-189	-32768	5128	19160	108	-5830	1896	-31248	40	-9208	837	-6235	242	-11032	1240	5024	-1079	-1137	369	116	118	1
-10360	-5408	10548	183	-86	260	-17032	3168	-2104	172	861	-72	-18528	344	-7440	-467	1101	58	-32768	4560	16584	191	-5505	2330	-30672	-3584	-10424	79	-5811	51	-18288	8816	10368	-697	-1605	201	114	119	1
-9652	-5364	10856	51	69	213	-19648	-416	-1536	-620	1023	-256	-17032	640	-4368	-575	1694	179	-32768	-2368	7304	-174	-5119	2195	-26680	-1416	-14232	75	-4876	-66	-25360	11904	9864	-1409	-1864	842	111	116	1
-9484	-7304	10460	-31	198	273	-18136	-2528	248	-614	1170	-250	-18640	-984	-1776	-465	1931	3	-32768	-9440	-6792	-14	-4190	2313	-21384	-48	-19264	-932	-3715	-319	-30520	3320	11296	-1844	-2162	1203	111	116	1
-9588	-5844	11512	-53	362	335	-16224	-2008	1936	-448	1505	-222	-21832	1384	1504	-276	1604	-232	-32768	-8096	-14800	-740	-2793	1673	-15888	-64	-21800	-1513	-2296	-1103	-6944	-5056	21248	166	-877	1463	115	112	1
-10796	-4892	11920	-218	682	288	-16808	2320	776	-281	1777	-90	-19256	8664	1984	-332	1283	-375	-32768	-4552	-28576	-1296	-1554	-643	-7720	-2816	-23248	-705	-1039	-415	-13920	-9568	25344	1235	711	720	114	118	1
-11464	-3172	13024	-489	1105	33	-18920	3608	-928	-375	2126	-139	-19728	9152	1136	-384	1255	-361	-32768	-4568	-26776	2194	-547	-560	-6024	-2848	-19352	-259	-812	-257	-16208	-3760	16536	1726	494	-615	115	114	1
-11788	-1532	13140	-639	1176	-50	-22120	2728	-2704	-176	2380	-110	-22192	-1264	-3112	-630	725	51	-31896	28280	-14096	-389	-12	-104	-12208	2248	-14536	1536	2010	657	-18384	3256	8584	898	1639	-679	111	116	1
-9088	-10132	14216	-1099	2671	140	-23280	784	-1920	118	2585	-168	-22184	-2200	-2872	-357	367	297	-6344	-15136	16192	-2841	1492	-1555	-24520	-3904	11192	1323	2380	131	-15056	3344	5280	-153	3577	529	111	113	1
-10232	-9404	13364	-928	3607	479	-21448	-2584	-2048	200	2690	-182	-23232	-2728	456	42	-338	677	16152	-21712	26488	-118	2542	-2001	-32768	2872	24936	-197	1183	139	-22472	7984	-11720	612	2564	1083	115	113	1
-11864	-8536	11772	-1623	5063	476	-26296	-2000	-728	190	2856	-53	-27224	-904	6616	446	-950	808	-32768	-11232	12456	977	3185	-2250	-7168	-10672	-21568	-3596	1571	531	-24696	22680	7912	-1215	-489	-17	106	96	1
-11016	-12072	12832	-2580	6050	1558	-30832	4192	3432	-349	2946	-342	-29800	5736	11784	1159	-2505	950	-17712	21960	18224	167	2656	-32	-18736	-9088	-1296	-1224	1927	-572	-11256	-3104	5456	-2846	45	-994	107	100	1
-9256	-14256	13472	-3280	6858	2232	-32768	9856	6240	-1333	2841	-861	-28416	19776	9896	3290	-3546	1711	-12984	9272	11504	-369	3255	-402	-26240	11752	-6840	60	2302	279	-16624	-17928	-4368	-1326	1404	-1304	114	101	1
-14456	-19680	14312	-2857	7744	3042	-32768	5720	10216	-2837	2808	-1115	-8248	18504	-7288	-647	-1786	1890	-19840	936	21824	-103	2390	-646	-12104	-1168	-5704	-1838	1683	309	-15128	3512	-2968	20	998	427	117	111	1
-23116	-15560	8844	-2185	7593	4209	-18792	-6456	-1624	-3065	2982	-634	-15464	-2520	1944	-3348	-1085	825	-16512	12424	10400	-176	653	-430	-20192	3016	-5504	48	1922	428	-12976	5128	-11384	1337	911	297	123	126	1
-32768	-13784	10760	-1952	5736	4305	-18032	-13048	-4960	-2121	2939	-350	-25240	-11928	-20360	-4559	506	69	-15552	-1544	15496	50	397	-907	-17848	3448	-8560	-864	1524	378	-12608	7672	-7296	951	1102	-43	139	138	1
-32768	-25560	3136	-2853	3503	2725	-25960	-12192	-20064	-1350	3102	-33	-32768	-10936	-14056	-3061	-1049	-1184	-9696	4672	14224	-91	-161	-375	-17728	-4872	-4704	-1039	1212	257	-16872	2376	-9224	409	1354	-20	138	126	1
-11888	-22600	20636	-2903	2300	1718	-19592	-2032	-14264	-718	2159	430	-25152	2016	-15224	-643	-1777	-765	-10296	3480	13664	-118	-54	-106	-16960	-2432	-3400	285	1268	222	-16016	5768	-6712	469	1246	10	130	121	1
-32768	-32768	26640	-110	-1121	437	-15840	-8792	-9424	262	679	36	-22240	304	-14920	199	-2067	-311	-10576	4120	13288	-1	3	-167	-16464	368	-4792	1309	1181	174	-14960	4912	-6296	357	1210	-132	131	124	1
-3596	-26836	21276	2195	-4044	-152	-7120	-10816	1880	9	-402	61	-20432	-1416	-12080	350	-2300	-235	-9856	3896	13304	8	-221	-218	-17432	1552	-4456	1655	973	212	-14912	3504	-6752	487	1354	-294	125	126	1
2308	-10108	9900	2345	-4488	97	-7536	-5760	1080	585	-1084	46	-19296	-3216	-15200	283	-2020	-283	-10136	3608	13440	16	-7	-239	-17800	3080	-4272	1143	722	285	-16072	2368	-5496	702	1434	-314	125	123	1
1528	-5944	6836	1297	-4772	-425	-6336	-4368	-1592	1322	-1740	9	-13168	-864	-15256	422	-2046	-185	-9224	3448	13192	-65	85	-129	-17208	2512	-3680	114	489	152	-15576	3216	-5304	846	1478	-320	126	122	1
-1440	-9764	6220	551	-5182	-1033	-4240	-2600	-3096	1357	-2505	112	-9416	1552	-13560	528	-2045	-259	-9104	4096	13560	-115	170	-75	-17208	2728	-2408	-761	399	4	-15072	4208	-4896	824	1469	-270	132	126	1
-2940	-13528	5740	504	-5385	-1488	-4560	-2408	-2296	1398	-3249	351	-9304	1544	-14232	622	-1878	-385	-9728	4016	13952	-50	185	-47	-16200	280	-2416	-1028	441	-105	-15256	2648	-4248	885	1537	-451	127	126	1
-4588	-12436	6032	866	-5359	-2037	-5696	-1472	-4184	1284	-3926	471	-7912	-248	-14856	672	-1858	-524	-9376	4248	13176	13	153	-30	-16000	-896	-2080	-466	673	-94	-14168	1624	-3720	1078	1586	-403	127	115	1
-5956	-10668	6648	999	-5175	-2679	-8408	24	-2424	1268	-4506	680	-5400	-2424	-14848	823	-1795	-661	-9360	3992	13120	29	124	-44	-15368	-1112	-1304	424	729	-45	-13808	2632	-3856	1276	1698	-290	126	120	1
-10056	-11036	9036	845	-4923	-3332	-12640	-1024	-4488	1113	-4857	871	-3624	-3704	-14104	979	-1660	-591	-9608	4112	13032	55	76	-70	-16096	272	-2480	1006	725	24	-13712	3168	-4128	1312	1763	-279	127	121	1
-15564	-11552	12868	650	-4751	-3636	-16440	-1640	-6344	1124	-5224	1039	-2696	-3952	-14416	1530	-1356	-492	-9888	3384	13000	72	64	-46	-15880	1328	-2560	977	573	124	-14312	2552	-2568	1284	1933	-370	125	125	1
-19304	-10804	15260	529	-4615	-3592	-21208	-2392	-8672	1232	-5577	1227	-2800	-2720	-14144	2539	-870	-396	-9352	3208	13072	74	78	-75	-15968	2704	-2016	322	523	-8	-14416	1072	-288	1391	2191	-386	127	126	1
-24744	-11928	17080	292	-4368	-3460	-23320	-1880	-10504	1498	-5828	1294	-3224	1856	-11224	2677	-638	-311	-9272	3480	12896	53	82	-47	-16472	688	-1280	-196	586	-50	-12784	1416	2000	1339	2290	-346	126	125	1
-32768	-21308	22924	405	-4357	-3468	-28056	352	-12536	1375	-5994	1497	-5232	5800	-5368	2490	-1085	57	-9296	3472	12952	41	69	-97	-14504	-568	-1056	-146	715	-21	-14608	1976	-568	631	2110	93	122	123	1
-32768	-24836	20732	988	-4470	-3893	-32768	-1680	-12128	1476	-6056	1303	-8272	8664	952	2295	-1507	768	-9176	4096	13144	63	119	-95	-14640	232	-1176	208	925	27	-16640	4376	-9216	483	1266	-110	126	128	1
-32768	-21404	12316	1550	-3874	-4561	-29392	-968	-14936	2785	-5713	1173	-13816	1736	4360	1502	-1283	1262	-9920	4024	12424	78	111	-132	-15368	632	-2888	270	1006	54	-19424	6136	-8896	703	658	-492	125	124	1
-32768	-12692	6608	1416	-3226	-5078	-21304	-4784	-14448	2507	-4825	1577	-28152	4408	16240	1802	-1921	1050	-9560	4024	12848	74	157	-130	-16120	536	-1584	238	1121	32	-17000	6352	-2184	623	1004	-298	122	124	1
-32768	2096	-5908	1387	-2489	-4274	-23768	7920	-14304	-459	-2426	1256	-25552	6472	4808	3478	-1576	586	-8736	4680	13432	61	292	-160	-15984	1752	464	20	1312	69	-22000	-10472	-512	825	610	-372	110	119	1
-32768	14028	-22452	604	-2162	-2314	-8912	-5576	-18456	1301	-2750	926	-22816	26864	3752	2453	-1003	376	-9144	3552	13424	83	510	-196	-15352	-1112	-224	-412	1458	74	-17632	-1856	1984	753	1293	-66	78	118	1
-32768	12428	-25600	-586	-1446	-1180	-1792	-4296	-19208	830	-1038	-197	-6800	18752	28360	907	-2021	738	-9872	3528	13784	150	725	-171	-16320	-1384	-1984	-301	1797	70	-19088	2400	-1504	667	1128	-29	81	121	1
-32768	9368	-29312	-302	-36	-30	-7904	-4672	-16552	41	752	-384	-12496	8736	15936	125	294	569	-10168	3456	14296	194	1066	-128	-18720	480	-3408	-256	2032	31	-18464	8608	-5496	612	943	-116	107	124	1
-32768	3872	-20276	221	1484	273	-8792	-5920	-18048	357	2159	-769	-16136	5712	5320	-85	1273	-7	-8624	4584	15120	279	1615	-208	-21112	200	-3976	-300	2166	13	-19936	7072	-6624	637	559	-321	129	128	1
-21360	-8560	-6484	910	3410	996	-17328	-6664	-8216	427	2802	-1014	-16296	3872	-4912	-507	1878	-682	-10352	3184	13352	292	2295	-318	-21008	-752	-4824	-317	2313	108	-19568	4360	-2768	430	137	-487	142	135	1
21564	-11592	32767	624	3512	959	-32768	10936	32767	2935	1420	-144	-14528	-288	-7784	-240	1856	-1757	-11320	4792	15096	597	3209	-307	-22400	-32	-3216	-207	2498	74	-21352	5528	-760	237	-139	-552	146	141	1
-31664	14568	20060	-678	3357	2954	-23632	14240	-16152	2784	2162	-1015	-28616	3104	8624	-1354	441	-834	-12896	10776	15880	706	4138	-451	-25632	192	-584	-299	2698	134	-26200	4608	4144	-19	-689	-468	151	139	1
-24684	188	6272	-862	3474	1793	-8496	12336	-7752	-1575	2499	-550	-22968	-3744	-14344	-145	68	-774	-11008	12040	18000	749	4996	-870	-27528	-64	2704	-196	2897	396	-31144	4488	15080	-9	-2081	-578	145	139	1
-15516	-21132	5480	-1550	3061	765	-3640	-22272	2472	3241	800	-1179	-7592	9544	-8944	990	-79	181	-9744	15240	19656	434	6404	-1475	-32768	-3672	5704	321	3038	814	-32768	216	23864	-1168	-3226	-623	117	123	1
-32768	-26436	28040	267	2071	1277	-15200	-15528	-21384	-2663	2067	-2012	-12416	10360	1552	294	743	-992	-10568	11128	17256	1048	8547	-2413	-32768	-5984	8912	1085	2954	1416	-15344	-12528	-416	-232	-1913	-899	125	122	1
-8396	-4476	12204	733	934	1068	-19288	-6752	-10320	781	1719	-813	-12736	-7184	-19680	-1765	1090	-618	-21768	1376	15296	2701	9874	-2776	-25000	-3920	24	1624	2774	1340	-18072	-3712	2664	2249	-1833	-483	135	121	1
-18892	-10544	12672	1092	80	935	-17232	-7608	-11536	1088	1584	-465	-14240	-11944	-13568	-1267	1206	-192	-32768	11216	11848	3169	8424	-3686	-22240	2664	-7472	3617	3274	784	-26352	7824	-22136	4179	-283	407	127	124	1
-11936	-5288	12252	688	0	382	-16176	-3232	-6376	2029	1118	-264	-13456	-10336	-11040	874	839	-287	-32768	12888	11456	2853	5394	-4393	-25624	1872	-12800	3325	3053	902	-29040	11560	-15072	2141	-1263	960	128	124	1
-11100	-7036	9964	482	49	214	-19432	720	-5152	1104	889	-84	-16048	-1520	-10648	1549	1148	-401	-32768	15328	16928	3803	4650	-2215	-22152	3136	-10504	2479	2151	549	-30864	10536	-12424	1263	-1536	1130	129	130	1
-9920	-7324	11076	293	80	208	-16984	-1216	-3304	531	685	-54	-18328	1168	-6904	1389	1115	-225	-28720	32767	28312	1213	1118	-1168	-8712	7032	-16944	1441	1165	472	-23352	-7192	-13848	-922	-2701	895	127	133	1
-9960	-6308	11136	200	101	256	-18128	2448	-3176	-13	560	-182	-15256	4528	-5072	919	1254	-148	-14088	24984	28352	-779	-2893	875	-6304	3624	-2856	1082	-60	376	-21888	-4936	-9480	-497	-3185	983	134	128	1
-10268	-5940	11432	186	110	222	-16496	1728	-3144	-873	624	-419	-14024	3184	-4448	-138	1531	-349	656	5808	13232	-1085	-3727	2067	-8840	784	4080	923	-560	571	-20704	-728	-12736	245	-2564	1014	138	133	1
-10388	-6100	10736	128	99	160	-17072	-2304	-3080	-1192	640	-428	-14560	-208	-5424	-569	1758	-394	7544	2576	6976	-123	-3607	2525	-7808	376	256	473	-1667	772	-16864	-2432	-13272	221	-2309	1434	131	133	1
-10220	-5808	10720	136	38	160	-17256	-3080	-2624	-880	622	-415	-15232	-1088	-4392	-628	1686	-289	144	3920	7728	-16	-2905	2387	-4784	3128	-1616	163	-2460	952	-13200	-3832	-12208	440	-2268	1295	127	124	1
-9624	-6268	10856	105	11	194	-15888	-4456	-2608	-237	557	-320	-14960	-1400	-4536	-373	1578	-187	-10680	4864	13272	-394	-3155	2010	-3888	3760	-3544	-1292	-3111	1206	-10360	-2896	-12256	680	-2181	1298	121	126	1
-9984	-5800	10528	97	-10	236	-15592	-3992	-2792	-102	531	-279	-11144	280	-5824	-504	1241	26	-18376	3592	17600	-951	-4499	2067	-1904	-48	-9000	-2502	-3479	1119	-5160	-64	-6736	427	-1623	1319	122	123	1
-10492	-5216	10436	111	-29	217	-14832	880	-2632	125	150	147	-14176	1296	-5256	-347	1703	-189	-10552	-1752	12888	-770	-5553	2434	-5064	-5992	-3720	-2143	-4171	616	-6560	344	-11592	-230	-1618	1184	118	124	1
-10320	-5360	10684	27	-24	210	-15816	1616	-2496	-314	428	-70	-13696	2424	-5072	-642	2173	-209	-10264	-2512	12616	-675	-5594	2493	-10888	-5552	-1312	-1231	-4743	204	-7256	-720	-12576	-599	-1443	1241	116	124	1
-10688	-5052	10600	29	-43	100	-16032	456	-1848	-710	451	-212	-13728	576	-3072	-657	2208	-315	-16096	-352	16280	-614	-5667	2373	-13568	-1792	-6072	-1096	-5316	-113	-7048	-1288	-12664	-930	-1283	1104	113	119	1
-9888	-5464	10700	49	-61	100	-16576	-1392	-1264	-786	528	-283	-14712	88	-1280	-561	2153	-360	-22000	-4328	19672	-792	-5911	2055	-17792	-5224	-7680	-1027	-5959	-557	-4400	-1552	-12088	-1389	-944	754	111	116	1
-9612	-5800	10928	29	-37	146	-17016	-2848	-2160	-409	606	-183	-15816	-872	-432	-512	1923	-592	-29056	-2320	22584	-319	-6413	1946	-19216	-8480	-9136	-876	-6173	-803	-2928	-2248	-11400	-1371	-624	415	114	122	1
-9996	-5300	10880	11	6	174	-17160	-1200	-2536	62	627	-52	-15024	-664	-3544	-48	1699	-184	-30800	4432	20304	-353	-6744	1777	-21240	-8056	-9144	486	-6118	-935	-1384	-2320	-11456	-1078	-128	379	122	121	1
-10432	-5488	10628	37	21	164	-15232	128	-1536	14	692	2	-17120	-624	-7208	-294	1434	-235	-32768	10568	21712	-783	-6549	1770	-25392	-1808	-8968	1121	-6245	-801	-4528	-2784	-5480	-854	165	687	122	125	1
-9716	-5684	10628	47	9	188	-13888	48	-272	-129	832	-30	-18136	-656	-5520	-383	943	105	-32768	10024	19664	-1358	-6075	2051	-32768	-984	-9184	242	-6215	-707	-11592	1264	6024	-1215	-795	368	121	124	1
-9364	-5872	11308	69	96	244	-16872	-2216	-760	-87	939	-88	-18000	-888	-2552	-324	1029	226	-32768	4472	12512	-1417	-5221	2250	-32768	-2432	-11568	-483	-5780	-763	-22472	7696	10264	-1467	-1898	70	119	123	1
-9436	-5536	11356	21	288	275	-19352	-584	-408	120	1138	-85	-18528	2376	-872	-420	1565	94	-32768	1944	976	-1394	-4510	1863	-29040	5528	-17328	-1036	-4557	-812	-32768	13664	15184	-2764	-2847	606	115	122	1
-10260	-5344	11796	-63	535	298	-17856	1152	912	86	1375	-107	-20000	4312	1320	-375	1688	-118	-32768	2416	-19024	-1501	-2988	1431	-15400	4688	-25848	-2979	-3608	-752	-26544	-4376	6752	-2911	-1559	1296	116	119	1
-10856	-5724	11812	-190	838	295	-16384	880	264	231	1665	-143	-20304	6552	824	-289	1491	-360	-32768	-11744	-30536	-775	-1646	446	-2408	-1416	-23016	-2340	-1837	-469	-5800	-16104	31976	-319	-185	35	119	109	1
-8940	-5604	13920	-250	1321	327	-18888	2792	-1480	331	2014	-171	-20928	5672	-3168	-243	1168	-194	-32768	-10600	-30896	-298	-1466	624	-7808	-464	-25416	641	449	93	-8024	-7448	23696	599	381	-752	119	114	1
-11032	-4728	14004	-259	2001	279	-21344	1040	-3952	233	2315	-196	-21288	-2408	-3304	-369	694	-11	-32768	-3296	-28304	-443	785	-125	-8792	8544	-20944	747	2244	563	-18448	-544	12592	832	1618	-693	116	117	1
-11532	-5040	12072	-293	2865	334	-21312	-576	-3048	349	2520	-159	-21064	-3520	-2000	-118	355	213	-4128	-11376	16784	-1125	1006	-809	-22720	-3848	27688	1956	2152	15	-17912	-904	-848	854	3530	289	113	114	1
-11172	-7520	13424	-408	3622	551	-21080	-1824	-848	297	2697	-205	-22056	-2888	496	207	-276	506	5200	-9880	23856	2058	2769	-3505	-32768	-2128	6472	-1786	1259	972	-15656	3448	-4720	1813	3351	723	113	114	1
-10724	-9176	12512	-834	4440	1183	-25720	-2832	-1832	261	2836	-109	-26152	-1616	3808	481	-759	648	-32768	1640	-3576	1195	3898	-1374	-2648	-11456	-19208	-1468	1858	678	-27504	15968	2496	684	-118	-98	113	103	1
-13648	-15072	11964	-1278	4865	1762	-27648	2368	392	-228	2937	-449	-28912	4800	10296	648	-1945	775	-22272	8072	25792	358	3892	-400	-17048	-416	-504	117	2307	-55	-18240	5408	-3112	-1537	-206	202	106	104	1
-16480	-18008	12212	-1151	5595	2737	-32768	6496	4160	-1380	2701	-1019	-31480	15416	11224	1807	-3199	1205	-18400	13288	12256	84	3868	-616	-26840	5992	-6976	557	2522	625	-8128	-7512	648	-782	182	-403	114	114	1
-14464	-13064	12552	-1314	6853	3895	-32768	5472	7416	-2407	2630	-1440	-11784	16168	-8144	1221	-2321	1668	-28496	232	13704	-439	1520	-668	-20384	7048	-11584	-350	2111	660	-21432	8432	-11184	210	1319	425	117	108	1
-21632	-7472	9524	-2155	7436	4444	-20640	-608	-1128	-2843	2771	-1182	-14240	4400	3336	-3039	-1308	890	-14056	7256	14232	33	-1080	-287	-20152	-1424	-8880	-1174	1730	380	-11880	-80	-13984	-85	912	-110	119	119	1
-32768	-14768	11188	-3486	5356	3965	-18248	-9024	-8584	-3145	2962	-499	-24008	-5464	-19712	-3876	33	-261	-12432	-280	13728	289	-206	-316	-15440	-432	-6960	-1614	1324	349	-11096	-3736	-10136	170	1098	-412	136	136	1
-32768	-26256	13984	-3536	2578	3259	-26360	-10624	-20416	-3079	3142	-740	-31784	-3760	-12328	-3659	-1004	-1069	-9960	3752	13328	76	-125	-159	-16760	-6928	-4864	-149	1123	312	-15992	-632	-9816	809	1553	210	132	124	1
8772	-25776	32460	-732	908	1923	-19896	-5256	-16904	-1730	2477	-472	-29072	5392	-18080	-2161	-1393	-1146	-9304	3088	13408	-60	25	104	-17464	-1944	-3296	1109	1045	286	-16392	4720	-7160	738	1318	144	131	120	1
-13000	-27960	23252	-104	-2217	207	-15160	-6832	-1968	-480	1131	-847	-24016	928	-16080	-713	-1913	-715	-9144	3680	13784	67	82	93	-18432	2232	-2632	1460	928	286	-15816	4392	-7056	573	1276	-113	126	118	1
7100	-18956	9208	546	-2307	-194	-7848	-6424	-296	159	-309	-286	-20288	-3840	-14032	-177	-2516	-664	-9544	4208	13360	251	139	38	-18056	2920	-3288	1443	711	297	-14616	4696	-5792	719	1443	-393	124	121	1
3456	-11536	7636	330	-2257	-821	-5312	-1096	-904	531	-949	-232	-16736	-3040	-15184	-43	-2014	-609	-9736	3720	13288	299	185	69	-17056	1960	-2064	1005	542	244	-15072	2992	-3528	758	1540	-323	124	118	1
2216	-11780	6084	123	-2447	-1627	-4272	-2872	-3176	601	-1648	-488	-11744	-1552	-15568	-14	-1891	-671	-8896	4536	13816	308	231	103	-16256	1248	-80	407	496	111	-15720	3952	-2880	793	1591	-412	124	124	1
-292	-12380	6644	344	-2720	-2273	-3872	-4480	-3720	961	-2232	-357	-9536	-968	-14640	119	-1887	-831	-8864	4704	13232	244	277	83	-15904	2184	-16	78	547	-64	-15320	4904	-3160	1005	1415	-154	127	125	1
-3492	-11388	7640	832	-3132	-2869	-2976	-5104	-5392	1860	-2781	-110	-8888	-1968	-15232	483	-1792	-938	-9304	5280	12984	213	230	-24	-15856	880	-664	119	673	-94	-14432	4808	-4328	1144	1358	-167	133	122	1
-3660	-8572	7504	1166	-3547	-3512	-3368	-2616	-4496	2419	-3457	231	-7720	-2408	-15248	963	-1904	-861	-9488	4712	12648	204	154	-89	-16112	-504	-1512	561	694	-42	-14464	3000	-3784	1230	1389	-287	125	124	1
-5684	-6540	7588	1165	-3690	-3870	-7048	-696	-4256	2521	-4074	455	-5784	-2048	-15248	1450	-1936	-684	-9816	4560	12592	131	58	-187	-16120	-48	-2384	1086	669	6	-14064	2464	-4000	1249	1423	-319	128	123	1
-11604	-6812	11016	842	-3950	-4058	-8984	-1952	-6328	2490	-4536	574	-4736	-1928	-14272	1811	-1752	-433	-9976	4296	12408	-4	-46	-221	-14856	-72	-1656	1065	623	48	-13320	1600	-1416	1388	1633	-214	126	119	1
-13520	-8296	12136	752	-4215	-4075	-13032	-952	-7008	2867	-4990	831	-3704	-376	-14112	2541	-1507	-255	-9960	4088	12352	-67	-87	-196	-15584	792	-1144	847	675	78	-15272	3464	-1048	1419	1825	-273	124	120	1
-18264	-6380	11856	610	-3929	-3944	-16648	-504	-10304	3137	-5239	990	-3936	1824	-13800	2953	-1065	-76	-9048	3552	12760	-83	-47	-190	-15536	3112	-1464	427	650	-28	-15848	2968	-3288	1053	1934	-147	127	123	1
-26172	-7360	15852	591	-3795	-3705	-18392	4800	-9176	2537	-5396	1739	-4016	4096	-10048	2519	-856	32	-9648	3944	12696	-43	-14	-183	-17168	-1304	-2408	-311	630	-100	-14584	1096	-4800	595	1721	-139	125	125	1
-29920	-10092	22416	675	-3999	-3426	-24416	3496	-9448	1064	-5373	1712	-4488	4496	-5352	1819	-902	216	-9848	3616	12456	-29	36	-129	-14800	-2896	-2504	-43	812	21	-14720	520	-4480	285	1310	-91	127	127	1
-32768	-13744	24860	861	-4418	-3421	-28928	208	-10944	564	-5444	1653	-4800	4240	-4312	1753	-946	225	-10120	3712	12592	-16	30	-81	-13824	-592	-2344	223	955	42	-14832	2408	-3552	277	1028	-191	123	127	1
-32768	-18700	21940	1033	-4617	-3645	-32768	-1216	-12904	504	-5413	1458	-10776	4144	1136	1591	-934	482	-9328	4152	12952	1	21	-80	-14656	464	16	277	1039	62	-14976	3984	-3160	386	836	-391	125	125	1
-32768	-10056	12088	1121	-4186	-3843	-26928	-2048	-10280	908	-5198	1283	-20784	5512	1288	990	-826	402	-8912	4096	12920	-2	85	-123	-16832	2280	-768	-45	1058	53	-19168	3248	-5312	435	594	-488	119	124	1
-32768	-2088	6708	936	-3372	-3003	-23832	-5216	-14768	1003	-4730	1543	-29608	7384	12224	1299	-1997	781	-9200	3480	13312	11	219	-171	-17592	-224	-1832	-475	1146	55	-18152	1768	-2504	504	1122	-245	119	125	1
-32768	8356	644	-106	-2964	-2786	-32768	-4240	-16584	-543	-4375	2081	-29920	12520	10352	1091	-1282	484	-9456	4512	13176	114	492	-141	-17744	-2016	-568	-504	1356	51	-19056	-1064	-1120	450	1304	-85	110	122	1
-32768	-4560	-16548	12	-2645	-1531	-10256	-8424	-13960	247	-2634	1344	-17408	25000	3680	866	-1120	-171	-9960	3880	13320	212	779	-147	-15768	-1368	-1208	-535	1600	73	-17960	1024	-1512	411	1112	-140	91	119	1
-32768	22348	-24784	-353	-1603	814	-3792	-400	-12456	-220	-993	-6	-12480	17720	24512	-570	-1449	339	-10176	2632	13720	301	1023	-92	-15744	-936	-1800	-562	1760	-19	-17984	5464	-2808	399	697	-349	107	119	1
-32768	760	-23264	-1400	-319	124	-7280	-3424	-15624	-1165	556	-442	-10216	7176	14352	-1450	81	741	-9736	4488	13960	402	1406	-25	-19896	1208	-3640	-674	1928	-80	-17232	7712	-5160	365	792	-412	119	124	1
-32768	-4152	-18864	899	1586	1568	-11928	-9552	-12816	-635	1764	-847	-16336	4160	6720	-716	1133	29	-10272	5768	13664	406	2012	-90	-20040	2112	-4104	-867	2045	-8	-18472	7424	-6416	121	629	-498	129	129	1
-6632	5512	-1724	2024	2335	1902	-18912	-7320	-7320	365	2735	-908	-17040	3992	5496	-668	1318	-98	-10960	5304	13648	493	2541	-243	-18952	704	-5032	-973	2147	7	-18560	6992	-4640	-38	164	-585	133	132	1
20360	-15916	32767	916	3352	1916	-32768	13080	29064	2222	1250	163	-23064	424	-6872	-676	2862	-1376	-11952	4128	14024	787	3133	-307	-22072	160	-2648	-714	2342	-21	-20784	5384	-1544	-215	-198	-664	139	133	1
-25228	11020	11824	-215	2901	2590	-20040	11352	-13840	2051	2106	-903	-21944	-1624	2888	10	221	-829	-13416	10328	13416	1066	3988	-330	-24608	-1272	-2056	-611	2481	39	-26552	3184	5976	-370	-922	-574	131	127	1
-24708	-5760	16536	-429	3394	1709	-12392	14296	-3944	-554	2119	-410	-16272	-888	-3168	1127	-573	-334	-10928	8448	15360	1126	5109	-524	-28856	-2424	2576	-230	2701	332	-32072	1904	17192	-549	-2491	-678	136	128	1
-18968	-13856	8708	-879	2586	1099	-25072	-1968	-3384	-2591	2242	-1163	-16920	-3152	-6072	768	-101	-367	-11688	11848	16856	1299	6495	-1057	-32768	-5800	7744	429	2871	696	-32352	-4224	21776	-2011	-3254	-929	121	116	1
-32768	-32768	14512	486	1161	1070	-18648	-13360	-11992	-3696	2632	-1395	-5888	5168	-1600	1334	855	53	-11104	10096	17400	1650	8408	-1905	-32768	-7976	13952	1444	2931	926	-15672	-12184	7424	379	-2196	-940	107	117	1
-17260	-5168	19024	1078	337	1101	-14104	-10816	-12704	1738	1825	-584	-17864	-2064	-13760	186	1161	-621	-24376	7784	12336	3017	9790	-2490	-25872	-3440	-1328	2315	2870	887	-20888	5872	4816	2404	-1327	-366	123	121	1
-14008	-8184	11532	817	-236	649	-18320	-1776	-7608	3491	1629	65	-10352	-464	-10056	-469	1045	-130	-32768	14296	13008	3513	8450	-2545	-21608	6760	-7056	3305	3225	351	-24464	11648	-23016	3523	-83	419	129	124	1
-10312	-5080	12060	764	-253	424	-18296	3576	-4272	2471	1117	60	-17568	-1976	-10704	55	1115	-596	-30672	19240	7776	2242	5013	-4791	-27888	7288	-13472	2221	3078	368	-29880	12656	-14656	1142	-1193	726	126	123	1
-10364	-5712	11124	364	-153	272	-17480	5440	-3568	-39	947	-392	-14160	-608	-7872	25	975	-620	-32768	13696	17128	2588	4289	-3472	-21616	5112	-7088	724	1923	146	-31568	-1976	-11624	-983	-2343	932	128	129	1
-10204	-5652	11600	105	-74	235	-16696	864	-2656	-1368	766	-653	-16288	-1384	-7424	-434	1399	-428	-25312	28088	32767	1463	1990	-1082	-13728	7048	-18472	-657	1307	114	-24408	-2072	-14432	-1008	-2502	920	127	129	1
-10760	-6008	11408	31	4	204	-17128	-4528	-3648	-1558	785	-751	-14936	-2608	-5088	-323	1296	-319	-22608	30040	32767	-951	-3335	564	-7232	1064	-7464	-517	30	-326	-22760	1256	-12784	-1106	-2971	810	133	129	1
-10516	-5680	10916	174	23	194	-16528	-5200	-4208	-1227	753	-533	-14552	-1640	-4336	-544	1360	-220	-7392	11312	16648	-2699	-5044	1253	-8992	712	3872	576	-479	-397	-22552	4400	-14208	-848	-2762	863	138	130	1
-9792	-6104	11076	211	44	126	-17856	-6400	-3416	-474	707	-235	-15960	-3352	-6416	-492	1492	-341	4480	1392	6584	-2049	-5271	1536	-8096	3328	960	637	-1593	-108	-17200	672	-13472	-887	-2536	986	139	132	1
-9932	-6104	11024	197	45	99	-17024	-6024	-4096	518	541	-37	-15080	-3584	-6376	-133	1413	-231	2272	312	7136	-1098	-4682	1361	-4424	4368	-1496	234	-2660	-10	-14408	-1080	-13760	-631	-2460	889	134	135	1
-9756	-5224	11328	141	86	74	-16384	-672	-3544	951	358	99	-13960	32	-5424	154	1394	44	-5936	5232	9256	-516	-4835	1443	-3656	4248	-5208	-912	-3277	102	-11448	-2408	-13736	-510	-2203	971	132	132	1
-9604	-4760	11256	87	138	21	-16896	3832	-2344	335	277	99	-15464	3360	-6280	113	1604	-149	-9304	8896	11232	-999	-5342	1465	-2976	2904	-5128	-2019	-4021	4	-7464	-1720	-10824	-642	-1778	860	126	133	1
-9336	-4840	10528	-61	81	17	-17640	3328	-4272	-395	-76	-183	-13496	3992	-3464	-359	2115	-372	-9136	5416	10704	-1417	-5771	1586	-3600	-696	-3776	-2204	-4748	-299	-5224	-2544	-12352	-843	-1904	888	129	131	1
-9676	-5392	11032	-16	121	55	-15816	-216	-1704	-1181	459	-319	-14560	1832	-2184	-923	2210	-297	-11952	3072	11680	-1123	-5969	1999	-8816	-5392	-4920	-1866	-5317	-663	-6024	-2360	-13632	-933	-1679	919	122	130	1
-9328	-5468	10912	27	61	54	-17224	-6512	-448	-685	392	-286	-13408	-1168	184	-1151	2445	-440	-14600	3792	13408	-824	-6001	2335	-14328	-5016	-5080	-695	-5555	-891	-5320	-2224	-12480	-820	-1305	966	122	127	1
-9128	-4948	11276	23	33	124	-16616	-2296	128	-132	528	-206	-16512	-2424	1264	-855	2106	-479	-20648	4768	18008	-944	-5893	2302	-16920	-3984	-7456	-298	-5994	-1134	-2808	-3120	-12328	-1095	-872	770	118	127	1
-9792	-4824	10812	9	8	118	-15528	56	440	-220	624	-109	-19776	2896	520	-402	1434	-779	-30040	7016	22208	-976	-6071	2246	-20904	-4376	-9352	432	-6239	-1193	-872	-2720	-11744	-1329	-274	452	111	118	1
-8884	-6576	10788	-65	-9	170	-15376	-1416	792	-699	777	-230	-15384	-2904	-2088	-315	679	-274	-32768	12008	23872	-1096	-6370	2364	-26032	-848	-9664	935	-6358	-1029	-2624	-1832	-8128	-1294	52	426	114	120	1
-10060	-5144	11212	32	0	222	-14768	-2800	-424	-503	926	-172	-19208	-4064	-4608	-1014	807	-184	-32768	21872	21736	-1719	-6418	2469	-32768	5304	-10528	450	-6454	-818	-7304	-1496	-2784	-1345	-196	452	120	120	1
-10152	-5248	11288	55	72	209	-16696	-2272	-2008	-307	1103	-143	-18200	-1184	-4896	-1108	1300	37	-32768	21032	12608	-2555	-5971	2570	-29872	5952	-12520	-2022	-6407	-584	-14936	3920	6640	-1952	-1340	196	116	123	1
-9852	-5492	11356	42	227	265	-18936	-2008	-2352	-197	1137	-185	-16248	64	-4784	-863	1809	-32	-32768	12896	3968	-1438	-4860	3108	-27320	4336	-15032	-2668	-5424	-663	-22016	4864	3896	-2952	-1637	266	118	123	1
-10224	-5664	11388	-55	358	333	-17288	-296	-1720	-451	1232	-256	-18312	320	-3424	-691	1917	-231	-32768	7240	-11720	-1089	-3725	3420	-25224	1608	-26048	-3595	-4353	-597	-32768	2888	22840	-4201	-2755	306	118	120	1
-10372	-5816	11408	-151	508	332	-15792	-1152	-480	-452	1424	-249	-16520	296	-256	-467	1369	-374	-32768	-536	-22336	-1130	-1685	2797	-12544	-5864	-22160	-2731	-2546	-1083	-16200	-12744	19552	-2327	-1000	494	122	118	1
-10304	-4952	12136	-245	745	316	-16360	-200	-2288	3	1727	-215	-16808	5472	-328	-528	1244	-296	-32768	-168	-32768	-260	-340	1760	-5360	2608	-23752	306	-692	28	-9544	-13736	29560	385	376	376	119	118	1
-9672	-4304	13556	-154	1219	336	-18984	1104	-2720	99	1973	-237	-20528	3216	-3544	-694	1149	-174	-32768	-7320	-32768	1133	239	400	-6760	10384	-20832	1204	1259	899	-15576	-848	21200	1356	392	16	116	114	1
-11596	-5108	13016	-230	1855	330	-21464	-568	-3480	119	2204	-272	-21576	-2856	-3912	-472	746	35	-28504	10096	-32216	130	1976	-870	-11864	5688	-13952	1090	2512	839	-19080	5368	8872	1196	1557	12	111	114	1
-11348	-4524	12632	-264	1978	328	-21544	-800	-3208	49	2395	-390	-22048	-1768	-3136	-129	353	191	30944	6616	32767	1901	3143	-126	-32768	-19200	32767	1703	1423	-765	-22824	1360	-280	422	3539	830	108	111	1
-12888	-7628	13240	-248	3533	702	-24064	-2496	-1688	-184	2506	-422	-22312	-1464	-2984	-115	322	209	-31624	-10104	10648	1870	3432	-2084	-21240	-7928	-15016	-2446	2074	1617	-25608	4928	4264	2073	1538	358	107	104	1
-13060	-11180	12788	-418	4517	1160	-26992	-1576	808	-42	2609	-545	-27752	1832	4184	171	-698	377	-26696	12192	25656	1009	3508	-826	-10192	-17056	-6808	-1001	2402	-4	-21792	13096	-784	-669	-525	27	102	97	1
-14820	-13240	12804	-675	5236	1677	-28784	800	1592	-606	2686	-910	-31368	6760	13592	277	-2236	481	-13112	16440	10136	803	2971	218	-23528	7640	-4968	1537	2894	585	-5032	-11312	-7376	-1650	615	-465	101	102	1
-13272	-16372	14508	-1017	6194	2570	-32768	4632	4944	-1476	2567	-1446	-32768	14080	14616	1929	-3693	846	-15480	9896	17016	281	3008	-159	-14584	6552	-5688	-438	1931	651	-13088	-2600	-10344	-23	787	4	110	107	1
-12616	-8588	14676	-1636	7653	3849	-32768	6296	6248	-2326	2302	-1935	-11728	16280	-8392	822	-2243	1729	-23128	11640	10944	-241	1346	-507	-17704	8248	-8520	-198	1752	534	-12888	14200	-18280	875	1112	289	111	110	1
