#Activity	walking 
#ActivityID	1 
#Date 10-21-15-55
acc_rf_x	acc_rf_y	acc_rf_z	gyro_rf_x	gyro_rf_y	gyro_rf_z	acc_rs_x	acc_rs_y	acc_rs_z	gyro_rs_x	gyro_rs_y	gyro_rs_z	acc_rt_x	acc_rt_y	acc_rt_z	gyro_rt_x	gyro_rt_y	gyro_rt_z	acc_lf_x	acc_lf_y	acc_lf_z	gyro_lf_x	gyro_lf_y	gyro_lf_z	acc_ls_x	acc_ls_y	acc_ls_z	gyro_ls_x	gyro_ls_y	gyro_ls_z	acc_lt_x	acc_lt_y	acc_lt_z	gyro_lt_x	gyro_lt_y	gyro_lt_z	EMG_r	EMG_l	act
-32768	-16856	-1028	19129	-29108	-13205	-21408	2460	-18372	8297	-30235	-5309	-15280	9048	19904	1462	-1248	-394	-6040	2776	14976	-1034	6917	-3529	-18692	1764	-1840	1383	12513	-7113	-19168	2748	1744	2954	11329	-567	124	127	1
-32768	3568	-16344	-2729	-24538	-6893	-8184	6420	-15928	3159	-17029	-4184	-15344	10480	29312	934	98	366	-6660	3332	15028	-870	10568	-3867	-19856	1460	-2412	2443	14034	-7886	-20344	1352	1440	2690	8329	-454	134	125	1
-32768	-5712	-25584	-12514	-10899	-2780	-4448	3176	-13416	-9472	-850	-2286	-17296	5176	28816	353	44	378	-7192	4000	14640	-1281	15324	-4601	-21120	2936	-3600	2142	15284	-9015	-19000	1972	744	3209	5594	4	140	124	1
-32768	-6876	-17576	4996	9062	2674	-6828	-3948	-15320	-7671	13246	-307	-14688	616	20840	-383	-579	73	-8892	4756	15396	-2333	20631	-6719	-21220	2188	-4368	3081	16946	-9784	-19916	4076	1124	5705	1557	-1145	130	124	1
-32768	-4468	-3320	3181	16719	7322	-12180	-2080	-16480	3788	24592	3696	-12888	760	8376	-820	-160	255	-8324	4464	14760	-3685	26587	-9718	-21876	1136	-3456	6474	17818	-9479	-19956	3860	3832	6067	-3627	-3176	130	120	1
-18520	-7656	32767	-5027	15610	2476	-19252	-3600	16108	-5072	23994	5503	-5584	-2376	-11576	-84	2222	-65	-8908	4516	14720	-5079	32767	-13555	-23708	2268	-2288	9161	19351	-9060	-20536	1564	11852	1634	-11073	-4194	118	119	1
31744	4044	-14612	-9390	29617	15848	-32768	3928	13696	13782	13922	220	-26776	1440	10040	202	1880	-568	-8980	5988	15300	-7244	32767	-18068	-30712	6752	648	10088	19476	-9052	-22336	-652	12200	-1964	-11303	-4995	122	123	1
-32768	-25448	32004	-16045	32767	3498	-13576	11848	-8760	2314	17827	2853	-17280	208	6120	1415	1672	-580	-11788	4664	12572	-9551	32767	-25370	-32768	8384	5444	10321	20513	-9619	-22892	-4092	9764	973	-9257	-6991	114	127	1
-29192	-11336	32767	-10935	32767	11141	-22648	-7568	-15204	3538	18465	2861	-21344	992	16376	754	345	-229	-20736	6284	15788	-8426	32767	-32244	-29364	6168	-232	15504	19334	-9222	-21908	1128	-1296	17055	-10801	-6109	97	147	1
-11852	-4540	23032	9436	6597	4084	-28316	-2452	-9212	15874	21613	-804	-24792	-792	-15168	-56	1961	-600	-32768	4196	27260	-5219	32767	-29133	-27612	3744	-10072	19757	16785	-10730	-22792	12148	-9672	24411	-12854	-4177	124	128	1
-8608	-13576	17028	5697	3535	2406	-17180	4848	-12136	10654	18290	1977	-15096	-2432	-13368	-2415	1193	-349	-23984	11748	19800	-1603	32767	-26923	-24112	5328	-4116	20365	13611	-12479	-30384	13068	1296	7381	-19516	-2492	101	129	1
-5232	-8464	13472	4208	799	1255	-4560	2836	-8624	-4036	14698	-1909	-2344	-6904	-8624	-1904	652	-214	-22060	14760	30828	-15578	32767	-32768	-16156	7420	-13892	9548	9312	-7709	-30012	4152	-8896	929	-17285	3784	112	137	1
-7376	-7900	13928	2858	-32	824	-13296	2336	-11048	-15479	10281	-2827	-13968	-6160	-9056	-1131	1142	-525	-32768	31556	32767	10033	-14473	-2605	-9044	-3408	-14640	-2057	11941	-7344	-28856	2648	-9012	76	-17082	4843	100	129	1
-6080	-5796	14900	1239	-152	274	-21984	-2792	-7864	-14827	6893	-3628	-23640	-6384	-5856	-600	1360	-295	104	24204	20276	-168	-32768	11628	-11920	8788	7096	2347	-6436	193	-28120	1384	-10964	-5625	-17878	8568	124	125	1
-5260	-5704	14652	414	62	78	-19376	-6492	-5668	556	5628	-203	-21896	-1056	-2384	-52	1610	113	6564	10436	7820	-4889	-32695	13718	-7064	4176	3532	-4704	-10944	5212	-20748	1308	-11356	-3562	-15296	9662	128	98	1
-5844	-5832	13576	-245	690	-60	-17032	-128	-4504	9029	4787	2266	-15720	-568	-128	260	1938	237	-1104	6440	12136	3069	-32679	15906	-4688	3684	-1944	-9210	-15587	9103	-15640	104	-10852	-7368	-15113	9041	113	106	1
-5576	-5780	14772	-1470	896	-250	-15720	4180	-3420	1280	4824	883	-14016	-1656	208	9	1902	237	-6544	6932	14240	7365	-32768	16655	-5832	2544	-3924	-14455	-19022	12737	-13828	-376	-9848	-9411	-14170	8666	98	117	1
-4064	-4448	15252	-1342	244	345	-15212	856	-3600	-9319	4380	-770	-14056	-1880	360	-93	1892	235	-9124	5100	12960	8864	-32768	16700	-8640	-384	-2808	-13337	-24145	16014	-12368	-332	-11076	-9716	-14262	7072	102	124	1
-5392	-6024	14440	-1307	623	95	-15820	-2688	-2724	-11015	3887	-1487	-16208	0	952	-1267	1434	-84	-11048	3944	12356	11321	-32768	18125	-11488	-2708	-3188	-10463	-27735	18788	-11272	-44	-11076	-10599	-13079	4598	116	137	1
-5572	-6072	14216	-1350	669	328	-15700	-2832	-2472	-6069	4015	13	-15248	-704	2248	-1025	1268	-114	-12184	3104	13432	12682	-32768	19632	-14984	-1848	-3004	-7915	-31308	21599	-9096	-1568	-10660	-14666	-13500	1865	120	149	1
-5732	-5964	14424	-1293	749	465	-15828	-616	-2548	-3875	5010	552	-15616	-1568	6768	-477	1526	-209	-15444	2628	17336	13439	-32768	20565	-16824	-1148	-4872	-8994	-32768	23285	-8048	-2960	-10584	-16583	-12709	1931	120	143	1
-4192	-3840	15232	-1711	542	994	-16056	-500	-2744	-4283	5788	516	-14912	-3560	6856	-911	2435	-99	-15920	2536	17848	13413	-32768	20638	-18892	-864	-6364	-9431	-32768	24562	-5760	-56	-9996	-17161	-11681	612	133	137	1
-5584	-6480	14360	-1027	892	902	-15940	-692	-2688	-4452	5934	488	-16536	-4888	2280	-1254	2780	156	-18056	2396	21604	13254	-32768	20602	-23444	488	-6348	-9965	-32768	25558	-5368	48	-7572	-13317	-11584	2368	127	130	1
-5568	-5900	14416	-994	1215	1221	-15928	-484	-2996	-3782	7402	1082	-18136	-3336	-832	-589	2282	132	-18884	2072	21760	14016	-32768	18936	-26220	-248	-6292	-10285	-32768	25904	-5064	-1204	-7644	-6737	-6889	1966	142	116	1
-5516	-5484	14284	-1603	1933	1297	-16796	-92	-3152	-1652	8194	1663	-16400	-2488	-424	143	1802	-31	-23212	3864	25716	11863	-28226	17586	-30304	-284	-8340	-10434	-32768	25932	-7052	-644	-4088	-2950	-5256	2939	136	123	1
-5720	-5200	14808	-3013	3017	915	-16860	1656	-3248	-187	9112	2277	-15624	-2592	2368	57	1958	101	-32768	1136	30340	9427	-26392	17089	-32188	-2752	-12576	-10601	-32768	24179	-11868	2184	1488	-3716	-7250	5241	132	128	1
-5604	-6260	14360	-4540	4048	361	-16692	1336	-1060	-408	10411	2423	-16488	-1024	4424	-136	1961	255	-32768	-596	29524	11647	-32768	19059	-30064	-3976	-16456	-6142	-32768	21254	-18344	3632	9700	-3326	-11339	7250	130	123	1
-5164	-5996	14268	-5793	5928	27	-15632	-880	272	1183	12688	3115	-18000	464	6112	48	1463	199	-32768	-7848	3216	12398	-32768	17211	-23248	-4012	-20392	-6459	-28185	19329	-20160	-6816	15800	-4621	-12839	7835	134	136	1
-5624	-6828	14192	-6576	8497	473	-17036	-1104	-340	3201	15292	3813	-18536	568	7648	168	1293	19	-32768	-22880	-19168	24586	-23129	11175	-12544	-8200	-20608	-439	-15036	15095	-13932	-6856	31396	-276	-7183	2088	131	119	1
-5344	-6972	14228	-8198	12385	1156	-18888	-140	-2152	2750	17867	4387	-18496	-496	6536	-400	1238	32	-32768	-17952	-23312	13695	-9539	6174	-5364	-8432	-21944	2933	166	5062	-18412	6712	25444	-990	428	1808	126	126	1
-5112	-6608	14192	-10180	16892	2255	-19444	-216	-2612	580	20017	4895	-18760	-1576	5480	-772	761	111	-32768	-19608	-18756	-5562	2746	2876	-8692	-7784	-19996	145	14437	-5746	-17004	6032	17632	-1290	1333	1923	117	128	1
-5828	-7488	13512	-11627	22626	4899	-21148	1640	-2672	-2891	22193	5055	-20872	160	8328	-863	-36	328	28692	9952	-2780	-8331	12836	1678	-16628	-2420	-18760	-5714	24038	-12914	-12436	908	3404	-4607	2565	-181	111	130	1
-5624	-8408	12464	-13614	31410	7314	-23648	4820	-1508	-6541	24083	3718	-20104	5024	15664	-535	-1331	645	27756	9616	32767	-15453	32610	-20843	-32768	30152	32767	9848	7403	-4691	-18244	416	-6936	-2572	12011	-574	112	139	1
-4688	-8420	15236	-19297	32767	9775	-31976	2868	4740	-11138	25237	4484	-24664	6632	16624	-751	-1554	946	-32768	-5096	25484	-5314	32767	-7851	-22468	-25968	-12200	-17962	18648	-16178	-32768	5808	32767	-5566	-10585	3988	118	142	1
-11736	-13444	20888	-25804	32767	14506	-32768	-1480	9160	-16898	25566	4218	-27040	4384	15376	-1264	-1639	1198	-18988	-4888	30984	-2541	31465	-14018	-29224	-3632	-3284	8309	22876	-9789	-4384	-4136	-10296	-8205	8347	-9227	118	144	1
-27648	-24892	27472	-25530	32767	22395	-29996	-8176	-2080	-19801	25617	6548	-23808	-10904	-720	-2971	-1298	935	-32768	26520	31716	-13795	20491	-9745	-17096	16100	-19668	536	21888	-5200	-9736	-7020	-8568	12223	10054	-948	148	138	1
-27980	-24032	25112	-22894	32767	28377	-26788	-9572	-10132	-15055	26451	7085	-21688	-17456	-6872	-2591	-1966	220	-9832	-11992	22752	-8578	3006	-5228	-18988	-7136	-11892	-7936	21826	-8816	-13120	19248	-26000	21811	4460	3129	138	131	1
-21868	-25400	24200	-21585	32767	29892	-27200	-808	-11416	-5881	18428	7012	-32744	-10648	-10440	41	-2397	-393	-8728	6180	14324	-4039	224	-2518	-16076	2372	-10348	1155	13261	-4795	-12916	4164	-10988	5639	8596	4365	140	107	1
-2140	-17940	27520	-29993	32767	25497	-17560	-3684	-6284	3509	10423	9640	-32768	-3312	-6456	924	-2474	-402	-8592	7588	12896	-1722	-320	-1738	-17236	-5756	-5532	14283	10838	-2434	-17148	7448	-11648	12883	10089	6570	144	108	1
-32768	-32768	32767	-19360	18036	21309	-10028	-2360	-24760	2574	5445	8346	-26904	-1184	-5368	926	-2543	-490	-8792	4268	13744	-1069	402	-1433	-17276	7128	-4768	10885	9634	-1662	-23336	5508	-4208	8008	9101	1802	172	100	1
-4740	-31636	32767	12491	-23918	1808	-3776	-2012	-12976	1493	-103	1884	-27720	-1280	-13168	1460	-2230	-588	-7348	3440	13988	102	1423	-1024	-18688	5976	-2880	-1758	8503	-3480	-15468	1448	-2596	2392	11892	-604	136	121	1
-2268	-14040	17128	26158	-32768	-2922	-8560	-1396	-5036	-1532	-9487	-1580	-22704	448	-9416	490	-2009	-769	-7692	5072	13344	773	2453	-878	-17640	2636	-4736	-4664	6372	-3387	-15780	3428	-2724	3963	14017	-1182	165	131	1
-1676	-6596	9032	25708	-32768	-4169	-3048	-648	-3496	846	-14980	-3516	-18512	-168	-10104	504	-1905	-855	-7760	5172	13288	739	2548	-951	-16348	312	-5116	2984	5113	-2143	-16016	7116	-3108	5488	13943	-196	147	114	1
-712	-1716	4104	17348	-32768	-4565	-2648	140	-2864	4155	-20652	-4296	-13552	1376	-9872	357	-2017	-814	-8104	4420	13268	191	3085	-1557	-17768	2552	-4032	8134	3763	-1157	-15668	4312	-1456	5672	13401	1250	116	120	1
-3144	-5988	6636	9026	-32768	-5527	-2424	1408	-4812	5230	-24874	-5867	-10712	600	-10120	452	-1918	-696	-8176	4784	13224	537	3427	-1773	-16840	4044	-3868	6003	3472	-1632	-14136	872	-884	8434	14211	1470	107	121	1
-6092	-11332	9372	9769	-32768	-8142	-3520	432	-6992	5070	-29676	-6734	-10144	-80	-11040	644	-1688	-621	-7552	3040	13692	1227	3923	-1763	-16096	2072	-3016	4088	3763	-1827	-20292	-1180	-1764	15374	13477	-179	105	125	1
-7360	-12748	9752	13899	-32768	-11659	-6344	1992	-5884	5904	-32768	-8371	-8016	-224	-10896	893	-1419	-563	-8220	4388	13084	1757	4564	-1543	-18060	1768	-4580	5451	3499	-1948	-19488	-1056	-700	15341	13016	-567	113	128	1
-9896	-11844	11668	13529	-32768	-15774	-9360	1740	-6460	5158	-32768	-9713	-5472	-1744	-11208	1300	-1315	-422	-8728	4196	12796	1856	4973	-1404	-17188	2136	-3624	5639	4503	-1755	-16096	4008	1428	11157	16114	1804	116	118	1
-11688	-12192	13148	9567	-32768	-19378	-12140	472	-6736	5117	-32768	-10643	-5056	-1496	-12160	2016	-1049	-352	-8816	4364	12444	1870	4905	-1252	-16164	3016	-2804	5320	5420	-2394	-14808	4212	572	10593	18863	2617	121	123	1
-14804	-14324	15596	4859	-32768	-22137	-15520	-1380	-9920	9977	-32768	-10531	-5464	-376	-13640	2472	-997	-306	-8908	4392	12284	1955	5082	-1195	-15304	3004	-2896	3545	6035	-2885	-14192	3868	-496	7332	18286	1985	135	125	1
-18252	-17420	19716	3006	-32768	-25590	-18284	172	-11076	16338	-32768	-8327	-6328	920	-11256	2502	-826	-242	-9280	4176	12188	1939	5273	-1074	-15608	1648	-3508	1995	7231	-3525	-14620	5096	-2820	4051	15901	162	138	131	1
-24580	-28828	29008	9445	-32768	-27324	-26124	1044	-14588	11897	-32768	-8754	-7488	1520	-6264	2066	-790	-225	-9428	4512	12068	1905	5564	-879	-15604	2632	-3604	2114	8019	-3915	-15184	6316	-2300	2480	13599	-1544	128	132	1
-32768	-32768	28916	19243	-32768	-31404	-32528	-4044	-17388	13143	-32768	-11996	-13304	688	328	1514	-1295	-271	-9152	5676	11796	1351	6410	-1497	-16600	4192	-4416	1845	8779	-4346	-15572	6556	-1440	588	14100	-2115	156	124	1
-32768	-16608	17104	13955	-32768	-32768	-27844	-1332	-17132	14875	-32768	-9043	-22040	-6840	10200	1622	-2048	-680	-9544	5320	11920	628	7512	-2271	-17352	3416	-2788	2008	9844	-5359	-17416	5156	772	-1079	13091	-1192	151	127	1
-32768	-20444	10484	-397	-32768	-32768	-27144	6644	-17608	-396	-32768	-5719	-21296	8184	18096	1040	-1663	-820	-9428	5432	12216	-703	9001	-3065	-15984	4476	-2500	2002	11794	-6462	-16232	3192	4004	450	12456	-399	138	125	1
-32768	-6996	-13236	1965	-30935	-19503	-13512	-4396	-19264	-3998	-25564	-10985	-13592	14480	32767	1321	-687	-765	-9036	5316	12316	-1230	12675	-4340	-18428	3836	-2324	798	13700	-7754	-19508	464	3080	1865	10792	-212	141	132	1
-32768	5080	-29940	-16447	-23149	-4830	-472	4452	-14836	-14113	-5645	-8911	-17856	2752	32767	-242	8	-321	-9540	3944	12748	-1366	17060	-5781	-21040	1956	-2884	2246	15366	-8487	-21088	2312	1928	4309	7570	-232	110	129	1
-32768	-9544	-32608	-11452	-3025	6029	-2152	-5500	-15500	-13133	13500	-5373	-14648	-872	24184	-891	-402	-441	-9552	5352	12000	-1229	22948	-7672	-22328	2368	-2260	4549	16808	-8730	-21260	2788	1784	7273	3318	-973	109	127	1
-32768	-16148	-7640	5044	17179	5872	-10660	-4024	-18852	10351	26495	1121	-11136	-2304	9696	-592	-363	-344	-10336	4788	11544	-273	30211	-9817	-22624	1376	-2024	6377	18177	-8602	-20372	176	4508	7254	-3249	-2833	125	120	1
21180	-2368	17264	14756	24098	-3892	-32768	-2340	32572	9600	19402	2666	-9312	-6688	-10864	249	1770	-905	-10928	4444	10716	1429	32767	-12094	-25696	360	-36	10279	18141	-7885	-22736	-1540	12520	6586	-12827	-4091	126	121	1
-15796	29804	9640	-218	32767	13822	-32028	5716	-10384	32767	21116	426	-32768	-10056	29296	1312	334	-2045	-13844	7272	12936	2609	32767	-15577	-32768	4944	6252	15915	17127	-7421	-26116	-5808	16048	-2311	-16676	-6193	128	124	1
-32000	13576	32767	-9152	32767	14944	-14108	30556	-3452	26465	23976	8368	-13504	9520	6312	5242	2059	72	-24096	8692	17388	5281	32767	-18463	-32768	4096	7312	22264	16828	-7889	-21668	-8372	4940	13581	-12034	-9085	117	133	1
-31904	9416	32767	-8999	32767	16665	-24092	-10356	-32768	4745	26548	1332	-14840	10224	6424	5079	2001	101	-32768	12168	22904	1872	32767	-23605	-26988	8184	-6532	19881	16791	-8257	-21624	4932	-9020	31824	-12628	-6080	151	135	1
-7504	7420	21456	6651	4204	3363	-30752	6100	-9860	31342	20098	-2563	-23536	2416	-21696	-1298	1187	-426	-29772	10768	16792	4444	32767	-22170	-29884	11008	-5860	14124	18035	-13811	-26032	15728	-10924	23772	-15443	-4462	129	137	1
-3848	-6756	15616	4062	-108	1446	-4184	2024	-9572	-2989	19408	-3143	1008	-7096	-13856	-2732	483	-147	-24444	11872	26748	12986	32767	-20431	-22196	1112	-7032	6736	13510	-12808	-28820	11008	-10740	2908	-18207	-324	84	116	1
-7824	-5080	15120	1199	-349	633	-8572	11408	-13936	-23092	12833	-4504	-8864	-3296	-12960	-2139	1022	-773	-23588	16444	32767	10454	14349	-20091	-14320	4032	-17004	-470	11657	-9598	-31472	4072	208	-11966	-18028	3886	84	127	1
-5052	-6108	14880	-656	13	-229	-22824	-5024	-7728	-24890	8605	-7508	-27928	-7856	-7920	-1937	1002	-745	-9200	20952	32767	-1172	-32768	-7606	-12712	5704	-8284	1754	6380	-6131	-28188	2116	-10580	-10333	-18836	6373	129	130	1
-5388	-5056	14800	-1078	488	-209	-20060	-11156	-7152	-2954	7175	-3352	-24576	-6040	-3192	-1042	1319	-27	-828	9680	16052	-5190	-32768	-5632	-10056	2200	2208	1815	-8125	795	-28224	2092	-10396	-10100	-18606	6095	135	107	1
-3872	-2384	16796	-2884	635	503	-18620	-5572	-6624	13977	6162	3431	-17312	-4200	-1448	69	1954	229	288	7292	9032	-411	-32768	-3308	-6068	328	844	1252	-12882	4547	-19332	160	-12484	-3246	-15961	6273	84	121	1
-7092	-8332	13684	-2432	1614	-254	-16092	6636	-4212	3521	5307	1361	-13448	-6624	-1456	15	1899	122	-5340	9264	10324	3700	-32768	-688	-3372	1584	-4020	-1399	-17196	8013	-18312	680	-12556	-3776	-15615	6239	110	121	1
-5920	-5788	14660	-2502	1977	240	-15012	2180	-4588	-10854	4299	-2658	-14312	-3048	-464	-300	1599	-16	-9028	10600	10460	5438	-32768	3775	-5124	464	-4096	-3917	-21940	11738	-12824	520	-12020	-6976	-14854	5253	93	128	1
-5376	-6204	14416	-2595	2171	273	-15540	-4932	-4216	-10007	3889	-2268	-17192	-288	480	-909	1396	-4	-9800	10360	7784	6288	-32768	8898	-9176	148	-2760	-3331	-27754	15282	-12684	1704	-12640	-8834	-14243	4136	123	136	1
-5220	-5864	14464	-2820	2525	710	-17036	-3244	-3432	-5616	3725	-1019	-16464	-1456	856	-1265	1373	37	-11940	9736	7760	7514	-32768	14200	-11152	192	-3936	-4007	-30057	18508	-9832	2764	-13180	-9638	-12173	3768	130	134	1
-5696	-6068	14216	-3485	2932	740	-16288	-184	-3988	-3401	3431	-234	-16080	-2440	1416	-748	1379	-137	-13876	9128	9640	8880	-32768	18687	-13240	1768	-4276	-6414	-32768	21240	-7820	444	-13192	-17208	-12940	2632	138	142	1
-6136	-6244	14032	-3950	3135	645	-16304	1104	-4128	-5169	4451	-857	-15488	-1024	4256	-515	1639	-145	-18972	9956	13740	9857	-32768	23010	-15976	2484	-7076	-13039	-32768	23100	-6104	252	-12684	-20130	-13193	1480	133	130	1
-6616	-6380	13776	-3928	3020	256	-15384	-208	-3960	-7866	4600	-945	-13968	-2280	5560	-1199	2382	12	-22916	8984	17640	9720	-32768	26693	-20368	1668	-8844	-17544	-32768	23488	-5100	1408	-11088	-20832	-13065	2537	129	136	1
-6424	-6900	13496	-3851	2814	83	-14624	-1888	-3812	-7657	5244	-662	-14352	-4560	2368	-1541	3001	39	-23412	7564	18708	8712	-32768	27541	-25160	880	-9284	-18418	-32768	23059	-5132	1028	-8312	-17382	-11241	2991	124	124	1
-6284	-6336	13524	-3795	2758	84	-14860	-1584	-4136	-5198	5947	237	-15640	-3952	-1832	-843	2575	-84	-27928	8872	22996	6458	-32768	27198	-28212	1460	-11712	-17479	-32768	22992	-6884	252	-6756	-9927	-6321	3747	138	129	1
-6812	-6632	13776	-4230	3042	-128	-16256	168	-4076	-3489	6540	685	-16400	-4080	-2072	-156	1833	-80	-32456	10136	22172	1949	-32400	24928	-29300	2264	-12960	-16780	-32768	22629	-11036	-1568	-4132	-8650	-6526	5065	138	138	1
-7140	-6736	13496	-4772	3520	-704	-15848	132	-3036	-3343	7653	1012	-15632	-5896	1640	-228	1784	193	-32768	7796	21212	2474	-30300	20889	-28740	1976	-16460	-13177	-32768	23554	-14420	-1680	-168	-6957	-9005	4179	130	131	1
-6364	-6980	13128	-5255	4036	-945	-14648	-2140	-736	-2044	9393	1585	-15880	-3248	5496	-216	1667	265	-32768	-928	18332	17017	-32768	22538	-29248	-6284	-19908	-6818	-31854	21954	-15816	-1192	2060	-6239	-9793	3861	125	128	1
-5652	-7804	13324	-5142	5090	-523	-15104	-3464	12	1316	11720	2384	-16776	-136	7000	53	1503	39	-32768	-9368	-124	23570	-31126	20938	-20196	-6560	-17172	290	-24946	19991	-14348	-8172	19732	-4575	-9812	5482	128	127	1
-5952	-7328	13376	-5835	7419	341	-17064	-1756	-1336	3344	14179	2973	-18648	1312	6680	39	1301	-153	-32768	-17696	-20644	17766	-18795	12544	-9776	-5260	-20236	5055	-12005	14740	-15020	-1992	25804	-1469	-4248	7542	129	125	1
-5576	-7136	13748	-7483	10710	910	-18684	644	-300	1503	16884	3210	-19896	-696	6680	-570	992	-54	-32768	-22176	-22484	8695	-6047	2926	-6216	-5848	-20952	3888	3302	4766	-17896	4472	19904	818	-1234	5987	125	118	1
-5300	-8252	13312	-9092	14759	2058	-19148	216	-1248	-1188	19506	3104	-19704	400	6696	-1039	436	92	-32768	-15212	-15792	-504	4203	-1530	-10440	-7640	-19420	-640	15889	-4747	-15008	5196	13756	3189	-712	3052	116	124	1
-5484	-8364	12196	-11578	20848	3245	-21120	1376	-2396	-3402	21734	3044	-19968	2696	9368	-1070	-265	229	1896	-21228	-10080	-6938	19933	-2362	-11276	-7624	-19012	-1625	17604	-6081	-10572	4844	0	1499	3850	840	113	132	1
-6268	-8992	12172	-16707	29974	4109	-24028	6840	-1492	-7807	23299	1799	-20672	8000	16200	-964	-1489	578	23112	9932	32767	-13044	30457	-16784	-32768	24400	32767	10169	7230	-3191	-17448	3376	-10308	214	12396	1751	115	134	1
-6040	-7972	16016	-24587	32767	5132	-32768	6252	5624	-15838	24263	1310	-24968	11144	15368	-1192	-1863	959	-32768	-7668	32767	-4836	32767	-11835	-19884	-19508	-11212	-20321	16775	-14953	-32768	10128	27524	-8412	-7786	5026	115	128	1
-13928	-13000	21940	-32768	32767	6572	-32768	984	7316	-24938	24646	1484	-26936	6304	12440	-2121	-2061	1334	-22620	3680	22900	-4931	29825	-13968	-29324	-5528	-5672	-1310	21043	-10112	-12788	-14212	-10852	-27019	10092	-9570	122	149	1
-24336	-23232	17800	-32768	32767	16676	-27856	-9648	-5844	-24759	26106	3721	-24176	-13696	-6384	-4079	-1606	927	-31392	19708	21444	-13611	10968	-7696	-16180	11012	-24148	-4998	25013	-3725	-7652	-6484	-2076	9223	10814	-115	145	119	1
-29760	-26000	21256	-32768	32767	21989	-29540	-7404	-11632	-13318	24504	5213	-26000	-17664	-8256	-2371	-1935	109	-6888	1944	18868	-7302	3582	-5846	-18084	-3928	-8420	-4918	20101	-7783	-13528	12876	-22164	23322	8461	2874	126	128	1
-21780	-24012	23804	-32768	32767	17826	-23868	4756	-11116	-2085	16933	7711	-32768	-8288	-12080	-150	-2546	133	-6308	2480	14960	-5077	541	-4192	-11400	396	-9112	10353	13971	-3464	-7916	4364	-7404	8405	624	5072	125	113	1
-10628	-18640	32767	-32768	27403	16819	-15704	-4968	-13832	-6768	11581	9283	-29504	-3280	-6400	1144	-2434	-375	-6596	4308	14400	-1712	331	-2320	-19684	-2920	-1416	16387	12018	-2383	-12948	2836	-5360	16915	5950	4353	158	117	1
-26180	-32768	32767	-12495	5540	18495	-8604	-992	-24196	-5587	6284	6412	-26064	-1944	-5832	777	-2418	-539	-7608	2780	14492	11	1651	-1447	-19904	5800	-3656	7570	8754	-1884	-22708	7268	-4868	10685	6743	2546	173	103	1
-4856	-23400	29140	21852	-25507	5753	-4360	-5532	-8352	-1154	-784	1568	-22584	2392	-8368	518	-2082	-444	-7132	5292	13820	499	2625	-1464	-18884	7964	-4100	-3893	10300	-3983	-21004	6084	-2952	4772	8081	-1448	143	121	1
-1996	-7464	14424	28941	-32768	5561	-5384	-1948	-4476	1196	-7328	-1686	-19392	32	-8352	224	-1928	-749	-8436	5384	13552	-111	3518	-2132	-16800	-560	-5700	-2119	8218	-4195	-14044	5824	-3104	2939	11610	229	168	124	1
-596	-2600	7412	23083	-32768	6465	-2240	-60	-4692	3820	-13470	-2136	-17088	-984	-9256	309	-1707	-804	-8260	3200	13820	135	3309	-1776	-17656	-2336	-5076	6216	6430	-1578	-15596	4816	-3840	1946	12183	-110	138	122	1
-2344	-3816	5980	14935	-32768	6171	-2068	148	-4224	6320	-17540	-3797	-14240	1520	-9176	476	-1757	-880	-7948	4468	13332	758	3563	-1099	-17332	-1436	-5144	6756	6222	-1391	-15512	3316	-3140	3435	11671	-310	109	111	1
-3004	-10568	6548	13064	-32768	3663	-3280	2032	-5928	7348	-23254	-4818	-13352	704	-9056	557	-1737	-685	-8084	4272	13372	1404	4145	-1458	-16204	2928	-4532	3122	4962	-2454	-13864	2856	-2100	6191	11424	-374	110	122	1
-3148	-10732	6992	13559	-32768	3017	-5056	3380	-5396	5246	-28068	-5936	-11864	1248	-10528	731	-1597	-551	-7772	5540	13084	1226	4692	-1641	-16768	2120	-4584	3365	4257	-1785	-14400	3012	-1132	5827	11776	-290	102	125	1
-5824	-12152	9016	16295	-32768	-6722	-6788	3572	-6072	1731	-32479	-7030	-9328	88	-9816	810	-1441	-477	-8288	3968	13084	1595	5265	-1483	-17264	904	-4284	4467	4074	-1720	-17328	2964	-492	8526	13170	353	120	130	1
-8224	-10816	10492	11392	-32768	-12689	-8964	2868	-6252	151	-32768	-8172	-6456	-256	-10672	1210	-1199	-431	-8912	4264	12700	1948	5555	-1384	-16536	2020	-4220	5482	4059	-1648	-16636	2676	300	10058	13969	268	122	127	1
-9240	-11204	10984	4716	-32768	-16713	-12152	1512	-6676	-1312	-32768	-10391	-6192	1264	-11024	1921	-1059	-345	-9032	4256	12532	1966	5504	-1247	-15496	2796	-3200	5571	4916	-2219	-15224	3388	2044	9718	13471	267	113	124	1
-15072	-14076	14836	1983	-32768	-19133	-13452	-2072	-9968	5817	-32768	-11374	-6712	3480	-10872	1817	-1054	-170	-8336	5484	12164	1297	5556	-1726	-15536	4408	-2740	4500	6090	-2927	-14372	5244	2768	8617	13855	355	131	122	1
-17284	-17128	19428	3885	-32768	-21603	-16892	1396	-10876	13441	-32768	-9428	-6896	2864	-7144	1394	-988	-33	-8360	5436	12224	1188	5645	-1860	-16300	3824	-4500	2628	6822	-3391	-15612	5608	-8	6451	14931	-439	127	127	1
-22892	-23560	27512	9145	-32768	-24483	-24588	3144	-13572	10706	-32768	-10910	-7896	1688	-4232	872	-696	65	-9456	4296	12060	390	6781	-2773	-16872	884	-4556	2747	7270	-3877	-16220	4904	-2264	5229	14497	-1788	134	126	1
-27492	-25852	28272	14059	-32768	-28653	-27792	448	-14432	7870	-32768	-11609	-11504	-1464	112	665	-580	-55	-9848	3904	11776	119	7134	-2498	-15996	1348	-4140	2653	7861	-4339	-14856	5300	-1068	2881	14181	-2706	137	125	1
-30188	-16144	21696	11307	-32768	-30398	-27860	560	-13700	8469	-32768	-10306	-18288	-9008	7672	691	-1496	-621	-10032	4376	11608	-158	7448	-2264	-14684	3132	-3784	1308	9108	-5395	-13848	5624	1088	-499	12132	-2764	137	124	1
-32768	-17488	18720	3514	-32768	-29280	-28932	2500	-15164	316	-32768	-6724	-19800	-6480	11632	906	-1250	-1270	-9560	5016	11504	-583	8191	-2837	-15020	3888	-3140	59	10863	-6242	-15104	3228	3216	-2737	9712	-1449	139	128	1
-32768	-16884	-1288	11727	-30847	-18118	-17944	-2688	-16608	55	-29006	-11497	-15184	6728	26424	2144	-986	-1372	-9424	5288	11852	-1278	10412	-4049	-17508	3040	-3588	-530	12534	-6982	-17148	1232	4316	-2041	10087	-596	130	138	1
-32768	5760	-20916	-10930	-26009	-6988	-4724	3820	-14516	-2848	-14124	-8320	-15280	10360	32767	1001	22	-175	-9904	3636	12140	-1364	13709	-4696	-19924	204	-2752	1495	13906	-7874	-18392	840	5048	-363	10268	-311	133	130	1
-32768	-7208	-32768	-16961	-9246	-1077	1108	1184	-13064	-9560	5649	-4602	-15752	-1016	29344	-263	-224	-100	-9972	3764	12340	-1147	18941	-5569	-20960	1436	-2536	2681	15600	-8335	-20780	1536	4452	212	5745	-886	126	126	1
-32768	-10296	-32768	-13179	-3954	-379	-6356	-2148	-13512	-2580	20104	-651	-13376	-280	18832	-659	-470	-17	-10392	4992	11892	-428	25227	-7640	-21688	2388	-2112	3688	17689	-8373	-22180	-1520	11196	-192	-4958	-3731	136	116	1
19692	8440	6952	4928	32767	220	-16544	-8392	-3088	3773	27425	3765	-10928	-2096	-1920	-461	380	-31	-10440	4864	11120	896	32767	-10311	-24176	1024	-756	6268	19151	-7831	-18204	-7676	8556	-3487	-4690	-4201	115	119	1
19816	15352	7456	3322	32767	7920	-32768	-3144	28560	24107	12407	492	-20024	-10808	-6336	597	1759	-1056	-10744	5756	12768	2247	32767	-13367	-31036	2360	3568	11857	19143	-7149	-24384	-11596	19400	7513	-9522	-4847	121	131	1
-32768	14792	19304	-4706	32767	15502	-16636	12504	-18240	32767	21030	6233	-15672	2112	4264	3823	1773	-1425	-16872	7040	12764	4602	32767	-17541	-32768	2572	5992	20986	17157	-6262	-28512	-7408	4656	27717	-7792	-7381	125	134	1
-32768	-32768	32767	32767	32767	32767	-20144	4140	-24564	20377	15575	4988	-24056	6400	21648	2907	390	186	-31000	8420	18436	2873	32767	-20055	-30548	4700	-2860	28375	13904	-6579	-20416	7964	-9348	32767	-12361	-5840	106	103	1
-92	11932	32767	5445	-3257	1910	-32768	11524	9308	17667	28527	-5307	-29624	17824	-20304	831	2233	-54	-32768	7764	24680	2654	32767	-20594	-25628	6644	-8096	20702	11209	-9645	-25656	17692	-12188	27123	-15792	-4751	132	147	1
-7328	4172	18352	2477	-27	1186	-12828	-1136	1384	-5310	24486	-3695	-12976	872	-14408	-3780	752	-40	-27084	9508	11616	10694	32767	-16288	-19912	5624	-7020	13174	11862	-12383	-29156	17432	-11740	-289	-18931	-1779	96	126	1
-5952	-5244	14248	1873	1812	2135	864	2464	-8164	-22798	20165	-4352	4968	-15832	-8680	-4108	-326	67	-30472	17196	30096	11290	30402	-15460	-16100	3888	-17528	-1928	10097	-12392	-24280	6644	-8136	-14769	-16949	4137	104	139	1
-5668	-4676	14616	443	1343	1510	-140	936	-10748	-23905	18938	-4184	-13504	-7176	-6912	-904	646	-690	-32768	30896	32767	4231	-22377	-11690	-6340	5408	-17500	-5685	10578	-8785	-23156	-1584	-8172	-12253	-16056	6826	97	125	1
-5396	-5756	14836	-109	2178	1571	-23400	-4364	-9636	5766	10764	-560	-26984	-10136	-9232	-180	1137	-445	-3992	12516	20124	-3785	-32768	-10143	-10264	6336	6164	613	-467	-1089	-25180	-2020	-10820	-4467	-12656	5563	145	104	1
-7396	-4592	15020	12	1585	1411	-17520	-1404	-9956	8388	9150	1229	-25312	-3648	-4904	729	1422	-14	-1108	7952	8376	-353	-32768	-8972	-5524	-1024	-64	-1608	-9576	3278	-19684	-296	-10276	-2036	-13302	4915	121	114	1
-6516	-5720	15116	24	1706	1569	-16844	3252	-7928	3924	8099	825	-18216	1504	-1512	407	1581	84	-2836	8780	6068	5055	-32768	-5378	-4456	-896	-1212	1463	-14677	6805	-15660	72	-10844	-3431	-13100	4793	100	120	1
-6336	-4244	14752	-974	1838	1092	-16068	4936	-6284	-4468	6406	-1413	-13456	896	-144	89	1556	261	-5956	11104	6836	7541	-32768	-160	-4640	-268	-3276	2009	-18948	10226	-13772	316	-10656	-5724	-12838	4901	107	126	1
-5172	-4720	14680	-2309	2855	562	-16372	-980	-5576	-7077	5335	-1569	-15688	-1472	696	-357	1431	168	-8584	11948	7160	7518	-32768	6504	-8328	-696	-3292	1889	-23746	14192	-14232	712	-11724	-6837	-11472	4741	113	130	1
-6044	-4984	15060	-3561	4105	696	-16956	-1336	-5216	-3182	4644	-819	-19672	-1040	776	-423	1265	41	-10032	10308	7732	8652	-32768	13802	-10084	112	-3620	-752	-27021	17796	-13608	776	-12356	-6983	-12135	3316	127	133	1
-6488	-5460	14696	-3653	4898	920	-18136	-1568	-5740	-2036	4839	-496	-17872	-3232	920	-480	1348	39	-13660	9432	12004	10890	-32768	19984	-13584	-344	-5520	-2459	-30146	21266	-11856	-164	-11740	-9447	-10657	3933	138	131	1
-7192	-5920	14160	-3526	5119	911	-14440	-1004	-5572	-2873	4890	-206	-15136	-4304	2168	-254	1441	9	-17412	8560	15316	11651	-32768	23477	-15536	3364	-5452	-8868	-32433	24561	-9284	-1816	-12116	-12086	-11522	2210	136	140	1
-7080	-6384	13632	-3226	4962	979	-14092	-2512	-5492	-4089	5069	-239	-13568	-5080	2856	-386	1579	-2	-18360	6776	15800	11725	-32768	25292	-18084	1164	-6404	-14968	-32768	26178	-7308	-244	-11776	-10551	-9687	2154	118	126	1
-6824	-6532	13184	-2869	4738	1559	-14504	-2752	-5308	-2938	5415	308	-14416	-3376	1728	-635	1745	28	-20072	5520	19080	12206	-32768	26444	-22124	-728	-7216	-17872	-32768	26174	-5148	144	-9620	-8290	-6915	3072	124	127	1
-7100	-5924	13784	-2516	5185	1932	-16256	-564	-5856	-1984	5555	445	-16424	-1368	1400	-880	2034	157	-23332	6044	23836	12206	-32755	27093	-27092	-2440	-7876	-15582	-32768	25976	-4568	-680	-8096	-5819	-2183	2975	131	123	1
-7848	-5652	13476	-2638	5869	1760	-16392	1348	-6568	-2110	5611	632	-16424	624	-1520	-1143	2346	191	-31932	7404	29892	11591	-32068	28082	-31592	-1804	-11096	-11873	-32768	26292	-7536	-76	-3268	-5992	-2563	2896	126	123	1
-8052	-5084	13128	-3236	5819	1179	-14648	2632	-5464	-3279	5909	73	-14080	280	-744	-754	2124	189	-32768	3496	29944	12677	-32768	30646	-31108	-3864	-14160	-8542	-32768	23408	-12676	4864	2240	-7646	-8557	4381	135	129	1
-7896	-5416	13132	-3429	6336	713	-14024	224	-4356	-3635	6597	-55	-14352	-4112	2376	-224	1903	115	-32768	-2240	14796	7816	-32768	25487	-27884	-900	-13264	-5909	-32768	22073	-18896	5024	11612	-7278	-12215	7018	126	135	1
-8340	-5968	12920	-3703	7030	417	-15124	-1884	-2916	-1685	8236	688	-15488	-4120	6680	228	1815	33	-32768	-11920	-5252	5959	-28907	13372	-20280	-1648	-17528	-9374	-24945	19013	-18496	-6636	20816	-13442	-11930	7391	129	129	1
-7708	-6560	13252	-3985	8471	660	-16404	-1820	-1356	1555	10616	1786	-17080	-1448	9320	316	1731	-80	-32768	-22216	-18616	19215	-17826	6180	-6916	-12144	-19700	-5515	-9764	10608	-14804	-7212	32767	-3858	-3291	2654	132	124	1
-8220	-6560	13120	-4586	10856	1116	-16556	-52	-924	2185	13557	2032	-18240	520	8648	-17	1335	-16	-32768	-14860	-23084	8564	-4158	3684	-4668	-10120	-18676	3666	2910	1828	-17116	2532	19916	-2589	776	-360	129	115	1
-7680	-6768	13368	-5471	14216	1859	-18216	-308	-1508	-174	16128	1722	-18544	688	9544	-115	705	75	-32768	-13332	-10088	-9167	4689	657	-10584	-6136	-17228	1507	14950	-6355	-14408	4488	14436	3097	-274	-408	123	106	1
-7664	-7616	12644	-7217	18624	2946	-19700	-72	-1812	-2498	18781	1369	-18888	1696	12160	-305	95	252	23420	-4648	-4896	-8192	19144	-6232	-24440	1288	-11488	-4012	20360	-11685	-15788	1932	1316	-3637	1946	21	120	138	1
-8532	-6920	12904	-10244	25626	4156	-21808	1692	-1268	-4850	21637	1160	-18496	3600	16936	-358	-663	363	-12	4576	23836	-13184	32381	-23112	-32768	11104	24564	13	10778	-5359	-27944	1380	-4344	-1593	6820	556	116	131	1
-7192	-7440	14492	-15364	32767	5851	-29800	2116	1468	-8769	23122	939	-24712	6384	18440	-785	-1301	524	-32768	320	32767	-6140	32767	-10687	-21164	-15504	-11172	-15316	18776	-15554	-32768	348	11648	-15956	1529	1947	111	159	1
-11480	-8640	16648	-21608	32767	9928	-32768	2940	4880	-17118	23705	-354	-27496	9112	8576	-1362	-1471	872	-32768	-1716	27924	-9769	24873	-13432	-25952	-7484	-9676	4079	23727	-8441	-12256	-5288	800	-4046	3132	-4578	102	137	1
-19924	-12932	15428	-26367	32767	13842	-32420	852	-2176	-26453	22746	752	-27232	-1680	1344	-3355	-1580	1001	-8252	8228	15664	-11975	7298	-6164	-16644	9232	-10880	-2894	23274	-6775	-13000	132	-17924	17776	12653	1340	135	125	1
-29572	-18680	24340	-29359	32767	17684	-23536	-2808	-12788	-29500	22905	801	-22576	-9912	-4392	-3571	-1318	857	-14868	8616	15112	-6234	566	-4405	-12640	-6688	-14096	-6565	18896	-8243	-6508	9400	-16968	8366	2721	1266	133	116	1
-26916	-15924	18760	-31101	32767	17239	-23156	-3588	-11652	-24914	18980	1220	-26568	-6296	-9680	-2372	-1873	340	-9824	2976	13624	-3290	-793	-3053	-12872	-2080	-10744	5012	13413	-4116	-12812	5576	-9528	2309	7726	4874	131	112	1
-15896	-20196	21152	-32768	32767	15847	-17180	-892	-10432	-13001	13652	4937	-28144	-2032	-7336	-342	-2147	-302	-6676	4196	14520	-518	-51	-1671	-20768	-1596	-3536	9570	10092	-2825	-19636	3784	-9732	6553	8053	942	146	106	1
2484	-10592	32767	-32768	12752	15030	-9996	-3460	-10660	-8677	10713	4135	-25864	-2120	-5032	118	-1712	-728	-7424	3984	14112	392	1098	-928	-20680	4308	-4388	5161	8860	-2223	-24220	3708	-4396	4661	8337	-720	158	105	1
-9292	-28096	32767	-7306	-21989	7274	-5560	-128	-19052	-7203	5924	678	-24608	-2808	-6760	65	-1829	-618	-7428	4472	13976	264	2156	-1175	-18676	4072	-4696	-1397	8581	-3156	-16512	2740	-1660	2601	9646	-715	138	129	1
-1880	-15600	18960	13862	-32715	3903	-7336	-3056	-3320	-6428	-1525	-4244	-21224	304	-8944	58	-1734	-493	-7640	4860	13844	454	2858	-1171	-17316	1804	-4800	-403	7530	-3542	-15096	4836	-1848	2291	12037	-222	138	123	1
-36	-7624	9936	18592	-32768	2360	-5060	-24	-3380	208	-8085	-6445	-18392	-288	-6008	-236	-1659	-714	-7876	4912	13536	292	3174	-1705	-16804	256	-4472	4499	5814	-2421	-16248	5392	-3452	3317	11527	146	147	120	1
800	-2712	5556	13983	-32768	-808	-4116	1840	-1780	7037	-12791	-6933	-15336	-632	-7776	71	-1679	-768	-7932	3940	13356	503	3578	-1496	-16544	2324	-4988	4499	4848	-2285	-15400	3000	-2776	3485	11077	-466	139	115	1
-804	-3720	7060	6964	-32768	-5409	-4804	3596	-3460	9758	-17225	-6878	-14544	-392	-7496	333	-1676	-705	-7456	3948	13480	684	4099	-1792	-16660	2136	-4448	3077	4318	-2449	-15972	2048	-2844	5562	11392	-407	123	127	1
-2356	-8212	9196	7487	-32768	-9873	-6044	3848	-4936	9208	-22476	-6730	-13344	-392	-8520	650	-1585	-683	-7804	4604	13360	712	5136	-1843	-17076	1316	-4476	2901	3971	-2200	-17740	2008	-1740	4702	11062	16	115	119	1
-6208	-9124	13004	12489	-32768	-14414	-6876	3636	-6500	9017	-27065	-7125	-11928	24	-8472	780	-1513	-584	-8644	3456	13064	1126	5302	-1731	-17096	-352	-4712	3965	4096	-1957	-17212	1700	-888	4858	11696	-390	112	127	1
-9876	-7196	15408	13672	-32768	-19272	-8428	3732	-6576	7487	-31266	-7056	-10128	-1280	-8232	1006	-1373	-531	-8772	3860	12752	1377	5175	-1248	-15884	1260	-4572	4768	4090	-2030	-14572	1888	-1108	8663	12203	-399	115	123	1
-10880	-5968	14808	11633	-32768	-21221	-11832	1748	-5320	6870	-32768	-7364	-8760	-2064	-8544	1495	-1283	-494	-8868	4592	12696	919	4887	-1425	-14976	2980	-4608	3640	4517	-2589	-14188	2632	-632	7971	12531	-377	117	123	1
-12144	-5540	13624	8042	-32768	-19978	-13548	892	-6248	9223	-32768	-7974	-8624	944	-9784	2086	-1131	-438	-9000	4768	12268	-187	4436	-2043	-15312	2612	-5188	2567	4911	-2960	-14920	4456	-2356	6887	14055	-111	121	126	1
-15928	-8284	16608	5795	-32768	-18049	-14276	836	-9760	14298	-32768	-6879	-8224	3520	-9520	2079	-989	-203	-9148	4060	12324	-750	4203	-2476	-15876	1472	-5024	1827	5241	-3216	-14968	3652	-2912	3747	13883	30	130	125	1
-17896	-11356	21284	6073	-32768	-17124	-17272	5036	-9412	12587	-32768	-4952	-7832	4512	-7928	1611	-957	24	-9420	4188	12236	-1427	4078	-2821	-15928	1020	-5064	1483	5463	-3353	-15232	3360	-3884	2890	13402	-219	135	130	1
-21752	-18256	28148	8851	-32768	-17623	-25928	5420	-14392	4359	-32768	-7770	-8904	2232	-2920	1118	-815	115	-9400	3916	12128	-1653	4181	-2871	-15844	968	-5168	872	5875	-3636	-14980	2704	-2496	277	12989	-484	133	124	1
-28300	-24212	30900	13268	-32768	-20193	-29452	2132	-15188	1211	-32768	-10814	-12320	1056	2840	869	-949	-16	-9532	3860	12276	-1299	4796	-2832	-15972	560	-4872	610	6378	-4040	-15288	1612	-1356	607	12720	-521	142	130	1
-32492	-15336	20548	10803	-32768	-23332	-25556	876	-12176	2044	-32768	-10223	-17256	-3112	5240	708	-1068	-308	-9340	4072	12156	-1344	6116	-3180	-17116	1888	-3768	1637	7123	-4344	-17060	1572	1540	2391	12694	-49	142	128	1
-32768	-14012	11972	8101	-32768	-22354	-22548	616	-13556	3338	-32768	-6990	-20248	-3688	13184	823	-1279	-681	-9240	4116	12176	-1584	7932	-3823	-17596	2452	-2780	1659	8755	-5285	-18264	2044	4060	2880	12295	335	133	124	1
-32768	-11740	-44	13685	-26426	-17223	-22316	-88	-15748	5663	-28367	-5423	-13840	3472	25080	1926	-1533	-944	-9120	4220	12244	-1946	10644	-4838	-17588	3240	-2528	1234	10788	-6460	-18452	2296	4540	2946	10248	219	119	132	1
-32768	3220	-22036	4257	-21074	-9109	-4316	3620	-17416	4582	-12466	-4056	-10896	11104	32767	1317	121	-46	-9532	3168	12636	-2536	14334	-6114	-19376	1444	-3264	1596	12588	-7428	-20412	2880	1588	4360	7020	14	137	124	1
-32768	976	-31168	-8272	-6291	-1018	20	2140	-13924	-932	5346	-997	-17728	3576	28736	353	-72	301	-9964	3996	12980	-3132	18713	-7239	-21052	1980	-3736	2412	13590	-8080	-21120	2648	1820	5667	2345	-431	136	117	1
-32768	-7492	-13972	3833	12880	5758	-8772	-2204	-17380	-547	19209	1059	-13536	464	12744	-391	-89	295	-9736	4124	12304	-3352	24247	-9389	-22660	2084	-2660	3598	14755	-8179	-20424	2392	8016	2367	-2696	-2224	134	112	1
-5112	5260	20548	-3123	26147	10708	-30120	-2408	27332	-6484	17824	3661	-14320	-192	-3200	-265	1356	50	-10620	4252	13384	-4040	31405	-12009	-24016	3400	-808	6251	15830	-8318	-20040	2412	7704	1921	-3433	-2605	121	118	1
-2352	-10904	44	-8246	32767	15549	-31108	4288	-3816	16205	18946	1822	-30200	4992	26792	1285	1053	-283	-11048	6252	11920	-5012	32767	-16485	-28980	8528	2708	8428	16611	-8564	-24632	2640	17324	684	-9599	-4220	128	126	1
-25184	-8744	32767	-9564	32767	3719	-17692	13008	-2152	4371	23194	5175	-10848	1104	-1176	1417	2047	-215	-14160	5976	11896	-4821	32767	-23793	-31452	7972	4840	12461	16932	-8555	-22984	-3316	8112	6055	-8556	-6018	126	133	1
-32768	-29904	32767	7330	27783	13425	-21940	-5820	-19240	5235	22349	3388	-21568	3736	-2592	323	715	-586	-27432	6220	16608	-6078	32767	-29628	-29264	5920	-148	16971	16245	-8618	-21820	-2412	-1228	11699	-11952	-4526	100	138	1
-8008	3748	25832	8504	5047	4561	-19596	-216	-9992	18458	20232	-544	-16576	-1096	-20384	-1445	1112	-296	-32768	112	18728	-2289	32767	-27159	-24908	-104	-11836	18083	16645	-10429	-21964	8904	-7872	17286	-15857	-5011	117	134	1
-9276	-10268	15792	3985	839	1122	-12188	2628	-13012	8625	16055	466	-11896	-5824	-12776	-1579	756	-227	-32768	2744	9876	-1620	32767	-26447	-24460	2968	-6624	19360	14092	-11477	-24992	7772	-10984	9141	-18155	-2895	89	136	1
-8864	-6020	15872	3747	668	1155	-12432	7564	-10692	-7711	11727	-2183	-12560	-4600	-8376	-1292	996	-458	-18832	11592	25296	1398	32767	-29710	-18032	5776	-12852	14837	10826	-7843	-27604	5124	-8732	766	-18824	2954	103	128	1
-6592	-5736	15408	1238	-256	485	-17976	1548	-8392	-22514	9389	-4324	-20600	-7928	-6648	-1475	977	-459	-32768	25464	32767	9368	-4885	-14831	-9496	1176	-16608	5138	10335	-5335	-25376	440	-9516	-1358	-15636	6570	131	123	1
-5536	-5340	14880	908	-252	164	-18832	-9388	-5892	-9765	7767	-2347	-19384	-6648	-2056	-686	1188	-88	-8436	22980	25536	4791	-32768	1616	-11960	4912	3360	2744	1094	-778	-24788	-748	-8684	-995	-15688	7365	128	130	1
-5248	-5100	14932	256	351	221	-17320	-6148	-4768	8841	6558	2549	-17216	-5816	-992	582	1598	188	1956	12536	8688	889	-32768	8037	-7048	1060	1976	1691	-7092	4738	-21440	432	-10200	1035	-13865	7946	104	110	1
-5920	-5084	14828	-626	729	134	-16464	428	-5980	13941	5841	3359	-15672	-2056	-968	1321	1748	171	668	7652	7024	3398	-32768	10803	-5296	1732	360	27	-11450	8692	-17764	308	-10840	-1685	-12998	7893	104	130	1
-5696	-5496	14916	-930	835	182	-15836	4304	-4596	5199	5018	1743	-15968	40	-672	812	1652	38	-3580	6752	9832	7242	-32768	12468	-4288	3316	-2740	-5478	-14656	12423	-14316	-360	-10192	-4434	-12798	7155	110	106	1
-6240	-5804	14660	-266	678	423	-15044	2932	-5468	-5945	4457	-701	-15224	928	384	-265	1529	68	-7860	6472	12328	9649	-32768	14839	-6952	76	-3064	-9990	-17985	15799	-13324	-432	-10520	-5893	-13494	6528	103	123	1
-5960	-5292	14488	42	180	267	-15160	-1292	-3912	-8593	4145	-1417	-14992	784	1032	-1061	1425	-42	-8524	5080	10976	10680	-32768	17328	-10108	-1612	-1772	-8357	-22677	18747	-12628	288	-10752	-7363	-13591	5152	119	135	1
-5220	-6392	14664	-320	593	431	-15476	-2616	-2604	-3610	4014	-171	-16336	-696	1632	-1204	1303	-84	-9092	3460	11588	11666	-32768	19122	-10560	-1912	-1832	-8033	-23272	19261	-10572	292	-10368	-10116	-13382	3463	123	134	1
-5604	-5576	15364	-186	830	1034	-16828	360	-3816	-148	4570	255	-17224	-296	48	-1169	1402	-54	-12972	2648	17180	13358	-32768	20851	-13248	-1512	-2464	-7347	-26780	22229	-8288	-880	-10476	-12332	-12336	2225	124	142	1
-6212	-5388	14756	188	944	1048	-16660	1004	-5252	-1683	4565	-137	-16824	-440	184	-1183	1442	-40	-16820	2544	21488	13997	-32768	22902	-17572	-1876	-4332	-11641	-32213	24579	-7332	-204	-10868	-15254	-11234	1939	122	135	1
-6664	-5344	14644	537	781	854	-15316	-312	-6308	-3438	4186	-280	-15056	-3448	504	-847	2529	18	-17512	1696	21712	13410	-32768	24129	-20884	-1864	-3828	-11364	-32768	25295	-7280	1468	-11220	-15873	-10817	2711	133	129	1
-5700	-4908	14468	380	272	656	-14732	-584	-4056	-3768	4208	36	-13224	-4672	1424	-167	2885	-96	-17816	1224	22804	11807	-32768	23001	-25360	-1228	-4344	-11601	-32768	26353	-6552	-488	-10092	-12751	-8115	2909	135	125	1
-5268	-5184	14444	8	500	845	-15504	-1268	-3112	-2169	4655	518	-14184	-3432	16	237	2377	-108	-21204	2000	25920	11242	-32768	21474	-29856	-1656	-4964	-12356	-32768	26540	-6764	-1408	-7984	-8856	-5144	2827	143	123	1
-3200	-2740	16076	-234	-101	1486	-16928	224	-3204	-615	5455	1085	-18344	-2840	-640	467	1737	-41	-28400	5144	29160	7991	-29765	21384	-32768	-616	-8244	-15293	-32768	25430	-10428	552	-1792	-8469	-5633	3523	129	130	1
-6080	-4752	14656	-1333	1744	675	-16156	96	-1556	-688	6910	1427	-17928	-3096	4104	277	1538	44	-32768	3324	28328	6055	-28127	23232	-32768	-2152	-12708	-16242	-32768	22370	-15388	2480	5452	-12455	-9234	5095	136	133	1
-5068	-4528	14820	-2161	2529	662	-15336	-1368	144	-496	9127	2086	-18256	-1856	7592	206	1403	63	-32768	4640	17240	5112	-31263	25221	-27932	-1436	-18368	-17434	-32768	18705	-23972	-1232	18352	-12094	-15757	7196	131	129	1
-4688	-5460	14880	-2856	4490	886	-17408	-1248	868	213	12014	3000	-19920	-72	9096	-16	1238	22	-32768	-13304	-5008	12482	-29003	23021	-18092	-7532	-20368	-12986	-22898	16073	-16024	-15876	24784	-6088	-8321	1897	131	124	1
-5292	-4692	15368	-4536	7380	1260	-18792	1212	-836	250	14813	3694	-20704	2480	7664	-314	1277	-5	-32768	-22444	-24384	24312	-17214	16771	-8028	-7196	-21328	-343	-8808	9578	-16940	-6980	27888	-797	-1885	426	126	124	1
-5228	-4668	15652	-7053	10959	1349	-19080	924	-1420	-9	17278	4460	-18768	680	4896	-528	972	1	-32768	-17092	-26244	7695	-2158	6536	-5236	-4780	-19872	5822	6064	1440	-20296	5656	20204	913	-221	2846	122	125	1
-5164	-6008	15072	-9236	16558	2092	-20064	-116	-3004	-283	19449	5081	-19736	-2344	3624	-812	454	146	-32768	-14284	-10052	-6551	6681	-1300	-11016	-3764	-19136	-46	19694	-7074	-16256	4672	13940	2336	-1098	3569	120	127	1
-4328	-6784	13876	-9174	23560	5258	-21448	272	-3876	-2695	21172	4712	-19504	-616	5464	-850	-234	332	-32768	-13640	-7700	-6673	7465	-1652	-21028	4684	196	1115	22343	-11939	-10020	3344	-3600	364	5238	1838	118	129	1
-5056	-6664	12316	-10068	30391	8558	-22168	2080	-3004	-4862	23340	3776	-19208	1704	11680	-634	-1132	506	13928	7980	28424	-10908	26945	-17355	-32768	18292	30952	3134	10175	-3034	-9252	3444	-7252	1236	7554	1759	120	143	1
-5656	-8108	14448	-12357	32767	10695	-27656	1508	-176	-7152	24042	4105	-23488	2072	15704	-461	-1517	643	-32768	-1248	29396	-4069	32767	-11489	-19156	-15928	-11516	-15959	17135	-13499	-32768	8820	18076	-9641	-4179	4544	122	140	1
-10248	-9636	16912	-15784	32767	16292	-32768	844	4888	-9722	24783	3616	-24024	6856	9000	-862	-1339	1092	-17744	2992	22908	-4270	27932	-12481	-27544	-2196	-4412	5039	19772	-8022	-13796	-4880	-988	-19597	6080	-7366	123	149	1
-22788	-15292	25000	-19647	32767	21514	-32036	-2056	-544	-16535	24258	3790	-24064	-3080	7896	-1938	-1578	1048	-31116	21100	17096	-13058	16080	-9236	-16484	10156	-20924	-2713	19992	-3309	-14268	-5592	-5820	2552	10738	-2043	125	129	1
-28236	-15968	23760	-21394	32767	25483	-26296	-7608	-8616	-22834	25154	5082	-20600	-11904	-6200	-2604	-1602	638	-10712	-8756	24672	-8881	3454	-5782	-22224	-10644	-5420	-4074	19105	-7553	-15160	11120	-19520	13059	8110	4089	133	120	1
-21476	-19132	17088	-19205	32767	26364	-25944	-3632	-12928	-18031	21077	3655	-26376	-10200	-10152	-1322	-2128	-172	-8584	5860	14820	-4728	476	-2551	-14364	2884	-7900	2912	13454	-3363	-10512	-1548	-9272	4539	7432	6136	144	109	1
-10272	-17584	22416	-20297	32767	27971	-18140	-2128	-5284	-6514	13026	7385	-31888	-2344	-7056	185	-2571	-310	-9588	5684	14036	-1217	-423	-1153	-16220	-6188	-6300	12345	10347	-1666	-13156	2804	-10592	15672	11831	3803	134	115	1
-22708	-27284	25424	-20980	26576	20713	-11652	-3628	-11424	-3626	9311	5613	-26784	864	-6784	56	-2281	-766	-8180	4672	13560	-33	418	-539	-19772	3420	-4864	11274	7732	62	-21604	7132	-5216	13681	7700	2216	145	101	1
-7432	-30804	32767	427	-14407	3111	-4900	716	-18920	603	3187	2426	-22656	-3216	-3496	408	-2547	-735	-7020	4568	13608	468	1042	-411	-18000	8772	-1576	2838	8661	-2153	-18568	6092	-1924	8924	10833	-439	142	119	1
200	-17116	18912	18463	-26117	-5060	-7804	-748	-2600	-3359	-2730	-543	-22360	-1464	-7976	179	-1988	-707	-7244	5200	13340	377	1706	-530	-16640	4188	-4352	-3419	7922	-2967	-16420	6644	-1784	7413	11132	-585	140	129	1
2308	-6444	9988	21444	-29662	-7436	-5336	-736	-4248	1246	-11301	-3278	-19240	-4192	-8272	484	-1875	-992	-7980	5136	13584	38	1718	-788	-16228	1460	-4820	-97	6457	-2453	-15264	5652	-2896	2017	12899	595	163	122	1
2496	-1560	5908	14034	-30788	-9041	-4348	-816	-2624	7376	-16161	-3473	-16336	-160	-8776	807	-1893	-1024	-8024	5032	13360	158	1690	-919	-16640	1412	-4064	5081	5275	-1803	-15640	3108	-2696	2771	11942	2108	130	114	1
-416	-5116	8052	7747	-31257	-10502	-4128	376	-4788	11921	-20803	-4150	-14200	-224	-8480	812	-1875	-926	-8120	4440	13256	340	1505	-823	-16452	2084	-3848	6399	4562	-1468	-14212	764	-1816	8986	12308	1097	109	119	1
-4200	-9948	11792	10032	-32253	-11976	-4960	1368	-6428	12785	-25468	-5084	-13768	-144	-8808	873	-1863	-895	-7544	4324	13084	730	1519	-638	-15540	3020	-3560	4217	4606	-1413	-15256	1168	-2204	11162	12912	663	115	128	1
-7240	-10284	13524	14080	-32768	-15540	-5804	1952	-7476	12998	-30681	-5608	-10944	360	-8808	1192	-1749	-699	-7752	4728	13136	904	1821	-813	-17480	1668	-4624	4054	2704	-1202	-13944	4968	-2836	11354	14263	2044	107	128	1
-8440	-8680	12676	13210	-32768	-19398	-8372	3952	-5984	9552	-32768	-5579	-9280	-280	-9072	1372	-1488	-602	-8220	4716	13288	1029	1943	-841	-17416	1788	-4428	4014	4284	-1197	-16544	3972	-2716	10054	15375	418	116	120	1
-11844	-9628	15044	11044	-32768	-21427	-10404	2056	-7088	7573	-32768	-6761	-7400	776	-10304	1889	-1312	-464	-8468	4232	13076	1159	1871	-735	-16472	1320	-3944	4741	4747	-1751	-15272	4160	-788	6762	16512	2751	126	123	1
-13560	-9812	16168	9710	-32768	-21711	-12708	36	-7536	9228	-32768	-8178	-6368	832	-10288	2263	-1224	-367	-7768	5048	12868	1406	1916	-490	-15144	3500	-2616	4401	5366	-2045	-14360	3804	248	5833	15643	1820	122	130	1
-15200	-8736	15556	5483	-32768	-21455	-15376	368	-9200	12413	-32768	-7865	-6384	1600	-11184	2247	-1024	-302	-7460	5200	12868	1413	2527	-877	-15892	3840	-2588	2463	6398	-2495	-15352	3396	-352	4164	14164	1231	120	133	1
-17732	-13660	20068	3581	-32768	-20666	-17880	1848	-10380	11900	-32768	-6220	-5744	3560	-10672	1942	-636	-162	-7940	4076	13028	1911	3470	-1266	-17220	1244	-3780	1411	7149	-2901	-17228	2684	-1808	3174	13354	136	133	129	1
-27288	-27556	32767	10449	-32768	-21018	-24576	1604	-16548	8987	-32768	-8402	-7152	4256	-4464	1617	-675	10	-8324	4520	12820	1684	3754	-1291	-16648	1340	-3708	3230	7960	-3105	-17168	2728	-2068	3249	13340	-130	150	125	1
-32768	-32384	31348	19194	-32768	-25867	-32164	-1404	-15584	11550	-32768	-11547	-11760	-1960	3664	1402	-1199	-99	-7764	6020	12428	841	3883	-1645	-14968	5224	-3228	2986	9092	-3901	-13920	6052	8	3582	12129	-6	148	120	1
-32768	-15024	19000	8997	-32768	-32651	-28248	3856	-15120	6136	-32768	-7387	-20144	-4752	6944	887	-1368	-523	-7708	7276	12112	-284	5026	-2727	-16420	5628	-3552	407	10213	-5011	-17020	5424	852	2032	12447	1464	139	128	1
-32768	-17952	7344	6374	-32768	-28530	-28120	-1044	-20852	2926	-32768	-6123	-19968	-256	14408	929	-1370	-1431	-8164	5812	12848	-1156	6839	-3762	-17668	3504	-4232	54	11490	-6054	-17348	3800	1036	1714	12541	1723	127	126	1
-32768	-7804	-10892	10871	-28026	-13839	-15872	-4884	-22336	1293	-25064	-7936	-11792	9704	32767	1452	-906	-998	-8144	4804	13160	-60	10231	-4134	-18680	1624	-3412	2213	12871	-6925	-18888	3616	924	3834	9484	825	128	127	1
-32768	7212	-27644	-14152	-23330	-25	-1812	5560	-17400	-7250	-6325	-6727	-16104	2968	32767	150	321	-54	-7832	4448	13288	1098	14782	-4924	-19852	2244	-4284	4464	14322	-7336	-19960	3724	1144	4533	5953	238	127	130	1
-32768	-9944	-32768	-13928	-4974	6788	-584	-1736	-16868	-11902	13240	-3968	-15824	-1512	27624	-566	-146	-196	-8008	4168	12812	1044	20949	-6539	-22456	2912	-3592	5327	15775	-8184	-21284	2260	2744	6137	2586	-361	123	124	1
-32768	-14724	-11536	5966	17985	8147	-9992	-4044	-19720	-1218	27592	936	-11984	-1352	12624	-575	-249	-5	-9688	5868	12964	1839	26817	-9509	-22284	1584	-3244	7687	17696	-8109	-21748	0	6704	6631	-4070	-2177	110	118	1
32767	4240	28456	11214	17447	27	-32768	716	32767	-221	12782	3881	-11216	-3120	-13176	-6	2162	-263	-8428	3868	12760	2496	32767	-12602	-26292	576	-832	11859	18645	-7657	-24056	-964	14800	5809	-12272	-2843	117	124	1
-3164	9680	-9404	-4915	32767	11649	-27000	4808	-11136	32767	20028	-83	-32768	-10920	28568	1081	29	-1705	-11304	7608	14392	1479	32767	-17157	-32768	7508	5088	16098	19251	-7321	-25024	-1088	16156	4530	-13641	-2877	126	123	1
-29724	11924	29528	-11003	32767	5558	-8908	18764	-3716	22107	23152	8059	-7824	7608	1136	5501	2251	-336	-15576	7740	14108	2620	32767	-22669	-32768	7564	7964	19349	20062	-7894	-20972	-7172	9852	15254	-12799	-8293	120	125	1
-32768	-32768	32767	9772	32767	15823	-24892	-2560	-25180	19754	19182	5316	-22456	16544	13864	2383	1226	513	-32768	10896	25560	3301	32767	-26449	-30516	8028	-4200	19843	19209	-8233	-22664	5632	-2164	26804	-13898	-6560	147	151	1
-4344	10420	25464	7996	2726	2821	-32768	-2016	-536	26454	20551	-4091	-28112	1728	-20056	-1183	1582	-375	-32768	12228	24456	6394	32767	-26723	-29996	10236	-8016	15709	18027	-12145	-26452	16996	-11936	23501	-15075	-3834	132	142	1
-6132	-8728	14708	3922	884	1499	-7072	8564	-6064	-3614	21079	-3053	-5576	-7064	-13240	-3935	701	-194	-19500	11944	18368	13861	32767	-24632	-22472	3376	-5296	12913	14699	-12879	-28808	11704	-11952	5313	-18781	-384	107	114	1
-7524	-9388	14476	2409	305	1524	-8788	10692	-13608	-32768	14768	-4127	-1304	-320	-5696	-2814	608	-727	-7560	6820	32767	12504	25836	-24614	-16228	7864	-11324	4670	11944	-10070	-29400	4400	-13952	-4349	-18906	5232	91	124	1
-5848	-5312	15336	-400	124	102	-17700	-7352	-6784	-26611	12016	-7026	-20656	-5344	-6928	-2362	734	-297	-18928	27980	32767	-198	-21582	-13329	-8084	2240	-15316	-1933	8758	-6274	-26020	2036	-9028	-8963	-20330	7126	119	144	1
-5096	-4692	14844	-1299	419	-192	-19400	-12496	-5908	2591	9175	-2294	-24704	-8984	-4832	-1206	1253	-8	-1100	14216	19296	-7592	-32768	-5018	-10564	2152	4248	-101	-4781	-737	-25876	88	-11060	-4924	-18500	7527	149	94	1
-5288	-6248	14932	-1833	1138	37	-19084	-4912	-8748	18898	7639	3759	-20080	-8016	-3200	178	1855	238	4452	7588	7648	-2333	-32768	-152	-6200	-2320	1324	-187	-11147	3965	-20668	-912	-12832	-3051	-15907	7584	109	102	1
-5428	-6048	14748	-1941	1573	551	-17128	6576	-6476	8278	6400	2358	-13744	-6280	-2584	657	1949	73	1296	7680	6564	4183	-32768	3812	-3156	280	-968	313	-16799	7254	-16400	-776	-12800	-4176	-15645	7055	89	129	1
-6172	-5680	14700	-1823	1608	550	-15620	5376	-5908	-10214	5517	-2058	-13840	-1656	-2608	542	1955	1	-5032	10468	10392	5611	-32768	7378	-2196	980	-4260	-3436	-20999	11741	-12876	128	-12508	-7348	-15380	5741	101	132	1
-6024	-5752	14496	-2163	1732	191	-15116	-2200	-5056	-12022	4924	-2680	-17696	2760	-600	-208	1670	107	-9320	9764	12204	5231	-32768	12253	-5940	-556	-4236	-9522	-24940	15409	-11904	2072	-13200	-8421	-14214	4159	127	127	1
-5444	-6456	14336	-1754	1884	197	-16000	-5164	-4064	-5032	4057	-708	-16832	-2296	-96	-1360	1598	73	-11420	8080	12524	6419	-32768	17504	-8992	-560	-3452	-6706	-28172	19004	-11076	548	-13080	-8114	-14392	3613	136	147	1
-4776	-6332	14232	-1587	2225	1009	-16120	-3604	-4576	1236	3601	310	-15648	-4872	192	-1033	1675	-154	-12340	6000	12336	8105	-32768	20247	-11332	-272	-2548	-5367	-32768	20947	-7768	1064	-12968	-13144	-12390	2620	134	146	1
-5640	-6316	14288	-2025	2920	1534	-17856	1480	-5280	-1484	3882	-32	-15944	-2480	2528	-330	2091	-255	-14824	5056	14824	10848	-32768	21473	-13760	496	-3832	-8618	-32768	23479	-5412	-1320	-12932	-17027	-10027	721	127	134	1
-5548	-6412	13996	-1855	3401	1541	-16848	1152	-4860	-6442	3870	-587	-16112	-1888	4160	-880	3032	-109	-19180	5344	18656	13171	-32768	23228	-18520	424	-4940	-12280	-32768	25485	-3448	144	-13760	-18076	-8052	1115	118	130	1
-6756	-5976	13820	-2079	3349	1390	-14984	-972	-3788	-7233	4290	-953	-14192	-2736	1992	-1352	3328	-23	-21380	5396	20356	14294	-32768	24246	-24448	52	-5664	-13575	-32768	25600	-3976	472	-11764	-16846	-6518	907	125	127	1
-6296	-6520	13372	-1940	2960	1281	-13104	-2060	-1328	-5187	5575	-117	-14128	-3232	-536	-711	1888	-43	-28264	8184	28268	12364	-32768	23674	-30676	-972	-9348	-12128	-32768	25890	-5400	-1404	-9192	-12089	-4908	1701	138	126	1
-6220	-5956	13496	-1779	3009	1359	-12576	-1636	-1788	-713	7587	740	-15256	-3384	4256	41	1128	-117	-32768	13588	32767	7435	-32768	24836	-32768	116	-14612	-12650	-32768	26826	-8076	-2932	-1788	-10584	-5313	1128	134	129	1
-6968	-5888	13744	-2181	3157	980	-15776	32	-3036	1285	9662	1515	-16016	-1736	5640	-36	1766	-117	-32768	1168	22128	8072	-32768	29315	-32168	-4972	-18384	-12918	-32768	24230	-13824	2984	2264	-11595	-7352	2153	135	142	1
-6580	-6284	14072	-2958	3978	747	-16748	-448	-1792	290	11159	1329	-17968	-952	3760	-103	1771	-99	-32768	32	11928	9146	-32768	29167	-29584	-2076	-17008	-11687	-32768	21359	-23400	1904	13840	-8577	-14373	5193	139	133	1
-5656	-6760	13948	-3429	5486	1147	-15572	-1980	536	-198	14020	1526	-18288	-1752	7792	-258	1082	-106	-32768	-13560	-12068	1245	-29632	20259	-19348	-3628	-22436	-15978	-24402	16467	-19716	-13028	26588	-11715	-17112	4802	128	119	1
-5412	-6136	13576	-4636	9012	2289	-18144	-1004	-2212	1968	16930	2192	-19264	544	8360	-402	1205	-206	-32768	-28616	-29056	13241	-13931	10244	-3656	-12028	-26732	-6803	-5167	6904	-12952	-4332	32767	1828	1440	782	122	122	1
-6292	-5532	15172	-6438	13449	2639	-20272	1992	-2780	1460	19192	2923	-17624	128	4280	-498	997	-142	-32768	-18836	-25116	1323	-742	1819	-4752	-8048	-24504	2440	10235	-3203	-20152	5488	20252	2853	1181	12	118	101	1
-6116	-5620	14160	-9084	19068	3199	-20316	1428	-2672	-182	21157	3077	-20208	-2688	6168	-745	230	123	5452	-14000	-10756	-6313	12853	-6353	-15496	-4140	-20564	1925	21786	-10331	-14628	2100	5160	2733	1934	-768	118	116	1
-6072	-8180	13892	-12473	26266	4814	-22552	1388	-2944	-2503	23475	2799	-21992	1016	13576	-657	-996	452	-32768	-32768	-23084	-3409	23354	-10176	-32768	22264	32767	20857	7824	-8218	-16312	372	-10728	1038	13191	647	121	130	1
-5180	-7160	13936	-18160	32767	6632	-30052	3412	1140	-7254	24927	1905	-24952	5640	16592	-618	-1771	636	-32768	16828	14708	-5816	32767	-13651	-24652	-15240	-14612	-11494	19906	-11774	-32768	9208	25768	-1249	-6308	2986	125	128	1
-6060	-10012	17676	-24377	32767	11079	-32768	2924	9416	-16684	25970	799	-30096	9400	20424	-562	-2454	1130	-19736	-12652	31356	-6244	29813	-12468	-27512	1084	-8072	-1390	24512	-10787	-11472	9820	-9232	-12145	4647	-2886	119	139	1
-20228	-16304	24836	-31287	32767	15122	-32768	-2588	4316	-28556	24500	2010	-26712	-2296	-472	-3075	-1842	1077	-32768	31756	31364	-15392	17054	-10675	-18580	10576	-16192	-5794	22031	-8664	-10936	-2848	-11052	515	11305	30	149	153	1
-30212	-21376	29824	-32479	32767	21976	-23792	-5756	-13152	-26453	25909	2886	-18024	-12744	-7792	-3720	-2152	605	-8404	-9320	23900	-12362	6253	-6470	-15680	-5676	-8100	-13857	19783	-7591	-11520	11888	-19388	7743	7115	808	142	127	1
-21272	-23672	19404	-32768	32767	18432	-21872	540	-13428	-16189	18103	3831	-28320	-8688	-10200	-1882	-2484	139	-11128	9960	13496	-5743	-567	-2609	-16012	-164	-10440	-3438	14973	-7289	-10352	2752	-9624	-5898	8509	5005	128	113	1
-11404	-20004	24508	-32768	32767	18551	-18264	-3020	-7376	-7652	9850	7057	-32768	-4232	-7592	230	-2701	-476	-8516	6504	14048	-5402	-465	-2595	-17548	-6632	-6896	7099	11216	-4794	-18072	1396	-9484	5226	9340	5037	142	111	1
2404	-18696	32767	-32768	23479	22046	-11208	-7688	-14428	-8324	6264	5517	-28984	-2808	-7440	618	-2357	-696	-8064	4440	13840	-2227	-383	-1558	-18136	-6556	-6356	9320	10840	-4368	-21644	5788	-6300	9057	8764	1267	169	101	1
-10184	-32768	32767	3728	-21330	4581	-3636	-1932	-22992	351	28	-54	-23224	-1568	-6752	459	-2300	-821	-6940	3948	13812	-1953	95	-1481	-17864	7104	-2272	6577	8108	-2698	-15256	1008	-1720	5026	11295	274	128	123	1
-5944	-17528	22316	26073	-32768	-4080	-7220	-1052	-5196	1862	-5714	-3264	-22680	1480	-8984	768	-2001	-952	-6900	3032	13972	-1420	683	-1494	-16312	2888	-2064	-4708	8233	-4172	-15104	412	-1640	1108	13135	255	150	103	1
-4604	-7880	10296	28797	-32768	-4684	-3496	1292	-1548	3809	-12588	-5561	-17688	4376	-7656	313	-1814	-761	-7280	3708	13904	-971	1152	-1121	-15864	-1008	-4360	-5717	7413	-3616	-16124	388	-2800	733	13268	679	147	115	1
-2704	-884	3068	20061	-32768	-5167	-3592	3928	-412	6490	-17750	-7677	-13640	4128	-6304	125	-1990	-609	-7196	4012	13616	-668	1103	-984	-17160	-1696	-4804	755	6107	-2251	-15556	412	-3044	5390	13403	941	117	115	1
-2148	52	3340	7851	-32768	-6309	-4032	5684	-1176	4831	-22378	-9188	-11848	3304	-6496	20	-1893	-336	-8732	4632	12784	-563	799	-977	-16320	100	-4120	6539	4880	-471	-14580	1224	-1880	11054	13517	2135	107	119	1
-4480	-5456	8016	4003	-32768	-8784	-6116	5448	-4460	1362	-26483	-9598	-10680	2144	-7840	128	-1720	-250	-7264	3668	13692	-572	432	-991	-15832	3080	-2452	6534	4755	-850	-14764	2880	-1084	12575	13978	1356	105	128	1
-8008	-9084	12436	8140	-32768	-13050	-7648	4776	-5088	799	-30636	-10556	-9120	848	-8272	254	-1543	-206	-7164	3720	13664	-592	439	-1208	-15956	3420	-3452	2783	5186	-1469	-16176	3916	-2612	8617	13488	744	107	128	1
-10156	-7180	14940	11128	-32768	-17265	-9792	4252	-4956	1517	-32768	-11435	-6520	-640	-8624	416	-1407	-189	-7500	3356	13548	-358	395	-1236	-16844	1436	-3764	242	5558	-2268	-15792	3632	-1544	8014	14667	469	109	127	1
-12668	-5732	17248	9131	-32768	-19875	-11792	2500	-6024	2490	-32768	-11716	-5992	-2552	-9120	962	-1165	-109	-7436	3608	13592	-468	658	-1396	-16900	988	-4360	2439	5451	-2002	-16184	4456	-572	8225	16011	802	115	125	1
-14508	-6576	17800	6304	-32768	-20291	-14484	320	-7548	6674	-32768	-10925	-6248	-1216	-11520	1572	-1035	-176	-6828	3744	13600	-487	989	-1876	-16960	2544	-2776	4567	5753	-2061	-15392	4852	1772	6425	16191	627	125	123	1
-17864	-8968	19412	4636	-32768	-20474	-16784	248	-9444	15958	-32768	-8011	-6816	-1032	-12784	2109	-456	-119	-7672	4248	13604	-422	1733	-2373	-16836	3852	-3412	3951	6687	-3028	-15772	6208	1524	3437	15407	126	126	128	1
-21368	-16368	25524	8908	-32768	-20421	-20000	5724	-11652	17790	-32768	-3492	-7312	-1232	-8768	2381	-308	-237	-7664	3472	13604	-586	2343	-2734	-16704	2584	-3268	1461	7943	-4123	-16740	4168	1476	694	14850	175	128	130	1
-30160	-27060	32767	18515	-32768	-21904	-32244	5192	-16752	10401	-32768	-5975	-10072	-2248	440	2262	-972	-350	-7504	4124	13756	-707	3310	-3258	-16532	2472	-2772	1870	8974	-4706	-16296	2964	1204	1476	13596	-654	144	128	1
-32768	-21536	24764	19934	-32768	-27435	-30936	3112	-18432	3038	-32768	-4910	-16624	-4480	4968	1580	-1568	-531	-7224	3624	14204	-1077	5435	-3599	-18096	1652	-2192	3102	10073	-5532	-17952	2920	1624	2644	11842	-167	153	121	1
-32768	-23780	8240	21656	-32768	-23842	-21760	-3240	-18044	454	-32768	-4351	-23784	1328	13368	1258	-1566	-780	-7328	2864	14120	-981	7810	-3865	-18700	1580	-2608	3362	11709	-6668	-19256	2380	3424	3795	10868	-244	134	126	1
-32768	-8876	-11480	15760	-31397	-12399	-19324	-516	-18628	10196	-28267	-6262	-15056	16152	29336	1952	-1497	218	-7792	3832	14360	-959	11230	-4559	-18584	2004	-2488	3376	13536	-7587	-18084	-104	4416	5903	9467	-94	131	130	1
-32768	76	-26712	-13207	-24352	-6599	-4196	6684	-18920	-1134	-10505	-3555	-14592	6424	32767	1095	582	508	-7528	3448	14776	-1537	15388	-5608	-19656	2344	-3056	4314	15278	-8628	-18184	828	3140	6355	6314	934	140	125	1
-32768	-3892	-32768	-7563	-3798	1835	1736	-1120	-15556	-15902	8292	-2893	-16744	1136	28528	-104	92	-19	-8848	4144	14256	-2898	21011	-7609	-21500	2424	-3952	4845	16899	-9642	-20924	5072	3732	8761	1440	-260	126	111	1
-20212	9516	-32768	-2047	31971	13753	-10600	-5784	-12288	-13056	25155	104	-16256	2216	8720	-684	-102	141	-8224	4848	14756	-4376	27942	-10999	-24396	3016	-2868	7470	18634	-9728	-22120	7448	8228	8332	-6870	-3419	111	121	1
-13496	-12504	32767	-7662	32767	15835	-32768	-172	3856	26054	16740	6382	-32768	4648	20160	360	-14	-316	-8500	6444	15524	-6419	32767	-15957	-29836	7300	-680	9745	19944	-9428	-25036	5580	14104	548	-14326	-5022	112	123	1
-32768	-12168	32767	-9233	32767	8174	-19860	17488	-1348	30553	28836	8376	-3640	5048	18968	3854	3118	-905	-10188	5452	14540	-8665	32767	-23793	-32768	8904	2392	10850	21555	-9254	-23204	-2956	12408	-746	-12077	-5948	124	131	1
-32768	-21732	32767	9250	26978	12456	-23544	-2372	-23648	13301	29957	4937	-13696	7192	-11680	945	1585	-1227	-23084	4988	20408	-7547	32767	-30661	-32768	6984	1340	14251	20948	-9692	-27124	-3652	2288	9094	-11071	-5384	103	136	1
-3664	808	17320	11635	9538	7162	-16040	148	-10208	22487	24717	-91	-19576	-6920	-28184	-2779	501	-491	-32768	3452	20888	-5674	32767	-32768	-28940	2948	-7296	17500	18927	-8557	-22464	2840	-5340	16014	-16299	-3748	125	128	1
-12444	-9528	14980	7272	66	2561	-3184	720	-21076	10572	18586	-1335	-1448	-11720	-16968	-1924	279	149	-32768	6512	25348	7394	32767	-28377	-24088	1556	-8216	22544	15117	-10674	-22716	4496	-11904	16101	-18301	-2166	101	146	1
-7348	-3872	15916	4608	-1133	1728	-13368	6868	-12084	-6571	13219	-1513	-12952	-8344	-10568	119	1100	-984	-18848	14088	32392	-1074	32767	-32768	-16948	6216	-6188	25088	10649	-6069	-29256	4224	-9784	10516	-18297	2037	92	135	1
-5548	-6184	15032	2652	-712	986	-23128	4072	-9072	-22242	10759	-3813	-28368	-5656	-7280	214	1189	-1107	-20996	23852	28516	-5574	20345	-25132	-10060	740	-13904	13909	7391	-1360	-27212	1296	-10424	5594	-16555	5985	120	127	1
-5672	-4748	15144	1652	-399	521	-20860	-8500	-7236	-4610	9353	-1623	-23360	3640	-824	48	1296	-275	-8760	32767	28536	10516	-23479	10381	-12172	-1224	-4924	1280	4490	-1466	-26424	1952	-6920	43	-15499	7048	139	108	1
-5644	-3328	15408	14	357	-23	-15632	-2276	-6888	16401	8310	2379	-15304	2128	-264	296	1732	133	3488	13404	9472	890	-29634	18389	-8156	5040	4780	4627	-6427	5786	-21852	1012	-9192	1929	-15820	8274	113	107	1
-5644	-4508	14896	-1210	842	-264	-16016	4660	-7124	16088	6617	1711	-14048	-1432	-2328	411	1796	97	7128	2220	4076	3796	-23306	18598	-6728	4476	3572	-2164	-10485	10196	-18500	1112	-9460	-777	-13362	8509	102	120	1
-5676	-5056	14996	-1027	862	-100	-15020	4856	-6208	2249	5183	-1497	-15416	-1232	-1080	327	1724	-102	-1032	2848	10272	8561	-19658	18191	-5064	3232	-1020	-10988	-12966	13014	-15436	348	-10464	-3340	-13074	7950	110	123	1
-5700	-5404	14752	-1678	431	841	-14816	1176	-5628	-8700	4362	-2992	-16264	440	-408	-537	1653	-198	-10424	5308	20176	6780	-27336	17473	-6464	-1464	-5764	-17821	-15344	15826	-13072	-288	-10052	-5024	-13683	6942	118	133	1
-5856	-5340	14820	-657	723	351	-16668	-1944	-4968	-9415	3746	-3711	-16424	-432	-824	-1405	1704	-225	-11224	4972	21144	6373	-29376	17659	-10752	-5056	-2480	-14317	-21219	17738	-12328	1176	-10460	-6930	-14451	5605	126	148	1
-5884	-4940	14576	-824	677	176	-14696	-1820	-3840	-3436	4025	-1632	-16328	-1584	80	-1374	1679	-173	-9276	148	14220	10889	-32768	21584	-13016	-4836	-1380	-8462	-27074	19787	-11056	1292	-10460	-10443	-14128	3211	129	143	1
-3140	-2696	16456	-1241	1	1094	-15852	-1204	-3588	-615	4269	-1185	-16648	-2872	880	-1171	1548	-87	-11592	28	16420	11918	-32768	21729	-13516	-2156	-1984	-7081	-30742	21894	-8380	100	-10888	-14348	-13121	2378	127	120	1
-6944	-6988	12800	-377	1078	837	-16332	-348	-5468	-2503	4532	-1386	-15048	-3424	1352	-905	1619	28	-14936	756	19192	11490	-32768	21250	-15396	-884	-3120	-9433	-32768	22908	-6500	-12	-11572	-17751	-10989	2254	124	138	1
-6404	-6488	14816	-816	1087	766	-16064	-24	-4912	-6322	4459	-1505	-14816	-2184	2592	-657	2031	-97	-17536	1232	19844	11521	-32768	20345	-18536	-1172	-4376	-10132	-32768	23619	-4844	944	-12608	-18843	-8270	2327	132	128	1
-5856	-5144	14416	-579	1088	1132	-15556	-784	-4088	-6846	4718	-1474	-14272	-1984	4112	-562	2644	-204	-17844	1352	19696	11598	-32768	20050	-22788	-728	-4908	-9304	-32768	24652	-5320	-924	-11360	-17019	-7113	2032	137	130	1
-5532	-5096	14492	-838	1602	1304	-15772	-1224	-4452	-4908	5396	-857	-15328	-3320	16	-846	2692	-171	-21360	3072	21196	15715	-32768	17601	-29464	-1180	-5664	-8805	-32768	25363	-6572	-2508	-8132	-13226	-5727	1385	135	131	1
-5660	-4552	14816	-1716	2537	1346	-16728	700	-3540	-3801	6079	-314	-18448	-3832	-2336	-442	1766	-170	-32768	11584	29776	11707	-31738	19526	-32768	-928	-11672	-13597	-32768	25638	-10032	-2600	840	-12147	-7250	1942	129	146	1
-6040	-4672	14940	-2490	3415	1067	-16356	864	-3464	-3400	7270	238	-17528	-2736	1312	-128	1328	-89	-32768	7700	21852	6680	-30815	24914	-32768	-4084	-15004	-14101	-32768	23944	-15712	384	11140	-15466	-11338	2007	130	126	1
-6016	-4912	14640	-3435	4358	642	-15968	-888	-3352	-2104	8673	894	-16168	-1480	4672	-391	1574	-4	-32768	1004	15540	8112	-31653	29188	-25748	-2068	-17900	-13815	-32405	19632	-20212	-1408	16472	-5234	-12508	3538	130	128	1
-5704	-5892	14516	-4061	5760	1054	-16632	-1640	-2272	-2256	10405	1355	-17520	-416	4808	-578	1570	-21	-32768	-10700	-6932	3120	-28890	22207	-17076	-2844	-19128	-16188	-21053	15999	-14072	-12028	21600	-4628	-5639	3628	130	119	1
-6156	-5772	14484	-5199	7945	1716	-16952	-924	-1564	-2658	12849	1907	-18648	-1200	5376	-708	1171	-126	-32768	-21052	-22248	11925	-15181	15256	-9568	-8660	-20824	-6804	-8325	8258	-18364	-1828	26416	-6555	1262	2320	122	113	1
-5964	-5628	14516	-6414	11507	2131	-18036	-428	-2012	-2912	15401	2827	-17800	-1984	5344	-868	909	-155	-32768	-16156	-24336	1981	-1681	7939	-4696	-5192	-20796	-1993	7274	1033	-20512	4572	21020	-5835	127	3474	117	110	1
-5552	-6216	14816	-7438	16329	3305	-19572	-392	-4024	-2829	17322	3477	-19128	-3208	3472	-1002	687	31	-19272	-9480	-14448	-10155	9687	3422	-12388	-3496	-19796	-5963	19404	-7149	-14340	1828	9712	-5649	-110	2855	114	122	1
-6264	-6544	14212	-8412	21637	5250	-20768	4	-3628	-4081	19471	3892	-19344	-3608	5936	-1114	115	321	-3660	-9456	28468	-13038	32767	-7006	-31896	17960	32767	7611	14918	-9732	-12500	828	-7816	-2840	9800	3080	115	131	1
-7516	-7940	15640	-9331	28319	7317	-23236	-1620	-2584	-5896	21034	4374	-22488	-4784	10752	-892	-595	318	-23124	-4640	14552	-8983	32767	-12063	-29684	-20756	-10660	-17166	19129	-10878	-32768	2584	12500	-3786	-3871	6120	127	123	1
-5544	-9484	13280	-11222	32767	10905	-29440	-1136	784	-5332	23113	4227	-24768	-1904	18352	-369	-1537	432	-27096	-8836	32767	-4880	30514	-12299	-30864	-5976	-1352	1223	23075	-9102	-19760	-10964	8952	-32768	8852	-4576	132	160	1
-10296	-9212	16132	-14020	32767	17951	-32768	-1256	4788	-8536	23925	3325	-25176	4432	10096	-321	-1514	882	-32768	8832	31756	-11684	23194	-9492	-19228	6732	-12020	-425	23083	-5274	-4528	-3256	-5328	5780	13540	-5897	135	130	1
-23880	-14228	22108	-21296	32767	23469	-32768	-1436	-1084	-14063	24984	3799	-24888	-1168	6016	-1293	-1713	915	-11472	3808	24564	-10502	4469	-4970	-15120	5940	-8396	-9219	21468	-6192	-15660	13560	-20456	13004	12159	6255	145	132	1
-31632	-21044	28648	-26339	32767	24404	-26324	-5068	-8072	-21527	24862	4906	-22032	-9600	-7160	-2067	-2076	428	-13212	9968	14496	-5452	-478	-2938	-14748	-3128	-13220	-7778	16309	-8552	-8264	7112	-14972	4109	999	5699	142	137	1
-24700	-26732	25892	-21725	32767	27218	-25356	-1864	-12508	-20094	20982	2997	-26720	-6128	-8136	-941	-2443	-274	-9572	2192	14932	-3183	-1361	-2065	-15336	-5376	-6676	2076	12208	-4919	-13608	-1052	-6096	6084	10121	7255	140	116	1
-7368	-13572	23812	-23175	32767	29716	-19140	-1948	-3196	-11481	11852	5227	-32752	-408	-6616	-207	-2497	-572	-7396	2996	14112	-991	-493	-859	-21676	-5252	-2688	13650	8739	-858	-20276	4844	-8380	8571	9736	4441	131	102	1
-17960	-29928	20696	-19216	29869	24463	-11016	-2436	-15092	-7539	9792	2103	-26864	2224	-7400	-191	-2356	-609	-6768	4036	13760	-17	277	-467	-18912	6508	-2372	8578	7675	127	-21156	1300	-3492	3644	10110	-189	159	118	1
-8424	-32768	32767	-53	-14202	-146	-3580	3884	-18828	-313	3149	-730	-21320	2616	-5168	-59	-2538	-803	-7328	2904	13896	463	975	-233	-15740	5096	-2992	-3749	7987	-2008	-14232	1280	-972	443	11780	-542	163	126	1
-2404	-16144	19468	16959	-27814	-11386	-8076	2612	-1112	-5151	-2402	-3529	-22152	-1032	-7424	-299	-2157	-868	-7836	4528	13548	620	1053	-144	-15384	2204	-5216	-6682	6630	-2637	-14016	4480	-2828	0	13486	370	140	111	1
1784	-2588	7500	17777	-30636	-14085	-6636	592	-3232	-2163	-11135	-6591	-21824	-1224	-7928	-308	-2119	-895	-7824	4700	13612	260	720	-443	-16724	196	-5024	725	5149	-1309	-15648	4036	-3348	1333	12874	1756	132	108	1
1528	2404	4732	9617	-29469	-14591	-4120	-264	-1520	5774	-14968	-6531	-16240	248	-9000	332	-1993	-901	-7700	3820	13540	-165	391	-749	-16728	-280	-4132	7533	3895	20	-14344	1484	-1792	5357	12137	2514	115	130	1
-1220	-768	7856	4611	-28186	-14628	-3484	1872	-4192	14267	-19522	-7135	-13240	1112	-8200	279	-1937	-664	-6980	3932	13484	-20	419	-642	-16492	1876	-2028	9039	3460	376	-14188	660	-500	11809	12468	2569	109	120	1
-4316	-4536	12140	8887	-28798	-14416	-4456	3788	-5508	15031	-24070	-7797	-12960	-144	-10208	630	-1887	-578	-6912	4236	13556	147	843	-730	-16552	4720	-2076	5225	3706	-119	-13220	2936	-1224	13243	13571	2199	96	124	1
-8748	-4632	16028	12315	-32691	-16348	-6072	4840	-7940	13930	-28762	-7284	-8840	-144	-8560	763	-1809	-595	-7500	3912	13676	153	824	-909	-17272	1540	-4280	3242	3604	-401	-14464	3704	-1968	16828	15647	248	108	132	1
-11728	-4716	17416	12447	-32768	-19119	-8256	6604	-7396	10179	-32768	-5811	-8264	-368	-9200	1017	-1438	-541	-7720	4080	13412	253	876	-953	-17824	1556	-4840	3775	3188	-1063	-17332	2908	-1064	12938	16537	-1177	110	127	1
-11980	-4112	15620	12297	-32768	-19640	-9808	3164	-6080	5960	-32768	-6704	-6456	48	-9368	1494	-1341	-405	-7572	4216	13476	200	831	-1080	-16364	2976	-3400	4384	4077	-1523	-15452	7588	-568	6428	18629	3975	123	123	1
-12668	-4652	14312	11200	-32768	-17526	-12196	1832	-5328	6207	-32768	-7549	-5992	328	-10704	1901	-1054	-194	-7088	4700	13380	48	925	-1556	-16312	3904	-2208	3871	4782	-1575	-15944	5264	-1412	3915	16652	3101	121	125	1
-15172	-5596	15660	6392	-32768	-14681	-14136	1384	-8360	9232	-32768	-6949	-6608	1320	-12040	2272	-713	-50	-7416	3828	13480	-73	1266	-1901	-16628	2872	-2236	1986	5849	-2212	-16028	3748	-324	822	13779	1427	132	129	1
-18796	-10580	22584	3451	-32768	-13395	-17140	2564	-10472	8388	-32768	-5253	-6760	3160	-9800	2157	-570	80	-7944	3536	13548	-57	1623	-1760	-16776	2852	-2340	1656	5998	-2323	-15400	4048	480	-815	13155	-107	138	128	1
-26592	-23008	32336	5482	-32768	-14018	-26200	3580	-15048	4052	-32768	-7248	-7344	3400	-2872	1814	-800	136	-7752	4220	13212	-143	1937	-1958	-15392	2976	-2552	680	8326	-3290	-15888	4896	1460	-674	13473	-582	139	130	1
-31988	-31712	30552	13869	-32768	-19229	-31116	-88	-16056	4027	-32768	-12005	-11640	1960	3776	1523	-1236	51	-7612	4344	13228	-125	2518	-2141	-15852	3628	-2228	1507	9451	-4280	-16492	4612	2536	-343	12546	225	147	129	1
-32768	-14012	18592	5830	-32768	-28370	-26888	3144	-13276	2303	-32768	-8861	-19264	-3768	7912	720	-1045	-195	-6188	4632	13952	-118	4210	-2663	-18256	3612	-1228	1381	10870	-5747	-19208	2160	2756	1198	12017	1560	138	124	1
-32768	-15888	8836	1799	-32768	-28453	-24020	-7732	-21204	4097	-32768	-3078	-23416	1960	17192	375	-1394	-799	-7416	3432	14028	-563	6732	-2906	-18364	1356	-1648	1839	12730	-6765	-19276	548	3664	3375	11715	958	115	123	1
-32768	-8180	-9428	13054	-26722	-14945	-18740	-6092	-19984	-1236	-26159	-6477	-14192	8120	30824	879	-1074	-1282	-7232	3800	14348	32	10229	-2822	-18468	2776	-1600	1730	14718	-7958	-18324	1332	3016	4800	9324	-163	138	120	1
-32768	8992	-24408	-8187	-21226	1036	-1380	3048	-16600	-4982	-8183	-5368	-17480	4888	32767	-278	290	-202	-7500	3168	14276	303	14550	-3480	-18972	2656	-3636	1709	16773	-8993	-18484	4332	1672	5801	5383	-252	128	125	1
-32768	-6396	-31816	-16872	-8022	8677	-1880	-712	-15088	-11980	10859	-3136	-14672	-224	25856	-1172	-52	-42	-8524	4100	13852	-467	20239	-5297	-21852	2828	-5020	2786	18132	-9807	-20120	5612	988	5606	2295	-526	120	126	1
28740	-32768	-17728	13265	20469	8163	-8984	-6212	-11576	-10110	23230	-839	-11920	-1168	9608	-1235	-41	4	-7804	5432	14868	-1081	27281	-8613	-23080	2256	-3824	5912	19674	-9904	-20288	4272	4176	4600	-4463	-2833	113	118	1
25140	1840	20400	1928	31031	6376	-32768	-2416	32767	2086	10785	1545	-19560	-4120	-3024	-625	1191	-499	-8400	4936	14548	-2343	32767	-12861	-26904	3176	-2268	9528	20196	-9288	-22768	3280	11572	776	-13649	-4750	118	127	1
-30208	-2588	16700	-9591	32767	3565	-23284	7872	-16668	32767	22023	5289	-32768	-5968	32767	2018	-780	-1678	-10540	7276	16136	-3709	32767	-18419	-32768	7240	3332	11794	21221	-9195	-23496	-2524	12120	-6576	-14597	-5623	132	120	1
-30704	11712	32767	-6023	32767	12667	-19736	7824	-10600	19173	24521	7327	-2200	2984	128	5002	3451	266	-13212	6480	15940	-4651	32767	-23827	-32768	7220	7388	14183	21062	-9952	-25360	-5268	11136	2894	-13279	-7693	113	127	1
-32044	3932	32767	-5734	31610	12641	-22644	-11136	-23264	13218	25520	2244	-21112	3216	-8928	852	1722	267	-32768	5792	25916	-4369	32767	-28824	-32736	6016	-1976	16221	19083	-10654	-24648	1672	-4624	19311	-13100	-7287	169	135	1
-7620	-2412	18148	8675	3202	3944	-21228	532	-16036	29615	18056	158	-23824	-4736	-17224	-929	843	-92	-32768	7360	23688	-6653	32767	-27829	-28128	4540	-7580	16612	16321	-12373	-23612	11072	-10188	23938	-15508	-5018	109	138	1
-6100	-6016	15044	5181	-296	1604	-6536	3664	-9256	840	17271	-1118	-840	-2072	-12792	-2021	551	-376	-27132	14916	22512	-1426	32767	-24870	-20884	6368	-3588	15414	12173	-11920	-26712	9132	-10736	14783	-17221	-1719	98	126	1
-6856	-5048	15160	2814	-519	897	-13080	9448	-12508	-17518	12233	-2932	-13472	1432	-9640	-1913	1154	-925	-21916	21708	32767	-11638	31339	-30155	-14808	8596	-13236	3920	9382	-8983	-30284	4212	-9772	1280	-18429	5803	91	134	1
-5924	-5876	14892	883	-393	161	-20848	6172	-9852	-32768	9425	-7489	-26216	-7320	-8824	-3011	964	-491	-27616	24088	32767	2909	-25727	-7157	-9552	-1192	-17556	-7243	10497	-7321	-26712	5632	-9784	-6621	-20382	7604	127	115	1
-5296	-5892	14988	445	-362	-117	-21016	-14848	-5264	-18120	7451	-5159	-22936	-8744	-2120	-1923	1311	121	1508	16604	18656	1134	-32768	1443	-13868	4244	7932	1109	-8338	-949	-27272	2160	-11164	-6538	-18645	7480	117	96	1
-5500	-6276	16136	-310	144	-121	-16048	-11360	-5636	17428	6759	3642	-13960	-8544	-1232	282	2061	365	5776	10212	7748	-4	-32768	3438	-6696	1024	2960	617	-13814	5155	-19612	-896	-11932	-5425	-17010	6849	96	113	1
-5416	-5852	14428	-793	499	-72	-14604	-20	-6204	25131	5623	4304	-12136	-5144	-1872	1608	2109	296	-1096	8084	10388	4858	-32768	6371	-3952	2276	-1300	-638	-18373	8674	-15532	-1240	-11572	-6532	-17184	5544	85	122	1
-5588	-5756	14556	-529	309	113	-14364	9016	-4852	6792	4777	1255	-11864	-4040	-1712	1643	2088	223	-6712	9708	12920	7497	-32768	9863	-4124	1808	-3592	-7543	-22727	12511	-13048	-112	-11940	-9517	-15861	4614	113	126	1
-5360	-5840	14500	-219	136	310	-15220	3964	-3352	-14288	4582	-2202	-17688	1856	928	-653	1596	-182	-8588	8148	12152	8273	-32768	13527	-7028	-12	-2976	-11690	-24173	17616	-12284	240	-13660	-7605	-16797	4167	152	159	1
-5208	-5880	14468	-210	162	350	-17648	-4680	-3184	-13289	3954	-3785	-17360	1776	1072	-898	1570	-170	-10148	6416	11748	10500	-32768	17287	-10324	-2564	-3384	-4175	-32768	17751	-8744	2936	-13480	-8642	-13239	3648	132	158	1
-4680	-3996	15020	-237	293	656	-14424	-4068	-3208	-3618	4611	-251	-16576	-2920	1112	-1372	1447	108	-13532	5780	15188	11938	-32768	19527	-12316	624	-4636	-4833	-32768	21984	-6232	1128	-13468	-14977	-13754	1146	122	146	1
-5296	-6020	14380	-630	598	764	-16192	-1824	-3872	-888	5343	80	-16840	-3152	3384	-557	1722	-164	-17268	5456	18804	13085	-32768	20776	-14404	1408	-5008	-8671	-32768	25512	-3492	-592	-12596	-17875	-10509	82	137	130	1
-5872	-5580	14632	-764	676	797	-16428	528	-3740	-3747	5594	-350	-13560	-2032	7512	-498	2610	-373	-21028	4616	21160	15883	-32768	22855	-19396	1108	-6152	-12634	-32768	26033	-3368	-376	-12836	-18531	-9994	2	131	123	1
-5168	-5784	14396	-340	868	1235	-15980	-596	-3784	-6727	5903	-769	-13824	-3080	2168	-1289	3355	-268	-23060	3952	22528	17298	-32768	24149	-26128	472	-7140	-14599	-32768	26532	-3928	620	-11992	-17969	-5743	972	130	123	1
-6752	-7456	12668	-609	1360	1323	-15208	-1472	-3736	-6234	6492	-464	-16392	-3048	-5496	-894	2115	-204	-30500	8140	28612	13711	-32768	22482	-32464	-108	-10340	-14113	-32768	26902	-4792	-1104	-9676	-15602	-5123	1858	140	127	1
-5808	-5352	14512	-1816	1755	1275	-15680	184	-3928	-4294	7320	199	-16936	-6744	-80	-340	1299	-28	-32768	13004	32767	9755	-32768	25433	-32768	312	-16104	-14934	-32768	27450	-8088	-2004	-2316	-10617	-5073	1465	137	131	1
-5840	-5192	14692	-2810	2184	892	-16036	-1124	-3196	-3061	8647	848	-15560	-5184	4016	-279	1822	55	-32768	1420	24232	12827	-32768	32767	-31360	-4596	-17860	-13296	-32768	22192	-17156	4192	7916	-7724	-12545	3586	133	136	1
-4980	-5412	14768	-3277	3914	807	-17288	-1196	-580	-2043	10350	1387	-17928	-1640	5824	-244	1818	13	-32768	-3580	1180	5897	-32768	29479	-28636	-344	-22560	-16828	-31880	20022	-25992	-2524	20548	-7975	-19782	5287	129	118	1
-4932	-5464	14884	-4392	5914	968	-16500	-1188	412	-565	13093	2024	-19824	1464	7808	-219	1370	-106	-32768	-26084	-22656	11673	-22746	17784	-13852	-9380	-27484	-13391	-16879	14898	-11864	-17932	32767	-6719	-6598	2543	126	119	1
-5400	-5240	14864	-6365	8667	894	-17476	636	-432	209	16421	2720	-18920	1088	8392	-537	1067	-126	-32768	-26116	-29900	16742	-5563	7382	-3284	-10860	-27156	66	273	4976	-17824	2000	28660	-64	5253	3222	124	114	1
-5460	-5724	14808	-9392	12230	716	-18128	-780	-3144	-1058	19174	3473	-16968	-2360	4656	-960	700	9	-32768	-16692	-22844	-4929	6667	438	-6968	-7560	-24268	4230	16338	-3840	-18128	6604	17324	1922	880	2847	118	127	1
-4336	-7088	15000	-11498	17722	2241	-20364	-1116	-3808	-3394	21271	3684	-19016	-3648	3824	-1273	303	254	-23236	-10028	13072	-16746	26921	-3385	-23964	5028	7772	7790	22373	-11222	-12580	1084	-264	-1299	4565	1536	120	124	1
-5524	-7888	13980	-12378	24906	5996	-22768	1020	-4780	-6937	22608	2850	-20912	-1832	8536	-1241	-582	399	13256	-2988	15028	-15525	32767	-23637	-32768	10836	24688	2023	11624	-1365	-28332	480	1956	-523	7241	2296	120	154	1
-5904	-9216	15344	-15114	32767	8309	-29048	1300	-752	-9140	23936	3116	-25816	952	14216	-883	-1379	512	-32768	-2032	32767	-4132	32767	-6097	-21888	-15544	-10144	-16601	20836	-17822	-32768	4080	28540	-6203	-13868	3531	120	130	1
-6652	-7324	14840	-20285	32767	12096	-32768	2744	5748	-11519	25446	2096	-24664	7040	13280	-781	-1733	1038	-25016	7636	26128	-2773	26739	-10499	-27984	-3072	-7692	5480	25002	-9398	1048	-3976	-11512	-2809	14249	-8692	121	135	1
-12012	-10940	18488	-25008	32767	16140	-32768	640	5960	-18800	24436	2566	-26920	4000	11640	-1407	-1931	1199	-31104	27156	32767	-12640	13709	-8225	-15964	15972	-15172	-4128	20889	-5726	-6080	1900	-9288	8783	13076	3753	119	125	1
-32096	-23064	29952	-28859	32767	20628	-25976	-3044	-8912	-23537	25253	3336	-22104	-5952	-5376	-2565	-1796	992	-9352	-5908	21080	-9244	3065	-5153	-14280	-5680	-10452	-11303	20480	-8434	-13788	17984	-18392	9649	6522	2067	157	140	1
-29540	-25452	27940	-31465	32767	20675	-27760	-3688	-11424	-22610	23451	2942	-24920	-10440	-7592	-2120	-2281	288	-9560	8404	13456	-4738	-868	-2435	-16832	-8	-8216	-432	15518	-6921	-12056	-1532	-8740	-6357	5644	6974	129	104	1
-17496	-19900	24260	-32768	32767	22195	-20596	-68	-7292	-12852	15090	5287	-32656	-3512	-8256	-681	-2609	-102	-8592	4916	13828	-1891	-640	-1410	-18208	-7168	-5604	9172	12349	-4044	-16048	1848	-8612	9987	9499	7462	134	104	1
-2532	-12816	26704	-32768	32767	21245	-14216	-3328	-12144	-7592	11291	5274	-30672	344	-7248	-448	-2503	-560	-7840	3896	14036	-1346	-158	-1148	-18588	2588	-4572	12130	10296	-993	-21624	8212	-8616	10611	6927	1402	153	97	1
-17376	-32768	32767	-15187	-2027	14090	-7568	820	-29220	-4941	5780	1091	-22688	-112	-4704	-87	-2602	-642	-6356	3836	13864	-906	249	-1136	-18380	8908	-4188	645	9636	-3134	-16700	2876	-2396	1597	10529	1069	150	122	1
-5660	-21324	29656	11939	-29634	2671	-3568	-1492	-6748	-4394	519	-2289	-21936	-424	-7384	-133	-2302	-577	-6916	3652	13924	-417	934	-975	-17152	1040	-4212	-8206	8547	-4511	-13804	3120	-1856	-1781	13017	61	148	121	1
44	-8768	12812	19025	-32768	236	-6368	-864	-3788	-3926	-8739	-5618	-20664	-536	-8824	-206	-2001	-784	-8068	3756	13792	-168	1166	-889	-16240	-1212	-6244	-4248	7176	-3510	-16108	3860	-4372	-1915	12907	793	145	117	1
1336	-3092	5192	15446	-32768	-716	-3640	440	-2200	663	-14071	-7118	-16624	1296	-8600	-92	-2034	-742	-7880	4440	13624	-699	1007	-1203	-16740	-44	-5064	3557	5552	-1088	-15560	2800	-3328	2525	13049	1190	134	118	1
404	-1576	4376	7190	-32768	-2246	-2692	1132	-2664	6038	-18656	-8256	-14000	640	-8784	30	-1967	-627	-7360	4232	13512	-772	970	-1308	-16912	2016	-4208	6064	4814	-823	-14700	932	-1596	5619	12820	2806	111	125	1
-1892	-6584	7736	3597	-32768	-5302	-3644	3232	-5264	7190	-22943	-9278	-11704	896	-9256	183	-1850	-562	-7404	3752	13540	-713	904	-1291	-16100	1460	-3240	3771	4703	-803	-16080	-300	-2008	6387	13183	2971	109	123	1
-4504	-9820	10960	6397	-32768	-9730	-5012	3460	-5816	5389	-27529	-9754	-10288	-80	-9016	275	-1707	-529	-7400	3272	13844	140	1322	-1083	-16520	1252	-3772	1031	4958	-813	-16748	-716	-2340	7580	13766	2348	115	125	1
-8432	-9780	14332	8868	-32768	-15205	-6756	4200	-6616	3320	-31808	-10191	-8424	-936	-9320	496	-1474	-458	-7840	3848	13640	202	1518	-1074	-17048	1172	-4812	1331	4850	-745	-16336	2176	-2556	11763	15199	1843	116	115	1
-10548	-8220	15016	8708	-32768	-19737	-9108	2712	-5592	2249	-32768	-10794	-6768	-1936	-9872	934	-1250	-419	-7880	3800	13500	159	1549	-1066	-16368	940	-5144	3071	4712	-555	-15764	2600	-2188	12198	15702	1792	129	124	1
-11992	-7716	15300	6861	-32768	-21311	-11620	376	-5648	3539	-32768	-11877	-5608	-2024	-10584	1569	-1051	-348	-7556	4100	13472	360	1418	-1101	-15996	2184	-3732	4624	4749	-467	-14300	4828	-8	9761	18768	3170	113	126	1
-13824	-8508	15288	4134	-32768	-20693	-14460	-920	-7568	8671	-32768	-12051	-6432	-56	-12128	1994	-855	-364	-7364	4180	13628	221	1699	-1427	-16556	3176	-3540	3683	5279	-1034	-15196	4268	-1472	7699	19606	2916	127	133	1
-17388	-12112	19232	2020	-32768	-21164	-16348	72	-9348	15510	-32768	-9933	-6232	1600	-12528	2255	-543	-266	-7648	3256	13716	444	2424	-1617	-17512	1344	-4112	1895	5792	-1757	-17000	3712	-2704	3379	17696	1656	132	135	1
-22676	-23276	29872	7131	-32768	-22413	-22724	4008	-13196	14874	-32768	-8159	-6552	2112	-6872	2131	-635	-103	-7172	3484	13556	758	3209	-1510	-16500	536	-3508	2430	6377	-2044	-16464	5480	-3384	1119	14228	-106	134	129	1
-31020	-30876	32767	16225	-32768	-27012	-32768	1244	-15152	11142	-32768	-11489	-11192	720	2096	1962	-1146	-142	-8012	3684	13196	894	3832	-1125	-15120	2732	-3000	2423	7600	-2606	-15092	5540	484	892	12030	-8	146	125	1
-32768	-17896	22472	14488	-32768	-32768	-32264	1820	-15404	8837	-32768	-9619	-19336	-7024	7080	1486	-1449	-587	-7812	4164	13428	828	4999	-1379	-16912	4560	-3232	1304	8922	-3749	-17500	3732	3144	805	12446	835	141	125	1
-32768	-19036	13396	5461	-32768	-32768	-29868	2400	-12900	6079	-32768	-8399	-21216	-5208	14912	1129	-1695	-1145	-7580	4372	13520	497	6380	-1977	-17408	3460	-1960	1695	10806	-5077	-19016	3012	4272	2135	12527	934	135	125	1
-32768	-13876	-9272	15405	-28136	-18566	-19984	-7000	-17780	6676	-28440	-7982	-13752	12384	30352	1998	-1596	-1212	-7520	4372	13852	322	9315	-2677	-18276	3364	-2168	2421	12827	-6356	-19288	2688	3000	4414	10444	936	132	127	1
-32768	5836	-25772	-11102	-23014	-6027	-2260	5280	-18720	745	-10436	-7066	-15424	8896	32767	867	574	68	-7844	3900	14300	237	13226	-3416	-19484	2588	-2568	3381	14845	-7637	-19548	3100	2032	4647	6179	939	121	124	1
-32768	-8072	-32768	-17762	-8326	400	1428	748	-16316	-9421	9283	-4387	-15888	-248	30608	-456	-128	-124	-8300	3876	14084	-504	18741	-5090	-21328	3676	-4404	3615	16390	-8569	-20148	4520	2012	7281	3426	573	120	123	1
23484	-32524	-20884	11650	20376	3393	-56	-1624	-16472	-10121	11807	-4237	-12968	-888	10136	-445	63	-209	-7956	4828	13160	-1399	25005	-8266	-21880	2804	-4256	5736	18375	-9031	-20496	3728	4592	8111	-2355	-1592	111	117	1
20360	6592	26256	6111	32767	1415	-32768	-6036	32767	9159	12144	1994	-15472	-4520	-5064	-17	1326	-796	-8668	5180	14232	-2157	32431	-11993	-24608	2784	-3432	9670	19419	-8571	-22124	3344	10572	6056	-10802	-2415	117	121	1
-29572	3720	15800	-9087	32767	2349	-23748	12344	-18704	32767	22842	6011	-32768	-5320	32767	2250	-896	-1913	-8444	6672	13576	-3361	32767	-17498	-31736	6868	1212	12520	20397	-7964	-24708	-1632	13168	-1771	-14542	-3713	140	123	1
-32056	15300	32767	-8487	32767	12503	-19700	14976	-8948	20780	24898	7828	-5080	6544	4256	5056	3168	218	-11688	4604	15752	-4111	32767	-22585	-32768	5244	7140	16154	21004	-8425	-24816	-7344	10324	3290	-14955	-6558	109	125	1
-32768	-32768	32767	9252	17972	7333	-24280	-6796	-25080	8329	25951	1683	-21568	8536	-2768	621	1728	433	-21420	6736	16096	-1395	32767	-27373	-32768	3984	2008	20258	19793	-8675	-25044	-2868	-1036	17869	-12299	-7644	144	144	1
-6660	-32	25980	8671	4618	4030	-22472	-4704	-11000	25035	20764	-3049	-23080	-8008	-21912	-1889	605	-239	-32768	3012	21812	-1642	32767	-27956	-27840	5612	-10476	20102	18493	-9104	-23308	6644	-9524	24004	-14941	-5032	125	130	1
-6852	-9596	14544	6203	-140	1903	-6168	2452	-12236	1335	19155	-285	-608	-5400	-16192	-2415	497	-275	-32768	9528	28356	3455	32767	-25123	-23604	2836	-4552	17861	15053	-11427	-25512	6756	-11752	18937	-17178	-2036	103	124	1
-8864	-6856	15380	3574	-816	1533	-6652	3428	-11428	-3268	17270	-529	-11720	-384	-11056	-1316	1065	-950	-15616	10924	27908	-4459	32767	-32768	-15344	5296	-12512	10486	11021	-7739	-29904	4568	-7124	6633	-20904	4144	83	121	1
-5864	-6800	14816	728	-627	-149	-21612	228	-9284	-32768	9755	-6365	-27728	-6264	-7256	-1777	902	-581	-32768	18644	32767	5620	2026	-19465	-9136	-884	-19680	1749	13127	-4038	-27500	1380	-8948	2462	-19476	7060	118	120	1
-4872	-5560	14428	158	-347	-144	-19508	-14800	-7060	-6511	8533	-3328	-23616	-4720	-2648	-1132	1339	71	-5660	20580	29004	10539	-32768	-2344	-13312	456	3244	3280	2109	-746	-25536	1768	-9700	-1949	-20105	7349	135	139	1
-5220	-5316	14992	-516	418	-138	-18120	-7916	-7688	22026	7155	4136	-16296	-5744	-1448	253	1928	298	4936	12832	7500	6272	-32768	3123	-7280	-364	3032	8082	-8148	7119	-21704	-356	-11476	633	-16383	6669	99	101	1
-5936	-5636	14684	-1132	715	-131	-15664	5504	-6944	19223	5643	3566	-12992	-5832	-3168	930	2054	299	3628	7764	5660	6698	-30770	6308	-3464	2136	1384	5584	-12998	10755	-17280	-1004	-11384	-493	-15028	5999	95	124	1
-5732	-6280	14796	-712	579	141	-14580	6540	-4976	-1116	4776	-91	-14992	-1744	-976	970	1876	-88	-1852	7108	9524	9592	-29898	10725	-2712	2164	-1296	-3815	-15541	13687	-13816	-316	-10712	-1714	-14923	5418	92	120	1
-5988	-6532	14496	-263	462	350	-15612	1096	-4096	-13331	4285	-2914	-16872	1712	600	-335	1710	-123	-5652	6692	12876	9805	-32768	15128	-6560	-1120	-1972	-8894	-19559	16841	-13080	376	-10756	-3898	-15149	5383	124	123	1
-5120	-5592	14204	-109	406	417	-16664	-4548	-2980	-9410	4122	-2256	-16424	264	1656	-1301	1652	80	-7116	3920	13840	9793	-32768	18630	-10264	-2824	-1656	-7297	-24835	19262	-11648	2744	-11300	-5181	-14359	4488	128	138	1
-5072	-5908	14320	-194	961	648	-15512	-3560	-2228	285	4277	152	-16096	-2720	1416	-1066	1545	35	-10468	1388	17236	11193	-32768	20597	-12008	-1952	-2832	-7261	-28514	21410	-9852	2260	-11420	-9954	-14425	2469	128	145	1
-4664	-3756	15936	-312	580	1560	-16268	-268	-5208	2116	5079	564	-15488	-1560	1600	-551	1685	-39	-12084	-336	18900	13070	-32768	20573	-13800	-928	-2440	-8344	-32610	23356	-6628	524	-10688	-13414	-12918	1755	120	142	1
-6120	-5744	14204	20	853	1044	-16132	1560	-5180	-2172	4995	-191	-15280	-1456	3296	-568	2246	-86	-16368	-508	21868	14723	-32768	19552	-16860	-856	-2972	-10267	-32768	24498	-5816	580	-11148	-16390	-10752	1470	118	132	1
-6164	-5672	14472	8	567	938	-14968	348	-3996	-7045	5358	-672	-13448	-2072	4912	-932	2936	-139	-18232	224	21456	14941	-32768	18491	-21360	-976	-4028	-11617	-32768	24949	-5132	1592	-12284	-18916	-9083	1343	132	128	1
-5104	-5824	14268	344	578	1380	-14784	-2168	-3100	-6458	5799	-628	-13744	-3296	-560	-1042	2801	-160	-18812	1076	19912	14027	-32768	17440	-25000	-2168	-4188	-11415	-32768	24335	-5504	-916	-10416	-17361	-9478	1568	140	128	1
-4004	-2476	16212	-812	679	2152	-16104	-656	-4640	-1958	6593	566	-17232	-3632	-3920	-248	1719	-201	-26704	4408	29816	14229	-32768	17153	-30592	-3380	-8432	-8790	-32768	25416	-6132	-2996	-7040	-13502	-7911	-5	136	128	1
-5888	-4948	14812	-1599	1851	1218	-16868	1840	-4412	-1331	7171	1010	-17080	-4968	-560	-58	1642	44	-32768	9072	32767	12633	-32768	19606	-32768	-2324	-12868	-8806	-32768	27059	-9792	-3344	-1000	-10421	-8471	324	135	130	1
-5836	-5736	14572	-1951	2584	708	-15704	128	-3468	-2871	8103	1105	-15104	-3544	1816	9	1899	130	-32768	2000	23680	13301	-32768	24276	-32768	-4456	-16020	-9639	-32768	26739	-14992	1092	4068	-9375	-8333	656	138	140	1
-4972	-5700	14364	-2406	3820	896	-15880	-2968	-1412	-680	9689	1785	-18072	-1560	4608	50	1587	34	-32768	-1360	16372	12203	-32768	27183	-28920	-780	-16308	-10881	-32768	21488	-22840	1708	13756	-3916	-13652	2607	137	124	1
-5548	-5516	14764	-3409	5786	1355	-17456	-312	-1132	932	12090	2733	-20072	792	7472	-70	1410	-106	-32768	-14012	-8336	2090	-28367	20144	-19520	-4664	-21804	-18808	-23974	16100	-15600	-11140	26548	-9196	-15068	6184	129	108	1
-5588	-5868	15100	-5286	8685	1727	-18536	776	-600	-556	14992	3091	-20376	1184	7360	-535	1209	-123	-32768	-27024	-28892	14806	-13742	12892	-6168	-12676	-25892	-8397	-6182	7809	-16536	-8472	32767	-1843	4511	1770	120	119	1
-5700	-5756	14768	-7378	12821	2007	-18332	-88	-1796	-1687	18040	3634	-18160	-1352	5888	-810	717	16	-32768	-18492	-28036	2120	2564	7028	-5080	-12280	-25564	-6134	-3679	6235	-20088	2144	22312	222	1028	1635	113	118	1
-5332	-6140	14668	-8893	18790	3395	-20040	-1624	-3996	-1279	20328	4698	-18976	-3912	4976	-1031	346	156	-32768	-15028	-9748	-14049	13690	3541	-13796	-5596	-21156	-5823	23918	-10536	-15360	3684	11288	730	-975	2562	118	129	1
-5036	-8000	14288	-10110	25089	6693	-22028	192	-3576	-3732	22398	4437	-19136	-3800	4416	-1068	285	196	32767	-1200	7012	-3046	19986	-3647	-32768	19432	32767	9445	10395	-11037	-10964	1336	-12452	-1508	15100	2467	125	116	1
-6292	-8100	14172	-12355	32767	9937	-25696	1804	-1420	-7449	24321	3423	-22120	632	16128	-819	-1458	567	-11512	2540	-3452	-11216	32767	-19470	-24268	-13736	-6920	-6622	17328	-7348	-32768	6612	19136	-1361	-789	3920	127	124	1
-6124	-7852	14464	-15101	32767	14257	-32768	1104	5236	-10177	25824	3050	-25024	5760	14272	-489	-1590	916	-18264	-4940	32767	-2156	32767	-8825	-32616	472	864	2279	20221	-10007	-19756	-5020	-1252	-22600	1815	-4475	126	153	1
-10464	-10288	17260	-19133	32767	19804	-32768	-492	5800	-14674	26091	3551	-25864	4200	13672	-990	-1896	1147	-23440	18216	18160	-2829	27398	-9657	-21140	2780	-8884	103	20743	-8536	-12008	-5800	-6972	806	9749	-2681	124	143	1
-28316	-22384	31336	-25330	32767	23575	-29876	-2940	-5120	-19874	26290	4102	-22696	-3976	-2688	-2334	-1801	965	-32768	9316	32767	-15961	14595	-9137	-10956	10108	-20280	-8980	22346	-3980	-16732	9756	-9932	9256	7733	5407	167	136	1
-31268	-19972	25956	-26355	32767	26443	-26468	-4684	-11116	-23116	25792	2784	-23928	-11904	-7488	-2506	-2243	289	-12588	7036	18228	-7767	-502	-4423	-23624	-8132	-11796	-9045	19330	-10020	-10380	6452	-15528	-74	5362	4005	134	101	1
-19216	-19268	24536	-24893	32767	28671	-21800	-508	-9448	-18442	17788	4626	-32768	-4528	-11232	-948	-2561	-159	-9868	-1784	17280	-4041	-1090	-2353	-15972	-5272	-7188	1564	12146	-4633	-16036	1044	-10160	4621	9988	7417	139	111	1
-1228	-10720	25360	-31744	32767	26408	-16628	-3300	-11860	-8413	10488	5813	-32768	-3104	-7360	-429	-2532	-444	-7440	4712	13556	-2081	-585	-1128	-17168	-808	-6128	11485	10062	-1653	-20160	7196	-8612	8567	8934	2942	140	115	1
-28196	-32768	32767	-17873	8250	16973	-8692	-1988	-27832	-4540	4907	1915	-25784	-2416	-6280	266	-2440	-863	-7788	3452	13684	-1487	-376	-948	-17344	3752	-4240	8717	8592	-899	-17192	6040	-4244	2658	10615	2568	142	114	1
-4292	-29896	32408	10837	-24420	-1503	-2688	-1780	-9304	-1450	-458	-1844	-22728	-632	-8320	198	-2398	-918	-7108	4080	13744	-886	697	-960	-19020	5388	-2744	801	7057	-2093	-15024	2884	-2660	-1219	12871	873	147	115	1
-360	-12600	13588	22073	-32242	-7041	-6652	-2304	-4044	679	-8733	-3798	-22696	-2176	-9872	98	-2123	-1038	-7624	3676	13696	-637	822	-671	-16620	1204	-4796	-5625	6091	-2480	-16232	1044	-4036	-1659	12703	994	156	107	1
508	-5000	6404	19774	-32768	-9214	-3772	-820	-4536	7010	-14811	-5901	-17648	-1576	-9520	360	-1980	-1102	-7988	3392	13560	-122	757	-524	-15848	-332	-5564	-2503	4943	-1416	-15700	1316	-2824	842	13298	814	119	105	1
-1564	-2672	6420	11039	-32768	-10816	-2656	1248	-4388	11648	-19970	-6532	-14264	-32	-9376	470	-2006	-1072	-8328	3492	13544	218	619	-456	-16876	-212	-3996	3547	3631	-102	-15692	-1016	-1768	4397	13218	2259	107	124	1
-3008	-6492	7836	6810	-32768	-12691	-3544	2192	-5796	10673	-24788	-7653	-12680	128	-10056	761	-1920	-1007	-7128	3408	13380	615	653	-382	-16604	-116	-3784	4312	3498	64	-14840	-960	-876	9704	12686	3182	119	125	1
-5192	-9472	9776	9416	-32768	-14641	-5164	1828	-5472	10145	-29481	-8606	-10616	720	-9928	989	-1726	-866	-7416	4072	13404	842	785	-289	-16132	3248	-1856	7814	3489	675	-17752	-172	-808	17105	11190	2031	106	126	1
-8284	-9384	12492	11815	-32768	-17467	-6616	3104	-6320	10789	-32768	-8884	-8480	496	-9928	1121	-1561	-737	-7656	4024	13248	761	801	-350	-16720	4324	-3792	5656	3479	-138	-16260	2944	-1740	18676	12643	2532	120	127	1
-11924	-9000	15676	10825	-32768	-20923	-8968	3176	-6652	9253	-32768	-9425	-5992	-336	-10104	1486	-1361	-598	-7600	3660	13608	879	613	-435	-16648	2864	-3748	2842	4218	-773	-14020	4912	-904	16074	15870	3677	118	127	1
-14240	-9752	17140	9189	-32768	-22981	-11228	1876	-6380	7614	-32768	-10026	-3952	24	-10936	2078	-1132	-484	-7592	3632	13416	962	681	-422	-16692	2108	-3404	2918	4518	-1256	-14764	3592	880	11665	19033	3488	120	124	1
-15216	-9432	16508	7015	-32768	-23175	-14428	336	-7296	9389	-32768	-10828	-4848	696	-12288	2338	-967	-433	-7096	4452	13272	969	842	-753	-17080	2516	-2252	5022	4693	-1182	-15196	5008	1236	8359	20752	2504	126	129	1
-17188	-11536	18576	4493	-32768	-22833	-17324	588	-9916	14202	-32768	-9960	-5704	2624	-13000	2500	-557	-298	-7536	4236	13380	569	1056	-1355	-16380	3468	-2296	5270	5668	-1729	-15936	6036	-3132	4780	17189	1125	131	137	1
-24768	-21968	29604	6942	-32768	-23734	-22816	3236	-13100	16210	-32768	-8845	-6904	3816	-8912	2359	-410	-123	-7708	3908	13304	327	1248	-1596	-15184	4272	-2460	2415	7216	-2634	-17232	6816	-2044	1270	12234	458	137	132	1
-26436	-24456	31936	8151	-32768	-24256	-32768	1560	-15544	14806	-32768	-11244	-10344	3656	2000	2245	-1064	-84	-7680	4280	13524	220	1657	-1657	-16068	3780	-2220	639	8498	-3533	-15600	6240	2756	655	12099	-59	142	136	1
-32768	-16852	23920	12397	-32768	-32768	-32768	2528	-13544	11565	-32768	-8489	-18592	-4880	8912	1664	-1685	-457	-7512	4812	13220	-60	2565	-2299	-17360	4484	-1840	967	10004	-4543	-18324	4600	4352	206	13329	465	138	129	1
-32768	-17772	10984	6706	-32768	-32768	-26584	-6636	-20696	8366	-32768	-2055	-27128	2808	16256	1246	-1849	-1125	-7572	3980	13864	-452	4111	-2789	-16632	3284	-148	2353	12184	-5770	-18664	2996	5388	1514	12236	503	128	126	1
-32768	-17688	7256	8422	-32768	-32768	-19000	-3896	-20660	4960	-28668	-6754	-10856	15216	32767	1506	-1406	-1024	-4532	5332	15004	-650	7685	-3327	-18800	3512	-340	1657	14382	-7285	-19608	828	4100	3471	9972	524	124	128	1
-32768	11256	-23796	-13406	-25838	-1134	-472	5928	-18956	-7450	-8874	-5913	-15336	9128	32767	246	572	63	-7144	2508	14728	212	12135	-3454	-20800	1112	-2016	1913	16678	-8652	-21604	1280	2872	4987	6292	446	122	123	1
-32768	-4092	-32768	-14614	-10241	11015	-116	-1400	-15452	-14945	10459	-4136	-17792	1392	28440	-1175	-186	-56	-7864	5040	14616	720	18199	-4530	-21272	4156	-4288	3385	18554	-9188	-19524	3964	2248	7305	2627	-83	124	129	1
-32768	-12056	-14488	7408	15929	17096	-10272	-2112	-17504	-9150	24858	34	-13496	384	14600	-1050	-659	69	-8616	4276	13144	211	25326	-7589	-21748	2660	-5496	5851	20270	-9582	-20120	4272	3952	8065	-2986	-1865	117	124	1
10872	-12072	32767	9559	14339	9533	-32768	4808	32767	-6584	16527	6124	-12568	376	12968	-1081	-669	117	-7624	4300	13572	-590	32757	-12074	-24868	812	-4132	11064	21076	-8656	-21488	2488	12116	7929	-11760	-3330	109	125	1
10904	-4344	-12068	-11685	32767	17211	-32768	7028	168	19312	21183	1594	-32768	1688	32767	760	-606	-507	-7792	6356	15792	-927	32767	-16826	-32768	5700	1944	15143	21677	-8417	-24300	-2836	10748	-2564	-13751	-4352	123	120	1
-32768	-18692	32767	-2854	32767	8366	-15596	6724	-13232	8367	27515	5105	-9992	-3480	6704	3444	2872	-413	-11656	5760	15536	-2013	32767	-22130	-32768	5204	9140	18115	22153	-9185	-25604	-7160	13552	3185	-16182	-7867	139	119	1
-24052	-19456	25956	9224	15802	6522	-27720	-10788	-17040	23821	26467	4611	-20384	3240	-19608	222	2022	-733	-25736	8484	21980	-854	32767	-26641	-32768	6616	3144	22702	19333	-9298	-26932	556	-748	20334	-12169	-8946	139	143	1
-8444	-5296	20892	9686	9721	5173	-12224	4280	-17904	30476	20034	1725	-15176	-6576	-19800	-1747	511	242	-32768	5504	27188	-1029	32767	-27690	-27644	6916	-10680	19433	17298	-10450	-23224	9148	-10584	22546	-14577	-6491	142	124	1
-7124	-5500	15668	6335	467	1880	-2372	6368	-14304	108	17069	-1263	-1600	-1864	-10008	-1199	576	-32	-32768	13888	24820	3197	32767	-25122	-21548	4752	-2892	15505	13799	-13500	-27852	10160	-11956	14893	-18453	-2056	97	127	1
-6572	-6176	15500	2762	133	1006	-18404	10664	-11168	-24277	12011	-4217	-17024	-1872	-9992	-1145	1162	-880	-25564	14940	32767	-2659	32767	-28204	-16684	5728	-17240	3959	9649	-9906	-29860	6644	-5884	940	-20687	4847	81	134	1
-6112	-6608	15432	728	-6	71	-23616	-1828	-9648	-32768	9214	-8148	-29176	-3584	-6560	-1974	1149	-560	-32768	27520	32767	510	-7537	-14811	-10104	1332	-21712	-5300	13092	-6692	-28732	6504	-9608	-3626	-19867	7063	118	148	1
-4620	-6284	14928	-201	182	-187	-17368	-15652	-6372	-5707	7666	-2560	-19792	-5224	-656	-1939	1283	12	-1456	17148	25796	-1662	-32768	-3405	-14416	4516	6708	-1718	-1431	-3190	-28024	4000	-10820	-7130	-19235	7777	139	85	1
-4072	-5796	14904	-868	956	-127	-16196	-7064	-5492	17983	5797	4102	-14368	-10320	-1240	-478	1893	359	3712	8896	9672	-153	-32768	-412	-6980	-1092	2108	324	-11974	3524	-21292	816	-11936	-5335	-16265	7260	101	112	1
-4684	-6924	14676	-928	1190	161	-15792	1368	-5464	15671	5324	3825	-13616	-10576	-2240	1034	1953	170	-580	8972	8708	4419	-32768	2505	-4000	1420	-940	362	-16695	6726	-17780	-776	-12048	-6802	-16241	6764	97	117	1
-4948	-6848	14660	-449	1081	606	-15512	4120	-4860	-677	4404	1042	-15368	-3176	-336	1365	1821	-160	-3812	10392	8744	6047	-32768	6036	-3548	1844	-3216	-4480	-20800	11226	-14380	-572	-11256	-10216	-16762	4897	101	122	1
-4828	-6716	14496	-349	1034	699	-16652	1104	-4260	-13183	3672	-2072	-17040	3248	680	-50	1676	-58	-7644	10328	9708	6695	-32768	10736	-7148	288	-3112	-11451	-25389	14905	-13248	1532	-12036	-9479	-15593	3557	130	133	1
-5060	-5368	14736	-529	954	814	-17100	-4508	-3824	-9191	3163	-1158	-16952	1896	152	-1298	1699	35	-10760	9680	11032	8379	-32768	16296	-10376	28	-4380	-6872	-28627	18001	-11940	1944	-13256	-9081	-16471	3099	124	152	1
-4976	-6168	14580	-884	1062	754	-15072	-2516	-3220	-123	2591	111	-16296	-1608	248	-1430	1582	91	-13672	8836	12696	9081	-32768	21357	-11364	728	-4692	-6540	-32768	19910	-7704	2184	-12576	-13460	-13722	3777	123	150	1
-5116	-5640	14720	-1015	1273	927	-16652	316	-4328	-1163	3657	183	-15744	-2640	1488	-1084	1725	-12	-14024	8604	12928	9046	-32768	21890	-12296	2504	-5292	-11454	-32768	22362	-4504	-304	-11916	-19785	-13105	860	133	141	1
-5372	-5476	14636	-1192	1037	836	-16656	1472	-4180	-6335	3496	-406	-16008	-1336	3864	-803	2345	-200	-19060	3804	15572	10789	-32768	25072	-12776	2612	-5384	-12438	-32768	22865	-3368	160	-12352	-21735	-12054	226	124	129	1
-6376	-7160	13716	-1018	945	911	-15732	-1264	-4080	-8416	3660	-1747	-13696	-1560	4664	-1026	3319	-272	-20380	4320	17300	14028	-32768	25778	-21176	680	-8140	-18809	-32768	24038	-3352	-64	-11972	-20274	-9969	1218	129	130	1
-5560	-5732	14412	-1702	1176	785	-15640	-592	-3644	-7049	4156	-410	-14152	-2416	-3328	-920	2938	-259	-25780	4404	25464	13525	-32768	23422	-26296	-424	-10436	-15646	-32768	23924	-4672	-1300	-8696	-14348	-7726	1754	138	124	1
-5628	-5756	14392	-2487	1313	168	-14780	-32	-1848	-4134	5324	193	-17168	-7184	-1928	-167	1412	-85	-32768	7328	32767	12546	-32768	22010	-32612	-1400	-15296	-10589	-32768	25161	-7152	-992	-3788	-8414	-5670	1249	134	125	1
-5768	-5764	14396	-3202	1420	-457	-14284	-1872	-2036	-1721	7026	1068	-16096	-7224	6304	166	1545	87	-32768	372	27180	14343	-32768	23593	-31392	-4308	-17940	-5666	-32768	24050	-11380	2364	224	-5402	-6548	4227	129	130	1
-4468	-6388	14216	-3818	2042	-358	-16760	-2732	176	-765	8986	1923	-18400	-2520	7920	249	1896	21	-32768	-2568	16772	14401	-32768	21614	-27656	-1976	-17276	-1785	-32768	22378	-17712	2496	7352	2400	-10695	6831	127	125	1
-3996	-7244	14404	-3765	3806	450	-17236	-2104	1240	-464	11696	2188	-19856	168	7280	-78	1670	-35	-32768	-6392	-1620	7762	-32768	14874	-27176	-972	-22096	-4723	-28092	19705	-23060	-5504	19588	-2437	-16536	7121	139	119	1
-5324	-6292	14872	-4970	6236	956	-17880	-392	416	178	14602	2840	-20936	1792	6848	-332	1225	-119	-32768	-21424	-19252	15523	-20335	8768	-12408	-10568	-22868	-5455	-13709	13261	-14556	-9488	31252	-803	-5347	4578	123	120	1
-5344	-5980	14792	-5318	6623	906	-18356	416	-516	413	17524	3922	-18272	400	6080	-649	778	-94	-32768	-17644	-24416	11781	-5119	6261	-7296	-11268	-24156	1692	1204	4316	-17016	1244	24592	3173	3430	3672	122	122	1
-4484	-7544	14620	-9758	14043	1066	-19412	-2148	-3176	1051	19708	4680	-18064	-4024	3336	-972	445	77	-32768	-16724	-24268	8045	-2649	5527	-10504	-8004	-20984	1425	15887	-4461	-17244	6184	16376	924	-77	1794	123	121	1
-4264	-7808	13616	-12520	19491	3234	-20624	-852	-6024	-778	21510	5290	-19344	-4040	4336	-1087	-58	308	-32768	-12164	-2224	-8523	16493	-33	-16160	-5404	-18840	-5027	26491	-12395	-13232	2900	5572	-1580	2389	594	121	122	1
-4080	-8332	13044	-14074	26413	6864	-23280	4392	-3972	-6359	22126	3308	-20488	1920	9648	-1103	-911	610	32767	2960	7172	-7186	15685	-6348	-32768	31436	32767	12119	2455	-4232	-10696	88	-13308	-1130	22147	-200	122	140	1
-4324	-9052	13164	-14480	27996	7344	-29080	5156	2204	-13276	23613	3229	-23400	6304	12264	-715	-1444	784	-20856	-1876	13784	-7037	32767	-12871	-14540	-17860	-11596	-19713	13626	-11518	-32768	8140	23688	-6168	-2578	8125	121	119	1
-4872	-9196	14180	-24071	32767	11652	-32768	2308	8424	-16571	24794	3063	-23672	8968	17584	-414	-1971	1148	-7448	-13408	24572	-1992	28681	-10128	-23904	3316	1196	-2157	21290	-9294	-13964	-2248	1172	-29204	3143	-5769	110	125	1
-13680	-16808	20912	-30511	32767	14581	-32396	-2964	6104	-19299	24369	5346	-23152	2936	11152	-1736	-1801	1261	-21764	24624	17408	-2694	22763	-7918	-20256	4788	-10112	-6268	19448	-7202	-12980	-10108	-5664	-2209	14031	-2964	135	127	1
-27824	-23860	26416	-29033	32767	22037	-25312	-6656	-10196	-16324	26522	5724	-20144	-11480	-6280	-3067	-1789	815	-22784	5536	28844	-9077	12960	-7003	-14796	3412	-14424	-9054	18022	-4172	-16248	9552	-9236	16551	8890	4344	156	147	1
-19340	-21752	16124	-27160	32767	23431	-26676	-4264	-11376	-12099	23538	3897	-27000	-15112	-8792	-2358	-2180	78	-13416	7060	14468	-6888	4408	-4463	-19604	1072	-12324	-1069	16401	-6038	-12096	12156	-12220	4560	6048	3924	131	109	1
-15056	-20240	22068	-32768	32767	22549	-21012	112	-7332	-4563	15763	8184	-32768	-8736	-7720	-519	-2354	-458	-11668	4224	17272	-4962	1241	-2843	-17512	-4660	-8696	4958	10553	-4758	-14588	1904	-8888	5955	9787	7280	149	101	1
-3108	-13708	31948	-31877	29024	20342	-15892	-5088	-14772	-3055	10655	8721	-32768	-5608	-8888	310	-2436	-531	-7408	5124	13824	-2995	380	-1761	-17660	500	-5172	11530	8176	-1907	-19708	6456	-8128	10238	8943	2760	161	107	1
-11336	-32768	32767	-3825	-4310	9618	-8220	-348	-29144	164	2335	4015	-25600	-4888	-6120	975	-2562	-635	-8040	4184	14240	-2145	414	-1459	-17996	3252	-4020	6884	6650	-1526	-15896	5296	-5048	3942	12489	1376	147	117	1
-2692	-20048	25976	23317	-26396	-17	-6248	-4712	-6668	154	-2604	2264	-24016	-4416	-6576	671	-2303	-898	-7188	3848	13888	-1079	1149	-1289	-17872	3836	-1232	-1845	7446	-2554	-16196	488	-2204	1377	11794	1399	159	130	1
1284	-7252	11968	28180	-31471	690	-5924	-2568	-3720	1933	-11656	-822	-21976	-2624	-10320	971	-1979	-878	-6756	4228	13700	-1058	1432	-1255	-17068	1588	-4008	-2753	6242	-1989	-15468	2384	-2992	2929	12836	329	146	106	1
-204	-2908	7972	21164	-32768	702	-2320	-528	-4180	7438	-17079	-1655	-15168	1936	-9408	844	-2118	-896	-7560	4068	13876	-1082	1387	-1162	-16236	788	-5224	490	4441	-778	-14888	1988	-3696	3721	13238	445	108	119	1
-1784	-4980	7444	13311	-32768	244	-1724	276	-5404	7958	-21797	-2981	-12824	-256	-9288	539	-1997	-783	-7972	4064	13568	-869	530	-755	-16364	760	-4796	1126	4248	-626	-15224	-260	-2188	9248	13494	3063	103	121	1
-3100	-10480	8384	12673	-32768	-884	-2876	1228	-6432	4830	-26595	-4580	-11112	-312	-10016	989	-1775	-712	-7748	3672	13620	-85	480	-436	-16244	912	-2952	8258	2613	-17	-15504	564	-2164	13315	13711	2384	100	124	1
-6884	-13028	10388	15135	-32768	-4213	-4612	1028	-6800	3806	-31058	-5754	-9352	-456	-9864	1044	-1702	-613	-7480	3924	13488	498	408	-160	-16528	2292	-2620	8551	1816	133	-14992	2392	-1160	17594	13061	1410	107	129	1
-8620	-13592	10864	15904	-32768	-9592	-6804	2104	-6348	3680	-32768	-6342	-8072	-568	-10008	1359	-1458	-570	-7088	4200	13380	898	474	-44	-16456	4648	-2116	5539	3063	-528	-14632	3504	-1392	17493	14478	1323	109	99	1
-9808	-12976	11048	14046	-32768	-14374	-9512	1168	-5636	2636	-32768	-7818	-6440	-272	-10528	1818	-1254	-467	-7248	4032	13468	1180	610	-167	-16800	3396	-2668	3279	3561	-1497	-14764	3776	-208	14549	16701	2556	124	127	1
-11484	-12876	12120	10083	-32768	-17330	-12176	256	-6064	4501	-32768	-9884	-5264	744	-11248	2392	-1140	-307	-7220	4416	13448	1355	714	-380	-17132	3284	-2300	4272	4033	-1708	-15844	5012	2120	9056	18560	3267	125	123	1
-14980	-13204	14248	4631	-32768	-19332	-15412	-276	-8916	7759	-32768	-11259	-6176	3728	-11952	2521	-1025	-157	-7376	5124	13144	568	537	-1095	-15848	3500	-1380	5822	5262	-2075	-14888	6976	1160	5015	18162	2182	130	136	1
-18488	-16788	18040	3162	-32768	-20932	-18000	336	-10260	14759	-32768	-10157	-6688	6504	-9512	2318	-797	41	-7116	4784	13312	-253	381	-1770	-14932	5752	-492	4400	6982	-2828	-18072	8728	-2660	3901	13242	287	142	134	1
-27356	-26448	29564	7064	-32768	-22874	-25816	4236	-15096	16166	-32768	-10537	-8400	7752	-2296	1943	-989	244	-7012	5372	13116	-826	441	-2615	-15852	5984	-1356	298	8858	-4071	-17844	7016	696	947	9180	-901	147	130	1
-32768	-32112	31572	15160	-32768	-30290	-32768	5312	-21136	19392	-32768	-13491	-12288	-2720	6576	1107	-1518	105	-7324	4728	13464	-1232	1231	-3098	-17812	4004	-2424	-672	10117	-5154	-16268	4864	4184	213	12870	-209	163	124	1
-32768	-14084	21332	8857	-32768	-32768	-25816	5788	-16744	4738	-32768	-7607	-20592	-4800	7472	317	-1160	-359	-6888	5056	13388	-1611	2487	-3677	-16304	3828	-116	929	11650	-5780	-17980	3708	5016	1010	13401	-102	143	126	1
-32768	-8884	8696	16583	-32768	-29978	-22392	-5780	-21428	7500	-32768	-2377	-20456	-3024	16728	43	-1631	-1179	-7064	3520	13704	-1218	4259	-3957	-15728	3360	-912	420	14321	-7246	-17864	1872	5280	1633	9843	-114	127	135	1
-32768	-1336	-9560	18537	-27295	-15585	-20288	-1736	-19532	-3720	-25506	-1049	-11768	8640	28720	1110	-909	-1180	-3468	6452	14324	-1413	8285	-4080	-19596	4280	-1268	788	16030	-8166	-19712	720	3068	3743	7314	11	132	128	1
-32768	17576	-24756	-510	-21906	13086	1760	2444	-14168	-2589	-7677	-4172	-16856	12184	32767	375	549	410	-6920	2012	15024	100	13208	-4448	-21548	-800	-2916	2076	18094	-9313	-20400	1784	980	6956	3550	-245	122	127	1
-32768	-8648	-29324	-16687	-10286	18508	-3520	6236	-16176	-11203	11191	-2315	-16720	5904	27288	-560	-389	468	-9368	4392	14652	547	19489	-5775	-21540	2312	-6420	4962	19522	-8810	-18624	2876	492	7829	245	-513	120	132	1
-28068	-15664	-13860	6842	14297	17478	-12944	-1064	-17216	-11879	23407	682	-11408	2384	8888	-1038	-319	320	-8016	4748	14120	-227	26759	-8686	-21992	1984	-5552	6772	20149	-9372	-19068	4176	4268	7135	-4183	-2636	113	123	1
22184	-8832	12108	386	24647	13355	-32768	-5340	32767	-13213	11422	1908	-17000	992	-856	-1124	1280	286	-6856	5012	13604	-1257	32767	-12580	-25824	2848	-2956	10135	21113	-8707	-21884	4996	11316	5266	-11852	-4227	105	127	1
-14772	-16628	4832	-10544	32767	8274	-23560	3148	-8932	16613	20774	3149	-30104	-776	29336	1274	524	-533	-8904	6968	15368	-2525	32767	-18242	-32344	7008	2408	12491	22254	-8142	-21280	-2936	9932	-4610	-13246	-5813	130	126	1
-29988	-21260	21816	-11696	32767	4371	-18472	4524	-3140	10901	25341	7557	-22944	-40	23760	1681	1270	-566	-13232	5332	15184	-3691	32767	-23948	-32768	5452	6660	15990	22349	-8723	-24900	-5376	10144	2970	-14134	-8774	125	120	1
-32768	-32768	32767	11419	23931	12573	-21720	-4288	-20996	18328	22049	5139	-20000	6568	-4720	683	889	-665	-27572	7704	19484	-2245	32767	-28010	-32768	3528	952	21762	19831	-8395	-23824	-1748	-1228	16586	-14155	-8929	111	137	1
-10912	6912	27288	8873	3652	5061	-18092	2668	-13896	27105	20235	-722	-20664	-4672	-22664	-1528	1162	68	-32768	2404	24220	-2515	32767	-27982	-26052	4656	-9892	21986	16724	-8938	-23420	9340	-10004	25308	-14208	-5830	135	133	1
-7900	-12308	13076	4542	-393	1061	-11628	5992	-14796	1115	16963	-1791	-10696	-3456	-11792	-1390	889	-353	-28996	8640	23220	2291	32767	-24342	-21928	4084	-4200	17892	12654	-12205	-10632	132	-25668	32266	-8210	-5659	98	110	1
-6944	-6468	14212	1392	-720	106	-15420	7132	-11444	-14698	11461	-3575	-15984	-5912	-9720	-1947	1247	-572	-26396	17468	32767	-3887	32767	-30050	-16244	7832	-15124	8375	10248	-9217	-30536	5692	-8936	5381	-17352	4738	121	131	1
-6152	-6036	14684	654	-598	74	-18432	-64	-9316	-29458	9274	-5847	-22200	-10120	-5896	-1986	1122	-530	-17168	14264	32767	-3492	31445	-28818	-10036	1592	-18928	-1784	11996	-6361	-28900	5236	-11064	-2802	-17921	7660	134	143	1
-5620	-5848	14832	158	-439	-124	-18364	-13120	-6372	-10743	7485	-2248	-18872	-8808	-728	-552	1499	-72	-940	18888	22148	5245	-32768	-5727	-14208	3436	7444	3195	-4913	-1151	-27720	2300	-11516	-6726	-18763	8087	121	114	1
-5340	-5720	14744	9	-350	-124	-16900	-7048	-5564	12142	6108	3564	-15968	-6384	-1408	843	1870	259	4684	13240	6700	2358	-32768	-447	-6508	-448	1608	3106	-12398	5415	-20504	-724	-12680	-4750	-15971	7239	123	110	1
-5652	-5584	14700	-978	573	-168	-15720	368	-6412	16202	4816	4306	-14576	-3552	-1480	1716	1972	116	-180	10340	7420	4691	-32768	5369	-3444	1264	-652	2371	-17380	8705	-14800	-1280	-10876	-4714	-15939	7332	87	106	1
-5508	-5760	14604	-998	470	-61	-15548	4816	-4928	5125	4008	1732	-16392	-40	-208	1416	1943	-42	-5216	10972	9796	6554	-32768	10715	-2832	1940	-3476	-4702	-20466	12512	-12796	-412	-11392	-4390	-14335	5900	116	128	1
-5548	-5780	14572	-866	545	150	-15460	3728	-4104	-8674	3350	-1076	-16440	4672	960	81	1715	-213	-7680	8548	10216	7034	-32768	14926	-6564	1192	-3184	-7920	-24866	16077	-11820	244	-12624	-7573	-14195	4010	124	127	1
-5612	-5364	14372	-948	567	191	-16868	-1080	-3252	-12105	3428	-2575	-17016	3520	840	-1558	1526	-315	-10536	6660	11672	9064	-32768	18141	-8656	-964	-3948	-7139	-28683	19049	-9316	1852	-12828	-8449	-13190	4600	118	150	1
-7412	-8400	12604	-990	882	138	-15028	-3144	-2860	-6389	3203	-1436	-16984	-672	696	-2174	1434	-188	-13188	5792	14244	10758	-32768	20497	-10348	940	-4760	-8522	-30932	21759	-6368	972	-11816	-14075	-13223	3008	116	157	1
-5708	-5324	14572	-1247	546	365	-15572	-884	-3548	-3620	4225	-350	-14416	-3576	2504	-1969	1391	-66	-15076	4860	15692	11933	-32768	21332	-12856	1716	-3932	-11253	-32768	24325	-3292	396	-11712	-19191	-10345	1906	132	141	1
-5776	-5940	14360	-1144	482	454	-15832	-528	-3404	-5972	4518	-474	-13328	-4192	4968	-1278	1833	-101	-18020	4108	17204	14279	-32768	22575	-16908	1064	-5028	-14778	-32768	25521	-3648	296	-13688	-23037	-9021	840	134	134	1
-5216	-5968	14352	-933	459	753	-16072	-1152	-3140	-7871	5056	-673	-13736	-3736	4784	-1098	2783	-150	-20276	3196	19752	16267	-32768	24107	-22676	-336	-6924	-16373	-32768	25862	-4624	-156	-12884	-20801	-7414	1335	139	130	1
-5656	-5520	14448	-1124	751	993	-15828	-1060	-3152	-5768	5834	69	-14728	-2528	920	-839	2916	-143	-26260	2976	27384	16613	-32768	23715	-28708	-1884	-8620	-14302	-32768	24937	-5732	-736	-9976	-16578	-6326	1987	137	131	1
-6108	-5280	14672	-1538	1040	703	-15760	-4	-2456	-2535	6758	815	-17120	-4176	-1872	-298	1933	-31	-32768	7344	32767	13118	-32768	22296	-32768	-1668	-14948	-9836	-32768	27059	-8352	-3080	-3064	-9423	-3814	1755	130	120	1
-6028	-5476	14484	-1934	1404	265	-14820	-816	-2068	2	8208	1326	-16104	-6152	3000	197	1582	103	-32768	3004	26840	12080	-32768	24091	-32768	-2752	-19420	-8075	-32768	26949	-14640	1968	2132	-5369	-6968	3759	128	124	1
-5228	-5768	14408	-2853	2238	189	-16344	-2152	-2004	1232	9730	2204	-17200	-3384	5544	265	1772	58	-32768	-3180	14772	15495	-32768	23501	-28532	-552	-16444	-5130	-32768	23523	-24772	2460	13220	4601	-14038	6363	127	123	1
-5208	-6028	14784	-3875	3612	630	-17564	-1112	-604	411	11861	2607	-19120	-728	5768	23	1711	-26	-32768	-14688	-5640	12801	-31573	15096	-24356	-5088	-22864	-6870	-25566	20078	-21112	-10600	23572	719	-16155	5739	128	123	1
-5172	-6020	15088	-4715	6445	989	-18312	-1140	-432	1141	14151	3107	-20336	736	7112	-185	1412	-100	-32768	-18612	-9596	14089	-29637	13410	-7852	-10232	-25784	1226	-8990	12781	-12224	-5080	32767	3100	-1937	6435	126	125	1
-5164	-6228	14912	-5013	6874	991	-18104	356	-1184	1431	17075	4174	-18488	-904	7408	-261	952	-63	-32768	-20444	-28864	8312	-1092	456	-3984	-9060	-23044	6290	7135	1675	-21044	3180	23220	4389	4849	6534	120	120	1
-6036	-6004	14636	-10724	14090	801	-18952	-220	-3280	1486	19625	5411	-18704	-2648	5720	-607	528	141	-32768	-14992	-15088	-8216	11853	-881	-11636	-7428	-20132	624	22029	-8166	-15912	4396	14572	51	-294	3703	118	131	1
-3516	-8892	13824	-12196	20084	3326	-20956	88	-3324	-1605	21814	5152	-19560	-264	7992	-709	-185	401	-32768	-14140	-11216	-9163	13483	-579	-26832	8616	32767	10606	18376	-12131	-6708	2876	-12668	-1075	12979	1167	121	129	1
-4608	-7092	14688	-13981	28597	7053	-24192	2864	-1592	-6917	23573	3784	-20936	1264	14600	-645	-1084	566	24972	-18812	-8928	-19122	32767	-15018	-27556	-1108	5708	-8622	15778	-4155	-30456	7516	3092	-617	6037	4893	116	136	1
-3800	-7260	13936	-17242	32767	9595	-31660	532	4368	-10189	25743	4114	-24488	4552	13520	-447	-1446	691	-32768	-21088	32767	-2985	32767	-6322	-25772	-16556	-7440	-14541	21523	-17734	-32768	-5880	13256	-31950	-5165	1686	113	128	1
-5980	-8504	13360	-21751	32767	14920	-32768	-244	7484	-12755	26783	4483	-24672	5640	14872	-1014	-1813	1051	-25964	25560	19464	-1222	26350	-9634	-29848	-4676	-7092	-1420	21032	-9688	-5568	-10784	-3832	-8842	12474	-12477	123	140	1
-19804	-17856	23124	-25014	32767	20156	-32768	-2920	1700	-17889	25363	5876	-24544	-4768	3536	-2015	-1425	966	-27076	9616	20572	-12646	11683	-6794	-11176	20040	-16588	-8289	21376	-4316	-12856	8112	-10068	14856	14415	300	139	127	1
-32768	-24324	27392	-24397	32767	24886	-24960	-5900	-11888	-18988	26375	6103	-14144	-10128	-8136	-2991	-1903	511	-12872	4760	17580	-8868	471	-5158	-15236	-7788	-14056	-8268	18689	-10991	-9880	17508	-17200	4436	2852	2766	136	131	1
-25648	-28260	21748	-24158	32767	25221	-25556	-1232	-14608	-12829	21268	4700	-28728	-10584	-11136	-920	-2425	-55	-8728	-900	16360	-4978	-1545	-2780	-15128	-3916	-8928	2421	12951	-6967	-13600	-5284	-6436	-4024	6990	6246	130	89	1
-7772	-17260	26620	-24901	32767	24544	-18480	-2536	-11524	-177	14824	9436	-32768	-3640	-3712	106	-2437	-583	-6992	5512	13440	-2011	-627	-1361	-19616	-7756	-3848	15433	9882	-3211	-14936	-1024	-8696	14429	8164	4854	171	99	1
-21860	-32768	22388	-11673	23969	20238	-13300	-3216	-10192	-1091	7937	6819	-32768	-3368	-4192	173	-2493	-609	-7496	4460	13544	-1212	-274	-1006	-18640	3724	-3852	14706	7682	-87	-22740	5468	-10688	15830	9740	1500	151	117	1
-7600	-22864	32767	8496	-14859	3244	-1808	-1644	-15888	2621	1763	3298	-24016	-3352	-4984	536	-2463	-786	-6596	3196	14160	-495	718	-940	-19336	8464	-4536	470	7360	-2631	-15656	1920	-1856	9397	8913	-225	175	119	1
1568	-11116	18096	19355	-27664	-1887	-7304	-2000	-3916	1743	-6507	229	-21848	-720	-9016	782	-1992	-723	-7272	4020	13772	-207	1245	-701	-17188	1692	-5264	-7633	7215	-4102	-14404	3320	-2060	7940	9837	-517	134	111	1
2476	-4468	9100	20305	-30532	-2000	-3408	292	-3828	2435	-13430	-1705	-19168	744	-9520	697	-1968	-735	-8160	4344	13604	-178	1022	-813	-15432	-780	-6396	-2049	5253	-3068	-15960	6788	-4536	5117	11755	-390	137	115	1
8	-2536	7696	14613	-32680	-2390	-2064	392	-4180	7070	-18049	-3358	-15856	1248	-8648	483	-2020	-596	-7868	4424	13372	-327	661	-995	-16616	-656	-5228	6379	3570	-1094	-15108	3508	-3652	4397	11841	1510	117	128	1
-2164	-5676	9264	10267	-32768	-3963	-2624	3048	-5520	7447	-23170	-4953	-13568	864	-9800	641	-1843	-487	-7520	4248	13548	-443	462	-1002	-16436	2004	-3276	9273	2616	-406	-16192	712	-2384	10367	11194	-158	117	106	1
-5524	-8580	11952	9787	-32768	-7577	-5196	3992	-4892	5426	-27629	-5326	-12136	1128	-9664	1152	-1852	-420	-7188	3608	13580	-156	618	-843	-15980	2864	-1332	7570	2310	-458	-17832	1876	-2896	13283	12082	-2188	100	123	1
-7492	-9236	11548	10682	-32768	-12503	-7160	5144	-4752	2702	-32428	-5773	-9144	432	-9064	1198	-1805	-196	-7132	3920	13512	-38	639	-694	-14664	4284	-1448	7083	4651	-1049	-7616	5688	-4180	12165	16231	1005	127	124	1
-7808	-8080	11168	10574	-32768	-16185	-9368	4140	-4364	0	-32768	-7910	-8160	-56	-9536	1293	-1435	-62	-7408	3872	13620	-148	712	-1001	-16864	4640	-4584	225	3988	-1531	-15192	5516	608	9388	17465	1067	118	125	1
-10596	-9088	14444	10080	-32768	-18153	-9396	1804	-6644	-776	-32768	-9159	-5296	320	-10696	1558	-1216	50	-7464	4076	13648	-267	651	-1224	-16996	2324	-3796	-1532	4784	-2998	-15084	4228	868	4192	21438	7573	119	129	1
-13352	-10856	17804	10136	-32768	-19534	-12852	-28	-7820	4377	-32768	-10417	-5344	-8	-11336	1784	-900	65	-7300	3932	13516	-515	584	-1547	-16268	616	-3024	2221	4352	-2173	-14652	2984	1360	5597	19779	3934	118	137	1
-15740	-12952	19892	10121	-32768	-21125	-15264	-60	-9544	10990	-32768	-9011	-5480	-1144	-13288	1895	-655	96	-6928	3796	13636	-557	641	-1946	-15696	3212	-1704	3477	5064	-2403	-15820	6932	-2248	5588	14032	444	118	141	1
-18164	-19000	24056	12575	-32768	-22656	-18848	1228	-11464	15655	-32768	-7717	-5568	224	-14872	1815	-156	82	-7716	3964	13504	-567	1125	-2218	-15800	3572	-3296	353	7222	-3236	-17576	7732	-2712	3484	10193	-1221	114	133	1
-25460	-29360	32652	18893	-32768	-25475	-29232	408	-14420	17282	-32768	-7246	-6504	1584	-8672	2037	87	34	-7804	3928	13616	-378	1773	-2303	-17936	2748	-4456	114	7293	-3900	-16096	6012	796	730	12156	-1385	133	132	1
-32768	-28728	29796	24904	-32768	-31406	-32768	2328	-19632	23709	-32768	-7287	-11480	-7552	-384	1943	-617	-319	-7576	3952	13396	-266	2642	-2836	-17124	2352	-2260	3305	7613	-4324	-17940	4596	2116	1999	13580	-1321	153	129	1
