#Activity	walking 
#ActivityID	1 
#Date 10-10-18-11
acc_rf_x	acc_rf_y	acc_rf_z	gyro_rf_x	gyro_rf_y	gyro_rf_z	acc_rs_x	acc_rs_y	acc_rs_z	gyro_rs_x	gyro_rs_y	gyro_rs_z	acc_rt_x	acc_rt_y	acc_rt_z	gyro_rt_x	gyro_rt_y	gyro_rt_z	acc_lf_x	acc_lf_y	acc_lf_z	gyro_lf_x	gyro_lf_y	gyro_lf_z	acc_ls_x	acc_ls_y	acc_ls_z	gyro_ls_x	gyro_ls_y	gyro_ls_z	acc_lt_x	acc_lt_y	acc_lt_z	gyro_lt_x	gyro_lt_y	gyro_lt_z	EMG_r	EMG_l	act
-10452	-4988	14160	2771	19316	10478	-19752	-232	-196	-6241	20308	4655	-20372	-1476	-836	-8230	-723	1820	-21316	-9472	-27608	-27513	30121	-15824	-10200	-2468	-8668	1438	22553	-9143	-21844	7600	20520	5033	-4810	-2266	131	112	1
-10524	-6784	14532	4398	25923	14422	-21304	-1512	-1044	-6059	21646	4738	-20640	-1612	312	-8646	-3084	3561	4964	23912	32767	-18499	24270	-5383	-32768	10248	25496	10585	15618	-6613	-7544	3908	-16100	19618	19823	-1675	131	88	1
-10964	-7220	17408	6448	32767	19660	-26964	-3828	1860	-6345	21991	4541	-26588	-7876	3924	-7255	-7313	4202	-13108	-18708	13924	-11099	32767	-15116	-16360	-7176	-9784	-22473	10758	-120	-16540	-2224	2892	-6443	8069	2474	135	64	1
-11324	-9820	17024	6363	32767	28465	-32768	1444	5732	-8048	21205	4475	-30688	-4904	18728	-3655	-22815	3211	-30164	-6516	26836	-4974	19315	-17709	-13204	-14256	-11844	-18935	18809	-16168	-26512	18836	-1732	-16798	6055	5628	130	21	1
-23688	-18380	14892	9758	32767	32767	-32768	-2316	16712	-25374	20590	5094	-26252	9780	13732	-3221	-18061	5611	-23844	32767	18836	-11074	13607	-10499	-32768	-5576	-15648	-9640	17501	-6709	-22424	-17592	-4276	-12277	12854	-4249	130	144	1
-32768	4084	20164	1478	32767	32767	-24412	-13100	-1868	-23164	24959	4710	-24376	-10520	2144	-10986	-20071	2209	-12212	-8068	22676	-11908	3823	-10556	-15704	-1160	-10340	-9259	14585	-2091	-15276	-2136	-11244	8788	13670	-1252	138	74	1
-32768	-23464	19592	-2871	32767	32767	-29848	-16536	-6860	-11330	22234	7586	-25232	-16008	-13364	134	-20139	-5345	-11320	6192	14896	-8623	829	-6524	-16312	-4548	-9096	-10007	15435	-5157	-11040	5988	-10160	2860	13616	1370	143	86	1
-5216	-24408	25984	4218	30475	32767	-22440	-5856	-9924	5868	14952	3348	-30204	-2144	-9448	9772	-22859	-7681	-11052	2460	15812	-5604	-415	-3773	-15916	-4924	-9504	2450	10421	-2858	-17344	3520	-7308	-1319	14483	-120	138	103	1
-32768	-18608	21784	4612	17109	12459	-21372	-2784	-30264	20557	8764	8077	-28332	2924	-9888	15458	-25275	-8160	-9132	4916	14164	-3791	751	-3039	-19788	-1552	-7412	8981	7307	-1465	-16404	-2584	-5380	3885	14169	-3294	127	104	1
-20828	-29000	21412	5182	-25230	-22200	-12588	7856	-10776	7581	3735	1526	-26520	3140	-7900	6916	-25664	-9232	-9644	3240	14460	-1507	1725	-2027	-18996	488	-4644	10971	5029	-1774	-17860	-400	-3736	8657	16022	-3882	123	103	1
1352	-13084	14408	9304	-30016	-20189	-10212	4408	-8016	-12416	-8767	-269	-21420	496	-10252	-2516	-24437	-8200	-7980	3656	13648	-224	2121	-2119	-17596	4956	-1980	6380	4906	-2127	-14904	2248	-2908	9868	16751	-3125	121	104	1
-156	-1780	9524	-1577	-28761	-19091	-7796	-4768	-9176	-12336	-16168	-3141	-19248	552	-11664	-4204	-22900	-7553	-9152	4296	13296	150	2386	-1470	-15832	6396	-1208	-715	4969	-1587	-15340	5360	-2080	7447	17419	-4057	119	109	1
-8048	-6004	9528	-10705	-30779	-21763	-1796	-6072	-10444	10239	-22301	-7797	-15560	3456	-12120	-2853	-20838	-5897	-9408	4032	13300	388	2283	-1597	-15548	4400	-1380	-7791	5189	-2378	-14416	6220	-952	285	17674	-4634	125	118	1
-10680	-10252	9444	-9603	-32768	-24315	-1408	-4864	-10420	12515	-22943	-8851	-10680	3228	-11880	-1391	-18374	-5501	-9532	4624	13092	213	2200	-1888	-16540	208	-1300	-2678	4580	-2511	-13220	3352	1592	-3649	17766	-3608	128	120	1
-8444	-6472	9272	-8077	-32768	-27156	-2444	5032	-9024	14369	-32768	-9694	-7328	3400	-12504	-2867	-15021	-6101	-9284	4252	13280	-10	1894	-2342	-15584	1004	-684	4839	4875	-1838	-13436	2672	2296	-2903	19745	-2676	130	116	1
-10148	-4712	9796	-11164	-32768	-30296	-6036	3664	-9944	6636	-32768	-9432	-5152	2636	-13212	-5341	-11106	-5524	-9820	3628	13048	203	1432	-2313	-15520	1188	-488	5392	5146	-1713	-16912	4664	-2976	3419	16307	-3919	132	123	1
-15756	-7052	11460	-12211	-32768	-32768	-7276	1000	-11980	7016	-32768	-8844	-3580	3492	-12928	-4007	-6617	-3826	-9732	3388	13024	-113	1402	-2316	-15808	4588	60	2653	7287	-2817	-18592	5836	-4736	22	13920	-1948	133	127	1
-23444	-9840	14540	-10292	-32768	-32768	-6964	1040	-12616	7522	-32768	-9115	-3620	3000	-12888	547	-3691	-3375	-9564	3384	13272	222	1427	-2440	-16624	2240	-872	-1332	7719	-3035	-16940	288	-2416	-4464	11284	-986	129	116	1
-32068	-6828	15236	-8798	-32768	-32768	-10248	-4	-12796	9946	-32768	-10811	-3052	3292	-13172	5236	-1021	-3070	-9320	3860	13548	1289	1907	-3394	-17940	996	-2320	-1327	8453	-3083	-15424	-724	-1544	-776	13016	-1274	126	131	1
-32768	-5916	14388	-7519	-32768	-32768	-17564	-2768	-12736	18406	-32768	-8978	-1264	2268	-8432	9028	541	-2876	-9616	4152	13960	1442	3351	-4073	-17772	572	-1916	2785	8464	-2247	-16996	-280	64	5378	12938	-1651	119	140	1
-32768	1704	9256	-6348	-32768	-32768	-25644	1296	-16280	21415	-32768	-2965	-4116	-1580	-6824	14793	-687	-5328	-11828	1952	13632	888	5743	-3245	-17920	-1156	1204	9038	9519	-3278	-18048	3116	1656	5190	12307	128	122	139	1
-32768	9984	6584	-5245	-27507	-32768	-28160	424	-23164	13879	-32768	-579	-20520	-7900	12920	23386	-21447	-10769	-9880	2788	14232	1095	8249	-3094	-16992	4616	3368	10199	11699	-5429	-18316	1872	3596	7155	9867	103	127	136	1
-32768	27088	-9996	-9535	-17401	-32768	-19740	3236	-12920	-4876	-32042	3147	-32768	-18660	17928	9562	-20610	-18567	-9980	3044	14664	1294	11897	-3036	-17384	7716	1428	3032	13993	-7344	-19980	6176	1256	8003	8527	-1488	8	136	1
-32768	12856	-31288	-7048	-20742	-7462	-7364	10080	-20032	-13192	-18567	-1343	-13680	-2208	20676	3708	15007	-1621	-10052	4636	14396	1615	16723	-3727	-19924	2716	-120	2603	15767	-8941	-20620	7828	1292	9858	6070	-1220	0	135	1
-32768	32767	-32768	-21162	-18976	11008	2164	-1820	-6724	-22216	698	-10035	-12988	7236	32184	-5133	10172	4508	-9376	4328	14600	927	22597	-5146	-20976	1040	1660	10233	16046	-9244	-20236	2828	2768	9277	4057	-426	56	138	1
-32768	32767	-32768	-23407	-17239	10078	-11608	-1252	-12096	-16501	18209	-436	-23636	9716	11028	-6637	10618	16093	-9260	5440	13988	-441	29567	-8394	-20940	940	1956	11175	16314	-9453	-22384	992	6532	13014	-1076	-1586	94	133	1
-9400	-32768	28164	26457	6228	17389	-23696	-5000	11020	-6149	18973	3439	17068	-1480	-32768	-22886	21252	8571	-12092	4140	15388	-1607	32767	-12141	-24504	3704	6432	13507	18468	-11181	-23756	5404	7484	14299	-4224	-1961	105	129	1
11024	10196	5944	29306	30866	15362	-32768	-16644	1916	32767	7529	-5330	-22140	-5600	-6020	-8766	15104	-3323	-12420	4148	15120	-1587	32767	-12434	-31252	1532	9772	12602	20566	-12080	-27396	5184	14336	12400	-12294	-2569	104	126	1
-32768	17276	32767	17559	31821	17676	-4116	18692	-6552	32767	16194	5028	-30140	-25672	1420	18635	5415	-6791	-19516	7240	17736	4204	32767	-23167	-32768	3680	5864	19499	20811	-10372	-26916	5384	15960	11786	-22740	-1797	84	116	1
-27680	-10276	18348	9505	14006	19502	-32768	14284	-16296	15478	21171	5597	-30088	27608	-2232	30235	13914	3093	-32768	19100	26808	13247	32767	-26509	-32716	17304	2980	29051	22167	-10779	-26916	9024	-492	7928	-19017	-1103	74	107	1
-9920	15772	28260	16159	775	15569	-18696	-1292	-7912	-5169	16024	-6052	-20796	14184	-11552	-12620	11637	6566	-32768	13908	32767	20553	32767	-29378	-26984	17212	-8088	13840	22738	-13838	-26532	17068	-11472	2469	-21006	6621	160	96	1
-12680	-17052	7788	5296	1777	4349	-16592	-2740	-7300	-2467	19278	388	-2244	-12768	-10200	-8743	6829	7995	-2688	27060	28260	24369	27250	-28121	-27784	-2824	-13324	-7410	21470	-13848	-31244	2596	-12360	-11768	-24183	6835	125	101	1
-10628	-1420	13028	3755	880	3748	-10988	-9176	-10140	1100	14483	2306	-11512	-4332	-10932	4394	10009	-345	-32768	32767	32767	12445	3542	-14030	-19624	-11612	-24600	-17782	14342	-9072	-29696	-4492	-9204	-22286	-29414	5951	147	96	1
-12188	-5516	10684	-400	1178	1018	-14924	-5360	-96	915	5428	1353	-12116	-4196	-2900	6784	17939	5604	-9484	6936	14636	-565	-32768	25588	-4228	-5860	-6964	-11525	-26568	22216	-8872	-2780	-10872	2200	-16480	4286	136	140	1
-11480	-5348	10900	365	482	2263	-15716	-2304	-1508	-218	5649	1304	-14392	-2120	-1380	7922	18947	4200	-10284	3100	14768	4475	-32768	29208	-7012	-5648	-7568	-8098	-31562	23976	-6172	-2432	-11836	5131	-11940	3399	135	143	1
-9220	-3552	10924	574	122	3022	-15084	-388	-1428	-3997	5014	840	-14788	-2736	-1776	2036	19097	3922	-14980	2680	18364	6410	-32768	30656	-7616	-5436	-8580	-11426	-32768	24819	-4952	-592	-12072	3743	-6389	2588	146	147	1
-10700	-2852	10804	686	-227	2676	-15368	-776	296	-5109	6416	681	-17216	-1380	-5444	2967	14784	4527	-23256	3200	23448	6820	-32768	30785	-9812	-8096	-11192	-18549	-32768	24654	-5324	-2748	-11708	-2870	-3146	2540	140	150	1
-11232	-3816	11280	1054	-200	3079	-14200	-3988	-4	-1305	7785	1086	-17216	-1280	-1724	6751	11687	4727	-32768	3684	25264	6329	-32768	31503	-15672	-8248	-11364	-14751	-32768	21176	-5784	-2676	-12072	-3721	-2956	2679	134	154	1
-11764	-3560	12088	225	711	2597	-16652	-3472	-2296	4369	9287	1554	-16436	2044	-580	241	13615	1529	-32768	7756	21756	3039	-32768	31617	-16828	-6300	-13576	-7260	-32768	19866	-3672	1288	-13320	-7069	-154	4974	125	181	1
-10432	-3808	11840	-170	1868	3391	-18936	544	-784	-828	9465	1742	-16304	3868	-1696	-3808	14353	1043	-32768	4912	16144	-2256	-32768	32495	-20616	-6844	-13584	-10962	-32768	16930	-5004	3208	-7224	-14399	50	6380	119	179	1
-10600	-3680	11820	-756	3308	4150	-15616	16	2772	-10324	9469	1356	-17876	-2436	760	-5934	12585	90	-32768	-3296	7620	-26	-32768	30651	-29240	-11492	-16684	-6404	-32768	15048	-14868	124	264	-16919	-8053	9465	125	161	1
-10056	-2636	13164	269	4538	4517	-13440	-2596	4016	-13487	11960	2698	-19588	-3328	1232	-6197	8384	-1071	-32768	-6568	-8204	7193	-32768	21456	-18820	-4984	-16756	-2967	-32768	14414	-27840	-776	15244	-20768	-9565	6590	131	247	1
-11684	-3328	13448	459	7713	4640	-17972	-4424	1032	-7774	15685	4242	-19136	-2948	-108	-7990	6440	1128	-32768	-14024	-23100	9490	-22247	13789	-13804	116	-16760	-5175	-17985	12176	-17608	1856	32767	-7228	10396	3465	126	253	1
-11132	-3288	14248	771	11783	5384	-20544	-1744	-164	-2680	17809	4834	-19648	-2988	-2528	-7290	4203	2268	-32768	-13884	-24664	8383	-18460	12847	-11004	-5748	-8208	-385	-3551	3727	-17636	-9748	26584	-52	4768	-7197	127	238	1
-10412	-3720	16016	1558	16400	6801	-19304	448	-1264	-3705	18491	5655	-19816	-2300	-3600	-6940	1686	2655	-32768	-18800	-32768	451	10296	-1508	-1412	-1776	-10288	3314	15680	-6021	-20824	88	12728	4838	474	-5163	130	133	1
-9692	-4560	15088	2473	22232	9209	-21152	1172	-2920	-4484	19805	6348	-20084	-116	-2240	-7068	-639	4100	-28772	18220	30812	-10897	18534	-11033	-23096	7892	10388	9085	22872	-3702	-5348	3144	5152	16299	3194	-2079	141	79	1
-10912	-5088	15748	4204	31934	13219	-23416	-1104	-1164	-6005	19947	6382	-21852	-3704	-724	-8065	-2064	5299	6568	-15128	-3148	-8484	28507	-14406	-32768	13156	16428	-7962	6974	5155	-15668	-9360	-15504	23428	19935	-2941	143	61	1
-11176	-7604	16280	5892	32767	21055	-28900	-532	3092	-6178	19370	6732	-28056	-2428	7076	-8277	-9541	5113	-32768	-5164	32767	-7718	32430	-14079	-32768	7412	7396	-14277	6599	4994	-26712	10528	10604	-12612	6815	12339	136	13	1
-15344	-9460	13596	3457	32767	26653	-32768	4344	8876	-17178	18577	5917	-28044	3932	15408	-7615	-22362	5491	-28072	22268	27588	-8778	17238	-12971	-30948	-7948	-15084	-15721	21990	-11167	-22596	-1984	-1692	-12267	8441	3652	136	163	1
-31748	-19532	13684	10407	32767	32767	-27904	-5588	10896	-32768	18278	6243	-25172	1692	10368	-10689	-19027	5575	-8676	-5628	22304	-14740	4076	-12449	-24504	-2592	-5048	-410	11773	683	-18744	-10820	-14380	5811	11468	-3420	136	118	1
-32768	-11128	15084	-242	32767	32767	-23720	-23644	-12	-23132	24227	7068	-23896	-16692	-3752	-11672	-18031	-964	-13000	13164	11812	-7495	1754	-5509	-13224	516	-8884	-4854	19280	-5693	-7708	9212	-9048	4072	9400	-4055	137	71	1
-32768	-24852	17068	2162	32389	32767	-27712	-8392	-9576	1531	20733	4582	-26444	-8276	-9040	5309	-20345	-7034	-10492	756	16520	-4484	-237	-3877	-12980	-48	-12476	-4250	13730	-5561	-13704	10576	-10180	-8240	12114	1893	136	61	1
11784	-29204	15508	10309	28582	32767	-22196	-3920	-9380	12148	15766	3630	-31004	3068	-9960	10837	-20483	-7134	-8912	5688	13816	-4128	8	-3479	-15188	1428	-9536	-6683	11913	-1834	-17952	-1448	-7796	-8498	12722	-94	130	66	1
-32768	-10792	14640	4565	32767	28170	-17032	1516	-21272	22536	7606	5126	-24052	4992	-11384	10152	-21708	-8589	-11628	3720	14152	-2045	1096	-3154	-25268	-5420	-7240	-1004	8265	-2603	-17756	-4232	-4724	915	12610	-1819	119	77	1
-23752	-21940	15772	-756	9356	-7371	-12320	7560	-20604	4048	2531	1085	-23700	4216	-6800	4789	-24432	-9208	-10364	3132	13988	-1854	1253	-2758	-16824	-1864	-4068	6511	5440	-2233	-18028	-2976	-2720	6991	13530	-2071	122	94	1
-16808	-19960	14536	7825	-10615	-23072	-9288	4556	-10436	-13347	-4101	-3345	-19868	3148	-9948	-1984	-22175	-8920	-9572	3316	13816	98	2033	-1616	-16116	-2012	-4064	6828	5454	-2025	-16212	156	-2344	11382	14266	-2220	123	102	1
-10836	-9340	10640	9823	-23314	-27783	-7376	-2740	-11036	-13610	-10271	-6762	-18544	2216	-10844	-2845	-19127	-10471	-9640	3956	13704	732	2461	-1099	-16960	4368	-4108	-2428	6508	-647	-15004	2656	-2632	11051	14998	-4182	117	113	1
-10804	-2144	8920	-637	-32768	-31564	-4656	-5324	-9736	2490	-16204	-7510	-17004	2664	-10068	-2510	-18492	-9773	-9600	4184	13080	927	2401	-974	-16436	648	-4384	-1614	4591	-1527	-14328	3912	-2800	9467	16082	-2946	123	109	1
-9124	-3364	6712	-11933	-32768	-32768	-2488	-1884	-11828	13115	-20917	-10079	-13752	1164	-10540	-3238	-17552	-10529	-9536	5056	12768	416	2205	-1166	-15824	664	-3320	6963	3126	-929	-14448	3920	-2096	8024	16848	-2435	118	112	1
-10844	-8100	5896	-12735	-32768	-32768	-4592	1764	-9680	17531	-26872	-10916	-10620	1468	-10828	-2211	-15898	-8323	-9400	4644	12872	450	1585	-1713	-16068	2664	-2412	10197	4048	-845	-14260	3872	-640	4419	16465	-2701	123	106	1
-13796	-10132	6372	-5039	-32768	-32768	-4848	2248	-10708	18390	-31370	-13251	-8212	1208	-11360	-917	-12669	-6545	-9480	4860	12628	1392	604	-2836	-16016	4920	-1392	7771	4887	-761	-14852	6416	-1016	431	16423	-3519	129	112	1
-15084	-3496	7200	-1684	-32768	-32768	-4856	2552	-10712	16620	-32768	-13815	-6164	1112	-12472	956	-10103	-5674	-9436	4028	13132	-234	715	-3231	-15356	4612	-1940	607	5452	-1276	-16036	8664	-3056	-968	14806	-2745	136	117	1
-15824	-152	8616	-6947	-32768	-32768	-8832	3456	-9192	16892	-32768	-10315	-4152	1940	-12892	3203	-6336	-4633	-9640	3232	13288	-1011	917	-2877	-16220	56	-2140	-2133	5856	-2560	-16020	5464	-5216	-5394	14831	-1083	139	122	1
-20952	-4884	13020	-8821	-32768	-32768	-10004	3964	-13164	14013	-32768	-8191	-3908	3580	-12308	5234	-4045	-3622	-9752	2556	13468	-864	1394	-2221	-16928	-1940	-3136	-2268	6081	-2953	-15448	-568	-4472	-7425	13689	-2866	134	127	1
-30888	-6484	17568	-6107	-32768	-32768	-12552	3640	-14740	8016	-32768	-7470	-4128	3664	-12476	5532	-3597	-3250	-9728	2700	13608	-206	2324	-1508	-16680	-2064	-4492	-2814	6143	-2317	-14984	-3668	-3868	-3740	13851	-3884	126	133	1
-32768	-5632	16392	-2973	-32768	-32768	-19028	1192	-11616	989	-32768	-7545	-3692	740	-5724	10699	748	-3683	-9948	2932	13404	595	3695	-1221	-17896	-1320	-2760	797	6619	-1644	-16920	-3216	-1648	-693	14328	-3968	122	133	1
-32768	-176	9044	-1873	-32768	-32768	-25308	-2744	-12520	1099	-32768	-7230	-4316	-1344	-3608	11655	518	-7586	-9984	3964	13284	713	5092	-1378	-18060	2768	1292	5714	7255	-1904	-19020	808	1508	-961	12542	-650	126	134	1
-32768	8744	2156	-2834	-32768	-29990	-21876	-3272	-13864	17239	-32768	-5641	-20276	-5124	14052	18170	-15148	-11967	-9804	4260	13368	488	5328	-1427	-16032	6228	4616	5681	9419	-3085	-19564	2104	6764	4377	9757	1332	131	135	1
-32768	26944	-10112	-8182	-24107	-25775	-23572	4376	-7988	14986	-28833	923	-32768	-8564	18580	15814	-18918	-18008	-10048	4068	14080	835	9520	-2777	-16896	4588	3664	5240	12725	-5606	-19892	2236	7000	5630	9349	1331	17	132	1
-32768	18848	-25912	-7130	-20538	-8549	-7692	13920	-19348	3525	-15947	689	-13248	3300	23456	5313	8570	-2999	-10032	4320	14076	980	13347	-3753	-19280	3500	1844	6623	14766	-6760	-20892	6704	2036	12273	5709	-426	0	133	1
-32768	32767	-29852	-12719	-14703	7327	-968	7424	-3912	-25050	-1267	-6564	-17720	10880	28984	-4478	5764	5538	-9396	4300	14640	630	18388	-4875	-20176	3132	1156	8866	15991	-7783	-19968	4080	408	10107	3104	704	55	132	1
-32768	3152	-30088	19430	7993	28714	-12328	-5260	-2428	-32768	14890	-2902	-23936	11260	12608	-12299	4819	10678	-9584	4776	14476	-284	24608	-6971	-20584	2820	4	8751	17061	-8993	-21192	4516	1520	11265	-1629	297	114	134	1
340	-22260	32767	23299	11300	26206	-32768	-11188	23220	-13702	14582	6098	-25596	-1104	9396	-22593	4383	3880	-11396	5340	14492	-847	32594	-9882	-24308	2508	1064	8047	17596	-9623	-23652	8444	3332	10820	-3778	-891	99	131	1
-2304	3432	7448	17093	22378	18561	-26976	-5832	-1964	32695	14786	-3262	-12832	-2780	2512	-17499	8122	-327	-12928	7980	15692	-1135	32767	-13568	-30708	2220	4876	9172	18989	-10064	-27416	7208	8364	9078	-9409	-1197	93	126	1
-32768	11964	26072	7237	17763	15912	-12660	15688	-9508	32767	20792	5736	-30068	-16320	5092	13739	9250	-3694	-16092	8616	17052	-510	32767	-21008	-32768	1860	7136	14525	18430	-9342	-31320	5908	20952	7993	-26728	329	111	120	1
-32768	5624	18924	6303	16407	15211	-32768	4100	-13664	-643	22559	-68	-22828	10248	-18048	14130	11714	1607	-29040	9180	20724	7392	32767	-22905	-32768	8236	10008	23442	18844	-8371	-25464	-3932	10360	1073	-21975	-1385	130	111	1
-14712	5340	13420	5847	3981	5708	-13604	-1480	-18900	7621	18511	1155	-11144	13300	-13100	-6673	8742	4175	-32768	18992	29484	16460	32767	-28158	-24216	12180	-4556	20702	20798	-8560	-22220	6428	-2380	8411	-22140	1950	166	110	1
-13560	-5172	11208	6743	734	4171	-12028	-660	-10428	2452	15217	-174	-4356	-4836	-13384	-12612	10306	6389	-32768	14404	32088	22148	32767	-29417	-24140	9356	-7792	10606	20206	-10310	-25208	9564	-11924	7747	-21613	6491	142	111	1
-9848	-6148	11044	3325	1112	1584	-14320	-1168	-7452	-2299	10212	323	-14804	-14908	-10816	3564	12798	4803	-32768	17756	31732	22915	32767	-28627	-22176	-7036	-12856	-2144	16105	-7019	-28848	1560	-9808	-6366	-22216	7445	154	100	1
-10404	-2600	12268	1478	420	2375	-16372	-2252	-4228	-5169	10086	1879	-18172	2688	-6000	12146	13225	1294	224	27276	9700	29719	20249	-26733	-12904	-11204	-25172	-10342	8731	-5754	-25324	-3640	-7316	-15368	-28435	5997	157	95	1
-10480	-3136	12396	-181	212	2122	-20680	1328	-3768	-10835	5818	-1747	-19464	8388	-1556	1931	11497	4304	16	28516	17376	-15267	-20768	8350	-11112	-5096	-3284	15756	-697	-1425	-22864	-2292	-3584	-6184	-26166	6578	157	160	1
-10768	-3720	12048	-1792	818	786	-18660	-3544	-2032	-9785	5528	1350	-15568	3976	-1808	-8507	13619	5044	5244	3052	12768	-12046	-20744	8149	-11296	1452	-5120	20312	-6554	6625	-17680	528	-7420	2492	-22080	9191	151	146	1
-10548	-3784	11768	-1750	1225	145	-14540	-3960	-1304	-3317	5488	161	-14692	-1440	-2236	-11248	15415	5917	1588	1648	12356	7206	-20253	13909	-2388	4888	-5168	909	-10883	10716	-19424	772	-8688	2409	-20297	8952	149	163	1
-10576	-4516	11132	-1522	1525	-132	-14184	-6036	-672	2895	6109	2298	-14380	-3196	-1156	-7700	15966	5022	-6444	14232	13440	9734	-24647	17095	-4176	-668	-8108	-15105	-13856	14203	-16508	-268	-8960	591	-19443	5525	157	136	1
-10900	-5344	10636	-1053	794	577	-16564	-1816	-1056	-1275	4713	1980	-14260	-3640	92	-4070	19218	3759	-10064	14744	14164	-338	-32768	18808	-6328	-4752	-7812	-17119	-19443	17680	-13592	-912	-8820	-348	-18122	5408	148	125	1
-11636	-4512	10452	-295	-130	1454	-13436	-420	-156	-10813	4276	682	-12628	-3932	-328	-1662	20392	3254	-9708	6152	13596	-53	-32768	23459	-8116	-6836	-6596	-10953	-24797	21703	-10732	-1400	-9184	-360	-14942	5400	135	126	1
-10300	-5312	10636	277	-987	2170	-14548	-3216	-20	-14356	4726	1691	-16612	-5940	-4916	-2465	13561	2628	-9676	3040	13644	5546	-32768	27873	-8440	-6332	-6148	-7859	-29374	21818	-7588	-1200	-9200	-1341	-11221	3405	137	139	1
-10020	-5000	10296	1546	-2139	3179	-14468	-7576	-72	-6339	5813	1650	-16944	-7312	-5208	1341	12227	5097	-14336	2648	16736	7042	-32768	28813	-8900	-6200	-7212	-10124	-32768	22195	-5664	-1148	-8904	-4771	-7353	1223	139	138	1
-9448	-2980	11240	2114	-2191	3281	-14872	-5512	-2128	8190	7435	1848	-15260	-4964	-3936	7828	13471	6046	-20116	1528	20704	7068	-32768	28983	-10536	-6092	-9128	-11876	-32768	22343	-5324	-1256	-9812	-6227	-4251	1181	139	145	1
-12008	-2192	11732	1475	-1087	2279	-17180	1332	-3472	11379	8504	2916	-15744	896	-3852	7338	15354	6261	-27332	4884	23204	6885	-32768	27993	-15396	-5824	-11540	-12818	-32768	21439	-5512	-1372	-11472	-3714	-956	2827	128	157	1
-9300	-3016	11960	630	-237	2053	-17600	3748	-2224	978	8020	2680	-14224	5440	-3180	4266	15221	4927	-32768	8800	24472	3432	-32768	28563	-18908	-5428	-12240	-10593	-32768	20571	-5712	-2512	-8964	-3180	2404	4229	123	153	1
-9968	-3340	11648	-215	847	1826	-15984	-352	24	-6229	7910	1844	-16788	2860	-1332	1947	13504	5237	-32768	6848	19312	-676	-32768	29848	-22300	-4840	-10832	-9145	-32768	18868	-6856	536	-4200	-4577	469	5729	120	151	1
-10036	-3840	11832	-441	1852	2467	-15808	-4336	1640	-5233	9085	2444	-18692	-2700	1076	-195	12193	3764	-32768	-740	11004	-1286	-32768	25870	-24820	-7752	-12724	-10777	-32768	16545	-10644	284	-2204	-11259	-1795	7861	121	145	1
-10420	-4296	12552	-321	3188	2860	-16236	-4344	4232	-556	11234	3221	-19528	-284	2292	393	10638	633	-32768	-10572	672	4792	-32768	18194	-23152	-5328	-15128	-10658	-32768	13901	-23728	-1712	13972	-16708	-7609	5671	125	217	1
-10872	-4940	12432	-427	5179	4054	-16332	-2028	2220	-1211	14229	3730	-18316	-344	2156	-6132	8348	577	-32768	-21832	-12368	10380	-26515	9067	-19536	-4208	-10504	440	-20418	11634	-24044	4836	32767	-9761	157	9376	124	253	1
-10604	-4348	13440	969	8245	5313	-18248	744	672	-6357	16738	4599	-19940	-3800	-2108	-8137	6815	1176	-32768	-27388	-26668	7447	-17394	-3646	-8552	-5892	-7000	12211	-9570	5761	-19960	-6452	31900	3204	7861	-1849	128	252	1
-12040	-5692	13828	2342	11156	7919	-19520	-3880	-488	-9483	16330	4646	-19164	-3568	-4160	-7712	2206	2041	-32768	-26756	-31624	2810	-3251	-14704	-1704	-796	-5632	14212	11023	-3272	-22756	-4284	17260	11981	-2760	-6941	127	169	1
-10576	-4424	15548	3229	15589	10515	-19768	-2948	-4328	-1810	17730	4971	-18240	-1896	-4744	-6884	476	2672	14120	13324	16116	-19276	19039	-22390	-15004	3132	-2180	18974	22983	-10529	-16904	1528	9588	10461	-2224	-4894	130	124	1
-10332	-4696	14896	4897	20781	13115	-22056	1380	-5292	-2299	18715	6268	-20572	-2520	-4832	-6204	-706	4313	3276	27128	10452	-4894	19902	-13041	-32768	9872	22328	18061	11526	-3849	-11668	-700	-272	23644	7744	-6401	127	112	1
-10616	-5936	16500	8355	30184	18039	-24956	-2160	-376	-4725	18586	6141	-24192	-5576	-1268	-3059	-3406	4995	-24736	3200	12412	-7618	32767	-11167	-7056	-2624	-7208	-10516	12953	-1672	-10784	-12700	-2096	13598	7407	-975	135	85	1
-10592	-4492	16992	8600	32767	26038	-29064	328	2284	-1861	18701	6358	-28668	-3848	14108	-2136	-16646	5322	-29936	-9444	27000	-5641	20951	-12547	-21224	-6300	-9704	-9178	20079	-15372	-29736	19140	2196	-4880	7537	9606	137	38	1
-14372	-10648	16560	5474	32767	29803	-32768	2620	17364	-16085	18705	7670	-25260	3744	12260	-3946	-16077	6671	-30272	19964	8488	-10296	5490	-8803	-31188	-5932	-19348	-4953	17929	-8345	-17548	-8136	-7868	3570	7991	-515	132	108	1
-29600	-2880	18028	13665	32767	32767	-26632	-5448	8428	-28381	18146	8201	-25912	-3168	11236	-6852	-17805	6241	-17004	-7316	20724	-9931	1532	-8693	-12364	-3864	-12048	-419	17960	-3889	-12016	-5292	-15872	12408	14004	0	139	76	1
-32768	-16312	13636	5254	32767	32767	-23348	-19100	-5620	-21053	23607	11418	-21660	-17964	-3468	-2713	-18096	-1162	-10364	7252	14232	-6800	-1015	-5292	-14936	456	-8624	-2940	14179	-4017	-12404	14748	-11476	5212	12700	-2128	140	66	1
-32768	-22868	15516	8387	29488	32767	-27608	-8196	-7772	-4455	19252	6323	-26104	-5268	-8704	11602	-20247	-5659	-9312	5100	13416	-3734	-1332	-2784	-15832	636	-9324	-402	11343	-5643	-15812	10064	-8600	-6737	13940	-953	142	58	1
17576	-32768	16628	18486	27764	32767	-20652	-10260	-8756	14164	13350	4847	-29520	2752	-8480	13586	-20893	-5107	-9944	4216	14340	-2534	-638	-2771	-20000	1644	-7604	-719	7687	-3964	-17984	-1872	-4232	-5429	14161	-3851	129	72	1
-32768	-12820	19260	4555	15425	7574	-14820	-3480	-31252	30323	10455	4322	-23660	3280	-8580	10551	-22184	-7518	-9088	3552	14444	-1791	442	-2479	-18012	-3064	-3432	86	5901	-3713	-17952	-4824	-868	977	13677	-4151	128	90	1
-21796	-27328	15916	4130	-11265	-22014	-13184	12060	-13176	7097	5095	970	-23372	3608	-7292	4311	-23352	-8606	-8932	3880	13920	-615	1214	-1909	-16984	-1000	-3684	2649	5762	-2981	-16340	-188	-1444	7245	14150	-3878	122	100	1
-9264	-17236	12648	13028	-21037	-23441	-10992	-72	-6752	-11961	-4929	-1861	-20084	448	-8948	-2059	-21470	-8538	-9792	4300	13744	-161	1872	-1514	-17448	3088	-4780	1926	5602	-2060	-16576	2720	-2224	9334	14758	-4602	125	122	1
-5048	-3856	9520	6595	-26025	-23826	-8344	-5408	-9340	-8611	-11859	-5638	-19908	-696	-10524	-3543	-21723	-10528	-9612	4240	13456	115	1830	-1323	-16968	3752	-4788	-3302	4841	-1889	-13992	4496	-4056	8311	16177	-5081	120	131	1
-8844	-2576	9072	-7766	-28181	-27981	-5072	-7268	-12080	8296	-17104	-7170	-17164	148	-10212	-2229	-19449	-9626	-9580	4260	13392	399	1816	-1243	-16060	476	-3488	-1340	4648	-2923	-14680	3184	-3364	5136	16693	-3346	116	129	1
-11216	-10984	8312	-12096	-32768	-32768	-3416	-1040	-12540	21814	-21634	-9574	-13716	1124	-11204	-1038	-18194	-10685	-11928	5580	13404	436	1427	-1643	-15796	180	-3404	-234	4495	-2900	-14484	2764	-1660	3631	17306	-3775	124	127	1
-8224	-13172	6336	-4122	-32768	-32768	-5732	3140	-8128	19780	-28195	-8990	-12440	1392	-11844	-45	-17761	-9789	-9568	3960	13304	421	1248	-1323	-16312	2732	-1168	8778	5291	-2129	-14532	3940	1184	2289	17160	-4751	126	116	1
-10196	-7364	7212	-217	-32768	-32768	-6212	1820	-9904	14742	-32768	-9854	-8040	2080	-13048	-921	-14486	-7284	-9504	4184	12952	270	1168	-1532	-16300	5680	184	4658	5454	-2420	-15572	5824	352	-1083	16690	-5388	129	119	1
-15452	-5868	9212	-3039	-32768	-32768	-6716	-4	-11876	14285	-32768	-8639	-4764	1456	-13132	-817	-10401	-6684	-9440	4108	13040	476	756	-1978	-14692	4148	-1008	-2900	6570	-3657	-16516	6876	-2408	-2902	14613	-3821	138	133	1
-17996	-7704	10920	-4107	-32768	-32768	-6048	1160	-12364	15824	-32768	-8282	-3632	3580	-12640	1761	-6131	-6138	-9380	4432	12992	293	497	-2370	-15164	776	-2148	-3787	7243	-3920	-15708	2368	-3268	-5649	13341	-1261	135	142	1
-24212	-9108	14240	-4793	-32768	-32768	-9116	-208	-15964	15801	-32768	-8961	-3444	3580	-14000	4251	-3064	-3967	-9032	3548	13296	-308	985	-2603	-16216	-880	-3160	-1332	7600	-3219	-15348	1116	-3460	-6296	12911	-1231	127	140	1
-32768	-11764	16408	-4721	-32768	-32768	-14424	-1672	-13132	14838	-32768	-9239	-3716	3496	-11676	9119	522	-3324	-9368	3744	13876	-337	1739	-2549	-17372	-1212	-5160	1772	7944	-3005	-16352	-64	-3000	852	13159	-3818	120	140	1
-32768	-1236	14432	-6702	-32768	-32768	-24940	1160	-15640	16530	-32768	-6859	-4084	1268	-4100	13318	-242	-4756	-9532	3440	13808	233	3965	-2328	-20124	-604	-3288	4330	7831	-3073	-17952	-1008	-1596	1837	12450	-2386	117	139	1
-32768	1460	12752	-7895	-32768	-32768	-25396	4964	-19720	7453	-32768	-3897	-7024	-1724	-1044	16185	-2657	-7859	-9732	3500	14004	419	6234	-2520	-18064	3868	2024	5446	8300	-3974	-17876	-436	3240	1858	11365	52	128	134	1
-32768	29368	1592	-21338	-25931	-28643	-23224	2448	-16856	-14672	-32768	-4505	-32768	-10892	19268	18558	-29910	-14952	-9804	3820	14556	765	9465	-3178	-17412	4432	2980	2523	11622	-6283	-21184	1644	5896	7035	10823	277	106	134	1
-32768	23336	-17992	-17322	-22836	-19580	-13592	260	-17004	-32768	-24695	-431	-28872	-2080	15968	-5334	-3305	-14857	-9920	4940	14732	1644	14206	-4471	-21604	3268	2684	5199	13470	-7380	-23140	10696	3000	10690	9113	-1464	3	128	1
-32768	26496	-32768	-2318	-22412	16055	-28	-700	-9784	-23821	-9062	-4666	-6224	-492	27540	-12810	20029	-3960	-9356	6348	15664	1015	19547	-6292	-20888	4240	3140	8575	15353	-8236	-22364	6580	3240	9556	5299	-1663	42	126	1
-10936	23780	-14124	-15664	-10689	9124	1204	-2024	-11924	5201	13934	-5742	-17788	6192	20592	-15946	7815	9701	-8732	5828	15136	-254	27157	-9295	-21508	3068	2376	7897	17387	-9707	-23340	-1128	4676	7877	-336	-633	124	136	1
-3884	-1840	20552	30444	7708	28473	-25880	12356	1792	3060	16036	-1369	-21256	6592	-2968	-9350	8512	16772	-9760	5968	16544	-2339	32767	-12402	-24848	440	4040	7652	18773	-11169	-25344	2336	6976	12856	-3212	-326	123	132	1
-2132	7252	20064	16483	30501	-2326	-32768	-12380	19244	-96	7328	3803	-5852	484	-19632	-15235	16837	4684	-12056	7736	18612	-4291	32767	-16867	-32592	1344	9132	10869	19749	-10847	-30552	7416	11804	12665	-10127	-1613	117	130	1
-32768	18648	32767	11281	23479	29147	-14272	-5692	-1304	32767	14695	1514	-28812	-7708	9540	5798	3059	-5472	-18236	8972	18124	-966	32767	-25115	-32768	2828	8636	19764	19548	-9905	-32504	4896	19684	9132	-28915	-2730	118	129	1
-32768	-32164	760	14678	4086	22216	-19728	2188	-13216	24116	24949	7529	-31896	-11984	9520	7401	5673	-5908	-32768	12904	21024	9641	32767	-26381	-32768	15080	6616	32767	19724	-9178	-25088	4104	9444	7283	-20919	-3353	88	109	1
-15600	20972	23436	19032	5333	17441	-32116	-1264	-15548	24919	15663	999	-13292	9912	-16452	7126	12031	2903	-32768	19128	32767	15229	32767	-32768	-26772	21652	-7908	22808	18172	-11920	-27408	18188	-9040	7947	-22919	3596	155	98	1
-15060	-13452	11288	12818	760	9821	-12136	10796	-12592	18491	16279	622	-5808	13540	-13664	2600	15478	4452	-24628	20316	31552	24560	32767	-32768	-26144	5428	-12648	0	19444	-13805	-26376	11416	-15352	-4380	-22768	6591	98	90	1
-12004	-104	14088	5972	-1166	3619	-11020	3824	-12820	-6410	12458	-906	-13324	-7960	-12484	-1391	12376	8226	-32768	21244	32767	18948	18293	-27767	-23656	-8100	-19192	-10108	14607	-7665	-27676	768	-9520	-22534	-27619	5976	120	91	1
-10012	-960	13480	3493	-840	2332	-17000	-2096	-7748	-14690	7764	-428	-17160	4356	-8016	5724	16454	1489	-20440	32767	26340	-9168	-22793	2607	-12956	-11064	-11428	-2940	7713	-10785	-27440	-3060	-5212	-21018	-32768	5246	139	120	1
-10520	-3032	12592	400	355	1011	-26148	-4388	-3904	-10382	3664	359	-17312	7660	-4480	-4081	18678	5452	7820	18612	12516	-31461	-26756	1341	-13124	-3328	-3648	20159	-3637	-2721	-24420	-752	-6204	-4739	-28185	8880	151	142	1
-10028	-3200	12076	-1136	680	42	-16596	-3988	-1528	-3608	3315	-1122	-16032	520	-5468	-6193	19244	4705	8708	-2676	10692	-10460	-21286	10434	-7584	3052	-6040	7930	-11592	4758	-20536	3176	-8204	668	-22957	10032	158	150	1
-10056	-4224	11332	-962	580	-105	-13136	-4136	-108	276	4700	1282	-13944	-5972	-2504	-3932	19495	4822	3640	8336	10496	10599	-18263	22850	-1944	-388	-5508	-10416	-14665	6723	-18828	848	-10808	-4248	-22500	7915	156	152	1
-10316	-4680	10840	-310	-209	-4	-13008	-4404	68	571	4639	1507	-12856	-7504	-12	4469	20697	2634	-4712	18968	11620	4575	-20200	25883	-3472	-4160	-7508	-17957	-20777	11032	-15752	-1812	-10728	-6883	-22028	5370	154	148	1
-10060	-4684	10820	-144	-381	437	-16380	-3904	-8	-1788	4655	858	-11656	-4752	-332	6634	20636	2557	-9860	12796	13764	-6957	-28534	27217	-2344	-5504	-9488	-14697	-26815	15514	-9680	-2720	-10900	-4591	-17936	4635	152	141	1
-9760	-4672	11164	-382	260	1237	-16148	-1680	3336	-7878	4422	950	-16628	-4336	-1896	-194	17621	3393	-10072	4932	13372	-5405	-32768	29682	-4412	-4176	-8024	-11176	-30521	19348	-8108	-2204	-11240	-1051	-13620	3065	137	153	1
-10140	-4372	11116	5	-81	1684	-13544	-3632	4604	-10931	5726	2301	-17812	-4000	-1440	-807	16799	3719	-12292	4372	14080	421	-32768	30812	-5696	-4020	-8164	-12943	-32768	20537	-6808	-1476	-12088	-1465	-9291	1291	145	161	1
-10832	-5012	11060	705	-262	2125	-15020	-6792	6812	-1680	8774	1299	-19976	-1028	2332	4094	10455	2081	-17956	6836	16928	3661	-32768	31638	-6304	-4740	-11940	-20333	-32768	22172	-5360	-2756	-12840	-4531	-5007	491	133	148	1
-10768	-2980	11864	1173	407	2823	-16348	-3104	3360	7141	12176	1077	-17520	1308	3304	590	12174	1657	-28700	15668	19828	2730	-32768	32767	-11136	-6680	-15736	-22928	-32768	21869	-5532	-3988	-14416	-5065	-1863	1017	122	149	1
-11316	-3832	12644	750	1323	2823	-15228	584	-640	5330	13998	2201	-14628	2772	-2392	-5273	12538	555	-32768	16140	16916	-1690	-32768	32767	-15836	-3128	-16352	-15924	-32768	17138	-3496	-3332	-15696	-2312	1706	2716	117	153	1
-10060	-3848	12536	-124	2735	2551	-17180	136	-1520	-3902	13902	1252	-14944	-1676	-4648	-5215	11085	355	-32768	17936	16704	-2377	-32768	32767	-19248	-4620	-15992	-18012	-32768	18190	-3612	-1848	-13792	-4061	7397	3097	121	139	1
-10104	-4268	13024	-1205	4931	3234	-16164	-3600	-628	-11104	12250	1488	-17036	-4356	-2008	-6736	10830	-308	-32768	10476	12356	1278	-32768	32767	-29280	-12540	-17352	-12314	-32768	15527	-8696	-744	-7444	-11149	2437	4545	133	122	1
-10000	-3868	13428	-1770	6478	3593	-16084	-4048	-368	-9482	14520	2576	-16584	-2324	-2352	-7571	8850	344	-32768	3564	572	11666	-31430	32767	-26176	-14960	-19312	3128	-32768	18185	-27704	4564	11728	-17361	-13279	5495	143	162	1
-9652	-5056	14056	-752	8325	4995	-17152	-4036	888	-9923	15884	3491	-16008	-3952	-260	-9069	7740	893	-32768	-19336	-15808	24879	-25665	30356	-13736	360	-13564	20684	-30650	18341	-25788	8212	32767	-11712	-1037	14575	138	253	1
-11924	-4524	13640	-53	12325	5652	-18916	1324	-696	-10103	17818	4895	-20580	-1128	-1996	-8832	5575	771	-32768	-12812	-32768	6367	-22940	1784	-4940	2412	-8796	22314	-8430	10192	-19000	-9956	32767	4115	16135	3146	132	253	1
-10768	-5064	15760	2280	16511	7710	-19732	-924	380	-8171	19009	5078	-19144	-860	-3744	-9118	2760	3032	-32768	-30336	-32768	4338	-15242	-20683	2548	8596	-2696	11621	13163	-1451	-22616	-6228	21592	23552	-1082	-3012	128	174	1
-10540	-5516	14540	4971	22009	11038	-20384	-1096	-1712	-4141	20327	5313	-19004	-580	-3388	-6214	145	3403	6872	25524	21120	-24531	11661	-28288	-18768	2000	9944	3463	27097	-9563	-17748	8440	7792	17232	459	-2938	127	114	1
-10820	-6376	14824	7726	29077	15376	-21116	-2896	-2232	-1131	21116	5575	-21048	-2672	-1844	-7604	-1192	4063	21904	5616	-6244	-14864	24188	-16494	-32768	14548	28904	-1037	8852	2220	-12768	5880	-11840	28788	17856	-2914	128	81	1
-11396	-7788	16140	9337	32767	21918	-26904	-1308	2796	-2231	20896	5224	-27712	-3844	4732	-7603	-6927	3774	-32768	-11704	28628	-9525	32767	-15173	2408	-8736	304	-24794	17017	-4218	-18256	2068	9304	-18627	-431	6264	127	47	1
-12232	-6580	15972	4317	32767	29175	-32768	4916	7308	-13039	20072	4092	-30908	-244	17172	-6121	-23000	3460	-30192	-14100	26832	-1928	23177	-20257	-24784	-3060	-10920	-20202	21390	-18968	-27776	5140	-8996	-12323	8389	1306	128	137	1
-25384	-19004	12988	10503	32767	32767	-31288	-1312	14796	-32768	19520	4070	-27356	7780	13472	-10541	-20446	5399	-22860	29132	3432	-18640	7526	-16357	-29876	2180	-17080	-12071	15587	-5400	-17848	-15324	-9904	-4876	11130	-8215	128	104	1
-31636	-16556	12908	10710	32767	32767	-24004	-23188	4536	-32768	23936	4547	-25424	-14936	-1940	-15054	-19928	357	-18796	-1424	18464	-10162	1436	-8148	-12324	-4604	-17852	-20186	21735	-4580	-8716	14264	-15092	-3609	14034	-2960	137	77	1
-32768	-26732	17964	-3212	32767	32767	-30720	-11136	-10340	-5810	20794	5269	-25624	-12484	-11984	1093	-21258	-8100	-11692	-532	17992	-10497	-1218	-7810	-15712	-5564	-13648	-9751	12791	-3757	-14104	2084	-11500	-14416	15894	2754	142	67	1
13500	-32768	18708	9541	31220	32767	-22948	-5648	-6052	7461	14746	1872	-31720	6336	-8816	9042	-21509	-6941	-8992	7376	14188	-7103	-1020	-4505	-15396	-6648	-7256	6738	9307	-5030	-17228	-7132	-5712	-6918	13828	-1927	127	77	1
-32768	-14728	22180	1951	23327	14856	-14996	-812	-32768	25817	10453	2011	-24848	7384	-8904	10016	-23920	-9669	-9392	4564	14228	-4002	549	-3376	-23856	-4732	-4864	15174	6433	-1320	-17872	-7092	-3592	3642	14123	-3312	121	109	1
-23324	-28628	19244	-92	-12558	-26740	-13488	15776	-12984	3596	4670	-3750	-24916	7312	-7024	957	-26103	-10785	-9912	4332	14332	-2012	1945	-2336	-18048	4192	-2272	13348	4639	-1829	-18132	-3168	-2232	11546	15350	-1916	128	119	1
-10476	-16048	15380	6471	-25232	-30745	-9524	3624	-7764	-20686	-6102	-7663	-20364	3248	-9200	-8692	-24467	-8803	-9636	4312	13536	-450	2320	-1949	-17340	5760	-1956	11157	4657	-2048	-14516	2476	-2176	13238	16439	-2694	128	117	1
-3812	396	11868	-4007	-31462	-30499	-7400	-5516	-10004	-15986	-13284	-10698	-19012	1232	-10652	-9646	-21814	-10079	-9396	4244	13440	-35	2330	-1409	-16744	3944	-1332	-12230	6230	-2454	-14084	6772	-2144	6768	17858	-5686	123	111	1
-6156	-932	10144	-17089	-32305	-31233	-2564	-5884	-7796	8039	-18906	-12994	-16032	2752	-11040	-7918	-20453	-9393	-9220	5500	12800	-45	1930	-1536	-16656	-1676	-2456	-6065	5103	-3641	-13960	5860	-956	-2008	17113	-3018	121	123	1
-8352	-8232	10392	-14425	-32768	-29884	-3072	1328	-9372	23902	-22864	-17048	-15536	2656	-11304	-7549	-20596	-8902	-7352	4824	12840	-276	828	-2541	-14428	-684	-2292	8252	4897	-2175	-13520	2840	892	-5559	17721	-2939	127	116	1
-6932	-4180	11276	-7459	-32768	-28900	-6236	6316	-7380	22883	-29557	-16014	-8020	2524	-12408	-7825	-16335	-7564	-8816	3328	12828	-496	558	-2275	-16708	2984	-820	10895	6001	-2278	-15152	3296	-212	-153	17416	-4301	132	113	1
-8700	1720	13936	-10868	-32768	-32768	-7316	6188	-9896	14255	-32768	-13022	-5604	648	-13052	-9086	-12165	-8300	-8732	4316	12852	-822	-82	-2922	-16460	4932	44	4530	6459	-2464	-16744	6672	-5180	2585	16089	-4816	138	108	1
-14828	-2504	15948	-11983	-32768	-32768	-7480	4776	-10928	8949	-32768	-9812	-3404	540	-13408	-6365	-7069	-7672	-9000	4228	13056	-941	218	-2847	-15504	3248	-1224	-4752	7317	-3202	-18048	3880	-5040	-5490	13735	-3439	135	118	1
-20132	-4308	18588	-7903	-32768	-32768	-6264	4352	-12708	6035	-32768	-8873	-2552	1548	-15108	-1036	-2417	-5549	-8884	4224	13560	-269	583	-3269	-17788	100	-2000	-7046	8002	-3687	-15496	-884	-3324	-8308	13801	-2007	135	131	1
-27020	-4216	22592	-7260	-32768	-32768	-10324	152	-16748	8359	-32768	-9711	-2796	2520	-15580	4036	1399	-3661	-9056	4404	14048	-363	1851	-4101	-18368	-364	-3812	-3123	6954	-2260	-15432	-4812	-2080	-2614	14939	-2041	129	135	1
-32768	-7296	23520	-5481	-32768	-32768	-18344	-1676	-10920	13292	-32768	-8853	-2728	2384	-12388	11949	4000	-3895	-9456	1432	15236	-339	4176	-3763	-18516	-1260	-1860	3954	7991	-2576	-19580	-420	-1548	2845	14325	-2266	117	136	1
-32768	-1836	16180	-6154	-32768	-32768	-27828	820	-12308	18033	-32768	-4007	-2436	236	-5580	15981	4869	-2776	-9164	2672	14704	913	7021	-3857	-19772	-644	3140	10490	8261	-3592	-20808	756	2320	5118	11341	330	119	136	1
-32768	4188	6792	-7224	-32768	-32768	-26660	-48	-14736	19770	-32768	-1041	-12736	-1984	10108	28877	-8672	-5104	-9600	3116	14016	1124	9945	-3409	-15828	5188	5860	9438	10872	-5072	-19324	392	7396	7183	8193	-75	137	128	1
-32768	32144	-6048	-9546	-23778	-32768	-28896	8968	-6556	9694	-32768	3205	-32768	-16296	21988	31584	-32768	-19183	-10032	3696	14080	1074	12885	-3701	-15028	7144	3096	5525	14231	-8289	-18452	5316	3300	11560	7566	-149	33	125	1
-32768	20320	-32256	-10523	-19895	-13663	-7588	11872	-21684	-10429	-21432	1547	-18820	3796	23368	5689	10121	-5302	-9932	5096	14164	161	17096	-5091	-20536	2744	1404	4035	16285	-9889	-20616	8280	848	12418	6111	-906	0	124	1
-32768	32767	-32768	-18602	-13446	7522	12312	-2560	-1400	-28704	3151	-5689	-9248	10040	32767	-1047	6607	15138	-8936	4748	14904	-873	22414	-7123	-21100	2504	812	8020	16514	-9782	-20656	3972	-260	8109	1964	-1614	31	127	1
-32768	-4576	-32768	7766	176	12727	-8312	-6356	-8904	-26264	22079	-1086	-23468	12188	11768	-7203	8900	14504	-9696	6148	14424	-2685	29243	-9704	-20736	2660	1108	6648	17304	-11478	-20676	4096	2316	8671	-1749	-1551	128	126	1
-1240	-32768	32767	18236	13504	14772	-32768	-13352	30532	-13823	15343	7555	-16080	-2004	5276	-20789	8629	6077	-11280	6536	15724	-4169	32767	-14301	-21036	2788	940	6435	17697	-11703	-25776	7240	6028	8767	-4486	-2533	115	127	1
5336	920	-6180	24362	29598	21993	-21720	-18996	-7632	32767	12507	-4441	-7416	6808	-3576	-14645	6295	217	-13700	9044	15664	-2921	32767	-20229	-32768	-52	7268	9986	19013	-11636	-29280	5868	12224	7008	-13892	-2617	104	130	1
-32768	17568	28236	11808	17883	22911	-988	23736	-12224	32767	21825	-1627	-32768	-26712	2684	4001	12446	-14096	-24388	8660	19184	4825	32767	-26259	-32768	6252	7024	22767	18036	-9990	-28012	2624	13944	6923	-23374	-1788	104	108	1
-32768	-28124	8592	13429	11426	16255	-2596	17640	-16284	32767	22460	1165	-28808	23984	-19228	7822	10510	-5166	-32768	17948	26068	10372	32767	-32768	-30192	17432	-484	26251	20556	-9238	-28336	4780	1952	6089	-19272	-917	76	106	1
-16652	20248	24544	14037	3906	14896	-14100	7332	-15008	-1430	15094	-5252	-15840	9280	-13256	-19441	8457	5743	-32768	15520	28796	20318	32767	-32768	-26644	17972	-3340	20844	19742	-12522	-25052	16456	-11588	8552	-19426	5586	163	96	1
-15092	-13928	9608	6819	1266	5651	-15204	388	-10792	-14111	14450	-912	-4948	-18492	-14140	-4752	8188	11876	-1300	31712	25512	27126	29488	-31110	-23588	-3024	-12112	-793	19039	-11027	-27740	3304	-10756	-9412	-21922	7898	161	97	1
-11532	-3784	11768	3391	-123	2227	-14508	-10456	-8744	-13433	11716	2284	-13132	-6008	-11520	11919	12372	2755	-32768	32767	32767	13525	-6863	-5447	-17052	-9324	-29640	-17096	12673	-9543	-27700	-3584	-7556	-21386	-28022	7516	156	101	1
-10036	-2820	12608	2345	-422	1787	-14440	-9056	-5376	4592	7904	2290	-16344	5200	-5272	9315	13122	2184	1804	32767	16688	-21171	-24718	9996	-16132	-7392	-776	9719	3829	-4783	-25240	-3256	-5744	-11795	-28978	9163	173	123	1
-9732	-3936	12280	1496	-87	1310	-20032	-1932	-3020	12611	8760	215	-15768	3640	-3908	-1370	14866	3091	8784	6828	11108	-23427	-17974	9363	-14140	-1412	-3296	19087	-5662	3253	-22992	196	-7192	-201	-26811	10807	170	146	1
-10124	-3148	12288	526	230	596	-18952	3716	-3472	5638	8350	2909	-17084	2752	-3228	-6501	15100	3288	4260	-240	13392	580	-14504	19895	-3408	5044	-5860	-2741	-10223	7840	-20260	1012	-7728	2502	-24105	10755	157	167	1
-9944	-3628	11696	-322	219	-217	-15520	3412	-2468	-7858	6054	2464	-13776	72	-2656	-10145	15999	5008	-3096	13956	14384	8593	-16621	24380	-5256	-1620	-6392	-17851	-14557	11687	-18792	-856	-8936	-1571	-21665	9342	162	151	1
-9752	-4292	11380	-590	652	-107	-14084	-2252	-2172	-17457	4069	-264	-14716	-1932	-3536	-8650	16735	3971	-8956	16152	15512	-1774	-25429	23001	-5472	-5060	-9292	-20205	-20875	16575	-13864	-1388	-9720	-2990	-21392	7273	160	137	1
-10812	-3684	11168	-626	686	-138	-15984	-7352	-1320	-12247	3891	1012	-12984	-4492	-4136	-1675	18087	4576	-9736	6168	14496	-2850	-32768	24596	-6124	-6284	-7392	-14129	-25193	21274	-9896	-2656	-10144	-1740	-17571	6038	149	155	1
-9232	-5344	11076	-486	473	630	-15288	-5124	-36	-2205	4496	1365	-13048	-4652	-4432	-328	18274	4419	-10552	4336	14036	4907	-32768	28100	-7076	-5568	-7356	-10252	-29195	22766	-5520	-2476	-11180	1262	-12701	3741	133	141	1
-9804	-3928	11564	-284	408	1170	-16168	-1240	-84	-79	4693	1216	-14512	-4392	864	6310	22303	6312	-14540	7628	15624	7249	-32768	30160	-6684	-4916	-9280	-13258	-32768	23336	-4552	-2652	-11280	994	-7891	1574	141	144	1
-9988	-4052	11176	-281	544	1377	-16060	-1036	152	83	4836	1104	-16660	-3024	-2188	7199	20862	5991	-19704	7588	19244	6564	-32768	30869	-8748	-5632	-11452	-17282	-32768	24144	-4652	-2784	-11312	-1768	-4590	799	142	148	1
-10352	-4868	11372	322	921	1808	-14764	-4908	4636	4019	7757	1544	-20804	-2252	-840	14158	13515	5838	-29488	9712	22616	7785	-32768	32471	-15060	-7808	-14600	-16896	-32768	23181	-5396	-2632	-11772	-5652	-2999	1611	130	161	1
-11124	-3516	11600	966	881	2479	-15128	-4804	1468	8689	9437	1235	-18244	-956	2152	11251	13621	4381	-32768	6780	19936	9452	-32768	32767	-17072	-3452	-13976	-4963	-32768	21109	-4636	-2380	-11292	-5762	-2406	4138	125	178	1
-9728	-4036	12480	466	1496	2556	-16664	-1272	1448	8769	11251	1317	-17712	3228	-292	2853	14832	3804	-32768	6188	15056	4833	-32768	32767	-20064	-6116	-14624	-7840	-32768	21929	-7384	3264	-5940	-9238	-2675	7428	120	164	1
-10320	-3620	12088	-618	2861	2340	-17292	888	3236	-1394	12254	1180	-17564	3624	2760	-1581	12364	1254	-32768	-7700	6100	3606	-32768	29810	-26488	-10304	-17120	-2792	-32768	18230	-18148	6528	3112	-12631	-12913	12644	116	184	1
-10524	-3952	11956	-774	4143	2969	-13496	-1024	4800	-12552	14008	1866	-18128	112	2456	-6756	10205	-2306	-32768	-15556	-4588	14480	-30466	21376	-20652	-8444	-16656	10390	-30499	17807	-28804	492	11792	-8574	-11862	11549	128	253	1
-10692	-4188	13352	-1627	6718	3751	-14280	-7152	616	-11804	17565	3075	-18768	-6900	-1952	-10720	7118	-1747	-32768	-10060	-17148	13070	-22314	13395	-12188	756	-21460	5257	-21863	10810	-13228	0	32767	10744	9558	5402	144	253	1
-10580	-3728	15048	179	9999	4921	-20892	-5656	-496	-6875	18732	4223	-19652	-6816	-3076	-10578	4049	-511	-32768	-18528	-28800	5925	-10481	6815	-12216	-4084	-7528	7542	-2460	7844	-12472	-6828	22408	15586	11248	-1005	136	223	1
-11204	-5304	14908	-260	14966	6525	-20972	620	-2032	-9313	19064	5131	-20128	-1324	-3360	-9304	1012	756	-32768	-18904	-30160	5167	4903	-1399	-6648	-1268	-8736	4065	12018	-4141	-17380	6032	8980	12080	2891	-5239	122	107	1
-9672	-5024	17144	-74	20188	8802	-20788	3644	-1756	-10837	19896	5036	-20512	1696	-2688	-10009	-1644	1853	-1988	17960	9704	-29874	21951	-9450	-19280	3892	2180	4528	21276	-6809	-4484	13836	-2392	14559	10304	-1917	132	66	1
-8068	-6380	16764	2854	28792	12599	-20884	3876	-1604	-11387	20676	4560	-22912	-1796	-424	-10161	-4178	4308	15976	-17452	10444	-18525	23941	-7449	-32768	20036	20488	-4123	6291	-396	-18908	5368	-13460	10752	22902	-1131	138	39	1
-8940	-6764	18332	5440	32767	19063	-29700	-2044	2872	-6149	21773	6487	-27480	-4436	7872	-10959	-13039	4280	-28164	-23364	26132	-7788	32297	-18742	-5692	-9156	1296	-32768	11890	-3557	-23820	6852	12960	-32768	3927	6678	141	5	1
-13372	-9628	16756	6557	32767	26659	-32768	3524	14588	-12421	21089	6849	-25984	6684	13468	-7788	-19875	5944	-32768	-17892	32767	-7397	29703	-17763	-28696	-14456	-7508	-22410	21040	-16512	-32152	-2484	9248	-32768	6640	-2750	140	135	1
-27704	-20236	11624	13300	32767	32767	-27492	-4368	15088	-28444	22398	7399	-24776	8676	13080	-8441	-18709	6901	-23708	276	16028	-15566	6751	-13963	-31972	-5036	-10624	4687	15008	615	-23812	-28088	528	726	13119	-12167	134	146	1
-32768	-9548	20372	2648	32767	32767	-23752	-25864	-1180	-22448	25799	7393	-22876	-19680	-1952	-12715	-19127	-223	-14040	4472	15352	-8172	4618	-6441	-11328	1728	-9236	-6402	18852	-5310	-4620	3520	-14536	19453	13637	-558	144	203	1
-32768	-26668	18396	4607	32767	32767	-26060	-10836	-11724	-786	22158	6103	-24380	-11648	-10420	7704	-21431	-6267	-13480	1944	15960	-8335	846	-6908	-11156	552	-13728	-4804	15946	-5931	-7696	11388	-10744	12821	9889	6389	143	144	1
20800	-32768	19464	7401	19584	32767	-25072	-8776	-14344	2708	22299	5569	-31540	2372	-8476	15228	-20599	-6210	-11340	6684	13548	-5652	-497	-4489	-11992	940	-12056	3769	10982	-3044	-14720	9928	-11060	2445	11998	5880	127	135	1
-24340	-24460	23440	-4199	5309	10048	-17392	-1572	-22500	21077	13349	4109	-25928	3076	-10216	11794	-22693	-7938	-9964	4672	13980	-3130	79	-3375	-24924	-2120	-8532	7168	7656	-3327	-18948	896	-7444	2330	13843	-4004	119	117	1
-10664	-28760	14700	697	-10073	-7318	-12952	6212	-10144	-1424	3090	707	-25792	3340	-9604	10187	-22839	-8037	-10152	3348	14616	-1834	769	-2430	-18228	-900	-3752	9127	5228	-4286	-21748	-4548	-3192	4579	13951	-4953	127	77	1
-2880	-18160	11180	10672	-10944	-9214	-11012	-2988	-8776	-14570	-6278	-702	-20504	-3512	-8824	-2526	-22534	-8179	-9808	3216	14016	272	1876	-1000	-16532	1204	-3056	1897	6238	-2186	-14184	580	-1488	7264	15185	-4821	125	87	1
-3360	-7928	10344	8573	-13065	-13522	-7052	-7932	-9580	-2843	-13261	-4778	-19328	-2064	-10000	-1354	-21129	-9589	-9528	3904	13280	1161	2222	-315	-16924	2704	-3524	-2942	5668	-1966	-16144	848	-3532	6776	15798	-6163	121	106	1
-7356	-7976	10768	878	-19631	-19605	-2496	-5576	-11536	16215	-17524	-5120	-16976	32	-10356	1659	-18948	-10028	-9512	4952	12868	963	2067	-354	-16220	3408	-3636	-5997	4653	-1739	-13548	5104	-3960	2749	16414	-5472	120	107	1
-10320	-9760	10732	-1857	-27744	-22358	-4380	688	-10356	21570	-23096	-7105	-14072	652	-11248	3578	-19937	-9348	-9536	5456	12544	439	1366	-768	-15240	-420	-3812	-356	3941	-2286	-13720	3692	-2788	-857	16836	-3174	122	121	1
-12776	-7728	11028	-3395	-32768	-26872	-5348	3224	-12128	17396	-28679	-7045	-10704	1720	-11520	2746	-16722	-8845	-9736	4848	12436	-267	401	-1247	-15116	296	-3756	9857	3757	-1508	-13372	2980	-2448	-970	16989	-2690	137	118	1
-14168	-7632	10644	-4192	-32768	-31295	-6228	3176	-12036	9218	-32768	-7986	-8968	1788	-11824	669	-14200	-6950	-9064	4116	12872	-481	-237	-1369	-15792	3008	-1516	10819	4919	-1205	-15108	3024	-320	1101	19627	-3347	138	102	1
-15624	-6900	9756	-4378	-32768	-32768	-5768	-44	-10984	7466	-32768	-6568	-6732	1396	-12368	1852	-10893	-5428	-8840	4424	12736	-807	-447	-1639	-16916	4924	-1440	4937	5609	-1861	-16124	5520	-2384	2226	15706	-3741	139	97	1
-19152	-5228	10428	-5305	-32768	-32768	-5204	-756	-10720	14550	-32768	-7712	-4444	4052	-12384	1993	-6577	-5063	-9600	4528	12752	-968	-367	-1678	-15492	4184	160	-1007	5976	-2975	-16160	3804	-2256	-3382	15156	206	139	98	1
-23240	-6120	13216	-7024	-32768	-32768	-7576	-4	-13412	21052	-32768	-7668	-4068	4856	-12960	2314	-3638	-4676	-8912	4644	12940	-688	95	-1837	-15212	592	-1328	-4240	7320	-3163	-16148	-1064	-2876	-5546	12664	-1148	136	110	1
-32768	-9428	15480	-5571	-32768	-32768	-13172	2040	-14016	19595	-32768	-6600	-4160	4100	-12996	7102	-1518	-3283	-9076	3924	13144	-252	296	-2312	-17188	72	-1932	-948	8041	-2626	-17324	2068	-1352	388	12217	-2896	131	122	1
-32768	-4544	14104	-3002	-32768	-32768	-22856	328	-14384	17125	-32768	-4939	-3148	3856	-5748	11043	-52	-3436	-9128	4896	13324	944	970	-3379	-17940	2852	252	2604	8904	-2241	-17844	2516	1796	2367	11116	-1196	130	126	1
-32768	7748	7248	-7334	-32768	-32768	-24400	3644	-19196	13962	-32768	-904	-4408	556	-4612	14570	-1307	-7613	-9456	4916	13540	1641	1577	-4744	-16364	7324	2080	4208	10189	-2597	-18884	1652	3760	2323	10560	890	132	121	1
-32768	19436	2160	-12321	-30991	-32578	-25388	2956	-21860	2756	-32768	-1936	-25980	-6240	17172	23822	-22035	-10300	-8888	3992	15244	-397	5760	-4868	-18376	2252	3164	5495	12832	-5533	-21124	3700	4108	8120	8193	1609	107	126	1
-32768	31548	-11508	-14936	-21219	-24820	-20088	2372	-12568	-13290	-30301	-651	-32768	260	21404	770	-16539	-9563	-9416	3428	15568	245	10865	-5386	-20616	4088	772	8382	14282	-6689	-21628	7380	2576	11645	7079	-473	0	123	1
-32768	21176	-27596	-6009	-21226	2172	-8620	5664	-19572	-17204	-17557	-2336	-7504	-3568	21472	-2839	15388	154	-9672	4772	15172	1497	17141	-6597	-20704	4668	248	7067	16119	-8571	-21160	6508	436	10709	4787	-727	1	125	1
-32768	32767	-32768	-14823	-16251	21223	-332	-964	-8036	-17264	3904	-5032	-13936	3904	26484	-7889	11160	683	-7508	5048	17436	503	23974	-7699	-22060	2956	-668	5621	17202	-9402	-21912	4452	992	8769	732	28	83	125	1
-11112	3692	-27540	16669	3354	32767	-13996	-652	-4960	-17550	16372	-2067	-26848	10372	11044	-12642	7235	13412	-8988	4356	15044	-472	32646	-10130	-24260	-116	156	7119	18149	-10471	-22520	4288	2800	9684	-749	-833	104	130	1
12396	-22540	32767	9078	8920	13253	-32768	1540	31460	-14503	6696	8312	-2052	56	-17740	-23264	18059	8639	-10916	5272	17132	-1397	32767	-12954	-27856	832	4352	8629	18786	-10717	-26780	6064	6224	9807	-3806	-3218	75	127	1
5636	-4016	596	13080	24502	14902	-21236	-10744	-12204	18196	13704	-628	-15452	13612	4808	-12502	7685	-1935	-11752	8548	16976	-708	32767	-18308	-32768	-1164	8684	12765	19324	-10860	-28352	5016	17756	11306	-16193	-3195	119	120	1
-32768	7212	20304	4199	19831	15658	-1748	12920	-8308	20302	16846	3622	-29568	-20236	3340	-926	14187	-1456	-24560	10400	19368	5552	32767	-22536	-32768	9020	15260	28234	18960	-9794	-23440	-3572	14452	7515	-20644	-3251	113	114	1
-32768	-21888	2088	11115	11606	10464	-32768	-6808	-14060	5694	20662	918	-23232	1136	-15652	6913	11044	296	-32768	18964	27508	14662	32767	-26380	-28676	19048	-652	26889	21986	-9895	-26404	12192	1216	10431	-20047	-1007	137	111	1
-14800	8652	17040	7379	2289	7361	-17140	-432	-14916	18508	19077	2394	-13580	3600	-11072	-3899	12940	2729	-32768	9124	32767	19400	32767	-30172	-26044	14768	-8972	12047	21215	-12885	-26624	17068	-10064	4181	-22816	5703	176	86	1
-12700	-7460	11552	7918	-420	5662	-11856	1024	-8248	8207	14043	-2139	-9816	-6896	-11376	-1341	11755	8206	2596	25016	27144	25793	28891	-25536	-27112	-3392	-12668	-6579	19088	-12523	-28052	6852	-12684	-11165	-23109	6832	156	82	1
-11376	-4164	11528	3574	-456	2412	-13812	212	-7168	-3356	11638	1640	-14720	-5360	-8180	8447	12768	2853	-32768	32767	32767	12122	2618	-10860	-18024	-9492	-26248	-18505	13136	-10282	-27892	-3604	-7664	-23780	-31447	5658	162	85	1
-10572	-3316	12304	1764	342	2462	-13880	-404	-6448	-5065	11144	1612	-17172	5456	-3652	3918	13763	3192	-3044	32767	21724	-22449	-18774	2928	-15460	-6856	-4844	6119	2443	-6173	-27944	-4704	-3924	-14336	-32360	4938	177	121	1
-10624	-3912	11872	139	775	1369	-19084	-1932	-2896	-16070	5782	-360	-15508	4028	-2768	-5507	14738	3891	7516	4836	15400	-20471	-18983	2214	-11944	-2784	-5860	17149	-6140	1899	-22308	672	-6976	2710	-26311	8379	163	141	1
-10612	-3180	11488	-382	1157	704	-16240	-6032	-1688	-8220	6461	1752	-15708	312	-3288	-9986	15768	4287	4440	-508	14332	5333	-18470	11955	-4132	1980	-6540	3954	-12228	7746	-20948	2168	-8716	3237	-22157	8492	162	147	1
-10488	-4120	11228	-194	1004	451	-14108	-5888	-1092	2427	6671	1386	-14412	-2592	-2732	-9672	16546	5006	-3036	15212	13684	12457	-21727	18263	-3212	-2248	-7988	-7771	-16472	11235	-17504	-560	-10780	-1342	-23409	5877	155	147	1
-10560	-4344	10716	-85	382	309	-14500	-3488	-1276	4562	6884	1997	-13876	-4444	-3024	-2818	18497	5424	-9012	18056	13440	-812	-30812	19805	-2780	-4064	-9268	-11474	-22169	15108	-13276	-1404	-10340	-2666	-21632	4880	156	149	1
-10232	-4964	10704	-80	254	1005	-17500	-592	-844	-1637	5487	2015	-12104	-4312	-2668	4757	18869	4412	-8524	7336	12732	-4143	-32768	22929	-3684	-3980	-7272	-8306	-26728	19123	-8292	-1708	-10676	-681	-16977	3876	137	161	1
-10232	-4688	10784	-72	-76	1743	-13964	-504	-680	-10418	4658	1540	-14096	-4380	-332	4285	21322	4989	-9736	3752	13092	3617	-32768	27101	-6516	-4108	-7640	-8377	-31199	21322	-5804	-2308	-11220	1967	-11726	2819	138	152	1
-11352	-4124	10884	272	-576	2296	-14060	-3872	280	-13092	5297	1363	-16152	-4160	-2888	1261	18918	5269	-13796	5472	15816	6395	-32768	28308	-6544	-5264	-7868	-12880	-32768	22500	-6756	-2040	-10332	-1219	-7586	1518	133	155	1
-8788	-4348	10964	944	-1046	3166	-15764	-6776	3836	-3676	6629	1601	-18288	24	-3700	8029	12811	3777	-20764	3516	20452	7590	-32768	28588	-9264	-6808	-11012	-16649	-32768	23072	-3996	-2668	-10400	-4439	-4490	117	127	148	1
-9584	-2460	11480	1208	-430	3458	-14856	-4572	556	9438	9737	1763	-17788	-1344	88	7380	10552	3243	-29692	9452	23496	8745	-32768	29919	-14436	-6012	-14144	-14739	-32768	22298	-5536	-2736	-12108	908	-2511	1907	121	163	1
-10824	-2972	12340	879	-6	2568	-15536	1264	-2172	9735	11638	1995	-15744	924	-684	1663	14086	2518	-32768	12392	21624	2342	-32768	32612	-17612	-5032	-12656	-7341	-32768	20870	-4552	-452	-13184	1960	929	2912	133	163	1
-11284	-3588	11640	125	1360	2534	-19440	2272	48	-1870	11489	2233	-16420	2824	-2920	-1536	14121	3181	-32768	8904	17780	-3445	-32768	32767	-19560	-2944	-13280	-10944	-32768	19833	-4364	3436	-6076	-5287	860	5392	113	158	1
-11060	-4140	11864	-526	2531	3078	-15336	-2440	2360	-9774	10676	1217	-17112	-652	1040	-4098	11132	731	-32768	-1208	11824	-965	-32768	32241	-27076	-10568	-16408	-12547	-32768	16216	-11832	3516	-4104	-14976	-5928	9083	125	140	1
-10564	-4184	12432	-1075	4100	3967	-13112	-5500	2124	-7501	13770	3151	-17916	-2404	876	-5325	8654	-993	-32768	-7196	-116	7397	-32768	25949	-22880	-8820	-15788	-2221	-32768	15239	-25204	-256	7528	-24151	-11030	10310	128	230	1
-11296	-4356	12548	-1299	6436	5553	-17168	-5512	-564	-3212	16651	3640	-17552	-6492	-1444	-8120	7111	506	-32768	-13672	-19208	8351	-29198	14093	-14428	1100	-17624	-1992	-28224	10370	-22256	2196	32767	-9904	4381	7621	128	253	1
-11072	-3544	13620	87	10475	5425	-20820	2088	-1288	-5984	17981	4316	-17808	-6524	-1788	-8320	6866	676	-32768	-21436	-31052	6260	-12323	5293	-12236	-4564	-8364	6153	-7439	8024	-13636	-7876	32767	82	10457	-3976	124	253	1
-11592	-4312	14516	1286	14378	7582	-19440	-900	-1144	-10562	17991	5289	-19824	-156	-3304	-7960	2301	2054	-32768	-23056	-32768	3927	587	-5045	-1356	-400	-8248	9725	10304	-2474	-21168	-2236	15704	9337	662	-8556	126	148	1
-10820	-4900	16776	3830	19380	10423	-20632	-1776	-2800	-5059	19497	5022	-19536	-768	-4104	-8126	-127	3237	32767	12620	24388	-26052	20759	-4358	-5316	1292	-14372	3703	27075	-11480	-21284	5672	21852	5665	-5387	-2714	130	95	1
-8888	-6532	15512	5009	26122	13653	-23112	636	-4436	-2617	20325	6351	-19508	-1688	-2160	-9644	-1203	4684	25728	17612	28564	-4432	16399	-7705	-32768	15488	29112	11902	12153	-4325	-9948	724	-13016	24710	18702	-2755	137	68	1
-9364	-6576	16708	7683	32767	19427	-24768	-2144	84	-4346	20349	6241	-25316	-5028	3736	-8383	-6716	4777	23164	8284	12112	-4527	18507	-9735	-6300	-7148	-9516	-21174	11842	2138	-20256	-7208	14736	-5287	5070	1445	132	42	1
-11132	-5592	16084	4436	32767	28101	-32496	3244	8132	-8715	19794	5564	-27784	1568	14912	-6074	-18111	4744	-32768	-8432	32767	-7338	25238	-13604	-16996	-13316	-9548	-10826	23145	-17317	-32768	25152	3384	-10772	6944	9808	134	51	1
-20124	-19008	9084	8505	32767	32767	-31956	2080	15184	-29970	19329	5378	-28036	9840	15008	-9135	-18167	7368	-21928	25232	17664	-2893	17095	-9270	-32768	-9620	-10508	-7542	21548	-9544	-19900	-18312	-2580	-3546	10979	-3079	132	169	1
-32768	7012	19988	4788	32767	32767	-24108	-16768	5092	-32768	20552	5261	-24924	-8768	5004	-16844	-20037	3847	-14396	-6416	21836	-10063	4872	-9933	-10380	768	-11024	1112	17186	-2130	-12704	-7472	-16536	16312	8951	-2685	134	68	1
-32768	-25552	13884	-2776	32767	32767	-29116	-15376	-12624	-14810	23125	6684	-23840	-12628	-8912	-4567	-19266	-4805	-13264	15252	9448	-6865	1670	-5172	-12452	2900	-12548	-6501	19234	-6176	-8148	21864	-13560	630	11124	-191	140	88	1
-18968	-24728	19188	-3305	24937	32767	-23324	-5412	-8852	-2756	17929	150	-29120	4996	-8984	2539	-19128	-4428	-11052	1236	16712	-7108	-95	-5275	-14284	3540	-11728	-7098	12842	-4307	-17128	6772	-10540	-10787	13391	4627	135	73	1
-32768	-1884	664	4259	31157	31501	-18584	-7656	-12696	15355	9628	-950	-28300	3140	-10564	5369	-21175	-7882	-10364	3588	15136	-5094	-312	-3926	-21892	-3376	-9052	-5723	9846	-4462	-17356	-3224	-5380	-4703	12531	-1045	127	72	1
-27348	-25216	16780	-5405	-4732	-10448	-14604	5920	-19760	8353	7730	-2853	-25340	2804	-8076	2682	-23676	-10089	-8980	4240	14684	-2703	798	-2902	-18588	-7188	-5392	9382	6442	-3538	-20292	-3400	-2776	2861	12954	-2491	127	90	1
-11380	-23888	12356	5284	-17581	-23827	-12520	4236	-7428	-11154	-1830	-6059	-21564	1472	-9364	-5271	-22831	-10038	-9260	3532	14240	-936	1958	-2120	-18172	-824	-4392	12967	6099	-2561	-16404	-1704	-1292	7937	13463	-1951	126	87	1
-4036	-8908	9032	7780	-20740	-23553	-9072	-5724	-9268	-10975	-9511	-9338	-19676	-92	-10828	-6502	-21930	-11907	-6892	3684	13424	27	2052	-2210	-16512	4228	-3960	4288	6386	-1842	-15868	-872	-1436	8953	13777	-1931	129	109	1
-5052	600	10352	-4080	-19677	-26482	-4852	-7708	-9828	9305	-14171	-10915	-17604	1088	-10080	-5023	-20142	-13522	-9756	4320	13240	-120	2165	-1449	-16388	4564	-4900	-7399	5509	-1557	-13700	3296	-3588	10707	15467	-5440	124	125	1
-11272	-6728	11464	-12274	-25388	-31359	-4592	-1684	-12028	23972	-19447	-12947	-14048	1052	-10424	-3984	-18643	-13377	-9668	4276	13044	56	1923	-1173	-16132	-500	-4404	-8543	4112	-3064	-14992	3860	-3656	6563	15962	-3485	126	116	1
-12132	-8920	12124	-7467	-32072	-32768	-7000	4536	-9376	23228	-25671	-12654	-11344	92	-10932	-3434	-17272	-12412	-8948	4648	12904	14	1393	-1224	-16048	-2244	-4064	2813	3099	-2054	-14904	3576	-3000	4505	16564	-4217	130	96	1
-11996	-3892	11968	-4339	-32768	-32768	-6724	3856	-11044	15927	-31998	-10893	-9352	-800	-11504	-3036	-13639	-11835	-9476	4628	12968	-131	1127	-1498	-16036	852	-2844	11015	3952	-870	-14768	4972	-1540	742	17514	-5337	136	80	1
-13476	-2260	11672	-6030	-32768	-32768	-7040	2216	-10168	10962	-32768	-8756	-7252	-832	-12916	-103	-10667	-10586	-9160	4676	13208	-299	736	-1835	-17100	5024	-1680	9475	4591	-1300	-14312	5520	668	-6499	19945	-5201	137	107	1
-17864	-4888	12264	-4911	-32768	-32768	-7044	1208	-10088	12869	-32768	-7040	-3996	1028	-13324	4627	-7339	-7959	-12372	3820	12772	-721	498	-1977	-15716	3720	-628	426	5088	-2076	-14772	3836	128	-6957	21632	-3707	136	125	1
-21752	-4928	14888	-3092	-32768	-32768	-7272	-4	-13496	17577	-32768	-7806	-3492	2408	-13868	8867	-4884	-5927	-11412	3892	12568	-715	46	-1819	-14884	932	740	-3426	6118	-2828	-14860	-44	-2136	-3130	16556	-3296	135	125	1
-31088	-7404	17200	-3224	-32768	-32768	-10888	1872	-15972	19785	-32768	-7140	-3684	2972	-13080	13770	-2486	-4053	-9076	3836	12996	-440	-71	-1957	-14544	232	600	-3338	7988	-2540	-16860	-3108	-2520	-4149	13348	-2606	125	127	1
-32768	-7576	14980	-1494	-32768	-32768	-19460	3444	-12572	16266	-32768	-5805	-3016	4468	-7996	19574	1072	-3248	-8864	4356	13456	371	333	-2656	-17136	564	-2684	-675	9068	-2608	-17964	808	808	-3111	11899	-2151	119	136	1
-32768	2128	7936	-4443	-32768	-32768	-24056	1576	-14912	13161	-32768	-4236	-2272	2716	-4484	21451	807	-4427	-9312	4016	14180	59	1528	-3504	-19172	3776	-880	2569	9980	-2383	-17532	2336	1612	2057	11953	949	127	132	1
-32768	9708	2476	-8114	-32768	-32768	-25004	1944	-16404	12904	-32768	-3625	-15240	68	11132	24999	-13927	-8357	-8860	2600	14984	-339	4203	-3215	-17936	2432	2388	5142	10729	-3877	-19012	840	3336	6374	9839	1808	129	126	1
-32768	28308	-7696	-11669	-22863	-31340	-24800	2884	-9068	2803	-31801	907	-32768	-6196	23408	17095	-28248	-16542	-9584	3616	15264	89	8210	-4378	-18532	4376	3176	7998	13341	-6228	-21820	3888	4076	10396	8507	739	33	127	1
-32768	17480	-24784	-8073	-20671	-15519	-8364	3236	-19620	-6404	-19628	3452	-13612	5764	19260	319	11547	-1286	-9040	3468	15364	561	13780	-5834	-21240	5016	1156	5888	15398	-7527	-22648	8900	948	11683	5470	124	0	129	1
-32768	32767	-32768	-9634	-18932	10552	932	2592	-3036	-21729	-3930	-7106	-10352	5616	30808	-5267	7552	1099	-8948	5124	16516	602	20180	-7765	-22540	3784	-1716	6065	16354	-8186	-21920	6668	-952	9646	1553	-485	40	130	1
-32768	25284	-30124	-14200	-6956	15531	-5192	-1148	-12508	-14177	17490	-4913	-22272	10740	17720	-11429	3437	10144	-7476	5700	15796	-755	28601	-10148	-23780	-172	-2184	6675	17048	-9064	-21996	2600	516	9349	583	-284	94	130	1
-13168	-29940	26352	30400	1484	29777	-27888	-3108	13972	-8785	21963	6792	-27032	-2724	22060	-19769	128	6605	-10240	3892	16500	-2325	32767	-13278	-26968	440	268	7979	17329	-9329	-24880	5628	1752	8983	266	-2597	83	127	1
4708	-408	16588	20102	23165	9655	-32768	-15264	19124	10221	4504	-6171	-15924	3300	-7524	-20116	19882	3201	-12808	4656	17152	-3274	32767	-16262	-31216	956	5876	9586	16835	-10201	-28508	7608	8304	7879	-5751	-3809	80	122	1
-30888	22112	27328	14151	28965	22401	-11716	4944	-5584	32767	18491	1379	-23876	-13576	6272	-5086	5951	-7359	-14964	7000	16240	-1584	32767	-22273	-32768	1204	8860	15276	16303	-10347	-31148	4728	24528	6939	-23690	-3441	129	118	1
-23908	-3504	13668	5151	10845	20593	-30548	9064	-14216	11909	21621	6404	-25620	-8040	-5872	20102	14332	-851	-30356	8932	21752	7257	32767	-22778	-32768	11796	12328	29072	18277	-9783	-24212	-3436	16012	4972	-19301	-5028	92	103	1
-14296	-6872	11500	15096	4897	13672	-23556	-4128	-13476	-7756	16848	-425	-18480	17260	-8916	1307	12584	4827	-32768	16308	32767	17715	32767	-26064	-25740	17300	-3748	21510	19102	-10477	-24096	13556	-1028	8651	-21661	1490	156	113	1
-15188	-2020	11748	5647	1198	5169	-13236	-268	-10560	3834	17096	893	-8004	1688	-11444	-8057	11124	9496	-32768	22796	32767	22401	32767	-27456	-27648	9160	-9896	1379	20892	-13907	-24464	14836	-13052	3414	-20894	6459	145	91	1
-14072	-7256	9568	6001	-229	4673	-11092	-5320	-9236	3157	14209	699	-10120	-12256	-11520	-86	11902	6419	-32768	17444	7848	14898	22671	-32768	-26752	788	-8168	-7376	13909	-5034	-29628	3456	-9016	-15372	-25772	5429	159	90	1
-11040	-6580	11348	4738	987	3008	-14452	-4104	-7020	3582	10965	3489	-16540	-156	-9364	9541	14895	317	-28556	32767	29204	-5252	-12869	-2708	-15700	-5368	-17676	-7887	11178	-12529	-29052	-2756	-6268	-22351	-30425	4831	164	107	1
-11388	-2852	12852	2273	1334	2244	-21944	828	-5784	-99	7870	1925	-17516	7576	-5144	440	15246	2987	5312	20744	15948	-20358	-20109	-2960	-15620	-4520	-12908	-3731	9355	-11409	-25220	-256	-6236	-8281	-30877	6565	168	139	1
-10536	-3260	12716	615	1842	1344	-18464	628	-3252	-9314	5289	151	-17564	3160	-4316	-7783	15143	4152	4364	2568	13600	-4692	-18572	2839	-10500	-32	-8676	11231	-8023	4031	-24044	1912	-6852	-6659	-30612	7504	172	167	1
-10008	-4952	11688	-743	1982	620	-16464	-1816	-1172	-10876	5390	1838	-14200	-528	-3472	-10633	17392	5061	160	13472	11432	8789	-19639	13691	-4464	672	-9304	-1553	-12634	7104	-21340	2252	-9384	106	-22358	9084	159	147	1
-10180	-4492	11208	-905	1793	651	-14228	-6680	-336	-7742	5049	536	-14868	-2048	-1392	-10067	17375	3654	-4760	20592	10752	1255	-23307	18521	-3784	-956	-8408	-9388	-17906	10936	-19128	-148	-11696	-4110	-23439	7871	162	142	1
-10336	-4684	11208	-1161	1606	606	-15432	-6796	624	267	5379	1518	-14092	-5728	512	-4022	18629	3539	-9360	14044	12424	-5739	-29994	22903	-3480	-2576	-10116	-11095	-23769	15193	-13552	20	-11732	-3840	-20635	7376	152	155	1
-10556	-5400	10660	-1418	1160	778	-15580	-1636	760	-3266	5733	1867	-12336	-5468	580	108	18214	5389	-10224	9532	12580	-2837	-32768	28897	-5032	-1784	-10716	-12800	-28466	18803	-7908	-364	-12188	-1366	-16178	7022	128	140	1
-10272	-5408	10460	-1048	148	1356	-13024	-2020	860	-12923	5915	1897	-15744	-7852	-716	-3623	15143	3085	-13736	9968	13032	-1393	-32768	31968	-5376	-2132	-9028	-13403	-32768	19810	-6124	580	-12732	-1319	-10857	6521	127	152	1
-9984	-6212	10648	-262	-578	2557	-14360	-5868	1880	-13703	6668	1901	-18264	-7464	-3508	-851	14349	5489	-19420	8708	15296	-2049	-32768	32767	-5528	-3132	-10828	-21602	-32768	21495	-5832	-1032	-12340	-7330	-5861	5443	132	144	1
-9620	-6120	10648	1124	-1479	4023	-16476	-8132	1584	-4135	8214	2303	-18140	-4568	-2888	6138	11049	4987	-22680	7972	16804	-597	-32768	32767	-8200	-5496	-11416	-26843	-32768	21596	-5312	-3700	-12404	-8919	-2106	3763	139	146	1
-11448	-5020	10448	2522	-1701	4717	-14976	-5296	1180	6033	10767	2776	-14416	-1704	804	5562	12274	3506	-31144	7868	19324	1429	-32768	32767	-15888	-8396	-13116	-25519	-32768	18583	-4104	-4460	-12944	-7014	-248	2551	137	165	1
-11012	-2860	11608	1792	-552	3429	-14300	120	-1116	11348	12104	3253	-15524	6000	860	1897	12524	2174	-32768	10000	22552	2315	-32768	32767	-18836	-8020	-14788	-16046	-32768	16755	-2804	-3200	-11864	-9346	2875	1013	120	165	1
-11024	-4168	12052	585	689	2844	-15592	6000	1248	899	13060	3004	-16044	7352	824	-3139	10504	2065	-32768	4712	20412	1511	-32768	32767	-24220	-9328	-15104	-10969	-32768	16606	-4272	-1720	-6064	-14762	194	2871	117	152	1
-10708	-3568	12104	422	1236	2873	-15828	616	1028	-8702	14260	2052	-17132	568	16	-5306	9551	193	-32768	-4656	10536	6985	-32768	31869	-26584	-12696	-17416	2444	-32768	15359	-11992	-560	-940	-18694	-6802	6157	123	129	1
-10620	-5348	12900	-1208	5758	3743	-16400	-4048	-532	-9213	15812	2737	-17532	-3572	-1816	-8262	7396	-16	-32768	-8388	-2616	12465	-32768	21492	-16772	-7448	-14536	14987	-32768	16411	-30560	428	21596	-21633	-14195	7198	130	199	1
-9232	-3444	15696	37	8568	4822	-18476	-4856	-1388	-6140	16763	3280	-17816	-4932	-2076	-8564	5885	1203	-32768	-8580	-5096	12388	-32768	19187	-12364	4532	-16036	8299	-16763	16486	-17060	-2416	32767	-1281	9703	9835	135	253	1
-10552	-5532	14032	-149	12607	6144	-19692	864	-2036	-8355	17538	4650	-17696	-1728	-2548	-8212	3605	1785	-32768	-24872	-32768	9929	-15576	-2927	-6864	-1436	-6476	4320	-3111	4672	-15904	-7964	28004	12827	5580	-3101	139	253	1
-11972	-5712	14384	1261	16667	7711	-17544	-1596	-1712	-5885	19090	4276	-18024	-2296	-3300	-8505	1370	3354	-32768	-15324	-32768	2420	4624	-11164	-2924	-3620	-8080	3171	14635	-5641	-22156	-2020	13084	16653	-3033	-5498	136	173	1
-10488	-5424	14212	3930	21143	11564	-20480	-1940	-2620	-3659	20370	4761	-18764	-3148	-1640	-7094	-62	4173	100	24680	32767	-11898	19589	-10780	-23004	3076	10360	20175	23846	-7418	-18524	3604	9088	18881	932	-2182	139	123	1
-9972	-6564	16056	6001	28716	15662	-22288	-2268	-1340	-2408	21651	4954	-22508	-4888	3048	-5653	-2915	5091	6816	5420	-2892	-11779	23345	-23518	-32768	21624	21368	4113	5280	7573	-14684	2684	-6380	28952	15692	-2130	140	76	1
-10940	-9116	17344	7885	32767	22588	-29920	-2260	3528	-4283	22602	5045	-29244	-6192	12600	-2627	-13674	5416	-31492	-4624	24872	-10643	32767	-17279	52	-2500	3452	-21675	16793	-4859	-23352	12252	4156	-6755	3644	7395	129	32	1
-15516	-14084	17132	7297	32767	32452	-32768	1340	13212	-17175	21982	4190	-29592	-5464	15000	-3268	-15670	4944	-32288	-7744	24240	-5671	24074	-16676	-32768	-8064	-9540	-15307	19548	-13915	-29432	8756	-6396	-14588	7224	7232	127	104	1
-30096	-15404	17948	11491	32767	32767	-32104	-6924	9436	-29387	20996	4080	-29284	-2556	9132	-9085	-18290	5800	-32768	30636	11248	-13400	9402	-14155	-23620	-3364	-14040	-1213	12167	-420	-15352	-22008	-1840	-5625	10289	-7532	132	113	1
-32768	-3072	20736	-1840	32767	32767	-27724	-19816	-1716	-21926	24331	6325	-24900	-15484	-5428	-8497	-19116	-1414	-17848	-11196	24356	-11034	2947	-9371	-11388	-1216	-12460	-6836	18148	-6447	-9144	11592	-16496	8485	11455	-4031	140	77	1
-32768	-28420	21972	301	32767	32767	-27132	-10412	-8344	-6812	18970	6331	-29180	-9504	-11432	7676	-21094	-6348	-12120	6300	15060	-8031	-624	-6095	-18012	916	-12592	-11257	14929	-3489	-13808	8788	-12060	-5764	13380	4934	139	67	1
32767	-32768	18512	13627	32767	32767	-21128	-7024	-7636	9556	10152	4482	-32768	3112	-9428	10652	-21602	-8154	-10252	6212	14004	-5019	-1155	-2769	-16528	-960	-8952	-7491	10470	-4223	-16664	1424	-6700	-5129	14819	-293	125	81	1
-32768	-17008	23768	8014	19019	10578	-12664	-2572	-32768	24157	5688	5692	-25492	2620	-9276	11995	-23423	-9301	-9088	4268	14200	-3333	75	-1900	-19612	-5796	-5988	4201	7845	-3172	-17256	-4312	-3068	966	13578	-4565	118	92	1
-21908	-24360	20456	8343	-13773	-22994	-10724	12156	-14908	5880	-1315	164	-23980	2700	-7108	4157	-24075	-9379	-8696	3732	14356	-1802	1304	-1477	-18468	-4624	-3440	17406	5917	-1770	-17532	-3064	-376	9811	14821	-2551	117	98	1
-8780	-12460	13932	11026	-27155	-25280	-8356	904	-7708	-16619	-10305	-2782	-19828	736	-9780	-1357	-22235	-7375	-8720	4020	13716	-536	1756	-1150	-17324	4304	-2204	18652	5710	-1630	-14708	1408	-592	14919	15887	-1684	116	116	1
-5288	-600	9728	19	-32633	-22612	-8948	-5288	-7344	-8309	-18212	-6539	-18012	1380	-9720	-1772	-19351	-8418	-9076	4420	13180	-191	1771	-1112	-15548	10224	-1420	6034	5922	-1755	-13784	4816	-1788	14997	16580	-3192	120	122	1
-4132	-416	9608	-1975	-32170	-22677	-2808	-4852	-8988	7827	-23725	-7802	-15424	2544	-10308	-937	-19215	-7242	-10684	4360	13124	-699	1595	-1362	-15224	8256	-680	-9573	5928	-2940	-13844	8188	-2292	8475	17116	-3674	117	129	1
-15600	-7272	8628	-15381	-32768	-26338	-1740	-300	-12948	23059	-26077	-10728	-10436	2996	-10672	376	-16641	-4912	-8872	4204	13272	-608	1594	-1632	-15368	676	-1608	-11919	6175	-4406	-14592	6156	12	-748	15987	-4008	130	115	1
-11172	-9160	8440	-9336	-32768	-30402	-3264	6496	-8820	22393	-31307	-9871	-7288	3092	-11372	874	-14577	-5419	-9352	4888	12840	-474	1265	-1914	-16816	-3028	-1528	1079	5438	-3235	-13556	4272	2072	-5035	17324	-4820	138	108	1
-10088	-3824	8836	-7169	-32768	-32768	-4856	6176	-8668	11790	-32768	-9121	-4056	2760	-12328	-827	-10817	-5592	-9556	3664	13372	-294	587	-2184	-15860	2016	-820	8565	6648	-2055	-15332	4972	1188	-2906	19017	-4941	140	95	1
-14564	-3276	10308	-9410	-32768	-32768	-8932	3488	-9080	5863	-32768	-7746	-2804	2472	-12992	-1284	-6703	-4344	-8876	3660	13172	-321	391	-2707	-15848	5724	-212	3690	7604	-3051	-17280	6124	-3608	27	16688	-3951	141	99	1
-19080	-6816	13660	-8713	-32768	-32768	-7244	1620	-13044	8031	-32768	-7080	-2420	3556	-12972	1670	-3149	-2312	-9412	2756	12956	-441	379	-2528	-15876	4960	-508	-4721	8496	-3798	-17608	5816	-4268	-546	16269	-3687	136	107	1
-27672	-8644	16976	-6948	-32768	-32768	-9684	1520	-15448	9492	-32768	-8216	-2792	3660	-12772	5518	658	-1739	-5856	1044	13572	-208	708	-3547	-16292	-420	-2936	-8218	9300	-3814	-16704	1580	-3436	-7398	12861	-2029	125	131	1
-32768	-8104	17180	-4703	-32768	-32768	-16388	-408	-9768	9956	-32768	-8994	-2768	4792	-9612	9800	4628	-2060	-9064	3168	13832	459	1652	-2777	-17588	-3268	-4008	-2168	9045	-3020	-15616	-2012	-1424	-1493	14299	-2305	119	142	1
-32768	-1744	10780	-5532	-32768	-32768	-25560	-2192	-12868	14202	-32768	-6083	-2376	488	-4288	10060	732	-3558	-9292	4140	13636	2227	2524	-3636	-17768	-332	-1660	6626	9553	-2155	-16616	-2240	332	3628	13656	-1470	116	142	1
-32768	6812	6820	-5524	-32768	-32768	-27432	-1012	-21520	19006	-32768	-1989	-13312	-6908	11224	13745	-18897	-10727	-9288	2412	14868	559	5523	-3275	-17620	476	-1740	7446	9628	-1964	-18272	1268	1976	5672	11899	428	133	133	1
-32768	9720	7020	-5306	-31609	-32768	-24044	2360	-11680	7319	-32768	3023	-32768	-21316	22488	18773	-29034	-23941	-10764	3184	14420	1394	8631	-3753	-18644	4520	1360	9990	12717	-5819	-19748	5700	1608	8823	10588	811	22	133	1
-32768	9960	-32336	-4639	-22346	-12265	-8676	13164	-21612	-4408	-22057	1210	-21020	13884	20188	1412	9638	-3916	-10064	5052	14696	1959	13313	-4138	-19444	4076	604	4045	14621	-6916	-20312	6104	772	11018	7463	-1268	0	131	1
-32768	32767	-32768	-25896	-18761	6348	2276	1420	-4340	-24077	-1905	-12385	-10460	4760	32767	-4651	4424	7828	-9732	3060	16060	2159	18920	-5339	-20580	2920	-440	6735	15812	-8212	-19916	6372	-232	8050	6559	-994	32	132	1
-32768	-12652	-32768	-824	-3374	9659	-13672	-1968	-5000	-32768	15436	-4298	-22932	9220	15960	-9876	5945	13494	-8080	4496	15644	1931	26133	-6304	-21404	2124	516	8927	16780	-9975	-22636	6036	2844	9932	2721	-889	114	130	1
-32768	-20368	31356	22553	17815	21973	-32768	-7452	18124	-19756	17852	6987	-26688	-36	6848	-21242	4333	3088	-9000	6184	15688	-12	32767	-9025	-24464	3068	2832	8939	17448	-10779	-24764	7724	5992	9482	-2037	-2220	126	130	1
2336	2968	3316	19360	32767	12292	-32768	-12020	2924	25837	10359	-3212	-9460	-624	-4972	-18408	13269	3609	-11760	9060	17312	-3091	32767	-14035	-31188	5164	7880	9519	19471	-11608	-29808	6672	11044	8258	-8417	-2056	115	123	1
-32768	23792	32767	7879	21815	20758	-10440	6772	-8288	32767	23716	4142	-29564	-16036	1256	19236	6047	-4997	-14480	10008	19916	-3939	32767	-24379	-32768	2960	6820	12314	20708	-10580	-32768	5780	25448	8652	-27013	-453	136	119	1
-32768	-30524	-3032	9589	6305	13266	-32768	10036	-20116	14409	27184	6595	-24668	11024	-15120	21636	10733	-1034	-26020	7664	17528	6548	32767	-26156	-32768	7064	13560	28096	21111	-9287	-26880	-2884	9480	6360	-19318	-2289	132	105	1
-16220	14960	20408	13215	4519	13860	-14776	-1544	-16908	15259	17719	-1486	-14928	14340	-9760	-6939	11978	5142	-32768	13500	32767	25592	32767	-25775	-25708	14008	-8392	27418	21049	-10902	-21508	8220	-5936	4536	-22792	3056	163	93	1
-12208	-14688	9996	9656	809	7036	-14560	3728	-7144	7940	19267	-568	-6480	-624	-10396	-14439	7759	5458	-26668	27160	32767	23663	32767	-31629	-25244	5496	-7588	8902	19746	-12293	-24004	7368	-12160	789	-21547	5925	147	102	1
-10756	-3032	13392	5116	714	3794	-14708	2156	-8104	-10343	13735	1581	-12584	-13168	-6680	-3868	10274	1969	-32768	14108	25364	8273	22887	-32768	-22628	-4636	-17432	-725	14472	-2500	-28220	-1168	-6936	-12499	-28042	4771	161	103	1
-10568	-3464	12472	2934	677	3573	-11852	-1008	-5804	-22925	11167	1916	-17356	-3612	-5632	7399	12209	-653	-18464	32767	29116	-4503	-12639	-2341	-14824	-5436	-11144	317	10660	-7720	-26732	-3408	-5096	-13639	-29524	5224	161	116	1
-10428	-3692	12428	426	1650	2610	-22648	-8936	-3488	-15408	11806	899	-17784	7060	-2116	305	11369	3513	8288	19940	14952	-15321	-16293	-363	-13996	-4852	-3352	16661	-1362	1475	-24324	1316	-6400	-2123	-28171	8406	166	143	1
-10952	-3448	12056	-7	1618	2104	-15504	-10176	-3336	7734	9010	-1576	-16668	3628	-2388	-9722	12586	6025	4428	5136	14668	-2834	-14249	8020	-6716	4564	-5128	7871	-7548	7124	-17836	2972	-7204	3034	-24250	8947	158	147	1
-10448	-3284	11516	-146	1534	745	-11104	-2272	-5488	21258	8780	3591	-13008	-3040	-3156	-7216	15494	6451	-1980	13680	15380	6937	-18147	18439	-3980	32	-7112	-10203	-10515	10829	-18312	156	-7860	2711	-21877	7306	157	163	1
-10892	-5404	10692	22	853	1047	-17052	3552	-4812	8165	9613	2842	-15772	-2512	-4812	-3218	17943	5072	-5552	17144	15060	221	-25081	21387	-5252	-2836	-6856	-14892	-16348	14879	-16216	-216	-8764	141	-21382	5954	161	126	1
-9696	-5256	10344	195	4	2091	-16748	2040	-4752	-12176	6097	352	-13864	-2480	-5592	-3081	19256	5510	-7312	7640	14980	-2696	-31863	23239	-6052	-4424	-7328	-14464	-22610	18719	-11996	-1000	-9576	24	-18282	6125	149	137	1
-11988	-5024	11272	659	-312	2648	-13896	-2860	-4084	-19230	4461	-448	-12916	-3060	-3656	513	19661	5765	-7944	2560	14780	4547	-32768	27868	-7000	-5908	-6368	-13580	-27095	21784	-9832	-2188	-10268	327	-14718	4654	141	139	1
-9772	-4372	10964	959	-650	3441	-15644	-8072	-2312	-8469	4432	1197	-16112	-2492	-4036	1017	19026	6277	-12032	4580	16820	7395	-32768	30642	-7572	-7284	-7100	-12899	-32275	22256	-6804	-2852	-10704	2381	-9957	2405	146	143	1
-8652	-3320	10956	1788	-1645	3236	-15256	-4128	-1612	5238	6363	979	-15864	-4852	-3748	3336	16709	6156	-17352	3996	20264	4610	-32768	30992	-7760	-8268	-8644	-14020	-32768	23364	-5484	-3600	-10872	1263	-6129	193	130	140	1
-10344	-1492	12560	989	119	2847	-15996	-592	-2200	10423	7795	1442	-16492	-3212	-2760	7164	14396	6068	-21288	540	24004	5136	-32768	29869	-11812	-7400	-11608	-12906	-32768	23373	-4900	-2740	-12020	2336	-1973	-111	129	158	1
-10020	-4492	12216	553	1502	2637	-17676	4560	-2040	2326	8191	1934	-17496	4468	-504	6007	16485	5110	-29644	3012	27688	6805	-32768	27859	-17920	-6008	-14060	-10632	-32768	21109	-5448	-1268	-12176	1813	233	703	120	154	1
-11172	-4544	11596	103	2547	4442	-17600	-1060	-1320	-6472	7899	872	-17040	6624	-496	966	16595	3356	-32768	6416	28228	4667	-32768	26232	-20748	-3604	-12020	-7445	-32768	20675	-5012	1292	-10840	-3665	937	3400	111	159	1
-10528	-4052	12484	315	3624	5634	-16528	-3700	1084	-7871	8310	370	-18380	-1740	272	-4302	14603	2939	-32768	5012	20600	132	-32768	26244	-24308	-6068	-11948	-10002	-32768	17169	-7692	5856	-5564	-10351	-936	7668	110	150	1
-10852	-4472	11980	1398	5541	6052	-17660	-2352	1368	-5036	10621	2305	-19344	-5724	1560	-4699	13554	708	-32768	-3192	6208	-868	-32768	23614	-26000	-9236	-14952	-9718	-32768	13792	-17096	1796	1476	-24671	-5227	11226	123	173	1
-11156	-3288	13240	2210	7936	6703	-16372	-3780	3560	-1076	13261	2641	-19652	272	3444	-1908	9849	155	-32768	-13348	-9880	5277	-32768	16661	-17684	-9828	-12288	-3839	-32766	10426	-32768	1500	27092	-31724	-15659	7660	126	254	1
-12124	-3744	14284	3828	11115	7881	-16956	-68	2048	-1462	17419	3687	-19564	-2872	3188	-6123	7517	2109	-32768	-22816	-24764	11336	-22370	9626	-9816	-2324	-18296	-1617	-17358	10699	-13800	-5752	32767	-6517	11369	978	131	253	1
-11220	-3204	14096	4734	15404	9828	-19444	-1128	928	-5681	19378	4257	-20552	-5732	0	-6045	4471	3246	-32768	-26240	-32768	2025	-7765	2873	-2876	-3176	-7560	-534	3074	-2257	-15120	-12120	23420	7750	4209	-11085	131	241	1
-11812	-5000	14256	6186	20584	12575	-20008	-2556	704	-5256	20572	4702	-20904	-2848	700	-4928	542	3546	-23768	-32768	-32768	-9101	28831	-11613	-5988	-4312	-10288	9335	22991	-11536	-25956	5276	11804	8810	-2994	-6597	141	101	1
-11788	-4324	15780	7571	28012	17194	-21816	-1584	888	-3302	22877	4326	-22880	-2148	2360	-4716	-3462	4375	-7952	27172	32767	-1412	23049	-13748	-32768	13144	25956	15384	14209	-4942	-11004	3980	348	22347	11879	-3808	140	60	1
-11276	-6072	19016	9362	32767	23857	-29532	-1388	3872	-6962	23303	4528	-28824	-7312	8400	-4228	-12132	4469	-16548	-6900	7492	-8836	32767	-17501	-15972	1432	-4296	-6192	13656	1564	-19860	-13852	1348	15698	8814	1011	139	30	1
-11524	-8716	19036	6556	32767	32060	-32768	3720	7620	-15004	21499	4651	-29324	-388	13656	-3824	-21920	2945	-32768	-10212	26056	-5004	24941	-15242	-22948	-9636	-12824	-15114	23891	-16387	-23920	-5132	5816	11589	8243	5567	133	32	1
-32768	-13216	16292	12587	32767	32767	-29204	-3084	12880	-31170	20109	5405	-28352	4472	8632	-5946	-18743	5735	-32768	27212	10384	-8903	8077	-10708	-27440	-13548	-23324	-6947	22637	-8934	-21484	-11724	-10764	6194	9789	5219	132	116	1
-32768	-14316	19020	-1353	32767	31670	-26780	-19504	-6700	-24113	25306	7625	-24716	-15708	-8344	-8351	-18498	-1804	-17052	-9552	23096	-7653	2785	-6819	-12932	-6912	-18260	10161	13247	-4097	-10800	9604	-16556	10998	8711	-6945	140	47	1
-31800	-25808	20856	729	32767	32767	-29876	-7544	-5528	-13433	14971	5155	-29268	-5624	-10072	6500	-21856	-6810	-11772	6576	15432	-6839	77	-5440	-17304	9976	-11640	3390	15060	-3007	-10224	18408	-14288	-8007	13865	-4711	135	48	1
25616	-32768	16088	17721	30995	32767	-19992	-10680	-13772	10151	12209	2935	-32768	4780	-9192	10759	-21542	-7651	-10464	7288	13332	-5314	-802	-3752	-12940	7096	-9600	-12133	10466	-6269	-18552	2040	-9028	-14107	15666	-2095	125	47	1
-32768	-18188	24828	7549	-2975	-4759	-15772	-12100	-13992	13795	10414	1721	-26572	3212	-8932	11862	-22493	-10588	-10052	5596	13836	-4604	-92	-3401	-20472	-3492	-7068	-13821	9547	-4415	-17512	-3416	-2960	-4109	14474	-2192	129	53	1
-9808	-19204	17184	4098	-24351	-23323	-15104	12592	-4504	1674	-632	-2080	-24824	4428	-8236	1412	-23449	-10749	-8916	4488	14396	-3308	1171	-2999	-20012	-9432	-4752	6513	5567	-3546	-16656	-2648	-1392	3957	14404	-3660	125	77	1
-1368	-7372	10708	-1425	-24942	-21625	-10768	336	-10212	-12313	-10939	-4065	-20472	2264	-10360	-4420	-22630	-9273	-9464	3728	13800	-1962	1546	-2384	-16288	-264	-4724	16724	3593	-1540	-15732	-1448	-1968	10199	15640	-3292	128	106	1
-5684	-4488	10104	-10385	-25849	-22164	-4720	-4480	-9404	-1468	-17276	-8377	-17712	4440	-10488	-4644	-19999	-9705	-9724	4100	13488	-1314	1234	-2066	-16216	6504	-2216	9464	4503	-2074	-15352	264	-1360	13184	16660	-3406	125	129	1
-8992	-7160	10108	-12628	-31232	-25228	-2388	-604	-9776	14411	-22050	-12933	-13556	4908	-10580	-5161	-17622	-8948	-10916	4284	13384	-967	790	-1672	-15780	5676	-1512	-5006	5082	-2225	-13536	2608	-1632	11413	17718	-4693	129	125	1
-8304	-5036	11632	-12205	-32768	-29671	-4412	5072	-7784	19245	-27573	-13783	-9588	3216	-10856	-4963	-18479	-7882	-8828	4576	13240	-823	1099	-1536	-15720	40	-880	-8058	4253	-4193	-14424	3992	-284	4043	18119	-4037	132	119	1
-8140	-3016	12088	-13770	-32768	-32768	-6016	7536	-8856	12088	-32682	-12102	-7000	3148	-11468	-6305	-14955	-7012	-9176	3916	13120	-821	1043	-1842	-16612	-2404	-912	1130	4020	-2508	-15200	3176	2092	-973	17273	-5238	137	107	1
-11172	-2172	14132	-16188	-32768	-32768	-8760	5040	-10340	6017	-32768	-11776	-5008	3784	-11884	-6590	-11276	-6202	-9360	3716	13056	-510	734	-2050	-15888	336	-476	8020	5651	-2501	-14836	5464	1736	-4061	18097	-6227	138	110	1
-16856	-1604	16152	-18008	-32768	-32768	-6416	4348	-10908	5393	-32768	-11615	-3292	5016	-12096	-3289	-7863	-4227	-9156	3988	13076	-738	366	-2418	-16228	5984	1280	6761	6817	-2053	-17396	7904	-1488	97	16980	-5373	136	115	1
-21652	-3700	18892	-18560	-32768	-32768	-5680	3364	-12384	3790	-32768	-13928	-2216	4692	-12924	-1668	-3718	-2924	-9008	3976	13048	-487	320	-2728	-15552	4504	-220	-2593	8312	-3845	-18608	3700	-2692	-3198	14391	-3427	127	123	1
-29620	-6348	21520	-16581	-32768	-32768	-11140	1136	-12268	6402	-32768	-14726	-1076	3728	-11988	1925	-268	-1598	-8812	3784	14060	247	930	-3222	-17228	-144	-3288	-6235	9285	-4221	-16208	-1192	-2304	-5455	13374	-2425	115	134	1
-32768	-2852	21144	-15050	-32768	-32768	-21832	-1616	-9580	11266	-32768	-12233	-980	1364	-7580	5570	2455	-1722	-9604	4084	13804	368	2459	-3841	-18640	-2260	-2748	80	8774	-3338	-16596	-2488	-504	-1291	13746	-2585	108	133	1
-32768	516	14700	-12529	-32768	-32768	-28388	2292	-14232	10322	-32768	-6275	-4200	-3432	-5452	10274	495	-5108	-9244	3228	13764	589	3736	-4558	-17116	724	-508	8088	9560	-2876	-15656	-896	2908	4439	12664	-831	121	135	1
-32768	10344	12408	-5294	-27374	-32768	-27184	-372	-30192	19603	-32768	-3953	-23900	-12300	17552	21213	-28779	-13813	-10168	3376	14556	198	6543	-4145	-17012	1552	3040	9628	11660	-5383	-18292	-388	4100	6362	11642	1037	128	131	1
-32768	28848	-10216	-6128	-18266	-32768	-20788	-2224	-10388	1015	-28465	4059	-32768	-19832	18304	14993	-13468	-27947	-8640	3068	16276	830	11115	-4384	-19016	5760	2712	4454	14161	-7831	-24000	5692	2832	7759	9564	-1349	0	123	1
-32768	25596	-17620	-4293	-18841	-32768	1400	11912	-15108	12264	-11052	2930	-17960	-2488	25296	9727	11433	2824	-8308	4968	16544	1381	17197	-5654	-22556	528	580	1673	16143	-8794	-21472	5892	-164	10973	5536	-1749	0	127	1
-32768	32767	-31060	-21990	-6321	1345	4604	2884	-6764	5075	9306	-10457	-13864	13292	32767	5141	3375	11685	-8368	3672	16048	513	24492	-6161	-22856	-508	-668	7601	15785	-9083	-21264	5844	-664	10100	5029	-2101	64	129	1
4912	-32768	3768	16138	3686	1668	-19224	6640	-15356	-16264	26896	2184	-25496	11308	9424	2429	7560	16951	-8680	5476	15496	-1294	32148	-8714	-22392	1784	-372	8290	16223	-10510	-22068	3332	2108	9934	706	-2289	122	128	1
-5376	-31452	31984	19252	15147	10723	-32768	-11592	17436	-28455	14007	2320	11348	3756	-32768	-22173	20145	6858	-10964	4460	16188	-3137	32767	-13099	-27352	5308	3144	6268	17077	-11134	-27028	8740	5608	8034	-3107	-3756	114	128	1
984	13368	4096	21520	24828	17689	-20036	-16804	-14692	32185	13347	-5525	-18968	360	-2664	-20316	8939	-3047	-12508	9084	15988	-2769	32767	-19785	-32768	-1004	8364	8688	17916	-11731	-31172	7108	17004	7990	-16711	-2730	107	116	1
-32768	14848	32624	10158	19722	22213	3548	22872	-9956	32767	19640	6874	-29880	-32768	-1980	4828	6407	-14710	-23884	10808	16000	4961	32767	-26136	-32768	6632	14944	31166	16362	-10081	-24996	-3440	16920	7132	-23274	-3620	99	96	1
-24644	-8448	14768	7244	15381	13326	-32768	12240	-16164	8904	20308	4038	-26960	24344	-5872	21740	15292	779	-32768	19424	29016	13049	32767	-32768	-27292	20656	344	32767	19687	-9356	-25588	6728	2832	10001	-21219	-905	105	97	1
-12592	14200	23048	9073	2584	9140	-13844	7796	-11604	-7286	15712	-4004	-19600	22616	-15284	-14785	10818	8814	-32768	20076	32767	21982	32767	-32768	-23708	20440	-7884	16733	19508	-13821	-23864	16600	-11628	10391	-20676	6982	163	104	1
-15484	-13940	7416	2856	3409	2111	-14464	-2248	-9400	-14168	14572	-426	-5044	-14860	-10840	-15030	8908	9767	27980	32767	18524	23472	20260	-32768	-24776	-3000	-14544	-9322	20050	-12172	-29292	4488	-8348	-7117	-22867	8155	142	102	1
-10436	-2876	12508	4765	3178	4263	-11220	-15336	-8244	-8372	10676	2304	-11744	-12704	-11332	3766	12042	3185	-32768	32767	31804	9045	-11532	-9467	-17480	-8124	-23716	-19353	13733	-9869	-27956	-2800	-8452	-17357	-26698	6908	155	95	1
-12096	-8536	10360	4902	2556	5033	-11464	-11644	-7148	13398	9918	2860	-15848	-268	-7732	7767	14712	975	3380	32767	14152	-16336	-22614	1025	-14544	-7144	-4960	11993	3006	-2001	-26360	-400	-4748	-11759	-28581	8652	162	123	1
-10784	-4668	11668	3375	1248	3796	-22808	3684	-5708	11897	8337	-139	-16528	1428	-5180	1131	14851	4894	7224	8096	10796	-15101	-16604	5794	-13448	-104	-5588	19472	-4699	3970	-18980	3264	-6756	1398	-25426	9763	150	156	1
-10320	-3436	13032	1539	632	2648	-18892	6312	-2644	-6819	6205	2794	-18540	3164	-2888	-1846	14972	3315	4388	5856	10900	4644	-12891	18504	-3864	3772	-6004	1015	-9800	8636	-18600	1824	-8056	1198	-22324	9414	173	172	1
-10584	-2620	12024	-62	1281	1917	-15120	3720	-2696	-20394	4752	194	-14292	2724	-1096	-6372	16278	5425	-2568	16544	11676	8127	-13808	25302	-3356	-640	-7228	-13782	-13390	11391	-18440	-280	-10476	-2499	-20656	9172	149	166	1
-11076	-4596	10852	-985	1594	1218	-14528	-10160	-924	-14596	4898	262	-15744	96	-400	-10359	18384	5877	-8728	16592	13652	-2627	-21880	26616	-4944	-2960	-8992	-17838	-19631	15458	-14000	-1280	-10236	-3491	-19458	7186	150	138	1
-10388	-5044	10908	-863	1499	1307	-16188	-9896	1120	2757	5711	1669	-12320	-4364	1628	-6418	21593	7166	-10424	7816	14132	-4700	-30854	28212	-5480	-4684	-8136	-15305	-24127	20564	-11160	-1832	-10764	-1424	-15427	7748	130	143	1
-10544	-5528	10168	-230	478	1952	-14640	-2856	384	5511	7007	2654	-13540	-6108	-1312	4755	21781	3594	-12160	5448	14580	976	-32768	30561	-6600	-4420	-9180	-14357	-28397	22691	-7664	-1284	-11572	-1085	-11451	6984	141	141	1
-10228	-5144	10596	681	-7	2358	-13060	1152	272	-2940	7280	1511	-17188	-5740	-4252	697	14505	1866	-12628	5724	14552	1641	-32768	30730	-7092	-4520	-9280	-17043	-32768	24096	-6188	-1756	-11456	-1759	-7558	4378	155	139	1
-10284	-3600	11344	361	24	2521	-14320	-716	-352	-7138	8465	1082	-18356	-3312	-4132	3832	12886	3203	-20944	7584	17960	4060	-32768	32767	-7544	-6220	-11236	-20659	-32768	24697	-5816	-2632	-11748	-5746	-3512	2832	143	138	1
-10044	-3976	11644	195	1171	2674	-17640	-3708	-1756	-3515	9766	1767	-15304	-1664	-4004	6059	11601	4895	-27480	8724	20332	6037	-32768	32767	-13416	-7508	-11828	-20975	-32768	23275	-4664	-3068	-12612	-8134	-167	2761	135	146	1
-10212	-3260	11444	-243	1458	1957	-16636	-3564	-3256	4421	10466	2266	-14836	976	-2080	332	12710	4433	-32768	11716	22264	6525	-32768	32767	-17604	-7444	-13420	-14829	-32768	21295	-3476	-4504	-12448	-10258	2240	3231	127	164	1
-10272	-3812	11556	-889	2660	2465	-15892	468	-1872	4023	10753	2197	-15504	5956	-2308	-356	13272	3106	-32768	8696	20812	4355	-32768	32767	-24072	-5668	-13128	-10302	-32768	21124	-5284	-2404	-8652	-8362	1887	5004	117	190	1
-10304	-5808	12024	-1551	4308	3515	-16988	1268	-84	-4440	10929	1723	-17368	2816	24	-3911	12759	1509	-32768	2564	14316	6180	-32768	32767	-28040	-9284	-15800	-4586	-32768	18587	-13396	3780	-1732	-4560	-4421	8123	126	178	1
-10580	-2872	12756	-96	6466	3856	-17280	292	2132	-11261	12397	2028	-19212	-1880	1284	-5597	11478	-801	-32768	-768	656	4228	-30322	32767	-21632	-6128	-14064	3204	-32768	16633	-25752	3848	16032	-16989	-12431	13180	124	186	1
-10864	-4600	12944	378	9304	4695	-17216	-4260	3976	-10861	14484	4121	-19320	-4840	1128	-7241	7972	342	-32768	-15664	-20100	3880	-23316	15763	-14264	-1292	-9868	1110	-21649	16534	-22384	5868	32767	-8359	8783	14643	128	253	1
-12872	-4592	12780	901	13268	6288	-18004	-5664	368	-896	17979	4222	-20572	-4920	984	-8449	5406	3232	-32768	-25464	-32768	12047	-13765	3961	-5472	-2172	-8484	-4283	-5605	8530	-17772	-5980	32767	-3252	8772	-307	137	253	1
-10928	-6084	15044	2572	17294	8834	-19992	-552	392	-1805	20086	5213	-20136	-4196	-1560	-6119	3069	3452	-32768	-15672	-32768	2089	2721	-4350	-2508	-4644	-7396	-555	14906	-5374	-21960	-3900	18784	4596	-3071	-9303	135	188	1
-10732	-6920	14760	4066	24266	12625	-21724	-544	-1212	-4027	20989	5461	-21568	-1196	-244	-5359	-978	3131	-8520	15400	12308	-18007	19494	-14862	-18268	884	336	14551	25920	-9417	-24028	4700	22928	7500	-4348	-1703	140	117	1
-10512	-6916	16440	5184	32767	17830	-23456	-468	408	-5001	21916	4896	-24616	-1960	2044	-7096	-4587	5038	6760	-3480	8208	-14461	24687	-16381	-32768	21196	21880	4426	10175	4890	-10900	-2648	-18876	30781	18300	-3458	141	68	1
-12180	-8568	18960	6769	32767	24591	-32768	-756	6064	-8112	21699	5133	-31984	-5208	13316	-5269	-16663	4705	-32768	-14504	32767	-9442	32767	-19428	-2296	-4924	1448	-32455	16224	-3421	-24240	9556	9068	-15835	3297	8174	137	5	1
-17992	-15952	13488	9482	32767	28743	-32768	1560	18836	-23956	19926	6319	-25460	5408	13284	-6723	-19098	4604	-24872	3352	16592	-6081	20286	-20061	-30908	-10488	-13752	-21776	23512	-18327	-25044	7044	-5464	-18246	5382	6508	135	91	1
-32768	-11300	18376	10237	32767	32767	-25760	-11708	8412	-30064	21160	5169	-27232	-2816	9576	-10801	-18745	4325	-14000	-3448	19972	-20201	5367	-16476	-29628	-3268	-10816	-3719	12832	1593	-23148	-18680	-9540	3238	15581	-5042	133	127	1
-32768	-19424	21940	-4335	32767	32767	-30172	-19592	-8172	-9771	27369	8860	-27520	-8412	6072	-11718	-18970	3598	-14232	13200	12152	-9469	3346	-6173	-14336	-4412	-11048	-8555	19691	-5350	-5968	8744	-10704	5230	11546	-3314	144	81	1
-23192	-25684	25216	2074	32767	32767	-26420	-5340	-2128	-109	17882	4440	-29364	-3644	-11836	9075	-22058	-6253	-11612	-348	17632	-6219	213	-4519	-14728	-3232	-12332	-2077	14650	-5052	-13688	8428	-10876	-4835	13845	863	142	79	1
-21360	-6632	2212	14324	32767	32767	-17608	-8120	-7688	15388	9372	2426	-31808	4204	-9980	12995	-23851	-8048	-8684	4756	14676	-3357	245	-3679	-14056	3452	-8632	1243	10880	-2411	-16600	164	-8224	-5724	14372	-615	125	81	1
-32768	-17868	22320	1102	11825	788	-12348	-2276	-30424	19515	4384	4965	-25464	3644	-7668	12129	-25737	-8949	-9652	4316	13972	-1831	1513	-2825	-23472	-2492	-6640	2275	8201	-2060	-17220	-5052	-5028	4057	14809	-2743	117	100	1
-19920	-23628	17888	6062	-19758	-25012	-11564	10996	-11360	-143	-1778	-561	-23620	2620	-9236	695	-25773	-8134	-9368	4060	14104	-863	2331	-2075	-18180	1120	-3088	8174	4953	-2818	-17548	-1052	-3004	11342	17010	-2461	126	95	1
-7724	-9328	12208	8808	-27942	-24431	-9408	448	-8012	-20551	-10523	-4246	-19600	-944	-11356	-4519	-22102	-8471	-9792	3992	13348	345	2663	-1534	-15916	4484	-3096	6160	6100	-1281	-15056	3184	-2220	14174	17887	-2127	119	105	1
-6844	-2332	9196	-1533	-32677	-23348	-7280	-7128	-9472	-9564	-17751	-5316	-18196	384	-11640	-3295	-19713	-9826	-9700	3952	13400	890	2351	-1280	-15932	5888	-3632	-2906	6259	-1331	-15144	4896	-2392	9655	19174	-4238	119	110	1
-11448	-4996	7488	-11034	-32768	-24146	-1812	-6924	-12108	7859	-23228	-8579	-15912	1092	-11420	-779	-17998	-9222	-9748	4872	12892	672	2244	-1387	-15964	1092	-2796	-1609	5786	-2742	-12412	5772	-2220	2606	18041	-3975	125	111	1
-11772	-9040	6892	-10967	-32768	-26061	-1476	-912	-9692	21868	-27487	-10230	-10812	1400	-12048	2156	-16683	-7851	-9444	4732	12912	322	1889	-1921	-15220	1004	-2044	5448	4365	-1263	-13488	4792	-440	-2469	17171	-2730	123	111	1
-11368	-9976	7276	-5620	-32768	-28518	-4396	2820	-10224	23701	-32768	-10348	-7628	2244	-13308	1977	-15027	-8353	-9400	4588	12656	290	1489	-2273	-15092	3360	-1232	7386	6279	-1809	-15900	4580	-556	820	15915	-3886	125	106	1
-15336	-7240	8224	-4081	-32768	-32768	-4752	3452	-12992	17919	-32768	-9780	-5184	2388	-13660	805	-12604	-6742	-9696	5004	12480	1447	380	-3319	-15800	4784	-1312	4529	6839	-1818	-16672	7388	-4040	1100	14512	-2535	136	108	1
-17932	-5252	8936	-4664	-32768	-32768	-7880	3284	-9532	13633	-32768	-7305	-3000	2620	-13368	2224	-7848	-5351	-9512	4148	13248	604	472	-3491	-15428	3732	-2080	-828	7470	-1927	-16552	4832	-4120	-4754	13158	-1511	134	114	1
-22608	-5876	11628	-6682	-32768	-32768	-8560	100	-13892	13824	-32768	-6099	-2736	2632	-13852	5369	-3884	-4147	-9776	3224	13236	-498	1305	-2811	-16808	-1476	-1996	-911	7851	-2880	-15520	1224	-2124	-6648	13476	-1377	134	117	1
-32768	-10160	12776	-4700	-32768	-32768	-11500	-76	-15216	13291	-32768	-6702	-3836	3820	-13456	10656	-1628	-2738	-9544	2600	13704	29	2428	-2171	-17288	-1176	-2128	844	8067	-2722	-16180	-3332	-1376	-913	13505	-1667	128	127	1
-32768	-3304	10576	-2147	-32768	-32768	-16816	-1832	-13416	17570	-32768	-5863	-2156	3360	-7596	14275	-866	-2616	-9548	3264	13476	544	4200	-1930	-18448	44	-1012	1753	8828	-2076	-16884	-4972	-1012	1696	12330	-1715	124	135	1
-32768	4960	4364	-8028	-32768	-32768	-27112	1428	-18692	15294	-32768	-1773	-3756	248	-4828	13509	-2181	-6656	-9996	3380	13272	883	6105	-2001	-17472	2040	604	4373	9733	-2346	-17616	648	2640	1987	11874	773	131	126	1
-32768	5312	3476	-9274	-32768	-32768	-26124	3940	-29268	4276	-32768	-1323	-24576	-7016	13924	18616	-23851	-12058	-9840	3872	14000	1108	8599	-2056	-16580	3828	2056	5940	12039	-4241	-18584	4356	3484	7687	10524	1786	123	130	1
-32768	27644	-14340	-23324	-23659	-30748	-15284	916	-17960	-20160	-30531	-1338	-32768	1764	19016	1358	-16934	-10192	-9944	4492	14464	1241	12793	-2563	-19488	6112	1968	6539	14131	-5895	-21592	9424	2324	9870	8919	-163	0	132	1
-32768	15232	-27728	-14904	-24360	-6171	-7188	2100	-17124	-32768	-18037	-5587	-8304	-288	25308	-10520	14664	-1135	-9404	5808	14672	624	17972	-4401	-20628	5840	2064	7534	15661	-7102	-21456	8968	1964	8570	5901	-542	1	136	1
-32768	32767	-31748	-17331	-19693	14553	-3564	-6016	-6296	-24327	2891	-7401	-11956	4232	24484	-17921	10420	152	-8364	6508	14744	251	24455	-7245	-21060	4520	1292	7424	17098	-7856	-22716	1560	4016	8975	1896	286	110	138	1
-32768	10164	-24152	-10186	-5408	16599	-9808	632	-10532	-1632	20450	1338	-22712	6200	7456	-16489	7615	12301	-10044	5680	14596	-508	32125	-10657	-22568	-252	2692	8843	18424	-8404	-22928	-1240	5616	12803	-1391	925	126	136	1
-2784	-27676	30328	25215	15580	12152	-24416	4728	13456	-1744	16213	612	14300	-3672	-32768	-30477	21789	9333	-12404	4600	16068	-675	32767	-13202	-26872	-984	6048	14658	19688	-7946	-25436	2668	7840	14832	-5080	-681	126	139	1
10652	8132	7100	24529	32767	10497	-32768	-19736	4608	27947	7471	-1335	-24488	-11364	-5344	-9963	15879	846	-13344	7512	14528	491	32767	-17794	-32456	-1096	9236	18382	20695	-8432	-27512	2104	15008	16897	-14669	-1054	145	126	1
-32768	13808	32767	15232	25403	24378	-4992	4896	-8220	32767	15505	3400	-32768	-22852	-1148	28891	6760	-7826	-27276	3692	23932	8467	32767	-18530	-32768	6092	8616	26647	20625	-7140	-25340	-1124	16624	15269	-22254	-2316	88	110	1
-26296	-12556	14408	11237	13107	23233	-32768	9584	-16264	29478	21084	7503	-29136	11104	-6644	32767	12075	6999	-32768	17464	23500	21216	32767	-19046	-32532	14236	672	27324	22731	-7799	-26720	7208	376	14090	-20569	-965	90	102	1
-14596	12852	24280	19534	1565	16822	-17492	1684	-10056	6155	15955	-556	-17124	19616	-4536	5036	16068	6636	-32768	13360	32767	22825	32767	-28601	-27112	13608	-9528	14116	20294	-9096	-29300	16928	-9688	9506	-21499	5464	148	85	1
-12552	-8604	11796	9631	-539	7179	-13312	5024	-7748	1594	17629	-186	-7580	-1848	-11140	-488	11039	9171	-8568	19388	24784	32767	32767	-26392	-29136	3868	-8264	3371	18105	-7991	-29436	7864	-13252	-3571	-24524	6721	101	88	1
-13512	1704	14940	6994	-875	5671	-14008	-4076	-9612	-4176	14272	1382	-13420	-3472	-8616	3798	9327	2992	-32768	32767	32767	29380	11371	-14289	-19860	-13632	-29756	-15493	12099	-6465	-28788	-4	-8336	-18568	-29359	6127	128	81	1
-11452	-6384	11496	4739	32	3928	-15068	-4732	-6300	-1166	10513	1438	-12696	5448	-4456	200	12475	-1519	-13076	32767	25528	-15297	-25721	6628	-14824	-8720	-6872	6572	3213	-6183	-27532	-3116	-4232	-16378	-32768	5248	153	110	1
-10464	-4524	11852	2197	450	2768	-20016	-1256	-5816	-483	6294	2064	-16164	3564	-6276	-13356	16102	4189	6604	6824	14976	-25242	-28777	2627	-12280	-2940	-3668	26672	-6798	3047	-22760	1016	-6776	-477	-27206	7977	152	152	1
-9936	-3944	12096	1752	241	2613	-18940	-652	-3364	-4347	7123	767	-18760	-720	-6008	-13805	14685	2977	5740	-5680	13216	1744	-25855	9279	-5576	3828	-5884	12738	-13568	9303	-17880	3188	-7872	972	-24296	7945	174	161	1
-10284	-4100	11464	1323	-213	2236	-14808	-632	-2272	-8174	6373	2216	-13944	-4784	-3736	-9956	14579	3298	-3172	11428	12828	16538	-26334	19102	-2204	732	-5800	-7882	-15601	10731	-16608	-1036	-9360	-1872	-22586	5826	179	192	1
-10124	-4696	10644	1414	-828	2210	-13944	-3384	-1540	-10750	6002	1308	-14916	-6012	-3752	-961	15814	6147	-9372	20884	13172	1356	-32142	22493	-4508	-4804	-7704	-16658	-21509	14785	-12348	-2304	-9188	-5109	-20913	3330	154	131	1
-9960	-4444	10992	1742	-673	2690	-15676	-6412	-532	-3446	5609	1419	-12588	-4036	-3748	6989	17139	6457	-9152	7408	13808	-8472	-32768	24873	-4828	-6192	-5940	-11088	-27256	18689	-8456	-2420	-10260	-2359	-17229	3847	143	141	1
-10056	-3048	11812	1891	-692	2745	-15284	-3824	-264	6034	5912	1491	-15480	-1360	-1260	9254	16960	6010	-10708	1308	14524	-159	-32768	29829	-7788	-4936	-7032	-9188	-32087	21111	-6368	-2380	-11008	2250	-11812	3082	145	158	1
-9936	-3228	11916	1676	-649	2221	-14736	-1580	-724	9765	7710	1896	-14360	-648	1992	7723	19974	5709	-15760	5352	17016	3113	-32768	31167	-7116	-6116	-8940	-13133	-32768	21082	-6504	-2360	-11400	102	-7125	1165	139	152	1
-9008	-3708	11892	1651	-557	2813	-17016	92	1668	4470	8393	1635	-16396	-1668	-220	4642	18553	5130	-21572	6304	20464	1534	-32768	30012	-8800	-6084	-11752	-17475	-32768	22819	-6704	-3984	-12224	-2943	-3759	5	135	142	1
-10408	-3904	12016	1539	84	2967	-15984	-1736	520	-1258	9266	1049	-19280	-2500	-2232	5241	15337	4767	-32256	10756	23408	1673	-32768	29850	-15164	-7012	-15236	-19540	-32768	22444	-6068	-3680	-13176	-1619	-1255	422	138	148	1
-8748	-3784	12328	1074	1376	3861	-15884	-1840	516	-2077	9308	1208	-18860	420	-968	2263	13646	2603	-32768	11068	20936	-118	-32768	32177	-18664	-3924	-13800	-14766	-32768	18172	-4400	-2584	-12960	-2773	925	1577	123	164	1
-10512	-2596	12320	385	3261	3850	-17568	-2248	-228	-2662	10872	1539	-16824	2964	-216	-4146	13107	1100	-32768	7728	16024	-2178	-32768	32489	-22024	-6160	-12908	-15636	-32768	16678	-4432	1600	-7312	-6782	928	4183	121	173	1
-11052	-5168	12136	891	4577	4678	-16560	-1292	3252	-6814	12229	2005	-17844	-100	2972	-7754	12751	1007	-32768	360	8032	20	-32768	32354	-29688	-11720	-18400	-8620	-32768	12483	-14820	4120	-1384	-14716	-7498	9409	137	188	1
-10128	-2928	13308	336	6493	5984	-15080	-2344	3156	-9460	14194	2073	-19176	-2224	268	-6928	8886	-1057	-32768	-6452	-8624	2481	-32768	24115	-19296	-9604	-16544	7962	-32768	13352	-29652	6364	21856	-25742	-17707	11025	127	254	1
-10424	-2612	14952	2881	9137	7613	-16732	-3060	236	-8936	17486	3823	-19636	-7100	-868	-8699	6295	653	-32768	-16392	-24208	7769	-26486	8476	-7544	3624	-17312	4379	-15480	13090	-13004	3444	32767	-8806	14450	6743	137	253	1
-11448	-3684	15324	2862	13460	9371	-21236	-600	-1884	-8650	18679	4753	-18556	-3016	-3696	-7281	3856	2368	-32768	-19684	-32768	8444	-12923	326	-6192	-640	-7068	1218	-894	4345	-16024	-13080	30268	2717	6093	-8047	146	253	1
-8824	-2160	16344	4015	18086	10127	-19468	-592	-2136	-5888	19809	4815	-18288	-1448	-3400	-5978	794	4177	-32768	-13880	-32768	-1223	7360	-7290	-2080	-3060	-9124	2214	18811	-7700	-22396	32	12372	9465	-1291	-8095	145	107	1
-10656	-3816	15448	5489	23970	12054	-19604	908	-1888	-3590	21009	6602	-19360	624	-372	-6378	-1569	4843	-31236	19732	32767	-8953	18282	-10338	-26060	2864	6432	11513	23924	-5382	-4292	10460	-2316	23697	8830	-426	133	59	1
-10404	-4428	15792	7648	32700	15933	-22560	-736	-12	-4688	22316	6342	-22848	-4784	2128	-7765	-4785	5898	3492	-14884	-5252	-8159	30205	-17877	-32768	13280	8632	-6675	6192	6648	-15524	-10348	-8912	18344	15586	-3768	134	51	1
-11048	-9008	17756	7802	32767	24047	-32260	932	3104	-6601	21773	6155	-30548	-4100	15260	-5013	-18412	4846	-32768	-5668	32767	-5764	32767	-12217	-2896	-11276	-1356	-26629	18009	-8109	-32280	13788	5896	-8623	7924	12800	134	28	1
-18472	-12364	12676	5350	32767	29572	-32768	4660	16356	-24446	20120	5544	-24872	11028	13376	-6188	-17406	6323	-32768	27904	32767	-7274	17199	-14853	-32768	-8612	-20724	-16070	21967	-13704	-22668	-9396	3484	-13766	7445	5874	127	156	1
-32092	-584	21476	8623	32767	32767	-25012	-16848	8924	-32768	20189	7269	-25324	-9184	3784	-14243	-17543	4178	-8304	-7388	23980	-13154	6270	-13108	-20872	-3780	-7756	1685	12853	2256	-16208	-8876	-20176	10881	8234	-4258	133	105	1
-32768	-684	24064	5273	32767	32767	-27756	-18052	-12444	-20192	24790	11020	-24624	-20848	-7804	-841	-18854	-5622	-11172	17576	10028	-7658	1965	-5589	-13540	3496	-10152	2201	19912	-6649	-6452	12024	-13652	4130	9526	-3119	142	73	1
-15732	-24932	19424	8266	26203	32767	-24716	-6896	-6984	-374	18837	4716	-29936	3380	-9900	10632	-19337	-5837	-12384	4292	14632	-5854	-1200	-4224	-9260	3920	-13956	-3801	13791	-4758	-14300	12580	-12332	-7727	12760	1890	129	69	1
-32768	-1372	-6460	28826	32767	32767	-16676	-11256	-4680	22669	7856	996	-30136	5028	-11276	11873	-21230	-7353	-9584	4316	14704	-4596	-674	-4275	-16964	1532	-10664	-11165	11647	-4229	-19104	-1380	-8264	-8548	13233	-660	129	69	1
-31384	-4412	15632	7919	32767	15605	-14924	7348	-23552	27542	3747	3699	-24608	5168	-8488	7692	-22674	-9767	-11820	3264	15052	-3371	575	-3437	-25692	-8056	-7524	-2909	7993	-3590	-19508	-3836	-3604	514	13576	-1401	122	77	1
-28012	-22516	15240	-298	7011	-20545	-13276	14820	-21028	-1940	-1433	934	-23260	6492	-6824	2460	-24100	-9127	-8620	2276	14872	-1507	1533	-2680	-16996	-5556	-5948	8306	5330	-1992	-17420	-4096	-1712	6242	14316	-3143	125	82	1
-19688	-19572	14700	9500	-18225	-32768	-6544	812	-11392	-19386	-7680	-7213	-19736	4832	-10736	-4661	-21692	-8349	-9492	3500	14004	47	2451	-1494	-16456	480	-3756	11144	5178	-1607	-16608	-612	-2808	11933	15896	-2851	126	84	1
-16300	-4884	10764	9992	-32768	-32768	-5528	-5236	-10952	-8589	-12777	-9442	-17680	3624	-10504	-5007	-19438	-9390	-9424	3776	13660	724	2319	-1082	-17068	6712	-3704	2817	5044	-427	-14836	2132	-2528	12579	16670	-5275	122	103	1
-13696	3256	7748	-6592	-32768	-32768	-3312	-1408	-8632	9284	-17881	-10900	-15980	3304	-9632	-6186	-17704	-9234	-9104	4388	13408	719	2526	-1201	-16032	3740	-2860	-5954	4896	-1890	-14944	3984	-2324	8276	17129	-4149	118	103	1
-5632	2036	6600	-21262	-32768	-32768	-4180	1200	-8292	13572	-22500	-12527	-12100	1832	-10172	-5643	-18657	-10059	-9048	4612	13072	524	2185	-1637	-16712	-1924	-3700	-609	2930	-1849	-14752	4188	-2104	4091	17178	-3290	127	88	1
-7716	-7008	7356	-18486	-32768	-32603	-4940	2956	-6376	20025	-29341	-13962	-8536	4360	-11256	-5999	-14544	-7100	-9464	4304	13072	496	1805	-2166	-15496	-1192	-2188	8470	4031	-849	-14040	4064	-272	153	17544	-4833	133	92	1
-10424	-6296	10040	-8083	-32768	-30558	-5832	4080	-11128	21295	-32768	-17056	-6264	3868	-12160	-8286	-12723	-6404	-9400	3948	12936	1340	1109	-2786	-16516	2848	-2292	9891	5043	-576	-14788	4788	1056	-2410	19458	-6529	136	133	1
-14104	1700	12772	-10148	-32768	-32768	-6084	8060	-10512	13144	-32768	-14468	-3348	2296	-12772	-8589	-8832	-5372	-9636	3892	13012	636	1647	-3026	-16076	5384	-936	2799	5518	-1514	-16648	7612	-2488	-556	18190	-4898	138	136	1
-17420	-3316	15900	-14397	-32768	-32768	-9148	4920	-11296	5149	-32768	-9255	-2184	1812	-12752	-3432	-4901	-4928	-9776	3624	13012	117	1819	-2962	-15452	1228	-1516	-3624	6491	-2676	-16612	3380	-5004	-4506	15902	-1697	132	132	1
-27016	-8256	19080	-10872	-32768	-32768	-10772	1796	-15152	2982	-32768	-10285	-2776	2356	-11444	2399	-1774	-3002	-9444	2940	13436	-226	2525	-2286	-16680	-2752	-1520	-3134	6973	-2990	-15924	-2252	-2508	-9166	13406	-2049	127	124	1
-32768	-972	19312	-8775	-32768	-32768	-15360	-844	-9896	6383	-32768	-10991	-2716	2468	-11664	3441	-1326	-2862	-9568	2736	13616	154	3674	-1866	-16976	-820	-1872	-240	7712	-2790	-16280	-2444	-48	-3517	13578	-3314	123	122	1
-32768	920	14212	-10268	-32768	-32768	-23648	-1236	-13768	11019	-32768	-7937	-1708	108	-5632	10854	2509	-5436	-9792	3220	13564	598	5299	-1662	-17912	1200	148	1178	8669	-2958	-17360	-1308	2668	38	12905	-1568	123	127	1
-32768	9224	9004	-11103	-32768	-32768	-26656	-1156	-15344	9918	-32768	-5052	-14496	-4744	8668	16005	-10600	-9417	-9960	3432	13608	768	7313	-1887	-17116	2872	2236	2042	10248	-3835	-18040	-576	3928	2569	11363	174	130	129	1
-32768	29616	-3000	-15514	-22505	-32163	-27936	3364	-7352	236	-32768	754	-32768	-21752	21296	12118	-32313	-19363	-9556	3468	14764	866	10523	-2337	-17632	3508	1672	3425	12619	-5831	-20404	4588	2520	5702	10137	594	39	124	1
-32768	17452	-24920	-8404	-20154	-20569	-11768	2812	-17872	-12375	-23567	3495	-32768	-21628	20860	9685	-26436	-20944	-9984	3976	14996	703	15485	-2812	-21568	3244	1216	4786	14157	-7519	-22292	8948	252	8818	8076	-1461	0	124	1
-32768	32767	-32768	-4720	-14355	15198	-4900	2928	-16796	-8496	-18311	6715	-5496	4640	31840	2443	11101	2972	-8928	5376	14620	392	20815	-4854	-20444	4304	1528	6484	15142	-7965	-20724	5656	1512	7430	4055	-1755	42	126	1
-16832	5652	-18372	-16208	-5180	1998	-76	-3796	-12348	-4634	22565	-2695	-21164	5868	19100	-3074	4968	12406	-9608	5456	14372	-745	26834	-7453	-20088	4532	1560	6086	16515	-9349	-21652	2536	4688	7185	-194	-331	134	133	1
-18848	-16492	17596	29460	17204	24456	-29052	-1716	3184	-6776	15991	2899	-28456	1932	20880	-10570	3802	14154	-11348	6156	14940	-1889	32767	-10894	-24232	2908	3844	6742	18703	-10475	-24980	7440	7348	10013	-2327	-966	118	135	1
-4808	7840	11768	23820	31102	4469	-32768	-25640	11624	20161	7155	-3702	-5956	3756	-15000	-11650	16039	1523	-13176	8260	16484	-3045	32767	-16244	-32588	2804	8064	10897	20040	-10666	-29780	7108	12420	8667	-10607	-1796	125	127	1
-32768	23604	32767	17040	22485	26360	-10940	4412	-3800	32767	18602	10	-31172	-22500	3592	2833	7345	-11272	-13696	9340	16068	-3309	32767	-17495	-32768	4240	7884	19230	20450	-9697	-27492	2700	20200	7998	-26015	-836	128	105	1
-32768	-28640	20364	15623	9214	20806	-32768	15536	-10220	26472	25271	10755	-32768	5812	-8248	32544	11991	-1050	-32744	13452	22008	7975	32767	-26147	-32768	11904	6876	23606	22341	-9823	-26400	360	7852	5807	-19006	-1530	74	82	1
-12312	19280	26732	16093	3101	15303	-19668	3608	-13816	7732	15300	-3306	-17612	24416	-7584	-2108	12619	3577	-32768	4584	32700	12147	32767	-32768	-26612	13664	-8424	13790	21397	-11779	-26664	11936	-7636	8319	-22498	4128	149	99	1
-13604	-14092	10156	7668	1303	6023	-14112	5512	-7728	-2933	17185	-186	-6176	-1436	-12192	-13165	8998	9439	-22276	22620	30112	17046	32767	-31020	-28832	3560	-6780	2153	19531	-11406	-28124	10452	-14060	514	-21662	8294	110	98	1
-11408	-2528	12036	4288	1152	3403	-12768	-4072	-8380	-14958	13661	435	-10000	-16900	-9504	-2656	9154	6107	-32768	9224	24076	9227	28084	-27904	-22108	-7548	-18860	-8018	13241	-3235	-29568	-188	-9352	-14635	-26164	7272	134	108	1
-10552	-4608	11852	3308	175	3231	-9968	-14320	-5508	-8498	11030	3579	-14484	-2268	-7648	10183	11699	-818	-21268	32767	28736	-6471	-11686	5981	-14240	-9168	-13040	-2859	8292	-10614	-28080	-3932	-6308	-19670	-30561	6207	162	84	1
-10732	-3852	12076	1911	-87	2864	-20968	-7764	-4280	9429	8512	1803	-18784	7640	-3312	1275	14096	1384	6168	14056	14444	-16391	-16996	4599	-14556	-5964	-4668	22894	-3026	-419	-24756	-1300	-4864	-4837	-29645	7815	169	137	1
-10600	-3440	12368	863	156	1882	-20468	2168	-3248	6339	9248	-466	-18520	3516	-2780	-9523	12664	4051	4116	688	12592	-2151	-15670	8054	-7684	3068	-7388	16666	-9484	5519	-19668	3224	-7820	-347	-25840	8216	177	160	1
-10272	-3304	11932	-11	693	789	-15604	3736	-3040	-3157	7572	2810	-13896	-2012	-2032	-11968	14440	3551	-2000	9868	13024	9332	-18773	14968	-2052	1304	-8316	-5337	-11676	8668	-21376	568	-9576	-1841	-23711	7317	185	170	1
-10576	-4112	11028	-446	1091	570	-14112	-2036	-2892	-13531	6362	324	-16108	-3272	-3048	-10524	15569	4689	-4868	17352	12316	2406	-24589	17925	-3628	-2324	-7020	-16002	-16846	12876	-18020	-404	-9640	-4449	-23374	6797	164	155	1
-10352	-4700	10696	-539	1047	922	-15228	-7212	-1600	-10468	4947	534	-11136	-3856	-3532	-4257	16253	7645	-7848	10772	13408	-3296	-30685	22146	-4012	-6680	-7896	-12638	-23226	17195	-11124	-1536	-10076	-4958	-20377	5637	140	141	1
-10428	-4716	10552	63	340	1534	-14744	-5560	-1560	-3537	5540	1211	-14816	-3724	-4616	1891	15809	4028	-9188	6700	12944	606	-32768	28833	-4668	-5828	-7988	-8620	-27637	19811	-5612	-1928	-9956	-1717	-15484	3239	128	156	1
-10404	-4104	10704	734	-736	1825	-14128	-2008	-2788	-1786	6033	1455	-15292	-4020	-2936	3767	16407	4152	-11060	6948	13232	1523	-32768	30899	-5676	-4164	-6924	-8803	-32736	21112	-6260	-2580	-11320	-1104	-9608	2663	129	175	1
-10012	-3408	11192	1119	-1164	1969	-15980	-1048	-1352	-1330	6597	1043	-15660	-3664	-3376	4217	15408	4324	-16084	4024	17220	1649	-32768	31766	-5972	-4964	-10508	-15510	-32768	23637	-6312	-2584	-11864	-2337	-4937	1100	140	159	1
-9140	-2836	11600	664	-360	1999	-16484	-1740	-1196	1086	7396	1449	-16888	-1576	-3872	8039	12017	4893	-22876	5356	20956	4946	-32768	31833	-10044	-6124	-13252	-21863	-32768	23441	-5924	-3280	-11856	-2832	-1246	1290	131	147	1
-9844	-4112	11352	573	243	1719	-15740	-1788	-916	1948	8098	1810	-15708	304	-340	4960	13345	4034	-32768	8132	21608	3271	-32768	31781	-15156	-7876	-10252	-15985	-32768	20113	-4848	-3436	-13036	-1282	-179	2075	135	149	1
-10148	-3928	11884	84	1312	1938	-16952	-2164	-2680	2330	8783	1359	-16852	3144	-1780	2237	14808	3476	-32768	9524	18680	-31	-32768	31593	-16836	-5384	-14000	-10665	-32768	19606	-3400	-1680	-11540	-977	2671	3392	131	161	1
-10104	-3660	11904	-464	2248	2380	-17476	552	-216	-1392	8935	1318	-16896	1348	-696	-2217	13615	2868	-32768	2328	12176	-3812	-32768	31442	-22284	-8328	-13276	-11187	-32768	16455	-5408	2416	-3208	-8182	271	5288	119	165	1
-9212	-5292	12952	-18	3619	2823	-16312	-564	1828	-7298	9615	1299	-17636	916	1720	-3475	12377	-530	-32768	-6564	4268	-755	-32768	25888	-28560	-9384	-16524	-3669	-32768	14982	-17316	3708	2664	-14146	-7570	9109	124	209	1
-11144	-4780	11936	-1187	5300	3971	-15132	-3568	2920	-7943	12143	1880	-18980	-624	1640	-6241	8869	-654	-32768	-8916	-7216	3362	-32671	15316	-28192	-7584	-16568	-991	-32768	15147	-28368	6744	19832	-21600	-10647	9604	126	253	1
-11124	-4068	13088	-162	8604	3826	-17280	-1104	944	-7150	15591	2937	-19420	-8460	-132	-9504	6572	1181	-32768	-16064	-22332	4872	-24422	6760	-10932	380	-15568	-2854	-13868	9217	-16216	2896	32767	-7008	12071	5220	130	253	1
-11872	-3764	13880	18	11797	5449	-19304	-2976	-208	-8743	16730	3727	-19808	-3992	-1544	-8384	4084	2174	-32768	-19692	-32768	4921	-8330	729	-9116	-3892	-6268	496	-1446	2300	-15636	-10676	25592	1349	5652	-6556	130	242	1
-11116	-4564	14864	520	15703	6615	-18420	-820	-2372	-6069	17973	3975	-18720	-964	-2640	-7383	1113	3323	-32768	-18136	-32768	-7983	25468	-13977	-7708	-888	-4632	5596	18653	-8367	-21436	400	15148	7675	-2400	-7959	129	139	1
-10124	-4468	14912	1665	20669	8811	-20776	1080	-3228	-6240	19405	5050	-19168	-780	-2520	-8255	-1313	3643	-416	32767	32767	-5340	29219	-5247	-32768	9420	26724	16820	17436	-6479	-16248	10916	4872	14877	7339	-669	132	101	1
-9460	-5948	16140	3871	28529	12113	-23052	-1448	-2000	-6975	19904	5226	-22600	-4552	-976	-7993	-3133	5015	-11784	-204	4684	-9305	31798	-18212	-28364	5992	-4836	-9660	11577	4101	-13596	-12912	-2516	11905	12414	-3425	129	91	1
-11244	-8856	16728	5265	32767	19325	-29580	444	1852	-5984	19789	4977	-27900	-1216	7980	-5630	-11043	5275	-32768	1884	28784	-6723	22094	-13780	-9208	-9008	-1952	-17768	19028	-11839	-28916	13136	6064	-3433	10423	12031	130	9	1
-12392	-10316	15616	4070	32767	26677	-32768	4848	6572	-17623	18961	4439	-29664	4716	12184	-7656	-19706	5694	-32768	24608	13916	-11871	8181	-12431	-27156	-4876	-17096	-16024	22901	-9955	-16768	-2612	-7920	-4488	3859	5626	132	56	1
-26632	-16084	13072	9146	32767	32767	-28904	-3788	8352	-32768	17356	4198	-25748	5428	8440	-10270	-18263	5544	-17824	-10816	23012	-12168	2957	-10673	-17132	-6720	-13864	-207	13617	14	-15340	-3972	-14936	10055	11935	-1240	131	59	1
-32768	684	18280	-2620	32767	32767	-22148	-17268	-2952	-25216	21595	4678	-23000	-9340	-1292	-12797	-19133	-122	-13836	6064	15752	-6959	-767	-5055	-17648	-12	-9140	1872	17243	-4430	-14484	11720	-11444	3386	10543	-1630	133	26	1
-32768	-24172	15940	-2080	32767	32767	-27000	-9548	-11796	-4804	19349	4611	-24816	-8304	-11756	-2575	-20104	-6033	-9612	6964	13124	-2949	-491	-2202	-15248	820	-10628	350	11585	-3963	-15200	7888	-9536	-9317	12549	-142	138	38	1
2124	-21164	15084	675	30968	32767	-21272	-2508	-4716	2315	13913	1522	-29448	3064	-8976	4146	-20543	-8047	-9452	4164	14124	-1908	376	-2171	-15600	3088	-8404	-3790	9620	-4300	-18344	-16	-6916	-7803	13327	-2223	129	52	1
-32768	-9272	8580	-679	32767	28393	-16712	576	-21804	15936	4610	3037	-24156	5812	-9548	5721	-21008	-8811	-8800	4188	14292	-1375	1140	-1875	-20492	-3392	-6096	-3939	7104	-2522	-17220	-2712	-3724	-1622	13408	-2274	125	71	1
-27540	-26060	16128	-4750	-1317	-11475	-10156	6068	-21204	3120	2971	-725	-22716	4780	-6592	1329	-23456	-9368	-9252	3188	14208	-720	1503	-1314	-17492	-2856	-4924	1619	5308	-2246	-17256	-2660	-3220	-442	13610	-2438	125	82	1
-13452	-22240	13272	6358	-21823	-24244	-7740	5656	-6324	-16165	-3949	-6085	-19172	2624	-8156	-7122	-21296	-8795	-9164	3764	13920	154	1923	-798	-16220	-448	-4416	3147	5101	-1186	-16224	-756	-2456	5645	15275	-3359	120	85	1
-7128	-5884	9828	4687	-30028	-23131	-7364	3176	-6468	-18764	-5213	-6874	-17420	-192	-8964	-8047	-18125	-8933	-9440	3840	13560	705	2088	-467	-17616	1360	-4152	1454	3911	-360	-15976	124	-2616	7973	15973	-4569	122	103	1
-4036	616	8112	-10374	-32190	-23644	-4248	-7872	-9016	-202	-15312	-10510	-16092	944	-9044	-6679	-16515	-9463	-9432	4028	13376	692	2098	-436	-17152	1596	-3624	525	2604	-454	-14248	1108	-3008	9434	17267	-4269	119	116	1
-8204	-5068	7384	-18267	-31989	-23557	-4364	-3392	-7004	16793	-20130	-13887	-13400	1704	-9120	-4952	-15473	-9689	-9216	4496	13116	707	1762	-335	-15504	1824	-2616	838	2430	-675	-14648	2212	-2852	7713	19612	-3247	118	109	1
-10184	-9568	9056	-14329	-32768	-26104	-6044	1644	-10756	25718	-23514	-15481	-10248	2032	-9492	-5000	-14559	-8025	-9412	4528	13000	673	1474	-407	-16384	1284	-2300	3975	2903	-484	-14808	2504	-2592	6986	20032	-2979	131	109	1
-8168	-4984	9356	-9178	-32768	-28408	-6192	6040	-8304	20081	-30314	-14280	-8252	496	-10140	-4910	-12803	-7795	-9300	4388	13032	638	1403	-555	-16584	2224	88	6695	3507	-763	-14640	5460	1508	-2106	18553	-4118	134	113	1
-11420	-1964	10728	-11311	-32118	-32768	-8808	6236	-9628	8142	-32768	-10799	-5536	-972	-10704	-2403	-9243	-6944	-9420	4496	13020	595	1353	-537	-15112	5160	1460	4682	4444	-1034	-17312	7988	20	-777	13782	-4158	137	128	1
-16972	-3904	12116	-12936	-30801	-32768	-8548	3032	-10872	2922	-32768	-9446	-4308	980	-10536	2612	-6110	-5687	-9216	4820	12556	255	908	-897	-14044	5680	636	-423	6067	-2384	-17868	7264	-896	-1970	12639	-2067	137	125	1
-22204	-4944	14196	-11003	-30132	-32768	-7388	1460	-11596	3077	-32768	-10674	-4532	2760	-11432	6264	-3883	-4239	-6792	4240	12424	-292	224	-1961	-16488	3208	-744	-4152	7309	-2847	-16764	3920	-1076	-7682	12830	-1883	132	127	1
-27488	-4224	15952	-9350	-30096	-32768	-10628	-1128	-13140	6930	-32768	-11975	-4424	2012	-11256	9508	-1266	-3478	-10120	4172	13568	-479	214	-2078	-16292	-288	-1924	-4272	7677	-2268	-15084	16	-2100	-5508	13431	-2620	125	130	1
-32768	-4708	16336	-8209	-31525	-32768	-18532	-2092	-11680	12132	-32768	-10444	-5060	336	-5824	10288	544	-4402	-9412	4028	13424	140	926	-1801	-16884	-504	-2424	-607	8201	-2531	-16440	-1616	-1728	-153	12885	-3296	123	135	1
-32768	684	11500	-8283	-32327	-32768	-24988	1016	-11296	12088	-32768	-7653	-6856	-528	-3132	9152	1348	-6586	-9176	4440	13508	1008	1297	-2430	-17720	2768	-140	3487	8803	-2140	-16684	-1428	1060	654	11567	-1705	131	139	1
-32768	5044	4016	-7982	-32208	-30597	-23356	-100	-10956	7073	-32768	-6955	-16320	-1996	8064	13952	-5157	-10691	-9040	3784	14104	142	2729	-2745	-15872	5084	716	3200	10288	-3231	-17836	-800	3072	1755	10417	2235	130	130	1
-32768	24620	-2832	-7998	-21895	-28201	-24256	2488	-5056	608	-31248	-2173	-32768	-12380	17068	11060	-21823	-17890	-9196	4304	14920	-114	5993	-3178	-19020	932	1088	4886	12272	-4891	-20492	2172	760	6694	8921	1943	50	133	1
-32768	20416	-18292	-11477	-16610	-21841	-14028	10024	-16612	-5585	-20367	-906	-19656	-2196	18080	5316	3251	-10483	-9256	3460	15340	649	10398	-3314	-20364	1548	-324	5948	13622	-5938	-20936	7152	-592	10563	6583	143	0	127	1
-32768	32328	-26876	-11248	-14631	2189	-132	3512	-5744	-22658	-5372	-4753	-10352	3056	28588	-4032	8363	3192	-9532	4808	15276	1720	16262	-4215	-20852	2436	-300	7852	14626	-6849	-21064	4260	-1120	7971	4494	-468	37	128	1
-32768	24324	-25948	-13513	-6495	10694	-7392	-1772	-8244	-17635	12487	-4480	-20828	8380	17380	-11728	7535	9235	-8024	5220	15120	736	22466	-6005	-21880	2512	1040	7633	15269	-7778	-21824	1664	336	6817	913	99	102	131	1
-32116	-32768	1360	24727	-9005	13506	-17020	-5936	-2720	-10437	23832	5921	-23320	3864	13216	-10187	2985	9711	-7992	4980	14948	786	29480	-8077	-21368	-28	-260	7078	16119	-8898	-21472	3008	3440	10068	-2036	-386	99	131	1
404	-14868	25460	26234	9966	4093	-32768	-10384	20644	-1501	9557	263	-1104	2408	-22688	-19763	22779	9081	-9128	5112	14916	700	30774	-8442	-26096	1016	2764	9121	17708	-9270	-25004	4832	5584	9651	-4904	-1237	110	126	1
1476	20712	8408	21878	25010	14599	-19204	-6656	-6952	32767	12279	1593	-20332	-11460	-1104	-6552	9715	-2837	-11884	10616	15120	-1241	32767	-15252	-30884	328	7112	13735	18349	-9260	-26188	2692	14372	11256	-16094	-1586	118	118	1
-32768	13328	27080	5594	12911	20379	-5680	18784	-6476	32767	16716	7854	-30164	-12400	-500	30275	5082	-4077	-19736	8356	18128	25	32767	-20961	-31288	8364	10068	23273	18072	-8990	-22484	-16	14672	10356	-18974	-137	89	106	1
-32768	-32736	4596	11674	10040	12898	-32768	6404	-9156	-1150	16136	4999	-27916	20688	-5588	18676	12836	5799	-23972	8640	20796	828	32767	-21246	-28604	12040	4428	17775	21117	-9851	-25444	3816	5340	11234	-18293	-243	90	108	1
