#Activity	walking 
#ActivityID	1 
#Date 09-24-16-42
acc_rf_x	acc_rf_y	acc_rf_z	gyro_rf_x	gyro_rf_y	gyro_rf_z	acc_rs_x	acc_rs_y	acc_rs_z	gyro_rs_x	gyro_rs_y	gyro_rs_z	acc_rt_x	acc_rt_y	acc_rt_z	gyro_rt_x	gyro_rt_y	gyro_rt_z	acc_lf_x	acc_lf_y	acc_lf_z	gyro_lf_x	gyro_lf_y	gyro_lf_z	acc_ls_x	acc_ls_y	acc_ls_z	gyro_ls_x	gyro_ls_y	gyro_ls_z	acc_lt_x	acc_lt_y	acc_lt_z	gyro_lt_x	gyro_lt_y	gyro_lt_z	EMG_r	EMG_l	act
-22288	3052	22656	-20492	-32768	-6550	-24864	2496	-10132	-5478	-32768	3740	-7904	3692	-5884	11046	-15342	-3543	-9416	4832	12968	369	-215	-201	-15792	-660	-3876	7127	2421	2047	-16612	292	-992	5174	17529	2161	129	131	1
-29620	136	23108	-20860	-32768	-5714	-23912	288	-12672	-12603	-32768	3378	-9956	2516	2524	-133	-14129	-4000	-8892	5008	13008	724	166	5	-16540	2092	-1832	7617	3089	1908	-19176	3856	-2688	5349	15476	-10	131	121	1
-28480	1868	18732	-20626	-32768	-5621	-23108	-2216	-14104	-16072	-32768	2011	-12948	404	4700	-3434	-8698	-4169	-8892	5624	12836	524	447	-355	-15432	4556	-272	3541	4295	1751	-19872	5740	-1240	-530	9945	-311	121	123	1
-30952	-860	15096	-18738	-32137	-6919	-22424	-5840	-14120	-11355	-32768	727	-12980	-580	7284	-4109	-8815	-3738	-9008	5908	12520	60	503	-962	-14764	5120	72	-407	5854	1110	-17204	7544	2244	-4965	6834	541	122	125	1
-32768	-76	11100	-12018	-27740	-12046	-20804	-4692	-14752	-3836	-31730	767	-10348	-2624	13776	-379	-6671	-2125	-8960	6276	12676	-366	570	-1721	-15220	4508	80	-2198	7536	587	-16228	6220	4504	-2366	9521	1226	127	126	1
-32768	6124	2032	-4979	-20878	-16576	-18520	-1876	-15332	966	-24650	2057	-10920	-300	18188	2936	-4060	-3314	-8836	6072	13156	-565	1259	-2527	-15684	3808	76	-2384	9148	379	-17088	3640	4288	680	10581	970	125	127	1
-32768	8764	-5920	3984	-12725	-16596	-13268	-5328	-16596	5111	-15238	2169	-13264	-588	17180	4597	-730	-5243	-8600	5800	13412	-441	2600	-3411	-16372	3896	276	-3776	11107	21	-18732	2480	3904	1574	9760	1092	128	127	1
-32768	11360	-11364	8974	-6444	-13433	-8764	-4208	-17712	10343	-4096	148	-14576	-604	15532	9374	-1142	-4704	-8536	4204	14748	193	5353	-3784	-16440	3600	76	-4082	11443	4	-18944	1360	3284	1081	7384	1885	132	125	1
-32768	13004	-11792	8101	992	-9590	-8640	-3996	-17820	11272	-2291	-162	-13736	3128	14732	10325	-1574	-2672	-9092	4144	15316	748	9701	-3509	-18468	252	-2888	-5846	15468	-742	-19352	940	1460	1308	5147	1695	124	122	1
-32344	10848	-7392	9726	7844	-5980	-10380	-828	-17492	12348	13355	-2100	-14300	3548	9152	9424	806	-2103	-9216	4204	15708	1738	15280	-2564	-19768	-1088	-4040	-4506	17504	-993	-19752	1284	1516	3196	3933	1182	118	123	1
-9336	15300	2800	26151	17591	2526	-13012	-3108	-9556	10602	19305	-5672	-14244	2200	9172	7246	364	-1435	-9364	5692	16056	2458	22540	-2341	-21440	-1204	-4212	-1737	18908	-619	-20996	1108	2036	5266	2806	516	135	122	1
16772	-164	32767	17273	19721	-728	-32768	17188	19032	19327	14879	1054	-20256	4100	22704	19139	10855	-1267	-9148	5064	16236	3360	32052	-2425	-24188	-948	-2948	266	20166	-671	-23836	2576	3640	3539	-18	-394	128	129	1
-23488	27680	17300	7657	23582	7464	-20228	-2296	-10948	22174	14356	2930	-18680	-10696	10632	10927	10823	-6392	-8704	7456	16220	4296	32767	-2673	-27044	-4912	-268	1566	21569	-587	-26308	2788	7600	-192	-5880	-1004	127	127	1
-18280	-4788	19700	3381	14971	11224	-21184	7064	-4164	11714	18831	-1617	-17260	16500	932	18090	9759	-4029	-9988	10716	16012	5527	32767	-5181	-30052	-8372	3308	9722	21950	838	-26304	-864	13016	-2196	-17553	-3102	133	126	1
-7524	-8824	12164	6040	17347	2167	-17644	-3024	-5460	13765	17059	-2418	-15504	10460	-9612	1068	6996	-2816	-17368	14160	15224	8218	32767	-14499	-29544	1220	3920	21443	21644	3133	-23228	-7796	27672	-9606	-32768	-9079	122	123	1
-14808	6076	16292	3468	14713	5590	-12592	2412	-10076	11635	12279	-4246	-9288	4460	-2776	-10236	5867	-1601	-32768	11820	13332	6567	32767	-23783	-24748	13460	-9744	8375	23248	4007	-17432	-9220	3212	7300	-9837	-8561	124	128	1
-18412	-3460	15904	4281	7397	4420	-22100	876	-10320	-1460	10882	-5761	-20560	332	-3768	-4905	11137	-3750	-31992	13892	16916	5360	32767	-25426	-24600	4220	-11196	7864	21842	3316	-24316	6616	-3192	16021	-13217	-4480	124	134	1
-10096	1236	15464	1265	3367	3080	-19180	1940	-6956	-3854	11318	-4189	-22648	316	-4888	-4448	11285	-3894	-27196	14108	21644	3725	32767	-26357	-20416	2684	-9408	7545	18926	2401	-29968	6564	-11048	15410	-8329	-1869	119	117	1
-9892	-756	14264	1261	1453	1439	-15756	-3024	-6240	-4797	8724	-4245	-16560	-864	-2632	-2129	10660	-713	-14752	4984	17580	14063	23248	-16032	-15828	2648	-11908	-2382	16663	903	-26892	1108	-10688	6869	-15295	1811	118	117	1
-9116	-1132	13696	605	1033	605	-17580	-1772	-5444	-2280	7201	-3892	-16384	-432	-1200	53	11380	-463	-31720	19148	32568	22430	-7531	-9625	-12648	1680	-18060	6667	12022	304	-21636	452	-7032	-2881	-20394	2003	127	128	1
-8732	-1064	13616	50	1107	94	-17748	-2416	-4824	-246	6019	-3073	-17452	-800	-688	1064	11284	-1208	-4248	15912	17196	13939	-27323	-5465	-13244	-1204	-8196	20487	4120	1556	-21744	436	-6516	-3649	-20978	1601	125	143	1
-8644	-1468	13504	-45	1046	-23	-17124	-1540	-3908	222	4768	-2647	-16740	128	12	746	11920	-1104	3888	10832	9100	5986	-26891	-3305	-9832	3684	-5868	19937	-2039	200	-22020	2624	-5968	-340	-18721	-754	128	130	1
-8972	-1528	13276	463	526	193	-17196	-816	-4160	-3353	4160	-2263	-16848	-4	-840	-1499	12563	-910	5240	7468	5684	-932	-20566	-1583	-7560	4940	-4284	9808	-7620	330	-19936	3672	-6660	1111	-17597	-247	129	131	1
-9424	-1752	13080	1150	246	-64	-16824	-1980	-3884	-6808	3537	-2017	-16660	-360	-632	-5332	13412	-623	1220	7180	7928	-3363	-16592	43	-7456	4856	-4272	7422	-8330	394	-17252	3816	-7348	-644	-16436	954	125	132	1
-9428	-1612	13244	1644	-65	-512	-16860	-3088	-3896	-6080	2865	-1694	-16964	-3776	-1976	-3462	13737	-1080	-4044	9248	11592	-4192	-19107	2863	-5784	3144	-7368	-10757	-16434	-874	-14544	3516	-7620	-3389	-16260	2119	131	135	1
-8932	-1144	13416	1435	-353	-1036	-16560	-2204	-3524	-3292	2481	-1436	-15480	-1824	-52	940	13835	-1263	-7508	9044	13948	-4270	-26159	7566	-7096	1936	-8136	-10191	-21116	-1766	-13644	1492	-7448	-7702	-16563	2783	122	130	1
-8576	-1156	13144	975	-379	-1349	-16096	-1632	-3048	-481	2206	-1357	-15928	1748	860	3308	11995	-1151	-7508	8364	13396	-3658	-32224	12302	-9104	1016	-7916	-8256	-25871	-2818	-12844	1888	-6304	-7848	-15356	2820	127	125	1
-8452	-1176	13540	446	-201	-1336	-16220	-552	-2532	-901	2249	-1531	-15744	1644	848	254	12920	249	-8352	7540	12840	-3212	-32768	15213	-9656	56	-7776	-7063	-30203	-3441	-11952	1152	-6340	-8549	-12589	2565	127	127	1
-8708	-1788	13272	248	16	-785	-16220	-2312	-2008	-2878	2308	-1609	-15828	-1692	1172	-857	11748	63	-10964	7376	13540	-2797	-32768	17207	-10208	-564	-8184	-6523	-32768	-3740	-10172	-228	-7100	-8340	-9754	821	129	130	1
-8564	-1988	13144	296	-21	-146	-16140	-2996	-1752	-2219	2724	-1519	-15512	-1988	1248	513	11540	-1230	-14484	8188	15136	-2694	-32768	18230	-11832	-412	-8944	-4940	-32768	-3598	-9480	-1692	-7760	-8868	-7250	-698	127	131	1
-8444	-1400	13268	444	25	338	-16128	-2416	-2156	-701	3065	-1218	-16252	-436	1244	1505	11279	-1524	-17672	7912	16340	-1011	-32768	18828	-14416	484	-9340	-4234	-32768	-3484	-7564	-1584	-7672	-10235	-4898	-748	128	133	1
-8616	-1072	13428	315	114	411	-16416	-1308	-2348	-1113	3594	-1071	-15624	1008	592	-1157	10198	-887	-19984	8244	16460	3315	-32768	19142	-16936	920	-9352	-5353	-32768	-3274	-6376	-1372	-7312	-10973	-1494	683	131	133	1
-8544	-1296	13456	222	319	471	-16688	-1396	-2356	-1763	4076	-1233	-15420	592	304	-3664	11528	-804	-24748	10152	18152	6371	-32768	18995	-19716	3400	-10668	-6329	-32768	-3667	-6880	-2376	-6448	-10811	525	2156	128	129	1
-8484	-932	13440	158	636	547	-16360	-1280	-2592	-2593	4547	-1321	-14476	1108	1128	-6001	12288	-1187	-30320	14420	21272	4432	-32768	19046	-23052	5404	-12744	-7632	-32768	-3190	-9652	-1872	-1184	-9566	-2257	2836	124	124	1
-4460	1520	23876	-12198	31718	13670	-19272	-264	-9260	414	15878	-3613	-28224	2056	-7144	-7670	-18087	-1987	-8692	4752	13628	-866	372	-1127	-17252	3272	-6612	3404	5679	2725	-15460	1500	-2168	697	10121	2364	127	111	1
-14616	252	27104	-14292	25867	10852	-14620	-1672	-7804	-6649	8793	-1639	-24596	3340	-7988	-3329	-20159	-921	-8368	3576	13944	-50	1021	-610	-17148	1188	-5868	-6112	4817	1569	-17172	364	128	-2054	11171	1920	124	121	1
1216	-17688	18456	-8389	-21087	2435	-14100	76	-1936	-8225	1394	-4763	-26136	4712	-7172	-2161	-21010	774	-8868	4852	13560	684	1521	-124	-16740	-736	-6144	-6094	3624	2080	-16144	-208	-56	-3397	12075	573	123	130	1
6544	-7528	10484	-1498	-21268	-1085	-8532	-2528	-2380	-5123	-6397	-4345	-21256	3648	-7016	-5876	-19575	315	-9404	5148	13216	907	1304	143	-16080	-360	-5924	1818	2325	2816	-16044	1096	-1312	-1668	12447	-676	124	121	1
5228	-4100	8284	-4491	-18092	-6011	-6892	-1460	-3072	-593	-13221	-2364	-18032	600	-7932	-5791	-17774	-663	-9344	5328	13256	686	841	356	-15732	2204	-4816	7274	1516	2672	-16212	2440	-1040	205	12708	-237	130	127	1
-732	-6376	10264	-5859	-18028	-8858	-7620	-2340	-4424	2474	-18813	-1470	-16496	1224	-8440	-4561	-17119	-1459	-9248	5480	13088	453	530	340	-15996	2872	-3360	7678	1302	2265	-16056	2448	-520	-456	12269	864	127	126	1
-5752	-7056	13516	-2714	-23241	-10115	-8576	-2488	-5944	4910	-23552	-1054	-15168	-68	-8480	-3650	-19289	-2048	-8972	5056	13172	495	433	351	-15612	2576	-2880	4727	1559	2164	-15448	244	656	-1219	13239	1080	131	122	1
-7412	-3648	14532	-1904	-29232	-12823	-9468	-1464	-6624	6937	-27957	321	-13828	-1100	-7952	-798	-18574	-3172	-8948	5064	13028	703	504	448	-15392	2008	-2928	2796	1860	2176	-15700	-780	1024	2808	13134	494	132	124	1
-11164	-3332	15976	-3171	-32768	-16027	-10576	-1228	-7272	8212	-31954	2593	-11292	-1040	-7728	825	-18524	-3681	-8948	5088	13240	761	532	396	-15484	1332	-2756	2840	2198	2074	-14684	468	1268	6254	12576	-880	127	127	1
-14772	-2260	16988	-3245	-32768	-18504	-11344	-660	-5928	9291	-32768	4255	-10792	-412	-8600	4419	-17018	-3652	-9064	5336	13040	612	416	246	-15036	2092	-2744	4988	2568	2206	-14692	2624	652	7810	12435	-1274	135	132	1
-16152	-272	16584	-3906	-32768	-19008	-13516	1400	-7512	6836	-32768	5289	-9464	800	-7996	7092	-17103	-2582	-9016	5520	12924	377	199	-129	-15104	3784	-2660	4612	3106	1995	-14632	3872	-328	7222	11616	-528	135	129	1
-13412	3812	14052	-8785	-32768	-15934	-16752	2552	-7136	1571	-32768	5941	-8500	1280	-7552	8893	-15881	-2427	-8880	5432	13048	235	17	-362	-15752	3608	-3024	2364	3587	1465	-13908	2528	2116	5623	12911	1423	134	127	1
-17700	2616	15840	-14480	-32768	-9291	-19048	-448	-9208	-3209	-32768	5626	-7592	1988	-6584	9439	-14594	-3496	-9084	5144	13008	156	112	-640	-16080	1928	-3900	1473	3754	1308	-13864	776	1216	3545	16410	3218	132	127	1
-24116	2072	21540	-15847	-32768	-4565	-21756	-740	-10776	-5689	-32768	5595	-8708	3788	-3928	4566	-14731	-3624	-9036	5132	13132	127	81	-800	-15364	360	-3520	4255	3887	1498	-15812	1236	-1036	3892	18193	2308	130	124	1
-28420	-92	23264	-18827	-32768	-3909	-24012	-208	-11636	-6852	-32768	5602	-9796	660	2164	899	-9850	-3542	-8788	5228	13148	244	228	-887	-15776	2772	-2332	4264	4577	1481	-18936	5648	-4896	3735	14686	-157	127	125	1
-31056	-2740	19524	-17707	-32768	-4754	-26272	-1684	-14024	-11200	-32768	5160	-11092	-384	4300	-1968	-8573	-4261	-8732	5336	13268	222	622	-1078	-15908	3488	-2064	1434	5605	1275	-19624	6420	-2952	-1057	9079	-402	125	125	1
-32768	-3000	12104	-14366	-32768	-8516	-22872	-5408	-15732	-8836	-32768	3571	-10520	-412	9588	1577	-6757	-3719	-8680	5444	13156	176	1098	-1525	-16036	3960	-1924	-788	6644	819	-17376	5000	1160	-3485	8529	239	126	125	1
-32768	20	5148	-8618	-28568	-14295	-19144	-5172	-16200	-2720	-29839	1990	-11388	300	17560	2537	-6643	-838	-8900	5656	13176	59	1768	-2300	-15884	3380	-520	-1099	7844	558	-16836	3756	3360	-1335	10382	797	131	127	1
-32768	5696	-1996	-334	-22491	-17812	-16940	-4208	-16368	2230	-20744	1937	-12032	1332	21572	4240	-3235	-2474	-8448	5572	13612	-104	2896	-3207	-15420	3756	732	-1136	9754	333	-18012	3384	5120	1558	10471	952	127	127	1
-32768	9444	-10468	7322	-14679	-16192	-11508	-4316	-17144	5634	-11073	1995	-13184	-264	16264	7915	573	-4306	-8764	5368	14264	-422	5191	-3686	-16612	3260	452	-3477	12234	-82	-19024	2084	5608	1818	8739	1640	129	125	1
-32768	12192	-14832	9010	-6073	-9477	-7896	-5872	-18384	8709	-748	-358	-13592	320	13420	9421	-594	-3708	-9008	4792	15076	568	8929	-3816	-18236	948	-1788	-5043	14704	-647	-20124	532	3160	2362	6838	1723	127	124	1
-32768	7524	-19832	15677	6993	1072	-10640	-4932	-19828	12854	8767	-3306	-13856	3428	14652	7749	-1946	-2119	-9000	4060	15688	1306	13871	-3286	-18840	-584	-4152	-3604	16894	-819	-19704	1148	1192	3634	5102	927	127	125	1
-5396	15840	-13012	23464	24873	198	-10836	2200	-12836	14479	19217	-3935	-15408	2496	15692	7091	-3251	-1999	-9568	5308	15948	1740	20168	-2692	-20804	-208	-4668	-1568	18385	-833	-20020	1932	688	6387	4705	602	129	127	1
-228	13396	32767	10904	28987	1089	-32768	15032	11184	20951	18307	5078	-26412	2688	21056	13595	-4857	-1108	-9040	4896	16596	2075	28499	-2464	-23308	-624	-3400	-995	19793	-1077	-23272	2708	1624	4219	2093	290	122	128	1
-32768	11316	22208	3750	20102	10463	-18488	3848	-13356	22490	18070	1230	488	8432	6504	23583	21273	-5317	-8088	6256	16500	2900	32767	-2941	-24720	-4180	-560	-96	21512	-776	-24948	3220	5356	428	-3737	-393	119	127	1
-6424	-4176	14540	3370	15625	5804	-15656	8524	-1816	4786	21964	-4765	-12804	15932	-18932	8818	13409	-3481	-9000	11740	16272	2380	32767	-4919	-30272	-6572	2524	6876	22224	129	-27056	732	10236	-1807	-14477	-2877	143	126	1
-2672	-580	9592	3956	18922	6866	-13504	-3812	-6732	8858	15935	-4152	-10068	4268	-10136	-8875	4366	549	-11496	13696	15020	3062	32767	-12227	-31276	-1956	4684	16627	21952	2340	-26384	-3632	22676	-4492	-30631	-5973	120	123	1
-20336	-5464	16696	6329	17552	8915	-14928	-5764	-9380	4681	10988	-4851	-6220	468	-92	-11121	5604	-1710	-29328	13012	14092	2922	32767	-25414	-25228	13104	-3660	14564	21973	3984	-13308	-9704	-3956	11654	-13677	-7519	130	131	1
-15932	4784	18484	7890	4792	6233	-23972	-100	-10800	4276	11267	-6344	-28188	-5440	-5208	-3330	11737	-6006	-32768	9728	16624	922	32767	-27568	-23212	6748	-11924	6609	22542	4331	-22504	2800	-1208	13128	-10900	-4555	145	131	1
-12136	-1168	14720	3441	1145	2976	-18528	2488	-6388	-3059	13090	-2982	-21504	-696	-3260	-1376	7974	-4447	-29532	12864	19528	1714	32767	-26180	-22220	748	-9452	9064	19936	1812	-26616	8372	-10580	16983	-9405	-2297	115	124	1
-10392	-396	14064	2469	41	2084	-14972	-2860	-6548	-4708	9507	-3026	-15000	780	-1148	-1227	10184	-1511	-23748	11468	22076	6703	28217	-18200	-18404	2308	-10100	186	18253	1342	-29260	2800	-11692	9352	-13568	546	119	119	1
-9232	532	13856	1339	-106	976	-17456	272	-5820	-1306	7996	-3337	-15232	1804	392	-225	10579	-248	-32768	11308	32767	16492	3473	-11458	-14224	4288	-16752	1347	14163	205	-24632	-1740	-7312	-3116	-21944	1993	119	122	1
-8544	224	13780	466	289	321	-17756	132	-5056	94	7144	-2779	-16560	1744	344	2273	11456	-1080	-7800	16636	23372	13670	-22262	-6000	-15580	-1268	-8016	14963	6321	1291	-22936	380	-6276	-5396	-22217	1423	130	127	1
-8632	-448	13700	12	585	235	-17180	-980	-4440	1093	5581	-3091	-17020	3064	224	1091	11344	-818	2592	10168	12932	8192	-25602	-3306	-11064	528	-5380	17540	-306	699	-22992	1900	-5212	-2110	-20885	-363	117	143	1
-8728	-948	13376	-100	555	456	-16896	-396	-4132	-467	4805	-3077	-16972	840	316	-1472	11836	-286	6244	7184	7776	3495	-21345	-1250	-8132	2608	-4520	12356	-6455	537	-20108	1128	-5424	2352	-18578	-678	124	134	1
-9328	-1164	13156	388	181	354	-16972	-2024	-4212	-3835	4130	-2519	-16896	-1768	-84	-2733	12574	-284	3556	6476	8072	542	-16872	929	-6324	2192	-4616	371	-11713	645	-17580	1716	-7052	2796	-16505	411	119	132	1
-9112	-1256	13364	893	-228	8	-16740	-3964	-3972	-3975	3466	-1703	-16984	-3064	-560	-3408	13852	-718	-1832	8304	10956	-1993	-17614	3293	-5356	2352	-6664	-6099	-16141	173	-14580	2560	-8176	6	-15612	1529	127	132	1
-9068	-1032	13296	897	-579	-98	-16328	-4168	-4028	-1436	3097	-960	-16628	-4580	-484	81	14198	-1924	-6336	8144	14072	-3172	-23103	6613	-6012	1364	-7788	-7901	-20503	-333	-13960	1668	-7584	-1580	-15028	2261	128	130	1
-8672	-804	13388	705	-655	-131	-16096	-2336	-3484	1368	2845	-397	-15300	-2596	-64	5091	14244	-2010	-8760	7504	14604	-2277	-30576	11620	-8212	704	-8284	-6821	-24902	-1257	-13544	2132	-7088	-3123	-14271	2354	129	124	1
-8424	-612	13344	516	-564	28	-16008	-864	-3276	2748	2622	-430	-15604	1856	1864	4898	12152	-971	-8732	7396	13464	-1510	-32768	15205	-9744	560	-8252	-5529	-29491	-1768	-13524	1924	-7360	-3819	-13862	2380	132	124	1
-8436	-468	13376	282	-284	105	-16420	44	-3052	1492	2644	-698	-15832	1824	1472	5309	12832	200	-10420	6736	13576	-913	-32768	16930	-10328	-712	-8172	-5343	-32768	-1889	-11360	-596	-7380	-5825	-9957	536	123	131	1
-8420	-520	13540	230	-71	196	-16292	-836	-2844	54	2833	-970	-15660	1600	1304	4070	11790	-234	-14300	7020	15192	-58	-32768	17969	-11432	-1104	-9088	-5192	-32768	-1386	-8968	-2328	-8144	-7175	-8341	-1270	127	132	1
-8340	-288	13496	233	35	468	-16280	-792	-3192	145	3063	-1231	-15440	2464	1484	3640	11610	-878	-18164	7160	17112	1503	-32768	18282	-13836	-332	-9324	-3583	-32768	-906	-8012	-2660	-7684	-10243	-6590	-1655	125	133	1
-8432	56	13592	-10	208	272	-16380	-472	-3196	-436	3482	-1150	-15668	2544	896	2177	11532	-1357	-18792	5908	16804	6034	-32768	18055	-17236	172	-9552	-3427	-32768	-584	-6812	-2404	-7048	-10790	-3780	-520	129	136	1
-8472	-524	13548	-50	384	348	-16516	-1588	-3100	-966	3775	-1280	-16484	1868	-8	-282	10926	-1133	-22424	7024	18680	10315	-32768	17685	-19232	516	-11060	-3581	-32768	-963	-6964	-2104	-5244	-9767	-1793	1373	130	125	1
-8620	-536	13444	78	508	597	-16428	-724	-3164	-1719	4100	-1465	-15004	868	168	-1820	12816	-1371	-29876	10616	24588	9319	-32768	18563	-21924	1256	-11572	-860	-32768	-787	-9388	-1840	-1336	-8011	-3084	2451	131	119	1
-8528	-176	13464	50	644	583	-15968	-1004	-3156	-2641	4670	-1560	-14048	1024	168	-5143	13446	-1233	-32768	11128	25192	3775	-32768	21273	-24072	4956	-11872	327	-32768	-1572	-12516	1416	5232	-3775	-6159	3097	127	118	1
-8344	-692	13636	80	825	697	-16088	-1928	-3044	-2805	5232	-1666	-13024	1104	1972	-7286	14430	-1147	-32768	7180	17224	-452	-32768	23362	-21032	3104	-13036	1954	-32768	-2782	-12388	4956	8360	-2580	-5336	3273	124	116	1
-8528	-864	13660	215	1142	1039	-16492	-1964	-2936	-2717	5719	-1409	-13512	292	2416	-3170	15790	-2153	-32768	6336	5560	-3854	-32768	23398	-18004	2820	-12780	-5109	-32768	-1971	-12516	620	11216	-8498	-3828	2984	121	120	1
-8512	-620	13436	433	1329	1356	-15704	-1144	-1788	-3534	6803	-1638	-18044	-1568	-432	-3136	14699	-1856	-32768	-4984	-10260	-3960	-26561	19675	-13432	-5152	-12396	-6366	-25695	1776	-13652	-5132	22604	-12909	-7000	2116	121	125	1
-8136	48	13960	588	1760	1385	-14872	-1152	-944	-2559	8479	-1606	-20728	-3452	756	-2519	8500	-1064	-32768	-24468	-23132	16101	-14830	16104	-492	-1404	-13816	4544	-8103	2836	-18480	-7244	32767	-10507	-7378	876	124	127	1
-8116	28	13956	677	1842	1352	-15796	-1352	-2012	-229	10464	-1072	-17320	-2140	4848	645	6888	-730	-32768	-11224	-16852	5367	1091	5978	-5048	8056	-14188	4876	6204	1738	-18372	-5376	19480	6723	-4910	-119	127	130	1
-8004	2600	19484	1057	4155	-4	-16836	4932	-368	-2208	12185	-1064	-17048	1168	4820	-58	9348	-6	-32768	-20540	-9540	-3709	11921	-11719	-9620	7156	-15168	-2949	15210	667	-15252	244	2672	11930	-4160	851	128	134	1
-8092	-132	15968	336	8026	131	-19244	-2016	-2432	-2809	14452	-971	-18320	2188	4500	-5254	9607	1319	-3144	-5056	-6968	-750	26183	-13783	-12452	5484	-6132	-17021	22383	217	-17276	4412	2848	10085	-5390	4865	127	132	1
-8228	-1312	17336	482	12848	724	-21116	212	-1636	-2781	16290	-1413	-19296	1968	4620	-5369	9123	1409	-12508	17288	32767	8807	32767	-7605	-32768	-11112	7592	-27478	20401	-6987	-24072	940	11156	-5250	-12726	6578	125	141	1
-8380	-832	18848	1240	20190	931	-24652	-2168	-1708	-835	19419	-564	-24952	-1892	8840	-4548	387	-1761	-32768	8168	22448	-2922	27568	-8447	-20852	-472	-18632	-31975	23698	3512	-14876	-3424	25544	-19028	4709	5950	127	120	1
-8512	-2724	20836	2190	30120	1897	-28412	276	-512	1245	22104	-596	-26600	-280	15912	-2316	-6348	-634	-7476	-3064	16792	-421	16700	-10200	-9376	-9104	-9520	-14364	21949	4997	-16380	-7760	-27748	-1632	10748	-3181	126	102	1
-8428	-2840	20956	2340	32117	2110	-32768	5368	2656	-99	24098	-2613	-29844	3124	21512	-1010	-17629	2959	-6196	9408	10036	-49	18679	-10478	-12864	2164	-10740	981	15703	6404	-9192	-3488	-11704	4255	1276	-2104	120	129	1
-7548	-8800	24892	5150	32767	8631	-32768	8708	6784	-6896	24026	-3837	-23536	9012	10632	10317	-8407	7703	-19492	7432	14720	-9997	6164	-11018	-17336	17368	-18280	799	13726	7550	-9516	788	-7500	10650	10270	3246	123	118	1
-11236	-220	21812	7102	32767	15286	-30364	1968	5232	-20364	24797	-3802	-23752	19340	3768	-14017	-14510	10306	-15188	6828	13604	-4704	354	-4141	-20088	-4296	-15788	-3128	10712	4561	-29804	8952	-10644	7562	11282	6998	130	130	1
-32768	-9312	22716	4224	32767	22742	-26228	-11912	-11880	-24717	25076	-3733	-24596	1412	-1432	-22370	-5931	4956	-11156	4424	13136	-1197	168	-548	-15448	-828	-10812	12549	9186	3134	-22168	2664	-5052	3428	9217	5859	134	104	1
-32768	-11096	29116	2024	32767	26526	-26960	-8492	-10600	-7651	22183	-4857	-31064	-1244	-12824	-23587	-10624	1710	-9524	4436	13556	-140	374	-542	-16956	4060	-8332	9045	6701	3439	-16712	3160	-2904	4420	10763	3706	130	115	1
-4596	-12864	26396	-4674	28305	18185	-20260	-2728	-9248	4005	18637	-5024	-31920	3788	-8060	-9207	-17067	-1982	-8940	4532	13412	622	776	-362	-16720	2512	-6972	2811	5346	2491	-17268	3152	-1200	2246	11067	1749	133	112	1
-23660	-18468	32767	-10916	-1870	2802	-15168	-112	-7268	-147	9983	-3759	-26108	3392	-8636	-5593	-19953	-2508	-9692	4760	13312	1244	1009	126	-16584	3204	-6660	-3185	4349	1928	-17356	2544	-828	-2054	12180	988	125	111	1
3452	-15816	16620	-3833	-13495	-2379	-13380	1532	-2204	-3667	1720	-5908	-26248	4144	-6936	-4684	-20331	-1236	-9736	4744	13248	1286	1016	104	-16608	852	-6804	-2837	2898	1988	-16760	1664	-1208	-3376	12862	1353	123	134	1
6648	-6728	10140	-2447	-12981	-7431	-7976	-1696	-3248	-1356	-5627	-5565	-21620	2548	-8044	-7632	-18252	-925	-9712	5104	12760	1105	923	692	-15968	616	-6528	1293	1750	2137	-16844	636	-1456	-956	12920	1275	121	126	1
3752	-5296	8812	-4377	-12383	-11553	-6128	-1316	-3924	2089	-12000	-3928	-17080	-340	-8960	-4409	-16364	-1725	-9524	5084	12944	1206	961	912	-15932	1648	-5428	4008	1046	2108	-16228	856	0	-1502	15208	809	130	123	1
28	-4268	10488	-3828	-15121	-13822	-5112	-1468	-4788	5119	-17518	-2677	-16600	660	-9772	-3386	-17739	-2324	-9392	5328	12760	1162	992	872	-16012	1624	-4580	4980	673	2083	-16464	448	692	531	14368	1235	130	125	1
-464	-4048	10752	-3696	-15846	-14060	-5908	-328	-5372	6414	-22335	-1460	-16320	1092	-9796	-3389	-18115	-2350	-9428	5260	12676	1076	1064	711	-15856	1756	-3880	4103	646	2277	-16208	-552	900	2509	14695	1193	130	125	1
-6536	-1216	14772	-949	-27220	-15792	-6556	-528	-6108	6627	-26607	85	-13012	-1412	-9760	-63	-18053	-3716	-9536	5044	12716	1032	939	662	-15196	1556	-3360	3656	877	2419	-15176	-512	1572	4440	14219	361	133	128	1
-7564	2392	15512	-2175	-32768	-16176	-8004	-88	-6136	7092	-30214	2477	-10972	-1832	-8632	2771	-16729	-4442	-9444	5260	12612	954	945	472	-14996	1980	-3280	4258	1190	2407	-14580	848	1220	6889	13669	-1200	132	126	1
-8080	2456	15324	-6232	-32768	-15434	-10960	404	-6244	7156	-32768	5501	-9596	-2360	-8404	3600	-17095	-3951	-9524	5532	12368	632	724	139	-15080	2912	-3140	5031	1529	2311	-14612	3024	312	7751	13452	-1569	131	124	1
-12632	692	17564	-7144	-32768	-13206	-12720	56	-6864	5609	-32768	6891	-8916	-1468	-7964	6841	-15733	-2657	-9620	5432	12360	335	376	-205	-14932	3584	-3468	4185	1963	2131	-14772	3472	-168	7586	13506	-1515	133	129	1
-15796	2376	18096	-9456	-32768	-11653	-14832	1200	-7224	3976	-32768	7530	-8500	-492	-8308	10702	-14148	-3154	-9716	5344	12468	162	20	-249	-15268	2512	-4132	3740	2255	1756	-14576	2948	-1028	5735	13618	-145	132	133	1
-17252	1992	16968	-15174	-32768	-9315	-19060	1144	-8936	1494	-32768	7992	-7956	956	-7844	13548	-13873	-4329	-9532	5412	12648	138	-78	-388	-15768	1780	-4340	4690	2398	1764	-13356	1612	1684	4880	15038	1121	129	130	1
-24332	-320	19928	-16076	-32768	-8993	-21660	-152	-10264	-240	-32768	8873	-7216	4136	-4228	10963	-14309	-5198	-9512	5068	12628	182	23	-552	-16232	1000	-4320	5978	2528	1909	-13920	-12	-500	4394	17691	1793	127	128	1
-26392	-3388	20736	-13538	-32768	-11295	-26104	-356	-10696	744	-32768	8859	-8436	4212	416	6448	-12488	-5385	-9444	4856	12852	522	213	-408	-15528	1420	-2968	7048	3026	1853	-16804	1732	-2656	3615	17689	248	129	125	1
-32764	-5560	20684	-8672	-32221	-13574	-25708	-3452	-13676	-2323	-32768	8727	-11944	2464	5040	3954	-9734	-4030	-9304	5512	12684	487	443	-423	-15464	3600	-1360	4616	4052	1698	-19092	6504	-4160	1599	11709	-1478	127	124	1
-32768	-6176	13908	-7989	-32057	-15770	-24316	-7292	-15604	-1336	-32768	6564	-12648	3264	9636	5433	-6721	-3057	-9316	5856	12716	196	673	-797	-15316	5008	-148	256	5596	1199	-19652	7980	1580	-3735	7845	-304	130	123	1
-32768	-1456	4740	-4128	-27447	-19389	-18692	-5072	-15704	4008	-31723	4090	-11128	4208	16752	4766	-6421	182	-9032	6324	12584	-249	976	-1743	-15340	5368	944	-2417	7441	582	-18508	6472	5804	-5038	8744	1385	129	124	1
-32768	8228	928	-3454	-21407	-18468	-17832	-1376	-15680	1141	-23167	2471	-12804	4976	20976	6195	-3568	-833	-9104	6004	12816	-491	1557	-2811	-14896	4360	1036	-2933	9630	250	-17928	6152	5888	-4517	9344	1504	129	125	1
-32768	16000	-9428	-1740	-15924	-9570	-12952	-3764	-15388	-4607	-13819	861	-12036	3560	19292	5846	-83	-3436	-8560	5592	13744	-284	3265	-3591	-16340	4328	244	-3748	11887	-307	-18024	3768	4828	1293	9469	879	127	126	1
-32768	15044	-13432	-992	-7730	3498	-8428	-8088	-18848	-4898	-3765	-1787	-13248	668	14616	722	-1064	-4053	-8744	4892	14796	253	6926	-4249	-18208	960	-1668	-5085	14120	-693	-19432	1712	2660	2389	8393	853	131	126	1
-32768	11900	-14572	-127	-1335	9648	-7144	-4536	-19700	1638	7253	-3779	-13576	964	13720	-1134	-1468	-2777	-9236	3952	15504	1074	11832	-3702	-19016	-756	-3728	-4031	16262	-1040	-20384	272	1372	3665	6440	648	140	125	1
-32768	-2644	-17248	28586	12745	12328	-11024	-892	-22980	5837	15805	-7471	-12416	2620	10344	1128	-559	-1721	-9536	4516	15796	1982	18398	-2842	-20624	-1128	-3996	-2089	18153	-1316	-21012	-84	1608	5096	5388	697	118	124	1
7944	484	32767	14697	22920	-7792	-26156	19844	22628	14443	20458	654	-14368	1808	15208	8826	-3715	360	-9228	4956	16936	2569	26521	-2504	-22692	-232	-3788	-658	19615	-1402	-22312	1292	2284	4700	3029	291	136	123	1
-24160	30536	21292	6842	27129	7340	-31472	-5560	-7952	23972	16029	1305	-16612	-4996	11120	21355	22787	-6652	-8968	6232	16312	3510	32767	-2189	-25804	-3212	-732	-103	21441	-1843	-25836	3640	4964	1409	-2209	-584	132	127	1
-20996	-2592	20624	3100	16230	11402	-14220	10160	-4336	12825	19782	-1949	-16640	21104	-1700	17643	11830	-2833	-8908	9560	15848	4549	32767	-3684	-28740	-7240	2448	5183	22851	-674	-27216	2872	10824	-703	-12581	-2196	137	129	1
-3196	-9536	10504	5653	19128	2988	-17040	1868	-5236	9426	18849	-4839	-16220	11072	-17376	-8990	6792	-527	-12100	13832	15188	5214	32767	-9700	-30312	-5500	4548	18184	22785	1633	-25012	-4236	18144	-1943	-27902	-5952	125	126	1
-16032	5580	15732	4464	18256	7483	-11616	-2448	-9872	3674	13424	-5221	-4320	-1348	-2732	-20211	4993	532	-26496	13908	13984	6145	32767	-22506	-26572	13408	-2648	17898	22701	3105	-12116	-10500	-5028	9478	-17228	-9459	132	134	1
-19168	-2812	17440	8116	6048	5004	-21432	-4084	-11904	-2122	11331	-7428	-22100	-6908	-5120	-7792	11593	-4092	-32768	11000	16964	4593	32767	-26057	-23820	8844	-11872	3131	23867	3565	-24012	1112	-1884	12758	-11918	-5004	143	132	1
-12088	-384	14972	3129	1145	2239	-20016	2556	-7508	-2490	13540	-3710	-25536	-2960	-6400	-2867	9576	-3156	-32692	16920	20592	3257	32767	-28214	-23188	364	-11340	6013	21104	1747	-27212	8492	-9916	18160	-10999	-2284	109	125	1
-10096	-1044	13648	2242	475	1469	-18868	828	-6672	-3464	13289	-3387	-15720	-60	-2108	957	10984	-2749	-22936	11716	20888	6521	25835	-20807	-19072	2992	-9472	354	19555	1199	-29156	5420	-11288	10991	-13620	936	121	126	1
-8720	-100	13656	1195	410	818	-17432	-892	-6512	-271	7822	-3624	-15768	60	-2084	801	11014	-2425	-32768	10476	31948	18170	4356	-14091	-14336	3484	-16788	91	15066	-893	-24528	216	-7868	-1502	-20605	2836	112	121	1
-8476	320	13908	14	1109	139	-18556	-1292	-5764	3059	6760	-3026	-18608	1732	-332	3951	11074	-1216	-10160	16712	22428	15979	-20260	-8801	-14504	-1236	-9144	14536	7818	61	-22296	276	-6756	-5065	-21057	1474	123	124	1
-9512	-1052	13420	-830	1495	6	-17512	212	-5400	1579	5270	-2999	-17508	3268	-508	3247	11367	-903	104	12140	12264	8765	-25246	-6546	-10700	1188	-6588	18197	1295	-363	-22928	1828	-5352	-2153	-19813	-199	124	140	1
-9700	-608	13156	-652	1202	-346	-17024	588	-5172	-4024	4532	-3306	-17296	2156	-480	-1392	12466	-741	5092	9292	6668	1493	-21781	-4720	-7592	4164	-5548	12516	-4879	-318	-20524	1236	-6388	1315	-17941	-648	123	138	1
-9400	-984	13308	-129	1007	-947	-17136	-2512	-4824	-6549	3836	-2860	-17548	-464	-780	-4267	13286	-448	3388	7636	6388	-2171	-17358	-2255	-6312	3500	-5504	563	-10514	99	-18472	3444	-7684	1769	-16670	502	119	133	1
-9336	-1188	13216	82	831	-1424	-16676	-3976	-4632	-4679	3111	-2102	-16620	-1356	-420	-5312	13904	-543	-156	8804	8568	-2878	-16749	1043	-5124	3012	-6832	-5996	-15106	-638	-15024	3596	-8380	-1805	-16060	1809	122	131	1
-9100	-1204	13124	-35	757	-1356	-16496	-2940	-3976	-2214	2692	-1658	-17160	-2512	92	-2534	14317	-1954	-4704	9736	11248	-2895	-20516	5579	-5468	2584	-7724	-8278	-19546	-1216	-14444	2740	-7676	-4492	-15434	2855	124	133	1
-9080	-1396	12932	-148	879	-1064	-16136	-2176	-3656	-1622	2434	-1411	-16224	-2608	-616	2224	12923	-1828	-7968	10448	12756	-3177	-26461	11445	-6968	2512	-8280	-9025	-23890	-2029	-13092	2304	-7664	-6657	-15087	3136	126	127	1
-9040	-1408	12900	-46	813	-535	-15520	-2536	-3036	-1706	2333	-1327	-14956	472	828	981	13545	-716	-9852	10340	13104	-4215	-31634	16112	-8720	2144	-8508	-9487	-28196	-2618	-12060	1472	-6652	-7993	-13363	2722	130	125	1
-9024	-1444	12880	210	563	141	-15580	-2540	-3068	-1653	2280	-1341	-15496	-584	1412	-324	12086	-279	-11164	8636	12960	-4493	-32768	19300	-10216	644	-8716	-8523	-32311	-2963	-11208	184	-7380	-8814	-11008	1647	128	125	1
-9092	-1224	12972	214	487	268	-16100	-3220	-2660	-1648	2879	-1097	-14928	-2248	1084	-400	11934	-877	-13008	7524	13548	-2798	-32768	21143	-10988	-556	-8952	-7268	-32768	-3155	-10140	-1348	-8124	-9110	-8852	131	133	130	1
-9056	-1312	12984	335	344	631	-15812	-2968	-2852	-15	3175	-750	-15904	-1288	152	382	11479	-1772	-17420	8512	15904	-1196	-32768	21731	-12404	184	-9684	-5722	-32768	-2884	-9156	-1976	-8228	-10993	-6427	-276	129	131	1
-9148	-1096	12960	385	283	752	-16176	-1676	-3444	277	3515	-559	-15616	836	124	-2292	12516	-1972	-20448	7752	16908	248	-32768	21512	-15004	1440	-9580	-4631	-32768	-2734	-7064	-1852	-8148	-12187	-2963	505	130	134	1
-9016	-480	13000	321	294	794	-16304	-304	-3752	-989	3830	-931	-14700	1568	-304	-4306	11859	-1290	-22184	6360	17212	5165	-32768	20532	-18060	1028	-10316	-5495	-32768	-2655	-5564	-1600	-7576	-10071	338	1933	129	132	1
-9012	-1196	13212	308	528	752	-16828	-1296	-3860	-2156	4135	-1197	-14248	2596	2036	-4727	14790	-1643	-27280	10012	20868	7005	-32768	18666	-21420	3384	-11660	-4674	-32768	-3141	-6772	-1768	-5568	-8402	262	3076	126	123	1
-9100	-788	13204	318	843	978	-16456	-1152	-3664	-2874	4485	-1369	-13572	3440	2000	-1948	16209	-2308	-32768	14500	24640	3135	-32768	18305	-24084	6832	-13656	-5489	-32768	-2856	-10648	-332	768	-7644	-4551	3660	122	121	1
-9032	-736	13128	260	1250	1081	-16264	-1048	-3468	-3042	4516	-1412	-16248	1528	-2528	-6428	14845	-776	-32768	15056	18460	-1299	-32768	21182	-23756	3900	-14396	-5780	-32768	-3705	-14704	2608	6476	-7854	-8177	3661	121	117	1
-8928	-480	13456	341	1731	1056	-15708	-1304	-2528	-4941	6024	-1850	-19512	-2084	-1312	-6422	9602	299	-32768	11200	7760	-1379	-32768	24794	-19440	-1668	-15232	-1391	-32768	-1867	-14024	1224	8716	-11379	-4791	3203	125	125	1
-8908	-348	13464	411	2635	947	-16236	-1652	-2204	-3317	7428	-1638	-18612	-3296	3076	-2634	8719	-1122	-32768	-2464	-8532	2978	-29337	22611	-16336	-6592	-14672	6558	-31762	5121	-14296	-10604	20936	-12390	-5575	1594	126	128	1
-9044	-328	13660	71	3913	655	-16048	-1220	-1292	-1972	9273	-1339	-16484	-1584	5148	-1040	9274	-773	-32768	-30132	-23908	26671	-17880	17777	-1508	760	-14620	18700	-13535	7868	-21580	-9852	32767	-9292	-7333	771	125	125	1
-8784	108	14288	-6	5532	451	-16184	-2508	-1168	-462	11120	-1022	-17096	-2572	5916	-425	10129	129	-32768	-28612	-24108	28748	-15305	16339	-2780	15168	-14324	13736	4561	3908	-21028	-228	23212	11731	-3637	-259	126	129	1
-9368	-1032	15104	68	8312	479	-18436	-3016	-1512	1955	13261	-482	-19868	-2576	4748	777	9671	87	-32768	-17080	-18636	-15718	13093	-17585	-10416	11620	-15652	-6119	16876	1237	-18044	5620	4816	15505	-5424	3809	128	134	1
-9356	-2076	15924	478	12537	1444	-20668	-1024	-2012	1464	15282	-730	-21500	-92	4652	-688	7337	201	-7284	700	14216	-19999	23434	-24162	-17508	5532	9788	-16723	20792	262	-15112	5588	-584	12848	-1968	7363	127	121	1
-9280	-880	17128	733	18205	1938	-22412	424	-2468	-278	17347	-1014	-21228	628	6436	-4624	3868	841	-10552	14640	23592	2204	32767	-6366	-32768	-6348	-984	-32768	20015	-8731	-22200	-576	5288	-1331	-5545	8342	128	125	1
-9240	-1924	17780	985	26028	1903	-25048	-368	-1200	543	19881	-709	-24128	940	9348	-5883	-1363	-1128	-32768	-12700	30660	-6375	27453	-8488	-22124	-15320	-15324	-32768	25148	2723	-30684	1328	32767	-32768	-9986	12927	129	121	1
-8568	-2520	19584	998	32767	3146	-28476	2244	612	626	22144	-1677	-25268	2308	18352	-3329	-7579	501	-8124	-384	15980	1632	13548	-10012	-12096	-16452	-11544	-7888	22896	4396	-10968	-14228	-32768	3013	22250	-5036	127	102	1
-6504	-4832	21248	567	32767	4783	-32768	11280	5312	-4318	23091	-3144	-29624	7352	30044	4838	-22861	4147	-16152	18040	12536	-3808	16934	-10325	-11700	10508	-11388	3238	17532	5940	-12540	-9636	-9924	709	-1830	-4680	124	134	1
-15652	-6180	22748	2227	32767	9585	-32768	11720	5392	-18229	23829	-3717	-16556	19620	-7808	-11220	-5584	10346	-17480	3976	17236	-9481	3882	-10666	-15268	18856	-14932	-6329	13878	7691	-3832	8364	-7904	12954	8695	2364	130	125	1
-32768	-7060	20732	207	32767	16401	-26204	-13236	-8596	-22810	25552	-3057	-22924	6856	2972	-21674	-12160	8266	-14588	3476	15044	-5235	-499	-5359	-20556	-4620	-14476	-9080	11502	3162	-27920	9044	-7292	2321	12847	8776	129	126	1
-31236	-12272	24788	5730	32767	25429	-29952	-13128	-5532	-11521	24360	-4519	-29588	-2688	-9216	-22517	-6074	2628	-10520	3448	14040	-1284	-486	-1348	-16340	-4648	-9688	11756	10180	2323	-22568	148	-5664	940	8453	8393	130	112	1
-20956	-10456	31352	-1322	32767	22185	-22232	484	-7664	947	20527	-5507	-31700	1000	-11752	-18624	-13344	-156	-9064	3404	13760	-501	-89	-984	-16384	1432	-8168	13052	7695	4034	-16448	-1036	-2720	4872	9694	3076	135	117	1
-24912	-1132	29860	-13327	21203	11278	-16684	-1424	-11504	550	12540	-3880	-28732	3944	-7496	-6907	-19142	-2172	-8664	3280	13732	298	529	-661	-17048	624	-6516	7848	6215	3836	-16348	800	-1156	6234	9866	1745	128	117	1
-13308	-19136	28452	-20682	-11116	2533	-15008	-232	-5496	-7881	5851	-4341	-24424	4172	-7824	-3829	-21337	-163	-9728	3128	13776	1398	1137	10	-16984	5228	-6564	-3126	5310	2436	-17428	2716	-956	1881	11111	816	128	143	1
1564	-14408	15804	-6908	-21810	-272	-12076	-664	-3208	-8059	-1695	-6480	-24344	4436	-7188	-5127	-20466	796	-9588	3908	13292	1450	1233	295	-16672	1432	-7436	-6128	3975	2671	-15992	3568	-2056	-817	12634	755	124	134	1
5828	-5456	9584	-2874	-21794	-5564	-7284	-1864	-3464	-3396	-9055	-5375	-20108	2252	-8044	-8500	-18845	405	-9684	4480	13148	1467	1210	834	-15964	1132	-6848	502	2732	2607	-16780	3452	-2972	-885	13764	620	129	121	1
3288	-3348	8560	-5061	-19637	-10841	-6468	-232	-3916	914	-15324	-2877	-17448	-1016	-9636	-6556	-17905	-1033	-9648	4448	13112	1314	1112	839	-15732	2120	-5724	3826	1689	2465	-16836	1520	-1548	-772	14611	887	132	132	1
-1076	-4148	10808	-4503	-20843	-13204	-6284	-1216	-4864	3725	-20638	-1411	-16056	-476	-9324	-2904	-17113	-1746	-9424	4464	13100	1173	1111	641	-16076	1864	-4452	5053	1266	2223	-16480	904	-704	-1365	14310	1132	129	130	1
-5016	-2924	13640	-1625	-26051	-14367	-7176	-1316	-5724	5975	-25549	-98	-14556	-1112	-9860	-2457	-18318	-2624	-9544	4216	13180	1149	1207	643	-15728	2432	-3700	4099	1296	2449	-15972	-52	780	432	14799	1392	131	132	1
-7656	-972	15248	-929	-32536	-15663	-8632	-988	-6256	7643	-29620	1958	-12932	-1544	-9024	1686	-16512	-3798	-9492	4320	12968	1111	1169	559	-15044	2528	-3364	2437	1521	2503	-14760	-28	980	2592	13128	-220	127	127	1
-9508	312	16256	-2532	-32768	-16352	-10000	-428	-6544	8241	-32768	4544	-10976	-2132	-9404	2417	-17372	-4150	-9496	4568	12808	835	965	371	-14888	2280	-3012	2713	1955	2304	-13956	1376	852	5758	12824	-1069	128	127	1
-11052	416	16568	-5202	-32768	-15749	-12080	60	-6520	7276	-32768	6478	-8944	-1508	-9840	5333	-15821	-3153	-9636	4780	12516	411	623	-9	-14696	3440	-3104	4424	2233	2319	-14936	3420	-300	7284	12480	-1024	141	129	1
-11376	288	16524	-5629	-32768	-15499	-13352	220	-6984	4763	-32768	7489	-7260	-316	-10308	8354	-14414	-2196	-9576	4692	12696	80	254	-395	-15100	4268	-3252	4341	2721	1879	-14744	4592	-936	7280	12195	575	124	131	1
-15324	-452	17308	-10779	-32768	-11459	-16140	64	-7480	2057	-32768	7421	-5844	624	-11428	11014	-12178	-2586	-9448	4704	12876	-42	132	-631	-15304	4392	-3440	4102	2804	1812	-13456	2008	2852	5901	14255	2167	133	132	1
-18672	-1084	17852	-14930	-32768	-9836	-19772	-360	-9436	-210	-32768	7919	-4268	1976	-10156	12123	-10213	-3948	-9620	4224	13012	-78	310	-916	-16468	1328	-4992	3483	2941	1456	-13656	120	184	5866	18717	2695	129	130	1
-27980	-2940	24424	-16652	-32768	-10550	-24440	-1000	-10952	-2622	-32768	8178	-4616	2584	-7080	11303	-6890	-4452	-9572	3912	13048	-45	393	-920	-15164	-652	-3476	7410	3195	1788	-16280	1072	-2952	7610	19962	970	130	125	1
-32768	-5216	27700	-14798	-32768	-12469	-30488	-4280	-13360	-2354	-32768	7543	-7800	836	2884	5966	-9736	-3739	-9460	4588	13024	95	637	-925	-15088	3296	-960	7280	4346	1812	-19824	5324	-4608	5560	12696	-942	130	125	1
-32768	-9472	22088	-11975	-32768	-13704	-30300	-6256	-15260	-1995	-32768	7318	-16164	1252	9664	6459	-12683	-2833	-9272	4612	13132	31	1076	-1342	-15320	5560	-352	2056	6051	1419	-19256	7652	1532	-1393	5936	-102	123	124	1
-32768	-4560	12112	-8293	-32768	-20553	-22632	-3580	-16716	-1636	-32768	4471	-15320	-364	14040	8629	-8659	-2153	-9336	5152	12916	-180	1730	-2071	-15872	4488	-404	-1018	7731	728	-17712	6828	5228	-2032	8745	1263	123	124	1
-32768	2388	2576	-5837	-30965	-22931	-20164	-4584	-14988	-1973	-31187	2890	-11528	8612	22140	4041	-7155	-1497	-9588	4876	13424	-469	2606	-2869	-14992	3724	80	-735	9707	449	-16280	5484	4836	1013	10571	1247	132	126	1
-32768	10140	-15524	-153	-22704	-16532	-12940	-3764	-16700	-1872	-19653	-1643	-16816	10868	29328	5650	-1426	-3956	-8800	4120	14348	-201	4883	-3280	-16580	2976	-164	-2320	12010	-86	-18176	3784	4176	1770	9741	813	125	126	1
-32768	24108	-27884	-6582	-7337	-5254	-1608	-5996	-18616	-4130	-2267	-5952	-16972	5728	29336	3254	-351	-3159	-9188	3460	15120	304	8312	-3344	-17880	1416	-2404	-4785	14314	-668	-19268	1364	2852	2001	7852	808	112	123	1
-32768	13812	-14788	-2215	6136	2592	-8012	-8240	-19592	5481	12600	-4356	-17256	2180	20096	1891	1534	-3691	-9504	3600	15640	1159	13314	-2844	-19440	-92	-4156	-3708	16441	-1040	-20116	304	1288	2484	6634	484	124	121	1
-28668	-6020	-604	15978	9463	4634	-11876	-1984	-13200	10873	21878	-4790	-13660	-480	1624	-2237	4629	-3901	-9892	4552	15700	1540	19284	-2851	-20700	-844	-4212	-811	17907	-533	-21244	288	1164	4499	5020	-98	135	119	1
8052	14724	32767	20139	18721	-3686	-28280	17644	20884	20417	20151	-3122	-10568	-1640	-2364	-1662	8801	-3374	-9776	4616	15624	1546	20272	-2958	-22816	-1504	-3672	1802	19488	-508	-23080	1432	3356	5269	2276	-12	120	120	1
-9640	27488	12472	10248	32767	-1139	-29684	-1360	-9284	28356	14930	1078	-24020	-6072	18788	20156	5568	-5667	-9020	5224	16096	3228	32767	-2951	-25848	-3928	-356	3433	21208	-745	-25404	2016	7280	3054	-3128	-542	126	131	1
-26256	19940	32767	1027	25028	8808	-16568	17248	-6456	22700	17036	-1284	-12360	8872	8524	25761	11235	-339	-8928	8484	16312	3957	32767	-4502	-28664	-6656	3632	8272	22729	-95	-25704	1736	12520	446	-13385	-2497	121	131	1
-14648	-17444	12344	-1724	20212	6567	-23352	1036	-6172	9051	20001	-3513	-17948	21660	-10696	12366	7466	-1337	-13728	13820	15548	3960	32767	-10940	-31392	-4540	5724	20225	22761	1661	-27428	-3044	32767	-7101	-32768	-7211	131	128	1
-10328	1996	15144	3909	20190	3825	-13408	-6228	-8856	9728	14518	-6987	-12696	3764	-9256	-13840	4009	1264	-30100	14996	13444	4588	32767	-23646	-25868	13924	-3668	18780	23265	2875	-13676	-13820	-4608	13971	-10555	-9894	116	132	1
-23708	-9508	14796	4682	12480	7859	-16552	-1444	-10592	-625	11739	-6608	-12820	-2184	-3752	-10542	7462	-3621	-32768	9080	17572	1794	32767	-27105	-24704	8616	-11576	8334	23843	3418	-23776	4548	-2680	16596	-14141	-4595	118	133	1
-12248	6836	17616	6519	6945	4293	-21088	-84	-8708	-3184	11709	-6761	-26268	-4800	-7876	-6799	10443	-5602	-26988	15104	21708	1550	32767	-26647	-23212	1536	-10384	6304	20193	1156	-27988	9376	-10692	17828	-9488	-1418	116	126	1
-12252	-4016	13668	3476	2455	2188	-17744	-2588	-5828	-7727	10548	-3836	-16132	-5108	-2948	-2306	8554	-1940	-17544	11952	17868	7520	29460	-17027	-18020	3124	-11100	-161	17771	-276	-30076	2860	-11384	7692	-14858	2011	109	125	1
-10240	-2144	13404	2556	1257	1489	-15820	-3920	-5488	-3891	8547	-3251	-15912	-1452	-1320	3365	9712	-1819	-13832	10332	19376	8803	27101	-15784	-12652	4916	-18652	461	13289	-836	-24080	112	-8016	-2140	-21044	3128	137	116	1
-8628	-1300	13640	1867	1053	883	-17828	-1344	-3920	1664	7354	-2617	-16216	1316	212	4908	10161	-2234	-7232	16732	19548	5808	-20448	-2616	-14032	-1436	-9264	13848	5558	227	-23960	1812	-7356	-3654	-21218	1820	119	117	1
-8908	-1256	13664	989	1401	394	-17688	-1016	-3624	4372	6072	-2460	-16044	2712	980	4278	10360	-1950	1676	8936	10572	1165	-22754	99	-9424	2404	-6732	14541	-803	-520	-22844	2392	-6292	-1568	-19338	568	125	154	1
-9196	-1800	13076	696	1297	318	-17172	1216	-4084	605	5330	-2670	-15980	3204	320	1331	11343	-1335	4536	5472	6440	-570	-19622	1344	-7188	3596	-5460	7962	-6560	-324	-19792	2204	-6696	367	-17818	733	120	136	1
-9468	-1876	13012	926	926	394	-17208	244	-4040	-5401	4772	-2868	-16976	2364	-304	-4240	11983	-942	2356	5092	6724	-1306	-16596	1824	-5524	2436	-5572	-2481	-11726	85	-17472	2132	-8132	-914	-16761	1363	126	129	1
-9712	-2160	12712	1252	737	149	-17172	-2500	-3884	-7269	4034	-2361	-16836	-1056	-896	-6772	13050	-1214	-1380	6928	9180	-2481	-17615	2196	-4184	2228	-6980	-7393	-16350	-76	-14920	2716	-8480	-2968	-16222	1977	131	135	1
-9640	-1948	12864	1516	507	-366	-16616	-3076	-3532	-4881	3631	-1939	-15868	-2176	-1032	-1230	12976	-2144	-5088	6876	12124	-2822	-22708	3934	-4360	1288	-7728	-8285	-20963	-228	-13344	1800	-8856	-5609	-15931	2583	131	132	1
-9396	-1572	12932	1284	368	-860	-16104	-2368	-3184	-1838	3695	-1683	-16564	-1960	-728	2353	12405	-2508	-9088	7240	13996	-1063	-29944	8251	-6044	1140	-8444	-7813	-25149	-1086	-11896	1424	-7784	-6100	-14522	2594	124	129	1
-9244	-1744	12836	909	186	-1110	-15712	-1660	-2900	-401	3446	-1467	-14996	1620	996	14	12558	-1283	-10352	7496	14048	475	-32768	12792	-8324	916	-8800	-6670	-29418	-1718	-11312	1900	-7032	-7541	-12162	2213	133	127	1
-9052	-1996	12904	599	-10	-837	-16016	-764	-2480	-1706	3676	-1787	-15304	-288	940	-992	11548	-372	-12092	7660	14144	1162	-32768	16156	-10240	48	-8720	-5507	-32768	-2165	-10724	184	-7860	-8251	-9635	1338	128	127	1
-9060	-2008	12780	534	-32	-355	-15848	-2008	-2244	-2920	3793	-1826	-15440	-872	1180	-392	11159	-510	-14864	7448	14700	933	-32768	18073	-11528	-232	-8488	-4365	-32768	-2218	-9776	-1088	-8524	-7717	-7221	-8	126	131	1
-9056	-1776	13032	568	-23	81	-16040	-2636	-2468	-1955	4070	-1829	-15692	-868	876	16	10611	-1294	-16364	5400	14532	3196	-32768	18884	-14300	-680	-8596	-4651	-32768	-1772	-9212	-1512	-8328	-9595	-4827	-193	128	130	1
-9084	-1896	12936	516	83	372	-16252	-2976	-2984	-403	4424	-1388	-16060	-1080	-792	-853	9953	-1253	-18896	5284	14576	8548	-32768	18378	-16860	1068	-10080	-7434	-32768	-1843	-7592	-1784	-7456	-11813	-1247	984	130	129	1
-9092	-1748	12908	584	81	695	-16272	-2896	-2960	-219	4465	-1334	-15504	176	-1208	-1979	12070	-1448	-25224	9616	18620	7378	-32768	17819	-20124	1732	-11436	-8647	-32768	-3474	-7464	-2224	-5228	-11168	1001	2476	129	124	1
-9092	-1520	13040	570	127	890	-16448	-1176	-4020	-1030	4691	-1393	-14936	1264	-1144	-4891	13116	-1471	-32768	12232	25244	3889	-32768	19921	-23744	4344	-11992	-7321	-32768	-3097	-9784	-2040	184	-9208	-3035	2832	131	123	1
-9040	-1560	13148	398	406	903	-16828	-1040	-3924	-2209	4996	-1544	-13512	2164	1152	-5857	15150	-1626	-32768	14844	22604	-1058	-32768	24391	-24552	5304	-12184	-4426	-32768	-5408	-14180	1888	7340	-5940	-8636	3321	124	119	1
-8968	-1556	13168	312	885	996	-16684	-1060	-3508	-3491	5182	-1665	-13376	2660	708	-3485	15834	-2131	-31584	11092	14328	-4077	-32768	27166	-20552	712	-11940	-2272	-32768	-4530	-13364	2196	7292	-5163	-4183	3355	122	122	1
-9024	-1452	13200	273	1365	1124	-15820	-1364	-2064	-4032	6032	-1732	-18124	-232	-1972	-5612	13726	-1489	-32768	7808	8988	-2235	-31633	26253	-20372	1424	-10544	-686	-32768	-852	-13300	-1972	10044	-8998	-4036	2114	123	127	1
-8808	-1360	13368	422	1740	1192	-15196	-1176	-1664	-3460	7207	-1911	-20280	-2036	236	-3192	8020	-1215	-32768	-10436	-5980	8821	-26931	18064	-15892	-6572	-11360	6216	-28974	5056	-16068	-8496	18464	-12601	-5961	1122	127	126	1
-8984	-836	13656	448	2636	920	-15744	-2076	-1584	-1831	8975	-1532	-17660	-3300	4668	-476	7493	-844	-32768	-22692	-16592	30494	-17148	10366	-1812	1972	-12488	19256	-12836	7829	-20860	-6032	32767	-10316	-8424	204	127	129	1
-8876	-1412	14156	376	4195	710	-16712	-2828	-1776	147	10755	-863	-17068	-3728	4312	32	9919	-234	-32768	-12068	-15604	8659	-4704	1464	-4176	11824	-12252	16653	2737	3734	-19212	-2420	22828	10939	-3517	70	129	132	1
-9040	-1588	14772	100	6815	1058	-18116	-2124	-1756	1236	12257	-586	-19280	-2124	3276	-14	9613	354	-32768	-11700	-11424	-10162	5612	-13103	-9416	10620	-14240	-3062	13925	14	-17960	3300	5772	12837	-6192	3139	129	140	1
-9196	-1880	15340	232	10318	1561	-19136	-316	-2080	574	14310	-809	-19368	1232	4832	-1480	6975	819	-32768	-4552	-11336	-15729	16342	-18330	-12924	5232	-16236	-13022	20542	1279	-13348	3756	-1492	11871	-1396	5761	128	137	1
-9136	-1440	16588	142	15447	1964	-21088	408	-2300	8	16454	-1042	-20288	2704	6700	-4981	3942	897	3136	-6384	32767	-7795	26012	-5752	-28688	-19392	10492	-22063	18238	-2659	-12108	-272	-2336	8163	-873	5891	127	107	1
-9396	-1336	17468	219	22451	1586	-24356	-324	-2024	-397	18925	-797	-21860	3616	6972	-5396	3698	538	-28128	2192	15748	184	32767	-6446	-32048	568	-5976	-32768	18813	-2021	-32768	4128	28040	-24263	-13775	4903	126	147	1
-8644	-3004	18164	173	31777	2038	-25912	2492	-820	306	21260	-1252	-23104	1428	14396	-5377	-611	-676	-30552	-7696	29476	240	18821	-9413	-18176	-11336	-13016	-23994	22336	4211	-6548	-6128	-9940	-1487	19917	1829	134	107	1
-7636	-2664	20816	-508	32767	2565	-32000	7596	3744	-2745	22864	-2430	-28816	2408	20012	-5399	-16166	2629	-7344	14896	10520	3401	17406	-6317	-12156	-1276	-9560	-5765	19716	4433	-18968	-12716	-24796	-9039	3879	-2697	123	133	1
-7012	-8528	22252	597	32767	4023	-32768	15052	-1416	-9429	23170	-3719	-26352	8424	23928	12194	-15039	7265	-29108	11796	16124	-6494	12075	-10299	-15776	16832	-14820	-1481	14871	7475	-18240	-9296	-16608	-1679	2258	-1675	127	124	1
-29996	-10020	20828	1677	32767	12776	-28496	-6064	-1400	-21689	25536	-4704	-19532	19364	5808	-15173	-12747	12111	-17740	4760	17848	-6491	3275	-6984	-18944	5636	-15296	-10976	11550	5624	-20116	8000	-9896	5655	12917	5593	132	124	1
-32768	-14292	24156	1796	32767	20190	-29388	-13912	-7712	-11828	25303	-3678	-25916	-4892	-3088	-20493	-6525	4692	-11596	3436	14636	-2081	549	-1682	-17120	-7264	-11256	4596	9521	2428	-23708	7672	-9188	5638	11099	8551	126	100	1
-25928	-9532	29280	3738	32767	24915	-25060	-2016	-5564	-1769	23433	-4883	-31896	-2008	-14216	-20425	-9453	1388	-9804	5484	13544	-1086	149	-1065	-16216	3840	-7704	14337	7289	3541	-19032	2584	-3712	3003	10065	5088	132	107	1
-7512	-2776	25392	-8736	32767	16911	-21460	-1400	-8864	-125	17374	-4195	-32128	3528	-7324	-8866	-18934	-1549	-8844	4560	13580	-503	453	-1135	-17236	2200	-6200	7267	5717	3282	-16356	1412	-1476	2755	10318	2619	126	153	1
-27612	-14100	32767	-21009	-1739	5763	-15280	-636	-9220	-5581	9459	-1599	-26756	1768	-8012	-3616	-21110	-742	-9668	4016	13412	249	964	-607	-17152	3588	-6364	-839	4793	2137	-17080	1420	160	1727	11073	1814	125	125	1
628	-17876	19380	-12922	-19141	3915	-14072	-80	-3048	-9391	1847	-4130	-26992	3436	-7832	-1551	-21554	504	-9360	4892	13384	769	1286	-224	-17348	888	-6140	-4503	3707	2284	-16380	192	-940	-125	11929	868	128	133	1
5268	-9756	10476	-2517	-21797	1028	-8140	-3692	-3144	-7103	-6012	-4235	-23044	3552	-8204	-4609	-19572	470	-9672	4764	13176	909	1268	73	-16060	-232	-6188	1196	2377	2755	-16656	1780	-2080	832	12603	231	132	112	1
4740	-5356	7836	-2109	-20218	-3857	-5724	-3308	-3572	-1130	-12738	-2564	-18448	704	-9268	-6001	-18157	-718	-9592	4868	13104	896	1323	141	-15900	2292	-5308	5942	1647	2791	-16456	2380	-1540	836	13049	297	131	120	1
548	-6180	8656	-3077	-20573	-7508	-5412	-2560	-4408	3443	-18487	-1026	-16328	48	-10544	-4896	-17785	-1765	-9572	5452	12732	898	1183	533	-16012	3008	-3828	7406	1217	2335	-15984	2608	-844	599	12634	487	124	133	1
-2684	-6164	10484	-2055	-24095	-9737	-5872	-2120	-5404	5465	-23378	-75	-15772	552	-11472	-3654	-19621	-2575	-9640	5020	12696	782	988	335	-15548	3104	-3024	6216	1223	2430	-15896	1280	44	893	12297	1369	125	145	1
-5476	-4304	12052	-1401	-28648	-12149	-6476	-1884	-5740	6228	-27888	1229	-12216	-2104	-10388	2315	-16669	-3082	-9548	5032	12780	786	893	335	-15000	3188	-2640	3904	1660	2209	-15636	640	956	3393	13041	579	134	126	1
-8724	-3524	13660	-1195	-32768	-14331	-7664	-2024	-6372	7272	-31898	3060	-11084	-2280	-10080	2747	-16959	-3731	-9516	4988	12616	624	695	153	-15248	2216	-2444	3749	2160	2049	-14496	1092	1656	6744	11968	-423	129	125	1
-11132	-1740	15508	-1680	-32768	-15376	-9676	-1560	-6672	8089	-32768	4808	-8400	-1992	-9880	4811	-15397	-2800	-9556	5252	12476	394	533	-156	-14968	2588	-2636	5380	2624	2070	-14404	2316	1040	8924	11848	-608	126	131	1
-13024	-172	16500	-4501	-32768	-15442	-12196	-76	-6880	6452	-32768	6396	-7380	-1372	-10276	7082	-13817	-2153	-9584	5332	12560	235	380	-371	-15276	3928	-3032	5685	3173	1767	-14680	3564	244	9567	11757	114	131	132	1
-15180	-384	17348	-7818	-32768	-13674	-12432	4	-6884	5810	-32768	6735	-6708	-920	-11376	10100	-11459	-2682	-9496	5296	12544	74	226	-578	-15632	3608	-3556	4500	3460	1398	-13116	2452	3400	7742	13332	1772	128	132	1
-17236	40	17512	-12698	-32768	-11018	-19248	-600	-7592	599	-32768	7679	-5488	-264	-12272	12493	-8648	-4272	-9548	4804	12572	-26	36	-825	-15688	1772	-3948	4778	3666	1326	-13440	1724	160	6888	17129	2481	128	131	1
-23264	-392	19816	-17449	-32768	-9360	-21936	-1896	-10244	-1300	-32768	8651	-4640	60	-9980	13649	-6925	-6103	-9520	5048	12648	-68	81	-977	-15740	1404	-3216	6236	4049	1415	-16584	3216	-2316	6356	18703	1201	128	125	1
-32768	-6224	27380	-16411	-32768	-10969	-29404	-4384	-11520	-1541	-32768	8571	-6440	596	-3848	10295	-6267	-5313	-9416	4936	12824	25	246	-1000	-15304	2580	-2184	5402	4874	1404	-19168	5488	-4808	3739	13727	-543	128	127	1
-32768	-12160	25476	-11657	-32768	-12233	-32592	-5664	-12068	1426	-32768	8740	-14160	2292	6968	5586	-14242	-4260	-9356	5296	12832	-51	511	-1289	-15204	4284	-1768	2403	5977	1273	-18268	6344	-1272	-1882	8281	-714	130	124	1
-32768	-12160	15916	-6107	-32768	-19531	-26224	-3888	-16336	-84	-32768	6029	-17952	1756	11416	8272	-10951	-2231	-9632	5344	12864	-28	1024	-1603	-15696	3612	-1336	-272	7241	856	-16920	5560	2536	-2315	9581	-158	126	124	1
-32768	-536	8084	-6549	-32768	-25650	-20796	-2252	-14692	-1474	-32768	3115	-12124	6940	17776	5415	-8399	-319	-9444	5324	12992	-92	1812	-2086	-15296	2924	-136	-591	8771	669	-17180	3592	4036	-750	10616	572	138	123	1
-32768	6488	-6072	-5342	-28800	-20829	-18216	-2328	-14344	-6635	-27521	-1020	-12216	17524	29824	5078	-4160	-2471	-9116	5236	13192	-131	2981	-2634	-15148	4452	640	-2261	10969	365	-17624	2944	5300	94	9991	803	128	124	1
-32768	29664	-31760	-11061	-15543	-7138	-272	-4456	-15948	-14496	-10180	-8556	-18212	8248	32767	5581	-2069	-3335	-8940	4752	14212	281	5402	-2965	-16612	3528	-904	-5843	13276	-430	-18052	2328	4136	282	8315	1355	120	126	1
-32768	20276	-21508	-7101	3497	5087	-4252	-11712	-18896	-1800	9459	-5335	-16444	496	24740	943	1670	-4256	-9156	4412	14836	899	9204	-3057	-16836	3224	-1196	-6127	13592	-503	-19032	2124	1364	1403	6622	1251	115	126	1
-32768	10636	-4608	10693	9195	7643	-11960	-260	-18784	14750	19209	-1794	-16968	-956	3916	-4840	3624	-5782	-9356	5100	15396	1456	14267	-3142	-19508	-172	-3956	-3012	17290	-635	-20340	1468	464	4411	5293	612	136	126	1
-13220	-2660	15116	27989	17486	8223	-19156	5600	1544	14374	22893	-5061	-10524	1408	-3508	-8166	4535	-3560	-9604	4980	15792	1979	20920	-3440	-21176	-1856	-4476	443	18826	78	-21968	408	1708	7484	2615	643	128	124	1
12000	832	31940	14912	27497	-3723	-32768	18972	10948	20673	14432	1883	-14008	-1184	540	4531	5935	-1674	-8700	4088	16788	3223	30559	-2656	-24744	-2628	-2888	2345	20699	-357	-25140	176	4608	5438	-1184	719	128	127	1
-32768	27608	24580	6217	32767	3974	-19672	1860	-10284	27438	17332	1473	-31236	-9288	28404	27475	6430	-5428	-7520	6504	16828	4786	32767	-2812	-27492	-5376	256	4917	22103	-44	-25764	900	10268	2349	-7533	-632	108	129	1
-17696	3812	18444	-956	18183	11960	-27684	13916	-7104	11489	22690	-3812	-21592	17284	-16224	25868	19498	388	-8500	11188	16732	5402	32767	-4306	-31596	-8336	4684	11830	22882	611	-26396	-172	16272	-125	-20229	-4359	113	128	1
-10288	-18640	11016	3491	18142	2979	-16148	-10168	-6200	8622	20237	-4783	-14328	6860	-17780	-6211	3328	1442	-15196	15532	15616	7569	32767	-14118	-30040	1704	3568	22365	22243	2472	-21268	-6312	15940	-1394	-31328	-11028	134	133	1
-13744	2408	14568	3707	17314	5999	-9624	-5964	-8256	14071	12708	-5643	-3364	-7132	-6792	-14219	2863	249	-32768	12724	12740	5118	32767	-24540	-23520	14592	-10700	7444	23467	3848	-18716	-5160	1900	8437	-12158	-8974	131	127	1
-16912	-7476	13448	7375	8914	5087	-19760	-2100	-11256	4790	11141	-5909	-19036	-3952	-6788	904	11345	-7647	-32768	14160	17968	3810	32767	-26079	-24648	3276	-12448	7059	21731	2744	-24756	8356	-4600	17342	-14350	-4253	128	126	1
-13172	3692	16328	3545	2359	3283	-22808	6228	-7796	-2706	12129	-3706	-22348	-3572	-7728	1199	11913	-8110	-27348	12164	24552	3650	32767	-25596	-21204	4328	-8920	7515	18746	1702	-30484	7124	-11376	13528	-10413	-1031	123	123	1
-10684	-1164	13960	2648	1319	1960	-15948	-3032	-5920	-9143	9873	-3683	-14192	1260	-1368	-3044	9596	-1848	-9976	-3968	22224	20107	22692	-16803	-15372	4204	-11704	-3322	16098	-678	-26948	2100	-10400	3487	-18144	2509	114	110	1
-9316	-1056	13600	1731	891	1001	-16372	-1496	-5684	-4401	7833	-3806	-15028	2260	-1024	-1407	10383	-1865	-26944	19712	30264	22510	-10068	-12403	-12820	1960	-16704	7287	10593	-313	-22452	-232	-7160	-2687	-21315	2313	118	125	1
-8724	-476	13592	736	1106	288	-18384	96	-4524	-771	6809	-3290	-17028	1320	-980	1060	10605	-1843	-5712	15812	16284	12611	-29043	-8170	-11532	-928	-8456	19727	2467	700	-23788	1356	-6712	-2521	-20392	502	123	148	1
-9004	-1132	13528	-182	1645	-252	-17648	-2240	-4596	2619	5113	-3200	-16992	1628	-1132	1905	11132	-1483	2572	10640	8148	4890	-30520	-6044	-8028	3932	-6112	18357	-3635	-38	-21520	1748	-6576	227	-18070	-386	119	134	1
-9176	-2040	12868	-279	1549	-155	-17132	108	-4404	78	4206	-3018	-16456	796	-1524	317	12282	-937	4900	7604	4560	-88	-25262	-4221	-6356	4308	-4960	8731	-9442	659	-18920	1832	-7084	1978	-16726	251	120	133	1
-10228	-2400	12536	665	956	-260	-16932	-904	-4120	-6425	3541	-2819	-17272	652	-1580	-3501	13353	-781	1860	7468	5532	-444	-20753	-1424	-5180	2480	-5544	-2720	-14399	607	-15608	3664	-7952	124	-15705	911	128	131	1
-9832	-2244	12668	1466	451	-522	-16884	-2920	-3552	-8812	2883	-2397	-17220	-2012	-944	-3283	13786	-1942	-1752	9184	8276	20	-20711	2498	-4448	1756	-6900	-6103	-18475	226	-13780	2992	-7716	-1857	-14682	1805	126	135	1
-9544	-1572	12812	1356	25	-885	-16772	-3360	-3060	-6599	2557	-1912	-16112	-816	-256	403	13215	-2904	-6076	10012	11068	373	-24206	8217	-5768	1984	-7744	-6628	-22606	-306	-12576	3252	-8520	-5251	-14713	2311	129	129	1
-9232	-1464	12880	811	-44	-1129	-15844	-2624	-2652	-984	2431	-1602	-15612	2304	1056	556	12712	-2299	-9288	11044	12628	-771	-29417	14305	-7312	2848	-8148	-7523	-26697	-928	-11312	2020	-6792	-7248	-13361	2346	133	126	1
-9252	-1324	12900	743	1	-1141	-16104	132	-2060	201	2943	-1764	-15244	2424	1884	-1285	11851	-791	-11052	9888	13160	-2477	-32768	19048	-9624	2236	-8316	-8728	-30778	-1458	-10848	1920	-6584	-8474	-11024	1972	133	126	1
-9032	-1648	13048	-132	372	-1077	-16128	-20	-1492	-3408	3264	-2218	-15260	820	2596	-3291	11132	182	-12928	8308	13708	-2650	-32768	22428	-10876	984	-8652	-8585	-32768	-2182	-9840	308	-7440	-9127	-8630	974	128	127	1
-9188	-2136	12840	-226	408	-648	-15856	-2688	-1296	-6095	3796	-2340	-15436	-1836	2432	-4105	10394	-795	-16492	7976	14792	-1511	-32768	23875	-12432	756	-8720	-8340	-32768	-2264	-9196	-472	-8044	-9649	-6058	214	127	128	1
-9080	-1876	12824	-85	387	-257	-16120	-3996	-1472	-3934	4747	-2017	-16428	-2120	1600	-3368	9056	-991	-19104	7284	15008	336	-32768	23635	-15072	1660	-8964	-8041	-32768	-2480	-7964	-888	-8048	-12649	-3059	754	130	128	1
-8996	-1956	12888	9	449	65	-16168	-2528	-1496	-1897	5443	-1494	-15396	-1072	1604	-3542	10182	-1722	-19920	5900	14432	5218	-32768	22210	-17940	1824	-10092	-10300	-32768	-3146	-6996	-1312	-7080	-14368	471	2257	130	129	1
-9156	-1848	12940	131	598	345	-16304	-1752	-2220	-2014	6055	-1544	-15132	256	1132	-5453	10524	-2031	-26392	10620	18824	6037	-30056	20760	-21380	1580	-11492	-8512	-32768	-4333	-8028	-1968	-3936	-13320	244	3195	129	124	1
-9084	-1796	13068	293	803	808	-16432	-1868	-3016	-2226	6469	-1672	-13868	1212	2292	-6456	11958	-2643	-32768	15868	24440	1987	-32768	21279	-24088	7128	-12604	-7259	-32768	-3506	-13024	-540	3204	-11445	-5837	3777	126	121	1
-9240	-1624	12916	279	1176	1017	-16168	-1752	-3668	-2388	6852	-1561	-13220	1604	1380	-2806	14622	-3041	-32176	14896	18508	-2884	-32768	23642	-23736	4188	-12172	-4699	-32768	-4314	-14140	12	4708	-10480	-7021	3837	121	123	1
-9232	-1324	13024	265	1521	1113	-15972	-1032	-3476	-3287	7490	-1624	-16528	36	-3236	-5263	14165	-1813	-32768	11056	11324	-1726	-32768	25142	-19520	-460	-12672	247	-32768	-2622	-12852	528	7292	-5065	-4319	2836	122	128	1
-9092	-1560	13224	196	1966	1166	-15980	-1432	-3344	-3577	8081	-1711	-18660	-1400	-3568	-5144	10196	-1114	-32768	4948	3704	2349	-31515	20469	-19100	-2388	-11048	7892	-32768	4141	-11768	-8220	12988	-4418	-4517	2036	123	126	1
-9312	-1128	13272	108	2785	1137	-16032	-1780	-3648	-2622	8876	-1569	-17428	-1616	356	-1971	8564	-1034	-32768	-17688	-12080	22518	-26498	13475	-10412	-3068	-11188	18378	-23475	9381	-20360	-10040	29508	-9473	-7607	2165	127	128	1
-9068	-776	13784	69	4211	795	-16436	-2316	-3408	-766	9998	-1139	-15900	-2576	1748	-1047	10113	-714	-32768	-18528	-18900	30023	-14614	7754	-1268	10508	-10888	21518	-5800	7669	-20552	-2560	32767	6420	-3978	1779	126	133	1
-9284	-1332	14464	-451	6717	708	-17672	-2284	-2552	793	11241	-585	-18264	-1980	2336	-589	9459	-499	-32768	-6824	-15680	-1619	-199	-5749	-1400	11808	-10956	20684	-3136	6718	-17952	4072	13868	14028	-6324	3061	125	135	1
-9272	-1616	15048	-765	9894	839	-18932	-276	-2104	614	13114	-634	-20324	-232	4608	-998	7704	472	-32768	-5392	-6652	-9766	7527	-14422	-9948	9324	-15252	-9035	16337	435	-15564	7856	1228	14375	-5098	6274	125	143	1
-9468	-1812	15624	-859	14087	1095	-19888	128	-2028	-395	15147	-903	-20096	832	7116	-1682	6929	1027	1608	8132	408	-24383	16975	-12773	-13124	2648	-9584	-18817	20376	2091	-11392	6472	-2536	10690	1547	8698	127	151	1
-9204	-928	16268	-1057	19751	1071	-21476	1656	-2132	-1377	17480	-1178	-21376	2908	7956	-4633	2845	697	6492	-18736	32767	-3310	32767	8055	-14068	112	-6480	-21207	20715	1460	-12852	5836	-5500	-4775	-305	6508	129	112	1
-9092	-2004	17472	-1377	28184	365	-25372	248	-252	-1914	20347	-600	-23036	2024	12396	-5556	-1462	1192	-32768	-17256	25116	-6686	32767	-7914	-24932	-1520	-14628	-32768	19873	-394	-32224	9104	32767	-31111	-9008	11360	132	121	1
-8028	-2588	19124	-1664	32767	1075	-28520	4876	2468	-2401	22647	-1694	-25340	2172	21516	-6458	-11474	2906	-25264	-2516	26560	3901	15949	-13353	-17316	-20060	-9956	-11620	23045	2112	-21604	-18164	-13944	-15196	19482	-5506	125	119	1
-7040	-12348	22200	112	32767	1333	-32768	14700	7620	-10289	24435	-2109	-26432	7240	29412	9347	-15420	6422	-11688	32767	10472	-6442	20340	-5341	-14204	15560	-9820	-1375	19934	4935	-21796	-22516	-27312	-21346	13833	-4646	126	130	1
-24256	-9648	20880	-945	32767	8465	-32016	-2236	-500	-16297	26122	-2716	-19168	18448	2436	-14096	-8278	10410	-21044	-184	18716	-9389	5722	-11273	-14244	13444	-15928	-16627	15452	6887	-1460	2752	-7764	13370	8033	1305	137	118	1
-32768	-14680	22352	-1922	32767	16627	-30808	-14852	-9040	-9213	26649	-2023	-25712	-3256	-1052	-17158	-8580	4979	-13076	2332	16328	-5698	561	-5631	-18492	-9860	-17596	-7466	12368	4092	-21332	5008	-9424	7992	12072	7601	128	118	1
-26940	-12064	26596	7561	32767	26354	-28720	-4412	-5096	-928	25050	-4363	-32344	-688	-12452	-17315	-9673	1510	-13860	240	16260	-5107	364	-4804	-16048	-4084	-10692	21381	10193	4191	-23788	6008	-8868	8189	8050	7629	131	99	1
-16808	-9112	32767	-2780	32767	20630	-22660	536	-8988	1166	19499	-4706	-32504	3808	-8332	-11539	-16960	-1102	-9940	4240	13568	-615	22	-1209	-16740	6692	-8588	18024	8028	4795	-19996	4156	-4788	6645	9365	2554	128	122	1
-32768	-4120	32767	-15946	10685	7688	-14896	-1940	-13360	-1945	11761	-1284	-28348	1840	-8196	-6581	-20159	-1272	-9536	3640	13520	58	558	-728	-17384	7164	-6832	-326	6761	2783	-15264	3484	-1288	2570	9691	2477	126	129	1
-3328	-16832	24160	-17570	-18209	3332	-14976	1036	-4056	-9588	4562	-2646	-28864	2276	-8580	-1567	-21366	370	-9820	3880	13508	969	1007	-184	-16956	3004	-7740	-11213	5342	1554	-17668	2740	-2880	-1676	11881	1551	127	122	1
5020	-12240	12772	-5357	-23363	2707	-10484	-3780	-2832	-9940	-4141	-3232	-28920	2504	-8512	-1350	-21257	684	-9848	4232	13032	1276	1252	110	-17008	-1768	-8036	-5359	3643	2388	-16484	1452	-2704	-1053	13439	632	124	115	1
5204	-6364	8084	-787	-21928	278	-5744	-4580	-3736	-3700	-11993	-2622	-19384	1884	-9332	-4710	-18367	91	-9840	4676	12868	1437	1311	705	-15852	560	-7212	4238	2007	2695	-16988	1928	-3228	227	13967	-23	138	119	1
4520	-5844	7868	-837	-21689	-283	-5140	-2636	-4676	2546	-18091	-916	-16840	360	-10384	-3944	-17823	-1329	-9696	5060	12928	1367	1308	874	-15928	2688	-5284	7813	1107	2606	-17100	2688	-1908	84	14003	715	125	129	1
-2280	-6048	10340	-2250	-25246	-6349	-6296	-1808	-5316	5157	-22864	199	-15020	-240	-9884	-1998	-17058	-1845	-9616	5000	12784	1216	1192	762	-15956	2828	-3412	7381	934	2359	-15940	1440	92	504	13504	1242	128	136	1
-5640	-5200	12356	-2436	-29606	-9414	-6620	-1440	-5960	5389	-27677	1325	-15380	-32	-10276	-1962	-17156	-1886	-9520	4972	12796	1167	1202	717	-15436	3048	-3052	4656	1231	2517	-15112	-268	828	2301	13563	1302	127	137	1
-8852	-4264	13888	-1524	-32768	-12402	-7684	-2100	-6392	5797	-31846	2818	-10640	-1732	-10324	1982	-16408	-2874	-9624	4692	12588	876	1077	513	-14640	2216	-2800	3018	1705	2418	-14348	-380	1644	5523	13246	-528	128	132	1
-10128	-2324	14888	-2300	-32768	-14716	-9844	-1148	-6628	7540	-32768	4834	-9068	-2072	-9532	3505	-16194	-3011	-9824	4928	12352	622	824	241	-14600	2616	-2516	5274	2242	2347	-14192	1928	1328	8834	12428	-640	132	127	1
-10824	-1976	15276	-2699	-32768	-15089	-12300	24	-7152	5829	-32768	6385	-8752	-2120	-9628	4246	-15894	-2876	-9740	5568	12304	168	375	-260	-14716	5028	-2420	6254	2801	2111	-14176	3828	300	10851	11718	-120	131	130	1
-15812	-1408	17848	-6377	-32768	-15000	-14416	-676	-6956	3123	-32768	7465	-6516	56	-10748	8386	-12746	-2456	-9560	5444	12424	-283	-7	-904	-15576	5332	-3292	3993	3253	1420	-13284	4680	2596	9028	13027	1512	129	129	1
-17228	-444	17656	-10399	-32768	-12353	-18692	-504	-6936	1948	-32768	7621	-5180	392	-11568	10855	-9961	-3763	-9928	4908	12500	-490	-161	-1292	-15924	2560	-4964	2688	3328	1065	-13536	2972	524	7361	17011	2401	127	132	1
-22284	264	19192	-15590	-32768	-9540	-21392	-1220	-10008	-685	-32768	8179	-5484	1700	-9176	12060	-8333	-5227	-9736	4436	12612	-420	-302	-1312	-15532	-824	-4712	5782	3474	1464	-16312	2980	-3708	8256	19891	957	126	128	1
-32652	-2652	26124	-18177	-32768	-10106	-27812	-1840	-10792	-2552	-32768	8085	-6020	2008	-4176	10743	-6647	-4161	-9632	4352	12868	-126	-91	-989	-15516	1276	-2812	8120	4081	1665	-19144	4316	-5312	7351	15494	-981	127	129	1
-32768	-9228	25376	-14604	-32768	-10764	-31292	-5144	-10588	-1937	-32768	7698	-13796	2288	7196	5878	-14680	-3345	-9536	5044	12916	-40	298	-1159	-15388	4472	-1960	4246	5231	1707	-18504	5548	-1892	-1634	8227	-1308	128	129	1
-32768	-10780	16248	-9106	-32768	-16085	-27032	-4956	-16304	-2288	-32768	6483	-17920	652	11604	8029	-11600	-2114	-9416	5164	12748	-58	860	-1549	-15744	4392	-1416	-470	6605	1021	-16552	6644	2788	-3111	9328	-203	131	126	1
-32768	-2332	8600	-6705	-32768	-23156	-20344	-4604	-16568	-1964	-32768	3273	-12240	2724	14576	8686	-8675	-1181	-9580	5104	12984	-105	1531	-1972	-15176	3324	-56	-783	8322	679	-16884	5076	4700	-1542	11704	679	131	125	1
-32768	4032	-4364	-2927	-28228	-23160	-18424	-4472	-15588	-1611	-27378	841	-12136	13728	25840	4609	-4360	-1406	-9192	5184	13324	-120	2740	-2479	-15224	4780	1420	-1834	10616	322	-18016	4276	5904	-337	10670	640	122	126	1
-32768	5068	-8528	-1683	-26785	-22055	-5872	-2128	-17684	-3992	-12634	-5132	-18176	10996	32767	5944	-1807	-3433	-8804	4700	14372	276	5478	-3157	-17028	3392	-148	-5081	13262	-238	-19012	2696	5016	126	8859	1269	131	124	1
-32768	22496	-24916	-6669	220	-2534	-3796	-9992	-18304	-1476	5947	-5540	-16788	2732	27096	2323	465	-3675	-9116	3760	15360	1044	9557	-3018	-18352	1120	-2656	-5826	15828	-1043	-19748	1300	2516	1509	6761	1230	121	124	1
-32768	-3852	-11984	18998	11760	8036	-13052	-8060	-18780	13207	16546	-4693	-17272	-524	7332	-1908	2247	-4450	-9376	3716	15352	1042	10271	-3007	-20352	108	-3628	-2968	17737	-913	-20096	1356	1884	4639	5996	647	125	123	1
-12688	18820	15744	25001	19354	7970	-16488	4712	9284	19493	24202	-4268	-14876	-1148	1212	-5447	2548	-4436	-9184	5152	16344	1991	22532	-3215	-22076	-516	-3904	-985	19388	-474	-22552	2200	1788	6965	3530	512	128	126	1
912	14880	26260	15963	30233	5385	-32768	10876	648	24759	17715	2544	-26444	-1088	12440	7546	1896	-4510	-8844	4288	16872	2884	32767	-2868	-25436	-2676	-2852	-112	21233	-995	-26208	2732	4352	3789	-421	774	132	122	1
-32768	19168	31708	6674	23245	8590	-17020	16136	-11768	24097	20837	-890	-2784	-3324	17988	30127	7130	-3759	-8116	6604	17064	4329	32767	-3142	-27360	-6900	1080	4568	22649	-172	-27136	1812	9612	989	-8084	-1129	113	130	1
-8588	-1468	17152	-170	17934	5566	-19404	5780	-3512	4031	24101	-5115	-11144	21908	-26180	26619	13892	-1549	-9212	11848	17528	4736	32767	-5953	-32768	-9284	5736	13789	23128	1020	-26180	-2096	15252	-1269	-22121	-5183	125	125	1
-5700	-9952	8484	3697	19642	4811	-12324	-12548	-8436	10342	16743	-4886	-16336	5016	-16044	-3551	4017	1128	-19928	15928	14988	6971	32767	-17457	-29008	3996	2448	23104	22410	3211	-17924	-9496	11560	-2483	-28548	-11642	121	127	1
-28876	-1624	19192	6651	13283	7825	-14532	-9160	-12456	12638	10859	-7227	-2112	-1172	-3396	-6083	4722	-2938	-32768	9896	13064	3114	32767	-26213	-21524	12848	-13132	6149	23879	4500	-18932	-4956	2392	8940	-14245	-7953	118	124	1
-15348	3668	19332	5519	4441	5043	-25104	9116	-11452	5652	12019	-5542	-30616	-1084	-8704	589	12004	-10073	-32768	10800	14196	3920	32767	-25869	-24772	360	-11596	8581	21164	2905	-25228	7460	-6544	18917	-13904	-3803	118	128	1
-15056	5904	19264	4926	3130	4716	-18392	2380	-6212	-9307	12296	-3758	-19568	2100	-4028	-4884	8048	-3111	-23168	9708	21544	6411	32767	-23037	-20804	2020	-8384	9088	17933	1392	-31736	6392	-12976	16374	-11724	-1022	110	125	1
-9432	-324	13804	1431	952	1180	-15408	-3380	-6280	-10221	8916	-4639	-14732	-1216	-2268	-2637	10041	-1784	-29964	5688	24832	20099	20514	-16076	-14980	5540	-12172	-1378	14712	175	-27148	-492	-9836	3740	-20944	2555	119	114	1
-8904	8	13608	835	854	428	-16968	-1664	-5260	-4257	7495	-3940	-15104	1140	-768	-449	10365	-1617	-20064	22776	30004	15644	-12420	-7575	-13668	2524	-13804	7405	8862	884	-23228	-620	-6820	-2431	-23171	2418	122	118	1
-8308	-224	13812	217	1070	-62	-18268	-1596	-4492	1150	6168	-3250	-17292	1056	-756	2649	10832	-2303	-2608	15284	16276	7716	-25146	769	-12576	-2604	-6576	17314	539	1109	-24040	2680	-6196	-1421	-21998	55	124	152	1
-8432	-736	13680	-625	1549	-242	-17464	-748	-4012	3519	4618	-3169	-16956	1988	-76	2266	11511	-1851	6048	10888	8708	4003	-23748	5234	-8452	2484	-5620	16460	-5842	394	-21808	1140	-6636	1812	-19273	-862	125	137	1
-9236	-1412	13148	-250	1318	-237	-17164	560	-3976	-2214	4272	-3110	-16544	1260	-396	-262	12462	-854	4152	9156	6904	-1366	-19279	6854	-6068	4576	-4856	6042	-11829	1592	-18332	1500	-7392	2968	-17360	-397	127	132	1
-9340	-1756	13128	673	766	-680	-16908	-1236	-3468	-8281	3791	-2928	-17348	1072	-772	-4877	13445	-947	-368	7684	9132	-5441	-18994	6930	-4236	4432	-6004	-5637	-17145	2349	-14884	2804	-8672	518	-15516	487	122	131	1
-9400	-1268	13128	632	358	-978	-16924	-1668	-3544	-8775	3711	-2824	-16536	-3284	-1048	-3218	14369	-1806	-5888	6404	12564	-5655	-23977	7323	-4160	2940	-7412	-9960	-21491	2120	-12944	2744	-8516	-1209	-14478	1517	128	128	1
-9184	-1340	13100	226	92	-1249	-16488	-4464	-3584	-3775	2809	-1739	-15736	-1956	-156	1130	13193	-2900	-10152	5072	14580	-2267	-32684	10010	-6260	1668	-8240	-8536	-25673	840	-11544	3668	-8548	-3747	-13063	2073	132	125	1
-8852	-1152	13128	-145	158	-1159	-15528	-2120	-2700	1530	2697	-1349	-15148	1200	752	1637	12670	-2212	-10488	5560	13832	1554	-32768	12342	-9132	1344	-8072	-6039	-30260	-215	-10972	2812	-7564	-5348	-11154	1966	129	128	1
-8664	-1064	13184	-258	341	-841	-16272	48	-2248	990	2896	-1616	-15220	1812	1592	1135	11822	-1047	-12964	6356	14216	3756	-32768	13587	-10668	740	-8756	-6040	-32768	-882	-10084	1196	-7984	-6465	-8940	1106	128	129	1
-8740	-1300	13144	-179	451	-289	-15864	-356	-1780	-2702	3110	-2237	-15360	1360	2076	-713	11426	-677	-17396	8308	15448	3645	-32768	14708	-11936	-216	-8868	-5164	-32768	-796	-9608	-664	-8912	-6675	-6620	-164	130	131	1
-8896	-1364	13132	-38	484	57	-16172	-2512	-2104	-3231	3427	-2333	-15676	-608	1556	-1703	11137	-1591	-16840	5184	13188	5891	-32768	15329	-15796	-1340	-8648	-2616	-32768	-810	-8716	-1172	-8452	-9990	-4599	-227	130	132	1
-9000	-1124	13132	0	590	180	-16232	-2876	-2380	-1464	4057	-1762	-15992	-1204	-96	-1579	11206	-2258	-17952	5176	12088	12835	-32768	15216	-17820	132	-10312	-3064	-32768	-1255	-7324	-1280	-6652	-12950	-1790	1591	131	131	1
-8880	-1228	13268	75	630	351	-16324	-1264	-2740	-925	4606	-1689	-14884	56	-420	-2938	11684	-1732	-26944	12708	19156	10568	-31124	14697	-20652	1848	-11708	-2831	-32768	-1541	-7200	-1996	-3832	-11672	-1045	3140	128	128	1
-8824	-1036	13188	58	808	353	-16516	-1168	-3120	-2633	4943	-1890	-14788	560	360	-6440	13419	-1913	-32768	15504	23912	5967	-32768	19040	-24072	7564	-12452	-2501	-32768	-704	-11520	-624	2460	-8327	-6662	3972	124	123	1
-8900	-1240	13404	-48	1150	446	-16556	-1816	-3200	-2880	5277	-1860	-13128	2044	2996	-4921	14690	-2485	-32512	16520	18952	-712	-32768	23621	-23852	5704	-12812	-2096	-32768	-2715	-14088	3992	7404	-2597	-9552	4959	123	117	1
-8900	-1276	13368	-16	1468	585	-16200	-1596	-3004	-4095	5962	-1849	-14140	800	-56	-3784	15259	-2496	-30876	11780	13500	-2927	-32618	27363	-19656	2652	-10984	-1306	-32768	-2507	-12180	2552	5980	-3325	-5582	4025	120	121	1
-8916	-960	13300	63	1805	681	-15488	-1552	-2468	-4001	6709	-1863	-19116	-1568	-2568	-5722	12287	-1314	-32768	9892	9008	-3427	-30530	26650	-21384	912	-11816	1064	-32768	1040	-12768	-2852	9352	-5121	-3702	2669	121	128	1
-8736	-836	13572	103	2474	564	-16012	-1556	-2068	-2687	7818	-1604	-19628	-2020	512	-2442	8645	-1455	-32768	-11468	-7576	5869	-26709	18483	-14892	-6168	-11332	7803	-28985	7298	-18340	-9916	18884	-9136	-5788	3188	125	131	1
-8752	-580	13844	-58	3649	393	-16364	-1076	-2124	-2143	9353	-1401	-17264	-1780	3452	-1090	9232	-970	-32768	-25736	-18596	32767	-18476	10649	-1364	2460	-12300	19677	-11850	9498	-20600	-5688	32767	-4948	-7076	2596	127	131	1
-8740	-404	14420	-657	5435	33	-16572	-2280	-1992	-1225	10876	-997	-16872	-1808	3568	-1753	9948	-466	-32768	-9364	-15340	10697	-5862	773	-4844	12064	-12232	15033	3968	4545	-18352	116	19940	13984	-3262	1663	127	132	1
-8856	-932	14924	-1003	8129	244	-18308	-2164	-1968	504	12557	-597	-19148	-1328	3324	-1266	9105	-241	-32768	-9920	-10608	-14188	5787	-13135	-9364	9652	-14928	-3770	14253	1025	-17740	7248	3900	10107	-7033	4464	128	127	1
-9144	-1832	15564	-1049	11810	762	-19532	-204	-1832	-176	14548	-731	-20236	900	4636	-2994	7051	-79	-16316	20220	5652	-22145	7837	-16027	-10840	4544	-12772	-14526	20337	843	-11904	8664	-4272	8861	133	6547	128	137	1
-9140	-1352	16096	-879	16663	1271	-20796	364	-2160	-1585	16508	-1128	-21568	3032	6040	-5711	4480	308	7704	-15012	31880	-22304	23124	-5198	-26440	-16736	10724	-21575	17232	-1874	-6968	2704	-6644	1994	2397	6976	127	123	1
-9324	-976	16724	-799	23489	970	-23164	108	-2144	-1868	18814	-904	-22408	2080	8348	-5790	2093	38	-14992	-12000	16248	-4543	32767	-4685	-32768	-320	-5140	-32768	16849	-5690	-28448	2580	13548	-29578	-6762	6748	128	124	1
-8656	-2960	17692	-987	32767	1225	-25960	2340	-216	-1328	21532	-1077	-23220	1112	14184	-7047	-4207	695	-32768	-20212	32767	-1325	22568	-11483	-20396	-19260	-11796	-31805	22007	2414	-14268	-14652	17784	-24212	16428	629	125	102	1
-6724	-1552	20704	-2003	32767	1588	-31820	9632	4396	-4419	23276	-2136	-26428	2896	22220	-3782	-17664	4357	-13224	21692	11996	3371	18218	-6002	-14052	148	-6624	-543	21817	2500	-22904	-17832	-24368	-15280	6257	-3279	125	120	1
-8732	-7192	21828	122	32767	2676	-32768	13796	5940	-14225	23303	-2123	-21332	10956	14848	10121	-9827	7305	-22496	12824	16020	-9531	18170	-9998	-14788	16648	-11796	-4839	15161	6452	-3312	1504	-7788	13248	3870	-3015	124	123	1
-31268	-2432	22352	-2693	32767	10055	-27480	-11844	-2648	-22507	25619	-1817	-21532	14428	5460	-15017	-10658	10583	-15404	7052	15132	-9009	6382	-8980	-17356	5312	-14340	-12205	12516	5282	-13500	4852	-9248	11357	12311	4906	133	120	1
-32768	-15888	22920	2660	32767	20578	-30612	-16456	-8020	-8251	25496	-2181	-27212	-5384	-4068	-18401	-5606	3552	-14984	1524	15788	-3882	778	-3770	-18416	-7388	-13536	3753	10657	3015	-26292	11192	-9956	9949	10070	8816	131	105	1
-24448	-12616	31056	6624	32767	25567	-26128	-2428	-5736	5136	23391	-3495	-31392	-620	-12864	-16440	-12382	586	-10628	6072	13416	-1582	-53	-1625	-16476	3824	-8184	16926	8610	3701	-20444	5000	-4156	3741	8216	6305	132	110	1
-5440	-1348	24800	-4079	32767	15616	-21320	188	-8792	7028	17101	-3348	-30548	2296	-5956	-6912	-19101	-1700	-9884	3684	13596	-620	-98	-1171	-16940	3724	-7504	7267	7142	3374	-15812	1896	-3116	2277	9399	2308	129	118	1
-23352	-13996	32767	-16724	-3107	3273	-15948	1232	-8056	-2225	9916	-71	-26916	1740	-8116	-2122	-20181	-702	-9492	3444	13476	205	478	-510	-17076	3376	-6712	-3428	6165	1927	-16772	1000	-532	837	10890	1364	127	122	1
1488	-16056	19984	-9234	-18557	2418	-14200	508	-2788	-8271	2074	-2403	-27636	3376	-7588	250	-21581	1249	-9392	3824	13488	920	995	16	-16996	784	-6552	-7458	4801	2053	-16408	204	-1440	-986	11904	782	127	118	1
5304	-8732	11612	-469	-21055	1018	-8428	-3940	-3064	-6890	-5952	-2599	-22876	3912	-8492	-2409	-19778	1249	-9740	4260	13044	1136	1145	128	-17084	384	-6564	-7011	4588	2201	-16344	2276	-2244	-361	12832	-164	132	124	1
4264	-4784	8468	-410	-20563	-2442	-5788	-3456	-3792	-838	-12911	-675	-18412	452	-9344	-3740	-18373	54	-9804	4896	12808	1077	1070	338	-15992	2360	-5728	5436	2214	2719	-17120	2964	-2392	83	13541	256	137	120	1
492	-5472	8992	-1873	-21467	-5313	-5360	-2384	-4600	3215	-18594	974	-16284	1064	-10476	-3635	-18117	-1215	-9764	4956	12756	892	852	380	-15944	3532	-3904	7642	1694	2273	-15856	3380	-496	-18	13275	887	124	128	1
-2296	-6280	10480	-1490	-25061	-7160	-6296	-2060	-5280	4265	-23611	1928	-14508	-452	-11172	-2779	-18600	-1820	-9588	4900	12760	703	821	210	-15788	2964	-3000	6217	1591	2076	-16616	588	720	1988	14278	1765	123	138	1
-5816	-5164	12084	-1104	-29634	-9402	-6452	-2212	-5760	4416	-28253	3108	-13184	-2072	-10696	1197	-16736	-1866	-9744	4656	12724	697	817	201	-15056	2532	-2776	3826	1935	2206	-14968	-420	1764	2419	13791	689	124	134	1
-9800	-4224	14052	-1351	-32768	-11898	-7584	-2456	-6612	5237	-32387	4474	-10436	-2132	-10812	1301	-17403	-3019	-9648	4468	12712	699	843	174	-15172	1904	-2352	3602	2477	2155	-14408	284	1860	6111	11751	-516	130	132	1
-11904	-3348	15332	-2618	-32768	-13918	-10020	-2068	-6804	6078	-32768	6041	-8468	-1868	-10496	4525	-15269	-3050	-9768	4792	12608	380	717	-139	-14976	2852	-2396	5115	3029	2194	-14972	2532	1336	8686	11257	-1052	135	129	1
-14732	-2984	16764	-4950	-32768	-14522	-12368	-1116	-6996	4586	-32768	7138	-7668	-1124	-10576	7061	-13242	-2379	-9756	5088	12424	27	445	-494	-14992	4704	-2404	4895	3719	1824	-15020	4072	36	10378	10879	-214	130	134	1
-15304	-1820	16504	-9500	-32768	-13989	-15528	-1196	-6736	1909	-32768	7868	-6472	-800	-11792	9794	-10805	-2825	-9772	4956	12468	-301	92	-936	-15300	4064	-3264	3552	4191	1292	-14208	4088	1048	9396	12014	1665	129	133	1
-18000	-1960	16048	-16228	-32768	-12067	-19364	-932	-8232	1	-32768	7728	-5272	256	-11772	12183	-8326	-4204	-9700	4916	12668	-425	-80	-1280	-15688	3164	-4268	3094	4412	997	-13464	1976	2896	7151	15205	2744	128	132	1
-27168	-3924	20932	-17328	-32768	-11887	-22648	-1908	-10916	-1199	-32768	8270	-4524	1976	-9608	13662	-7392	-5057	-9796	4360	12636	-422	-68	-1505	-15708	756	-4748	4512	4480	1210	-13860	1272	-1592	6360	18570	2211	125	125	1
-32768	-9508	27212	-14457	-32768	-13812	-30444	-5044	-13424	310	-32768	7191	-6792	1836	1980	9637	-12271	-3789	-9812	4236	12784	-391	44	-1530	-15236	1124	-3948	6553	4775	1502	-17568	3944	-5660	6344	16813	-398	127	126	1
-32768	-11932	23100	-9405	-32768	-16829	-30356	-4048	-13492	56	-32768	7342	-15680	2360	9832	6102	-14708	-2060	-9652	4464	13068	-215	480	-1555	-15784	3632	-3196	4437	5440	1481	-19392	6244	-5816	3108	10265	-1393	128	127	1
-32768	-6276	14256	-6016	-32768	-22960	-22948	-2232	-16284	-2494	-32768	4357	-14772	892	8796	9686	-7526	-1991	-9576	4576	12796	-125	1110	-1793	-16012	3532	-2200	1487	6451	1136	-18004	5624	832	-1867	9112	-409	130	124	1
-32768	2752	9304	-6680	-32768	-23320	-21140	-2928	-13324	-3890	-32768	3364	-9228	6992	15272	3285	-7590	-110	-9668	4672	12692	-227	1600	-2106	-14272	3452	-188	1332	8015	769	-15852	4684	4956	-630	10791	443	142	126	1
-32768	6308	-7200	-2598	-28729	-14609	-19676	-2820	-15300	-7087	-26348	-815	-15768	11948	26992	7367	-5526	-2414	-9512	4828	12992	-344	2235	-2560	-14348	5540	1280	-807	10352	413	-16456	4152	6536	1375	9943	832	131	127	1
-32768	30968	-31820	-10640	-13791	-2399	636	-2452	-19640	-9684	-7994	-7293	-19528	10848	32767	7249	-3020	-2607	-9164	4108	14260	-317	4251	-3140	-15992	4404	-172	-4975	13089	-242	-18172	3372	5116	1327	7821	1451	131	123	1
-32768	14648	-19256	-4887	5001	6155	-7172	-10440	-20372	-618	11181	-4036	-17888	4980	22852	171	3457	-3416	-9140	3700	15424	568	8189	-3223	-18720	1364	-2880	-5536	15713	-1078	-19764	3460	1924	1766	6272	1257	115	122	1
-32768	8208	-4780	12887	10330	7203	-9472	-9652	-20824	2460	12811	-3469	-17520	36	-160	-8731	4031	-4320	-9320	4524	15720	1184	13704	-3571	-20548	-368	-3864	-1715	17506	-601	-21432	2408	1744	4897	4809	459	132	125	1
2520	-2488	26116	26684	16688	7748	-22528	-916	13956	15348	22426	-5222	-9924	-692	-3388	-9304	5719	-3976	-9680	4168	16664	1695	20980	-3785	-22220	-572	-3724	739	19295	-358	-23112	2168	3404	6849	2500	513	125	124	1
7644	8940	19820	17982	29926	-1679	-32768	10516	1480	26793	13771	1779	-20320	-5132	2372	8113	2767	-3730	-9844	3944	16776	1868	22464	-3683	-25892	-2276	-2004	409	21477	-956	-25608	1288	6664	3576	-1542	620	133	125	1
-32768	23460	30020	6479	31623	337	-17180	10720	-10740	30493	17187	2372	-18012	-13908	18896	31610	5625	-9187	-8772	4696	17652	4190	32767	-3354	-27424	-8008	400	3723	23522	-336	-25968	1564	11716	636	-9075	-1402	135	127	1
-13712	4172	18780	-2139	18099	9541	-26544	16812	-6724	13850	23049	-4368	-17496	20068	-22756	30748	16926	-1540	-7572	10372	18096	4257	32767	-5991	-32768	-8788	5344	13711	24043	755	-27116	-1160	19688	-1676	-23880	-5680	137	126	1
-7644	-14480	9616	2794	19994	1933	-15136	-10092	-5924	7994	18040	-4893	-15812	11948	-17012	-1494	5539	1118	-17656	16776	16436	5463	32767	-17616	-29988	5196	4652	23588	23069	2860	-14472	-11948	-3576	8421	-19373	-11325	117	124	1
-16956	-188	15680	4634	17417	6793	-10620	-6544	-8524	11678	10516	-6609	-3980	-3180	-4112	-12272	4548	-737	-32768	8692	12344	1326	32767	-28315	-21456	14700	-11544	7642	24072	4671	-20344	-868	-36	11611	-14737	-7207	129	128	1
-22908	-2224	16880	5859	15864	7879	-22508	-52	-11052	3682	10721	-7226	-20668	-2840	-7040	-2194	11584	-7841	-32768	14824	19972	1492	32767	-27662	-25592	1840	-12504	7181	21358	3250	-25448	8528	-7344	18509	-12718	-3281	127	132	1
-12636	-1712	14772	3419	1916	1980	-20612	5436	-6448	-7465	12282	-4376	-24520	756	-6764	-7327	9054	-5468	-24828	9588	24164	4030	32767	-23641	-21040	2320	-8016	4461	18447	1599	-32768	4656	-12116	13681	-11947	171	109	130	1
-10096	-1524	13632	2425	888	1441	-15372	-2476	-5792	-14232	9174	-4715	-15156	-600	-2520	-6044	10135	-1956	-31548	4808	25304	22097	18840	-15489	-13972	5208	-16092	-2212	14708	99	-26272	-972	-9036	2413	-19984	3116	112	113	1
-8848	-748	13648	1426	769	708	-17100	-3248	-4992	-7834	7333	-4299	-15444	492	-716	-2158	10572	-1521	-19780	21616	27684	19246	-17472	-7388	-12904	60	-13700	13339	8224	1024	-23144	356	-6944	-1950	-21993	2006	116	125	1
-9076	-248	13664	75	1271	-175	-18260	-2616	-4644	2862	6499	-2892	-16524	920	-324	1843	10329	-1898	-2212	13736	13268	9832	-29706	-2944	-10660	-356	-7392	21954	495	1494	-22980	2672	-5968	-189	-20401	-219	129	141	1
-9092	-1148	13540	-757	1648	-748	-17996	12	-4056	3164	5315	-3069	-17208	2260	-1288	799	11714	-1669	5864	9020	6248	4193	-26751	-338	-7380	4316	-5764	19451	-5634	1061	-21416	2452	-6592	1698	-17546	-527	119	139	1
-9372	-1868	12904	-849	1509	-697	-17192	-164	-4124	-2811	4378	-3150	-16424	-684	-2172	-2360	12552	-604	5276	6476	4340	760	-19968	1375	-5848	4320	-4604	5767	-11200	2155	-18252	2572	-7600	1773	-16197	338	121	136	1
-9628	-2164	12908	-210	1237	-803	-16848	-2080	-3932	-6755	3775	-2726	-17184	-1880	-2676	-3319	13772	-1339	980	7376	6792	-324	-16735	3175	-4252	3064	-5824	-6205	-15920	1527	-15092	2924	-8392	-441	-15363	1316	126	134	1
-9616	-1868	12796	453	900	-1167	-16736	-2940	-3588	-6813	3215	-2131	-15952	-2316	-1560	505	14415	-2074	-4096	8560	10928	-924	-19023	5709	-4820	1892	-7228	-9960	-20047	1359	-13900	2996	-8520	-2553	-15094	2371	135	131	1
-9288	-1292	13128	323	697	-1410	-16652	-2912	-3596	-6367	3010	-2079	-15080	1424	24	1125	13378	-2175	-8652	8904	13912	-1142	-25716	10352	-4944	1728	-7548	-10037	-20762	1239	-12028	2600	-7548	-5934	-14562	2748	135	129	1
-9104	-1504	12896	59	770	-1362	-15628	-1556	-2652	-555	2990	-1799	-15720	2004	36	-757	12258	-1022	-9832	7984	13956	-1294	-32485	15088	-8320	1508	-7996	-8316	-28537	-218	-11104	1696	-6588	-7428	-12377	2401	135	129	1
-9196	-1708	12856	-113	756	-1118	-16112	-908	-2220	-2010	3229	-1913	-15176	432	980	-3770	11585	-450	-10700	6852	13640	-672	-32768	18367	-10280	424	-8132	-7550	-32736	-1118	-10620	968	-7104	-8164	-10219	1694	132	130	1
-9168	-2404	12632	10	553	-490	-16008	-2412	-1844	-4836	3533	-2072	-15052	-1564	544	-5485	10955	-1052	-11176	6864	13752	-517	-32768	18744	-10804	-120	-8848	-7651	-32768	-1469	-9620	-16	-8408	-8494	-7754	366	131	128	1
-9344	-1992	12632	237	360	17	-15672	-3360	-1872	-4362	3934	-1948	-15128	-868	-852	-7884	10368	-2174	-18164	7396	16456	529	-32768	21281	-12948	536	-8992	-6343	-32768	-1575	-8544	-812	-8560	-10147	-5314	-353	129	132	1
-9092	-1472	13020	258	366	195	-16000	-2368	-2276	-2076	4680	-1508	-14708	-1024	220	-7643	9870	-1253	-18192	5504	14900	3966	-32768	21594	-15932	732	-9128	-6938	-32768	-1999	-7144	-1376	-8244	-13135	-2253	1050	129	130	1
-9028	-1796	12972	176	578	270	-16600	-1360	-2536	-1459	5266	-1313	-14100	1508	3612	-4249	12484	-2376	-20380	7248	15348	7744	-32768	20852	-18648	2788	-10356	-8126	-32768	-3098	-6484	-1036	-7396	-12791	1320	2975	127	129	1
-9240	-1928	12852	249	723	580	-16688	-972	-2812	-2974	5505	-1584	-13896	3308	2228	-2074	14327	-3398	-30320	12588	22176	5022	-31196	19660	-22444	3460	-12232	-8360	-32768	-3623	-7432	-1176	-3648	-11106	-605	3680	124	123	1
-9280	-1640	12880	228	834	832	-15676	-780	-2636	-4590	6113	-1862	-17140	1888	-1976	-5698	15077	-2345	-32768	16820	25364	-116	-32768	22084	-25412	8684	-12448	-8400	-32768	-4073	-12976	1232	4292	-8589	-7442	4217	123	117	1
-9200	-1308	13032	252	1045	1072	-15540	-1172	-2792	-4655	6762	-1985	-18204	-1456	-3896	-5686	9787	-995	-32596	12924	16540	-4043	-32768	25757	-22928	2308	-13232	-2919	-32768	-5516	-15004	2192	7352	-5660	-7987	4582	124	118	1
-9128	-1232	13080	216	1105	1028	-16320	-2536	-3140	-3284	7596	-1516	-17652	-2984	-136	-4227	7986	-952	-32768	11480	8296	-3122	-32768	26152	-19396	-884	-13472	1319	-32768	-1387	-13456	-1192	8780	-8723	-4635	3353	125	128	1
-9000	-1568	13164	246	2442	1432	-16548	-1748	-2780	-2542	8447	-1428	-16788	-848	1532	-3007	10314	-1460	-32768	-6676	-6560	6431	-30759	19111	-17340	-4408	-12372	7546	-31881	6923	-15084	-12540	21760	-8505	-5208	2348	126	124	1
-9048	-1200	13540	27	3622	1419	-16168	-792	-2128	-2365	9631	-1503	-15856	-488	2764	-1730	11599	-658	-32768	-28576	-22060	32767	-21226	10977	-1940	2208	-12596	21873	-14388	9843	-24056	-8648	32767	-7420	-5770	1923	126	132	1
-8984	-1084	13596	-46	3870	1403	-16292	-1772	-1992	-686	11398	-965	-17264	-2292	3388	-871	10353	162	-32768	-14920	-18624	9546	-4922	-3008	-3368	15440	-13196	15390	3605	4502	-19412	2084	22364	11974	-3197	-427	126	141	1
-9076	-1304	15088	-893	9030	303	-19124	-2396	-2396	2624	13218	-45	-20136	-1540	3084	841	8658	-19	-32768	-14684	-10420	-13220	5097	-17565	-7936	6864	-16216	-4509	15986	468	-17220	8280	3852	11324	-7442	3987	127	130	1
-9432	-2224	15312	-894	13008	835	-20060	492	-2156	1462	15143	-550	-19944	552	4816	-2100	6851	453	-5352	5048	408	-27077	14751	-20514	-14424	5344	-11316	-10130	21475	1336	-12708	6164	-2428	12145	374	6115	127	133	1
-9160	-1808	16192	-1236	18186	1352	-20896	1372	-1972	-1426	17104	-1177	-23520	2248	6564	-6255	3910	103	14252	-7232	32767	-6709	32767	2000	-32768	-20580	15044	-31861	16559	-7592	-7924	1108	-5060	3626	-290	5331	127	134	1
-9288	-1260	17344	-1037	26120	611	-24744	-236	-796	-1294	19710	-489	-23164	512	10228	-3431	1415	33	-32768	-15144	17828	-9782	32767	-8834	-24840	6872	-16656	-32768	21406	-767	-32768	8332	32767	-32768	-16114	10678	126	139	1
-8200	-2176	18660	-1583	32767	770	-27012	4244	572	594	21976	-1062	-24360	2104	17632	-5035	-7063	911	-25608	-11152	30184	665	15587	-11333	-17780	-20100	-11328	-17895	24134	2307	-7908	-11916	-14136	-6679	26220	-2179	131	105	1
-4780	-8472	20000	-1918	32767	-553	-32768	15036	6228	-4917	23625	-1744	-27552	5848	25672	305	-21249	5038	-2440	20068	6728	561	17501	-5602	-10860	5232	-7344	-2057	21385	3505	-18280	-15392	-26696	-6988	3211	-3538	127	117	1
-16004	-7124	21252	-1863	32767	5216	-32768	5000	9652	-17203	23932	-2571	-27692	7704	32767	5169	-22904	6010	-24868	3312	17236	-8868	8136	-13753	-13180	19256	-14736	-5499	15473	7555	2384	8192	-2416	15025	3381	-2270	128	125	1
-32768	-6632	20524	-4715	32767	13678	-27520	-17428	-5780	-15237	26429	-1984	-23104	5276	3644	-15200	-10715	7630	-13448	4208	15136	-7102	-70	-8043	-20304	-212	-16136	-11093	13202	4849	-18072	6712	-10184	7939	11382	7280	135	126	1
-32712	-15176	24272	4113	32767	24813	-30356	-8348	-5852	-765	26507	-4248	-29672	-3444	-9572	-15658	-7350	2216	-11328	736	14748	-2075	-1058	-2643	-16812	-6984	-11320	9027	11769	2236	-27172	7676	-9720	6752	10137	10333	128	127	1
-22148	-13068	31328	-63	32767	23499	-24236	2028	-6800	2395	22435	-4911	-32564	1768	-11872	-17606	-14612	-313	-10008	4492	13796	-1022	-1041	-1820	-15712	4300	-7980	14248	9376	3734	-23684	5428	-7892	5350	8657	9718	131	116	1
-15636	-472	29428	-12470	25228	11608	-18352	-1004	-10072	336	13585	-2523	-30028	3288	-7112	-8609	-20781	-1189	-9316	2800	13820	-510	-392	-1170	-17016	784	-8180	6041	7443	3356	-14768	1324	-1684	4762	9019	2610	127	126	1
-12904	-19132	32096	-18561	-13089	3026	-15408	384	-4536	-8973	6575	-2352	-26904	2236	-8204	-3086	-21557	178	-9044	2384	13860	434	273	-485	-16876	2848	-7048	-2312	6545	2386	-17848	2188	-1084	2208	11118	1535	125	128	1
3956	-14688	17388	-6654	-24008	2127	-13196	-1616	-1944	-10364	-1633	-3861	-25620	3564	-7672	-2146	-21091	932	-9208	3688	13496	1210	788	-45	-16684	2052	-7196	-7692	5176	2257	-16400	2052	-2144	-1964	11928	913	121	121	1
5164	-7076	11076	-382	-25256	149	-6968	-4296	-3080	-5667	-10304	-3584	-21672	3444	-8564	-4900	-18682	849	-9948	3956	13164	1058	746	76	-16036	224	-7424	-2302	3587	2818	-16220	2832	-2660	-1286	13113	355	130	123	1
2468	-3892	9956	-2921	-25040	-3424	-6528	-2184	-3616	255	-17075	-1793	-17584	1376	-9444	-5836	-18392	-687	-9304	4168	13296	737	451	277	-15904	2104	-6352	3543	2380	2780	-17000	2604	-1964	-183	13734	382	126	127	1
-1860	-4776	11576	-5880	-26754	-6248	-7984	-1288	-4736	3036	-22555	-495	-16044	-452	-9888	-4138	-17871	-1326	-9256	4148	13412	679	407	285	-15792	2420	-6116	4092	2264	2768	-16576	2596	-312	410	13705	1080	133	132	1
-5112	-4564	13264	-6209	-30890	-8452	-8272	-956	-5492	3441	-27427	754	-13424	-1564	-9448	-2732	-18259	-1466	-9392	4176	13152	598	417	80	-15792	3444	-3644	3700	1985	2100	-16464	1452	592	1732	13236	2123	133	135	1
-8304	-3896	14556	-5590	-32768	-11088	-8744	-776	-6380	3771	-31682	2084	-12116	-2240	-10012	2057	-16787	-2633	-9300	3720	13348	647	485	-67	-15148	2192	-3284	702	2239	2225	-15244	-668	1816	2334	14428	1430	124	126	1
-10200	-2396	15760	-5100	-32768	-13927	-10520	-576	-6688	4602	-32768	4105	-9436	-2024	-9848	3604	-16227	-3240	-9112	3748	13352	568	706	-221	-15268	1496	-3208	1205	2644	2328	-14496	-300	2536	6484	12491	-450	132	127	1
-12084	-1640	16868	-5632	-32768	-15683	-12356	1024	-7224	4262	-32768	5799	-6248	-444	-10480	4907	-15869	-1934	-9396	4200	12984	367	693	-413	-15072	3092	-3128	2962	3076	2263	-14680	2408	1420	9440	12260	-1288	134	125	1
-15600	-1440	18448	-6510	-32768	-16094	-13780	176	-7620	1926	-32768	7023	-7376	-464	-11336	7848	-13147	-2107	-9384	4300	12980	71	504	-793	-14956	3816	-3208	3831	3653	2048	-15116	4764	-108	9370	12025	-693	134	129	1
-16216	-676	17712	-9731	-32768	-14837	-17932	-136	-7484	1751	-32768	7533	-5064	-444	-12480	11209	-10383	-3042	-9288	4344	12932	-13	280	-1115	-15680	4156	-3288	2522	4197	1509	-15012	4600	-524	8372	12973	349	130	131	1
-22244	-784	19864	-13626	-32768	-12772	-20644	-1296	-10412	1669	-32768	8604	-3476	1036	-11004	13065	-8355	-5140	-9372	3892	13292	-102	462	-1345	-15912	2756	-4144	1249	4640	1299	-14928	2992	476	5796	14339	1345	128	131	1
-31876	-5032	26680	-14360	-32768	-14107	-27424	-2084	-11512	2089	-32768	9178	-4568	1584	-5352	11414	-8843	-4666	-9468	3908	13380	-110	792	-1559	-15692	1312	-4512	2627	5035	1339	-13936	1068	2476	3954	16237	1597	127	128	1
-32768	-11668	26140	-8708	-32768	-15266	-32716	-6168	-11300	4181	-32768	10372	-12108	1672	5380	8816	-13111	-3337	-9520	3872	13196	-73	1184	-1747	-15804	1188	-4520	3068	5095	1346	-14392	1420	-692	4053	17224	1093	128	127	1
-32768	-16524	14736	1018	-32768	-22094	-25956	-8220	-17272	7100	-32768	9872	-17028	204	10128	11414	-11513	-2344	-9292	4096	13504	-2	2002	-1864	-15864	3884	-2400	4508	6673	1406	-19044	6260	-2336	4134	13446	-330	124	124	1
-32768	-5992	4724	5951	-32399	-29876	-19040	-5160	-17860	10994	-32768	6890	-14268	1880	13860	15156	-7708	-991	-9388	3916	13736	-149	3074	-2304	-16076	3868	-2204	4017	6867	1402	-19936	7052	-2224	3767	12444	-443	137	125	1
-32768	3588	-10136	5504	-27300	-25922	-15628	-3416	-17240	6990	-26095	2718	-10440	15744	26964	13940	-5766	735	-8912	3064	14472	3	4891	-2311	-16300	2604	-996	630	10532	601	-17792	5232	5156	-1029	8961	1217	127	126	1
-32768	23084	-31208	-2835	-15584	-12152	-4188	-2620	-18480	-3870	-10615	-5659	-16800	16604	32767	13051	-500	-1871	-9104	3292	14836	577	7805	-2449	-16968	2920	-1628	-1202	13013	-168	-17228	3680	6716	1426	10171	1054	117	123	1
-32768	19520	-24128	-6458	2328	2986	-3856	-12492	-20044	-2116	7644	-5762	-17944	5104	26060	2036	546	-2715	-9464	3908	15488	700	12041	-2410	-18516	1788	-2164	-1597	15430	-626	-18476	2080	4836	3701	9349	34	119	123	1
-32768	1924	-26996	22187	21503	10901	-13972	-2868	-25712	11642	18743	-5926	-18440	2796	8104	-10656	2109	-2029	-9284	4992	16016	698	17729	-3175	-21000	752	-2048	-294	17690	-303	-22144	2992	3852	4409	7023	-351	130	122	1
-1316	4892	32767	4669	32767	-12874	-32768	22732	22132	28221	25725	3924	-21164	724	7144	-4180	4259	-4070	-9548	4740	17040	-75	25293	-4032	-23532	900	-1744	128	20052	-344	-25308	4912	5936	4110	3233	-27	116	127	1
-32768	20676	25644	5457	32767	6807	-30816	-3108	-19016	32767	21157	-3103	-7292	-8756	11504	17844	4009	-7157	-9112	5448	17760	-722	32767	-5013	-26212	-2580	-376	-750	22761	-639	-26260	3492	9068	-566	-2685	891	113	125	1
-16104	5856	22280	529	19006	9367	-13232	17988	-8384	11583	24708	-8151	-9672	11588	-24384	25229	9500	-1571	-9768	8104	17680	-4	32767	-7559	-30424	-8132	2296	5217	24365	589	-27500	-648	13260	-1704	-13880	-1279	123	127	1
-2020	-12584	6392	685	21495	5589	-13688	-6444	-10412	7945	18840	-5766	-18296	8556	-22488	5358	4500	-2455	-11188	14656	18192	-851	32767	-14974	-32768	-6600	5936	20493	23909	3544	-27552	-8220	31192	-9834	-32768	-8688	117	126	1
-26212	-3788	16228	5686	20047	6650	-13592	-11864	-11388	9401	12353	-7104	-3828	-1416	-3912	-6195	4290	217	-30332	14884	15772	-595	32767	-28612	-26336	13376	-4276	20382	23226	5165	-18196	-17188	4068	7001	-13169	-10380	113	120	1
-14432	-4808	16092	7757	6110	5846	-24556	160	-12724	10611	10268	-8657	-27196	-4740	-10484	1438	12831	-8434	-32768	9420	19720	-3727	32767	-31178	-23108	8276	-11204	11581	23482	6437	-20448	-8820	2596	9141	-14806	-9091	117	131	1
-11904	-2612	14384	2423	2251	2215	-17992	6412	-7552	-6482	13599	-4570	-23620	840	-7040	-2702	7496	-6029	-26532	12884	22416	-328	32767	-27760	-23872	1744	-11748	12262	19741	3961	-30644	7640	-10996	23188	-9541	-1285	112	125	1
-9648	-1568	13640	2082	1078	1335	-15484	-4024	-6704	-12094	9196	-4466	-15168	-1084	-3288	-1951	9409	-2825	-15924	5312	21284	12503	30268	-18466	-18824	2720	-11856	2593	16348	1873	-31640	1452	-11064	13124	-15463	3324	126	122	1
-9132	-1428	13296	1527	603	849	-16716	-968	-5156	-6316	7236	-3830	-14656	1496	180	329	9721	-2054	-32768	18424	32767	23524	576	-11264	-12436	6432	-19808	4345	11822	2698	-25052	-1392	-8724	292	-22109	5104	131	101	1
-8884	-1068	13488	835	708	238	-18028	-1192	-4368	-1160	6619	-3053	-17472	1456	356	1044	9946	-2201	-8472	20900	18672	13912	-23531	-5702	-12912	-1484	-9456	17086	3594	4429	-24336	-364	-6904	-343	-22972	3153	120	158	1
-8848	-1528	13336	335	1083	-50	-17456	-1748	-4032	4384	5618	-2865	-17068	3132	132	2336	10314	-1989	3372	11484	8168	5118	-24612	568	-8984	1152	-7204	16619	-2932	4022	-22236	1688	-6040	2550	-21019	1105	132	147	1
-9592	-1792	12776	646	1161	-319	-16732	1304	-4668	2490	4448	-3182	-16252	2020	-448	545	11475	-1253	7068	6296	4588	3868	-17913	6287	-6396	164	-5260	10087	-8489	4173	-19236	-1040	-7132	5241	-18878	1539	125	131	1
-9828	-2140	12752	937	915	-684	-16808	732	-4740	-3853	3929	-3436	-16324	2312	-1064	-1931	12663	-861	2656	5660	6572	3768	-13084	9692	-4660	112	-5336	1174	-13220	4264	-16008	2236	-7964	3066	-17857	1893	122	131	1
-9540	-1848	12620	880	595	-711	-16344	-1628	-4400	-7056	3340	-3053	-16536	-1692	-1684	-1523	13715	-1332	-2692	6216	10868	1671	-15261	10720	-3192	708	-6040	-4257	-17343	4618	-13460	124	-7984	-145	-16958	2110	125	130	1
-9340	-1948	12772	520	284	-558	-16668	-3000	-3612	-4888	2761	-2567	-16012	-1220	-28	271	13243	-2763	-5756	4920	13724	213	-22307	12448	-3808	360	-7012	-6882	-21559	4947	-12244	1088	-7904	-2863	-15923	2319	136	123	1
-9328	-1808	12680	457	272	-525	-16028	-2900	-2892	-107	2743	-2156	-15808	-48	1040	992	12525	-2702	-6184	2296	14612	2268	-28831	15160	-6540	-820	-7248	-7373	-25753	4136	-12064	1400	-7432	-5213	-14003	1802	138	123	1
-9084	-1932	12952	104	315	-32	-15932	-1328	-2408	2259	3179	-2047	-15576	676	1508	743	11557	-1907	-7052	1420	15292	5934	-32312	17367	-7060	-928	-7148	-7269	-26485	3963	-10772	1072	-7136	-5132	-11865	653	134	128	1
-9140	-2104	12900	183	262	335	-16032	-812	-2536	182	3289	-2102	-15228	136	1756	-389	10635	-1197	-10432	2092	17308	7268	-32768	18121	-10524	-2280	-8536	-5573	-32768	2299	-9752	1192	-7912	-6801	-9539	-475	129	135	1
-9372	-1932	12772	355	92	722	-15888	-1464	-2652	-2015	3626	-2174	-15456	-916	1292	-722	10643	-1764	-13624	1936	18960	7004	-32768	18392	-11736	-2048	-8988	-4435	-32768	1823	-9392	-40	-8564	-7399	-6889	-1396	127	135	1
-9176	-1744	12864	441	51	866	-16200	-2248	-2832	-1262	4023	-1882	-15652	-640	1080	-426	10400	-2116	-17204	1796	20156	8295	-32768	18623	-14056	-1184	-9540	-5807	-32768	846	-7712	240	-9068	-10012	-3449	-893	130	134	1
-9248	-1236	13056	391	162	935	-16308	-1256	-3596	552	4539	-1695	-15652	992	360	-666	9889	-2417	-18540	2040	18468	11323	-32768	19401	-16204	-316	-9292	-8074	-32768	-1257	-5968	-668	-9000	-12283	370	1360	129	132	1
-9024	-1380	13152	242	552	678	-16648	-492	-3532	331	5020	-1639	-15816	1560	-156	-1767	11856	-2010	-21448	5848	18264	9371	-32768	19853	-19196	688	-10972	-9289	-32768	-3688	-6572	-1760	-8180	-11435	2118	3698	128	125	1
-9164	-1492	13104	83	901	628	-16688	-288	-3564	-775	5299	-1949	-15004	2840	632	-4637	12808	-2115	-32436	10752	26544	3578	-30774	20706	-24392	3748	-12940	-8738	-32768	-4316	-9064	-1272	-3160	-9121	-478	4399	126	121	1
-9272	-1588	13040	96	1245	794	-16376	-516	-3704	-2908	5789	-2279	-12584	3232	3092	-4909	15797	-2592	-32768	14544	25812	-1764	-32768	24369	-26140	8284	-13476	-7935	-32768	-6017	-14228	2308	7036	-5685	-7072	4497	123	121	1
-9176	-1304	13200	126	1642	965	-15872	-1172	-3484	-3731	6391	-2424	-12516	3120	3188	-4581	16195	-2561	-32768	11300	13424	-5944	-32768	28008	-21328	2088	-13056	-5353	-32768	-6800	-14564	4364	10184	-5954	-5239	4294	121	124	1
-9256	-1444	13064	240	2213	861	-15940	-1456	-3376	-3061	7265	-2271	-18536	-1512	-3336	-4652	12244	-1344	-32768	8652	948	-4926	-30953	27524	-17984	-1860	-12868	-4030	-32768	-1194	-11452	-5980	16048	-11574	-2134	1638	122	128	1
-9400	-1104	12976	332	2724	870	-15488	-788	-2988	-2131	8341	-2153	-19120	-1932	-4	-2066	8575	-1480	-32768	-23796	-18604	18312	-24582	18164	-8004	-5288	-11656	10806	-22644	7510	-20560	-16876	32767	-19980	-6107	1904	127	126	1
-9116	-436	13688	404	3862	371	-15684	-1200	-2748	-1449	9838	-1967	-15748	-2364	4148	-457	9892	-437	-32768	-24600	-21540	27918	-9573	6413	432	13068	-11396	18654	-3560	7043	-23692	-5900	32767	2578	-2756	-705	127	135	1
-9148	-1048	14280	-1	6034	-16	-16956	-3096	-2028	499	11514	-1102	-17084	-2744	4080	375	10620	90	-32768	-13464	-13724	-8672	2756	-8799	-6772	11652	-13616	3060	10739	2191	-18588	2416	14320	15219	-7359	812	126	137	1
-9164	-2520	14888	-10	9082	531	-18672	-1640	-1784	1876	13322	-995	-20804	-1832	4216	1174	8807	507	-32768	-6636	-4972	-9617	7499	-16304	-10120	4796	-15012	-7064	18714	-1019	-14800	7840	-1240	18271	-2914	5063	128	138	1
-9420	-2216	15940	301	13269	1308	-20056	404	-1884	406	15401	-1502	-20972	416	6676	-1433	5753	1021	-280	8996	16136	-20103	21062	-16137	-20352	700	10084	-15387	20341	1409	-12076	2872	-2356	11189	885	5714	129	132	1
-9320	-904	17116	536	19492	1381	-23304	808	-2228	-254	17948	-1438	-22432	1636	8100	-4078	2148	-385	3680	-3548	32644	-17842	21756	-13101	-32768	-4116	-2728	-32768	18998	-7190	-26092	928	8552	-14997	-7728	4992	128	128	1
-8912	-2364	18060	424	28478	1049	-25852	960	-1124	1377	20907	-878	-24784	3696	11904	-3421	-3193	-1051	-32768	-20228	31888	-3621	24743	-8067	-18616	-12876	-13572	-32768	22833	2547	-16704	-4232	25220	-16364	6930	10629	129	131	1
-7768	-1748	19924	-498	32767	1687	-30164	6716	1772	-420	22661	-1880	-27568	4732	19740	-5946	-13598	419	-12676	12816	13400	3405	15884	-8248	-12924	-6908	-8744	-3977	22336	3536	-19900	-15508	-26464	-16412	9447	-3731	121	108	1
-6452	-8512	21452	540	32767	2536	-32768	16436	6500	-10321	23674	-3586	-26496	10920	24656	9970	-14213	7157	-27584	12392	16912	-8128	11762	-10971	-15420	18972	-14940	-961	16855	7182	-7484	-2388	-5948	7369	1736	-3248	126	121	1
-21960	-8424	21316	2643	32767	9027	-31188	-368	-684	-21293	25224	-4543	-17228	23288	2312	-15237	-9879	13259	-16284	9032	14980	-6657	1039	-6760	-15288	8836	-15284	-11713	13341	5976	-11544	5712	-10912	5944	12196	4527	135	123	1
-32768	-11596	23272	981	32767	16726	-27596	-14684	-9096	-14375	25449	-3264	-24944	-1956	-2196	-22923	-7939	5671	-11944	-216	15548	-2277	-1038	-2960	-16924	5176	-15560	-11810	12781	5475	-15352	5812	-10892	3746	12704	5091	132	114	1
-27888	-10176	27300	7306	32767	23965	-27312	-4300	-6136	-4658	23154	-4058	-29936	-1400	-12152	-21783	-8037	2002	-9792	4532	13716	-728	-783	-1069	-15992	2700	-8152	16354	8960	3382	-20332	1916	-4128	2819	8140	5779	131	103	1
-13936	-8144	31224	-919	32767	19515	-21928	-308	-9408	408	18436	-4317	-32768	4264	-9660	-12670	-17163	-1260	-9044	3620	13760	-366	-651	-1051	-15952	2960	-6812	10462	7311	3610	-15744	2904	-2060	5255	9246	3117	131	115	1
-32768	-2368	32767	-16055	9848	6906	-13476	-916	-12464	-1589	10454	-1624	-26776	2240	-8304	-6212	-20022	-1628	-9012	3008	13876	278	-98	-735	-17084	3476	-6136	3752	6438	2311	-16280	3088	288	3621	10124	2519	128	128	1
-4080	-15912	23800	-19611	-17873	2763	-14772	1664	-3512	-10050	3915	-2996	-26676	3484	-7608	-2133	-21587	447	-9268	3628	13656	794	403	-344	-16676	3936	-6060	-5639	5643	2021	-16824	1492	-760	534	11108	1514	123	119	1
4596	-11912	12736	-9937	-24826	1920	-9720	-3560	-2672	-10098	-4420	-4281	-23712	5480	-7628	-4559	-19185	1447	-9288	3812	13516	783	609	-92	-16440	-132	-7088	-4312	4192	2406	-16364	1476	-2144	504	12368	877	125	118	1
5228	-7192	8668	-4259	-23898	-646	-5764	-3644	-3232	-4304	-11945	-4207	-18748	2172	-8868	-6938	-17966	888	-9424	4056	13348	825	618	260	-15740	520	-6584	1945	2984	2686	-16712	1596	-1836	1582	12804	573	141	121	1
1348	-5224	8724	-3907	-23398	-4368	-5604	-1704	-4044	1824	-18129	-2677	-15840	1076	-9496	-5067	-17260	-1000	-9168	4208	13332	942	775	370	-15860	2380	-4988	5518	2393	2600	-16576	2840	-680	1728	12783	847	125	125	1
-1516	-4784	10532	-4629	-25174	-7911	-6352	-568	-4796	4012	-22925	-1265	-14720	96	-9420	-3835	-16618	-1542	-9304	4128	13348	816	845	177	-15808	3708	-3972	4056	2306	2321	-16304	2484	288	1187	12689	1416	123	134	1
-5024	-4308	12512	-4418	-28712	-11165	-6944	-364	-5668	3858	-27615	217	-12832	-2068	-10852	-1926	-18117	-2148	-9312	4120	13128	669	858	-11	-15212	3372	-3440	1036	2432	2201	-15780	1276	388	1163	11528	1512	121	131	1
-8960	-3424	14720	-2698	-32768	-13910	-8232	-1424	-6376	4412	-31537	1812	-11092	-2128	-10412	1408	-15935	-2830	-9196	4004	13288	569	890	-178	-15048	2272	-3552	199	2777	2160	-14728	768	1440	4186	12088	417	127	133	1
-10528	-768	15912	-3051	-32768	-16244	-9908	-480	-6764	6022	-32768	3996	-9136	-2784	-9732	4079	-14355	-2903	-9416	4104	12996	251	695	-509	-14952	2052	-3632	1888	3069	2228	-14704	1368	1244	6133	11323	-881	130	125	1
-11932	240	16836	-5182	-32768	-17027	-11920	592	-6932	4819	-32768	6231	-8276	-2588	-10520	6935	-12985	-2260	-9472	4292	13160	62	509	-733	-14884	3620	-3888	4001	3331	2247	-14724	3432	-120	8227	11730	-957	134	124	1
-15088	316	18172	-8152	-32768	-15312	-14368	-364	-7156	2350	-32768	7515	-7612	-1756	-11760	10124	-11286	-2725	-9492	4096	13160	-68	360	-799	-15480	4432	-4116	3031	3705	1714	-15536	4688	-1432	8008	12114	-104	134	127	1
-17680	1060	17268	-13643	-32768	-12206	-17892	-280	-8516	1958	-32768	8110	-5808	-548	-12540	13596	-8696	-4245	-9408	4252	13312	-73	409	-952	-15876	3276	-4336	2020	3923	1496	-15060	3132	-788	7235	13405	772	130	131	1
-23568	-1268	19524	-15892	-32768	-10807	-21632	-872	-10624	2008	-32768	9788	-4824	1536	-10188	15390	-7230	-6165	-9368	4092	13192	-96	563	-1173	-15772	1840	-4764	2724	4064	1372	-14272	1368	1012	5978	15688	1428	129	132	1
-32768	-7900	28000	-12844	-32768	-12975	-30292	-2044	-15324	2969	-32768	9413	-6468	3004	784	12459	-10327	-4710	-9320	4120	13148	-85	850	-1438	-15456	1268	-4376	5376	4310	1731	-13412	816	-4	4284	16708	1416	129	127	1
-32768	-9940	28772	-11635	-32768	-13257	-32744	-3748	-13112	4244	-32768	10663	-13888	2396	8312	8722	-14296	-3192	-9544	3644	13508	-173	1132	-1488	-14736	3172	-3112	5409	5077	1754	-15568	3724	-2316	3860	15592	313	128	126	1
-32768	-17224	12092	2570	-32768	-25171	-24056	-7324	-16428	6109	-32768	7464	-18856	3560	9796	9898	-8953	-1744	-9240	4248	13488	-173	1807	-1696	-15820	4168	-2004	2493	6431	1491	-19880	7116	-1688	2520	10652	-36	123	125	1
-32768	-4996	4676	3255	-31097	-32504	-19772	-4152	-13632	11115	-32768	5597	-12788	4264	15464	11972	-7831	488	-9304	3928	13672	-248	2880	-2135	-15484	2872	-1548	651	8175	1308	-19704	6156	2368	-690	8870	995	133	124	1
-32768	2388	-6904	2637	-24187	-27135	-18372	-1240	-14580	4735	-26637	2018	-12792	16328	25316	14480	-5115	396	-9128	3176	14272	93	4517	-2113	-15904	3412	-1300	-165	10265	701	-17308	4636	4948	-640	9122	1474	120	125	1
-32768	25640	-25740	-5692	-13283	-12370	-3464	-1716	-16504	-9089	-10971	-6785	-16448	13456	32767	12774	-2244	-2182	-9200	3904	14744	303	7037	-2282	-16400	3768	-1916	-1846	12560	125	-16964	3660	4612	1782	9028	975	122	125	1
-32768	18104	-19744	-8612	1602	1996	-4248	-12176	-17628	-4219	6199	-5316	-16992	3944	26872	1388	-829	-3542	-9492	3900	14896	565	10466	-2437	-17576	2480	-3160	-2176	14770	-328	-18180	3276	2360	2767	7723	300	126	123	1
-32768	7048	-5328	5378	6909	8988	-11588	-4900	-18668	9484	16734	-3953	-18028	956	2384	-9683	2566	-3270	-9868	4396	15080	693	14915	-3161	-18844	1092	-3164	-484	16580	-10	-20376	3364	2220	3563	5522	-82	141	125	1
484	-3092	-1984	25867	21008	10425	-17888	1236	-5240	12609	21762	-6459	-10580	2608	880	-9621	6347	-4161	-9796	4600	15868	432	20559	-4148	-20668	344	-3036	797	18615	339	-20536	3132	2724	4034	5027	-80	134	124	1
3228	2756	32767	7487	31290	-11287	-32768	21828	8584	23475	18333	3581	-17896	-960	16332	12916	3536	-2868	-9532	4604	16928	-100	28596	-4624	-23936	-144	-2080	822	20985	99	-24012	2396	8192	2632	-758	852	133	124	1
-30164	23784	22800	5298	32767	521	-20556	992	-13104	27996	16341	-87	-21256	-12792	17808	11361	6778	-4391	-8964	5328	17284	327	32767	-5823	-26780	-4500	-644	2111	23236	448	-25316	1496	13064	612	-8050	140	102	125	1
-21312	5380	23996	64	18869	12737	-20952	9192	-7668	15929	22526	-5240	-17644	17208	-8888	32310	5746	-3786	-8860	9728	17888	826	32767	-9151	-32768	-10948	3452	12138	24360	2436	-27452	-1408	23048	-497	-24001	-4266	112	126	1
-6896	-17648	7960	3618	21477	2716	-17892	-2692	-7980	14613	17841	-5316	-15680	13480	-15440	10435	5378	-3716	-16528	14260	18492	2168	32767	-18035	-32652	1536	5148	27157	23766	4096	-15296	-14896	-5700	10590	-16152	-10995	128	131	1
-20196	4992	16560	4821	17899	7374	-12136	-5852	-10736	11753	12305	-6806	-6728	952	-4468	-6237	4105	-321	-32768	8892	15884	-232	32767	-30018	-22924	15392	-10244	17839	23845	6239	-17228	-21024	996	7102	-13430	-11526	125	131	1
-18272	-4544	16936	8393	5862	5135	-21260	-496	-12136	4273	9718	-8801	-21212	-436	-8096	-1781	10425	-6936	-32768	13604	19520	-1870	32767	-30108	-25276	5112	-15288	11255	22528	5272	-25956	8284	-7584	22750	-12230	-3570	133	129	1
-13832	-2652	14308	2909	1787	1998	-19896	5728	-7704	-8483	12937	-5236	-22260	-164	-6704	-6232	7723	-4665	-26684	12468	26692	4332	32767	-25259	-21224	3876	-9836	4846	19300	2672	-32768	5636	-12732	17628	-11540	1528	109	121	1
-11352	-3336	13148	2767	1797	1721	-15480	-3820	-6392	-14526	9604	-4975	-15540	-1540	-3040	-3946	8981	-2552	-22516	2716	25140	21561	18101	-16206	-14668	7652	-16780	-1016	15021	2023	-28148	-720	-9788	2858	-20302	5526	122	113	1
-9172	-1236	13396	1367	664	825	-16932	-2704	-5232	-7923	7151	-4147	-16228	-208	-660	-886	10034	-1809	-20956	22092	28228	21316	-19143	-8686	-11572	-552	-13632	12720	7737	3074	-25328	-1416	-7740	-783	-22724	3849	122	122	1
-9400	-1236	13276	133	1152	-58	-17992	-3504	-5048	3118	5989	-2700	-17352	1020	-912	2211	10198	-2191	-316	13896	12036	11146	-30664	-5861	-10004	-792	-7840	18768	-345	4120	-23936	-328	-6656	2478	-20851	1099	123	149	1
-9396	-1540	13180	-277	1412	-276	-18240	560	-5352	5258	4835	-2906	-17140	2644	-1796	1667	11436	-1978	8668	6136	3876	7162	-25010	-2411	-7364	628	-5904	15410	-7105	5030	-21076	-248	-6764	4728	-18883	638	122	133	1
-9620	-1352	13020	-221	1474	-478	-17092	1636	-5588	-1407	3749	-3025	-17148	1500	-2648	-945	12822	-889	6016	5240	4280	8052	-16918	2058	-5172	-1456	-5380	5761	-12216	5178	-17912	1008	-7620	4602	-17129	1025	117	133	1
-9872	-1756	12644	262	1351	-1057	-16784	-812	-5208	-5543	2952	-2765	-17080	-1956	-3380	-253	13728	-1062	196	7752	7960	7053	-14731	6193	-3308	-728	-6048	1429	-16259	5187	-14452	-852	-8144	2784	-16030	1142	127	128	1
-9960	-1848	12744	299	1328	-1161	-16772	-1964	-4064	-6229	2343	-2378	-16280	-1052	-1576	2881	13636	-1937	-4568	8216	12572	3456	-19164	10172	-3748	472	-6708	-2589	-20600	5783	-12796	-488	-7872	426	-15971	1549	133	128	1
-9436	-1560	12804	243	880	-1459	-16236	-2088	-3488	-2904	1852	-2079	-15368	1728	112	2456	13385	-1818	-5464	5368	14072	2153	-25652	14999	-5608	44	-6916	-4594	-24644	5666	-11940	1344	-7328	-2273	-15326	1724	135	124	1
-9268	-1572	12712	-8	839	-1329	-15876	-1788	-2700	-294	2142	-2001	-15756	1100	-24	1428	12533	-1576	-5564	3008	14204	4618	-28506	19160	-8700	-528	-6776	-6557	-28641	4501	-11344	2072	-6648	-3234	-13342	1170	132	130	1
-9364	-2084	12644	70	742	-835	-15856	-1348	-2272	-179	2403	-1914	-15132	772	888	-481	11568	-1379	-5800	2976	14360	5035	-28833	19604	-10000	-960	-8040	-8317	-32768	3630	-9324	1172	-7108	-4408	-10939	137	131	131	1
-9508	-2088	12492	351	442	-175	-15796	-1428	-2024	-2727	2744	-2026	-15052	-652	808	-3286	11361	-1364	-12608	1488	18660	5937	-32768	21175	-11032	-1160	-8628	-7592	-32768	2985	-9328	-92	-7656	-5247	-8866	-668	130	132	1
-9396	-1980	12520	423	235	243	-16004	-2740	-2224	-2492	3220	-1933	-14568	-1992	56	-5254	10973	-1480	-15540	552	19784	8646	-32768	20099	-13408	-1280	-9440	-8090	-32768	2342	-8124	428	-8124	-6519	-6075	-918	130	135	1
-9396	-1316	12744	383	268	414	-16124	-1660	-2656	-187	4013	-1461	-15312	-512	572	-4608	11277	-1746	-17736	1924	18792	11429	-32768	18811	-15372	-900	-9496	-8240	-32768	836	-5688	-876	-8576	-9861	-2378	222	130	131	1
-9388	-1468	12968	262	550	406	-16760	-888	-3056	-210	4425	-1348	-14408	1960	4428	-210	11886	-1944	-22228	4448	20080	10045	-32768	18813	-16576	-688	-11284	-8935	-32768	-1305	-6112	-2344	-8468	-11560	387	2652	127	127	1
-9380	-1400	12892	190	695	535	-16628	-148	-3004	-2106	4836	-1585	-14484	3568	2348	1079	15226	-3233	-27996	6764	25700	6959	-32768	19718	-21992	952	-11908	-5398	-32768	-1667	-7908	-1644	-6368	-10143	-346	3362	122	124	1
-9440	-1596	12904	225	884	635	-16152	48	-3192	-3613	5443	-1943	-17640	3176	-980	-4474	15857	-1921	-32708	8124	28132	5624	-32768	21382	-24432	5128	-13268	-1016	-32768	-2694	-11516	3192	2356	-6165	-4292	4514	123	125	1
-9112	-1064	13124	127	1188	662	-15752	-500	-2528	-4329	6359	-2065	-18604	108	-2644	-4060	10589	-1049	-32768	7680	22724	4551	-32768	22396	-23656	4276	-13300	2570	-32768	-3846	-14824	5792	8088	-2710	-5934	4891	124	123	1
-9380	-1120	13064	5	1729	542	-15972	-1196	-3000	-3727	7323	-1836	-17204	-1988	-308	-2863	7824	-1114	-21812	4776	8388	-1840	-32768	17484	-23488	5236	-13316	-429	-32768	-1399	-12700	3032	11388	-4462	-3621	4131	126	123	1
-9408	-1196	13092	-96	2487	455	-16212	-1460	-2888	-2579	8336	-1476	-16612	-868	2156	-2215	9589	-1186	-32768	-9428	-3964	7103	-30039	16995	-16584	-5380	-13504	87	-32656	2575	-15704	-7680	22988	-6871	-3056	3268	126	124	1
-9284	-1580	13128	-185	3490	670	-16144	-956	-2136	-1758	9491	-1331	-16016	64	3164	-1099	11471	-660	-32768	-25080	-24984	31376	-18172	9115	-1680	-2556	-12276	18363	-15410	8879	-24812	-10988	32767	-10051	-7893	2163	127	128	1
-9128	-296	14252	-612	5289	158	-16596	-1440	-2576	118	11072	-761	-16816	-1876	3224	186	11543	154	-32768	-20268	-15272	10701	-1995	-1638	-3184	14896	-12616	13716	3506	5103	-20428	-3376	26304	8754	-2294	-724	127	131	1
-9124	-1068	15048	-1141	8781	-359	-19440	-1372	-2516	3056	12834	208	-20512	-1028	1768	2208	9766	14	-32768	-15508	-18220	-26472	13619	-20884	-9552	7732	-17068	-6247	16141	1026	-15976	6276	6432	10713	-6776	3499	127	129	1
-9344	-2452	15488	-893	13481	127	-20184	756	-2168	1730	14647	-211	-21444	1264	4404	-502	6514	681	2356	-11320	18860	-25070	24216	-21063	-15912	1880	8412	-12717	20456	-2036	-16160	8620	-1272	12257	-1093	7206	127	125	1
-9384	-1504	16688	-596	19257	413	-21348	1404	-1284	-893	16845	-555	-23180	464	7836	-3603	4082	898	-17816	1088	30980	-9999	32767	-9077	-32768	800	-2836	-32768	19654	-10448	-25552	1032	7036	-7197	-7609	8284	127	135	1
-9196	-2536	17224	-1107	27250	110	-25408	444	856	684	19731	402	-24584	1368	11024	-4204	-1860	-510	-32768	-21064	29752	-5637	23380	-8472	-24596	-23944	-17960	-32768	25684	1578	-26600	2464	32767	-32768	-11101	9921	126	125	1
-7296	-1108	20644	-1681	32767	-19	-28920	5400	2764	1705	22139	-247	-26420	4444	20508	-3516	-11205	805	-7732	6408	12968	1592	14382	-6615	-8840	-10508	-9364	2882	23129	4305	-10224	-18380	-32768	3180	29761	-9009	130	105	1
-6060	-9032	19960	-1079	32767	-93	-32768	18244	6556	-5998	23295	-1519	-28780	11240	29016	6381	-25945	5929	-18520	16768	12880	-5277	10089	-10128	-12524	18504	-13460	7021	17848	4639	-11472	-4316	-7524	9744	-4348	-6692	129	150	1
-16780	-6744	20668	431	32767	7266	-30296	-332	5852	-22794	24687	-2286	-11120	18204	-9268	-15829	-2027	11851	-18184	-1372	15276	-5866	-243	-8543	-15940	10704	-15936	-7565	14259	5200	464	12920	-7660	20598	6794	3984	135	119	1
-32768	-10164	16032	-544	32767	15404	-25408	-19900	-10876	-12372	23988	-1350	-24676	-604	-816	-24220	-9361	5605	-12028	-152	15356	-2704	-2352	-4359	-18628	-4492	-14180	-1926	11793	551	-29580	12832	-6684	1913	14631	9330	125	132	1
-32768	-14596	25192	5995	32767	25650	-30668	-4744	-8896	2408	25077	-3268	-29128	-5324	-9528	-18268	-7365	149	-9680	3116	13924	-957	-1801	-1712	-17420	608	-7916	10119	10297	1486	-25252	1444	-4972	-2186	6885	8102	125	111	1
-21152	-12576	30556	2159	32767	23443	-22772	780	-8500	5693	23274	-3617	-32108	1728	-12272	-10599	-13825	-1064	-9040	2156	14372	-726	-1305	-1315	-16252	2240	-8088	2262	8102	2845	-14992	-1068	-1724	2792	9360	2533	131	118	1
-22820	536	32168	-6756	14728	11058	-17712	-548	-10836	3439	13995	-1879	-28148	2744	-7132	-4307	-21021	-1340	-8692	1372	14148	139	-426	-322	-16852	-1988	-7448	-1688	6743	2636	-16192	-1056	-908	1964	10176	1818	132	123	1
-7736	-13284	26392	-17777	-13661	5630	-14668	1288	-4020	-7113	7010	-1646	-25748	2608	-7912	-2193	-20874	427	-8796	1892	14068	1040	291	484	-16776	1044	-6384	-3992	5474	2490	-16940	-396	-396	-41	11127	447	124	122	1
2220	-12188	15188	-10212	-22394	5966	-11832	-2596	-2592	-10141	-848	-2418	-23548	2028	-7440	-1996	-19549	1425	-9080	3276	13704	1200	370	793	-16300	1032	-6368	-2459	4214	3144	-16240	2004	-852	380	11885	830	121	131	1
4492	-8296	9980	-3417	-23849	4445	-7112	-4988	-2824	-4689	-8423	-2487	-20804	2240	-8764	-3696	-18249	976	-9172	3616	13612	1223	340	948	-15900	2108	-6036	4206	3102	3211	-16344	3744	-1140	2084	12500	982	131	122	1
3092	-5868	8172	-2945	-22897	313	-6268	-1928	-3564	1553	-14724	-493	-17088	-384	-9348	-3499	-17993	-480	-8988	3764	13764	1180	312	922	-15948	3848	-4932	7145	2373	2539	-16944	4376	-420	3679	12855	1360	124	128	1
-492	-6752	9660	-3869	-23671	-4403	-6384	-1332	-4684	3044	-19975	1159	-15312	-540	-9140	-2012	-17445	-795	-8844	3440	13848	1139	491	715	-16084	3428	-3996	6200	2123	2163	-16832	3072	1080	3506	13109	2034	132	119	1
-4572	-7128	11496	-3226	-27515	-9332	-6920	-1888	-5420	3222	-24736	2517	-13704	-2524	-10084	-85	-18346	-1769	-9020	3348	13668	1107	635	686	-15596	3496	-3540	3183	2216	2071	-15476	1104	1228	2923	13901	1736	120	131	1
-7448	-6636	12860	-1405	-32256	-13724	-8120	-2756	-5844	4907	-28806	4069	-12380	-2632	-9636	3455	-16999	-3011	-8808	3308	13656	1154	754	674	-15444	3440	-3484	2643	2265	2106	-14764	624	2120	6034	12787	293	128	132	1
-9944	-5108	13904	212	-32768	-17135	-9416	-2720	-6216	7313	-32635	5844	-10160	-2432	-9300	5285	-16181	-3619	-8936	3400	13524	1003	775	450	-15108	1336	-2908	2461	2717	2250	-14860	996	2164	7240	11629	-1539	133	130	1
-11616	-3388	14840	-60	-32768	-18732	-11168	-1144	-6480	8181	-32768	7467	-8556	-1140	-9236	7416	-14903	-2787	-8952	3516	13528	739	744	144	-14940	2964	-2620	4836	3094	2369	-15080	3128	1688	8466	11647	-1733	133	123	1
-14368	-2780	16072	-2290	-32768	-18859	-13028	-840	-6732	6012	-32768	8902	-7688	-92	-10072	9260	-12981	-2908	-9028	3772	13352	412	515	-245	-15084	4652	-2656	3222	3824	2067	-15400	4488	988	7454	11473	-808	135	130	1
-15488	-2796	16348	-5474	-32768	-16885	-16544	-1252	-6428	4400	-32768	9305	-6544	84	-11404	11982	-10936	-3528	-9064	3528	13392	155	455	-487	-15080	3896	-3092	1678	4456	1555	-15284	4352	620	6525	11576	22	130	130	1
-19656	-2068	17436	-10085	-32768	-14370	-19488	-1584	-9012	3014	-32768	9755	-5028	948	-10020	13686	-8812	-5067	-8936	3792	13476	-94	384	-794	-15296	3868	-3240	1868	4976	1267	-15012	3540	500	6540	12190	747	129	130	1
-27624	-4556	22404	-12252	-32768	-15153	-24396	-1244	-10908	1374	-32768	11118	-6572	2216	-6576	12426	-8280	-5224	-9000	3744	13600	-297	363	-1195	-15352	3732	-3320	2235	5467	1135	-14432	3520	740	4951	12649	980	126	127	1
-32768	-11744	26660	-7505	-32768	-16578	-30380	-5944	-14188	2891	-32768	10570	-9240	1764	2536	8538	-11569	-4244	-9116	3572	13692	-294	598	-1549	-15212	3492	-3924	1877	6044	916	-13376	2796	2072	3222	14294	1071	129	125	1
-32768	-19088	19224	924	-32768	-20620	-28012	-11576	-15148	4821	-32768	10179	-15296	1456	5992	11878	-8066	-3400	-8996	3720	13916	-269	1060	-1869	-15764	2808	-4008	2032	6644	861	-14632	2204	-820	3514	15478	919	124	124	1
-32768	-14012	5956	8214	-32768	-29570	-19072	-6668	-16044	16175	-32768	7360	-14424	-368	9276	16679	-4779	-2088	-9088	3512	13764	-240	1811	-2311	-15820	2296	-2628	2898	7558	1003	-18696	4452	-560	4271	14084	577	135	125	1
-32768	-4200	-4020	5447	-28176	-32768	-19556	-1632	-15564	14954	-30082	5492	-12572	12596	20860	19002	-6800	-188	-8876	3612	14444	-264	2907	-2647	-15336	3620	-1028	2474	9304	1018	-20352	5776	2244	2384	10358	820	130	128	1
-32768	15672	-28164	2735	-17633	-23134	-6564	184	-17472	3323	-16644	-3673	-14764	18372	32767	20434	-3474	-2169	-8864	2180	14944	-332	4948	-2972	-15832	3296	-1440	-50	11859	514	-20076	5800	3124	1793	9607	933	133	128	1
-32768	26752	-30396	-4824	1563	-5832	108	-11544	-20532	-4544	3780	-7888	-18300	7820	32767	6596	-145	-3065	-8888	2448	15480	553	7964	-2565	-17088	2864	-2372	-1492	14374	-595	-17200	4288	5464	1517	8412	1283	130	125	1
-32768	23420	-26364	-4317	4015	-2617	-8688	-10432	-20696	9936	16006	-4631	-19388	3372	4760	-6263	5910	-2018	-9312	3844	15728	847	12085	-2890	-18144	1504	-2080	-592	16916	-443	-19244	3212	5232	4369	7330	-66	139	126	1
-3864	14308	7128	12008	24321	6825	-18428	4568	528	21068	22481	-5411	-11848	1668	2848	-10059	10142	-3606	-9324	4348	16636	610	17637	-4045	-20684	1440	-1468	1558	19371	263	-22820	4200	6788	5708	3726	-484	119	125	1
3816	-8620	29760	2551	32767	-6132	-32768	21604	4096	25119	19613	3713	-7972	-11844	5200	4138	3688	-5589	-8880	4356	18152	-112	26343	-4928	-25352	1660	-1132	1038	22443	-86	-25904	4708	9088	3417	-1923	1118	106	124	1
-32768	18748	29560	2078	30805	5286	-16128	2672	-12188	16962	20008	-4041	-20228	10208	-2932	25000	4346	-3090	-8532	6624	19696	-191	32767	-6975	-29060	-4240	-1252	2145	24755	429	-26532	492	13180	-205	-11385	731	102	121	1
-13516	-14340	12196	1326	20138	9341	-20288	644	-14344	14459	20395	-7668	-15556	16944	-18612	18924	3190	-6884	-8496	7476	19808	754	32767	-11396	-32768	-12788	928	13216	25544	3098	-29912	-6492	31976	-6362	-32768	-5611	108	123	1
-21800	5180	21824	4884	20609	5032	-15804	-1656	-11812	12026	14812	-8317	-13576	2720	-7576	-7751	3078	-117	-13432	13124	20828	218	32767	-18990	-32360	-1644	1252	25719	24246	4011	-19340	-25316	1168	8202	-12839	-12796	117	128	1
