#Activity	walking 
#ActivityID	1 
#Date 09-09-17-32
acc_rf_x	acc_rf_y	acc_rf_z	gyro_rf_x	gyro_rf_y	gyro_rf_z	acc_rs_x	acc_rs_y	acc_rs_z	gyro_rs_x	gyro_rs_y	gyro_rs_z	acc_rt_x	acc_rt_y	acc_rt_z	gyro_rt_x	gyro_rt_y	gyro_rt_z	acc_lf_x	acc_lf_y	acc_lf_z	gyro_lf_x	gyro_lf_y	gyro_lf_z	acc_ls_x	acc_ls_y	acc_ls_z	gyro_ls_x	gyro_ls_y	gyro_ls_z	acc_lt_x	acc_lt_y	acc_lt_z	gyro_lt_x	gyro_lt_y	gyro_lt_z	EMG_r	EMG_l	act
-10656	-624	13796	-2895	32767	-8902	-24368	328	7124	-11968	17792	10242	-22096	-1208	25620	-11591	-21049	-313	-30312	-8980	18148	-8431	25211	-16044	-25244	-6272	-4596	-18444	12558	-6672	-22128	5208	20796	-27610	-766	-1658	131	129	1
-19060	-3184	10432	-4231	32767	-9766	-20164	-4728	3456	-11299	20442	12306	-10928	5860	6500	-14159	-8164	2194	-28436	9628	10128	-6459	17590	-9978	-26188	-3304	-9328	-19165	14361	-5161	-24504	-10276	2404	-15444	13912	-4082	116	124	1
-32768	-7200	8656	-2655	32767	-3940	-21300	-8092	-7296	-449	24878	12066	-22464	2616	-1532	-7972	-9253	-4387	-18012	232	16640	-6163	11698	-5761	-15424	-16	-6632	-15969	14309	-2647	-17032	-5004	-11140	-2850	19451	1002	156	127	1
-26180	-5724	18444	-4267	32767	1501	-29372	2724	-6784	914	24786	9228	-26732	-3592	-10728	-14242	-16703	-4310	-18740	1520	10380	-3893	3041	-5422	-15232	1408	-8240	-12429	12196	-940	-9316	7768	-8724	6247	14678	1649	126	109	1
-27884	-9244	20788	-10453	32767	5601	-28124	-2768	-624	-17071	20322	7566	-25632	-8916	-8928	-2052	-22113	-1990	-14768	5952	9436	-2623	798	-3926	-17448	-1552	-7868	-4252	11040	-381	-13120	5628	-9716	5992	10837	2487	152	126	1
-10776	-14776	27040	-13310	32767	11055	-19200	-9584	-5700	-16185	13766	5305	-25676	-7172	-5068	5511	-22923	-2261	-13676	2636	10700	-1503	57	-2191	-17092	-7376	-7340	10675	8201	1404	-15628	760	-4740	-257	11976	4650	137	102	1
-32768	-13108	31368	1172	-8916	-1875	-13576	-4508	-24112	14559	8336	4983	-24348	-3024	-7940	8397	-24034	-5902	-13016	3144	10764	-706	459	-1094	-18764	-336	-4480	19932	7624	2332	-17476	1856	-3780	5339	14771	165	140	95	1
-2472	-4944	24884	3289	-31120	2586	-17192	-2308	1556	-6026	2009	2934	-26028	-1412	-7644	7915	-25051	-6798	-12432	2804	10876	-139	540	-386	-16392	6608	-220	10552	7406	1741	-17212	5008	344	6385	12699	-2827	130	130	1
-3312	-588	16048	-7943	-30630	4465	-13692	-4588	-7264	7898	-8561	541	-25812	-1736	-7676	7318	-24919	-6551	-12332	3900	10232	302	582	-104	-15164	9144	-572	-8457	5310	-441	-15648	6332	2120	3360	11656	-1774	57	132	1
-9952	-9872	12388	-7045	-32768	5134	-6804	300	-10632	12066	-14532	-1473	-19812	-568	-7416	4590	-21406	-4353	-12688	5380	9540	81	1024	-679	-16664	3696	-2708	-16063	4227	-3103	-15480	6040	1480	289	10402	-936	72	135	1
-8776	-11476	12020	3715	-32768	6426	-5544	1032	-9036	6121	-21585	-4829	-15504	-664	-7336	2620	-19156	-4089	-12176	4776	9668	-259	829	-1534	-16480	-6068	-3144	-236	4875	-1046	-15376	4316	1796	1938	10715	-42	116	131	1
-8356	-4740	10516	7291	-32768	5532	-9144	696	-7988	3261	-28676	-7710	-13988	-2320	-8068	1898	-16150	-4444	-12484	3424	10280	422	1069	-1832	-16272	-880	-1720	16163	7512	359	-16360	668	1544	6464	10738	371	137	134	1
-8876	-1740	8956	1966	-32768	1842	-13044	1224	-8028	1392	-32768	-7186	-13140	-3492	-9776	3392	-13479	-3947	-12556	3704	10168	1470	1341	-1950	-17324	3432	-644	15840	7715	389	-15960	-40	2060	9076	9156	-466	135	136	1
-13188	-3856	9944	-3605	-32768	-2046	-10316	1176	-9776	1958	-32768	-8215	-11568	-2228	-10104	9018	-12324	-2742	-12728	3692	10140	1968	1658	-2083	-15656	5412	-1248	4437	7681	-1532	-15024	2280	2300	10895	10128	-515	144	131	1
-20276	-6936	11548	-4338	-32768	-5133	-11140	832	-12840	1994	-32768	-10573	-8796	-304	-9384	16348	-11629	-1497	-12940	3660	9948	1634	1721	-2340	-16320	1708	-2880	-4053	6632	-2750	-14960	3492	152	11616	12715	-892	154	121	1
-24904	-5872	12980	-3530	-32768	-7046	-14732	-1036	-11868	2936	-32768	-12666	-7384	144	-7936	19823	-10667	-905	-13176	3784	10044	1019	1693	-1931	-16708	-1020	-4260	-3279	6501	-2420	-15164	3152	-1832	9810	14130	-770	162	121	1
-28556	-5368	13888	-5472	-32768	-9836	-18656	584	-13016	4829	-32768	-12882	-7572	1100	-5268	17129	-9999	-502	-13416	3616	10120	745	1488	-1290	-16784	-452	-4384	2114	6230	-1766	-15008	2600	-2232	7909	14886	-774	142	122	1
-31132	-7724	13828	-5586	-32768	-11329	-18808	1420	-12952	1925	-32768	-14816	-7868	3336	-2612	11526	-8115	-230	-13144	3844	10196	700	1435	-1683	-16508	1244	-3092	4417	6982	-1779	-15860	2788	-2288	4870	14651	-1273	101	126	1
-32768	-9904	10848	-3874	-32768	-12422	-19588	-68	-13156	2959	-32768	-17798	-8456	4936	744	5141	-5380	-234	-13296	3700	9800	724	1580	-1712	-16368	1528	-2160	3753	8138	-2171	-16940	3960	-2168	3475	12011	-1727	81	129	1
-32768	-180	6764	-2704	-32768	-15651	-19220	-2192	-15188	10393	-32768	-17301	-11564	3800	5052	796	-5008	64	-13312	3636	10096	67	2109	-1487	-16200	1520	-1684	484	8957	-2755	-16988	3340	352	1843	9818	-1364	125	124	1
-32768	-936	-1868	-7791	-32768	-18963	-19792	-324	-13972	12159	-32768	-13916	-14512	460	12552	-312	-6790	-532	-13312	3780	9992	-239	2580	-1386	-16124	1880	-1316	-1289	10076	-3487	-16276	2968	2608	682	9222	-473	126	122	1
-32768	256	-14516	-2610	-26419	-15262	-13920	896	-15940	11086	-23288	-10922	-17728	-4104	19372	6965	-4275	-4094	-12980	5572	11600	45	3417	-1975	-16720	2868	-1992	-1702	11871	-3913	-16196	3276	3156	1867	9827	-27	93	124	1
-32768	10712	-26780	-1801	-15741	-10304	-8812	3336	-18596	7113	-10683	-8204	-16800	-7236	23096	4516	475	-5749	-13528	3944	11784	-537	6545	-3208	-18692	140	-2828	-370	13511	-4703	-18340	2520	1516	5495	9234	-58	110	120	1
-32768	14120	-29732	-5625	-1200	-5044	-4908	2500	-15000	-2007	4216	-2829	-15200	-3308	16304	-817	-158	-416	-13828	3440	12624	-153	9703	-4201	-19256	-620	-2944	1246	15273	-5128	-19088	2176	192	8949	6277	-362	160	119	1
-32768	8636	-20476	1976	10538	4058	-6884	492	-18328	-2112	16511	2796	-14272	-3788	9128	-3223	1828	2618	-14308	4216	12260	-122	13564	-4911	-19864	-672	-3172	1602	16583	-5469	-18764	2216	520	10162	4221	-453	148	124	1
12732	3912	31388	-4954	19808	11921	-11408	728	-19356	-6401	25307	6998	-8592	-6412	596	-3913	6671	1915	-14224	4388	12272	-12	14244	-5211	-19804	-2180	-4108	2736	17954	-5661	-18188	2796	1444	11671	2300	-239	138	123	1
32767	-32768	25800	2938	16928	16090	-32768	-3416	32767	-18292	4874	-3230	-9288	1596	-9928	109	12536	4165	-12000	4028	15072	260	24410	-6761	-23292	-1456	-2628	4978	18760	-6360	-20796	2912	2628	14816	362	-328	162	124	1
-32768	7860	1736	9857	31894	3958	-8128	-1932	-16532	7260	11229	1855	-28528	8604	7584	10042	6133	6228	-12288	5672	13520	1455	31141	-8596	-23844	-5528	-104	4850	19247	-6490	-22948	852	6876	16390	-7163	-901	203	114	1
-19888	-3804	15036	15867	32767	3616	-15292	-7164	-5592	-808	17910	1315	-20608	-11484	11828	29593	3966	-1686	-13356	4440	14760	3262	32767	-8494	-24260	-5368	1200	9551	20653	-6356	-19844	-1188	14440	22156	-15148	-868	146	118	1
-31176	24748	14876	-844	28386	6337	-26732	-5008	-4660	21129	17397	3060	-25008	-5952	9824	17386	5867	-5946	-26832	7680	10856	2317	32767	-11737	-24892	1172	-828	9330	21227	-6994	-17500	-5308	3824	18958	-6315	-1215	106	127	1
-15372	-16772	7304	4939	14335	1044	-24284	3128	-15368	18274	19254	8842	-20788	14384	-9876	7331	12131	104	-27076	6896	11292	2385	32767	-17405	-24400	8040	-4132	266	23558	-7658	-22708	9112	-4748	22378	-9081	1867	110	124	1
-14912	-3912	10248	954	7998	1590	-13536	4532	-10580	10507	14170	2179	-14084	3436	-10904	-13206	16524	-1050	-30056	14568	6104	468	32767	-24316	-24904	8384	-5016	-662	23614	-7827	-22712	10496	-8288	8213	-14691	5207	142	121	1
-13688	-1816	11048	947	5256	1029	-15204	1852	-10500	-3013	11486	-1791	-10268	-3636	-11204	-16493	14772	-3987	-25836	13444	15672	3332	32767	-25966	-22648	3148	-5312	2695	23249	-5477	-23872	7764	-9352	-7508	-19455	6328	104	109	1
-13380	-100	11468	74	3771	104	-15476	2372	-7308	-16939	8126	-826	-15292	-4336	-7036	-10546	13037	-3867	-7616	6196	17292	7370	32767	-26935	-19200	2404	-7700	-3088	16688	-4591	-25908	1476	-7656	-13411	-21320	5695	204	111	1
-12396	-1004	11360	-863	2935	-677	-16972	-5112	-5724	-13223	5967	-1000	-17516	-5492	-4988	-3649	12545	-696	-26236	14656	15944	4780	1122	-10923	-15708	-536	-15576	-12021	7947	-3017	-25072	-2388	-5752	-11826	-24030	6089	191	117	1
-12140	-1992	11020	-1293	2328	-908	-16268	-7404	-3796	71	6037	-686	-17380	-5632	-3764	1379	13398	2365	-9932	11124	17084	553	-17929	-258	-12716	-2252	-6200	-1989	-2	-498	-23364	-2408	-4856	-7822	-22371	6832	141	135	1
-12036	-2052	11020	-1310	2311	-946	-14644	-6960	-4132	11187	6019	734	-15688	-5084	-1524	4054	12745	2716	-4040	8516	12504	-584	-19622	2485	-11876	-3752	-4284	7551	-5878	1805	-22432	-224	-6000	-3845	-19764	8100	109	125	1
-11716	-3608	10432	-526	1577	-178	-15428	-2296	-3928	8625	4846	1108	-15440	-3168	-208	3424	13030	1172	-8588	6352	10988	-105	-23755	5873	-9032	-2440	-8560	10358	-12655	4737	-20044	40	-5788	-1812	-19100	8177	116	127	1
-11524	-3500	10312	209	1888	456	-16384	-476	-3832	-3964	3887	-582	-18320	212	80	-929	12965	637	-11612	5304	11008	863	-31327	10985	132	-7364	964	12503	-9346	17306	-17776	1900	-4588	-2963	-18060	8216	102	120	1
-11676	-2448	10488	521	1951	806	-13852	-1452	-740	-10105	4113	-1568	-15620	520	92	-6751	9130	1053	-11176	4928	9652	1887	-32768	14961	-8424	128	-7284	3632	-26066	4546	-16256	2224	-4832	-8310	-17781	8665	167	127	1
-12084	-2004	10564	239	2085	678	-15796	-4364	-2744	-7585	3390	-472	-13200	-592	1224	-7108	11408	540	-10840	3820	8276	2663	-32768	15604	-13320	-2640	-6340	1170	-32768	4943	-14972	2256	-6632	-13170	-16595	7509	83	125	1
-11872	-2528	10292	152	2063	606	-15940	-5260	-3492	-5214	3364	-276	-18524	-996	2140	-5259	15186	-981	-12924	3424	8044	3926	-32768	15418	-10496	-2000	-6984	-112	-29019	12869	-12904	868	-7492	-16953	-14366	4624	81	132	1
-12208	-2440	10296	486	2111	857	-14272	-4100	-3020	-1536	4028	650	-14740	-2392	-2208	-3367	15591	-1614	-15368	3428	9768	5760	-32768	15626	-12616	-2008	-8884	-1374	-32768	12120	-11200	128	-7604	-18642	-13256	4208	137	118	1
-12164	-2200	10236	697	2097	949	-15852	-2852	-3140	-1164	4157	1155	-16836	-1152	-2744	-2710	11048	56	-17364	2664	10196	9194	-32768	16527	-13740	-2656	-8784	-2645	-32768	12935	-9976	-856	-6592	-16133	-10201	2454	131	143	1
-12160	-3396	10564	408	1985	1315	-16088	-2400	-3628	-1354	4393	1304	-16684	-2664	-1672	-4457	10891	603	-18316	4672	11816	9178	-32693	17912	-16364	-3472	-9388	-2720	-32768	14080	-8408	-1728	-5748	-12400	-6985	1749	86	160	1
-13884	-3432	10520	755	2375	584	-16564	-2780	-3752	-1288	5061	2840	-16440	-3916	-1228	-6136	10888	656	-25388	5232	13204	8461	-27483	20256	-18648	-5284	-12428	-2661	-32768	14526	-7732	-2724	-4428	-5990	-2958	1612	108	166	1
-12392	-2208	10224	1863	2298	779	-15368	-4032	-3124	-369	5488	1370	-16924	-3196	-2388	-3598	10070	-57	-32768	5204	13992	9688	-24983	23640	-22972	-6120	-13416	1817	-32768	15709	-8036	-3692	-2720	-1423	498	2107	134	150	1
-12408	-2504	10292	2049	2100	804	-16032	-3572	-2660	887	5687	2013	-17052	-1880	-1452	-367	8731	-308	-32768	740	10908	12758	-25868	25205	-23724	-4056	-15196	6482	-32768	17143	-9584	-4088	-344	-303	-601	2844	106	126	1
-12620	-1912	10352	1849	1719	838	-15904	-2948	-1756	-1349	6787	2303	-17060	-1804	-1192	-289	8668	-343	-32768	-1132	3596	15025	-27586	25632	-22748	-2624	-17432	6504	-32768	16262	-13512	-1856	3384	-1574	-5025	3445	119	103	1
-12676	-1816	10844	1146	1687	851	-16080	-3376	-676	-2405	7941	2750	-17532	-516	1992	-2293	8083	-1424	-32768	-1284	-6896	6019	-31363	23879	-19076	-2596	-17716	1800	-32768	14468	-17272	2980	11176	3418	-9169	3899	129	95	1
-11660	-2048	12324	-1230	3379	966	-16136	-4836	-892	-1035	9420	3166	-17272	-1212	2256	-2088	7662	-1228	-32768	-9360	-15776	-5454	-27619	20271	-15536	-1836	-16120	-3287	-23596	10631	-20164	6804	21204	9119	-4141	4527	123	112	1
-11440	-2988	13184	598	6355	1132	-17120	-4596	-1848	724	11043	3902	-17448	-2080	1256	-1516	7673	-956	-32768	-17136	-24772	-9619	-16995	13733	-10360	-4604	-18784	-8013	-11639	5807	-15272	10016	19788	3545	1882	5924	120	102	1
-12384	-980	12212	1178	9536	1215	-17856	-3264	-2532	535	12302	4559	-18564	-2748	-124	-2021	6441	-901	-28608	-29864	-26996	-3350	-4775	8511	-6712	-3924	-14600	-6073	3336	761	-12848	11168	15428	-1208	3666	1686	120	162	1
-12420	-424	12568	716	13530	300	-17764	-1868	-2820	-2225	13645	5440	-18236	-3812	-1184	-3522	4167	-422	-31132	-21892	-21740	-49	11733	29	-7236	-4436	-17724	-11702	15130	-4929	-13060	8192	9824	-9558	2395	-489	115	163	1
-11936	-816	12756	316	17948	-337	-18164	-992	-2408	-4822	14790	6085	-18396	-3124	-1112	-5772	1244	314	-7192	12192	32767	-14579	14948	-10819	-17416	-2780	-2500	9962	23343	-7851	-11304	5880	132	-12090	6978	-1303	105	175	1
-11152	-816	12924	-716	23805	-1351	-19348	472	-1712	-7853	15488	6298	-18360	-1228	680	-7667	-1461	956	17668	32767	19108	5056	15312	-6679	-32768	-2416	32767	12689	5273	-571	-16060	-656	-3056	-6385	8492	-2647	126	182	1
-10228	-800	13564	-1426	31640	-3335	-22040	-940	960	-10706	15788	7051	-21736	796	4580	-7579	-4050	1359	-27404	-696	8520	-5611	27810	-6349	-4856	6308	-1248	-3214	13733	2027	-18004	-10300	4020	-4442	1291	-3989	139	123	1
-10748	-980	12448	-2173	32767	-5006	-22720	816	3524	-11588	16424	7757	-20884	2736	14680	-11432	-13028	1012	-18300	3180	9832	-7983	23320	-15167	-21924	5280	-5648	-15572	12747	-5590	-16796	6840	13436	-17748	3598	-105	135	130	1
-14916	-2376	10376	-3261	32767	-6019	-20084	-2324	2676	-15184	17248	8841	-11844	4976	10484	-19883	-10364	1203	-32240	6200	9564	-4033	21119	-12152	-27960	-1644	-10800	-30646	11208	-4344	-27084	3540	9104	-8563	10203	5327	159	86	1
-28000	-6376	8324	-3468	32767	-2467	-19144	-9552	-3028	-10936	19629	10338	-18628	2772	2904	-13410	-3518	-4108	-26888	11004	14836	-9344	11974	-6125	-18652	-3656	-11292	-23581	13135	-5121	-20436	-5128	-7872	167	16899	3092	189	99	1
-29000	-8552	9732	-1155	32767	5208	-25212	-3452	-7336	-1485	22873	8640	-25072	-10040	-9748	-20705	-8786	-7477	-16500	4536	10040	-3387	4823	-4147	-14900	-4276	-7304	-11685	11490	-235	-11880	3064	-6996	5096	16438	-832	169	130	1
-28504	-7440	14612	-7413	32767	6563	-29324	-2040	-7028	-4944	20947	8280	-27120	-7204	-6604	-2896	-19441	-5453	-15308	3700	10000	-2058	1071	-3228	-17872	-3172	-7520	3096	12190	1517	-11916	5016	-10468	6165	15163	-827	98	125	1
-20972	-10732	18680	-8450	32767	13148	-24512	-5040	-1548	-12395	15152	6867	-25680	-7488	-11356	5706	-22310	-4318	-13948	3468	10464	-1154	-118	-1966	-16928	-3132	-6528	12530	9255	2120	-15556	1792	-5164	-2930	10972	2909	139	117	1
-7196	-8468	24056	-12429	32767	18869	-16256	-5704	-12124	-9718	8834	3031	-25472	-136	-8832	7369	-23716	-4607	-12968	4384	10040	-912	-380	-1323	-17760	3052	-4236	13180	8009	1709	-16112	3692	-3932	-317	13433	611	109	94	1
-32768	-11768	22704	-11536	-10341	3329	-7784	-488	-27252	12111	7482	3831	-23880	-816	-4872	7837	-25394	-8071	-12436	3920	10452	-558	-303	-1096	-16116	4956	-1556	626	5721	903	-16644	4256	-2472	-605	12328	-1816	150	121	1
-7584	-10172	19112	-3129	-32768	2724	-14872	3008	-2560	-7794	916	161	-23980	-60	-7524	7237	-22787	-7944	-12368	3964	10404	-245	248	-783	-16480	3260	-1800	-9333	4678	236	-16572	3380	-172	-2725	11544	-1492	42	162	1
92	-4352	12404	-3393	-32768	5453	-11484	-1544	-3484	-8647	-8118	-791	-22300	1092	-9420	4269	-21379	-5864	-12744	4780	9756	-312	709	-726	-16612	2020	-2892	-11704	3689	-1107	-16076	2832	984	-3040	10583	-674	4	135	1
-8424	-3372	9016	-5069	-32768	2678	-5724	636	-10616	7706	-15132	-5191	-17908	1052	-8440	2490	-20014	-5268	-12336	4724	9740	-209	721	-822	-16676	-3720	-2904	-1448	4095	206	-15996	1876	1508	936	10909	-24	115	124	1
-9900	-6096	9472	-1864	-32768	-1539	-3396	3136	-8408	12958	-21626	-7405	-14340	-604	-7068	1179	-17993	-4977	-12372	4076	9948	57	729	-1106	-16248	-920	-2236	11649	5672	1556	-16376	628	1124	6290	10594	862	147	130	1
-7880	-4216	10076	2737	-32768	-2862	-7608	2088	-7240	8089	-27720	-10012	-12676	-2296	-6772	1210	-15535	-4341	-12720	3864	10044	748	656	-1123	-16812	2748	-1432	13486	6523	1758	-15720	968	1188	10305	10215	621	140	129	1
-10080	84	8660	1350	-32768	-3953	-11656	1712	-7500	7185	-32636	-9660	-12036	-3592	-8084	6258	-12973	-3357	-12492	4068	10164	1064	864	-1231	-16292	4964	-136	7822	5965	140	-15308	2916	1388	11322	10897	592	141	126	1
-13972	1316	8628	-4468	-32768	-6261	-11916	2004	-8444	9797	-32768	-9825	-10548	-1884	-8776	13461	-11887	-2063	-12744	3992	9668	1196	1112	-1267	-16264	2488	-1972	547	5723	-1058	-15524	3740	316	10701	10923	257	154	126	1
-19032	-52	10648	-8268	-32768	-7408	-11868	2740	-11512	8063	-32768	-10437	-8836	400	-8300	20974	-10723	-790	-12704	4256	9956	1122	1213	-1432	-16440	220	-2892	-556	5567	-1218	-15376	3536	-1080	8788	10824	-285	174	122	1
-24920	-1736	11200	-9542	-32768	-8473	-15684	2336	-12028	5213	-32768	-11749	-8396	1124	-6876	22693	-9640	-109	-13048	4544	9644	1306	948	-1235	-16572	336	-3604	2915	5674	-678	-15152	3116	-1336	6762	12391	-493	153	123	1
-27576	-4308	11800	-6893	-32768	-9643	-17876	1940	-11652	2923	-32768	-12591	-9108	2048	-3676	16146	-8180	-46	-13116	4500	9620	1955	752	-1707	-16532	1568	-3552	5048	5918	-773	-15428	3192	-2032	4244	12374	-802	129	128	1
-29864	-4164	13340	-3638	-32768	-11851	-18456	2788	-12408	1504	-32768	-14269	-8800	4380	-848	7672	-5173	156	-12848	4580	9888	2045	220	-2154	-16500	1888	-2940	4833	6365	-1124	-16028	4056	-3064	3543	11454	-1308	113	128	1
-32768	-5312	12296	-2672	-32768	-14518	-18612	2536	-12564	1165	-32768	-14609	-8492	5308	2012	1014	-2208	450	-13024	4284	10124	1527	520	-2065	-16748	1724	-2392	1931	6346	-1846	-17492	4224	-2084	2538	9879	-1354	93	125	1
-32768	2352	9672	-4540	-32768	-17718	-19908	-1884	-12412	2862	-32768	-16305	-11736	4296	5144	-2149	-1056	1295	-13480	3872	10052	590	1510	-1828	-16924	908	-1816	160	7422	-2496	-17748	3668	580	765	8735	-674	106	123	1
-32768	-388	2024	-7023	-32768	-16839	-20116	-2436	-10836	7970	-32768	-13857	-14404	2948	8488	-5657	-1072	984	-13232	3964	9964	6	2287	-1657	-16384	1608	-744	-123	8908	-3027	-17104	3436	2676	447	8425	-339	120	123	1
-32768	2288	-8736	-2312	-29762	-12127	-15156	-972	-12848	14533	-25707	-10991	-18176	-4068	15612	3011	-4681	-2398	-13324	4320	10216	-397	2976	-1578	-15988	2360	-940	-555	10975	-3646	-16684	3064	3760	1858	7858	73	103	126	1
-32768	9984	-21740	-2810	-19745	-8892	-12692	5672	-15868	13101	-14408	-8508	-17956	-8508	22572	6728	-141	-4358	-13428	5148	10976	-641	4037	-1960	-16724	2736	-1680	-1951	12695	-4413	-16252	2836	2872	5175	6524	330	89	119	1
-32768	16924	-28836	-8805	-5608	-7638	-6172	3836	-13464	-3670	-411	-3442	-16452	-6408	21080	3757	426	15	-14324	5036	10820	-1112	7020	-3376	-19176	448	-2832	-2929	13897	-5134	-18272	2400	-44	8114	5602	30	163	120	1
-32768	8912	-22988	-1512	7564	-357	-5336	596	-14480	-5589	12674	2038	-15656	-3032	12168	-52	1758	2420	-13936	4020	12060	-1186	10087	-4377	-19504	-1608	-4196	-908	14716	-5242	-18404	3192	-1508	8384	3974	58	165	123	1
-20520	8648	15156	-3210	18929	16902	-14952	-3752	-4856	-11568	19823	6504	-12904	-3648	2604	-2955	5374	4201	-13800	4796	12976	-825	13952	-5120	-19496	-1516	-4080	1691	16117	-5279	-17932	3928	-788	9202	2401	-279	161	127	1
21584	-26300	19372	911	13980	21019	-32768	-4836	28200	-14265	6292	-251	-14096	1212	-3932	-6083	10209	5219	-12860	4896	14188	-434	19580	-6425	-21796	-1084	-3012	2828	17188	-5879	-20252	3328	84	9162	1524	-195	150	137	1
-32768	-1124	7516	7493	27311	10617	-12832	-1024	-7688	1233	10031	296	-27412	6192	8788	3218	2110	4129	-12252	5328	13380	10	25272	-8064	-22080	-3808	-1956	2533	18069	-6175	-20508	2212	2604	8269	-727	-492	160	115	1
-11432	-10228	11084	12657	28737	1029	-14552	-4024	-2508	-7207	15372	681	-26852	6192	8848	7880	251	3428	-12080	5560	13788	936	32692	-9056	-22528	-3196	-204	4007	19209	-6284	-20460	1328	9536	10062	-8942	-1918	148	110	1
-18744	6608	14000	10935	23571	6007	-18684	-10316	-3540	-1638	15119	2284	-15348	-11928	6332	14471	5956	-7059	-15544	6900	12360	2571	32767	-10266	-23496	-2292	-652	4312	19451	-6076	-20624	-1628	13236	18791	-17595	-2015	153	91	1
-20196	3744	12820	-994	20916	1938	-21356	2624	-5944	23435	15367	5497	-21704	7072	-964	7054	10539	-1918	-26076	8752	8688	1367	32767	-14658	-23292	2120	-2964	4342	20990	-5575	-17548	-3136	4012	14430	-9767	-684	128	167	1
-22480	2900	13472	3574	10221	5707	-20416	-2616	-13484	13712	15718	5582	-18040	6800	-6664	-1510	11940	126	-26340	9672	7412	557	32767	-20719	-22240	4696	-2804	1674	22450	-5197	-20492	4176	-2676	16682	-8811	1063	98	146	1
-14496	-1920	11328	2658	6471	3362	-14836	844	-9016	14955	12612	1492	-14408	-2372	-9560	-11093	14385	-3734	-24820	10180	8864	1599	32767	-22565	-23648	1072	-7728	2657	22217	-4870	-20976	6296	-8416	12689	-12900	4573	149	75	1
-13824	-1440	11144	1537	4109	2159	-16580	4316	-7960	1203	9710	-793	-13424	-2268	-8188	-8482	14102	-3064	-25856	9476	13684	4002	32767	-23347	-21160	476	-5632	8027	22095	-3538	-23748	4884	-8832	-50	-16594	6498	128	112	1
-13036	-364	11184	614	3050	1107	-16612	3588	-6200	-16483	6756	-2071	-15040	-1552	-4948	-6122	11962	-1491	-3200	11516	23604	9906	32767	-23806	-18468	1080	-9304	4367	17488	-2989	-24692	2160	-8252	-6536	-20330	6515	165	127	1
-12560	-948	11180	-123	2372	378	-16360	-6536	-4956	-16139	5132	-1999	-16752	-4772	-4168	-3400	12568	230	-27628	11500	13968	12973	1232	-11709	-13044	-1716	-16680	-3465	9063	-2392	-24036	24	-5352	-8152	-22720	6358	132	126	1
-12320	-1120	11064	-364	2023	-125	-15104	-9164	-2924	1799	5757	-934	-17032	-6816	-2984	81	13700	1646	-11708	12700	16352	7066	-22377	-2370	-11552	-140	-6588	3413	259	709	-22732	-976	-5040	-6354	-21763	6488	143	134	1
-12036	-1804	10812	-261	1821	-59	-14916	-6456	-3668	14095	5705	943	-16136	-5256	-1492	3507	12833	1625	-1200	11424	11984	1938	-21421	-1748	-11768	-3124	-1644	10402	-4309	3192	-21900	-896	-5212	-2515	-19503	7061	93	134	1
-11832	-2388	10576	171	1841	195	-16540	-1224	-3656	9545	4644	759	-15680	-2076	-264	2938	12718	1311	-7196	7156	10044	-1190	-22570	1583	-8828	-2308	-7932	9725	-11699	5946	-20044	-16	-5532	44	-17827	7843	121	117	1
-11860	-1996	10480	597	1771	549	-15872	-480	-3276	-1859	3854	-386	-14992	-2408	-1356	-873	13030	607	-11040	4732	10104	-863	-28406	9400	-11636	2152	-10400	6637	-17904	6246	-19548	248	-5456	20	-17604	7901	46	115	1
-12092	-1224	10652	310	1777	427	-15180	-2596	-2808	-8284	3372	-918	-14256	836	-568	-5404	10113	2311	-11128	3784	10220	608	-32768	16178	-8564	-164	-6888	-999	-26266	2819	-16596	1588	-4952	-2267	-16385	8124	171	125	1
-11840	-1344	10712	1	1970	203	-16088	-4804	-1664	-7987	3588	-707	-12204	-196	1816	-2567	10094	1165	-10992	2552	8804	2365	-32768	18326	-13648	-2472	-7556	-2455	-31258	6189	-15176	2708	-6156	-11641	-15122	6895	123	125	1
-12296	-2196	10664	182	1978	356	-15204	-6376	-2372	-3313	3914	2	-19796	-200	3404	589	15838	-1969	-12848	2352	8656	3776	-32768	17605	-9592	-2516	-6892	-1756	-28439	12040	-13056	576	-6952	-14625	-12579	4029	126	120	1
-12180	-1760	10424	566	1851	871	-14368	-4844	-1840	486	4958	1129	-18340	-3236	-680	-958	13674	-2763	-15184	1768	9916	5954	-32768	16277	-12600	-2588	-8476	-1274	-32768	11693	-11824	620	-6944	-17415	-12257	3411	104	145	1
-12328	-1396	10304	736	1819	1025	-15972	-2772	-2432	846	5401	1573	-17928	-2920	-2308	-2998	7514	-1389	-17652	1800	10292	9270	-32768	16234	-13796	-3044	-8748	-2187	-32768	12614	-10960	-524	-6284	-16168	-8993	2058	100	152	1
-13692	-936	9960	-1206	2333	572	-16008	-2408	-3436	-3691	5849	1810	-15196	-3944	-1080	-3612	7622	71	-18096	4896	10740	10266	-32768	17505	-16716	-4364	-9912	-2406	-32768	13570	-9240	-2012	-5708	-14225	-5998	1161	94	158	1
-12204	-1560	10364	652	1622	877	-15280	-4004	-3040	-3534	6163	1589	-15296	-4396	-1576	-4600	8416	580	-24708	5820	12744	7851	-27050	19666	-18700	-5204	-11188	-2006	-32768	13999	-9100	-2324	-5360	-13311	-5293	1044	140	157	1
-12364	-1284	10284	1309	1282	1203	-15284	-4332	-3692	-691	6324	1941	-15404	-2996	-2344	-2115	8750	373	-32320	3988	14492	8587	-24619	25479	-22440	-5516	-12904	1756	-32768	15212	-8696	-4068	-1784	-2933	1457	1626	106	145	1
-12536	-1364	10188	1370	1309	1117	-15824	-2976	-3404	311	6846	2220	-15760	-1780	-2388	-889	8745	92	-32768	1188	12784	12592	-24060	25880	-24548	-3840	-11732	7260	-32768	16700	-9008	-3840	1124	-85	2261	2506	100	118	1
-12488	-896	10608	942	1020	374	-16068	-2860	-2956	633	7477	2622	-17288	-1156	-1488	-542	8456	-9	-32768	-972	6908	16458	-23606	24105	-22264	-2856	-14232	5654	-32768	16616	-12112	-2580	5632	-319	-2455	3147	135	99	1
-12412	-680	10792	901	998	-59	-16100	-2012	-2252	-495	8103	2743	-17588	-996	-564	391	7127	-164	-32768	-1140	-1352	11726	-26076	23331	-19344	-3132	-16052	3393	-32768	14998	-16904	1752	11656	4851	-9667	3393	140	106	1
-12480	-672	10812	803	1220	-461	-15656	-3112	-1884	-1309	9087	3115	-16476	-1624	1056	1144	6120	-93	-32768	-4556	-10324	690	-26794	21308	-15492	-2024	-13972	434	-26130	11747	-19408	5700	16588	11283	-8462	5570	128	109	1
-12056	-368	11668	-216	2650	-801	-15312	-4320	-2436	27	10284	3768	-15644	-2208	1748	52	6770	-79	-32388	-13468	-18020	-3385	-19684	17625	-12152	-3424	-14900	-2764	-16024	8007	-15548	7444	19816	8420	-1264	5928	121	100	1
-11740	-1464	11900	-1851	5414	-658	-16256	-4396	-2716	1537	11109	4377	-15820	-1812	48	-1996	6853	-122	-26396	-20052	-24260	-516	-7299	11741	-8768	-2592	-11116	901	-3346	4322	-13980	10408	16596	4185	1198	2042	115	137	1
-12144	-848	12456	-65	8924	862	-16820	-4304	-3576	-53	11849	4422	-17084	-2264	-2224	-2477	5864	-69	-27552	-21020	-21632	219	6963	1768	-6996	160	-13024	-5267	9667	-759	-14060	11092	13404	-2242	-855	937	119	154	1
-12468	-1328	12108	551	11393	1024	-17420	-2048	-4076	-2481	12661	4648	-18188	-3652	-2864	-2844	3554	-14	-32552	-13772	-13668	-5415	11474	-5972	-9140	-2992	-17284	-13469	18720	-7185	-11952	8556	7004	-8487	2795	1138	117	177	1
-12556	-1392	12328	1050	14818	1378	-17872	-376	-4344	-6425	13542	4915	-18032	-3116	-1932	-6005	498	385	9936	11252	32767	-5332	672	-11603	-32660	40	23676	21545	15611	-6359	-12596	5188	-2012	-10403	7514	274	122	160	1
-12096	376	13476	1025	19191	737	-19496	-476	-4180	-9442	14073	5335	-18884	-832	392	-7082	-1082	1111	-5820	-3472	1772	-8041	16005	-25283	-15436	-504	-6428	-8008	10475	1039	-20980	-3896	2008	-3334	5898	-1474	126	133	1
-11092	-164	13440	-12	25905	-1067	-22060	-284	-1736	-9226	14462	6753	-21036	224	2664	-5471	-3271	1952	-18152	10328	8456	-5877	24863	-930	-12440	-5980	16	-10563	12967	-3317	-14392	-4304	8072	-9367	-3022	-1043	134	122	1
-10824	-648	13508	-402	32767	-2813	-21964	-128	1140	-9466	15442	7632	-21128	1236	8468	-4092	-9074	3096	-24580	-9384	19400	-7218	23755	-13023	-22972	2332	-796	-6918	12220	-3017	-15640	5184	10344	-12855	4880	215	137	115	1
-10692	-1792	13376	-757	32767	-4463	-21748	-1104	2652	-10789	16389	8309	-18648	3136	15076	-6827	-12646	2090	-31408	23004	16372	-7021	13681	-6143	-25604	-2276	-11448	-20370	12854	-5940	-25644	64	3316	-7740	12041	2534	137	94	1
-17604	-4976	10388	-1621	32767	-3203	-22344	-5652	780	-10966	16889	9900	-17420	2336	9344	-13195	-10538	823	-15268	-14932	15168	-4336	3522	-5541	-16312	-1596	-8416	-19641	12932	-3271	-19556	744	-10280	345	18009	1703	157	125	1
-32768	-5824	4708	964	32767	4488	-20764	-8100	-11152	-3038	20353	10338	-20968	-3616	-1880	-17260	-8788	-1952	-14760	796	11208	-2803	-205	-4740	-14792	-3420	-8752	-16054	10713	-1642	-9612	232	-6880	1334	17443	296	120	124	1
-30020	-8044	11136	3409	32767	10909	-26280	796	-7436	-6473	21744	7554	-21552	-4912	-4256	-18387	-8894	-2792	-13868	5332	10040	-1279	-469	-2278	-15976	-5264	-7064	1672	9401	1390	-12216	1920	-9016	4736	13259	-177	150	117	1
-22048	-6796	17404	-2765	32767	11549	-26056	-2212	-5836	-8832	18244	7681	-26420	-2640	-6440	1470	-20918	-4639	-13536	3788	10600	190	-112	-413	-17692	-3108	-6000	11443	8405	2123	-16208	608	-5136	-2101	11757	2772	178	115	1
-7980	-10496	22924	-6086	32767	15954	-20224	-5984	3432	-14053	12533	4953	-26608	-1424	-3960	8304	-22061	-2748	-12740	4740	10232	858	47	373	-18256	1096	-4728	14194	6266	3039	-17764	3812	-4740	2622	14937	545	148	101	1
-32768	-13604	16244	4394	24853	10803	-9200	-4496	-24336	5645	6955	2304	-23656	-428	-4112	2704	-21658	-4197	-12648	4000	10508	1376	82	748	-16104	3848	-2216	8273	5310	2577	-17276	4808	-2460	2296	13977	-2144	140	135	1
-27376	-4136	23136	8518	-23419	-280	-8164	1316	-14420	11310	5244	1474	-21896	-3212	-4928	3684	-20605	-7040	-12492	4136	10376	2226	159	1086	-16476	5000	-2220	-2130	3755	1530	-15564	4152	-228	-397	13051	-2526	123	134	1
-1692	-968	16592	1526	-32768	-1167	-14620	1924	-536	-3718	-3846	673	-22276	-4052	-7092	2902	-17995	-6683	-12252	5468	9904	2535	579	1102	-16996	2836	-2872	-6356	2577	57	-15680	4548	144	-849	12200	-1542	0	137	1
-3416	-916	10892	-5494	-32768	-1024	-10296	-1988	-7056	756	-11479	-223	-19184	-2504	-7580	2743	-16129	-5569	-12400	5836	9440	1977	696	572	-16624	-832	-2640	714	2976	711	-15668	4192	316	1769	12530	-133	86	126	1
-9536	-4636	9348	-6345	-32768	-1189	-5084	-1108	-9724	11637	-17472	-3252	-15988	-1404	-7136	2224	-15686	-4369	-11860	5348	9800	2022	618	45	-16380	624	-1992	11844	3539	1910	-16220	2276	904	6189	11215	803	139	124	1
-10488	-7480	9940	87	-32768	-808	-5112	196	-8116	13063	-22828	-5382	-13480	-1928	-6308	2634	-14845	-3793	-12188	4716	10156	2507	773	-499	-16984	3188	-952	13614	4757	1634	-15436	1512	1300	9225	11459	200	132	130	1
-10516	-4964	9244	4907	-32768	-48	-10028	1232	-8440	9342	-27388	-6686	-12012	-3380	-7032	5025	-13300	-3648	-12296	4896	10048	2574	823	-579	-16104	2160	-176	9288	4967	-64	-16104	1852	2728	9557	11850	-386	123	127	1
-12128	352	8768	2812	-32768	-1045	-13756	1812	-8208	8305	-32394	-4487	-11924	-3704	-7256	5890	-13070	-3638	-12084	5584	9848	2041	1123	-928	-16532	3500	-468	1943	5146	-673	-16684	3700	1780	10190	11232	-573	127	123	1
-13392	-608	8916	-2520	-32768	-4739	-11444	1964	-9396	5942	-32768	-5777	-10236	-1956	-9020	18475	-11532	-2208	-12248	5528	9584	1544	1405	-1297	-16292	1480	-1824	252	5358	-1322	-16168	5056	-40	8692	11236	-81	148	123	1
-18496	-2584	10712	-6000	-32768	-6437	-12720	1424	-11760	2822	-32768	-7849	-9592	-324	-7728	20799	-10445	-1054	-12480	5544	9328	1192	1320	-1611	-16272	1660	-2796	3415	6026	-1123	-15576	4760	-280	7084	11693	353	171	122	1
-22828	-4392	12068	-5676	-32768	-5776	-16020	-548	-11020	1826	-32768	-10174	-9608	1352	-5224	17325	-8555	-216	-12380	5888	9432	829	1210	-2239	-16272	3340	-2428	4357	6680	-1398	-15340	4668	-1552	5314	11752	278	157	128	1
-27792	-4532	13192	-4972	-32768	-5275	-18040	256	-11804	3338	-32768	-12089	-9848	3684	-2788	10778	-5824	88	-12464	5608	9324	502	1316	-2913	-15832	3216	-1872	2640	7236	-1847	-15312	4440	-1920	3294	10212	-441	124	131	1
-31512	-3900	14148	-5217	-32768	-6237	-19212	1652	-12596	2544	-32768	-14237	-9340	5968	-1380	5418	-1746	204	-12624	5572	9588	-48	1760	-2862	-16296	2196	-2420	-291	7582	-2475	-16176	4252	-1732	1626	9040	-956	117	127	1
-32768	-3476	12800	-7232	-32768	-8786	-21220	1152	-11904	3004	-32768	-16899	-9528	5952	1084	1522	610	366	-13116	5160	9752	-403	2266	-2713	-16848	1144	-2620	-1695	8011	-2838	-16716	4208	-1312	902	8134	-960	98	124	1
-32768	3072	8904	-11769	-32768	-13779	-20956	-1552	-11976	1802	-32768	-16792	-13700	4616	4240	-1343	-1419	511	-13288	4700	10084	-62	3122	-2332	-17104	732	-2320	-2312	8880	-3212	-17196	3452	-796	-1	8097	-762	90	126	1
-32768	6340	-3020	-13899	-32753	-15608	-20852	-36	-12032	5173	-32768	-14725	-18112	1268	10704	-2368	-7486	-540	-13288	4544	10064	48	3995	-1742	-16760	1200	-2044	-2033	10060	-3719	-16432	2804	552	-123	7493	-396	105	127	1
-32768	4168	-11176	-12762	-29556	-16571	-14232	340	-13796	4706	-23826	-11782	-19972	-3444	17536	2018	-9059	-3715	-13392	4488	10416	-224	4767	-1321	-16860	1824	-2384	-2993	11383	-4263	-16276	2196	1372	1575	7337	-5	100	123	1
-32768	12484	-24644	-9090	-18078	-11991	-11332	2500	-14568	473	-12145	-9039	-16972	-7396	25036	-1309	-2277	-4261	-13116	3212	12108	1245	5654	-402	-17924	1520	-2344	-3374	12537	-5037	-16900	2576	400	4227	6773	-19	109	120	1
-32768	16824	-30168	-13980	-3259	-12712	-5300	2864	-11980	-10133	3408	-2935	-14780	-4140	18292	-7159	-187	-1858	-12180	6268	13304	-754	8911	-2050	-19924	600	-1844	-2310	13721	-5518	-19168	3332	-860	6307	5870	-524	147	121	1
-32768	-9736	-21896	7514	20438	-1368	-8616	-2472	-9908	-15739	14897	1977	-14228	-3612	9356	-8730	1708	1541	-13728	5540	12072	-883	12172	-2856	-19492	-16	-4268	-1100	14757	-5700	-19076	4144	-516	7141	3743	-605	138	121	1
-18736	8564	32767	10614	22118	4395	-26672	-12104	11328	-28172	16148	3800	-11540	-6144	-648	-10794	6891	2587	-13540	6080	12556	-1313	16967	-3967	-20332	-392	-3768	1069	15651	-5882	-18916	4332	-156	7150	3405	-555	142	127	1
-3808	-16	2240	18547	25565	17630	-22548	-8952	-2556	10424	12824	1255	-18284	-4416	-1684	-7106	11016	1004	-12396	4740	13532	-936	22891	-4682	-21012	-2844	-1180	2327	17159	-6543	-20232	3348	2112	6315	739	-74	145	126	1
-26272	1416	12544	13377	19066	8201	-9684	-1072	-2076	23045	16345	4630	-22068	-10720	3380	15207	5166	-6883	-11304	6120	14548	-288	30907	-5622	-22688	-3248	1308	3901	19174	-7176	-20492	1664	7136	7312	-5350	-2008	176	123	1
-18352	6188	14632	12554	22401	8577	-19020	2320	-3232	23431	17633	3168	-12432	-8516	3960	32767	1539	-5772	-11068	5712	13900	696	32767	-7193	-24124	-4548	2372	3430	19881	-7801	-21128	-380	12532	10668	-14868	-2994	201	109	1
-22648	14096	14452	-1793	19252	5155	-26016	7052	-10796	25657	18004	5963	-16060	-620	7008	24630	7118	-1500	-19908	7104	12928	2245	32767	-8628	-26964	-1116	2556	3696	20821	-8469	-22500	-3064	13684	11292	-21974	-3062	153	107	1
-24732	11308	15332	4427	7904	6513	-17988	-1104	-12716	5806	18178	3854	-19748	12580	-6520	16196	14490	6112	-30752	13632	8072	2126	32767	-14858	-26948	4848	-3444	-2594	24694	-8647	-20624	100	864	8482	-13602	485	22	151	1
-13768	-1908	12400	2480	5052	2823	-15516	-1464	-6100	11370	14807	2417	-16912	7584	-9428	-3319	15258	1014	-25984	11184	12132	-1101	32767	-22265	-26916	1424	-2636	-4171	23360	-7757	-22996	4088	-8672	9685	-15360	2264	96	124	1
-14152	-1836	11000	996	3183	973	-14736	2448	-8536	7228	11787	455	-11812	2324	-9076	-8610	13050	-2175	-25992	12900	14544	3335	32767	-22296	-24428	-2768	-1640	5645	21804	-5014	-22500	2300	-7056	5779	-19603	3958	210	110	1
-12216	-1024	11172	583	2129	486	-16496	2384	-7364	-8797	8830	-1352	-12160	856	-6352	-11377	9251	-5224	-18688	15124	24020	5471	32767	-21795	-19632	1880	-6300	5671	20938	-2844	-26540	-624	-3912	-831	-24094	3734	180	107	1
-12264	-1240	10944	87	2214	74	-16520	-708	-6908	-18491	6293	-3388	-14936	-4268	-3248	-9524	12574	-5061	-32768	22196	13044	7378	14673	-13398	-14584	-480	-20096	-2108	8671	-1433	-26712	3572	-3924	842	-24443	4864	154	124	1
-12396	-188	11324	-109	1659	-301	-17188	-5160	-5080	-17641	4623	-2925	-18060	-6624	-5096	-11349	16583	-1161	-16600	12916	21560	4580	-30631	2995	-14644	-1544	-20460	-5883	7646	-2015	-24840	4940	-5604	-2269	-23254	7366	134	134	1
-12380	-60	11296	-188	1573	-444	-14592	-9244	-3360	-455	5114	-575	-17808	-5784	-2716	-6958	14900	1563	-9896	10912	21628	4470	-32768	3368	-13260	-36	596	11885	-5677	1737	-24236	2956	-5716	483	-22118	6933	214	128	1
-11788	-1680	10720	22	1089	-620	-14736	-6148	-3544	11761	4861	566	-14196	-5644	-356	-3651	13396	3172	-8004	8032	10528	6272	-32715	964	-3676	-13156	-12996	15285	-8929	8975	-21692	2976	-5476	41	-20452	6807	192	88	1
-11796	-1824	10716	509	1056	-211	-16820	272	-4000	6477	3582	-265	-13464	-4496	164	-3409	11259	4719	-11692	9524	9764	2415	-32768	4040	-6652	2196	-7676	257	-23202	3830	-17184	3340	-5536	-3057	-18737	7084	117	125	1
-11780	-1904	10604	497	1072	-159	-16012	-2280	-2944	-3430	3749	-589	-11964	-4572	500	19	13982	2207	-10572	8176	9016	-1570	-32768	7248	-11252	-228	-6856	-5435	-32768	-642	-14632	1744	-5608	-7318	-18986	7024	35	131	1
-11380	-1576	10592	576	1614	429	-15456	-4700	-2356	-7216	3309	-870	-17048	-956	1424	2140	15523	695	-11284	4924	7884	-1468	-32768	10680	-11664	-4852	-7360	1782	-26980	9421	-13364	1648	-7404	-10685	-14515	4153	8	122	1
-11764	-976	10728	553	1833	861	-15208	-5160	-1252	-6520	3948	-195	-15084	-1112	1512	2898	17791	-1191	-11480	4500	7744	-994	-32768	11278	-11192	-1592	-7680	3457	-32768	7738	-12196	1284	-8236	-13859	-13635	4355	173	114	1
-11860	-1212	10684	622	1895	1055	-15120	-5992	-1116	-1111	5191	1177	-19520	-3708	1120	1806	11910	-1557	-15088	5472	9556	3758	-32768	15450	-11956	-992	-8008	5020	-32768	9477	-10036	-192	-8164	-15041	-10804	3124	105	143	1
-11872	-1204	10652	694	1908	1120	-15304	-4940	-1688	2120	6566	1679	-18424	-4988	-2048	-3380	9826	-110	-18320	7204	10408	4011	-32768	14399	-15208	-1536	-9560	3611	-32768	11962	-8592	-852	-7240	-13637	-8469	2141	101	154	1
-12288	-664	10660	648	2117	1410	-16024	-2448	-3412	683	7073	1893	-16752	-2468	-1484	-4091	9256	792	-24128	6208	12412	5623	-32768	16055	-16844	-1896	-11432	651	-32768	13000	-7692	-1632	-6060	-10350	-5048	1796	58	159	1
-12452	-908	10524	515	2040	1468	-16104	-2676	-3744	-3448	7079	1615	-14908	-1560	-772	-2934	10210	153	-30260	6924	12680	9402	-32280	21540	-17368	-2216	-11820	-26	-32768	13149	-7076	-2684	-4452	-6980	-1502	1433	148	150	1
-12804	-836	10676	524	2146	1082	-15728	-4148	-2936	-4469	7381	1798	-14920	-1124	-1484	-3599	11309	-66	-32768	4504	10496	12400	-30020	23871	-22756	-4960	-14992	3050	-32768	15464	-7404	-4472	-2244	-5534	-1462	1394	115	135	1
-12608	-512	10744	758	1804	778	-16544	-3600	-2056	-3198	7958	2373	-17452	-1328	-1088	-2848	10482	-108	-32768	1372	3552	14081	-30025	25795	-21312	-4008	-18668	3649	-32768	15093	-10140	-3200	1924	-6738	-4622	1414	101	127	1
-12532	-352	11132	1263	1936	274	-16648	-3476	-1800	-3153	8086	2443	-18460	-2796	372	-2504	7757	67	-32768	720	-4864	7638	-32509	25555	-20604	-2972	-19324	4143	-32768	13799	-13972	736	11004	218	-9186	1765	93	106	1
-12196	-480	11716	577	3163	-156	-14908	-4172	-1400	-1756	11208	3290	-16820	-3704	2428	-1714	6323	-2	-32768	-5884	-16068	-2602	-29809	20978	-16852	-920	-16956	3268	-27625	11583	-17596	3432	20856	12645	-6861	4013	111	80	1
-11156	-2072	13916	-1109	7189	219	-16992	-4776	-1968	-1184	12744	3732	-16848	-2772	2100	-2127	7156	-639	-32768	-15728	-27452	-3854	-18144	12812	-9636	-2684	-20972	-2341	-14991	8161	-17236	7780	20496	10534	4674	7249	126	105	1
-12460	-984	12496	797	10965	1260	-18672	-3436	-3296	-2065	13933	4171	-17276	-2424	1932	-2144	7204	-783	-32768	-29304	-31688	7945	-2362	9052	-6732	-6028	-18720	-2225	1112	3987	-14612	10016	17544	4945	5114	2986	131	132	1
-12312	496	12952	538	14754	446	-17848	-1596	-2924	-4868	15347	5116	-17948	-1452	132	-5184	4578	-719	-30196	-13076	-20136	7240	12529	5015	-6408	-1204	-19656	-408	15166	-1921	-13556	9908	12704	-1649	1472	-562	122	156	1
-11972	444	13092	565	19282	-359	-18032	-1136	-2680	-6051	16461	5884	-18008	-2048	-196	-7847	1934	-345	-31544	-23528	32767	-12170	7199	-16345	-23384	1296	8968	24450	21561	-5754	-11736	9348	2276	-8200	8407	370	103	166	1
-11004	344	14472	195	25442	-1690	-20344	-956	-2816	-8647	17217	6231	-19524	-2008	1424	-7654	-1049	93	-6956	3744	-4840	-10094	17956	-30358	-21904	3216	-5552	-15543	10563	-586	-21792	3188	3008	-5463	9801	-124	106	165	1
-10412	-1604	14392	589	32767	-3142	-24248	-1408	1148	-10150	17597	7232	-22524	-1192	4644	-6929	-5402	1140	-18576	9064	11152	-6764	25794	-9656	-12412	-6024	4280	-18499	14796	-3300	-15672	2544	8564	-10242	-2680	635	136	120	1
-9176	-2636	14644	993	32767	-3738	-24164	-1288	5236	-12805	18402	7771	-21836	-176	13304	-7202	-14762	2308	-32768	-13888	13968	-6706	27137	-15321	-26212	-612	-10880	-20912	16325	-5324	-20492	5780	11004	-14997	5020	114	153	122	1
-13104	-4180	13592	-476	32767	-3398	-23012	-4648	4768	-14860	19500	8573	-18488	3124	15888	-15871	-19301	965	-32768	24976	1644	-10684	12819	-7615	-23332	-1436	-11604	-19275	16429	-8115	-23688	-6628	-2456	-12614	14538	1031	143	114	1
-32768	-2340	3920	-1269	32767	2546	-21960	-5704	-10544	-4872	21876	9254	-17812	1676	5932	-16359	-10861	-980	-17676	5104	9608	-3917	6244	-4158	-14208	-1840	-7436	-16991	14997	-2571	-14616	-2060	-12688	168	15758	1453	145	123	1
-32768	-11264	10276	712	32767	8892	-25712	-1752	-9672	-11103	24246	6765	-25412	-7600	-17520	-20000	-9003	-6321	-15560	1908	10512	-2188	1082	-2878	-16744	-5544	-10412	-11737	12838	-1391	-9740	2040	-8048	5042	11805	459	148	111	1
-22736	-7876	20544	-3376	32767	12691	-30968	-3084	-3240	-14332	19841	6122	-28744	-1800	-8992	-6120	-21130	-6511	-13764	2888	10560	-1076	-564	-1673	-15912	-5364	-7600	6138	12042	506	-14524	1696	-4328	433	8619	2434	155	116	1
-5532	-11200	25696	-7267	32767	14041	-22876	-4644	4828	-11331	10762	3714	-29096	1500	-4572	7208	-24686	-4458	-13068	4224	10008	-297	-316	-774	-17400	268	-4960	13103	11107	839	-16336	4900	-3192	182	11790	2810	152	125	1
-32768	-9080	20748	-4681	30682	5831	-9824	-1084	-29128	11060	6112	1314	-24760	1556	-4484	788	-24222	-5900	-12688	5220	10200	63	358	-786	-17460	3724	-4364	9104	8623	911	-17532	4752	-3540	3238	11464	-266	121	115	1
-27120	-6492	22436	2978	-16225	-3848	-8300	3696	-14196	6122	5708	-531	-24236	-704	-4280	1091	-24638	-7716	-12820	3700	10128	-299	272	-1207	-15492	3568	-3280	-103	7002	127	-16168	3596	-1024	1360	10643	-1695	129	126	1
-8184	-1524	17988	1239	-32768	-6589	-14596	3484	-4428	-5544	-3837	-4108	-23400	-3304	-6836	580	-21039	-7234	-12556	3732	10088	-231	481	-1035	-16256	1468	-3660	-7706	5579	-988	-15020	2096	420	-667	9751	-1816	0	139	1
-3500	140	11312	-4632	-32768	-6282	-9972	2704	-6668	-13263	-10186	-3940	-21032	-776	-7892	-1380	-19049	-5799	-12540	4124	9948	-228	625	-916	-17088	-1188	-4728	-7505	4550	-693	-15200	2348	-632	357	10711	-1886	61	133	1
-6356	-80	9104	-7599	-32768	-5536	-5760	-3624	-6032	-16	-18235	-7780	-17104	112	-8192	-27	-17662	-4543	-12708	3844	10044	355	693	-797	-16120	-2500	-4620	987	4595	703	-16236	2336	-712	2792	12772	-1575	141	119	1
-8408	-2144	9132	-5141	-32768	-4315	-4472	80	-6884	17766	-23964	-10466	-13936	-472	-6780	-95	-16709	-4058	-12576	3720	9996	1187	744	-674	-16556	-576	-3596	7517	4836	1024	-16232	1124	-192	4841	13215	-940	156	121	1
-10336	-2500	10120	-56	-32768	-2010	-7316	2180	-8240	17097	-28546	-11741	-11540	-1800	-7688	2224	-15216	-3457	-12640	3996	10012	1711	870	-768	-15888	2412	-3240	8259	4972	607	-15244	1360	-408	7085	14499	-979	150	131	1
-13284	980	10104	-528	-32768	-1749	-10984	4172	-7808	12485	-32768	-10602	-10124	-2724	-8248	7333	-13403	-3017	-12748	4064	9840	1482	1031	-954	-16028	2668	-2828	4928	5119	368	-15284	2952	-280	8301	14908	-1653	119	123	1
-15096	2344	10364	-5786	-32768	-3675	-12928	3880	-9256	9002	-32768	-8991	-8772	-1632	-9064	14109	-11476	-1635	-12724	4080	9916	969	1195	-1280	-16116	2124	-3116	164	4565	-481	-15404	4300	-104	8845	15176	-1810	126	129	1
-19476	1848	11888	-11412	-32768	-5209	-12300	3948	-10788	2935	-32768	-10357	-7876	1080	-8824	17557	-9882	-55	-13088	3968	9820	775	1149	-1345	-16432	296	-3812	-170	4744	-897	-15312	4492	-592	7469	15630	-1756	137	129	1
-24592	-556	12996	-13945	-32768	-6127	-14552	2616	-11232	-3612	-32768	-12904	-7272	2096	-7016	16919	-7687	854	-12964	4120	9780	745	1026	-1399	-16292	-8	-3856	2972	4912	-550	-15128	3580	-244	5765	16709	-1395	135	126	1
-29072	-2576	13948	-13073	-32768	-7621	-17588	1108	-11380	-5479	-32768	-15309	-7292	2964	-4376	11502	-5421	673	-13176	4004	9792	834	1078	-1580	-16604	896	-3892	5035	5496	-384	-15004	1860	-1416	2824	16117	-1494	129	124	1
-32768	-4004	14752	-10113	-32768	-9810	-20384	1312	-11412	-4529	-32768	-17492	-7408	3368	-1944	4324	-2641	5	-13116	3596	9964	850	1342	-1442	-16436	1260	-3156	3866	5776	-963	-15896	2112	-2096	1537	16093	-2450	97	127	1
-32768	776	12196	-9455	-32768	-13066	-22336	508	-12752	-1154	-32768	-18619	-8768	3240	1688	-1384	-3006	-658	-13252	3892	10112	609	1723	-1193	-16868	1480	-1832	1066	6628	-1779	-18500	3736	-1600	632	14327	-2193	97	129	1
-32768	1888	4724	-10388	-32768	-14842	-21760	-3524	-12332	588	-32768	-16584	-13012	3000	6516	-5265	-5477	-1398	-13392	3788	10196	394	2343	-1097	-16796	1440	-1524	858	6771	-1945	-19040	4844	1676	-609	10319	-1212	113	129	1
-32768	-2632	-8884	-2585	-32768	-11970	-17292	-3700	-12532	11476	-30741	-13029	-19360	-2964	15716	-2238	-9459	-3677	-13492	4132	10040	212	2874	-1366	-16172	2952	224	-361	10993	-3699	-18080	5364	5300	-406	8181	-181	103	128	1
-32768	5680	-24228	7775	-26234	-8777	-11792	1020	-16612	22365	-17656	-9295	-17908	-9092	23680	1706	-1538	-5929	-13104	4328	10540	419	3841	-2018	-16808	2700	-1160	-1050	13329	-4592	-17300	4104	5916	3871	7627	674	55	125	1
-32768	19956	-32768	2621	-10190	-11228	-8696	4480	-17284	15406	-3412	-3670	-15952	-10904	24028	7385	2413	-2032	-13564	2600	12700	-119	7118	-4020	-19556	348	-1100	-905	14912	-5612	-18228	1672	3196	8872	6422	395	177	118	1
-32768	15976	-31000	4	7174	-9402	-5344	3008	-15316	6352	13380	3114	-15480	-7432	14416	9357	3347	1303	-14056	5300	13240	-406	10799	-4793	-20576	-1280	-3292	-794	16751	-6313	-19776	1688	496	9836	4477	-297	188	120	1
-32768	19036	5044	-1078	26894	11899	-12028	-3860	-8624	-6044	23256	6229	-13232	-5264	4056	7553	5975	2870	-14000	5156	14280	-756	15952	-6346	-21520	-2480	-3304	1139	18437	-6569	-20028	3776	696	10866	2202	-675	197	124	1
17568	-31544	27620	3981	16362	18048	-32768	-7032	32672	-13025	7518	-698	-15940	2580	-4096	3615	11781	4588	-12504	5488	16068	-873	23451	-8043	-24776	-2768	-1544	3494	19384	-7043	-23336	4272	2068	10869	952	-382	165	123	1
-32768	4648	4744	9393	27561	9729	-11448	-1620	-10668	2124	12148	416	-30516	6820	11528	7462	280	4056	-11328	5344	15900	-3	31039	-9575	-25244	-6216	1388	4960	20604	-7404	-23092	2008	6428	9546	-5278	-1648	111	117	1
-15340	-7332	11320	13615	28614	3044	-14980	-4048	-4800	-10685	17363	-252	-11352	-2252	12240	25000	2095	2711	-10616	5244	16244	1171	32767	-11403	-25252	-3444	2108	6779	22179	-7883	-23188	1384	20916	12967	-23349	-3267	135	106	1
-20776	1796	13284	13969	27995	3076	-24908	-3188	-6632	7502	17486	2878	-9896	-8220	10396	24717	2500	557	-19224	10336	14028	911	32767	-15027	-28092	964	5000	5414	21752	-8603	-18316	-3000	10708	17045	-14107	-1404	115	115	1
-32608	-28992	3988	4424	13408	-1147	-20292	-240	-15592	12091	18658	6677	-22124	14200	-11632	2697	13607	123	-30296	7720	11140	508	32767	-20772	-25452	6640	-4084	-1919	25564	-8882	-21256	3452	-5516	11578	-10475	1046	126	121	1
-15308	-4076	10276	1158	7225	2357	-14216	1280	-9224	8221	15150	1869	-16132	2776	-11308	-13209	14647	-2448	-31280	13720	9864	-4262	32767	-28481	-27492	2292	-6700	-4192	23079	-9571	-22832	8964	-9240	7980	-16225	6071	179	129	1
-15812	732	10784	454	4184	936	-16112	160	-11156	11021	12632	-60	-10224	-3468	-10560	-14303	15150	-5289	-24456	12628	19140	-3743	32767	-30003	-23888	1468	2284	2786	22554	-6813	-26788	1048	-6172	-6980	-21942	6281	163	112	1
-12960	232	11268	-233	3028	-513	-16928	4564	-8272	-4916	8450	-540	-14988	-1384	-8560	-12365	12215	-2733	-6428	12516	26076	436	32767	-31519	-17712	3392	-14428	-4398	17882	-3131	-28504	1992	-7796	-6517	-23954	5290	166	116	1
-12272	-1776	11036	-626	2445	-809	-16604	-1240	-6244	-17092	5979	-2540	-17540	-4856	-4572	-7594	12484	-1657	-29332	12016	15872	1254	-4160	-9081	-15628	-724	-16276	-11163	5557	-3448	-26976	2360	-5660	-5305	-24873	7413	146	111	1
-12204	-1532	10996	-958	1951	-868	-16648	-5920	-4784	-17416	4608	-2520	-18144	-7964	-3584	-5024	13468	1238	-8888	11808	19112	1263	-29832	5156	-12212	-724	-4308	-2422	-3034	-1543	-24732	1304	-6244	-5685	-23491	8889	157	139	1
-11860	-1556	10936	-1131	1746	-1024	-15312	-8164	-2836	-5913	4795	-839	-15724	-7236	-920	-400	12870	2972	-752	9988	12464	407	-28433	5805	-10940	-3484	-3048	8964	-9123	1635	-23380	632	-6824	-2226	-21480	8385	118	126	1
-11756	-2096	10612	-926	1704	-870	-14068	-7840	-3180	6741	5125	578	-14664	-4556	-64	2844	13371	2470	-7840	7068	10112	-918	-30988	7233	-8476	-1376	-8752	11540	-17600	4924	-20248	1068	-6792	-481	-19257	7938	63	108	1
-11468	-2784	10480	-382	1710	-363	-14516	-3564	-1080	8142	5352	-113	-18320	-2712	4876	88	6420	3180	-11364	6176	9360	-775	-32768	12441	-5600	1484	-7220	4569	-26240	5565	-15644	1988	-6380	-3707	-17208	7882	133	105	1
-11560	-2380	10424	119	1810	299	-16164	-944	-2964	-879	4223	333	-11996	-1492	1548	-3307	13740	736	-11588	6312	9408	-765	-32768	16104	-9908	-92	-7020	-2990	-32768	173	-14636	2100	-6628	-8284	-17866	8404	103	129	1
-11888	-2064	10564	95	1904	434	-16468	-2484	-2940	-9555	3363	-693	-18236	464	2420	-4541	13688	-930	-12860	4460	8160	-449	-32768	16608	-11124	-2768	-6428	629	-29940	10245	-12644	1024	-8028	-12428	-13357	5554	119	139	1
-11932	-1532	10420	-226	1937	356	-15088	-4124	-2496	-11335	3608	-622	-14500	-100	1172	-4726	16849	-2291	-15072	3032	8932	2913	-32768	17534	-11880	-1180	-8372	-1479	-32768	9333	-13080	1124	-7996	-14008	-13989	5672	103	119	1
-12080	-1688	10208	-245	2023	413	-14824	-5328	-1996	-7007	4206	563	-15700	-172	996	-4564	15252	-927	-18696	4264	10276	6231	-32768	17601	-12516	-1084	-8800	126	-32768	10443	-9312	-352	-8776	-18443	-10199	3948	112	117	1
-12168	-2120	10132	15	2213	554	-14644	-5328	-1976	-2706	5139	1247	-17728	-4444	-1336	-5562	11620	23	-22664	5024	11032	9445	-32768	18795	-15384	-1904	-11084	437	-32768	12544	-8004	-1264	-8380	-17887	-7306	2629	105	149	1
-12144	-1936	10280	409	2496	857	-15572	-4036	-2684	384	5888	1755	-16700	-6408	-3372	-8273	10407	143	-25584	8008	11964	9924	-32768	21594	-18328	-2992	-12196	-84	-32768	13398	-6804	-1680	-6708	-14348	-4830	1947	121	163	1
-12284	-1640	10120	477	2700	916	-15964	-2580	-3456	-1223	6462	1779	-16436	-4736	-1824	-3437	9364	212	-32768	5320	12892	11503	-32768	23193	-22028	-5556	-13804	2317	-32768	15993	-6548	-3400	-3700	-8695	-1668	1403	102	170	1
-11336	-292	9620	866	3132	1028	-15304	-4012	-2532	-1591	6977	2037	-15900	-2936	-1848	-564	8754	204	-32768	584	9020	16816	-32768	27563	-22716	-5112	-18212	6347	-32768	16842	-7716	-5344	-368	-6141	-2211	1760	104	143	1
-12660	-1540	10256	1064	2620	615	-15692	-3992	-1620	-464	7925	2552	-17104	-2164	1100	9	8061	305	-32768	1716	1452	16736	-32768	26366	-21364	-3328	-19520	9252	-32768	16909	-11504	-3168	5020	-5108	-5582	2497	112	109	1
-12700	-1512	10492	1501	2312	484	-15692	-4204	-808	549	9313	3105	-17512	-2736	2872	-166	7055	-416	-32768	-6384	-6452	11507	-31704	22044	-20748	-3920	-17940	9595	-32768	16935	-16956	52	15096	5178	-10081	2916	105	96	1
-12760	-1904	10864	1892	2099	395	-15772	-4596	-764	1712	10772	3671	-17392	-2212	3952	-531	6641	-935	-32768	-11868	-17952	6919	-22840	17937	-15484	-2028	-19312	7776	-22832	13079	-22240	2780	21872	17871	-5450	4886	142	72	1
-12764	-840	11600	1451	1873	237	-16536	-3988	-2080	1712	12083	4310	-15720	-524	2956	-612	7156	-1122	-32768	-18560	-27628	2361	-11823	9315	-8204	-2608	-19672	1736	-9335	8402	-17664	8216	19032	14912	2541	7886	141	78	1
-11576	-1760	13196	-1925	4915	-765	-17416	-3348	-2820	609	13088	4937	-16880	-704	876	-2845	7425	-639	-32768	-25152	-28288	2415	1424	3817	-7196	-3744	-17364	-3519	4864	2175	-13316	11720	16680	9539	1823	3376	112	141	1
-11212	476	14492	711	10669	490	-18788	-3192	-2416	-1359	13508	4846	-18740	-2336	-1496	-5052	5603	-2	-32768	-18684	-21628	-2287	12597	-3166	-7620	-4288	-19768	-8347	16800	-4375	-11564	10680	10240	-42	1118	1016	111	172	1
-12012	-680	13688	513	15406	29	-19376	-972	-3620	-4144	14651	4913	-19580	-3092	-2160	-5300	2193	301	-27760	19964	28428	-13387	15462	-17399	-25788	-3228	11556	14975	18649	-6160	-9536	8840	-920	-9306	8917	1481	111	161	1
-11228	0	14792	331	21171	-851	-19516	-372	-3396	-4714	14874	4935	-19456	-2820	796	-6614	-713	860	3036	2540	32767	-14188	7232	-16261	-30848	-296	11968	-4694	4606	1247	-16984	2020	-2076	-5185	8919	-813	126	169	1
-10016	-180	15168	-545	29668	-3185	-23164	-492	-32	-10597	15989	6442	-22336	-1012	3764	-6378	-3295	1616	-23112	-4884	16192	-5913	24083	-4026	-6972	-2944	2204	-16258	12920	-3321	-17888	-1008	3380	-6902	4222	-236	147	163	1
-9208	-308	15020	-1276	32767	-5220	-24204	708	4064	-11945	16796	7476	-21912	1908	10244	-6110	-11065	3191	-21140	-2800	15820	-8164	23216	-15642	-21784	-2700	-4680	-17910	12212	-6761	-17976	4996	14908	-23658	833	-1013	132	128	1
-10088	-2032	14236	-1887	32767	-7912	-22716	-1364	6060	-14137	17598	8321	-18596	5000	19432	-7257	-17044	2467	-30500	4476	10192	-5087	17711	-11936	-28216	-2652	-11772	-21651	13000	-4894	-26212	-2820	9024	-16576	11307	-132	167	105	1
-22264	-5232	9600	-3783	32767	-5838	-21848	-7200	120	-12083	19080	9561	-14792	4464	8972	-12888	-10930	1926	-27972	5144	11244	-5935	15965	-10473	-15700	1888	-12436	-18029	14460	-3322	-25900	-4924	3920	-14881	14815	225	152	115	1
-32768	-6104	7784	-1447	32767	1219	-22480	-7360	-14216	-4449	23379	9330	-22436	-5792	-4540	-22742	-8080	-2848	-16416	6536	9392	-2700	3900	-4320	-15784	-2840	-7352	-15353	12163	-1552	-10532	2736	-7256	4000	16758	1187	100	97	1
-27156	-10052	16652	-4451	32767	6351	-32380	532	-5420	-9382	21576	7033	-29200	-9412	-12352	-16260	-14158	-6660	-14728	4316	9920	-1697	1013	-2850	-16160	-4008	-8404	-142	12108	621	-11460	3256	-9136	8528	12472	726	131	88	1
-18340	-8816	21748	-8412	32767	10868	-26440	-7096	2364	-15059	15894	7608	-27784	-5156	-6024	1866	-22565	-4440	-13872	2920	10372	-1028	-193	-1882	-17320	-4608	-6900	11719	9452	1307	-15820	1360	-4104	1270	11249	4494	181	136	1
-29036	-5148	18400	-10230	32767	14319	-15800	-6312	-17248	-3113	9643	4314	-25872	-3692	-3408	8972	-24286	-3688	-13196	3192	10508	-247	-41	-525	-18900	-716	-5516	17545	8192	2228	-17500	3540	-3576	5643	14567	1298	131	117	1
-32768	-9576	24444	-1633	-10536	5126	-9320	-2448	-20680	13082	8109	4022	-24172	-3084	-3924	6750	-24274	-6680	-12564	3708	10392	303	267	-16	-16452	4224	-2664	11069	6414	1389	-17600	4400	-1744	4866	13558	-2295	146	113	1
-4672	-4368	20860	-826	-32768	4569	-15396	-604	-2048	-2709	-68	673	-24240	-3000	-6468	6216	-21406	-7049	-12368	3944	10168	710	484	110	-15452	5948	-1064	-1947	6101	713	-15316	4444	472	1778	12770	-2586	63	132	1
192	-2632	12864	-5422	-32182	6526	-12412	-2060	-3032	-1049	-9172	654	-22668	-1464	-7176	2194	-19429	-5773	-12524	4356	9836	505	890	39	-16528	4640	-2684	-12845	4246	-814	-14984	4368	744	216	12036	-2222	0	134	1
-7820	-4980	9724	-6583	-32768	6098	-6272	-892	-10260	7571	-15211	-2268	-17960	-464	-7676	1706	-17700	-4869	-12428	4896	9420	432	918	-423	-16596	-1740	-3540	-9997	3922	-1059	-15136	4428	968	227	12977	-1692	104	134	1
-10504	-7552	9968	-2133	-32768	3810	-4268	1044	-8752	12394	-21566	-4847	-14264	-580	-6484	1014	-16538	-4650	-12320	4768	9508	584	768	-981	-15696	-3192	-3184	5498	4880	284	-16084	2388	1404	3117	13028	-291	141	127	1
-9896	-6412	10104	2975	-32768	1698	-6824	1376	-8664	7268	-26990	-7505	-11936	-2416	-7160	2099	-14730	-4416	-12440	4048	9860	1233	918	-1234	-17384	232	-2696	15745	6506	1998	-15580	592	912	7617	13550	223	141	127	1
-12316	-2924	8892	3061	-32768	-842	-10968	1648	-7792	4090	-32282	-6047	-11124	-2944	-8220	5764	-12875	-3869	-12560	4024	10100	1995	1084	-1526	-16792	4296	-1476	12571	6688	1042	-15052	1600	2008	10735	14184	-781	144	125	1
-13224	-1036	8752	-1225	-32768	-4748	-10252	1360	-8116	5333	-32768	-6990	-10284	-2508	-9012	12831	-11697	-2670	-12608	4388	9992	1832	1391	-1758	-15632	5152	-1552	1654	6301	-951	-15444	3840	1532	10703	14553	-985	135	121	1
-16656	-900	10792	-5744	-32768	-6592	-10236	1396	-10196	3981	-32768	-9372	-8624	-620	-9004	19449	-10359	-1366	-12784	4808	9816	1129	1296	-2035	-16168	1584	-3992	-4524	6201	-1883	-15468	4380	-648	8653	13675	-622	144	126	1
-23440	-1192	12156	-10460	-32768	-6633	-13520	564	-11748	1280	-32768	-11916	-7912	776	-7900	20369	-9288	-102	-12900	4512	9772	786	1242	-1788	-16692	-312	-4184	-2188	5664	-1708	-15164	3868	-2108	7319	14195	-373	157	120	1
-28128	-3712	12596	-12788	-32768	-6379	-15884	-228	-11676	1806	-32768	-13666	-7824	2732	-5696	15668	-6872	499	-13160	4172	9860	822	1289	-1532	-16648	148	-4228	2353	6391	-1272	-15640	2392	-3676	4698	13955	-33	152	123	1
-31748	-7364	12752	-10979	-32768	-7581	-18804	916	-11612	1798	-32768	-15890	-7848	3200	-5192	14646	-6443	606	-13284	3852	10032	861	1457	-1644	-16664	1248	-3480	4518	7119	-1285	-15904	2792	-3652	2343	12400	-937	125	130	1
-32768	-8184	10136	-4868	-32768	-11722	-20632	4412	-13840	8841	-32768	-18535	-8320	6008	-120	2177	-1971	551	-13608	3760	10068	548	2033	-1479	-16616	2628	-2124	2886	7656	-2072	-17416	4804	-1380	1285	11156	-1310	94	129	1
-32768	3668	7080	-7388	-32768	-20112	-21140	-1976	-14364	2236	-32768	-17029	-12280	3948	5268	2817	-4896	-31	-13276	4080	9956	161	2710	-1462	-16820	2000	-1072	-570	8902	-2940	-18344	5696	1596	692	9205	-914	89	125	1
-32768	-1000	-3596	-7794	-32768	-20683	-20500	-4340	-13376	6673	-32768	-13263	-15760	244	10072	1088	-5751	-685	-13368	4104	10372	-319	3308	-1487	-16256	2484	-456	-1367	10946	-3818	-17076	5044	4188	747	7633	-133	121	126	1
-32768	2536	-16360	4015	-25777	-14554	-12688	-2404	-20208	21627	-22444	-9687	-19312	-3952	23044	1639	-5222	-3924	-13236	4952	11064	1027	4127	-1703	-16952	2500	-1276	-1415	13152	-4334	-16776	3424	4616	2919	7878	452	65	129	1
-32768	13440	-29744	3403	-14172	-8866	-10516	6036	-19264	17182	-9254	-7147	-17272	-9036	23752	69	5207	-5395	-14440	5092	11308	-596	7830	-3281	-19248	-252	-1428	-220	15315	-5049	-18840	1352	3176	6615	7174	289	107	120	1
-32768	19940	-31424	-8717	733	-5591	-4800	3856	-15944	722	6851	-2098	-16136	-6268	16788	3773	3675	-1391	-13808	4068	13020	-419	11747	-4228	-19808	-204	-2348	644	17464	-5658	-19364	1624	2048	9482	4332	50	180	120	1
-32768	9684	-18592	-1830	13509	2759	-7508	1492	-19948	-4272	19835	2699	-13436	-3876	7292	2040	4792	2681	-13968	4932	13072	-394	16542	-5593	-20832	-1148	-3428	-594	18673	-6167	-18984	2748	1004	12025	2946	-148	191	121	1
-320	14752	32767	563	13049	6423	-32012	-2488	19632	-32685	14397	5026	-12552	-3844	6356	2025	5324	2745	-12776	4588	15472	-835	22705	-6451	-21124	-1520	-3520	-289	18805	-6151	-20376	4044	1352	13100	2061	-16	168	124	1
-10288	1604	816	12003	32767	14106	-25932	1456	-2300	949	11567	627	-25920	4564	4808	455	9094	3788	-11788	5856	14788	-323	29898	-8251	-24508	-4280	492	3269	20366	-6929	-22524	3368	2120	11054	859	-281	135	116	1
-12688	-13896	10856	10331	29182	-3711	-18060	-492	-6232	1689	12269	1771	-16632	1068	10224	20870	2137	2796	-10560	5308	15272	785	32767	-9689	-24304	-4092	2396	6805	21767	-6767	-23492	3056	16328	15651	-17330	-1904	174	115	1
-21048	18492	19228	6082	29365	5105	-19404	-8124	-856	4509	18073	2102	-15944	-12556	8160	24410	3144	-5298	-16148	7692	13960	1945	32767	-11661	-26776	-1840	3592	8562	22106	-7331	-16708	-3432	9300	17479	-13568	-744	156	118	1
-29704	-12280	19436	-1401	19497	2859	-25036	2604	-13128	26310	19773	7262	-22616	6668	-4020	12553	11957	-3080	-32144	10948	9396	1368	32767	-16921	-26016	6596	-2104	4268	24814	-7163	-20804	-472	24	12462	-10163	-98	115	113	1
-19600	14160	12424	3425	8073	5075	-16452	-2668	-12296	11616	17944	4797	-18332	6500	-10416	-8483	13720	-1065	-30556	9940	11900	-1008	32767	-23684	-26192	7308	-1664	3611	25196	-7138	-23700	8884	-11944	12118	-15001	3795	102	124	1
-15872	4448	11992	3045	5814	3995	-14856	1020	-9984	12602	14163	237	-11092	-1704	-10080	-13069	14405	-5178	-27532	12324	14816	-436	32767	-25805	-25012	-188	-756	6481	22490	-5762	-24728	3312	-6640	-3228	-20803	5185	145	114	1
-13172	-92	11516	1990	3444	2330	-16648	6392	-9052	-4092	10281	-483	-12792	204	-9320	-10775	10758	-4062	-16932	18232	26884	6814	32767	-24662	-19820	1656	-7984	1726	20612	-3386	-27516	1412	-7420	-6464	-23198	4410	131	114	1
-12516	-1004	11072	1069	3310	1174	-16456	2788	-7172	-24172	7452	-2932	-16460	-1348	-4156	-10185	10022	-2826	-32768	20192	14488	11201	7366	-12329	-14736	-772	-18276	-4355	8330	-2030	-27156	1268	-4668	-6011	-24226	5913	171	124	1
-12484	-364	11000	110	2634	338	-17768	-7496	-5536	-23094	5682	-2476	-18032	-7072	-4432	-9971	12720	80	-16400	13264	20024	6674	-28812	2406	-13456	316	-7584	-458	-1651	369	-24772	-552	-5824	-4913	-23558	7474	192	130	1
-12320	-680	10900	-178	2393	-31	-15064	-10692	-3632	-487	6467	-233	-17512	-7104	-2760	-3075	12587	2822	-9504	12492	19940	6084	-30420	3180	-11788	-2888	-724	10335	-6508	3167	-23772	-68	-6644	-107	-21636	7457	159	149	1
-11996	-1628	10536	192	1968	181	-14224	-7800	-4288	17698	7238	1730	-14560	-5968	-1372	3369	12886	2297	-8044	8408	10320	2062	-31852	4746	-9812	-1940	-8320	10956	-14758	6198	-20736	436	-5956	1288	-20077	7303	73	123	1
-12040	-2528	10128	1619	1263	763	-15700	-1820	-4712	18100	5861	2258	-16948	-2000	-632	4701	13640	1451	-11876	7308	10360	-209	-32768	10435	-13912	8432	-14044	8045	-21245	10211	-16208	-760	-6536	551	-18268	6416	141	107	1
-12360	-1484	10260	2730	72	1290	-15800	2464	-5164	3271	4575	34	-13752	-360	-2392	-2618	13527	2161	-11388	4916	9904	-1286	-32768	15540	-9644	760	-6128	-1428	-31491	2513	-15908	2460	-5448	-6377	-19910	8397	150	136	1
-12340	-384	10612	2102	-689	796	-16412	220	-3644	-8150	3522	-854	-14340	1580	-2252	-6441	22160	242	-11896	2072	8996	878	-32768	16959	-10312	-4592	-5236	1802	-29742	11666	-13484	1204	-7836	-10281	-16140	5708	43	128	1
-12544	-348	10632	1241	-926	450	-15784	-3952	-2948	-10259	2663	-1016	-15764	-60	-440	-6321	17391	-173	-13376	1396	9864	4553	-32768	16238	-11992	-2052	-8768	864	-32768	11982	-12736	376	-7984	-14815	-15462	4792	125	125	1
-12200	-792	10760	701	-692	584	-14324	-6104	-2496	-5734	3621	70	-13788	-1468	968	-2728	16828	-850	-16876	1208	11196	8840	-32768	14076	-12928	-2304	-7960	1861	-32768	12751	-10744	236	-8304	-15999	-12383	3728	119	122	1
-11936	-588	10900	104	484	872	-13992	-6044	-2628	-237	4825	637	-15408	-2844	-616	-396	14454	75	-18380	2440	11696	12640	-32768	12970	-15056	-3436	-9952	1583	-32768	14430	-9100	-916	-7636	-16190	-10248	2028	124	149	1
-11836	-908	10928	510	299	1247	-15820	-2960	-3236	1405	5666	1271	-17476	-5892	-4052	-3956	12365	28	-22388	3988	13064	15128	-32768	15121	-17028	-4916	-11148	1995	-32768	14993	-7404	-2012	-7148	-13815	-7219	1410	89	157	1
-12084	-480	11028	637	984	1246	-16464	-1608	-3732	-1926	5845	933	-18272	-4848	-4388	-5723	9767	672	-29956	6080	13936	15080	-31651	21317	-19452	-6664	-13036	3740	-32768	16510	-6472	-2868	-4932	-8433	-3448	987	83	168	1
-12084	-448	11040	382	1950	1013	-16452	-2100	-3316	-5445	5951	928	-16624	-2680	-2412	-1196	8622	746	-32768	4848	12356	14597	-29815	26615	-23088	-6796	-15520	7424	-32768	18603	-7028	-4032	-2632	-2975	-2109	1041	109	150	1
-12112	-524	10900	402	2696	740	-15700	-3672	-1980	-5215	6812	1365	-16076	-2312	-376	508	9187	932	-32768	-2004	7876	15658	-28814	29678	-22196	-2352	-18296	7782	-32768	18925	-9936	-4364	1360	-2243	-4671	1851	90	120	1
-12384	-604	10932	541	3438	526	-15488	-4932	-1000	-2519	8165	2174	-16676	-2328	2180	-73	9226	566	-32768	-2144	-664	11680	-31364	29069	-21924	-2076	-18704	1511	-32768	16051	-10556	-3940	2104	-2181	-5295	2043	122	111	1
-11896	-1180	11592	-371	4478	719	-15276	-5500	-932	398	10174	2947	-17084	-1956	3900	-558	8420	-217	-32768	-7716	-11768	936	-28781	24361	-19436	-3236	-16272	-2129	-29731	11798	-18328	3500	17320	10377	-6775	4092	111	77	1
-10232	-2708	14736	714	7043	1416	-16220	-3840	-1912	-169	11632	3249	-16828	-632	3460	-218	8106	-913	-32768	-13200	-24888	-6492	-17150	17615	-10564	-4712	-21360	-7169	-18019	7614	-17940	7700	22312	12234	1420	7032	126	84	1
-12136	916	12956	358	10000	1786	-18832	-2048	-2540	-3097	12860	4065	-19536	-720	1572	-936	7830	-1302	-32768	-26500	-31252	-1596	-4621	13458	-6200	-6340	-19160	-5408	-2739	3887	-14572	10316	18604	3634	4912	5089	134	127	1
-12292	1140	12812	166	13734	563	-18116	-2392	-2272	-5041	14520	4963	-18596	-2476	944	-4765	5725	-167	-32768	-25112	-27640	6529	11538	11210	-6244	-3780	-19256	-4690	11686	-1787	-13288	8508	13216	-1109	1402	-1203	124	166	1
-12104	256	13192	370	17926	-133	-18476	-2620	-2492	-4251	15949	5998	-18576	-3156	-260	-7115	3080	313	-15104	31272	5348	-10509	22026	-7721	-16404	2160	-3416	8339	21427	-5118	-10220	7924	3536	-9188	6162	-601	111	188	1
-11216	728	14144	-116	23355	-692	-19720	-908	-2940	-5704	16727	6538	-18828	-2692	600	-6891	194	813	15612	32767	22568	-159	18602	-9259	-32768	6772	32767	13968	8525	-1618	-14944	4208	-2804	-8932	12492	-741	115	174	1
-10744	-356	14796	-321	31394	-2721	-23360	-1124	188	-10027	16916	7290	-21912	-2380	3680	-6406	-1978	1460	-26920	-4080	12092	-7256	19490	-19902	-8500	4120	-3140	-11634	14895	181	-23872	-312	6720	-3665	921	1129	136	157	1
-9696	-1912	15240	68	32767	-4073	-25056	-656	4204	-12225	17376	7952	-23084	-188	11364	-8867	-10039	2642	-16664	8836	11188	-9485	23827	-16106	-21504	-3468	-4092	-17704	14569	-5560	-17032	4416	16252	-19174	300	457	136	119	1
-10532	-2056	13872	-645	32767	-5540	-23716	-1656	6424	-15814	18062	8889	-19560	1216	22936	-20994	-18822	289	-29676	-6980	13420	-4286	20772	-13223	-28560	-5336	-10720	-20193	14757	-4519	-24252	-1404	8044	-11764	10673	1560	138	113	1
-26040	-4704	7224	-1759	32767	-1506	-21720	-7516	40	-13847	20048	10835	-14340	4052	5392	-13082	-5168	615	-23044	360	8360	-7395	5876	-10207	-16880	2736	-11088	-13237	16723	-4309	-22248	-8928	-6600	-4805	15464	-385	176	111	1
-32768	-6892	9920	3192	32767	6638	-22412	-7960	-12000	-5584	23533	9457	-24612	-5648	-10384	-16083	-9641	-5271	-17008	10176	8536	-2281	4812	-3261	-16088	-1380	-7100	-13156	13795	-1215	-11400	1668	-9996	7307	16093	193	130	113	1
-30860	-10332	18108	2798	32767	12167	-32532	-292	-4996	-8732	21776	7511	-29060	-6028	-11224	-6567	-19053	-7110	-16272	7280	9292	-2542	2301	-4396	-16852	-3156	-8820	-3297	12649	138	-9972	5512	-10636	10389	12958	730	119	93	1
-13024	-7348	25304	-1431	32767	14739	-26336	-5900	3324	-10721	14636	7008	-27356	-3204	-5140	7034	-23447	-4117	-13608	3980	10340	-297	-8	-1415	-16104	-3016	-7276	8026	9598	1080	-15068	3088	-5192	241	10301	3779	159	119	1
-32768	-3408	16400	-5278	32767	8652	-15204	-2848	-18704	-246	8061	3518	-26336	-636	-4928	6190	-24045	-4385	-13132	4504	10244	-276	-201	-790	-18116	120	-5728	12091	8472	1496	-17064	4844	-4552	1799	14334	2010	86	112	1
-32768	-7952	25664	-491	-10540	646	-7340	-1196	-24340	13065	8076	3114	-24896	-292	-5552	5205	-24649	-7449	-12536	4604	10184	-92	-26	-690	-17452	2932	-3720	8992	6593	1321	-17400	4752	-2996	2528	13372	-2273	127	113	1
-8456	-4124	20600	102	-32768	-1323	-15648	2304	-2624	-6140	-516	-1276	-24852	-2160	-6812	4494	-22465	-8176	-12556	4460	10180	-64	23	-634	-16032	4492	-1812	383	5788	993	-15832	4036	-92	347	12499	-3197	50	135	1
-2184	-2032	12496	-5001	-32768	360	-16336	2196	-2212	-7908	-2011	-1555	-23124	-1224	-8744	1901	-20265	-7273	-12372	4532	9848	1218	329	-374	-16664	3308	-2768	-5671	4403	-385	-15432	3564	120	-1256	11996	-1982	0	135	1
-6968	-2728	9580	-7639	-32768	485	-6324	-1820	-9000	4309	-15906	-4347	-18892	-400	-8712	1569	-18783	-6049	-12396	4596	9948	1373	340	-432	-16956	96	-2960	-4103	4115	-937	-15480	3196	616	145	13258	-1531	98	131	1
-9640	-4756	9264	-5125	-32768	-260	-4196	1276	-7920	14110	-22388	-7398	-14812	-544	-7852	1345	-17511	-5232	-12412	4912	9684	1532	618	-961	-16364	-328	-2708	4947	4497	384	-16296	1940	1180	2828	13916	-624	158	127	1
-10792	-4532	9952	-556	-32768	-682	-6116	2152	-8276	13104	-27742	-9743	-12440	-1344	-7588	2176	-16211	-4424	-12108	4940	9796	1633	801	-1367	-16536	1236	-1664	8807	5553	702	-15736	580	1168	6176	13361	382	158	126	1
-12080	-1156	9024	-1263	-32768	-2285	-10236	3336	-8280	8965	-32768	-8806	-10724	-2164	-8424	5721	-14516	-3506	-12368	4888	9832	1639	1086	-1695	-16424	2772	-1912	7085	5599	470	-14920	1088	1516	8781	14248	-90	142	123	1
-12908	944	8732	-5700	-32768	-5227	-12096	2776	-7964	6384	-32768	-8839	-9820	-1796	-9208	11877	-12929	-2386	-12696	4692	9792	1171	1220	-1924	-15976	3484	-2104	2853	5611	-543	-15060	2704	1968	10703	15305	-602	137	120	1
-17672	1016	10888	-9930	-32768	-7093	-11008	3004	-11048	3717	-32768	-10722	-8204	-12	-9096	18145	-11649	-1108	-12624	4992	9860	485	1129	-2027	-16204	1728	-2768	-30	5611	-1232	-15336	3732	-748	9843	14846	-873	140	129	1
-23992	640	12376	-13310	-32768	-7158	-14408	1668	-12372	-124	-32768	-13111	-7640	696	-8104	20645	-10196	-294	-12804	4996	9724	112	1156	-2067	-16532	1008	-3408	423	5626	-1156	-15724	4368	-2164	8311	14692	-719	166	126	1
-28976	-860	13084	-15148	-32768	-7722	-17200	520	-12112	-889	-32768	-14782	-7936	1856	-5276	16868	-8403	31	-12968	4688	9724	-42	1285	-2125	-16704	1108	-3468	2365	6047	-1162	-16280	4136	-3624	3971	13738	-380	149	123	1
-32120	-3964	13384	-13334	-32768	-9640	-18744	1796	-12908	-1224	-32768	-16472	-8116	3900	-3204	9309	-5439	67	-13048	4452	9796	-69	1431	-2112	-16548	1532	-2904	2092	6535	-1637	-16116	3796	-3948	1041	11168	-974	116	128	1
-32768	-6788	11588	-8366	-32768	-12769	-20928	1880	-11172	759	-32768	-19406	-8496	5220	-340	1365	-3579	124	-13184	4280	9904	-261	1730	-1777	-16744	1072	-2888	1030	6961	-1960	-16960	4152	-1772	667	10161	-1562	94	131	1
-32768	5468	8748	-6886	-32768	-18822	-20804	-3120	-13132	1813	-32768	-18833	-11656	4056	4864	164	-4759	248	-12944	4676	10008	-231	2291	-1306	-16808	1892	-956	46	8084	-2766	-17852	4888	996	1207	9091	-1108	94	126	1
-32768	3316	-444	-9740	-32768	-21112	-21188	-3700	-12140	7578	-32768	-14500	-14220	1316	9240	-2703	-4745	-181	-13244	4504	10076	-290	3092	-1409	-16540	2828	-304	-837	10097	-3550	-17508	4208	3560	1192	7972	-481	112	127	1
-32768	2172	-12740	1096	-27892	-16068	-14348	-2300	-18992	20538	-24357	-10174	-19740	-4980	20332	3075	-6777	-3865	-13360	4660	10344	-168	3851	-1853	-16692	2460	-1296	-2248	12173	-4313	-16996	3204	4380	1752	7696	362	59	128	1
-32768	12920	-28232	5325	-18021	-10520	-11480	4788	-18120	18745	-11108	-7203	-17700	-10656	24276	1380	3174	-5511	-13204	5760	13764	69	5695	-2400	-17880	996	-1288	-1668	13943	-4924	-17280	1936	3264	5559	7127	464	123	124	1
-32768	22724	-32768	-5873	-862	-7704	-5792	4836	-14664	3207	4310	-1874	-17808	-10768	23700	2431	3427	-4958	-13492	4784	12488	-580	9511	-3904	-19628	384	-2956	-1020	16078	-5731	-19192	2196	760	8679	5673	-30	176	117	1
-29628	9068	-16180	-2010	12884	1198	-5824	1716	-20724	-2439	18467	2480	-14728	-2688	9920	2562	3058	2529	-13664	5112	12920	-696	14022	-5087	-20360	-812	-3276	-506	17384	-6165	-19088	3640	208	10187	3563	-94	189	118	1
-15712	25960	32767	2689	13159	9249	-26636	-3620	11096	-29155	17538	5619	-12232	-2356	-608	930	6876	3602	-13364	5212	13920	-878	19458	-6344	-21924	-1680	-3384	1683	18154	-6278	-18948	3976	124	10504	3227	-131	167	125	1
3688	-1068	1048	13796	31145	19372	-31544	1088	-1304	1714	10441	-792	-21860	4104	-152	-4863	11727	5048	-12168	5672	14844	-488	26755	-7762	-23520	-3888	-260	3690	18852	-6793	-22152	3608	1644	9743	1561	-106	144	117	1
-20984	-13464	11488	9243	26124	-1439	-10840	2596	784	-1338	14829	2201	-20240	4468	6776	16140	1288	2230	-11084	4752	14936	565	32767	-8494	-23544	-4296	2120	6198	20528	-6951	-21132	776	8820	10350	-6096	-2288	159	115	1
-23876	9608	14732	11509	25656	3301	-17156	-3788	-7756	310	17267	1593	-10520	-11424	4588	25427	4758	-3680	-12828	6196	13896	2129	32767	-9287	-24956	-3356	2432	6259	21286	-7571	-22504	-316	20036	18800	-23732	-2055	159	111	1
-25896	2516	14128	-3494	20425	3525	-25732	1392	-10876	18831	17687	5013	-21444	1476	3632	11293	8215	-3448	-27736	8820	10676	1057	32767	-14350	-26144	2400	264	3327	22558	-7971	-17520	-6148	5636	15766	-10340	-575	122	121	1
-25232	4304	11772	3171	11153	6162	-17356	-5044	-15876	6656	17662	5779	-20832	9540	-9988	-1909	13735	1109	-27232	10188	10316	1272	32767	-20745	-25244	5516	-5332	-3349	25240	-7869	-23188	6232	-4716	17876	-9703	2273	91	110	1
-25660	7928	12916	2757	8886	4669	-14140	-516	-9288	12773	13838	2135	-13752	-592	-11928	-12287	14996	-4462	-31612	6188	12960	631	32767	-22513	-26716	-952	-6272	-1817	23440	-7825	-22304	7792	-12724	5114	-15958	6097	168	121	1
-13984	-2172	10944	1170	2930	1348	-16460	4624	-9368	6633	10504	-94	-11380	-1032	-9012	-9901	13436	-4005	-22616	13820	21812	879	32767	-25421	-23192	1404	-692	5799	22709	-5380	-25920	3320	-6608	-6192	-22338	5683	156	106	1
-12700	-864	11256	-43	2809	-198	-16128	3668	-7212	-13244	7346	-1494	-15388	-300	-6312	-10649	11139	-2030	-15628	7300	20084	6114	32767	-27050	-16724	4020	-15244	-3149	16838	-2925	-26764	944	-7600	-7826	-23708	5569	167	121	1
-12280	-1064	11116	-444	2253	-388	-17208	-2416	-5888	-21760	5173	-2805	-17432	-5396	-3236	-8056	12883	-683	-26572	11384	15820	4577	-7661	-9916	-15444	168	-14740	-9995	5305	-3798	-25920	1800	-5800	-6103	-24572	7372	140	122	1
-12152	-1220	11152	-988	1856	-741	-16416	-8128	-3644	-15577	4522	-1763	-17824	-7952	-2912	-4586	13109	2090	-8352	10164	17768	3032	-28692	1286	-13484	-2312	-4868	-1049	-2054	-1726	-24592	1036	-6188	-4790	-22985	8463	159	130	1
-11792	-1772	10812	-882	1698	-733	-13908	-10200	-2176	3468	5568	293	-15384	-7032	-860	1284	12830	2608	-2332	9640	12208	2285	-27504	1459	-11932	-2824	-4268	9789	-8295	1624	-23376	620	-6820	-2782	-21328	8087	107	139	1
-11868	-2148	10632	-438	1646	-365	-14248	-7192	-3412	15592	5557	1647	-14980	-4364	-260	3659	13197	1426	-9528	7424	9612	62	-31348	4106	-5548	-2156	-10048	9947	-16426	3961	-20132	1480	-6400	-2471	-20059	8164	99	87	1
-11684	-2712	10428	252	1644	303	-14644	-6084	-3836	15931	5394	1737	-17116	-1540	1332	-1337	7266	2921	-10828	7480	10456	-2319	-32768	8851	2660	-20420	-12752	19075	-8973	11335	-16456	2684	-5556	-5983	-18376	7870	181	119	1
-11964	-1528	10596	557	1593	692	-16612	468	-3460	-5467	3878	-151	-15036	912	1364	-6454	11962	2347	-11352	5668	9004	-3184	-32768	12699	-9816	-152	-6320	-4668	-32768	-1129	-14988	2008	-6272	-10337	-18672	7562	127	133	1
-11992	-1428	10616	305	1626	521	-16116	-2100	-2588	-13038	3119	-692	-15188	1552	2084	-6788	10536	2397	-11996	2672	8004	-778	-32768	14525	-10100	-2652	-6176	647	-29865	10120	-13368	1124	-7932	-14970	-14919	5062	86	126	1
-12000	-1428	10468	158	1743	642	-15044	-5876	-2568	-10975	2886	-182	-14324	-608	-172	-3952	18635	-2338	-13596	2496	8464	3897	-32768	15208	-10048	-2708	-6844	645	-29971	9862	-11852	140	-8080	-17721	-13650	3667	111	100	1
-11988	-1472	10292	213	1684	786	-14432	-6680	-1876	-4131	3803	1044	-16036	-1156	172	-1924	15507	-1863	-18088	3008	9540	8276	-32768	14871	-12072	-1444	-8668	2410	-32768	10185	-9380	-412	-8056	-19582	-11487	2852	111	145	1
-12120	-1548	10352	572	1804	1089	-15036	-4504	-2336	1435	4955	1635	-18376	-3768	-2188	-3221	10767	-499	-21268	4612	9908	11487	-32768	15730	-14232	-2248	-10800	2224	-32768	12010	-7636	-1684	-7184	-18037	-8274	1666	109	166	1
-12172	-1112	10400	750	1779	1248	-16140	-1932	-3068	548	5350	1698	-17100	-5624	-2824	-7395	10531	14	-23296	6948	10844	11205	-32768	18035	-16916	-3676	-11220	2079	-32768	13446	-6788	-2948	-5740	-12878	-4929	572	122	172	1
-12460	-1268	10440	590	1737	979	-15984	-2628	-3044	-3658	5541	1466	-16540	-4136	-1864	-4733	9416	669	-31232	4876	12088	12013	-32338	21715	-20084	-5544	-13592	3871	-32768	15784	-7224	-4196	-3012	-6304	-1448	325	109	156	1
-12456	-1212	10408	573	1757	773	-15736	-4628	-2112	-3892	6056	2004	-16224	-3252	-1224	-743	8725	649	-32768	824	9968	17418	-30865	27254	-22024	-5320	-16760	7582	-32768	17404	-8220	-5568	-200	-2238	-1390	963	131	136	1
-12400	-1248	10328	821	1473	704	-15300	-5212	-780	-1080	7381	2891	-16860	-3056	980	958	8568	534	-32768	424	5516	20478	-30001	28311	-21244	-2540	-17968	10280	-32768	17477	-10784	-3516	3272	-1318	-4457	1977	106	104	1
-12644	-1108	10524	1206	1275	619	-15460	-4348	-148	1707	8978	3613	-17612	-3356	2776	1021	7500	278	-32768	-1860	-2160	15113	-31879	26515	-20516	-2820	-17804	8618	-32768	16236	-15636	984	9216	6759	-7903	2133	108	102	1
-12536	-652	10968	1490	1419	279	-15728	-3888	-476	2867	10820	4283	-17700	-2204	3900	1213	6812	234	-32768	-6820	-12288	5121	-26903	21949	-18292	-2324	-15820	9388	-26652	13254	-19540	2888	17764	20431	-6614	4316	121	69	1
-12592	-568	11636	1040	2423	-33	-16520	-3872	-1312	2891	12553	4990	-16380	-712	3508	1278	7091	-171	-32768	-13904	-25284	-763	-13545	10879	-10132	-1696	-18364	4098	-14401	9801	-16968	7676	20224	19156	1933	8030	120	96	1
-11840	-1492	12780	-2326	6264	-761	-17236	-3188	-2024	2003	13781	5459	-16636	-168	1484	-1156	7237	17	-32768	-25996	-28480	3333	-2346	5662	-5940	-3052	-18660	-4261	432	4912	-13760	14148	18208	9491	5037	6639	116	108	1
-11308	840	14280	-224	11455	549	-18404	-3620	-2164	-96	14402	5601	-18056	-1348	-804	-3460	6077	167	-32768	-20172	-23236	2495	7870	-47	-7640	-3684	-18748	-8208	11908	-2205	-11784	13336	12960	372	2056	1126	131	168	1
-12196	-968	13436	375	15157	452	-18772	-1904	-3520	-2157	15734	5855	-18844	-3072	-2120	-4315	3206	-100	-16100	-1688	17220	-14339	15476	-22865	-19380	-4260	-2856	3647	18316	-5747	-10216	9268	3068	-11472	6313	440	122	178	1
-12144	-464	14292	1066	20240	340	-19624	-104	-3836	-5964	16285	6101	-18740	-3592	-848	-6943	247	211	9848	28888	16916	-3613	15762	-14082	-32768	1404	22012	7399	6981	-351	-15976	3120	-3280	-10402	12397	-1209	129	193	1
-10536	460	15104	254	27657	-1308	-23056	348	-288	-10141	16484	6666	-21756	-1484	1796	-6934	-2346	1028	-19484	-10144	15724	-4195	21636	-13290	-10576	-1684	2716	-6463	13062	-637	-25248	-2208	9520	-4813	-2801	-2847	135	206	1
-9824	-924	15268	154	32767	-3507	-24376	416	3116	-11581	17042	7865	-22156	872	7392	-6164	-9430	3129	-23540	4572	12756	-6474	22544	-13883	-21176	-4392	-5548	-12438	14908	-6973	-16584	2280	19708	-19710	-2917	-2595	151	125	1
-9920	-1824	14688	-199	32767	-5604	-23896	-664	5224	-12505	17948	8462	-20336	3500	17820	-4436	-17235	2769	-30172	4648	9808	-3097	19980	-10193	-26732	468	-10716	-14383	14652	-4953	-21356	-3768	6016	-12880	12480	-1709	133	126	1
-18224	-4812	11908	-2519	32767	-3643	-23532	-5284	2496	-12829	18732	9414	-16824	4856	11232	-12082	-14533	2549	-26904	-10224	16620	-8718	3647	-10921	-16004	4608	-9480	-18897	14486	-3538	-21736	-2328	-10416	-369	19099	1124	157	112	1
-32768	-6936	5308	-913	32767	3690	-21384	-7696	-11932	-7932	22362	10193	-20888	-1724	-1844	-16836	-9352	-1442	-16036	7660	9392	-2889	2261	-5117	-16000	-1088	-7116	-23432	11842	-3392	-10484	2184	-8316	5349	15122	3187	108	106	1
-30468	-9616	15176	-340	32767	9510	-28840	152	-6848	-10229	22169	7334	-26220	-7764	-13320	-19536	-11755	-5152	-14860	5676	9452	-1152	1275	-2787	-15556	-8072	-8892	-2812	10670	-398	-11120	2392	-8072	9484	11170	1205	149	77	1
-20512	-6924	20096	-4438	32767	12545	-27444	-5192	-824	-14252	16029	7432	-28372	-3528	-6052	-2277	-22146	-4476	-14056	3088	10608	-136	190	-1241	-17104	-4504	-6712	14633	10185	1508	-15976	1340	-3384	1790	11161	3682	174	128	1
-13408	-6676	23692	-10001	32767	14769	-18160	-5100	-8444	-7023	9311	3972	-25812	-4020	-4988	6961	-22893	-3668	-12708	4020	10352	541	-33	-82	-19348	292	-5276	19298	8571	2249	-18000	4836	-4096	5462	14844	905	141	116	1
-32768	-11024	20636	-1630	3215	2785	-9000	-3480	-26148	13018	7045	4585	-24248	-3148	-3548	5743	-24854	-6361	-12452	4444	10116	865	364	-42	-16512	5288	-2456	12301	7212	1723	-18252	5428	-3720	5924	14106	-227	139	110	1
-14460	-6748	21688	3825	-31085	-1062	-13068	-280	-7168	1523	2566	1437	-23640	-3236	-5304	6292	-22607	-7314	-12568	4172	10384	1112	579	175	-14812	7620	-1352	-4957	6007	168	-15020	4760	368	-1343	11250	-3206	77	137	1
-9388	-5632	20336	3374	-32768	-892	-13660	12	-2816	-5615	-6235	1189	-23232	-3092	-7220	3533	-19987	-6486	-12300	5148	9736	1161	923	-115	-15156	7316	-1748	-7267	5578	-130	-15128	4380	152	-3721	10545	-1960	0	145	1
-6608	-2936	9728	-4424	-32768	1521	-8792	-3884	-9472	4624	-13439	-1482	-20128	-1616	-7364	1835	-18342	-5889	-12348	5368	9804	1476	912	-622	-17576	-2388	-3744	-8558	3954	-1225	-15592	4076	724	-2151	11810	-1301	135	137	1
-10412	-6684	8824	-2909	-32768	1523	-4236	-1180	-8808	16024	-19809	-3622	-15500	-1728	-6600	2313	-17432	-5364	-12316	4724	9864	1669	941	-828	-15756	-2484	-3556	7711	4997	690	-16228	1444	776	778	12076	-344	135	127	1
-10452	-7276	8964	2987	-32768	2695	-6068	588	-8104	15988	-24912	-6495	-13340	-1956	-6400	3884	-16533	-4749	-12412	4692	9952	2306	1097	-1060	-17060	1288	-2232	14865	6233	1420	-15968	-272	1380	5700	12344	243	126	126	1
-10756	-4820	7808	3181	-32768	2555	-10672	3720	-8684	9975	-29355	-5224	-12032	-2948	-7660	8467	-15291	-4167	-12536	4596	9900	2302	1348	-1412	-16356	5208	-1288	9047	6267	593	-15000	1312	1552	9189	13306	-238	132	129	1
-11848	-812	7408	-2421	-32768	-1477	-11596	2104	-8968	5230	-32768	-5976	-11328	-3008	-8872	14677	-14090	-3476	-12584	5004	9724	1490	1484	-1727	-15596	4036	-2204	-534	5510	-854	-14800	3368	1640	11684	15285	-576	131	121	1
-14692	-2192	8956	-7445	-32768	-5476	-11356	1880	-9268	4991	-32768	-6087	-9324	-1444	-8156	17790	-12695	-2034	-12748	4904	9756	434	1297	-1858	-16036	1072	-3276	-3022	5760	-1579	-15216	4476	-12	10477	15135	-105	148	127	1
-20192	-4016	10416	-9264	-32768	-6833	-12032	200	-11948	-1682	-32768	-10586	-8148	-364	-6900	18354	-10940	-858	-12948	5008	9748	98	1414	-1864	-16392	436	-4048	-520	5662	-1185	-15328	4248	-1616	7124	14457	-110	159	117	1
-23844	-4716	11176	-9241	-32768	-6716	-14764	-1664	-11424	-1446	-32768	-13115	-7768	1676	-5012	14462	-7840	-458	-12952	4712	9712	103	1530	-1797	-16600	1012	-3988	3524	6225	-838	-15644	4120	-3120	5699	14238	-330	145	123	1
-28776	-4568	11768	-10292	-32768	-7849	-16616	-68	-11888	-182	-32768	-15476	-7788	1808	-4744	13586	-7366	-431	-13072	4568	9956	94	1636	-2050	-16600	2048	-3604	3069	6699	-1200	-16148	3684	-4284	3220	12337	-967	129	130	1
-29668	-4640	11624	-10700	-32768	-8306	-18416	1280	-13184	679	-32768	-18423	-7844	6528	-1208	2644	-1304	-272	-13236	4496	9784	-102	1848	-1828	-16776	1508	-3292	297	6609	-1707	-16840	4040	-2200	81	11615	-1227	110	132	1
-32768	-3628	7240	-9605	-32768	-16134	-18648	1176	-16492	8878	-32768	-20516	-8896	5228	3228	1047	-1784	-492	-13256	4048	10056	-409	2447	-1146	-16628	1100	-2220	-1150	7281	-2347	-17272	4432	-232	-96	10378	-756	136	130	1
-32768	5676	1164	-16785	-31066	-24259	-18868	-2624	-14476	5567	-32768	-17597	-12860	1524	7172	777	-4409	-1253	-13164	4176	10052	-572	3001	-977	-16272	1520	-800	-877	8895	-2690	-17516	3424	2460	-432	8838	-420	112	126	1
-32768	148	-8264	-11549	-26621	-21321	-17656	-940	-15832	9461	-26225	-13447	-16448	-2804	12304	-1478	-5737	-2810	-13220	4728	10340	-542	3597	-1294	-16384	3260	-1072	-612	11482	-3382	-17152	2860	4576	812	8069	592	66	127	1
-32768	7880	-17728	2741	-20326	-15829	-12404	988	-19040	12105	-16137	-9340	-17264	-6492	21320	-3499	-2353	-5729	-12908	5796	14212	-468	5334	-2607	-18388	2148	-1128	-537	13071	-3947	-17616	1520	3748	5912	7448	1086	89	122	1
-32768	13960	-27440	3795	-10701	-9465	-8868	5544	-15976	2963	-4756	-5559	-14148	-10344	18360	950	4527	-4758	-13416	5200	12200	-496	9005	-4485	-19600	-564	-3192	334	14733	-4436	-19408	1328	648	10751	6351	639	140	122	1
-32768	18992	-26664	-3215	2462	-3835	-5248	1316	-15316	400	9960	-1086	-14960	-7240	12944	37	5694	-1084	-13764	4520	12372	-789	12994	-5278	-19440	-1052	-3384	2358	16060	-4516	-18608	2040	-452	13287	3885	331	162	120	1
9456	2940	-9928	13359	28349	16426	-15292	432	-8192	-278	18611	3428	-13516	-6456	7752	2503	6079	3244	-13808	5184	12988	-1017	17498	-6461	-20104	-608	-3844	2853	17172	-4851	-17784	3292	-804	13174	2665	515	153	123	1
12352	-29012	26200	16988	27736	6969	-32768	-4596	23448	-539	6675	1087	-18176	-1392	-112	5401	11264	4288	-11992	4772	14404	-619	23542	-6915	-22572	-1004	-2556	3180	17779	-5851	-21120	5008	-680	11095	2260	505	189	124	1
-32768	8336	12660	14011	27803	8789	-9936	-9228	-8548	8913	13089	3948	-32768	-1756	15584	11900	-394	678	-11128	4424	13876	557	30308	-8210	-23192	-4200	-716	4159	18269	-6103	-20800	4752	3360	10995	-1347	-754	148	119	1
-22552	4604	13780	13649	26956	12603	-19548	-1500	-6320	13358	19237	1915	-12268	-6060	14268	32767	4713	-772	-11400	4980	13976	1480	32767	-8965	-24248	-2896	756	5829	19523	-6758	-22676	5028	12900	12782	-13256	-2243	160	116	1
-26884	9044	13224	419	22379	7087	-24780	1348	-11084	22014	18583	5673	-14384	-2040	-1532	18927	10964	-4183	-18184	10736	13376	1743	32767	-12154	-28344	488	7280	6468	20423	-7584	-21740	1928	12796	16451	-18647	-615	112	120	1
-19124	-6068	9304	6663	10655	8473	-16152	-1008	-14228	8778	18749	5045	-20416	13816	-9796	7764	14815	1141	-32332	11548	9096	2959	32767	-17497	-26676	6236	-2732	2091	25285	-6875	-20224	-2508	3924	5439	-14955	192	90	102	1
-16876	-2952	10660	2802	5344	4150	-12860	744	-8564	10511	15109	2420	-15748	2208	-10704	-8573	14057	-3623	-31588	11708	10188	2486	32767	-21605	-27572	3416	-5856	-3608	25384	-7892	-23216	5276	-6708	5219	-16374	2894	142	113	1
-14900	80	10760	1719	3149	2310	-17832	2772	-9956	13494	12325	449	-11532	1948	-8368	-8852	11404	-5729	-28200	12828	13636	2503	32767	-24491	-25240	-664	-4704	1210	22987	-5114	-23308	2264	-9224	3342	-18840	4519	111	114	1
-14612	-172	11080	1557	2828	2152	-18320	6748	-7824	-5339	8985	-893	-15080	2988	-5916	-12226	11011	-3780	-13276	20092	25180	4789	32767	-27443	-20744	2052	-3320	5082	21649	-2086	-24580	744	-8288	1904	-19758	4661	158	117	1
-12264	-988	10868	-34	2150	-122	-16340	-8	-5732	-19074	6329	-2981	-17200	-4836	-4892	-10278	13356	-2252	-32768	13056	15220	9520	13607	-15690	-13424	-1748	-24952	-7938	10999	-978	-26792	840	-4432	-2598	-25492	5807	191	122	1
-12200	-1168	10816	-210	1828	-63	-16064	-5408	-5308	-17014	4821	-3124	-17728	-7424	-4236	-6086	13674	554	-17060	8608	19432	8118	-25429	2939	-14996	-4052	-7012	2056	969	393	-25388	2100	-5212	-1254	-25259	7273	218	132	1
-12180	-700	10804	-306	1518	24	-16088	-5828	-5268	-15300	4655	-2838	-15168	-4952	-3296	-1263	15229	2705	-168	10232	15076	7102	-25919	4257	-11812	-2824	-2144	14892	-3972	2213	-23752	1720	-6124	1444	-23382	7645	127	145	1
-12036	-1180	10528	188	920	191	-15344	-6144	-4144	9342	4191	-350	-14776	-2916	-3240	781	17644	2891	-8004	6744	10460	3215	-28071	2633	-8560	-904	-8116	14783	-12299	5458	-21508	1968	-5092	2375	-21646	6934	71	104	1
-11952	-1260	10708	965	529	407	-16688	-2500	-4488	11026	2777	-337	-17148	-196	-5556	-3215	19721	3636	-11052	3088	10936	2456	-32768	7689	-6868	-2288	-6312	9381	-19325	7098	-17040	1248	-6296	-768	-19420	5759	172	111	1
-12104	28	10700	911	449	2	-16728	784	-4292	873	1455	-1760	-12508	-1608	-1224	-4095	19322	4157	-8756	2656	9628	5466	-32768	10838	-7972	1336	-6632	1805	-29855	30	-15476	1156	-5808	-6624	-21837	7360	86	123	1
-12016	-68	10888	244	716	-416	-16964	-1036	-2772	-8843	567	-1829	-11980	248	-4864	-3474	26372	1458	-10576	1936	7708	9604	-32768	11705	-8232	-4172	-4908	5578	-27779	12390	-13204	-908	-7464	-8834	-17316	3881	136	130	1
-11956	-840	10504	-351	1349	-505	-14928	-4772	324	-13391	573	-1621	-16728	-1160	-240	2441	21004	-1155	-12204	2888	7852	13202	-32768	13150	-9224	-2728	-7120	6150	-31727	13273	-12784	4	-7488	-11724	-15469	2898	112	118	1
-11904	-1596	10228	-269	1227	18	-13312	-9064	2496	-9092	3195	-132	-20668	-6180	3508	5737	10619	-3330	-14556	4512	9660	13655	-32768	13903	-10444	-2616	-8660	7905	-32768	14842	-10416	-168	-7380	-12232	-12303	2169	57	141	1
-11832	-1660	10524	556	894	1020	-13180	-9488	3444	963	6446	1738	-20900	-7668	3644	897	4968	-1007	-18420	4236	10316	13996	-32768	15258	-13036	-3700	-8832	9097	-32768	17338	-9528	-564	-7256	-11084	-9675	1044	97	146	1
-12060	-1080	10584	1305	793	1668	-15188	-4912	-336	4593	8895	2314	-17756	-5420	3988	-2302	5949	-670	-18720	5340	11916	13468	-32768	18054	-15740	-2748	-9936	5324	-32768	19175	-8388	-1044	-7744	-9450	-6518	988	128	153	1
-12148	-1144	10600	1321	918	2015	-16272	-3096	-2512	790	9138	2629	-14292	-2068	1108	-4783	8694	-496	-22816	4840	15164	12137	-30896	19548	-19300	-3540	-9804	3067	-32768	20972	-7992	-1568	-6628	-6301	-2690	1004	120	159	1
-12252	-728	10556	1194	1330	2089	-15884	-3364	-3500	-2446	8875	2603	-13480	236	-1784	-5804	10454	190	-32768	1556	15252	16094	-27509	24785	-19700	-3904	-10544	1960	-32768	21103	-8172	-2760	-5156	-855	324	1610	138	153	1
-12364	-364	10700	1032	1465	1887	-15704	-3604	-2840	-3540	9084	2894	-14620	348	-2392	-3739	10308	131	-32768	-1828	11948	17386	-26541	28243	-24308	-6404	-16128	-1516	-32768	19765	-8204	-3636	-656	565	-1393	2704	120	125	1
-12460	-192	10752	1127	1643	1694	-15632	-3704	-1188	-2270	9907	3478	-17424	-1740	-1192	-2960	8528	-517	-32768	-6256	3972	15287	-24901	27106	-22448	-5516	-19704	1847	-32768	16785	-12832	656	5416	-602	-6921	3457	127	101	1
-12496	64	11388	1797	2254	1400	-15884	-3984	-1092	345	11443	4087	-18144	-3532	168	-1827	6718	-434	-32768	-5536	-7012	2143	-28837	24631	-18924	-5004	-19424	475	-32768	12843	-15500	4888	16064	5912	-9530	4358	122	86	1
-12268	-372	11740	1660	3839	1024	-16220	-3976	-2856	1458	13062	4663	-16692	-4264	636	-1796	6322	-208	-32768	-11352	-20800	-11993	-23929	21093	-13260	-1792	-16972	-5659	-21429	7954	-16496	7140	22124	10987	2192	5472	110	102	1
-8284	-2964	17416	1608	7199	1474	-17200	-4524	-2544	-1276	13661	4671	-16060	-3212	-284	-3483	6228	-241	-32300	-24312	-30644	-10588	-7783	15383	-11960	-2260	-16792	-7181	-19289	7214	-15524	10404	22184	4007	8046	4012	113	121	1
-12168	1888	13220	592	11354	1960	-18780	-900	-3892	-4207	14614	5264	-19108	-1440	-1640	-3074	4757	-308	-32352	-32768	-29256	5877	10985	17256	-6348	-6488	-19152	-13734	8534	-1887	-13984	9304	17096	-5629	1152	-1069	127	176	1
-12728	892	13144	788	15265	768	-17788	-1588	-3392	-6125	15881	6163	-17384	-592	-656	-4212	2691	419	400	32767	-17752	-832	32767	2265	-13400	-456	-6700	380	19400	-4993	-11936	6940	8700	-12286	2900	-1990	122	206	1
-12284	500	13572	1546	19653	608	-18956	-1816	-4264	-4252	16404	6388	-17632	-128	120	-5919	2165	685	12440	32124	32380	325	18784	1734	-32768	8000	32767	20213	12542	-4848	-16936	4412	-40	-12218	9345	-472	114	186	1
-11008	864	14748	1302	26085	-465	-21780	-1256	-2284	-6902	16460	7132	-21040	-1444	1480	-4945	775	1361	-22196	-9716	12160	-6808	18096	-23473	-11096	7244	-2252	-8792	16151	-1348	-28400	-2280	12224	-3819	-3345	-13	99	130	1
-10804	-1068	15020	1234	32767	-1751	-22396	-908	-1424	-7334	16493	7246	-23012	-2464	5756	-5916	-5410	2688	-12548	12800	6392	-7782	20475	-15209	-17256	-5988	-1788	-14218	15335	-4759	-10484	1500	12328	-13462	3905	1270	118	109	1
-8408	-2132	14876	1574	32767	-2538	-24112	-1716	4568	-12239	17688	8594	-21112	-1444	15340	-12590	-13889	1476	-31128	-10964	12444	-3518	21022	-13735	-27768	-1676	-9168	-13193	16104	-3706	-20604	-1404	6812	-8359	10877	1276	156	116	1
-13096	-4916	12588	104	32767	-902	-23736	-5120	4524	-14683	18139	9875	-20908	-1544	19748	-16852	-15726	835	-32768	17748	-456	-5909	8434	-7572	-26912	-4084	-9640	-13923	15475	-4597	-23092	-6276	-5396	518	13773	891	173	119	1
-32768	-3080	5836	2541	32767	8176	-20564	-7212	-10912	-6280	20936	10400	-19768	3576	2164	-11714	-8945	-1985	-15636	7316	9012	-2096	5475	-3172	-16060	-1812	-6376	-14283	13451	-1418	-14044	1652	-10432	8944	15955	1096	189	109	1
-32768	-9916	11140	7970	32767	14921	-24152	-2144	-10064	-8633	22946	6659	-24248	-7468	-13392	-19478	-11313	-7072	-14816	4024	10212	-649	1677	-1877	-17104	-4268	-7924	-6063	12270	-253	-11344	5684	-6528	7953	13771	804	121	101	1
-23516	-7096	19780	4308	32767	16866	-29220	-3276	-3876	-12375	18764	5899	-28220	-3120	-9108	-3022	-19929	-6704	-13416	3328	10468	-42	-94	-1207	-15932	-3056	-5996	6270	10240	536	-14928	4208	-4276	1842	10949	1706	138	125	1
-532	-9780	22116	-1419	32767	17832	-22076	-4644	3108	-8823	10454	4649	-26560	-2180	-6768	3855	-22360	-5604	-12752	5084	9956	168	-199	-975	-17132	1072	-4484	9459	9816	745	-16512	5036	-3324	-946	12637	748	144	113	1
-6704	-4640	18176	-2467	32767	17133	-9900	-2468	-27732	10170	6679	3222	-24424	-56	-5632	3645	-23779	-7078	-12572	5108	9932	-7	-184	-1287	-17564	3116	-3552	7490	7930	1025	-16856	5292	-2036	-663	11343	-1594	113	107	1
-25272	-5692	21772	-1004	-18024	1654	-8476	2100	-13280	1943	6541	97	-23896	-1164	-4552	5374	-24005	-8251	-12676	4216	10292	444	378	-1120	-16120	3324	-2508	-250	6792	167	-16016	3804	212	-2111	10152	-2289	117	128	1
-8112	-3736	15152	-3199	-32538	-800	-15100	2528	-3776	-7150	-2337	-3130	-23572	-1864	-6548	2978	-20974	-7584	-12816	4020	10096	1468	413	-761	-16960	1796	-3308	-4508	5821	-838	-15592	2400	264	-3422	9244	-1717	0	143	1
-3208	-2828	10384	-5235	-32768	-2232	-9220	-356	-7392	-7004	-9092	-2889	-20808	-676	-8592	2556	-19290	-6774	-12664	5028	9780	1785	548	-733	-17120	352	-3364	-3636	5522	-875	-15948	2784	308	-1086	9882	-1525	67	127	1
-5964	-2660	8624	-5664	-32768	-4485	-5268	-1348	-6312	3750	-15611	-5914	-17012	-536	-8340	2633	-17950	-5910	-12524	4884	9800	1461	734	-1052	-16020	-1196	-3612	3144	5580	357	-16100	1480	780	1449	10720	-1121	132	119	1
-8040	-2824	9460	-2985	-32768	-6455	-4880	836	-7380	18169	-21509	-8811	-14256	-892	-7312	3017	-16630	-5214	-12652	4864	9700	1320	989	-1286	-16168	1060	-2940	6360	6040	266	-16048	448	964	4282	11354	81	161	123	1
-10052	-1788	10540	-1020	-32768	-7505	-6816	2644	-9536	15830	-27090	-10432	-12304	-1860	-7764	3736	-15596	-4082	-12672	4796	9892	1246	1076	-1582	-15564	3628	-2980	5420	6006	-334	-15380	936	1056	8308	12734	415	145	125	1
-12548	364	9412	-2490	-32768	-8041	-11216	2648	-7844	10967	-32199	-9277	-10864	-2788	-8328	7253	-13634	-3110	-12604	4824	9776	695	1118	-1796	-16204	2184	-2684	2145	6006	-426	-14824	2632	688	11392	13672	-656	151	121	1
-14684	2168	9756	-6627	-32768	-8246	-10900	2416	-8732	10765	-32768	-9199	-9388	-1760	-8532	14190	-11829	-1681	-12804	4836	9588	33	1306	-1660	-16064	1584	-3408	-412	5845	-996	-14932	4020	-160	12687	13740	-1122	145	125	1
-19220	3592	11704	-11867	-32768	-7919	-11564	2892	-11124	6862	-32768	-10736	-8244	872	-8576	19851	-10070	-481	-12892	4476	9500	-292	1263	-1574	-16308	528	-4116	234	5963	-1150	-15740	4604	-1768	10276	13632	-840	156	125	1
-24912	3400	12936	-17348	-32768	-7240	-15324	2536	-11804	757	-32768	-12845	-8108	1540	-7452	20776	-8253	-85	-12884	5060	9740	-334	1090	-1655	-16384	396	-4476	2294	6163	-965	-15704	4012	-2240	6069	13491	-720	150	121	1
-25652	3132	13016	-18112	-32768	-7195	-18156	1632	-12392	-2099	-32768	-14729	-8664	2388	-4764	15948	-5744	-223	-13292	4108	9960	-330	1204	-1682	-16524	504	-4616	2650	6219	-1005	-15312	2820	-2524	2438	12781	-1076	113	126	1
-32768	-3336	13228	-18217	-32768	-9402	-20084	2656	-11816	-5116	-32768	-17774	-9008	4692	-2372	6502	-3392	-429	-13200	3948	9860	-188	1498	-1195	-16492	240	-4580	1593	6111	-1319	-15428	2688	-2440	1656	12881	-1976	112	129	1
-32768	756	11828	-12629	-32768	-13829	-20864	2700	-15920	-331	-32768	-20483	-10004	5148	1924	-1038	-4180	-364	-13244	4124	9908	-317	2044	-861	-16648	912	-3436	488	6393	-1633	-16580	3260	-1840	1999	13086	-2128	85	131	1
-32768	6764	6920	-14355	-32768	-19664	-20416	-4008	-14040	-506	-32768	-18468	-14016	4352	6404	-3918	-6102	-281	-13044	4504	9780	-296	2591	-1139	-16600	1736	-1816	-472	7611	-2197	-17632	3844	80	-15	11119	-1292	95	126	1
-32768	3060	-3988	-8685	-32768	-17707	-19348	-4672	-12720	10873	-30192	-13518	-16236	-80	12324	-7469	-6401	-1440	-13076	4952	10080	1133	3600	-1367	-16376	2764	-1656	-834	9460	-2685	-17228	4020	3504	-1577	9687	-248	124	125	1
-32768	7636	-17328	6470	-24934	-13650	-13164	732	-18740	22792	-19626	-8777	-17144	-7008	22064	-3015	-2224	-5015	-11864	5636	12844	-589	5688	-2970	-18092	1228	-580	-76	11035	-3382	-18244	3296	4624	1951	9230	241	67	125	1
-32768	20740	-28508	5217	-12562	-11038	-10936	7244	-18132	14345	-6821	-4673	-16072	-14524	21172	2414	3967	-4983	-13484	4560	11816	-200	8286	-4139	-18588	336	-2140	104	13522	-4164	-18992	2424	4016	6272	7652	25	140	119	1
-32768	21336	-27968	-5355	2982	-6275	-5344	2932	-15612	4877	8972	684	-14832	-9172	14540	6786	3898	707	-13728	4680	12132	-364	11782	-4619	-19020	864	-2736	141	15419	-4965	-18636	3188	2728	8789	5474	-540	178	119	1
-32768	20024	-26868	-5051	5199	-4868	-11936	1552	-12316	804	18656	4152	-13888	-3632	8120	6300	4119	3960	-13788	5228	12968	-670	15969	-6135	-20412	-576	-2900	557	16546	-5513	-19024	4552	1056	11063	3516	-473	172	125	1
10288	-26724	32767	4586	15044	10601	-32768	-1776	32767	-22540	6699	3358	-15912	692	-2352	3443	9703	4991	-12456	5104	14404	-779	22118	-7374	-23032	-1580	-2492	3170	17710	-6114	-21396	4716	1104	11845	2631	-374	154	129	1
-30248	7488	5048	8676	27058	11128	-13600	-2896	-9832	-4016	11025	1109	-28484	6884	10988	6917	1620	5691	-11724	5120	13972	493	28974	-9038	-23736	-5612	-588	4853	18463	-6146	-23500	4072	6388	12611	-7567	-1383	143	121	1
-12044	-10272	10204	10701	25597	1684	-14272	-1700	-3564	-6966	15851	967	-9848	-1372	8308	19074	4362	4023	-11988	4084	14376	1777	32767	-9673	-24492	-3452	1404	8267	19944	-6704	-21676	2064	16096	17731	-19193	-1576	152	109	1
-21964	18168	15608	3143	25953	1247	-19984	-5956	-1432	680	14719	2343	-16776	-7148	4880	12070	5873	-3928	-17388	6792	12184	1894	32767	-11255	-24660	-1392	3380	6769	20489	-7839	-16568	-7132	11364	9217	-9979	-1898	133	117	1
-16828	-3312	11220	-2589	19559	1243	-22144	828	-6880	13776	16010	6588	-21336	7320	-5352	5756	12539	-858	-31784	11012	8796	2114	32767	-15470	-25420	5188	-1916	2246	23688	-8014	-21392	48	92	12780	-12049	22	127	121	1
-22100	2824	11820	3320	8635	4859	-15372	-8436	-14012	5587	15635	4344	-18708	4272	-6296	-5860	11357	-1398	-25320	6564	10324	2535	32767	-20864	-25984	2900	-7644	-6410	23415	-8035	-22752	7312	-5152	11368	-15831	2362	104	124	1
-14904	-320	11184	2415	5311	3024	-14788	-7176	-12100	6644	15164	3297	-13812	-3936	-10092	-12458	14071	-6386	-31248	12508	9924	1959	32767	-23570	-24960	-32	-4004	1883	22016	-6992	-22740	8824	-9476	1535	-18027	5557	165	112	1
-13912	-52	11412	1317	3247	1353	-17568	5756	-7964	3941	9326	266	-14344	-1112	-7168	-9603	12964	-3466	-24020	17084	21244	3451	32767	-25319	-21936	3848	-6000	3397	21537	-4652	-27276	6156	-8208	-6709	-22390	5651	137	105	1
-12812	-644	11272	118	2512	-77	-16412	3004	-6268	-17165	6557	-1671	-16648	-2160	-3684	-8169	10161	-1298	-32768	18220	10780	7188	25242	-15305	-15028	1440	-19908	-3666	10725	-4832	-27364	4444	-5284	-10584	-24544	6098	186	123	1
-12348	-1280	10840	-431	1960	-433	-16832	-5168	-4944	-21553	4795	-2123	-17264	-6680	-2504	-6089	10589	625	-21860	14696	19036	1615	-23152	2515	-14548	424	-11012	-6200	243	-4543	-26112	2260	-6080	-11333	-24882	7615	145	118	1
-12068	-1264	10940	-485	1609	-472	-15416	-8584	-2820	-11485	5072	-960	-16340	-6944	-1404	-1762	10310	2518	-504	11740	15068	-887	-26557	4261	-11716	-1016	-468	5245	-4817	-2594	-24436	-264	-6816	-7186	-22291	7426	126	152	1
-12120	-1412	10824	-513	1554	-478	-13696	-9296	-2036	6013	6125	1276	-15376	-4864	272	2998	9793	2099	-6100	8104	10040	-2377	-27200	3547	-9876	-856	-8120	5676	-12008	1527	-21796	-80	-6060	-3736	-20062	7230	77	124	1
-11852	-1928	10500	-243	1495	-345	-14908	-5904	-3708	15098	5951	2212	-16636	-1972	740	3519	8431	1941	-10612	8032	9612	-2852	-32768	8508	-12004	7716	-15708	4227	-19161	5702	-17776	1028	-5692	-3611	-18840	7380	172	77	1
-12040	-1700	10540	29	1497	-21	-15944	792	-3944	6277	4998	1467	-12660	184	-560	-3344	8417	3260	-10296	8236	8984	-3780	-32768	12041	-7524	1924	-7592	-1555	-28579	592	-16108	2420	-4900	-7785	-19449	8263	181	130	1
-11992	-1412	10484	-82	1481	93	-16272	840	-3620	-6771	4526	322	-13860	824	1616	-6231	8025	1232	-11272	5964	7304	-3838	-32768	12344	-11120	-1340	-6448	-3150	-32768	2809	-13848	888	-6768	-11167	-16246	6198	90	134	1
-11920	-1464	10572	-299	1537	37	-16052	-3040	-3684	-13206	3843	-686	-18440	616	1836	-8897	11800	-1264	-12592	3596	7268	-635	-32768	13469	-9676	-2744	-6944	303	-31822	9005	-12344	280	-7712	-14329	-12783	3965	92	119	1
-11536	-1520	10556	-379	1801	245	-15076	-5308	-2744	-12026	3571	34	-16452	-296	80	-9278	12501	-1437	-14744	4108	8868	3353	-32768	14490	-11276	-1948	-8932	2163	-32768	8609	-10676	144	-7592	-16925	-11901	3401	113	133	1
-11956	-1572	10228	-353	1930	548	-14504	-6424	-2852	-4835	4237	1170	-15208	-3104	-368	-8515	13470	-887	-19364	5164	9260	6855	-32768	15564	-12988	-2516	-9084	4892	-32768	10687	-8732	-696	-7404	-18258	-8477	2668	124	151	1
-12036	-1724	10248	-93	1950	1008	-14684	-4392	-3132	445	4960	1637	-15444	-3120	-440	-8447	12476	-494	-20976	7360	10260	7436	-32768	17791	-15736	-2464	-10672	5017	-32768	12677	-7588	-1788	-6924	-16598	-5597	1723	119	166	1
-12260	-1728	10076	248	2082	1299	-15760	-2368	-3540	-80	5117	1643	-15416	-4144	-528	-7845	12189	1392	-25008	8176	12296	6356	-32768	20168	-18560	-3272	-10872	3876	-32768	14919	-6908	-2604	-5352	-11523	-1605	919	124	177	1
-12252	-1548	10284	464	2180	1323	-15828	-2380	-3328	-2956	5337	1448	-15496	-2260	-468	-3801	11683	1175	-32768	5248	12316	9798	-30464	24615	-22976	-4904	-14072	2954	-32768	16422	-7640	-3812	-1984	-5369	727	1018	115	152	1
-12380	-1288	10232	529	2066	1249	-15324	-4424	-2728	-2788	6073	2021	-16024	-2292	616	-663	11298	1243	-32768	3320	8492	13819	-28299	24238	-23720	-3480	-15480	3704	-32768	17071	-8872	-6432	972	-3607	-242	1716	105	122	1
-12788	-1472	10204	913	2010	1309	-15248	-5060	-1428	32	7224	2741	-17372	-3776	1164	34	10650	560	-32768	644	1548	14483	-27352	23008	-21420	-3972	-17868	3073	-32768	16480	-13488	-3988	6780	-3601	-4744	1962	108	98	1
-12532	-1540	10452	1362	1837	1494	-15652	-4588	-364	1737	8681	3397	-17612	-4348	2380	835	9272	-76	-32768	-4344	-5884	8023	-29695	21388	-19648	-4404	-18332	5073	-32633	14548	-19312	1188	16864	6666	-12197	1673	121	99	1
-12660	-1820	10952	2036	1732	1456	-15892	-5084	-344	3239	10376	4070	-17192	-4196	3624	2602	8308	-723	-32768	-10160	-15828	13	-24435	14870	-15056	-2620	-17112	6114	-22156	11101	-20708	4936	20596	17123	-3757	4873	120	85	1
-12968	-1008	11232	2939	1375	1418	-16220	-4228	-2772	3721	11857	4544	-16544	-2528	2876	1332	8643	-1100	-32768	-19784	-26356	384	-12861	5419	-9352	-3100	-15756	3902	-9510	7544	-14312	7604	17712	11791	1785	5984	119	93	1
-12240	-560	12704	-48	2650	956	-16292	-3420	-4272	1448	13103	4998	-16492	-1548	160	-708	7938	71	-31128	-26320	-27092	7414	1000	1389	-6584	-2932	-16228	-1816	5019	2092	-14884	10472	16036	7841	2302	2101	113	150	1
-9192	-5292	16736	2950	8974	2101	-18056	-2576	-3992	-2441	13460	4842	-17848	-1896	-2284	-2599	6064	699	-24288	5336	-1132	-7671	11227	-5392	-9028	-1368	-17304	-4032	16386	-3807	-11536	9328	11204	-1149	147	696	118	177	1
-12256	1312	13832	1413	13295	2602	-19832	-848	-5012	-5496	14250	5148	-20676	-2028	-2668	-2483	2608	407	-10856	-1480	32767	-9434	2308	-11266	-30752	-764	23480	24539	18481	-7158	-12328	6412	68	-8125	6285	1245	114	164	1
-12244	744	14568	1440	18824	1376	-20460	-1272	-4264	-8057	15320	6039	-20316	-2120	-2408	-2591	2092	483	-7728	-3724	388	-10297	14701	-27705	-18752	48	-4128	-8336	11103	-844	-22644	-1240	3684	-3600	5650	-709	133	178	1
-10948	1212	15244	626	26192	98	-22792	-1076	-1392	-6649	15966	7123	-21768	-1872	3532	-4899	-1619	1657	-19664	10252	9540	-5858	24011	-4502	-13312	-5240	812	-14159	14034	-3949	-16080	-340	8912	-5516	-1617	167	132	159	1
-10224	-620	15052	806	32767	-1447	-23676	-744	1344	-8488	16730	8145	-22456	-412	10252	-4358	-8777	2802	-25756	-8324	17180	-6222	22597	-11823	-22904	-1384	-5232	-13779	13260	-4116	-16344	5652	8928	-12673	7232	298	142	120	1
-9288	-2192	15544	1235	32767	-3041	-24076	-2748	4984	-10712	17365	8905	-20872	1708	17536	-10248	-14046	1302	-21472	8620	10596	-4602	14813	-8341	-23516	-1744	-7652	-16685	13495	-5832	-22480	-1824	268	-11551	14957	896	155	106	1
-13328	-5080	13528	-788	32767	-1924	-25420	-4504	4420	-10843	17680	9496	-18928	3784	9048	-10900	-9708	1430	-27220	-8656	13900	-6534	1701	-10050	-14372	4200	-9956	-15007	13876	-2355	-22084	-2852	-3236	-10043	16326	699	176	105	1
-32768	-4624	6796	-864	32767	5513	-21860	-6328	-10112	-7888	21038	9518	-21124	-1220	-1536	-14966	-12122	-520	-15536	5644	10016	-3861	-393	-5230	-16808	-2376	-7344	-16992	10142	-1345	-11580	2544	-7112	2187	15331	1431	134	108	1
-32312	-8128	10400	3051	32767	12657	-25104	-1004	-9352	-11624	21803	6126	-22460	-6952	-8180	-13574	-15470	-5471	-13824	4544	10120	-2026	-85	-2717	-16832	-7192	-7640	-1520	9772	369	-13792	-80	-7592	3088	13960	1146	131	109	1
-22756	-5864	19604	-3119	32767	12974	-27320	-3116	-3484	-14679	16904	6568	-26764	-3340	-5764	-421	-20444	-4621	-13320	2916	10848	-775	-231	-1046	-17364	-5108	-6092	12447	8265	2337	-16412	144	-3988	-737	15539	3115	157	116	1
-4516	-11652	21984	-6940	32767	15928	-20560	-6736	2028	-12654	9708	4959	-26644	-2540	-6272	4134	-21259	-4090	-12636	3396	10760	-84	52	-129	-18148	404	-4336	16102	6901	3241	-17248	3332	-3232	3535	16327	-279	144	108	1
-32768	-8968	19404	2405	15134	6870	-9612	-4548	-28524	10434	6580	2944	-24140	-2444	-4804	2941	-22945	-6357	-12552	3864	10540	393	308	504	-16300	4852	-2152	8797	5678	2508	-16832	5604	-1760	2579	15421	-2352	129	109	1
-20504	-4700	22708	7360	-25339	126	-8948	1600	-9860	3273	6323	1619	-23612	-3952	-3644	6176	-22869	-8213	-12464	4424	10388	515	467	449	-16140	6624	-1456	-2449	4881	1159	-15448	6124	-200	-368	15292	-2122	30	134	1
-4188	-628	14472	-433	-32768	307	-15808	-212	-2188	-5397	-3609	175	-23336	-3624	-6608	3977	-19963	-7981	-12396	4552	10240	553	560	465	-16504	4900	-2444	-11685	3185	-844	-15148	5432	624	-1992	13819	-1409	8	151	1
-3916	-1668	9756	-6487	-32768	698	-8588	-3084	-7460	5872	-10470	-344	-20644	-1304	-8112	2899	-18280	-7001	-12116	5068	9748	-47	765	-387	-16516	-2492	-3008	-6899	3022	-499	-15652	4392	1064	-841	13123	-1308	116	117	1
-8788	-4820	8764	-7456	-32768	399	-4448	-428	-8928	16753	-16371	-4085	-17032	-848	-7620	2538	-17792	-6023	-11980	4148	9992	-294	787	-968	-16572	-1640	-2288	8691	4598	965	-15836	1708	1680	3192	12198	-59	138	127	1
-9648	-6728	9820	-2195	-32768	-873	-5108	2764	-9224	18141	-22413	-7716	-14532	-656	-6804	2749	-17013	-4896	-12572	3856	10216	81	878	-1401	-17040	2220	-1084	15646	6024	1635	-15380	412	2008	8786	12817	-532	152	120	1
-12432	-5164	10300	1790	-32768	-2689	-8576	4416	-8740	11052	-28229	-7100	-12400	-1760	-7300	5247	-15365	-3930	-12640	4052	9960	481	940	-1765	-15756	6060	580	9610	6398	502	-15980	1216	3340	9714	12687	-1042	153	114	1
-12940	-124	8396	-836	-32768	-5500	-10688	3600	-7988	6411	-32768	-7142	-11540	-2224	-8104	9858	-14006	-2714	-12480	4352	9956	275	995	-2496	-15548	5364	-300	126	6644	-1491	-16404	3040	2280	9399	11983	-725	141	126	1
-14544	1508	9068	-6116	-32768	-8252	-10696	3276	-9288	4070	-32768	-8498	-9932	-400	-8356	15907	-12793	-910	-12240	4228	10088	-178	1306	-2664	-16272	1536	-1652	-4156	6783	-2439	-16376	4476	216	7756	11774	458	133	131	1
-19264	1152	10836	-10085	-32768	-8626	-11704	2756	-10648	-761	-32768	-11382	-8776	1772	-7712	18177	-10464	552	-13292	3560	10168	-285	1569	-2384	-16496	168	-3136	-520	7207	-2075	-15872	4204	-1040	7480	11001	1015	158	121	1
-24604	1184	12144	-12476	-32768	-7072	-14652	1200	-12124	-1113	-32768	-14378	-8284	2940	-6224	17070	-7733	1149	-12536	4180	10392	323	1680	-2584	-16444	840	-3520	3168	7936	-1803	-15256	2780	-2708	7854	10101	642	143	125	1
-27260	944	13236	-14318	-32768	-7130	-17080	1228	-11224	1661	-32768	-15928	-8352	3036	-5864	16494	-7250	1162	-12468	3852	10232	1055	2065	-2606	-16696	2012	-3672	4096	8284	-2085	-15016	2868	-3824	6880	9075	-212	147	126	1
-30268	-736	14556	-15086	-32768	-9896	-19516	2744	-10864	3358	-32768	-17195	-7880	5152	-2108	5065	-238	700	-13840	3084	10344	1235	2034	-2777	-16664	1812	-4356	995	8076	-2639	-16024	3696	-4472	4839	8680	-806	124	127	1
-32768	4500	13560	-14487	-32768	-15190	-21784	3932	-14976	4468	-32768	-18159	-8552	3824	1796	2036	-135	736	-13412	3416	10204	541	2386	-2074	-17064	720	-3744	-936	7933	-3374	-16712	4364	-3512	2247	8477	-968	84	125	1
-32768	6700	8072	-16973	-32768	-19743	-22136	-416	-13576	-3574	-32768	-16210	-12160	3048	4576	-1427	-2124	359	-13308	3876	10208	222	2438	-1648	-16652	792	-2432	-426	8724	-3616	-16972	4776	-1004	669	8127	-885	81	133	1
-32768	988	-3692	-9024	-32768	-16242	-19756	-4484	-12304	2587	-32524	-12884	-16848	428	11700	-5386	-5102	-1284	-13520	3744	10496	-41	2907	-1845	-16660	2032	-1880	-56	10433	-4012	-16896	4424	1864	1477	7419	-644	95	150	1
-32768	3960	-19352	5714	-25893	-11497	-11680	-856	-15092	14693	-20979	-9099	-19420	-7404	23908	-2183	-6851	-3695	-13080	4132	11672	128	3751	-2911	-17236	2468	-1952	-510	12219	-4523	-16916	3168	2760	3568	6998	-278	76	119	1
-32768	17484	-31284	2791	-12258	-9549	-9008	4636	-17392	12783	-6054	-5319	-16820	-13368	24376	2204	2951	-2255	-14488	3480	11576	-792	7708	-3947	-19468	-1464	-2804	-1055	13647	-5298	-18744	1352	1664	5985	6408	-225	116	112	1
-32768	18476	-30016	-6532	5017	-9206	-5132	1780	-13520	4618	10488	1436	-15180	-4976	16496	6462	3332	778	-13912	3544	12876	-926	11633	-4974	-19884	-1164	-3084	-326	15349	-5828	-19208	1256	740	7226	4681	-450	173	104	1
-32304	8276	-2036	2379	20863	4952	-9000	-4372	-11872	-2606	21870	6469	-12788	-3112	6184	6149	5599	2240	-13416	4160	13668	-904	16282	-5951	-20532	-692	-3540	-164	16289	-6092	-18924	3588	512	9108	3390	-904	183	113	1
16868	-32352	32767	1700	12686	3052	-32768	-7508	29948	-19354	9944	3609	-11380	-796	-3512	2729	11839	2914	-12812	4304	14800	-779	21680	-6803	-22900	-1116	-2828	1113	17213	-6701	-21612	5584	636	8800	2501	-634	183	122	1
-24228	-212	5640	12585	29847	13204	-14948	-3192	-7988	3222	11078	-354	-26944	6272	6528	2566	6818	3909	-12440	5328	13816	-585	27545	-9299	-23000	-3836	16	2299	18441	-6773	-22280	4528	3792	6891	-877	-900	145	137	1
-9824	-14748	10244	14276	26217	1046	-11472	-1972	-2464	-4844	15386	570	-13364	-2712	9252	21741	2914	1702	-12540	4448	15504	693	32767	-10612	-23932	-3216	2816	5817	20534	-6954	-21012	2440	12664	7299	-11279	-3147	169	86	1
-17988	14368	16892	8753	23085	7105	-20644	-10028	-1492	-2794	15483	169	-16980	-14444	6340	14057	4452	-7239	-16080	5836	14836	1533	32767	-10883	-26936	-3124	3852	7923	20998	-7669	-20492	-344	16260	13640	-25047	-3764	130	107	1
-22212	-656	13524	-909	16473	4213	-24460	3804	-8288	19686	16878	6562	-22560	8500	-2404	9535	11738	-2687	-32768	9644	9976	503	32767	-15392	-26304	4116	-804	5051	23662	-8034	-18784	-1140	7144	10269	-12627	-1659	113	108	1
-19800	7696	14388	2655	8035	4626	-17076	-972	-11696	7001	15759	4383	-17612	8908	-8724	-3784	13467	280	-30532	12512	10084	-2188	32767	-21879	-27792	7520	-5124	-1556	24287	-8931	-23024	6492	-4480	13089	-13794	1143	111	121	1
-14100	432	11872	1333	5042	2429	-16232	320	-9944	7441	14809	3494	-12592	-1544	-9852	-9349	14805	-4109	-31016	12396	12864	-3391	32767	-24820	-25888	1876	-5832	-1119	24045	-8563	-23324	8940	-10636	7415	-17023	6637	137	119	1
-13160	-428	11816	116	3679	357	-16744	4272	-7852	-1982	9132	-707	-14584	-164	-9384	-8085	12629	-2722	-16012	21100	24368	-654	32767	-27439	-23876	4456	-2020	1608	24567	-6758	-27876	900	-7876	-4488	-21620	7739	151	116	1
-12588	-1540	11544	-795	2687	-717	-16920	-452	-6432	-13592	6642	-2031	-16840	-748	-3920	-6811	9900	-2165	-32768	12964	15672	1214	21112	-19662	-14844	-44	-28908	-17699	14068	-4953	-28912	1376	-4744	-11535	-26685	8521	214	131	1
-12208	-1660	11308	-1154	1983	-1104	-16692	-5332	-4796	-12522	4760	-2328	-17032	-6252	-3412	-6318	13226	-750	-16604	10268	19308	-1999	-18456	-2880	-16596	-852	-9056	-9148	3293	-3169	-27940	1916	-5572	-8343	-27074	8975	177	140	1
-11736	-1800	11204	-1034	1408	-1038	-15272	-6428	-3436	-6186	4589	-1400	-17316	-7680	-1716	-2484	11842	1787	-2796	10676	13676	-3318	-20369	425	-12616	-3688	-5352	2909	-1344	-1421	-26848	1816	-5848	-3472	-25355	9620	139	143	1
-11396	-2200	11036	-886	1329	-818	-14800	-6548	-2556	649	4677	118	-15228	-5652	640	543	10813	1700	-9136	6704	10376	-4968	-24880	2459	-9112	-1892	-10792	7644	-9511	1135	-24612	2284	-5572	162	-22919	10053	93	91	1
-11536	-2496	10888	-470	1341	-274	-16620	-5864	-1512	3902	4903	402	-20864	1344	-1588	-2403	8268	3097	-11400	4224	12228	-4685	-32768	8998	-8272	-1500	-10936	7183	-10872	1239	-19660	2420	-6660	-1729	-20342	8690	144	104	1
-11344	-2172	10880	-103	1380	189	-15968	-2384	-2804	-2629	3931	-102	-13452	-1336	-336	-8119	10952	3162	-8868	5120	9352	-3513	-32768	13278	-9300	3456	-7796	-2977	-29076	-6300	-17536	2312	-5708	-10161	-23494	10895	105	129	1
-11440	-2028	10928	-132	1425	195	-16080	-2564	-2796	-6680	3624	220	-12856	-1344	-2376	-7937	18039	242	-9372	2920	6860	-1941	-32768	15601	-6696	-3428	-6644	-2371	-28290	7297	-15600	1468	-7092	-16176	-19046	7754	94	138	1
-11528	-1852	10856	-324	1706	552	-15168	-3496	-1792	-9169	3571	-117	-14768	-1852	-252	-6459	15410	-2126	-7968	1308	6764	1713	-32768	15111	-8844	-1284	-6760	184	-32665	6441	-13652	1056	-7832	-19986	-18535	5902	108	137	1
-11140	-2212	10668	-265	2014	856	-15300	-5760	-1208	-7278	3901	876	-16032	-2044	1876	-4048	15477	-3787	-12444	1272	7512	6736	-32768	12630	-9244	-1460	-9440	-591	-32768	7446	-11244	-384	-6980	-22105	-16998	4166	81	140	1
-11356	-2156	10800	-62	2322	1342	-15220	-5568	-1404	-2219	4863	1588	-16880	-2000	404	-4167	9966	-1297	-23544	380	5772	9925	-32768	12654	-8864	-3200	-10096	-748	-32768	8002	-8032	-1772	-6464	-20920	-14387	1840	103	174	1
-10756	-1288	10592	-491	2462	1606	-16380	-2256	-900	-2981	4293	3852	-16060	-2600	188	-6147	8047	1027	-16432	3724	8084	9575	-32768	13208	-11816	-4760	-10000	3333	-32768	9999	-6092	-3800	-5344	-15685	-10554	137	118	176	1
-11832	-1512	10524	-392	2787	1470	-15740	-2652	-3012	-1621	6195	2301	-15516	-3764	-100	-5384	10656	563	-20120	2928	9748	9460	-31031	15704	-13900	-4700	-11456	7875	-32768	12823	-5448	-4152	-4464	-10234	-4771	-114	109	154	1
-11628	-2100	10504	995	3261	1986	-15488	-4072	-2808	-2512	6399	1924	-15084	-3128	-480	-2605	11566	-40	-29648	4028	10148	11429	-30291	21498	-14540	-2808	-15932	6473	-32768	14769	-6272	-3736	-2484	-3517	-283	775	125	147	1
-12292	-1716	10576	911	3709	1974	-15364	-4440	-2780	263	7103	2472	-16212	-2416	76	494	11749	-124	-30668	-256	7740	11980	-29097	22228	-17264	-1988	-14228	2959	-32768	16157	-6728	-4576	256	1807	822	1559	127	128	1
-12052	-1592	10516	924	3800	2013	-15344	-4376	-2820	565	7278	2509	-17620	-4160	-124	93	9837	-1431	-32768	-5600	3468	16102	-25924	21587	-17556	-2316	-17824	-1975	-32768	15104	-8008	-2516	3204	3129	-813	2587	87	109	1
-12316	-1504	10708	1109	4092	2038	-15548	-4048	-728	1035	9428	3420	-18188	-3716	140	-574	7122	-1146	-32768	-4372	-1176	14796	-26502	18448	-17768	-5312	-20700	-1139	-32768	11633	-10540	1264	6628	7445	-2800	2728	122	70	1
-12892	-1072	10960	1828	4050	2012	-15656	-3708	-1756	2405	11083	3992	-17396	-2168	2592	1283	5469	-300	-32768	-8316	-6452	7379	-26852	16393	-16564	-7416	-19752	6912	-27389	9445	-15196	3152	12840	15139	-2574	1932	104	51	1
-13072	-752	10940	2139	3473	1300	-16792	-3096	-2736	2111	12403	4596	-15756	-1012	3344	-342	6282	-580	-32768	-9232	-7536	6381	-25879	16088	-14076	-4624	-17880	17175	-17993	8029	-17384	4692	16324	17476	743	3352	120	96	1
-13064	-416	11648	982	2980	305	-17000	-2584	-3452	464	13093	4856	-15696	528	1184	-3995	7098	-390	-32624	-13816	-21400	2814	-8479	6485	-9232	804	-16368	10977	-6087	6060	-14760	9132	15472	10884	5219	4451	119	119	1
-12040	-892	13560	-2155	4823	-196	-17416	-2704	-3388	-746	13137	4859	-16832	360	-1708	-6154	6149	350	-32188	-17740	-21920	6068	2471	1504	-7780	-868	-16196	-1749	5749	1711	-12640	11924	14000	6955	7960	-34	125	153	1
-13416	-3072	12076	1127	10137	285	-19172	-2456	-3992	-2349	13335	4668	-19472	-1476	-2536	-6397	3892	63	-31372	-12996	-16392	4094	11498	-2808	-9740	-3988	-17032	-7690	15714	-3573	-11916	11144	11496	-5434	6493	-2172	121	170	1
-12520	-652	12956	1749	14823	317	-18820	484	-3936	-5784	14473	5172	-18704	-2708	-344	-7636	747	-225	-32768	32767	32767	1043	10372	-12255	-30180	1752	24408	25493	13663	-4143	-11892	10168	10504	-7656	5983	-2366	139	184	1
-11508	656	14500	1066	21156	-405	-19760	-380	-4248	-9449	15363	5748	-17892	-2820	2400	-10157	-744	997	9192	11856	-4288	-5142	26396	-23406	-24608	5052	9448	-9089	762	4339	-20904	1088	-3836	-5768	18924	-1413	142	178	1
-9860	-156	15068	334	30229	-2832	-23156	-932	-1112	-9410	15858	7214	-21956	-2664	3940	-7863	-2921	2018	-21248	12924	12216	-8420	19039	-5998	-10004	768	356	-13738	11108	-2776	-24472	-4544	17716	-13900	399	2254	123	140	1
-8752	-964	14764	-98	32767	-5199	-24220	1708	3056	-10815	16681	7939	-21524	-1688	9620	-6032	-11504	4011	-28004	-5552	16608	-9843	26069	-8351	-26192	-6260	-6772	-24475	10011	-7013	-18228	10088	19264	-21590	9041	5246	139	112	1
-10400	-2604	14152	-973	32767	-7738	-23436	-1440	4488	-13487	17119	8844	-18264	2052	13632	-8264	-15540	4772	-24180	-1180	13208	-4752	16038	-9914	-21988	-6116	-9636	-21420	12038	-6039	-20796	-8256	668	-12947	18187	-249	131	102	1
-29336	-5764	7220	-2658	32767	-1235	-21696	-6272	-2800	-11054	19138	9550	-16436	4928	10264	-7165	-11145	2916	-32768	4308	4984	-3801	8042	-7524	-15096	-16	-12784	-11664	14021	-1333	-17056	-7632	-4944	-311	16861	90	158	121	1
-32768	-7404	10096	-253	32767	4860	-22240	-7424	-9964	-11561	23629	9161	-22368	-3844	-2408	-18889	-9072	-1202	-14796	6292	9396	-1969	3855	-3958	-16936	1000	-7356	-7485	11891	334	-11620	5752	-9580	15519	15859	-483	143	102	1
-30248	-7880	15696	-4677	32767	7863	-30860	-4464	-8484	-11165	21370	8294	-28480	-7284	-11240	-17568	-13103	-5612	-14600	4464	9936	-1198	744	-2882	-17168	-1012	-6776	-1090	11617	548	-12868	5972	-6052	8408	10795	3273	161	117	1
-17232	-14004	24568	-6586	32767	15104	-24528	-8116	-628	-15478	17157	8143	-28396	-6504	-10364	1181	-19133	-7490	-13816	2812	10720	-662	-155	-1689	-16708	-5036	-6300	9914	8922	914	-17116	5928	-3160	1337	11477	4700	143	123	1
-32768	-9992	13468	-3433	32767	12518	-13096	-2792	-22972	9058	12492	5715	-26872	-4240	-4372	9265	-23858	-7751	-13176	3588	10512	-285	188	-556	-18480	624	-4888	15513	8502	1201	-18420	4652	-3264	4211	10984	-506	167	110	1
-27016	-8436	23252	2588	-14459	1351	-9500	2524	-16704	10982	10310	4598	-25336	-3392	-3908	11217	-24134	-7837	-12748	3784	10556	310	500	-88	-16568	4812	-2828	8410	6493	684	-16964	4384	-480	2157	10217	-2405	169	117	1
1172	-4532	16236	-293	-22415	1237	-14596	-420	-3428	-6217	417	2798	-25040	-1784	-6496	8653	-20920	-6686	-12432	4176	10308	726	651	-152	-16136	5104	-2024	-1997	6232	88	-15176	4244	468	-676	9608	-1563	28	158	1
-3636	-3784	10296	-2471	-21501	3022	-9856	-2956	-7396	2925	-7197	899	-22652	-276	-6644	4604	-19788	-5444	-12432	4084	10088	1160	805	-114	-16244	3104	-3416	-9521	4338	-1405	-15232	2792	656	-1145	8108	-1208	0	127	1
-7788	-6032	9860	567	-28346	2803	-3312	-912	-9624	13011	-12407	-2431	-17076	-572	-6312	3253	-18357	-5035	-12192	4584	9920	1520	908	-436	-16840	-2472	-3824	-5267	4272	-1471	-15512	2524	404	778	9191	-1686	134	115	1
-5600	-5172	10448	4828	-32768	3053	-2992	820	-7996	12777	-18096	-5019	-13364	-984	-6556	3702	-16726	-5350	-12088	4148	9928	1966	1130	-752	-16040	-3220	-3588	9084	4925	736	-15600	936	828	4755	10273	-811	148	128	1
-6516	-2708	9096	4879	-32768	1939	-7084	1684	-7856	10571	-23905	-5411	-12856	-1768	-7240	3831	-14397	-5465	-12420	4212	9908	2635	1216	-976	-17012	1780	-2160	14676	6139	1368	-15692	448	1464	8699	10490	-246	140	127	1
-6180	3396	9340	2211	-32768	-3713	-6984	-908	-6696	11709	-31013	-5866	-11716	-2872	-8320	6064	-12999	-5113	-12376	4180	9832	2649	1516	-1392	-15196	4036	-840	9423	5962	302	-15516	1952	2020	11139	11094	-790	144	123	1
-10680	-3392	9496	-389	-32768	-4302	-7608	1548	-8696	8026	-32768	-5162	-10208	-2648	-8524	10442	-11364	-3819	-12796	4544	9592	1705	1389	-1921	-15648	4292	-1904	780	5344	-896	-15028	4440	1740	12704	12765	-1176	141	125	1
-15068	-2884	10384	-2455	-32768	-6167	-8588	2192	-9668	3940	-32768	-7278	-8720	-844	-8580	17898	-9686	-2023	-12988	4824	9516	806	1285	-1929	-16304	1732	-2800	-2639	5547	-1795	-15312	5316	500	11675	13032	-830	146	130	1
-19908	-1528	11596	-6632	-32768	-6958	-9460	2008	-9988	3722	-32768	-7706	-8244	688	-8392	21272	-7837	-653	-12988	4532	9696	484	1172	-1737	-16392	748	-3496	-925	5535	-1658	-15544	4824	164	9108	13270	-816	147	123	1
-24372	-1552	12348	-11921	-32768	-6946	-13736	1140	-11344	157	-32768	-11776	-7844	2452	-6964	18480	-5002	232	-12864	4716	9700	117	1165	-1858	-16300	936	-3304	2478	6270	-1535	-15516	3272	-484	5713	12615	-890	154	127	1
-25096	-1848	12652	-12681	-32768	-7024	-17052	1428	-11520	404	-32768	-14890	-8004	4852	-4844	12223	-1437	983	-13172	4324	9692	-15	1046	-2018	-16244	1648	-3492	3370	7021	-1777	-15348	2836	-932	3384	11878	-1263	140	128	1
-32100	-7476	14184	-11670	-32768	-8230	-20712	1420	-11788	-1222	-32768	-18437	-8552	7272	-2808	5814	1471	1430	-13124	4164	9996	-272	1320	-1733	-16228	1588	-3704	3181	7044	-1874	-16408	3692	-1344	4045	12264	-1865	112	127	1
-32768	1476	13612	-10214	-32768	-13097	-22112	1016	-13812	924	-32768	-20519	-10652	6992	1948	1472	-1558	1023	-13256	4108	10188	-527	1787	-1419	-17116	764	-2840	-432	7478	-2817	-17732	4224	-748	3449	11318	-1395	97	123	1
-32768	4376	8508	-16170	-32768	-18315	-23656	-3112	-13136	-739	-32768	-17983	-15232	4744	6632	-3294	-5106	244	-13192	4016	10204	-423	2691	-1481	-16764	104	-1636	-23	8788	-3032	-17064	4272	1512	134	9725	-720	88	124	1
-32768	-800	-2684	-9994	-32200	-16005	-20304	-3800	-11632	6773	-30865	-13857	-19692	-1416	16700	-6393	-9209	-1900	-13304	3856	10272	-159	3519	-1529	-16596	2000	-1836	-692	10684	-3539	-16408	4600	3460	-518	9660	-678	79	128	1
-32768	5140	-17804	3374	-23098	-10827	-12620	1180	-15016	12466	-20075	-10607	-20192	-6424	23796	-6451	-1857	-5472	-11956	6776	15320	-1060	5655	-2367	-18528	1540	-1484	-1209	11869	-4022	-17412	3188	3840	2802	9708	-909	70	125	1
-32768	20368	-29608	-1376	-10102	-6247	-8944	3636	-16308	3449	-5730	-6358	-15876	-12556	24084	-1852	3443	-5451	-13248	4020	12676	-406	8650	-3407	-19232	-688	-2936	-1803	13870	-4893	-19496	2168	2136	5340	7624	-1118	148	116	1
-32768	16864	-28216	-8449	5759	-2071	-5032	1344	-13312	409	10789	727	-15696	-6216	16052	497	3127	-458	-13700	4552	12848	-750	12751	-4027	-19600	-396	-2912	-813	15939	-5490	-19100	3476	1492	6464	4115	-1236	179	124	1
