#Activity	walking 
#ActivityID	1 
#Date 10-06-18-16
acc_rf_x	acc_rf_y	acc_rf_z	gyro_rf_x	gyro_rf_y	gyro_rf_z	acc_rs_x	acc_rs_y	acc_rs_z	gyro_rs_x	gyro_rs_y	gyro_rs_z	acc_rt_x	acc_rt_y	acc_rt_z	gyro_rt_x	gyro_rt_y	gyro_rt_z	acc_lf_x	acc_lf_y	acc_lf_z	gyro_lf_x	gyro_lf_y	gyro_lf_z	acc_ls_x	acc_ls_y	acc_ls_z	gyro_ls_x	gyro_ls_y	gyro_ls_z	acc_lt_x	acc_lt_y	acc_lt_z	gyro_lt_x	gyro_lt_y	gyro_lt_z	EMG_r	EMG_l	act
-7580	-5812	9544	-2579	-32768	-21361	-9148	3580	-4836	1721	-32768	-7066	-12820	-3312	-7336	14233	-14437	-5430	-10280	4204	11680	269	1052	-355	-15300	-3192	1320	6793	7125	3232	-14752	-3932	1808	5139	10828	5416	115	133	1
-13480	-4520	11048	-6310	-32768	-25216	-12012	2792	-5792	-1817	-32768	-8408	-12400	-4204	-7700	17063	-13460	-4416	-10728	4988	11132	-340	1215	-1566	-16620	32	608	7176	7372	3660	-15224	312	1968	11309	12405	5786	119	133	1
-17204	-3492	11108	-10230	-32768	-26458	-12288	3824	-6424	-692	-32768	-9995	-10796	-776	-8052	22923	-13000	-3942	-11388	3504	11368	-371	1254	-2379	-17084	52	172	3151	7002	2895	-15084	1532	2212	12248	13984	7188	125	134	1
-16732	-4392	10576	-11565	-32768	-23510	-13944	5288	-5108	-3630	-32768	-12007	-8976	2732	-8276	22814	-12639	-2852	-10524	5228	11996	-1165	1800	-2747	-16956	-1308	-164	659	6902	2830	-16588	488	-748	8477	16056	7678	122	134	1
-17860	-7080	11776	-9496	-32768	-21503	-17676	5272	-6252	-4934	-32768	-13111	-8384	2868	-8492	21757	-12380	-2840	-12164	3388	11884	-1422	1737	-3181	-16860	-1084	-616	350	6861	2793	-15580	-1648	-120	4736	16819	6623	127	133	1
-18500	-7576	12620	-8872	-32768	-21477	-21264	7620	-8460	-4435	-32768	-13566	-7908	2864	-5252	6708	-5876	-1982	-11480	4188	12000	-1241	1511	-3298	-17644	-744	-1904	4860	8447	3342	-15516	464	-164	637	18356	7931	126	133	1
-28764	-1696	20868	-14039	-30407	-26587	-25108	10392	-10292	-9524	-32768	-13982	-8616	4936	-2712	1906	-2755	-1618	-12344	2736	11536	-2219	631	-3627	-15792	-376	-1760	3929	9353	3307	-16852	3576	-832	-2675	17606	8443	127	132	1
-32768	-4612	21780	-16580	-31596	-27315	-30656	8740	-15456	-9682	-32768	-15767	-10320	3780	1568	2943	-2980	-1357	-12296	2640	12044	-2378	599	-2476	-16404	-412	844	2668	10940	2879	-19280	2380	2688	261	11659	5805	125	130	1
-32768	3984	14492	-14765	-32768	-24843	-26552	7728	-18112	-8346	-32768	-14175	-13912	-3324	5324	-2573	-3135	-3912	-11992	3632	11996	-2908	971	-3751	-17492	1892	2604	-523	11889	2626	-18980	936	4924	-57	7808	4898	123	131	1
-32768	7156	3556	-10026	-32121	-21136	-23940	9244	-20444	-5946	-32768	-10697	-17588	-6112	12912	-376	-2028	-8237	-12324	3076	12352	-3367	2358	-4740	-17972	724	-604	-1860	13806	1803	-17620	296	5200	449	8055	5649	124	132	1
-32768	12552	-9756	-3956	-26812	-15864	-17476	7908	-24336	-2810	-24591	-10004	-18000	-2132	21788	7668	-2462	-9459	-12908	2904	13840	-3665	5221	-6472	-19568	-3008	-2028	-979	15976	1506	-18576	-2220	2196	4381	9012	6076	116	132	1
-32768	27488	-22740	-7640	-14669	-9347	-6912	9552	-24424	839	-9987	-7870	-16936	4372	26496	1127	2896	-3310	-12516	1172	14400	-4031	9909	-6625	-18900	-3304	-2620	-1797	18013	1148	-18652	-392	508	8242	6580	3857	119	130	1
-32768	26740	-21228	-8764	2835	-5255	-7068	8740	-22740	2350	7488	-1528	-14960	1632	22288	-1315	-3737	1552	-12356	3604	15816	-5921	14428	-7016	-21640	-1820	-3532	-7480	17981	23	-20576	2564	-304	6805	3705	1682	125	128	1
-32768	14452	-10688	8140	15255	61	-9848	7944	-22412	6520	18448	3581	-13940	-4248	13664	-2815	-2636	575	-10512	3660	16760	-7004	19466	-9007	-23008	-4320	-3460	-7731	18231	541	-21320	2188	404	6178	2984	695	117	128	1
32767	-20388	32767	15104	743	2868	-32768	1880	32767	-14442	15278	6457	-12780	-1712	-4700	-6628	9534	720	-9840	3852	17316	-8463	24925	-11510	-25276	-5096	-792	-4344	19435	1731	-23304	-136	4008	7623	-388	-447	131	126	1
-7380	9712	4892	10485	17151	17438	-32768	-3240	32767	-8511	10667	8313	-25328	-388	3700	-5965	9621	5098	-9960	3892	17220	-8585	26110	-11902	-24892	-9552	2368	-2787	20971	2083	-22928	-4964	14752	4894	-11077	-2342	124	129	1
-13652	6836	16836	1938	25784	93	-16756	13396	1156	9219	13985	10902	-12184	-2456	6808	22659	2216	1725	-1616	3264	21652	-11530	32767	-13760	-29764	-18140	12624	8191	24921	2774	-17308	-19268	13784	1820	-16866	-10772	118	128	1
-16408	8728	18580	-1740	21023	9044	-19952	12580	-4684	7251	14181	1145	-16768	8924	4160	14535	14448	-1316	-16784	8620	16260	-13408	32767	-22421	-27600	-8904	14632	15419	28723	4748	-18536	-17676	14304	10202	-16225	-15759	125	129	1
-18740	-10832	12808	-4175	15273	10524	-21048	2488	-4036	4337	15900	2174	-18896	5916	-1704	-1046	12498	4191	-32768	-2936	1792	-6844	32767	-27331	-25836	4364	-13420	7115	30155	6051	-16200	-728	4916	22554	-13722	-14010	128	128	1
-15440	-11412	10556	4001	13026	8362	-19872	-2248	-4428	9136	13335	-1277	-17380	-11984	-4904	-9082	11923	-476	-32768	7024	10572	-6157	32767	-28252	-29572	2248	-10688	-2612	27466	2117	-25560	8616	-9856	32767	-5946	-9141	129	130	1
-20056	-11004	6596	7748	7038	7793	-17680	-3440	-8376	8686	11016	-680	-16904	-9892	-3356	-2320	11252	-5830	-26504	7144	22360	2139	32767	-28263	-22732	-892	864	-5209	17920	2547	-32768	3112	-15524	22488	-15541	2006	125	132	1
-14952	-1776	13600	5906	2797	7308	-17124	-1424	-7492	8819	10181	-349	-16776	-4028	-5356	-285	11582	-4167	-11892	17140	19808	5489	32767	-24028	-17928	3700	-10544	-7960	12312	1258	-31304	5320	-11888	3766	-29603	3986	138	137	1
-12380	-1560	13512	3844	1043	3651	-17312	7340	-3844	-2795	9894	549	-17192	-1856	-1544	759	11675	-3164	-30824	16968	20180	2846	-8207	-4031	-10772	3448	-8372	563	6107	-1366	-26676	472	-2092	1052	-32768	-617	138	130	1
-11484	-3012	12868	1729	784	1471	-17924	4920	-2224	-3830	9541	133	-20652	-2036	1664	-1385	13110	771	-11952	14476	17372	-620	-30573	7416	-10020	-1076	-228	3566	-3471	-1286	-26168	1136	-4636	4978	-24593	1212	132	118	1
-10460	-4364	11724	880	749	326	-17180	1756	-800	-350	8203	-123	-12844	-4724	2000	-148	14195	792	-3316	9412	12120	-1844	-32768	12368	-6696	1992	-32	-1	-12334	-1581	-21652	1700	-9356	6326	-18636	2787	132	119	1
-9996	-4824	11160	970	459	399	-16528	620	-496	4877	6007	194	-15156	-4292	1420	3666	13657	-346	-2584	4960	9780	610	-32768	14354	-5972	2196	-1228	-2736	-20617	-3917	-17260	2500	-10196	1753	-17672	3631	117	119	1
-8700	-5320	10800	1502	408	1076	-15356	1892	-656	6240	4820	384	-14008	-2068	568	4681	14180	-1993	-6268	3216	9292	6137	-32768	14714	-5472	640	-2440	-1983	-27589	-5229	-13508	2844	-9988	-3738	-17070	2356	125	121	1
-8916	-5148	11080	1979	821	2286	-15132	3316	-540	275	6541	47	-15276	-1212	636	803	13384	-2623	-7848	732	9524	12106	-32768	15155	-6388	-1908	-3164	3334	-32363	-6303	-11272	2100	-9476	-7405	-15570	964	129	123	1
-9980	-4580	10940	2439	688	3088	-15588	2436	-1776	-4606	8546	-628	-14316	-516	1936	-2323	13964	-2380	-11368	288	10948	18228	-32768	16593	-10496	-2896	-3856	10051	-32768	-6953	-9492	3064	-9772	-11772	-12665	360	131	125	1
-10808	-3460	11968	2339	659	2903	-16336	2884	-1824	-3128	8712	-91	-15452	-200	516	-7292	16297	-2198	-16692	-596	10704	23568	-32768	19007	-12316	-1972	-5080	11658	-32768	-7261	-7560	2836	-10324	-17262	-10198	-712	128	124	1
-10876	-3024	12148	2301	578	2799	-16340	2916	-1936	86	8941	656	-15540	168	-336	-8186	19063	-2746	-12908	2372	10936	22942	-32768	21347	-16668	-4572	-3836	9937	-32768	-7773	-7008	3880	-10132	-22131	-10917	-1332	127	124	1
-10444	-3768	11748	1113	486	1721	-16140	3508	-1428	571	8873	910	-15196	300	4	-5249	19587	-3878	-17940	3644	14088	19133	-31496	21453	-21088	-4256	-7848	8830	-32768	-6311	-7708	2812	-10120	-24447	-11909	-1920	128	120	1
-10468	-4216	11664	1097	540	2074	-15856	2084	-2164	-957	9117	634	-15588	-3208	-1736	-2390	16982	-4447	-32768	-504	19192	18922	-29923	22713	-22644	-396	-13604	10041	-32768	-6054	-7984	-3488	-6048	-18209	-11914	-3205	127	122	1
-10476	-4060	11692	1112	605	2077	-15968	2032	-2376	-904	9068	649	-16420	-4684	-940	-1660	14545	-4014	-32768	-2080	20604	21080	-32768	27783	-29556	-5816	-15580	9346	-32768	-6402	-10404	-9248	860	-12303	-13099	-4755	127	124	1
-32768	-13552	15428	5077	32767	31852	-30376	-3952	-4420	-5921	26787	7068	-29964	-13220	-18848	-32768	-16793	2654	-17124	4652	12156	-8339	1833	-7201	-16048	3244	-5416	-6988	11217	4016	-18592	6104	-6240	-9810	11228	8352	119	144	1
-28732	-14492	24132	553	30731	28012	-18132	1528	-7292	2241	19241	5178	-25632	-16092	-15432	-4639	-22944	-5306	-13432	4836	12100	-5540	-42	-6061	-17632	-3648	-4880	-745	10449	2751	-15128	1384	-6044	-4358	9345	4899	128	152	1
-32768	-3208	21036	-3353	589	8369	-12552	4148	-13792	2271	10003	4946	-24404	-7968	-5872	11369	-25384	-5052	-13020	1760	12524	-3578	-85	-4661	-17496	-3612	-4532	6040	10577	3402	-18016	4412	-4332	833	11127	4355	130	133	1
-9064	-13136	18564	-11513	-27153	-5867	-7864	-2528	1628	-9685	4571	3140	-23180	-2128	-4452	7737	-23155	-4432	-11728	4068	12236	-1749	-313	-3792	-17884	868	-3360	6003	8321	2726	-16852	2312	-3764	-3310	10164	3181	127	126	1
2896	-14412	11044	-9484	-27358	-5496	-10044	-1308	2772	-8021	-4955	-6280	-21236	-2936	-6224	3212	-20251	-6714	-11612	1584	12680	-1574	-200	-2703	-18220	-1820	-3568	-1664	5155	1440	-15936	-564	-1972	-6790	11914	2892	129	123	1
-752	-10532	8180	-5339	-24777	-8767	-6888	-1780	-652	-913	-14168	-7259	-17720	-2468	-7120	5878	-19349	-7251	-12072	2024	12184	-293	740	-1209	-16884	-3364	-2488	-3494	4295	1052	-16552	-104	-2068	-5381	11813	4528	131	129	1
-5912	-8456	8324	-4348	-28033	-13986	-6368	-1628	-1164	460	-15557	-7384	-14424	-2360	-7412	9488	-17242	-6706	-11248	3708	11612	17	1029	-835	-16200	-2140	-348	-1934	4514	1198	-16588	-1444	680	-5400	12137	5137	127	132	1
-6500	-6488	9536	-4369	-31960	-20335	-7956	3944	-3448	2665	-29111	-8111	-13632	-3288	-7220	12742	-15195	-6245	-10596	4664	11172	182	848	-1143	-15672	-3228	2020	4398	6477	1730	-16308	-1724	1572	-4710	12011	5324	120	130	1
-10868	-4312	10776	-6638	-32768	-25542	-9964	3760	-4732	-2215	-32768	-9039	-12688	-4340	-7496	15701	-13668	-5111	-10492	5544	11400	-793	892	-3120	-16608	248	356	5367	6665	2410	-13756	-1084	940	6295	13039	5393	117	129	1
-14044	-1936	11336	-10017	-32768	-27584	-10528	3688	-4732	-2063	-32768	-10908	-12612	-2196	-9448	21651	-12790	-4103	-11864	3452	11432	-1804	485	-3397	-16772	-504	-2388	1012	5880	1603	-15344	720	-844	10917	14936	5367	118	130	1
-13012	-2212	11676	-12197	-32768	-26033	-12144	4920	-3800	-2784	-32768	-12536	-10040	1112	-10564	24898	-12230	-3426	-11840	4180	12316	-2566	628	-2033	-16852	-3328	-1380	706	6631	1187	-18124	-248	-564	4694	14773	5534	122	136	1
-16496	-4812	13248	-11158	-32768	-23028	-14848	5564	-5756	-3778	-32768	-14442	-8576	2224	-11160	20138	-9838	-3026	-11840	2780	11076	-1723	155	-2754	-15980	-1592	-2212	2996	7785	2475	-14976	1192	-852	3438	16170	6843	124	130	1
-17760	-4544	16400	-8891	-32768	-22112	-19976	7064	-6688	-2002	-32768	-14725	-7444	2188	-10192	11973	-5138	-2456	-11800	2792	11676	-1242	293	-2751	-16960	-1296	-1816	3372	8005	2405	-15364	-1004	-596	4303	15770	6538	124	131	1
-27832	1104	23576	-15473	-31504	-25878	-24648	13748	-10392	-7212	-32768	-13940	-8252	3612	-6564	4826	-2240	-2659	-11908	1412	12076	-1510	780	-2028	-16208	-2240	-1020	2322	8513	2110	-19152	-1660	2240	2086	14686	5661	121	134	1
-32768	-2092	25872	-21306	-32768	-27427	-32768	11960	-15752	-12605	-32768	-16295	-10164	6628	-132	5543	-3177	-2310	-11968	2780	12436	-1212	1313	-2351	-16616	-1140	352	2301	10103	1873	-17992	160	2748	-609	11953	4732	124	139	1
-32768	8040	17008	-22761	-32768	-25417	-28644	11592	-19908	-15929	-32768	-15198	-14740	848	3108	1438	-4939	-3258	-12152	3732	12524	-1532	2436	-2636	-17988	60	304	73	11136	1135	-17836	188	2884	-1964	9169	4246	121	139	1
-32768	6296	2520	-17717	-30174	-22887	-22380	10160	-22008	-9744	-32768	-13228	-17864	-2204	9160	-4662	1167	-7222	-11268	4088	13120	-2330	3651	-4175	-17272	-896	-732	105	12787	923	-16796	-300	3820	1017	10640	5851	123	139	1
-32768	10224	-10052	-4866	-22432	-19253	-20896	9208	-27076	-8668	-24902	-12719	-21200	2640	23636	-2057	-5690	-5005	-11752	3616	13264	-2491	6532	-4851	-18744	-2744	-584	-976	14815	280	-18872	-2896	3836	6760	11215	6342	117	139	1
-32768	31824	-25016	-4905	-15179	-17665	-5992	7548	-29980	805	-11875	-8050	-15212	1340	32767	-3923	-424	-5744	-12448	3104	14676	-4142	9984	-6624	-18996	-2728	-368	-1510	14969	154	-20492	-780	5860	6754	10342	4287	120	136	1
-32768	32767	-30716	-8111	-723	-14910	-1544	6892	-24052	8144	8477	7	-13560	-712	24348	-5344	-3147	-1414	-11324	2848	15740	-6648	14347	-7818	-20820	-3392	-712	-10064	18063	-1424	-21040	376	3052	2612	5953	1813	114	131	1
-4532	832	992	27389	9652	-1911	-18904	6644	-1000	4001	18014	5394	-11252	-5460	8652	-3856	-1188	608	-10416	3200	16504	-8918	19499	-8687	-21820	-3728	-1184	-10957	19924	-1576	-21276	1196	4020	922	265	-69	122	128	1
21536	-20280	32767	10952	20794	13134	-32768	-5680	32767	11959	2970	-1684	-17716	-3556	-4956	-4447	15154	1045	-9856	4568	17260	-9327	26541	-11298	-26000	-5820	576	-9107	21447	-1058	-24524	-392	8044	1693	-5010	-1461	119	127	1
-13964	22588	5932	11017	21424	16550	3996	27588	-8976	20300	8190	1952	-22796	-524	7892	5328	961	1438	-7096	2604	19332	-9763	32767	-15100	-25884	-12028	2336	-2697	23552	641	-23320	-8388	17896	-1848	-18832	-4764	118	128	1
-19552	-2028	20224	-2322	28520	3928	-24816	17244	-268	895	18502	7479	-14860	11060	13260	23837	5675	3970	-10028	11612	18112	-10985	32767	-18049	-30884	-17716	16432	11278	28131	1474	-17692	-22272	15772	4665	-14297	-13383	115	127	1
-29400	-7512	15556	-4344	17373	12971	-25228	124	-7764	-3816	20588	443	-20680	13644	2356	4929	10912	4598	-24504	6768	15480	-13188	32767	-31637	-29576	-1468	7016	12125	29726	3525	-18796	-12212	11168	7014	-17596	-16711	117	128	1
-32768	-32768	9252	8032	9849	4582	-26736	-9536	-13220	5796	17710	-1102	-22308	-11960	-5712	-15500	12372	1102	-32768	2272	5024	-8640	32767	-32768	-29768	5364	-9516	3315	31412	2261	-18236	-7756	10596	9504	-16708	-15773	127	128	1
-15476	-408	13704	4488	2405	6078	-15384	4608	-7796	15596	9790	1222	-12580	-14964	-9444	-3664	16184	-8536	-32768	7064	15228	-8936	32767	-32768	-26520	5508	-6516	-7349	20928	1908	-31624	8576	-13912	32767	-9630	-4898	129	132	1
-11380	-2272	13136	4470	1733	4884	-13888	4872	-5960	5845	9719	134	-14228	-1436	-6620	-1403	10756	-2996	-31524	14240	26304	1296	32767	-30756	-20660	1232	-6516	-13682	15614	98	-32768	1908	-17072	10542	-22844	6397	138	136	1
-11760	-3260	12728	2390	1817	2877	-17004	5356	-4328	-3263	10437	346	-16492	-3992	-4724	-3893	9306	-1618	-32768	1836	15720	-5402	9412	-16490	-14272	704	-11028	-7604	7993	510	-27340	2392	-6584	1650	-32768	2776	131	129	1
-10380	-4676	12160	1952	844	1403	-17748	2860	-2476	-5311	10167	283	-16336	-5572	-1768	-2361	12979	-1514	-17192	12676	21652	-104	-27724	5796	-8584	176	-1496	137	436	-2935	-25396	-1132	-2724	2182	-29618	799	130	129	1
-10416	-4736	11988	1839	851	1337	-17080	508	-1748	-845	7608	526	-14812	-5480	-1192	-947	13482	1110	-1324	11032	14700	1733	-32768	12961	-8396	-1004	2132	3842	-8079	-1917	-24980	-524	-3568	3453	-27646	1637	127	118	1
-10080	-5028	11524	1585	31	1303	-16812	1428	-1688	5331	4246	544	-15476	-4060	-1324	2394	14053	765	-4	6864	11656	4740	-32768	13463	-7456	836	428	3023	-16385	-2272	-17900	1848	-8944	3153	-18727	3610	122	114	1
-9528	-4512	11644	1377	-250	1281	-16544	3772	-1468	6173	2928	368	-16204	-2208	-744	5076	15703	-502	-6600	4756	9484	8379	-32768	13408	-6560	1772	-2040	4193	-22550	-3416	-15224	2168	-8732	-2821	-18927	3318	120	118	1
-9252	-4568	11640	1136	257	969	-16456	4004	-1460	5843	2984	268	-16372	448	1452	2762	15925	-1775	-7932	3988	8760	12668	-32768	13789	-7800	836	-2420	4447	-28998	-4545	-12852	2776	-8772	-7891	-18637	1753	127	118	1
-9296	-4932	11340	1288	522	1182	-15432	2096	-640	-4478	6777	-999	-14516	-656	3272	-1167	15671	-2179	-12380	3216	8656	16448	-32768	15261	-8796	-732	-4160	6451	-32768	-4042	-10908	3308	-10100	-11708	-16805	1033	129	122	1
-9768	-5332	11184	1334	408	1793	-16344	-552	-352	-3764	7404	-282	-14280	-1212	3312	-1719	15559	-2150	-14936	2824	9884	19233	-32768	18705	-10176	-152	-5188	9074	-32768	-4508	-9060	3404	-10900	-15620	-14488	331	131	128	1
-10052	-3880	11876	1235	257	1881	-15944	2172	-764	-101	7220	686	-14476	-812	3660	1732	20681	-4947	-14768	1872	9580	22557	-32768	23405	-12996	-1636	-3800	9375	-32768	-4271	-7476	4708	-11444	-19373	-13144	-485	128	122	1
-10040	-4084	11764	946	262	1470	-16536	3284	-972	-1362	8107	1155	-15296	-1996	1792	1816	21222	-4399	-13972	3028	12180	25207	-32768	26207	-18196	-3008	-7116	7016	-32768	-2366	-6824	3896	-11880	-22171	-12477	-486	125	124	1
-10128	-4208	11848	826	541	1395	-16220	1900	-820	-1888	8349	962	-18108	-3620	-2736	667	15805	-3968	-27788	3144	15780	24158	-28386	28159	-21192	1404	-12768	5175	-32768	-3924	-8228	-600	-9452	-19520	-11590	-1637	127	122	1
-10328	-4128	12004	820	596	1546	-16032	1664	-508	-1042	8559	1524	-19088	-2456	1024	-438	10521	-2831	-32768	3892	19756	19306	-32768	30512	-27764	-3912	-15988	2818	-32768	-4040	-10372	-5972	-3488	-13753	-13347	-3671	127	121	1
-10072	-4360	11988	764	945	1577	-16536	828	32	-567	9955	2132	-16608	-2392	6184	-3606	10367	-2628	-32768	-10068	18792	20170	-32768	32767	-27048	-4000	-16396	12424	-32768	-4321	-10092	-5200	1776	-4104	-8445	-1410	128	124	1
-10328	-4728	12112	761	1341	2373	-16816	-168	-20	814	11104	2982	-17672	-2708	4528	-3113	10912	-3536	-32768	-7908	13104	18583	-32768	32767	-26924	-3240	-17396	14033	-32768	-4335	-12248	-1224	6364	13799	-1945	6066	123	126	1
-10348	-4340	12672	387	2323	2950	-16580	1460	-584	286	13203	3936	-17584	-3192	3220	-3923	8970	-3889	-32768	-12452	3268	15127	-31239	31645	-25628	-2796	-18248	11221	-32768	-2283	-18168	-2540	12640	8634	727	8024	126	118	1
-10432	-5312	12968	632	4037	3879	-17908	180	-740	1771	15202	4587	-17752	-2392	3412	-7621	6991	-2979	-32768	-18208	-11820	12370	-20971	24567	-20144	1308	-21096	10837	-25150	2976	-17092	-5716	18748	951	-1584	5792	125	121	1
-9424	-4352	15720	2010	7475	6139	-18788	3340	-1244	3805	16654	5457	-18736	-3220	2080	-8499	4479	-2471	-32768	-30080	-21516	14916	-4892	14478	-10232	1528	-22556	8766	-10169	6812	-13436	-11216	28336	-1048	790	3333	126	117	1
-10668	-4588	15564	2747	11456	7651	-19956	4564	-2648	6570	17681	6065	-18344	-5524	676	-7861	3388	-1560	-32768	-28372	-19152	8342	2750	6681	-6680	6284	-21256	-2035	5548	5160	-14260	-2516	24564	838	-4395	2662	125	123	1
-10972	-4900	16228	3762	16554	9851	-20740	4852	-3676	7733	18263	6147	-19280	-5320	-88	-6271	2478	-174	-29468	-19396	-12444	-11753	9613	-3408	-10564	540	-20504	-13656	16803	2409	-15824	2320	13928	-4212	-3678	5814	124	118	1
-10364	-5720	15576	4666	22221	11995	-21044	5576	-3888	7141	19013	5524	-19892	-2636	1308	-7436	363	512	28104	5784	32767	-9925	6201	-16160	-32768	-22888	32767	-12414	11303	-2557	-11020	1032	-3988	-6906	10225	7086	124	119	1
-8992	-3868	16944	5038	26753	14673	-23444	5312	-2400	5144	19682	5304	-22408	-1576	6336	-8514	-4412	1355	6800	-5620	6148	-24341	14971	-24917	-8644	-7112	-4980	-30163	405	8560	-24628	-6760	2596	-15995	15957	770	133	124	1
-7428	-2412	16728	5543	32767	18790	-26220	8940	1468	1462	20942	6533	-22740	-328	21112	-5023	-20268	2280	-16756	-16076	18572	-6418	32767	3378	-17176	-20824	-3664	-13257	13770	-2841	-11616	-7304	4848	-21733	7889	-8559	117	127	1
-7020	-11356	15812	6642	32767	22051	-27512	11776	9624	-6894	24412	5332	-20760	16748	18764	-6539	-12929	4863	-17960	-19196	19312	-3512	19590	-14922	-21164	-3104	-6652	-11557	14183	4082	-18636	-15060	2780	-5379	7232	-727	118	128	1
-12364	-5800	14508	6461	32767	20773	-26968	13808	7472	-21028	28312	2080	-22732	14724	11044	-14857	-16341	10313	-25320	16836	11104	919	14263	-4603	-23296	-2288	-4092	-3862	16012	5588	-20144	488	-7744	9347	11707	1163	123	128	1
-32768	-5516	7408	-846	32767	25380	-23956	-2564	-12636	-19909	32767	3194	-22080	1400	-4016	-32768	-15767	10645	-11548	-5004	16104	-7214	6518	-7502	-17056	3952	-5980	-9383	12416	6141	-17508	17628	-8504	5857	14549	8786	116	124	1
-32768	-11276	14292	848	32767	28413	-30044	-2124	-8124	-5068	26537	6229	-28036	-11520	-14716	-32768	-16466	3321	-15720	8248	11360	-5938	3355	-4220	-17884	1776	-4488	-6189	10621	3904	-15064	5040	-4684	-4827	11684	9192	128	135	1
-26352	-14288	25352	-6812	32767	25575	-22220	1936	-7196	-3317	22537	6290	-27640	-15616	-16860	-7144	-21390	-7139	-13816	3084	11820	-4365	2028	-3561	-17272	-2428	-3404	-1254	9880	3122	-16428	3068	-4596	-3782	9893	4471	132	141	1
-32768	-2024	13716	-4099	17183	23394	-13340	4756	-11860	1386	12129	4731	-26404	-9188	-5828	9930	-26881	-5366	-12604	3588	12292	-3457	1148	-3281	-17840	-112	-3280	3500	9254	3058	-16924	5080	-4008	-26	11496	4172	129	132	1
-17644	-12972	17956	-11075	-22734	-1604	-8200	-1144	-5556	-8097	5982	4063	-24032	-2548	-3752	10176	-24508	-3528	-12676	3320	12068	-1902	63	-2402	-17568	-132	-2500	3341	8072	1850	-16624	3576	-2144	-3872	8869	2126	129	130	1
-852	-16016	11820	-8360	-30535	-6926	-9840	-540	1304	-10579	-1746	-3331	-22624	-4700	-5232	3879	-21440	-6879	-11956	3148	12180	-1010	187	-1441	-17328	-1684	-2280	1101	6652	1027	-16752	0	-936	-7850	9549	2874	126	121	1
2068	-11272	8672	-3045	-28716	-10298	-7576	-1972	360	-5482	-11242	-5382	-19080	-5192	-6652	4670	-19215	-7960	-11560	3152	12024	-51	219	-603	-16928	-2572	-1480	1261	6178	1075	-15488	-2540	-740	-4453	9427	4003	127	119	1
-2392	-8508	6996	-502	-27326	-13487	-5872	-2012	-1220	3624	-20217	-5613	-15516	-3536	-8000	10060	-16612	-7818	-10952	4440	11608	297	332	-122	-16168	-2516	32	1648	6036	1223	-15336	-2968	-120	-884	10907	4847	128	130	1
-6172	-7540	7900	-95	-30470	-18142	-6108	256	-3888	8107	-27693	-5957	-13112	-2632	-8336	14121	-15192	-7014	-11548	4072	11420	399	168	-667	-15684	-1368	-824	1960	5788	1303	-14096	-1568	752	3974	12003	4906	118	127	1
-9648	-6556	9344	-928	-32768	-22866	-8432	2932	-4872	5452	-32768	-6704	-12740	-2576	-7260	15591	-14678	-5623	-11616	3784	11372	534	71	-654	-16528	-2020	888	4335	6224	1439	-14696	-532	588	6738	12636	5306	122	130	1
-12452	-5688	10820	-2330	-32768	-26105	-10600	2708	-5516	1689	-32768	-7930	-12116	-3912	-7068	17389	-13643	-5134	-11820	3708	11440	327	-289	-2902	-16116	-1088	-752	3520	5876	1753	-14748	-928	872	10350	13781	5966	126	130	1
-15212	-4040	11144	-4675	-32768	-27796	-12708	2204	-4612	2274	-32768	-9035	-11304	-2576	-8964	23474	-11298	-4539	-10824	4940	11372	-62	-464	-3405	-16808	-1000	-48	1622	5950	1471	-16052	1196	1552	10978	14434	5471	123	133	1
-16164	-3136	12016	-7350	-32768	-26103	-13440	5012	-4472	1463	-32768	-10011	-9144	1120	-9548	27406	-10315	-3148	-10136	6008	11140	-1259	-238	-4354	-16740	-932	1156	-235	6250	1566	-16784	1940	1020	6544	15625	6289	124	131	1
-17792	-4316	13624	-9232	-32768	-23956	-16768	6984	-6680	-2240	-32768	-11182	-7060	3572	-9556	22020	-8028	-2533	-9804	5816	11528	-2631	287	-5213	-16444	-1248	944	212	6752	1766	-15408	340	1524	2835	17532	6436	123	130	1
-20288	-4244	16908	-9859	-32768	-23074	-21312	8928	-7708	-6030	-32768	-11995	-6952	5076	-7312	11338	-4209	-1463	-11228	7464	11608	-5307	-116	-6084	-17272	192	760	730	7920	2634	-15368	-680	3364	-5000	18507	7477	126	132	1
-21412	-3672	18004	-10397	-32768	-23084	-25920	11016	-10896	-11834	-32768	-12898	-8116	6976	-3880	3083	-1821	-473	-13408	1372	11972	-6020	-1379	-5890	-14960	-1096	-1344	-599	9823	2374	-17696	500	3020	-7017	17273	8370	129	133	1
-32768	-4	23304	-17299	-32768	-21718	-27324	11112	-11820	-13137	-32768	-13390	-11332	5868	2268	3296	-2792	-472	-11372	1548	12588	-4366	-215	-3809	-17372	-1496	676	-898	12194	1926	-20196	924	1608	-4544	11206	5941	127	133	1
-32768	8360	9336	-11692	-32768	-21651	-31472	9888	-18012	-12711	-32768	-12956	-15988	-4668	10420	-3032	-4120	-4363	-11928	1416	13048	-3968	736	-4847	-16996	-320	232	-3804	14094	1579	-19364	-1140	4404	-664	7273	4191	125	133	1
-32768	-6928	2168	-13874	-31394	-17948	-16996	11392	-25784	-1388	-32768	-9726	-20484	-2012	18044	2507	-1248	-8556	-12384	2972	13440	-3413	3127	-5669	-18132	-912	-672	-3319	16615	906	-17776	-1500	5236	-324	8276	4886	125	133	1
-32768	14628	-15140	-8253	-22008	-21346	-15148	9616	-25264	-6342	-19624	-7208	-13580	4404	25028	1755	-253	-6869	-12736	3360	13976	-4659	5765	-8492	-18704	-832	-1096	-3051	16904	913	-17592	-2464	1548	4809	8370	5176	118	131	1
-32768	29460	-26632	-8159	-9882	-12929	-4632	6620	-23944	-3992	-4279	-5382	-13800	4356	24872	-9121	2154	766	-12528	1808	15800	-5802	11067	-8908	-20296	-4168	-3820	-3638	19659	271	-19752	300	-940	6835	5030	2346	121	130	1
-32768	12156	-27256	3868	6061	-4009	-9764	6220	-21588	5189	8957	-35	-15972	-4024	18920	-6475	-2791	1375	-10980	1476	17348	-7129	16486	-10860	-22132	-4148	-4256	-7365	19564	-5	-21016	1084	52	6853	1854	921	112	129	1
-6052	5956	24668	15167	11835	7416	-24892	400	24764	-5955	15704	8646	-19476	-8724	3428	-3262	-219	-1576	-9764	2292	18548	-8595	22081	-10918	-24868	-5580	-3148	-8237	19902	-20	-22572	1164	4012	6635	-1099	-418	124	130	1
-26520	14172	9772	587	20781	19787	-15720	15116	-5448	18929	8816	-1229	-22704	2364	4148	-6668	6232	352	-9320	5428	18092	-10171	29128	-12759	-27828	-8420	732	-5550	21059	762	-26548	-1084	12492	3853	-9149	-1799	125	128	1
-10940	7856	19904	-3599	24043	10437	-16072	14892	3056	4873	18522	12224	-21500	144	20388	13330	-4848	2927	-6992	7124	20600	-13885	32767	-20989	-31544	-13732	10816	1089	24151	2592	-22432	-13860	13660	-3268	-15322	-8185	125	129	1
-27576	-7316	15364	-1934	14986	14948	-27976	6544	-7684	-2360	22432	-725	-8996	12048	6920	11157	14254	8779	-7780	7564	23176	-17576	32767	-23069	-32768	-19880	17752	12073	27294	3870	-25380	-19272	15252	730	-18020	-15515	126	128	1
-16172	-20696	15188	4054	12995	7026	-22400	-5572	-3788	2133	20231	2468	-17116	-6128	-11536	-13776	13074	2926	-32768	1724	10548	-15181	32767	-32100	-24828	1880	-9360	8746	29036	4469	-19008	-5396	5668	15137	-13035	-15176	121	129	1
-14792	-2484	13764	9627	5332	10120	-21452	-7004	-6696	4233	19529	2221	-9760	-17044	-9604	-12424	13554	-4334	-32768	8380	5004	-9763	32767	-32024	-31548	5012	-15708	2	28113	2941	-22820	4464	-10164	32767	-7820	-13666	126	129	1
-13736	-4720	13764	7066	1975	8430	-15816	5596	-7628	11061	9085	2207	-17564	-6140	-9632	4349	9182	-4052	-32768	5340	23796	-3907	32767	-32768	-21300	3884	-4888	-8614	17956	5349	-30232	-1076	-14976	30061	-15209	-2559	131	132	1
-13080	-1052	13204	5129	566	4515	-17480	11256	-6348	2573	9268	1969	-18500	1520	-4868	1069	10092	-4289	-7864	17052	25456	-211	17120	-23717	-18120	548	-8852	-4388	12816	3719	-31604	2624	-12988	11528	-26851	6237	141	135	1
-12264	-944	13808	4510	551	3783	-16756	7448	-3896	-6266	10837	-2	-15932	-2788	-1808	-684	13797	-767	-20964	13484	23852	7489	-17702	-1567	-10096	-364	-1716	4792	6523	1669	-27040	2128	-2176	6622	-32768	713	131	131	1
-10400	-3504	11988	1249	712	434	-17060	1684	-2340	-6088	9693	-278	-16368	-4940	32	-1317	14306	1450	-2412	14704	16840	9500	-25154	7911	-10604	-2464	3284	7675	-3775	752	-25276	2368	-5092	8043	-24674	2337	125	129	1
-10348	-4052	11564	1075	419	336	-17420	-328	-1232	2205	6156	337	-15288	-4480	872	389	14086	2413	1044	11732	12452	7230	-24801	11277	-7012	1636	792	6634	-12513	625	-20040	2924	-8572	8382	-19419	2489	124	116	1
-10016	-4256	11432	1004	-63	391	-16492	1752	-1244	8038	3608	894	-15668	-3956	844	4132	14542	101	-5116	6332	10364	6750	-27267	13264	-5856	2484	-1892	3685	-20051	-1070	-16820	3312	-9524	3521	-17803	3019	121	115	1
-9524	-4068	11604	464	-278	543	-15544	4996	-1064	4861	4423	598	-15140	-640	1336	4949	15185	-1718	-6540	3916	9916	11221	-30438	15584	-7552	736	-2636	3765	-26906	-2355	-14196	4340	-9792	-2898	-17421	2612	118	116	1
-9608	-3908	11560	182	375	831	-14920	4092	-992	-2886	7401	170	-15016	840	2668	-965	14565	-593	-9628	3012	10036	15127	-31772	17794	-7288	-428	-4124	4854	-32768	-2684	-11472	3612	-10200	-6651	-16176	2131	123	119	1
-10116	-4500	11312	242	617	1342	-16320	1300	-1472	-5272	8822	221	-14672	-844	1840	-8129	17023	-1319	-15120	2392	10376	18082	-32768	20984	-9276	244	-4736	7957	-32768	-2701	-8096	3428	-9872	-9321	-14385	718	124	126	1
-10224	-3676	11732	456	301	1587	-16640	2568	-808	-2334	8333	1183	-14728	-1440	1756	-7228	22298	-1899	-13768	1420	10952	20650	-32768	23862	-11168	-1648	-4220	8593	-32768	-3268	-7276	4780	-10588	-14026	-12267	27	126	126	1
-9988	-3436	11920	447	446	1427	-16324	3144	-1328	308	7331	1389	-15092	-392	2084	103	23551	-3455	-16540	688	11544	25114	-32768	26813	-15560	-1760	-5364	6634	-32768	-2470	-6576	6028	-11924	-18620	-10728	35	125	120	1
-10312	-3416	12164	223	646	1452	-16528	3700	-2484	-915	7187	1486	-15892	-1640	-1144	2090	20301	-3249	-19236	-296	14384	28288	-32498	29113	-20652	-2540	-9924	7806	-32768	-2665	-7868	3624	-10984	-20613	-10613	-492	121	120	1
-10896	-3404	11664	-29	1033	1210	-15376	3336	-2332	-4144	8097	1510	-17144	-3812	-3388	863	14768	-2948	-32768	2648	17160	26855	-27398	27187	-23848	-740	-12992	7154	-32768	-3167	-9368	-2572	-6804	-18252	-11250	-1710	124	118	1
-10532	-3860	11488	19	1080	1408	-15580	1896	-1564	-2718	8352	1633	-16844	-4180	664	-1054	11699	-2602	-32768	-3172	20412	23120	-30630	27204	-29316	-5952	-13876	12976	-32768	-2360	-9580	-6960	-4008	-16582	-11749	-3079	126	121	1
-10392	-3812	12156	93	1024	1980	-16920	1312	-1176	431	8726	2531	-17492	-1888	4100	-3405	12292	-1741	-32768	-7840	12268	22487	-32768	32767	-26204	-2300	-20064	21084	-32768	363	-10328	-4868	4816	5041	-7231	390	122	123	1
-10236	-5088	12372	491	2260	2860	-17100	1040	236	214	10646	3261	-18616	-2900	5328	-4064	10866	-2025	-32768	-14316	5384	18678	-32507	32199	-26492	1980	-20208	15500	-32768	997	-16788	-3408	9712	13960	-1056	6396	122	122	1
-10928	-4416	12348	866	3398	4215	-17308	848	352	1543	12807	4354	-18896	-3188	6780	-4819	8678	-2995	-32768	-21764	-5676	16595	-25662	28397	-22904	92	-20916	11402	-28382	2640	-17672	-3360	17184	9691	-2132	5923	123	120	1
-10184	-3812	15708	1942	6695	5863	-19000	3428	68	3645	14591	5522	-19764	-2992	4976	-5428	6836	-2073	-32768	-24648	-19168	9817	-14787	19004	-13444	2152	-24160	4388	-16188	5972	-16196	-2596	22456	1270	107	7840	126	119	1
-11384	-3752	15192	2814	10853	8087	-19220	5404	-1076	6548	16150	6183	-19364	-5020	2820	-5643	5099	-260	-32768	-32768	-24096	7200	-28	9190	-7304	1032	-23864	-713	-1171	5758	-13880	-7360	24800	-403	-736	5066	131	115	1
-11228	-4320	15652	4263	15947	9014	-20272	4436	-2260	8819	17458	6737	-19224	-5868	2100	-3734	3339	1009	-32768	-26768	-15480	535	10011	2856	-9560	3228	-23572	-7794	13339	4500	-15308	-2056	19336	-1353	-4388	4012	122	121	1
-9164	-5052	16280	5821	21252	11111	-22328	5328	-3844	8911	17899	6938	-20104	-3932	1012	-2868	1344	1113	-30968	26656	32767	-20394	6166	-8495	-26160	-23528	18508	-12534	14460	-2087	-12184	2224	-596	-3579	6657	5762	125	118	1
-8720	-4256	15888	5930	21813	11613	-23804	7400	-3484	4992	18650	7159	-22872	-3628	6676	-5201	-3125	2392	8308	17260	15604	-18214	11216	-17754	-16268	-4172	5516	-30193	-2436	9801	-17996	1016	-1200	-13205	21579	7052	114	124	1
-8324	-5156	16148	5824	32767	18654	-27936	7460	5204	-2101	21051	9003	-21908	-1800	18108	-3383	-16883	1929	-9392	-28664	16940	-10027	24639	4354	-11364	-28136	-5652	-22492	9855	-5063	-16156	-10428	6476	-32213	4562	-4688	130	132	1
-6920	-8672	16404	9137	32767	24250	-25196	10160	10132	-6891	24720	7180	-21028	15352	18876	-2995	-16311	7422	-16788	-19200	22256	-3483	21510	-13072	-21552	-7388	-4076	-12330	13254	4758	-18960	-22512	-604	-16915	7964	-2739	120	121	1
-20580	-7116	13652	9584	32767	20642	-27120	7812	5856	-16619	28991	6593	-20244	11480	12564	-17078	-14252	8849	-26192	22580	8456	962	13270	-9445	-23632	3056	-3668	-7001	15213	6713	-16412	-2484	-1928	12228	12553	-989	118	124	1
-32768	-2644	8932	7517	32767	31687	-26904	-3596	-12864	-10261	31794	7776	-23048	-7084	-7932	-32768	-14929	9612	-20080	4944	8028	-12070	6781	-9462	-18344	13224	-4948	-11615	11959	7256	-19948	24680	-4684	8227	10074	8500	125	133	1
-32768	-13344	14772	10927	32767	31536	-30320	-384	-4244	312	25037	10005	-26104	-17200	-17252	-29738	-17601	193	-15484	5444	10352	-10086	5527	-7818	-17980	1192	-5596	-8896	10140	3681	-16680	5828	-6548	-7166	9653	9741	125	141	1
-28668	-15476	24008	7154	29003	27243	-20432	-196	-8264	5869	19638	8812	-25228	-16512	-12420	5052	-23203	-5659	-14512	-1508	13756	-8021	3454	-6966	-17368	-3388	-5736	-772	9873	3781	-15912	-708	-4608	534	8711	7241	135	138	1
-32768	-1776	21748	7104	6778	13729	-13728	4684	-11332	7788	9418	8485	-26636	-9848	-5936	15423	-24553	-4589	-13804	1400	13164	-3971	1447	-3653	-18348	-3484	-4252	6959	10431	4118	-17676	3032	-4028	3749	10726	5937	139	141	1
-11716	-11500	20960	-167	-27795	-6694	-11832	-1456	324	183	1484	8497	-25828	-5396	-3764	13860	-23032	-5829	-12720	2924	12236	-1920	942	-2153	-18092	1224	-3048	6390	8894	3749	-17876	3384	-2856	1969	11449	4479	125	132	1
1788	-13968	12304	105	-28829	-8678	-10976	-556	2252	33	-7392	1606	-22964	-5644	-5656	9580	-20515	-8065	-12212	3052	11940	-1069	635	-1142	-18048	1064	-2068	-788	5906	2463	-14964	2460	-1832	-3087	11241	3080	128	125	1
1564	-10292	9380	3114	-26038	-10020	-7888	-676	176	2204	-16350	69	-19808	-3812	-7572	11849	-18703	-8001	-11868	3332	11644	-379	617	-467	-16968	-1324	-924	-4306	4175	1773	-16800	892	-1812	-5186	11422	2464	127	130	1
-4832	-7840	8472	2555	-26921	-13566	-5820	-572	-3956	6927	-23738	-264	-16128	-2432	-8000	15251	-17272	-6636	-11492	4200	10956	-292	311	-786	-16096	-1164	-148	-1252	4390	2330	-15624	124	-988	-3372	11076	4945	124	126	1
-8976	-8488	9116	1389	-31852	-18938	-6944	1536	-4912	4680	-29165	-793	-14908	-1056	-7836	17889	-15609	-5528	-10884	4696	11256	-377	-267	-2118	-15544	-904	1080	2406	5185	2449	-15124	-672	1996	1091	11021	6060	119	128	1
-11852	-8440	10352	1322	-32768	-22680	-10440	1744	-6816	-1056	-32768	-2795	-13384	-3144	-6732	17599	-14820	-4460	-10708	4972	11444	-601	-791	-3167	-16284	-344	1200	4887	6208	2581	-15072	-592	2984	6307	11126	6711	124	131	1
-14288	-3476	9784	-2093	-32768	-25502	-12628	1292	-4628	-3431	-32768	-3871	-12700	-4540	-8216	20310	-13265	-4249	-10588	4312	11468	-1116	-635	-3471	-16600	-988	848	3962	6429	2529	-15128	-676	2080	9633	13228	7087	119	136	1
-14148	-3096	8696	-7176	-32768	-23423	-12200	3240	-5048	-1124	-32768	-5441	-10136	144	-9008	26775	-12818	-3497	-10820	1952	11664	-2077	2	-3217	-16452	-1188	-620	1930	6542	2656	-15280	-640	1836	10068	13826	7161	125	139	1
-17800	-6192	9360	-9431	-32768	-19319	-14676	3632	-6824	-4073	-32768	-7680	-8336	4100	-8824	24793	-12809	-2374	-10260	4404	12188	-1967	886	-2802	-17248	-1252	160	1686	7034	2902	-15804	-56	-16	5813	14863	7381	128	134	1
-22828	-9688	11416	-7461	-32768	-19378	-17400	3848	-8932	-5492	-32768	-9329	-7036	4272	-7768	15400	-10327	-1487	-12652	2324	11776	-2021	987	-2783	-15788	-1752	-1548	2786	8367	3374	-14980	-1744	2620	-445	14612	8454	126	131	1
-25648	-8324	15492	-7499	-32768	-24640	-21772	7556	-11244	-6065	-32768	-10898	-7900	3920	-4840	6866	-7025	-495	-12656	1812	11940	-1494	1360	-1411	-16732	-2184	-1008	5817	10479	3707	-17692	-168	1756	-11	14626	8325	126	131	1
-32540	-6216	17984	-12820	-32768	-30462	-27316	8084	-13024	-9926	-32768	-12789	-9424	4444	-3736	1749	-3378	-1291	-11980	3000	12044	-1243	1541	-1653	-17200	988	428	3838	10917	3549	-19108	4580	1384	1886	12763	6845	129	132	1
-32768	-3996	14796	-15634	-32768	-31854	-27524	5028	-18364	-8683	-32768	-14077	-11864	2268	-136	919	-458	-1920	-12256	3952	11916	-1684	1876	-2120	-17160	1192	1036	813	11473	2654	-18904	4100	3232	1926	9405	5318	128	133	1
-32768	-2192	6496	-14565	-32531	-30806	-26964	5172	-20240	-5931	-32768	-12781	-13044	-4236	3636	-4637	2040	-4036	-12304	3920	12260	-2098	2285	-3349	-17484	1468	892	-442	12931	2070	-17292	2116	5596	1022	8490	5368	129	135	1
-32768	4084	-1832	-8795	-28339	-27524	-23528	8656	-22896	-5590	-32768	-11022	-19296	-1056	16432	1095	-3601	-6673	-12172	4824	12976	-2218	4293	-4018	-18824	188	-776	45	14959	1829	-17540	-116	4052	3618	8901	5703	126	133	1
-32768	11108	-14524	-5698	-23392	-24650	-15160	5288	-25964	-5314	-21668	-10176	-18584	-4952	24856	4625	-2244	-9774	-9604	4216	15720	-2293	8086	-4720	-19968	-2624	-1460	-35	16912	1359	-18140	-1944	1920	7584	8105	5219	124	133	1
-32768	24932	-24836	-12140	-11802	-15675	-7104	8032	-23716	-5709	-4882	-8439	-11864	1628	25268	-4341	3279	-3468	-12276	2464	14948	-3887	12881	-6177	-19064	-2320	-2588	-3330	18078	1445	-19144	760	340	9182	5386	3300	125	130	1
-32768	20472	-21724	-12468	4730	-5829	-7512	3468	-20752	-762	10863	-2881	-12848	-6180	21412	-1131	-3143	-116	-12140	3300	15076	-5396	16937	-8239	-21072	-1608	-3480	-6089	18257	1355	-19752	2904	-788	7142	3642	2118	121	126	1
-32768	8328	-10544	7077	15785	4250	-10420	6064	-20776	10916	18350	2684	-13436	-7720	9224	102	3246	-2728	-11316	3484	15120	-6216	21447	-8795	-21340	-1968	-3492	-6371	18249	1374	-19572	1676	1880	7910	2678	907	120	127	1
15540	3036	32767	10698	19267	1434	-32768	3136	32767	-7189	12213	4323	-13452	-348	-5356	-1370	15226	-834	-10024	3800	16608	-6918	27386	-9524	-25004	-4904	-656	-3533	19825	2832	-23132	-408	5844	8141	-2954	57	123	124	1
-14800	10308	1492	10934	25232	11760	-116	17204	-10348	32767	3360	-1084	-28344	-580	9316	2794	3771	4520	-6044	3680	17280	-7681	32767	-9618	-25924	-11636	2932	1560	21672	4088	-22668	-9332	15732	2968	-15022	-3022	132	126	1
-16712	696	21608	-1785	30531	-1495	-18952	15696	1840	10371	14621	8617	-12996	4908	12640	32383	1619	2369	-9876	7564	18096	-7093	32767	-10715	-30608	-19388	14252	14521	26053	5350	-16944	-24708	13616	4725	-15704	-13469	136	126	1
-19632	8552	20952	-8574	21009	11568	-21416	13912	-3712	2263	18031	1847	-18356	15496	4624	15801	12888	913	-19372	-1120	7012	-8452	32767	-23102	-28136	-5712	4796	15913	28703	6911	-20200	-14704	11824	14839	-16981	-15956	131	125	1
-20272	-24168	7960	-1556	14181	7473	-22732	-3028	-5256	3971	19090	287	-20248	-144	-3156	-12767	11877	4939	-32768	1512	3920	-2492	32767	-23621	-30148	4752	-11644	6862	30279	6419	-19644	2920	268	32767	-10814	-13416	147	128	1
-26168	-13632	9920	7532	7051	6728	-19256	-6640	-10828	9521	15395	590	-14944	-15524	-7880	-14551	11036	-3520	-32768	6076	15448	142	32767	-25757	-28072	-480	-6468	-713	23029	5505	-31120	5568	-16488	32767	-7061	-5914	120	132	1
-12188	-5880	11012	9490	4263	7889	-15404	3032	-7456	9716	10714	1935	-14224	-11844	-10488	-6473	9995	-6616	-32768	5372	24636	14470	32767	-20208	-20280	808	-4864	-5703	17904	4244	-32768	456	-16644	18930	-21532	4573	132	133	1
-12856	-3184	12712	9582	1181	8322	-15568	4068	-6036	3228	9366	536	-16220	-6056	-6304	1643	10211	-3236	-31632	10140	16732	12461	17815	-18110	-15380	2336	-12328	1574	11044	4356	-27108	-264	-7476	6773	-32768	-1061	134	140	1
-12428	-2672	13412	6538	600	6361	-17568	6452	-3656	803	8095	831	-17604	-3400	-1432	6587	13068	-1915	-21032	15732	20072	15351	-26296	-1141	-8324	1792	-3604	13300	4075	3822	-26204	-4136	-1176	7992	-31195	-3397	133	120	1
-11016	-3608	12756	3518	803	4034	-17660	5460	-2320	1883	7424	388	-17808	-1696	1536	7005	13055	30	-1592	11732	16020	12509	-32768	4339	-8472	-1280	2400	14361	-6160	6225	-24124	-2172	-7164	13405	-21501	-142	131	122	1
-10252	-4124	12124	2941	432	2485	-16308	4168	-1056	5230	5881	-69	-14432	-1520	448	7243	14210	542	3916	6984	11564	12848	-32768	6297	-6512	-2948	1348	9323	-15507	4004	-18464	380	-9528	11358	-18397	1068	123	122	1
-9696	-4508	11804	2158	138	2129	-15936	3788	-1368	7948	4243	-530	-15896	-1144	80	9010	14808	-551	-868	3308	10400	13916	-28884	9429	-5932	-2068	-1624	6455	-23101	2469	-15656	2148	-9276	6081	-17755	716	123	125	1
-9324	-4760	11596	1957	127	2074	-15456	4352	-636	5412	4879	-689	-15436	472	556	9048	15414	-1751	-6104	2380	12088	15365	-29069	13115	-6380	-2656	-3760	5968	-29494	933	-11284	1308	-9316	960	-17266	-643	126	117	1
-9176	-4828	11560	1923	91	2161	-15128	3460	-700	425	6690	-708	-14940	628	1348	4924	15532	-2488	-12308	-1888	13668	18196	-32768	16686	-8032	-3760	-5572	11695	-32768	328	-11124	3568	-8896	-1974	-15674	-1244	130	123	1
-9728	-4404	11692	2399	5	2794	-16316	1180	-1772	-145	7366	-384	-14832	-2132	1400	-1297	17237	-3355	-15364	-4084	13504	24626	-32768	19953	-10660	-3268	-5176	17122	-32768	-156	-9536	5184	-9272	-6592	-13442	-997	132	123	1
-10112	-4564	11928	2124	-161	2689	-16276	2996	-1980	2351	6800	805	-15704	-296	916	-777	21316	-4006	-13056	-1992	12836	28816	-32768	20317	-13456	-3224	-3720	15678	-32768	-256	-8696	5828	-10024	-13551	-12210	-1841	129	123	1
-9844	-2804	12780	1220	453	1825	-16320	6788	-2048	-671	8386	480	-15456	2340	1644	516	23303	-4257	-14428	-564	13560	30979	-32768	19036	-16832	-3952	-5128	10095	-32768	281	-6836	5112	-11608	-18925	-11749	-1888	127	120	1
-10040	-3300	12064	876	1078	1198	-16316	3728	-2136	-1808	8988	19	-15340	224	-356	1951	21197	-4073	-19464	-2056	15168	31299	-30254	19089	-20360	-4980	-10500	10584	-32768	-1616	-6956	2132	-9196	-15573	-10800	-2307	131	120	1
-10336	-3592	11920	714	1229	1014	-15324	2236	-1524	170	8348	662	-17092	-3360	-2608	2750	16080	-3804	-32768	1220	20040	30257	-27189	22799	-24008	-5720	-14124	14456	-32768	-1272	-8720	-2308	-1832	-8604	-13496	-2951	130	121	1
-10576	-3356	11848	527	1264	1461	-15840	2972	-2192	660	8305	1153	-17332	-4008	0	786	12254	-3250	-32768	-4988	21576	24556	-31892	27948	-29808	-5180	-17684	17527	-32768	-1985	-10436	-2952	2436	-4484	-13790	-2315	130	124	1
-9984	-3508	12800	121	1954	1349	-17308	2944	-1804	88	9280	2001	-18224	-3848	3140	-403	11873	-3110	-32768	-10420	13464	21475	-32768	32767	-24304	-320	-19836	20282	-32768	-2484	-10960	3264	6900	9695	-6494	4004	128	127	1
-10004	-4900	12704	335	3147	1802	-17404	1048	116	-520	11275	3066	-18872	-3100	5100	-1375	10878	-3380	-32768	-7480	1580	9898	-32768	32767	-24420	5040	-18408	5722	-32768	-3260	-14488	828	7384	9367	2353	7949	129	119	1
-10292	-4072	13728	1264	4932	3427	-17368	544	752	1251	13012	4078	-19252	-1856	7396	-3324	8863	-3186	-32768	-18064	-11460	3784	-28186	27775	-21928	-1004	-20840	267	-29479	445	-13992	-6508	13600	185	4198	3167	129	120	1
-10516	-5444	13840	1370	8460	5004	-19732	3176	596	3314	15042	5255	-20356	-272	5456	-7578	6642	-2742	-32768	-26360	-19848	7037	-11672	23884	-13272	984	-24320	-93	-15523	4354	-18988	-5632	23776	-8888	1973	1281	129	115	1
-10584	-4600	15000	2865	12275	7462	-19272	3288	-900	7222	16872	6064	-19148	-3656	3668	-7915	4897	-2079	-32768	-32296	-20660	5047	2180	15960	-7548	3324	-23256	-4119	-491	3636	-14776	-7988	26656	-3535	-1157	2056	127	110	1
-10816	-5352	15792	4477	17611	9907	-21248	5320	-3416	9722	17169	6822	-19644	-6124	-376	-6652	3764	-672	-32768	-25500	-15216	-5643	7754	4061	-9264	3500	-21576	-8584	14054	3016	-15580	-1160	18616	-3453	-1968	3404	127	129	1
-8656	-4100	16096	5907	22626	11772	-21152	5576	-3740	9594	17161	6727	-20296	-4800	352	-6090	2133	983	-1344	-4116	32767	-11026	2930	-10511	-22348	-8268	17048	-13745	17831	-1007	-10916	1404	1620	-6143	6611	5873	134	124	1
-9052	-2904	16176	5406	27503	14734	-21752	6704	-2488	5627	19034	6373	-21380	-3172	5364	-7740	-3242	2579	32767	25136	32767	-5106	7804	-7248	-32768	-16200	25208	-12324	-1751	8689	-17692	-4336	-11616	-8212	28756	5105	135	125	1
-7320	-4148	16084	6546	32767	18766	-27348	10268	2756	967	20127	8143	-24272	248	22140	-3628	-17498	2677	26000	32767	25004	-10160	22017	-17864	-2928	-25088	-13812	-19457	8693	-3029	-23088	-16196	7276	-14628	509	-6524	123	134	1
-8032	-8588	15544	7891	32767	19212	-25780	13584	11156	-9745	24388	7943	-19004	18840	18556	-5199	-15068	6040	-19180	-6148	19716	-4792	22427	-7100	-28964	-3612	-3652	-12335	12464	4480	-18004	-15004	8984	-18774	8680	-151	129	123	1
-23396	-7820	12880	7897	32767	20610	-24404	4380	6800	-20483	30113	5941	-19656	12104	13832	-17505	-14289	9458	-32444	15100	10900	4026	20041	-12013	-22612	892	-3744	-5072	15211	4401	-15832	-8976	488	11103	13082	-536	124	129	1
-32768	-7304	10392	7351	32767	31564	-29724	-5476	-9092	-8256	31623	8080	-23072	-5928	-6656	-32768	-16059	8871	-26740	16536	3284	-11532	6921	-7585	-24600	18512	-4820	-7859	13698	8162	-21908	21464	-5232	12046	12370	4886	124	129	1
-32768	-12228	15552	10169	32767	32767	-29484	492	-4024	4409	24137	9739	-26668	-17260	-17444	-32612	-18243	55	-15188	7040	9528	-7724	4180	-8149	-17296	920	-5204	-10972	10291	3037	-17140	13916	-10292	-4258	11988	10503	120	137	1
-26244	-20020	27572	6025	29778	27839	-22176	264	-6576	6532	19429	8077	-26188	-14668	-13880	1424	-23997	-6648	-13620	-172	13108	-9812	1928	-9032	-16344	-1428	-4640	-6946	8224	2768	-13968	556	-4556	-7745	7959	5741	133	136	1
-32768	-2436	21284	7403	9023	16272	-13532	5440	-11912	9398	9401	7098	-27820	-9840	-6864	13789	-24425	-5492	-12864	1964	12964	-6018	385	-7454	-18160	-4080	-3148	1197	8617	2960	-17628	1240	-3060	-3545	8861	4407	128	137	1
-13392	-12952	21664	-2067	-28982	-5786	-11556	-1776	696	-1209	1479	6916	-26480	-2600	-3912	14257	-24045	-6083	-12356	3000	12564	-4454	-52	-6002	-18072	-856	-1876	2914	8674	2734	-17252	1380	-1204	-1735	10034	4470	132	134	1
2064	-15560	13792	-1584	-30935	-6669	-10232	-624	3336	-2089	-7584	-1392	-23092	-2020	-5812	8197	-21565	-7675	-11860	3536	12364	-4184	-35	-5301	-17404	-132	-1580	-1782	6935	2227	-15340	1236	-896	-2532	10532	3813	123	125	1
-260	-10256	10444	246	-30728	-7665	-7060	-856	-548	-268	-15858	-3662	-18424	-1960	-7096	8421	-20256	-7519	-11788	2060	12332	-2752	-237	-3688	-16948	-1892	-1628	-5328	5591	1258	-16100	1316	-1180	-4745	10692	3018	125	132	1
-3876	-6644	8840	-2050	-32768	-10557	-6244	-176	-2408	1689	-23951	-4515	-14940	-1808	-7884	10159	-18263	-6544	-10944	3836	11676	-2449	35	-2868	-16244	-3080	-1168	-2793	5443	1697	-15488	-428	-2776	-6330	11392	4309	127	133	1
-6988	-5416	9428	-7570	-32768	-17526	-7084	3376	-4372	-1816	-29658	-5176	-14556	-1904	-8256	12825	-15810	-5634	-11384	1292	12324	-1648	108	-2475	-15300	-4280	-1620	2884	6302	2387	-15204	-4292	-692	-2408	11296	5040	125	132	1
-12500	-7716	10620	-10021	-32768	-23629	-10300	2960	-6532	-8112	-32768	-6992	-12792	-2612	-7796	14616	-14123	-4798	-10448	3528	11944	-777	577	-1598	-17028	-2308	408	6942	7608	2976	-15284	-3364	1028	5211	11892	5375	127	130	1
-14504	-6192	9408	-9736	-32768	-25931	-12216	1108	-3356	-7577	-32768	-9789	-11688	-1864	-9172	17838	-12801	-3974	-11148	3540	11872	-1806	883	-1992	-16988	440	-388	4951	7443	3429	-14376	180	952	10418	14522	6846	127	133	1
-14824	-4264	10120	-10280	-32768	-25152	-12964	3332	-4628	-3493	-32768	-12025	-9160	752	-10388	23541	-12805	-3844	-11380	2740	12184	-2209	881	-1726	-16248	-1352	-500	372	6905	2129	-15160	-60	-904	7864	16414	7380	124	133	1
-19560	-6436	12380	-10525	-32768	-24915	-17108	4196	-7624	-1693	-32768	-13383	-7812	2548	-10324	20342	-11783	-3102	-11832	2348	12044	-1919	892	-1685	-16716	-2112	-1288	2646	8136	2627	-15836	-780	528	1909	16905	8095	123	131	1
-23452	-7028	16784	-9207	-32768	-27055	-20348	6440	-9468	109	-32768	-13869	-6988	2984	-7932	11295	-7523	-2368	-11320	2996	12036	-1410	805	-1783	-17272	-1408	-824	6880	9989	3362	-16044	480	2376	-3207	18513	9740	127	131	1
-30104	-1244	21276	-14823	-32768	-31633	-24372	11748	-11104	-4979	-32768	-13670	-7112	3864	-5332	2633	-3881	-1535	-11476	2232	12028	-1593	806	-2227	-16296	-288	-152	5299	10581	3268	-18520	1428	576	873	16525	7737	126	132	1
-32768	-1176	22300	-20170	-32768	-32024	-29468	10776	-15176	-13125	-32768	-14990	-9104	5364	-1276	1850	-2423	-1344	-11976	2708	11904	-1730	1102	-1937	-16304	436	1656	2703	11589	2424	-19192	2048	3568	3915	10741	4173	129	131	1
-32768	2224	17176	-19416	-32768	-27732	-28860	7916	-19796	-15787	-32768	-14060	-11880	-3276	2132	-3056	-3297	-2885	-11956	3928	12408	-2325	1231	-3016	-16748	768	1500	487	13122	1751	-18568	516	6372	987	8757	4617	125	130	1
-32768	768	820	-12988	-32768	-20585	-25916	11172	-22112	-10668	-32768	-12798	-18752	-6340	12244	-3023	-2539	-7680	-12808	2948	12968	-1419	2682	-4456	-18280	-412	-392	635	15285	1128	-17348	-960	4424	907	9972	5916	124	130	1
-32768	11284	-8140	-12144	-26787	-17537	-21224	9520	-24116	-13584	-25029	-12214	-20204	636	22768	4660	-3731	-7871	-12080	4260	13600	-2556	4991	-5416	-18732	-32	-704	-422	16915	1156	-17088	-568	1436	5136	9381	5598	118	128	1
-32768	29248	-23056	-15862	-16687	-11126	-5452	7576	-27632	-8791	-10313	-9865	-14612	2372	32767	-5448	-207	-1098	-12120	408	15756	-4339	9182	-7279	-19616	-3992	-2812	-3529	18459	-276	-18856	1020	664	6837	5824	4169	118	129	1
-32768	27660	-27144	-12946	-392	-6651	-3652	5772	-22240	-2173	9369	-826	-13424	-2252	25104	-6037	-5419	1621	-11404	1376	16516	-5750	14043	-6895	-21056	-3804	-4300	-7548	18963	-608	-19304	3004	-760	4760	4222	1722	115	128	1
-23668	-3464	2020	20619	8835	4441	-18412	4144	-156	-3290	18272	4949	-13952	-5652	10172	-2920	-1577	-173	-10740	2604	16780	-7111	18843	-8194	-22748	-4168	-3940	-7948	18950	-100	-20172	2940	36	5662	3852	-115	113	127	1
19220	-21756	32767	14302	16561	10146	-32768	-3428	32767	5735	7628	2589	-17928	-1452	-5796	-3266	12755	326	-10664	4000	16908	-7793	24905	-9255	-25432	-4116	-648	-5964	20034	115	-24676	960	4588	6717	-1032	-709	120	127	1
-23720	23648	7580	12545	21959	18818	3372	21208	-14400	32026	5201	219	-26400	-3644	9664	3240	978	-162	-7748	4144	18252	-8637	32549	-11907	-26436	-8596	3636	-2473	21969	900	-24432	-4592	16128	1457	-14006	-2212	124	128	1
-13284	-1488	20216	-1337	27316	2804	-26648	18084	44	6420	17379	10885	-15200	5464	9684	29284	1303	2424	-6788	7820	20856	-10028	32767	-14278	-31080	-20240	12864	7058	26106	2335	-19300	-23176	13764	531	-15130	-10853	122	126	1
-24728	404	19312	-4985	18741	11935	-22812	6560	-5208	-186	19983	1376	-19812	13924	3388	4682	12139	3637	-16456	4828	19548	-12097	32767	-21768	-30612	-12724	14368	16733	29916	4022	-19876	-19228	16144	7205	-18042	-17185	131	123	1
-18336	-22196	8640	1386	12769	5949	-21404	-2616	-4028	4248	18601	1090	-18068	-6596	-7324	-16448	12358	3455	-32768	-6156	4692	-5114	32767	-27531	-27684	6220	-11800	7532	31928	3413	-19588	4168	1912	28230	-10984	-14830	131	129	1
-21936	-11048	7252	8615	6892	7286	-16232	-6612	-8752	9826	14085	182	-12540	-15804	-6260	-9293	13207	-4870	-32768	13928	11376	-10431	32767	-32768	-30400	6684	-7244	-5207	25180	501	-28152	10100	-14328	32767	-6873	-9586	131	130	1
-11864	-3896	11688	8423	3230	8334	-15540	3416	-6460	10030	9760	1873	-15748	-8352	-8376	-991	11261	-5137	-31468	10324	26620	-1441	32767	-31115	-21280	312	-2620	-15609	16086	717	-32768	128	-16468	14341	-19432	3326	131	135	1
-13156	-1744	13680	7276	2668	7110	-16744	6576	-6120	2751	9401	859	-16988	-2312	-6416	164	10716	-3706	-31196	12408	27952	475	32767	-29766	-16992	1752	-11644	-9699	10270	608	-28536	1944	-9732	3097	-32510	2519	145	137	1
-12620	-1448	13192	3956	739	3626	-17308	7384	-4552	-2292	9224	450	-16984	-2084	-1468	3023	13648	-2125	-25472	13300	20588	4732	-21271	1182	-8788	1852	-4448	1944	4465	-1375	-26160	-1968	-412	2410	-32387	-3079	136	124	1
-10904	-3220	12820	1847	634	1443	-17680	4292	-2328	-1967	8196	-205	-17268	-2052	-276	1893	14938	1681	-3344	13072	17144	4909	-32768	8905	-10300	-1664	2848	7771	-5171	-59	-25284	772	-5948	8084	-23186	610	127	123	1
-10448	-4828	11612	994	505	588	-17204	1408	-1144	2428	6125	-420	-15828	-3172	356	2175	14982	1322	3032	8632	11876	6292	-32768	9778	-7320	96	1936	6483	-13441	-1265	-20416	4012	-8988	8101	-18803	1731	125	122	1
-10088	-4512	11336	745	294	465	-16236	2200	-952	6393	4166	-251	-15400	-3052	1252	4008	15422	-1034	2444	8508	11308	6673	-32768	9520	-6284	2812	-1368	5016	-21324	-2673	-16728	4076	-9764	1714	-18118	2291	121	118	1
-9032	-5512	11204	539	629	667	-16028	3040	96	2855	5109	-154	-14948	-1472	1576	3992	16256	-2327	-7160	4440	9484	11299	-32768	11018	-7136	1384	-3384	4155	-28286	-3727	-13964	4088	-10204	-4920	-17554	1659	123	118	1
-9056	-5344	11208	855	849	1647	-15368	1572	32	-2952	7399	-342	-14420	-1684	2716	-1811	16103	-2903	-11516	2608	9728	16222	-32768	14916	-7876	-712	-4884	7888	-32768	-5012	-11516	3896	-10208	-7974	-16391	606	127	122	1
-9600	-5792	10856	1683	832	2752	-16660	-968	-656	-2566	7599	443	-14776	-3300	3464	-3890	18080	-2904	-17252	2468	10180	19999	-32768	18927	-9444	-308	-5904	12350	-32768	-4219	-8624	3748	-10108	-11208	-14147	-151	127	124	1
-10544	-2888	12116	1955	193	3017	-15800	4064	-1604	-94	7515	1013	-15772	80	3504	-875	20409	-4199	-15160	1620	10868	23034	-32768	22672	-12348	-1876	-4512	13345	-32768	-4227	-7412	5004	-11004	-17117	-12364	-1187	127	123	1
-10420	-3144	11896	1375	361	1844	-16208	4528	-2124	-618	9225	818	-16108	380	16	-2199	19132	-2979	-14568	708	10444	28146	-32768	25875	-16636	-2948	-4528	11257	-32768	-2394	-6132	5448	-12500	-21494	-10904	-917	125	124	1
-10296	-3460	12156	894	841	1278	-15824	3736	-2128	-1345	9588	731	-16316	300	-3652	-2844	15362	-2377	-20240	2936	12896	29805	-32548	25490	-20488	-1148	-10000	11626	-32768	-1537	-6476	1352	-11192	-20327	-9971	-1547	125	127	1
-10688	-4144	11484	585	1161	987	-16504	1872	-2448	-2431	9656	794	-15872	-2656	-1568	-2060	13364	-3514	-32768	6012	18552	24367	-27470	26128	-26432	-2148	-15156	5366	-32768	-2266	-8188	-4756	-4516	-12423	-11517	-2741	126	123	1
-10532	-3872	11248	417	1454	1554	-15932	1516	-2272	-1799	9347	1230	-15184	-4124	836	-3641	13539	-4310	-32768	-4632	20180	21071	-30976	31486	-28868	-6796	-14448	11086	-32768	-3663	-9908	-6276	-1408	-9709	-9841	-3347	127	123	1
-10260	-4768	11852	400	1602	2167	-16812	116	-944	-735	10014	2030	-17896	-4012	2620	-4732	11037	-3791	-32768	-8044	18780	21067	-31666	32767	-26976	-1408	-19728	17440	-32768	-1787	-11892	248	5332	4315	-6320	2539	123	126	1
-10296	-5160	12304	687	2696	3204	-16992	248	220	125	11581	2790	-18916	-4560	5692	-3891	8752	-3935	-32768	-9600	4064	7959	-32717	32767	-26084	2120	-19648	6834	-32768	-2119	-17364	-956	9288	6656	-914	7689	125	122	1
-10912	-3936	12836	1033	4178	4222	-16860	504	172	1420	13780	3952	-17952	-4652	7564	-6812	8017	-2715	-32768	-20588	-9772	4471	-26686	30410	-21140	1684	-20924	3070	-28893	227	-17712	-1980	11408	5989	-1336	7649	126	124	1
-10448	-4604	14508	2007	8075	5219	-19408	2620	-304	4163	15434	5228	-20220	-2252	4652	-7096	6170	-2370	-32768	-25580	-23244	6415	-12412	21172	-13180	1700	-25024	38	-15576	4881	-16796	-7472	24564	-5949	959	3616	127	120	1
-11156	-4820	15348	2729	11833	7641	-19744	4292	-1912	6598	17711	5739	-20304	-3344	3452	-6977	3545	-1521	-32768	-32496	-24608	7355	4138	13249	-6716	3820	-23756	-2963	757	4991	-14524	-7264	26764	-2031	-3349	1691	127	119	1
-11596	-4544	16032	3810	17163	10003	-20856	5644	-3648	8126	18695	5829	-19608	-4584	1260	-6494	2353	-569	-32768	-16080	-13636	-7232	10261	4933	-12196	5036	-12476	-7047	14424	3296	-16628	1292	16428	-2953	-3668	2730	127	125	1
-7896	-4516	16516	5064	22002	11194	-22272	6236	-3876	7326	19094	5447	-20292	-3824	1248	-7415	752	911	-9916	3612	32767	-12661	11198	-13701	-32768	-20696	32767	-13665	7734	-3066	-17168	348	1240	-7976	5651	5943	124	123	1
-8872	-3468	16968	4715	28372	14804	-24136	6624	-1948	5283	20185	5689	-23128	-3304	7456	-9107	-4628	2104	-11240	-15560	1544	-22649	13033	-21255	-7108	-8132	-10428	-32768	3052	8415	-20648	-8564	4688	-14276	16461	4696	131	122	1
-7492	-2996	17092	5238	32767	17843	-27924	10340	5140	-1058	22132	7222	-21684	-1172	23336	-4769	-23776	2102	-15132	-14864	23264	-5094	31394	10	-3596	-10788	-14056	-32768	5004	6203	-12292	-6980	2356	-26506	10801	-2457	120	125	1
-6852	-11092	15576	7765	32767	20474	-26932	12176	11472	-11610	26406	4831	-21088	18500	14092	-9003	-14562	7667	-13852	-13716	18860	74	20084	-12891	-21540	-6416	-5276	-10878	15333	5466	-14596	-12220	-152	-25694	10253	-1721	124	126	1
-31168	-9632	10632	4261	32767	22179	-24504	4164	-772	-19813	31290	2238	-21248	10880	9508	-26491	-13813	10016	-22776	16776	9692	376	16248	-7633	-20988	1888	-2920	-6462	15147	7599	-17880	4172	-6728	13052	9611	-299	122	123	1
-32768	-2740	7472	2116	32767	29546	-23984	1568	-6868	-18955	32107	2200	-23792	-5852	-12864	-32768	-16940	9143	-15552	656	11772	-12245	4092	-11982	-20088	12188	-6980	-14796	10901	7457	-20784	24996	-7108	5598	10883	8360	137	140	1
-32768	-11400	19196	151	32767	28223	-24620	2344	-6616	-5881	24934	5857	-26592	-15576	-18076	-28460	-18490	-1646	-15356	8024	10080	-9469	2795	-8397	-16444	-340	-4664	-11527	9008	4040	-17384	4564	-6372	-12532	9529	10158	124	143	1
-30020	-15240	24668	-8885	29487	20659	-19624	-308	-10684	-1103	20540	5754	-27008	-13968	-12036	4058	-23704	-5479	-14112	-668	13236	-6298	686	-7108	-16628	-5624	-4872	-2395	9775	3552	-15596	-1844	-1192	-7124	7584	6221	135	150	1
-32768	-13668	25388	-8205	-4152	7105	-13264	1084	-12320	-2189	9745	3271	-26832	-4908	-5112	12569	-23837	-4267	-12864	952	13004	-3635	486	-4085	-18564	-3052	-4008	6533	11255	4280	-19300	-368	-620	-1313	9069	4814	127	134	1
-4380	-16232	18976	-10697	-31535	-4648	-10264	-948	2300	-9305	1499	1035	-25048	-972	-4008	7398	-22007	-5682	-12352	1640	12184	-1434	329	-2494	-17676	-436	-2660	6934	10461	3397	-14548	1152	-636	-752	11028	4641	131	129	1
4052	-13048	10728	-7804	-30438	-6105	-8932	156	3720	-7202	-8140	-5585	-20824	-2288	-6160	3282	-20413	-7245	-12016	2828	11776	-1152	247	-1826	-17560	596	-2104	1121	8080	2228	-16192	2848	-1908	-1379	10416	3010	125	127	1
904	-9880	8508	-6007	-27055	-8720	-6244	-312	600	-2951	-16070	-7633	-16928	-1612	-6632	5632	-18493	-6405	-11600	3456	11452	-1485	161	-1751	-16792	-876	-1604	-3650	5995	1302	-15720	784	-1376	-5427	10127	3437	127	134	1
-5040	-7844	8848	-6900	-28274	-14816	-5664	1180	-3128	1838	-23607	-8581	-13740	-352	-7336	8689	-16024	-5600	-10560	3596	11896	-1336	-29	-1668	-16008	-3640	-1260	-2121	5422	1616	-15500	-1564	-1972	-4710	11419	4613	126	130	1
-8588	-6968	10752	-7755	-32754	-21978	-8436	4152	-4952	-1976	-30062	-9769	-12584	-2144	-6044	11175	-14559	-4663	-10996	2800	11716	-1237	-60	-2070	-15176	-4456	-1040	3292	6164	2556	-15020	-4764	-528	-143	11783	5731	122	131	1
-12028	-3480	11012	-9207	-32768	-26749	-11636	3680	-3240	-5631	-32768	-11253	-12528	-4792	-7108	14994	-13314	-4088	-10820	4036	11748	-1820	-118	-2236	-16440	-2056	-316	6796	7048	3423	-15064	-1928	1088	6909	12646	5688	122	131	1
-13792	-2432	10944	-10866	-32768	-26940	-12256	4112	-3700	-1470	-32768	-13122	-11168	-824	-8128	22188	-12771	-3787	-11476	2684	11940	-2098	-225	-2228	-16436	-656	-1000	3992	6892	3056	-14540	724	1508	8441	13845	5526	125	132	1
-15628	-2588	12396	-10690	-32768	-24527	-14028	5276	-4892	1472	-32768	-13835	-9528	2188	-8804	22945	-12916	-3099	-10916	2376	11824	-1209	-31	-2548	-16464	-1792	92	-366	6543	2292	-15688	556	180	8321	14507	6021	122	132	1
-17040	-4276	14288	-8490	-32768	-23740	-17016	7908	-6012	545	-32768	-13690	-8296	2164	-8480	16507	-11529	-2719	-11548	2792	11956	-2112	223	-3113	-16640	-1180	-1324	-1192	6611	2722	-17688	516	-128	5237	15437	6400	123	131	1
-21060	-3016	18232	-8121	-32768	-25901	-19260	9468	-8396	-2235	-32768	-13217	-7736	1416	-6652	8401	-7768	-1533	-11992	1612	12120	-1715	544	-3075	-17668	-1968	-3504	986	7364	2502	-15192	224	-204	-635	16713	7254	123	130	1
-28956	-580	22252	-12328	-32768	-29772	-23380	11592	-10028	-7487	-32768	-12700	-8368	2964	-5016	3160	-3710	-1238	-11952	1880	12032	-1538	637	-2341	-16584	-3032	-2820	4286	8730	3244	-14764	84	-1096	-1929	18937	8144	125	131	1
-32768	-960	24000	-14998	-32768	-27283	-30600	10384	-12732	-11935	-32768	-13685	-10756	3668	-204	2447	-2189	-1803	-11936	1760	12064	-1401	790	-2124	-15928	-640	-144	4179	9987	3239	-17196	1180	1796	1497	16197	6894	125	135	1
-32768	3696	17676	-15172	-32768	-21743	-29160	9476	-17628	-11811	-32768	-12398	-14116	-1204	3348	-1279	-3055	-3421	-11340	2856	12336	-1537	1231	-2596	-16416	76	2344	257	10950	1750	-18932	-796	5360	-278	12065	6229	124	134	1
-32768	-1180	-164	-6627	-31591	-13541	-25920	8944	-19676	-7884	-32768	-11756	-17556	-6216	11392	-1725	-1734	-6954	-12332	3264	12760	-1986	2680	-4271	-17952	-232	488	-292	13220	1344	-18828	-2392	5084	508	10250	6326	124	133	1
-32768	14688	-7700	-10351	-30191	-19057	-17088	10828	-25364	-8505	-25336	-9239	-17604	2860	20108	8227	-2583	-6323	-12200	3556	13716	-3010	5096	-6037	-18800	-1944	-628	309	15766	1093	-18804	-1116	4632	3814	8445	6131	123	134	1
-32768	21868	-23300	-12617	-17697	-18834	-7496	8772	-24412	-5004	-11277	-8277	-15092	6496	29392	-1303	845	-971	-12412	1052	15388	-3989	9276	-6973	-20000	-4072	-2344	-2264	17644	30	-19740	-316	1580	6771	6946	4042	120	133	1
-32768	26028	-25944	-7374	28	-14542	-5244	5452	-22164	3876	4996	-875	-14484	500	23200	-5938	-5453	2053	-11536	1148	16588	-6250	13481	-7346	-20560	-4000	-3088	-6513	18368	-403	-20128	1444	96	6154	4586	1322	113	132	1
-7288	21472	-26536	20064	21174	9330	-17196	3908	-20752	17585	11961	4257	-16432	-7660	13368	-1439	-4092	-249	-10520	2568	17108	-7680	18722	-8305	-23336	-4012	-2720	-7714	19236	-839	-22132	3432	2048	4597	2101	-52	123	128	1
-1752	-15816	32767	13438	21838	22627	-32768	4388	23624	17422	5179	199	-21624	-4616	-228	-618	10682	-2141	-9396	2112	14340	-9406	24924	-10376	-26220	-4604	-148	-7661	20199	-844	-24720	2084	6504	5445	-2146	-764	118	128	1
-5676	13836	6420	8157	23821	13230	-1424	23012	-6012	16111	11881	4253	-23944	-1376	13112	5825	-1549	-2377	-7852	3984	18468	-10717	32767	-14725	-26632	-9512	2752	-3063	22185	194	-24576	-3260	17452	-367	-14043	-2951	127	129	1
-30652	-132	22092	-2799	24168	7684	-27008	17272	-4228	4862	18540	6350	-13428	10444	10656	20937	5418	6799	-6896	10472	21472	-12724	32767	-17531	-31700	-20748	13884	7673	25827	1166	-18024	-23172	13336	-1892	-13615	-12329	120	129	1
-25080	-6688	16000	-869	12546	10422	-24540	1492	-7268	-619	21027	971	-21288	8104	-3364	3767	11899	3740	-19664	6048	17828	-15046	32767	-25817	-30200	-6684	11880	15002	29378	3175	-22468	-16256	13364	6054	-17501	-16551	126	133	1
-10560	-6044	11032	3856	10753	6938	-15584	-996	-3328	7407	16365	-167	-14600	-10132	-10416	-18365	15663	-1510	-32768	-404	5712	-11523	32767	-31626	-29892	8544	-11912	4684	31554	2641	-18140	5884	-144	28341	-11395	-12884	129	132	1
-16080	-7996	10484	8885	4811	8423	-15072	-2128	-7224	12120	10395	-160	-11104	-13956	-8968	-6463	11298	-4526	-32768	8776	15164	-12111	32767	-32768	-28716	6588	-3720	-7407	23346	936	-27792	7484	-14100	32767	-10160	-6492	131	134	1
-14692	-4268	13476	6400	2317	6616	-17188	6364	-5912	8401	8397	1016	-19952	-4264	-4860	3119	7175	-2970	-28036	14492	27732	-3338	32767	-31860	-20304	260	-3232	-15898	15263	1506	-32768	92	-14020	13841	-21714	5446	146	136	1
-11636	-1980	13584	4230	690	3636	-17572	9048	-4604	-348	9969	424	-16944	-1056	-3416	-1653	11360	-4896	-32768	1060	17624	-9947	13983	-18692	-14376	764	-11512	-8867	8751	2089	-27584	2188	-7660	5163	-31048	2391	135	134	1
-11012	-2860	12476	2556	1048	1643	-16260	4916	-3408	-4565	9653	-661	-15040	-3224	-1868	-1278	15557	-883	-18044	11464	23372	1989	-23363	6068	-10196	-1788	-400	718	2092	-1682	-25468	-1368	-1924	5192	-30051	-531	131	128	1
-10940	-3168	12332	988	544	100	-17012	2716	-1868	-3695	8198	-376	-16424	-3744	-248	351	14153	1417	-1860	13164	16528	5110	-30833	13604	-10432	-2820	996	1939	600	-1705	-24288	728	-6340	7413	-23092	1697	132	118	1
-10512	-4300	11572	562	488	-204	-17400	432	-860	2025	5960	-447	-16408	-3572	1156	2196	14018	328	-80	8784	12860	5889	-30125	14738	-7848	1048	1156	5587	-15389	-707	-19684	2916	-8916	5538	-20178	2316	129	119	1
-9964	-4548	11500	434	107	-139	-16508	1804	-1012	7058	3786	233	-16064	-2460	1392	3345	15373	-1632	-3624	5896	10548	7002	-30162	14483	-7144	1664	-1216	3633	-23193	-2338	-16120	3248	-9516	-398	-19276	1939	124	121	1
-9712	-4192	11592	395	116	-202	-15396	4304	-1148	5154	4105	239	-14648	-132	2376	2277	15587	-2080	-8060	3760	10280	11618	-31316	15316	-7724	572	-3028	3996	-29690	-3590	-13416	3076	-9720	-5961	-18131	1247	126	123	1
-9544	-4360	11532	240	433	-122	-15004	3180	-648	-1846	6591	-209	-15100	-516	3676	-1893	14578	-1756	-12724	2768	10636	15205	-32768	17441	-8936	244	-4704	6851	-32768	-4166	-10328	4080	-9420	-8809	-16622	1027	127	123	1
-9508	-4600	11288	311	476	371	-15908	964	-480	-5060	7888	-316	-14300	-2568	3632	-4915	15661	-1729	-16704	1616	10872	18543	-32768	20958	-9112	156	-4908	7303	-32768	-4187	-7988	5004	-10276	-12115	-14176	969	127	125	1
-9516	-4716	11176	783	243	1037	-15764	1168	-196	-2745	8174	220	-15148	-3124	2800	-4402	17728	-2773	-17032	1408	11432	21608	-32768	24118	-13248	-1156	-4932	9855	-32768	-5046	-6836	5372	-10800	-17027	-12367	55	128	125	1
-9400	-4392	11372	1019	225	1392	-16044	2308	-364	623	8264	-9	-14364	-1336	1544	-340	19770	-4095	-17788	1016	11720	25490	-32768	27370	-17428	-1964	-5832	6323	-32768	-4527	-6144	5408	-12232	-20926	-10581	198	126	123	1
-9164	-4028	11900	879	483	1602	-15776	3756	-2380	1864	8561	53	-13544	-132	-184	2858	20973	-4140	-24348	2064	13676	27587	-32768	29088	-20792	-2348	-10112	9132	-32768	-4612	-6892	2004	-9760	-19027	-9684	44	129	124	1
-10636	-2688	12116	513	562	1052	-15996	4992	-4172	-372	9200	-141	-14976	-748	-4816	2897	19835	-3702	-32768	6500	16740	22589	-30559	29068	-26652	-1544	-12284	8053	-32768	-4096	-9260	-4260	-3716	-14079	-12824	-2359	131	125	1
-10376	-3364	11912	-15	999	413	-15888	3488	-1540	-4257	9927	-50	-17860	-2840	-1824	2445	15249	-4265	-32768	-3240	19388	16640	-32768	31813	-28072	-2060	-13624	7342	-32768	-3901	-9280	-6132	772	-12572	-12439	-3743	133	123	1
-9744	-5232	11780	163	1351	722	-16696	-2080	2008	-2091	10504	790	-18824	-3604	6132	-2862	9840	-3856	-32768	-8236	12320	18191	-32768	32767	-26272	-1144	-17468	15042	-32768	-4426	-8964	-884	8160	4719	-6245	3307	126	125	1
-9984	-6076	11756	711	1806	2487	-16732	-2388	1352	1552	11713	2468	-18296	-2340	9888	-5509	8298	-4804	-32768	-5920	3020	9965	-32768	32767	-26608	3240	-17732	6112	-32768	-3567	-16672	-1972	11136	5954	359	7637	127	122	1
-10660	-5128	12284	677	2353	4125	-16796	-312	92	252	14847	3887	-18368	-2268	9608	-5835	8426	-4918	-32768	-17244	-10944	3414	-28823	28650	-26136	1700	-18172	4489	-32768	-3282	-18064	-7708	19552	-767	-980	4753	126	117	1
-11068	-5204	13204	660	4645	5289	-17444	1240	-84	1090	18247	5000	-18728	-3128	6020	-12612	4877	-4044	-32768	-30200	-24248	9844	-12461	19460	-10784	-1052	-23568	4142	-13341	5151	-16752	-11096	26304	-6741	1160	3410	128	117	1
-11420	-3936	16504	1985	9595	7557	-20268	4780	-2728	5488	19041	5451	-20484	-5624	2656	-10222	2934	-2719	-32768	-32200	-23704	14364	5085	12899	-6760	6400	-21464	783	5021	5597	-15280	-7232	26660	2323	-3852	945	128	119	1
-11512	-4444	17900	3353	16572	8571	-23472	8128	-2836	6194	20348	6184	-21468	-5856	120	-8404	2243	-1222	-32768	-14612	-14436	-5917	12930	1531	-12712	4236	-17608	-7043	17088	3274	-16436	984	14628	-225	-5585	3383	126	123	1
-10664	-5656	18340	4254	23832	10771	-23248	6568	-3568	7624	21464	5587	-21948	-3160	2968	-8504	-56	967	11084	17988	32767	-14666	12839	-16936	-32768	-17504	32767	-15832	7276	-1759	-15012	3764	-3888	-4343	6604	6537	131	128	1
-6084	-4584	19472	5236	30300	13301	-26512	6520	-1200	7743	21798	5925	-24092	-2440	7620	-8418	-5454	1400	-9316	-22916	1032	-27546	16879	-23357	-7136	-4448	-13872	-32768	2786	7173	-26440	-3076	11576	-18874	3123	3606	123	127	1
-5564	-3872	18436	5557	32767	18445	-28580	11072	3324	2946	23521	6563	-24220	-196	29980	-1278	-28159	2636	-25028	-12480	23936	-7147	29248	653	-19448	-22412	-7232	-24990	12750	-2639	-4388	-5776	6096	-32768	18913	-110	125	125	1
-4684	-11104	18432	7167	32767	21136	-31844	15432	14388	-10499	27104	4437	-23064	16016	10616	-13887	-13895	8462	-18536	-14884	21180	-635	18852	-12424	-22716	-5424	-4872	-13154	16494	6041	-18240	-26680	-4900	-10422	8918	1027	122	135	1
-32004	-10084	13776	5202	32767	23019	-26884	5840	-308	-21062	32352	933	-21452	11828	12508	-21696	-20025	11012	-27668	-9804	16992	315	18948	-13533	-21940	3716	-224	-6624	15466	9371	-17272	6620	-3828	11834	6565	-292	118	133	1
-32768	-1396	5540	2727	32767	30154	-30200	-4612	-11744	-12591	32760	4309	-23428	-3476	-13940	-32768	-19602	9357	-15756	-9192	15532	-9510	3980	-11219	-18016	6676	-5012	-16571	11550	7232	-19552	25740	-10116	7340	10560	9146	127	137	1
-32768	-11784	25684	-1841	32767	26320	-25236	2024	-5028	-8077	25521	6674	-30156	-19144	-18932	-30903	-19026	-2251	-14636	4048	12508	-8696	2049	-9032	-16480	984	-5804	-15013	8952	4357	-19912	21712	-10456	192	9299	10274	128	136	1
7932	-19220	29596	-9464	27345	18296	-19280	-1624	-12968	1685	17830	5695	-28272	-16352	-11312	6767	-25788	-6249	-15524	-216	13980	-4083	930	-5305	-17488	-7052	-5404	-3250	10853	3577	-15936	-1576	-1492	-5493	7292	6925	124	136	1
-20540	-24196	26316	-4723	-15747	5176	-12516	-4276	-9180	-1133	5345	2787	-27728	-3904	-3060	16808	-26755	-5382	-12244	2344	13236	-1451	823	-2903	-18024	-3312	-3052	7117	12827	4562	-16548	-236	-1120	1365	9150	5330	128	152	1
2872	-17112	20124	-6683	-32768	-3459	-10912	-328	5236	-6364	-4288	-412	-24736	-1168	-4364	8976	-23122	-6742	-11176	3716	12460	-840	793	-2246	-17372	612	-3628	5696	11192	3755	-16464	356	-1592	1924	10101	5573	127	129	1
5264	-11940	12184	-6548	-32768	-5579	-7260	1312	3912	-5265	-14580	-5169	-19876	-1740	-6528	5035	-21427	-6983	-10960	2644	12176	-541	657	-1168	-17316	-900	-3668	-1423	7670	2441	-15560	2312	-2716	-2077	11747	4174	126	126	1
-2896	-10208	10552	-6902	-31370	-11265	-7304	-136	-1076	-1970	-22244	-7055	-15920	-488	-7272	7144	-19135	-5730	-11408	2252	12256	-651	599	-823	-16460	-2788	-3540	-5401	5050	2439	-15656	-740	-1216	-6060	11526	4294	129	130	1
-7940	-10796	10692	-6029	-32768	-18665	-7604	1676	-3476	-75	-29849	-8347	-13720	-1408	-7396	11544	-16855	-4702	-10528	3236	11908	-147	647	-87	-16216	-3836	-1736	-2522	5502	3066	-15300	-2824	-108	-4961	12012	4818	125	136	1
-11108	-6788	11772	-5480	-32768	-25444	-10444	3780	-5260	-2806	-32768	-9417	-12132	-3304	-6580	13967	-15178	-3416	-10164	4232	11984	-295	1017	-536	-15344	-2652	-324	990	5985	3343	-15672	-2612	164	-28	12830	5177	119	130	1
-16216	-3420	11592	-7424	-32768	-28961	-13040	3148	-4884	-3746	-32768	-10731	-11204	-4016	-8280	19093	-13284	-3531	-10800	2944	11760	-80	1240	-1060	-16092	-2404	-1688	4445	6803	3690	-14632	-1224	1732	3330	13237	5300	121	130	1
-16784	-2076	11272	-9279	-32768	-29122	-13768	4456	-4168	-73	-32768	-11074	-8808	-236	-8360	24866	-12838	-3230	-10336	2956	11572	-160	1483	-1704	-16196	-2304	-1516	6167	7267	4109	-14612	-1520	1060	2302	13631	5022	122	130	1
-19672	-4140	13444	-8942	-32768	-27049	-14148	4340	-4132	423	-32768	-11193	-7328	3268	-8632	20551	-12271	-2201	-9096	5492	11640	-774	2578	-2751	-16840	-1736	-476	5563	6734	4532	-16152	1012	-1532	2999	15297	5331	124	125	1
-22472	-3592	15968	-7037	-32768	-27413	-19448	8104	-8452	-427	-32768	-10658	-6520	1972	-6984	11703	-9843	-1623	-11808	2784	13284	-1338	2724	-3625	-17356	-784	-2492	2320	5714	4076	-15988	1360	-1144	875	16282	5530	120	132	1
-24520	-604	19688	-10299	-32768	-28601	-21592	11720	-9224	-7287	-32768	-9985	-6464	840	-3980	5382	-7706	-1377	-11644	2756	12608	-793	2620	-2626	-17672	-2172	-3476	2583	5888	3765	-15764	1368	-2824	2297	18795	6741	124	133	1
-32768	-1192	22920	-15312	-32768	-27263	-27800	10568	-13760	-14004	-32768	-11043	-8984	2836	-264	6039	-7810	-1822	-11932	2580	12192	-1085	2898	-2351	-17772	-1928	-2296	6532	6858	3595	-18324	616	-208	7049	19922	9090	124	134	1
-32768	812	17200	-16456	-32768	-23717	-26088	7816	-17324	-16762	-32768	-10571	-9108	3240	8	5914	-7636	-1759	-12012	4560	11632	-1652	2228	-2981	-17972	-680	1956	9350	9785	4517	-17544	-1404	7176	6071	17930	11146	128	134	1
-32768	-3172	7020	-10120	-32768	-19697	-24584	6396	-19080	-11135	-32768	-9742	-12560	-3824	9348	-6579	-886	-3400	-12080	5796	12240	-3325	1426	-3950	-15064	3312	5424	7102	13371	4862	-16296	-4300	12104	8486	14322	12091	129	135	1
-32768	7900	-5744	-5367	-32768	-16963	-19848	11372	-22328	-5857	-30494	-9556	-18444	2024	17936	4391	-2035	-4364	-12780	2532	13056	-3643	2398	-5799	-18384	-252	1724	1680	16135	2328	-19412	-1064	7788	10125	11834	8180	121	139	1
-32768	17864	-15624	-10574	-19748	-16368	-12680	8672	-25004	-6237	-17335	-7952	-15848	980	24028	5263	-1286	-2834	-12792	3440	15076	-5250	5829	-6471	-21352	-2268	-2476	168	19424	2151	-20392	1492	1576	6555	11817	7122	115	131	1
-32768	23348	-21372	-13484	-6065	-10501	-7500	6592	-23360	-4415	-849	-3778	-13372	4916	23976	-5283	-2907	1502	-13612	256	15248	-5377	11606	-6146	-21548	-3452	-2104	-5104	20073	724	-22300	1708	1624	4679	8469	5648	118	127	1
-32768	14512	-17352	-1023	7806	-1157	-8064	4048	-22952	902	13129	1406	-15908	-4356	19116	-4983	-7179	1673	-11732	1976	17272	-7675	17008	-8346	-22580	-4028	-2432	-10750	19734	212	-22952	1512	2288	4611	4520	2514	117	127	1
-32768	13404	-7876	10330	14931	7644	-12912	7504	-21648	10598	21636	5669	-15328	-5772	9720	-246	-2626	306	-8924	3716	18052	-9200	23593	-11175	-24624	-5996	-2320	-9411	20460	1545	-22512	348	2592	6489	2203	504	122	125	1
32767	-19968	32767	3947	26521	7466	-32768	-1772	32767	-10022	12003	6229	-16340	-672	-1500	7636	10306	42	-8300	3560	18804	-11801	30715	-14674	-29220	-6856	1580	-6018	22206	1618	-26084	312	8788	6614	-3819	-1004	111	124	1
-26928	12716	-4260	9985	26974	18771	8008	13860	-21580	32767	4706	-1322	-18880	4168	5808	4213	16489	2701	-4572	3696	19600	-14321	32767	-21197	-28352	-14820	8448	12	24132	2662	-24252	-9140	21132	-1505	-18691	-5785	115	128	1
-14496	-7292	20268	-172	27007	1409	-26972	14372	-1256	6113	15615	11641	-16060	-1592	5192	16712	9819	-2256	-11380	8572	20368	-14053	32767	-20683	-30584	-20604	17500	16096	28942	5769	-17772	-25608	17036	5774	-15224	-16316	118	126	1
-18736	1972	18348	-3069	18521	11623	-18640	10360	-4228	2298	17410	413	-19476	12284	5564	6221	13902	-207	-32768	-2468	9676	-9410	32767	-27496	-27692	180	-6596	14109	32767	6847	-17672	-9692	12148	8671	-18226	-16390	130	130	1
-19068	-15288	10060	108	13391	9422	-20200	1140	-4460	4023	17412	-22	-18428	1904	-260	-10667	11756	547	-32768	3352	9552	-8946	32767	-30959	-32768	5764	-5792	3001	31937	3755	-20444	9808	-4584	32767	-7934	-14723	125	135	1
-14060	-3804	12544	2538	11729	9030	-17240	1120	-5056	7234	14383	300	-14988	-13260	-6280	-12348	13124	-3013	-32768	11896	24220	-4837	32767	-32768	-24388	524	1824	-5592	19534	2078	-30464	5180	-13584	30635	-14046	-5573	129	131	1
-13268	-8964	12684	10570	5445	8515	-18084	-3260	-5576	8676	10944	-680	-16188	-12476	-6084	-6365	10669	-5476	2400	23208	23580	-949	31268	-25736	-19512	6136	-7992	-10490	13936	2213	-32716	3004	-14600	27168	-15850	-2072	132	132	1
-14272	-7508	11800	6579	2706	6455	-16316	6276	-5708	3132	10075	1177	-15644	-5604	-3192	1260	11632	-4582	-32768	13840	23712	2568	-13643	-4017	-13232	5228	-7948	-147	8269	-1506	-29376	4764	-3132	3782	-32768	3754	127	133	1
-12332	-2216	13380	3660	1573	4590	-17148	7416	-4752	-2135	10132	1033	-17096	-1808	-712	2988	14441	-2534	-5968	15872	18368	2892	-32768	6659	-14020	-960	2840	1548	-3817	-2808	-31424	4672	-4756	678	-28491	3658	132	127	1
-10776	-3872	12368	2738	1122	2381	-17580	4884	-2440	-3273	9931	304	-15748	-1416	-892	-416	15090	-34	2544	11496	12752	3357	-32768	10084	-7836	544	1100	303	-13319	-2781	-23816	3540	-8784	1545	-23359	3638	129	118	1
-9812	-4556	11756	2210	862	1839	-16044	2324	-880	-197	8557	-461	-14308	-2368	520	429	15558	42	-4904	8920	9836	4461	-30698	12391	-7676	2172	-1748	1070	-20638	-4991	-18820	1844	-9556	-1352	-21031	4370	123	116	1
-9608	-5164	11516	2229	761	1981	-16312	2012	-1268	5693	6094	-536	-14968	-1768	64	2465	15743	-1319	-9400	7072	8828	8026	-32768	14589	-7656	1960	-3536	2865	-27160	-5857	-15760	2272	-9960	-5899	-20965	3257	126	114	1
-10144	-4564	11688	2013	372	1973	-15724	3660	-2528	6517	5162	-311	-15064	-532	-692	953	16347	-2188	-12432	4912	9288	11109	-32768	17036	-8184	1156	-4572	4090	-32768	-6255	-12508	1908	-9680	-8096	-19314	2125	124	123	1
-9688	-4476	11516	1562	385	1891	-15320	4464	-2124	438	6750	-329	-14932	-436	-688	616	16409	-2178	-19756	2540	10284	15728	-32768	21238	-10160	1072	-6460	7352	-32768	-5589	-9848	1912	-10200	-11766	-17574	1327	128	125	1
-9600	-4576	11540	1395	378	2033	-15752	3468	-1976	-4147	8638	-1237	-14784	-596	640	-4847	17428	-2097	-18340	744	10472	19900	-32768	24747	-10440	764	-6504	8017	-32768	-5467	-7824	2948	-10576	-16248	-15874	245	127	125	1
-9676	-4344	11844	1317	460	1891	-16980	1960	-1500	-2549	9301	-441	-15016	-2076	376	-7175	19968	-1952	-13480	-720	9876	24636	-32768	25575	-14552	-3680	-2768	12159	-32768	-4149	-6164	4144	-11632	-21243	-14372	-740	122	121	1
-10304	-4220	11868	1096	502	1967	-16304	2508	-2028	688	8916	8	-15300	-1892	936	-4630	22059	-3609	-15904	-284	13576	29193	-32768	23449	-18292	-3336	-8204	9843	-32768	-1855	-4616	2972	-12512	-23377	-12625	-1185	127	119	1
-10060	-3832	11564	899	724	1785	-16256	3556	-2320	-221	9050	439	-15356	-1464	-372	-1510	21430	-4379	-27908	-688	17380	30327	-31015	24195	-21260	-1600	-12624	9716	-32768	-3184	-5416	-2692	-8684	-17994	-10822	-2855	130	124	1
-10300	-4256	11852	272	1415	2029	-16176	3044	-1620	-2654	9599	291	-16400	144	-120	-2706	18375	-4063	-32768	1568	23228	25119	-31319	27438	-29260	-8380	-14732	12129	-32768	-2935	-7776	-5532	-4752	-12840	-12399	-4251	128	126	1
-10536	-4568	12336	179	1755	2463	-16412	56	-816	-2042	10474	877	-18392	-3428	3528	-5734	13924	-3392	-32768	-8904	19148	22794	-32479	32767	-26840	-4568	-19448	17449	-32768	-3066	-9448	-3704	5036	-229	-9530	-365	122	128	1
-10432	-5792	12800	-306	2936	3233	-18540	-372	1036	-450	12044	2290	-19852	-4088	8264	-7870	12184	-4742	-32768	-6576	8656	11481	-32768	32767	-28448	5208	-21292	11279	-32768	-2975	-14544	-1432	8084	15580	-2540	6927	127	129	1
-10804	-5132	13412	706	5848	6133	-18676	960	1508	623	14816	3400	-20436	-2420	10592	-9382	11655	-4765	-32768	-20548	-5668	1907	-32188	29635	-24672	-964	-22736	-1251	-32768	-2251	-17256	-6556	13876	7477	1802	7561	124	121	1
-10752	-7028	15612	2565	11283	8211	-21184	104	1940	4481	17579	4619	-21648	-2028	6548	-11013	8789	-3819	-32768	-27848	-22020	4748	-17746	22862	-14980	1592	-26548	-2270	-20316	2586	-18316	-6804	24852	453	-1366	4188	125	119	1
-11668	-3908	16776	4290	16700	12653	-21564	6048	-960	7850	19373	5061	-21408	-5096	5732	-7683	6601	-2822	-32768	-32768	-26312	7399	-1829	14289	-6248	2980	-27428	-4521	-2661	3200	-17484	-9428	29756	-3680	-3837	829	122	122	1
-9516	-3668	17696	5497	22825	12186	-21348	7672	-1464	8531	21378	5296	-20584	-7088	3984	-3577	4563	-1057	-32768	-29084	-18828	-2549	7182	4840	-11072	2668	-25408	-6155	15265	2501	-16160	-68	17240	694	-3173	2977	124	124	1
-7288	-3064	18216	6260	28499	13649	-23900	6072	-328	10606	22016	5113	-23156	-4588	3784	-4029	-2	916	-32768	-5476	21856	-8187	5399	-18157	-25204	-6652	-2552	-13098	18079	1071	-8116	4888	900	-1046	9036	4763	129	113	1
-7264	-4820	18376	8400	32767	19482	-27008	8716	2356	8120	23974	5363	-25440	-2820	15980	-7761	-8926	2439	12352	30620	32767	-4223	11816	-19620	-29848	-11944	22244	-9304	16386	448	-19960	-1184	2228	-16409	19732	4094	119	131	1
-3320	-5084	20444	10384	32767	21155	-32768	15360	8836	-1429	24997	6902	-22252	10948	23584	3050	-21628	890	-13172	-30984	4568	-3471	27289	811	-8220	-26372	-8820	-13191	14376	-3077	-17320	-6816	2080	-10710	12597	-7496	128	131	1
-15608	-4720	13128	3339	32767	10799	-24248	17560	14612	-24233	32767	4452	-19220	23692	11596	-15490	-12501	11208	-21532	-9088	17092	-5406	20591	-13964	-19836	-22752	-1784	-7601	16903	-3738	-20124	-17336	4364	-15326	8193	231	115	123	1
-32768	-7948	11456	-2340	32767	22990	-28468	-5072	-8656	-22488	32767	5097	-23112	1160	-5672	-32768	-19198	10538	-23200	8812	12948	-941	17526	-12379	-20732	-2300	-5940	-7518	16498	6316	-14536	552	-6428	8493	12994	1957	134	132	1
-32768	-17512	21960	85	32767	28124	-32768	-2448	-3380	-3617	27635	8592	-28708	-18484	-21548	-32768	-23149	3826	-32768	27580	9008	-8222	9079	-7511	-22280	15772	-7608	-1313	14864	7692	-18792	16468	-8044	9903	8194	4381	113	132	1
-29408	-20028	30188	-5014	32767	24115	-21256	-2088	-3112	4512	22180	8414	-27804	-21812	-12612	-3621	-24017	-6968	-19124	-2880	13356	-8399	2718	-8900	-20600	1668	-7644	-12138	9630	4130	-20696	16244	-4716	-3721	11495	11907	131	143	1
-32768	-25112	32767	-5690	-1636	6796	-17096	-1548	-17176	6440	9220	5451	-28156	-10440	-6508	17532	-25555	-5936	-15224	400	13404	-5669	500	-5481	-16348	-2336	-4860	-5149	9985	2894	-16788	932	-2468	-7955	10043	6941	138	140	1
-7244	-21580	25964	-3795	-32768	-6204	-14008	-5444	4968	-1586	-1072	4709	-28800	-3244	-5504	16187	-23981	-6587	-12092	3468	12504	-2555	75	-3585	-17012	-4092	-1352	4681	11742	2742	-15216	-1800	-300	-2644	10978	4555	128	150	1
3736	-14912	14888	-852	-32768	-6182	-12016	-372	3804	1875	-13497	-4118	-25220	-3136	-6116	11766	-23797	-7706	-11508	4708	11708	-1944	110	-3642	-17200	308	-2312	6530	11651	3321	-16744	356	-1524	935	13272	5528	126	136	1
-2592	-10912	12048	-1517	-32768	-10312	-10016	1840	-1876	413	-21246	-5207	-19868	-2108	-6416	11088	-22474	-6941	-8112	6304	11004	-2494	682	-4018	-16880	-1420	-488	981	8416	2221	-14680	2916	-3060	-303	15085	5449	127	127	1
-8532	-8776	10176	-4371	-32768	-17169	-7752	356	-4192	548	-29670	-5132	-16416	-1516	-7692	14684	-20329	-6447	-11396	2224	11928	-4720	1597	-5280	-16612	-764	-4172	-5622	4897	2904	-13760	-984	-3064	-5919	14197	4546	131	125	1
-8076	-6568	9492	-6256	-32768	-22885	-9484	3676	-3976	-3011	-32768	-6556	-13812	-860	-8708	16552	-17816	-4689	-11664	1760	12832	-2287	1158	-2800	-16364	-5696	-2524	-3347	5205	2332	-13768	-1120	-2836	-6816	13829	4258	116	128	1
-12732	-5088	9180	-7915	-32768	-25061	-10108	3452	-3468	-6563	-32768	-8417	-11916	300	-10312	16957	-16054	-3793	-10316	4400	11892	-1874	1875	-2772	-15888	-2952	1104	2034	6185	3691	-15532	-3764	-272	275	15675	6647	119	129	1
-16836	-5440	11788	-8201	-32768	-24621	-11996	3852	-6240	-8954	-32768	-11238	-8436	1296	-9980	15009	-15144	-2536	-10360	7012	11760	-3076	2295	-4312	-17232	-16	2512	5333	7141	4568	-15680	-172	2016	8563	15952	7668	119	131	1
-17140	-2748	13408	-10056	-32768	-24349	-14604	5472	-5620	-8779	-32768	-13159	-6204	2324	-10864	12208	-13003	-1667	-12744	3192	12292	-4426	1608	-4813	-17460	240	-2516	2394	7571	3450	-16008	1100	760	9535	18274	10586	124	137	1
-18352	-4396	17164	-11893	-32768	-24502	-18772	7444	-8088	-7587	-32768	-14489	-5180	620	-10448	11229	-10409	-2465	-12328	1452	12436	-2866	852	-3481	-17520	-4220	-3464	5109	9061	3233	-14620	-2592	312	4268	22236	13047	121	136	1
-27684	92	23040	-17049	-32768	-24969	-24136	11128	-10628	-9428	-32768	-14114	-7036	-568	-9728	8479	-7661	-2138	-11512	1308	12652	-1316	1412	-3104	-17292	-3340	-1376	9146	11057	4463	-15316	-2872	3316	-1675	25970	11012	123	129	1
-32768	-1316	23260	-22317	-32768	-24540	-25388	11536	-16436	-18414	-32768	-15470	-9376	3476	-5904	9344	-6374	-2279	-12732	3264	11592	-889	2195	-3177	-15528	1552	2320	8248	13048	4831	-21040	3080	-348	10650	15276	5865	129	132	1
-32768	-400	17236	-19557	-32768	-24174	-30336	9680	-21152	-18075	-32768	-14937	-10076	-1016	416	1527	-7625	-4088	-12104	3348	12436	-1816	3137	-4066	-17612	948	2768	1037	13951	2771	-21760	1660	9264	5130	7832	5408	125	128	1
-32768	3776	3772	-13056	-32768	-24831	-25076	12828	-24440	-9649	-32768	-12872	-14540	-5048	7156	-3107	-5435	-5337	-12448	1748	14528	-2678	6247	-4882	-19696	-2944	716	-179	17047	1310	-18288	-2640	8268	3485	10541	6835	130	132	1
-32768	10236	-9620	-8286	-30270	-25972	-21664	9260	-30176	-5791	-29069	-12112	-19524	3276	20728	2729	-2993	-5106	-12372	3832	15076	-3584	10185	-6311	-20432	-2116	1808	-1150	19919	1842	-19924	-3624	5524	6016	10147	6500	121	131	1
-32768	24508	-23344	-8432	-17801	-23656	-10788	10692	-31572	6560	-17248	-8051	-14684	1064	27984	-74	2293	-1285	-11580	2664	16088	-6514	14931	-8909	-20300	-3076	544	-6730	21622	1446	-20152	500	5892	6118	4724	3384	118	131	1
-32768	29528	-29284	-6537	1449	-17960	-2756	8880	-29920	8727	3155	-1088	-13596	-1992	25668	-1679	-1610	1299	-10196	2268	17660	-9482	20481	-10300	-23520	-4408	-2056	-10980	22485	976	-21472	3876	4472	3240	2650	1532	120	131	1
-32768	17604	-16784	10041	17718	-7180	-9524	5852	-26696	11821	19101	5048	-13608	-5864	15280	2453	158	-1045	-9984	3568	17164	-10787	27875	-12059	-24612	-7184	-104	-8841	23453	2214	-21516	836	7032	5660	153	-1044	133	127	1
19072	-20364	32767	3613	32767	88	-32768	-7000	32767	-6882	11307	10582	-20216	-1432	-5808	3286	15757	76	-7652	4884	20592	-12768	32767	-17634	-30808	-7564	5860	-1980	25659	2855	-26244	-4888	20072	2665	-17227	-3789	120	125	1
-32768	22932	-3904	10942	30663	20771	14512	21164	-26668	32767	6729	-2518	-24164	2552	16936	7625	5064	2557	-7512	8344	20544	-13868	32767	-18685	-31380	-21752	16244	9676	28965	3839	-19828	-22716	15768	-139	-14361	-14062	113	130	1
-23028	1544	22800	-2892	32196	9628	-30780	16100	-1580	-699	22572	8046	-14096	3464	17192	19835	9143	2259	-29572	4644	14988	-10944	32767	-27370	-27568	-4976	1488	17922	32767	6724	-19656	-16596	11696	12657	-11777	-14912	121	134	1
-27364	-15100	12328	-2670	22913	19185	-24656	-1316	-6852	-3435	27815	1454	-20940	19300	3100	-343	10120	2772	-32768	5836	8992	-5756	32767	-28471	-27904	-2292	-5412	17010	32767	6764	-20932	6640	-3736	32767	-7117	-12726	120	130	1
-28572	-20984	10560	-1146	21318	19418	-19124	-204	-8652	11943	20692	2436	-14708	-10800	-12500	-28602	5882	233	-32768	10124	22016	-5920	32767	-32768	-26836	3296	-2396	-5318	22549	3387	-31936	7356	-19720	32767	-13517	-5214	134	133	1
-20104	-18292	3268	14605	8580	12180	-17868	-5960	-12636	10084	18085	656	-13068	-19824	-9744	-15542	4766	-5940	-11832	16948	25524	-11	31391	-28638	-19908	2000	-8204	-12700	15004	2334	-32248	6780	-14148	9166	-27528	4732	122	143	1
-15232	-5804	12300	12151	2266	12958	-15440	5476	-9244	8371	13552	1722	-16576	-11148	-8528	1518	9167	-6118	-32768	14044	24444	7038	-6955	-3311	-13268	-832	-9644	-556	10514	-96	-27616	292	-2164	1441	-32768	661	118	141	1
-12844	-2884	13948	8594	-46	9436	-16924	6704	-7708	-488	13405	395	-16932	-6224	-6788	6110	11400	-2093	-11388	16420	19044	5245	-29185	7979	-12488	-2508	696	4642	481	-814	-28448	-1148	-4236	4882	-27319	573	132	126	1
-12220	-1644	13588	4551	-216	6089	-17972	5960	-4072	-603	12058	-199	-18908	-4220	-5332	7425	14888	-1658	2368	11716	13248	961	-32768	11036	-8260	-1304	948	3420	-9092	-389	-25220	1000	-7792	7742	-21148	2643	141	120	1
-10836	-2372	12724	2971	-733	4238	-17392	3232	-2772	9460	7960	209	-17028	1896	-908	6857	15941	-1804	-1104	6028	10676	617	-29343	12979	-6512	824	-1928	579	-17821	-2625	-20148	2056	-11148	2429	-19690	3224	132	122	1
-10336	-3168	12768	1726	-526	3131	-15968	5356	-1932	13308	6689	626	-16904	3028	2636	6189	14308	-102	-5416	2268	10496	5431	-31396	14460	-5448	596	-3952	-1243	-25611	-4546	-16116	1032	-11692	-3041	-19999	2855	136	126	1
-10000	-4420	12148	1060	378	2371	-16268	4404	-2128	7043	8535	219	-16124	-1096	-268	632	14486	-663	-7480	1808	10912	10635	-32768	17821	-6256	-2196	-4620	2827	-31447	-5963	-13424	1828	-11532	-4888	-18437	1514	126	120	1
-10620	-3712	11356	836	702	2800	-15864	3972	-5368	1037	8859	-294	-15644	-1828	-3056	-3936	16680	-1482	-13616	56	10940	14839	-32768	19974	-6576	-2308	-5460	3920	-32085	-5939	-11644	2168	-11768	-6651	-15771	748	123	121	1
-10376	-2900	12300	667	1631	2585	-16512	3964	-5060	-446	7032	-473	-16780	-2652	-3668	-3799	18468	-1382	-14380	-2900	10868	19650	-32768	22112	-11248	-1464	-7320	9304	-32768	-6861	-9744	3844	-10844	-12172	-14201	132	126	121	1
-10372	-2848	12144	416	1999	1989	-16908	3504	-4428	1235	4545	-97	-17016	-1532	-2568	-2236	20518	-2610	-13796	-3264	11100	20677	-32768	22402	-15044	-3320	-7932	9547	-32768	-7621	-7868	3440	-12960	-21203	-13425	-2271	126	118	1
-10568	-3380	11876	137	2271	2266	-16348	4040	-3352	-19	4159	-383	-14592	816	2016	-4178	20788	-1225	-23728	1128	13532	25121	-32768	20451	-17912	-1920	-10232	13928	-32768	-5937	-7560	2504	-12708	-21118	-13526	-2249	122	122	1
-10684	-3880	11564	88	3274	2526	-15500	2500	-704	-2804	6022	-1005	-16840	-408	6120	-5867	17789	-614	-30240	-24	16696	22284	-32768	17180	-21804	-1844	-15588	14705	-32768	-3599	-8280	-1836	-7992	-15380	-12073	-3231	120	123	1
-10752	-3508	11756	775	3913	3411	-16392	1432	-1068	-1180	7144	-361	-16664	-3988	3924	-4836	15705	-2135	-32768	-9936	16504	26741	-32768	21220	-24628	-7716	-17248	17959	-32768	-3616	-9444	-5020	-6712	-10341	-8920	-3445	123	120	1
-10812	-3168	12208	1169	4774	3623	-16972	2592	-1828	1280	7982	880	-17624	-3540	3876	-3270	13064	-2932	-32768	-6748	13740	25257	-31775	26800	-27180	-2412	-21232	22394	-32768	-282	-8940	-1336	-400	2528	-5499	683	123	123	1
-11112	-2972	11972	1380	5499	3554	-15464	2380	-1568	1166	9755	1643	-15216	-3112	6144	-4088	13239	-2790	-32768	-12708	7312	18218	-32768	31399	-25728	1864	-24312	11840	-32768	-1078	-14932	308	5988	6439	-5871	3270	131	125	1
-11212	-3840	11312	1317	6100	3628	-15176	672	1184	105	12840	2133	-16152	-1808	9336	-3876	12145	-3134	-32768	-16380	-4372	10996	-32768	32767	-25384	1632	-23924	9997	-32768	-1278	-19052	-3652	12504	1377	-6445	2536	128	127	1
-11188	-4792	13364	2518	8726	5859	-18956	640	672	3527	15332	2663	-19624	-2596	10052	-3727	9421	-3088	-32768	-20876	-19836	2010	-23174	30682	-21964	1876	-22432	1748	-31794	-1362	-12236	-4356	17888	-4601	-94	4415	125	112	1
-11120	-3432	14752	3542	12333	7848	-20556	5116	-1060	5677	17437	3646	-20748	-4296	7812	-5228	5656	-2250	-32768	-32768	-25600	4995	-6342	24327	-6620	1164	-26860	-10106	-9122	2055	-13148	-7680	25392	-4751	292	1054	125	126	1
-10040	-1868	15100	4213	16172	8391	-18112	6000	-976	3369	21051	3875	-17900	-3460	10888	-6622	-2037	-997	-31576	-26968	-22488	3996	8047	19862	-7328	2720	-21788	-6921	9423	2486	-11944	-3200	16692	-1309	1733	953	124	114	1
-10476	-3796	14948	5310	20813	10242	-20168	2868	380	3910	24150	4114	-16520	356	16204	-3578	-7280	828	-11948	9812	6016	-8418	17193	-8347	-18720	-228	-7584	-15891	13514	2429	-10476	1656	9904	-5706	2488	3809	137	123	1
-9840	-4936	15628	6554	27736	15696	-24168	4484	-960	4103	25231	4050	-18388	2908	6960	-9167	-8569	2157	3560	29836	32767	-2603	8251	-10811	-32768	-10456	23268	-24689	-2856	6143	-21888	-2460	4392	-15378	16493	4025	143	124	1
-8040	-5560	17420	8642	32767	22148	-31896	10536	156	-2787	25522	4088	-24908	2928	6716	-21616	-11666	4238	1160	-30016	6268	-8254	24217	-9020	-7420	-32768	-6220	-25983	7539	-982	-24964	-11340	8028	-24564	6175	-2724	134	122	1
-10072	-7456	16176	10550	32767	23229	-27540	11920	7028	-14666	26296	1929	-24060	7864	648	-27854	-12059	5456	-28948	-3696	19484	-3378	24060	-14225	-25104	-5044	-6256	-8456	16401	8126	-21804	-32500	4316	-25325	2528	-4267	123	135	1
-9296	-4432	15288	11329	32767	22633	-19732	10500	-7024	-19905	28831	2312	-20164	4044	-4428	-27203	-14195	5664	-18696	16620	9988	-57	17502	-10075	-20804	1932	-4468	-5474	17514	9691	-11440	760	-4200	21283	10549	1063	126	147	1
-32768	-2808	3276	-2964	32767	19325	-20956	460	-15588	-17632	27201	3759	-21396	-10248	-8696	-23584	-17492	4323	-32768	16000	6788	-6610	10171	-8816	-20376	16820	-7296	-4679	15102	8202	-15524	23936	-6572	22274	2902	4925	125	130	1
-32768	-4020	13196	-1146	32767	22861	-21892	-520	-9064	-9456	23316	5200	-26184	-15940	-10056	-7205	-17428	-615	-15136	340	13068	-8647	5157	-7629	-20880	304	-6248	-13011	10428	4767	-21420	16856	-3064	-8182	6392	9309	131	138	1
-20564	-10764	17232	-1297	28090	19093	-16484	988	-11576	-1688	16055	5956	-26016	-11076	-9204	7989	-19416	-3826	-15416	1568	11788	-6737	3674	-3797	-16336	-3616	-3716	-4316	11403	3421	-18664	1032	-4312	-12475	4305	4426	133	139	1
-27364	-14496	20308	3468	-1384	380	-11660	2056	-12500	4933	6531	7420	-23936	-4168	-4036	15034	-21005	-2970	-13892	1264	12716	-6369	3732	-3302	-16760	-1260	-2768	4859	11586	3162	-14684	3856	-6768	-771	8443	3816	131	133	1
-5088	-14248	14728	4745	-21349	-11557	-9796	-1028	196	3102	-1450	4603	-22060	-944	-4156	11711	-19605	-4101	-14724	2212	11848	-4294	2019	-3528	-17492	652	-7648	5629	9185	2783	-17616	3460	-5496	-4897	8496	4552	135	132	1
-1388	-8052	9896	4965	-21558	-11396	-8220	-920	620	5745	-8803	-1067	-20472	-1360	-4596	7233	-18032	-5298	-13744	1424	12076	-4122	1879	-3063	-17508	-5504	-6492	3191	6208	1386	-17148	-5384	-5692	-7767	10410	4457	128	120	1
-4860	-6076	9988	1748	-25569	-14267	-6292	-1204	-4068	9363	-16016	-2200	-18936	-1400	-4720	6134	-16430	-6202	-13488	304	13480	1443	663	1468	-16816	-3804	-4188	1663	4546	2098	-15444	-7144	-988	-3245	9163	4206	128	128	1
-5956	-6864	9600	-627	-32768	-15718	-6624	648	-3764	8293	-23152	-3521	-16628	-92	-5220	7350	-14347	-6102	-12432	2484	12224	3961	-433	3668	-17208	-2608	-1348	1758	4862	2569	-16004	-2052	-768	2205	10806	3282	130	122	1
-3636	-4736	9120	-1966	-32768	-16379	-7932	3068	-2948	2688	-29349	-4854	-14652	-1196	-5112	8009	-12893	-5351	-10328	5444	11052	3576	-238	3097	-15960	-664	-1080	458	3321	2277	-16024	1228	-1236	2711	12905	3542	120	146	1
-9380	-2252	10408	-5713	-32768	-17041	-9152	2040	-4116	-2561	-32768	-4863	-13260	-4112	-4744	9274	-10924	-5367	-9996	6784	10432	3013	-340	2059	-16500	-1160	-364	3884	3100	1892	-15992	1696	-608	2841	13124	4740	123	128	1
-16836	-4580	10960	-8158	-32768	-18035	-11648	2388	-6300	-2483	-32768	-5714	-11628	-4716	-5324	15873	-9357	-5352	-11108	5728	10404	1894	-1005	156	-16588	-236	68	6315	3332	2075	-15996	1464	2732	3296	11849	4595	121	122	1
-17128	-1652	10188	-10798	-32768	-18343	-13624	7224	-5476	-7636	-32768	-5993	-11000	-1096	-6240	20943	-9305	-3868	-10920	5972	10540	1773	-1101	-118	-16736	-976	1916	5558	3733	1945	-16660	1652	3176	1708	11845	4213	124	129	1
-17076	-3176	10140	-14073	-32768	-17845	-15300	5800	-6508	-16022	-32768	-8089	-10196	1680	-6640	17587	-9812	-3352	-10428	6076	11208	-1135	306	-2201	-15640	-1100	900	1508	3271	2090	-15540	-2920	2764	556	11704	4325	124	129	1
-20760	-5436	13296	-13958	-32768	-17668	-18008	4952	-8296	-16858	-32768	-10420	-9788	640	-5020	11299	-8277	-2160	-10044	4576	11932	-1163	992	-2237	-16936	-3472	444	440	3812	1973	-14680	-3408	2252	2241	11226	3708	123	131	1
-22244	-4644	15456	-14977	-32768	-17169	-22456	6604	-6808	-16865	-32768	-13176	-10304	1416	-3200	6531	-5691	-1501	-11548	5672	11104	-1397	1408	-2923	-16340	-744	-664	59	4085	2517	-16076	756	468	5335	13050	4497	125	130	1
-23008	-4852	18152	-16870	-32080	-15474	-26848	8776	-10444	-12533	-32768	-15645	-11828	4300	2152	7411	-4845	-1746	-10864	5720	11076	-1693	1287	-3661	-16888	-1404	-484	1541	4911	2575	-16908	608	1212	3072	13398	6901	122	131	1
-32768	-4036	17448	-15959	-27553	-18337	-24164	8840	-12300	-6036	-32768	-14481	-12344	3336	4868	3739	-2458	-2215	-10328	6576	10940	-2330	1854	-4621	-17688	-1336	1144	2170	5599	3004	-16552	896	-224	2208	14421	8845	122	133	1
-32768	-832	13680	-8836	-26287	-19122	-23260	8268	-11512	-5889	-32768	-12676	-10948	692	7184	-1980	-397	-2778	-13404	3088	10852	-3716	743	-7205	-15180	1348	132	-335	6537	3336	-15628	-96	4648	-731	11607	7813	124	133	1
-32768	5316	8916	-4646	-25092	-20905	-20948	9004	-14412	-3349	-32541	-9650	-14084	-2184	11824	-1390	-2654	-3574	-11100	6612	11172	-5220	173	-7299	-15736	1660	3116	-2028	7729	2633	-16124	1916	3052	1022	9807	5936	123	136	1
-32768	9556	-676	-3187	-23974	-22638	-17392	9140	-15572	-388	-24749	-7548	-17236	-1096	19624	5156	-4376	-5442	-12356	2704	11944	-6828	-316	-7848	-16908	1404	-680	-5425	8678	1976	-17584	1696	3276	-709	8109	6223	122	136	1
-32768	10060	-2644	-3043	-23354	-22482	-12116	9112	-17152	911	-15210	-5925	-12836	868	19668	3320	-1112	-3475	-13352	580	12108	-6423	-378	-8088	-16804	-3048	-1072	-3747	12321	1428	-17960	-1552	5292	258	8864	7454	119	132	1
-32204	21592	-14864	-6719	-4214	-11449	-7648	6840	-18128	2556	-2399	-2351	-14252	2464	20432	-994	-2432	997	-12080	3324	12568	-4234	735	-5644	-16312	-884	-408	-348	15957	1694	-17476	-1012	4092	3782	9119	6858	121	130	1
-31096	15888	-12552	1984	5140	-590	-8012	5744	-17796	2411	9350	1128	-16192	-3508	17832	-1300	-7120	1670	-12740	3052	13212	-3875	2348	-6240	-18008	-364	-2768	-1167	17512	994	-18092	160	-716	3555	5513	5241	120	130	1
-14596	9316	6716	8423	8094	7718	-16104	4872	-9884	-1261	18010	4656	-14700	-4524	8188	320	-6382	1399	-12784	1536	13892	-3314	5635	-6707	-19756	-2312	-5096	-2506	17982	825	-17364	1192	-1644	3799	3818	4493	124	128	1
772	-30100	32767	3202	21664	12871	-32768	-4392	32767	-2715	9487	5755	-17156	336	8188	3585	-1880	1708	-11416	1136	17300	-5656	9222	-7528	-22676	-4728	-5292	-2341	18397	234	-21636	3264	-1332	6511	2127	3109	134	127	1
-7384	3896	7004	8500	16031	19858	-5320	9448	-6056	18425	5499	-2684	-16684	3468	4600	4911	10039	3129	-11584	2380	16548	-5097	14982	-7557	-21484	-6348	-4172	-3622	18780	701	-22536	716	1532	9027	317	796	119	128	1
-19368	-4744	12640	1024	22464	1081	-18968	9464	-2064	711	13358	7128	-11488	-1564	2432	7215	8596	70	-9816	2364	17680	-6053	20840	-8416	-22896	-6764	-2712	-3139	19665	964	-20876	-2600	6876	6423	-4487	-2410	119	130	1
-17248	3748	17536	-1220	17481	5446	-19032	6904	-4948	3372	12267	858	-19884	2664	4908	5489	8049	523	-8828	3200	18300	-7081	28958	-9155	-26232	-7928	1120	-2257	21087	902	-21184	-6588	13092	-1633	-13344	-5286	120	131	1
-24900	-9376	16508	-4759	10347	6121	-25792	6080	-7624	409	13555	2288	-22936	3016	6472	2708	7763	2086	-8812	9476	18732	-9891	32767	-13106	-29368	-9860	8316	484	23307	2266	-20636	-10992	12352	1047	-11645	-9178	122	129	1
-15424	-11568	12540	-1755	8334	-205	-19888	4356	-4176	-908	13700	-12	-20504	-336	-2348	-8894	14116	-1289	-11364	7496	19636	-12659	32767	-19631	-30444	-11424	10424	2894	24583	3075	-21956	-10116	9720	8880	-13348	-13779	127	130	1
-11812	-11300	16988	-1669	5770	-440	-14868	1640	-4400	-2804	11792	486	-12620	-1828	-4168	-13857	14970	-3418	-32768	-808	12840	-10557	32767	-27410	-22312	-3368	-4936	1905	24604	3965	-18264	-1568	2008	12705	-12067	-12012	137	134	1
-10860	-4552	13408	461	3255	-215	-16660	3412	-3828	-4180	9492	-922	-15220	-5648	-5440	-13550	12034	597	-32768	11808	3596	-8420	32767	-26671	-26632	2068	-10836	1367	25475	3127	-21408	4316	-8912	27466	-10508	-9868	135	132	1
-11188	-7324	11620	-1226	2283	-1723	-18104	4488	-3464	-8154	9063	-596	-18212	-5696	-3108	-7299	11648	-2038	-32768	3992	17596	-8311	32767	-29247	-21492	6608	-8436	-10028	18603	3696	-22988	4756	-9656	29170	-11175	-8608	132	128	1
-10192	-6596	11236	-1299	1358	-1584	-17180	752	-2012	-4556	6586	-942	-15396	-6892	-436	-1915	13722	-2031	-17504	15216	30308	-9798	14541	-27091	-16368	5676	-9280	-10037	13974	2901	-28656	2232	-9132	11552	-24804	4102	134	136	1
-9108	-6848	11008	-608	1354	-1569	-16564	1444	-800	-265	4341	-1004	-15136	-4860	964	1063	12582	522	-22904	9308	27216	-1840	-19513	-8461	-14652	-4280	744	-2334	7721	-433	-28396	4500	-2644	7385	-28892	2379	137	133	1
-8632	-7684	10744	435	1732	-1162	-16728	952	-472	-56	4118	-1001	-15700	-4796	1680	3179	11954	1085	1392	8000	18784	8938	-26125	-3521	-9472	-1988	4664	3882	-718	-1509	-24216	4208	-5456	3682	-23806	2828	124	124	1
-8344	-7400	10768	1020	1795	-637	-16520	612	-208	-746	3960	-350	-16264	-4500	2492	2746	12721	-1076	1128	13412	13688	7045	-27078	-4838	-7072	1356	1660	3594	-10979	-2829	-19128	4212	-7608	2138	-19787	2256	120	118	1
-8204	-7740	10356	1738	1812	333	-16228	844	292	-2050	4385	125	-15796	-2332	3776	578	13265	-1926	-4528	5544	11868	7967	-32768	1432	-6472	772	-2408	1682	-17268	-5666	-17112	4336	-7604	-1359	-17572	1644	114	115	1
-10808	-6220	11140	2105	1673	1229	-16068	1172	-1100	-725	4003	62	-15652	-1936	3764	-12	13662	-1778	-4736	7504	9420	11841	-32768	10597	-7144	-1356	-1600	4661	-22894	-8140	-15624	4704	-8844	-7444	-17540	1473	123	118	1
-9340	-6896	10808	1568	1587	1262	-16268	2468	-552	1087	3404	281	-15020	-1052	-168	-5816	14006	179	-6680	8612	8784	8397	-32768	15608	-9772	1464	-2440	5926	-28503	-8981	-14124	5260	-8292	-11448	-17330	1484	124	124	1
-10604	-5308	11280	1054	1593	1197	-15664	2464	-1136	1781	3298	154	-16232	-3148	1004	-3110	11581	-576	-11512	4456	9464	5953	-32768	18766	-12492	4040	-5108	1205	-32768	-10254	-10820	5828	-7944	-16696	-16919	1585	126	124	1
-8996	-6076	11064	1150	1633	930	-15492	2980	-572	1279	3803	-5	-16140	-2428	2540	-467	12077	-1818	-14528	1492	10456	9870	-32768	20263	-14384	1844	-5768	-628	-32768	-11709	-10464	6080	-7816	-18021	-16617	1528	127	119	1
-8020	-7192	10680	1281	2401	1404	-16428	1436	416	216	4830	-89	-15424	-2728	2136	-2407	13249	-1651	-19752	728	12512	15771	-32643	19026	-16968	656	-7948	2028	-32768	-10657	-9476	876	-8248	-25874	-13719	-1322	131	121	1
-9588	-6648	10992	2346	2377	2010	-15816	40	-972	1173	5911	27	-15720	-3952	2204	-1547	12827	-2427	-20836	1008	12528	16737	-32547	18630	-19084	712	-9548	8831	-32768	-8599	-9824	-2236	-7352	-19630	-11871	-2798	129	119	1
-10324	-5892	11524	2119	1785	1794	-16544	1396	-964	1456	6552	1019	-16804	-3656	2220	-102	12589	-2299	-27552	-1844	14224	27848	-32415	13840	-21944	-1196	-10956	18166	-32768	-5372	-11292	-4268	-5052	-11024	-9250	-2736	129	125	1
-9892	-5504	11592	1911	1017	1450	-15728	1932	-16	780	8407	1359	-17056	-104	2776	587	11337	-1965	-32768	-48	12188	32495	-28771	14587	-24512	-552	-13740	23413	-32768	-1132	-10204	-7360	-3768	-4991	-6037	-1507	128	126	1
-10244	-5584	11252	1573	718	1349	-15680	1816	736	-286	10703	1832	-17132	184	4920	-2198	10371	-2372	-32768	-1028	9716	27951	-27537	19607	-25732	2524	-17296	22208	-32768	3403	-9660	-4624	1292	7107	-3730	1165	123	124	1
-9120	-6276	11684	972	1316	1605	-16912	244	620	1446	11443	2362	-17020	-864	3820	-4786	11640	-3528	-32768	-10804	7260	24367	-23767	26103	-25816	480	-19232	17042	-32768	4101	-12200	740	8016	11355	-2692	4712	124	124	1
-9972	-5900	11900	820	1808	2052	-16888	1892	-1660	1443	12104	3114	-16884	-936	3416	-5140	11740	-3682	-32768	-19812	2232	22168	-18958	27755	-21532	328	-20212	12330	-31071	3961	-14768	828	13416	6520	-3546	7498	121	122	1
-9752	-5628	11876	45	2852	2193	-16276	2368	-1520	-95	13594	3527	-16192	-3364	932	-6639	8791	-3853	-32768	-20592	-7120	13585	-17185	23197	-16572	3756	-20280	2044	-22203	1762	-16860	1596	20316	6925	-3597	10564	124	118	1
-10756	-5256	12292	-1070	4454	2114	-16288	2592	-2404	983	14602	3629	-16740	-1636	1656	-5817	6970	-2583	-32728	-24940	-17840	3212	-11087	16532	-10080	100	-21408	-3709	-10216	2761	-13664	-1576	20044	-1055	1407	9605	122	117	1
-10384	-4160	13160	-1655	6856	2207	-16416	4256	-1492	1996	16038	3658	-17420	-3112	3144	-6464	5631	-1700	-28476	-28524	-19032	5066	2405	9625	-9616	-264	-20244	-2928	4401	5655	-11064	-3448	18572	-3988	494	4620	124	113	1
-9664	-7708	13848	-1505	10867	3775	-20768	2572	-2608	5310	17586	4694	-17804	-3676	3044	-6238	5426	-1767	-32056	10332	744	-16612	9139	1032	-16140	-4624	-9140	-10957	10828	4159	-12336	1008	11952	-3305	1	2737	122	116	1
-11068	-5020	14776	-1720	16329	5165	-21260	8008	-5624	5540	17133	4834	-20752	-3700	-1052	-5964	402	-1033	7200	8896	32767	-13191	11779	-2023	-29976	-22696	30304	-18582	3331	-4724	-16804	3980	820	-10823	7649	6012	126	125	1
-10452	-4832	15812	-3434	24057	5226	-23208	7692	-3356	1455	18811	5624	-23104	-3816	6212	-5788	-5300	336	-10056	-11096	4152	-13961	16209	-8423	-8072	-8424	-8436	-32752	2642	1638	-26664	-1044	11868	-23894	7233	3424	124	135	1
-6732	-6832	16448	-5840	32590	6358	-24304	8380	1712	-1305	20404	5839	-21932	616	15516	-4468	-13740	2866	-24444	-12644	21952	-2139	20043	1093	-7592	-10568	-10448	-32616	4080	-42	-11440	-13972	11676	-32768	13492	-9292	121	134	1
-5200	-7628	17348	-6601	32767	9390	-28196	8984	9480	-6202	24158	7149	-20592	8492	18300	-5215	-16840	4783	-18008	-7392	18212	5620	11601	-6068	-19932	-5192	-5636	-10593	12969	4874	-14696	-21664	-6208	-16421	15183	-1388	126	124	1
-6972	-12512	17004	-9264	32767	16490	-29860	6792	13896	-6362	26461	6422	-22208	12552	11236	-9873	-16873	8760	-19604	20808	7992	2898	6732	-5149	-21392	5064	-1028	-7609	12201	6273	-16308	6056	-2112	9979	12336	821	119	134	1
-25376	-11288	11476	-7616	32767	27113	-26804	1032	-184	-2126	24978	4763	-19092	5068	7704	-16451	-22081	8506	-14004	12880	11552	-5705	5438	-3726	-16092	5104	992	-11884	8774	5512	-17644	13216	-4208	3906	9540	9144	132	139	1
-32768	-14012	2628	-5572	32767	27305	-24420	-3568	-21120	7794	30184	7674	-21120	-4636	-10220	-32768	-18725	6222	-12416	4668	12360	-5908	2959	-6697	-17520	-848	-3360	-9676	7856	3486	-16872	3188	-3040	-276	9980	8276	121	139	1
-32768	-17116	19324	-7059	32767	27144	-24632	8172	-11184	11428	22162	8561	-31284	-13592	-14800	-29674	-15230	-3905	-13516	1032	12708	-4662	2280	-5674	-17648	-3324	-3920	-2029	8392	4086	-16544	1152	-1264	1706	9070	5941	137	138	1
3784	-13620	32444	-8561	16825	19373	-16716	4392	-6392	743	18279	5534	-27716	-13100	-12168	4185	-23436	-5803	-12428	2964	12508	-2738	1852	-4533	-17444	-1268	-2544	4257	9174	4241	-16376	3164	-328	872	8022	4759	130	131	1
-10788	-19588	26912	-7422	-14691	14841	-12844	1288	-2412	-7287	10334	2824	-26700	-5288	-2780	14476	-25892	-1072	-11772	3804	12424	-2427	1642	-3545	-18576	680	-756	388	8122	3488	-17048	4996	1084	-4232	7530	2414	121	127	1
-716	-15324	18940	-6108	-22007	2774	-7584	-5236	2264	-10789	1203	-42	-25148	-4172	-2700	5055	-23942	-5378	-11524	4716	11460	-3474	1643	-3614	-17244	1332	-244	-5422	6304	2588	-16712	5340	864	-9251	6799	2291	125	132	1
4880	-12676	14872	-3072	-30173	1628	-7900	-3320	2396	-7624	-9895	-2305	-19760	-5024	-7276	-1239	-18929	-5844	-11760	3764	11684	-4161	1195	-3354	-17116	36	-2584	-5361	5420	1546	-16600	3148	-1092	-9775	8665	3847	126	132	1
1616	-11732	10860	-203	-32718	886	-8020	-1872	772	-3319	-19774	-3744	-17968	-5336	-7708	4351	-16666	-5721	-11340	4508	11792	-4559	555	-2282	-16960	-2352	-3428	-1567	4982	1333	-16836	-2404	-3332	-5839	10716	5973	124	127	1
-4720	-10400	10924	460	-32768	-3440	-8316	872	-3320	-2287	-27381	-4588	-14812	-4660	-7548	11233	-15511	-5635	-11752	576	12972	-2458	13	-1553	-16244	-5396	-3932	4445	5379	1915	-15200	-5780	-2068	1788	11328	6283	128	125	1
-9108	-8480	11776	-3363	-32768	-11126	-10340	3168	-5948	-5411	-32768	-4859	-13820	-5764	-5844	16657	-14538	-4149	-10696	2924	12160	-1280	-36	-1055	-16220	-3044	-880	9177	5949	3300	-14856	-2756	384	7219	11453	5466	118	135	1
-14116	-8604	9280	-7139	-32768	-20029	-13104	2940	-4068	-9006	-32768	-5747	-13280	-4896	-8112	23220	-12619	-4158	-11324	4716	12016	-2772	-160	-1000	-16684	704	-1564	5052	4797	3282	-15924	1180	-368	8680	12871	4514	118	129	1
-15712	-12120	8272	-4616	-32768	-24378	-12788	3112	-5588	-7569	-32768	-8383	-10744	60	-7304	27899	-12128	-4041	-11480	2352	12128	-2959	-217	-616	-16452	-1364	-1448	520	4105	2543	-15508	320	-508	5193	12711	4900	124	131	1
-19600	-10068	10324	-1158	-32768	-26736	-15692	2456	-7420	-2209	-32768	-10593	-7816	3992	-6236	20274	-10667	-1814	-11128	2032	12248	-2069	-120	-80	-15308	-3804	-1644	2784	5522	3023	-14872	-2896	124	3618	11926	4747	126	129	1
-20136	-6988	13136	-2082	-32768	-30749	-18940	5372	-7376	1715	-32768	-9534	-6836	2980	-5432	12370	-7905	-1170	-10380	4652	11840	-1645	-234	-302	-16264	-964	-256	6958	7037	3858	-14868	-516	-120	8898	12925	5478	122	131	1
-22188	-4960	16084	-7261	-32768	-32593	-20712	9072	-7608	-788	-32768	-8818	-7340	1900	-4904	6249	-5611	-1223	-11280	2620	12056	-1419	-171	-1068	-16380	-1156	-1564	7716	7494	3920	-15864	2212	-604	8602	14262	6363	119	131	1
-28796	-8444	19188	-8983	-32531	-29761	-25568	8396	-10948	-6685	-32768	-10741	-7996	2444	-796	5294	-5794	-1794	-11240	2384	12108	-1344	-133	-1335	-17500	216	-1632	4114	7093	3263	-17052	1940	780	2387	15849	8350	126	130	1
-32768	-4800	17196	-6049	-32768	-25700	-25060	7988	-14624	-7847	-32768	-10137	-9508	2468	5936	5329	-5172	-1947	-10696	3340	11820	-776	366	-1289	-16592	-824	2116	2598	7972	2556	-15928	-868	6292	-3036	14914	9002	127	132	1
-32768	-3408	9824	-2006	-32665	-23673	-24784	5980	-15560	-4900	-32768	-6950	-9828	-4180	13040	1125	-4631	-3506	-11268	3356	11728	-1005	1013	-1942	-14024	-1100	3912	3860	10775	2779	-18464	-2040	8236	1566	10875	7807	126	133	1
-32768	-988	-192	3778	-28736	-20611	-20368	7244	-18272	74	-32768	-4988	-14304	-3244	16484	2759	-2174	-5357	-10560	4332	12808	-1773	1676	-3473	-18048	1532	1812	3358	13403	2626	-18788	820	6244	3194	7831	5570	126	133	1
-32768	7384	-11560	2819	-22748	-18618	-14800	6028	-22488	2301	-22897	-4215	-17112	4112	21356	7084	-2652	-4436	-11904	2228	13192	-2328	3151	-4633	-18208	944	-1664	-1669	14092	1306	-18120	3224	2852	2943	8313	5281	118	132	1
-32768	15056	-19720	-5925	-11218	-12208	-9872	6636	-22420	-680	-8652	-3540	-12532	5996	20388	349	-1891	786	-11928	2908	13528	-2421	4978	-5209	-17804	-484	-2460	-818	15855	1048	-16884	2880	672	3912	8992	5688	117	128	1
-32768	13760	-18940	-10313	2621	-3855	-8636	5000	-21608	-5145	7009	-1983	-12620	792	18304	-4174	-3351	2577	-12524	2368	15112	-4087	7689	-7144	-20000	-2068	-3580	-1579	16769	1292	-19968	640	-1448	5594	6137	4962	120	127	1
-32768	5428	-13268	-1390	12345	4895	-11024	1860	-20604	-1112	17644	795	-14776	-6852	13616	-4210	-5636	1140	-12704	2604	17060	-4391	13140	-8228	-22672	-4844	-4816	-2509	17658	968	-21360	-268	-780	7235	4408	3240	122	126	1
11472	-11620	23040	12588	9669	14262	-32768	-500	16052	-2738	14230	5709	-14816	-6920	4972	-1794	-891	17	-11356	2328	18156	-6620	18405	-8623	-24476	-3852	-4908	-4905	17580	1111	-22648	1084	-40	8088	3058	1210	119	125	1
3804	-1256	8224	7781	23608	15090	-20056	-768	9732	24736	4547	-909	-24416	-4408	7576	1931	3604	-2661	-9756	3112	17360	-7591	23999	-8134	-24368	-4088	-1004	-6328	17885	708	-23972	1100	3572	7384	757	336	119	127	1
-32372	2332	14320	7649	23802	7643	-8380	12964	-10692	23569	8253	5186	-11900	-2836	8864	12195	12870	-4717	-8476	4564	16792	-9120	29209	-11315	-24500	-6048	1640	-4094	19396	1908	-22468	-1136	13376	4297	-7484	-2102	117	127	1
-11120	-3508	14888	2833	22743	1708	-23728	16276	-3116	11725	12035	3381	-14332	2624	2460	16435	14406	-2885	-5876	2768	18428	-12486	32767	-16066	-29060	-10420	8256	2033	22713	1825	-19644	-10144	14344	396	-15597	-6733	125	130	1
-31792	5828	17632	2229	11982	10959	-22664	2340	-7700	6716	15353	573	-21860	8436	8288	9497	11386	2003	-12944	8872	20116	-14888	32767	-20319	-30748	-14064	14008	9965	25825	4095	-20008	-18372	11924	8980	-14303	-13902	128	129	1
-14368	-13000	11124	-415	7705	3415	-18536	9276	-4668	4005	14692	47	-20940	4356	-5068	-2370	15730	-350	-32768	-416	13900	-12344	32767	-28601	-28652	-2972	-7048	8867	28764	6068	-20672	-8604	11444	13224	-19723	-14106	131	131	1
-10484	-2692	12724	-692	5180	3303	-14256	1992	-3112	3961	12191	-344	-13140	-4340	-2516	-6735	14892	-3668	-32768	7736	8812	-9862	32767	-25938	-31156	2628	-5800	1926	29419	2783	-23796	4304	-3080	29834	-11758	-8503	131	134	1
-12188	-10260	10488	-222	4722	2776	-17064	2088	-4112	2494	10631	-495	-15132	-5564	-1420	-3940	10907	-2086	-32768	7596	19764	-6380	32767	-31321	-23920	1952	-1448	-3558	19834	4886	-29112	376	-12828	32767	-14226	-2489	132	134	1
-10372	-6824	11264	1464	3861	3785	-17032	2964	-3776	2133	8989	-515	-16864	-4828	-688	-1811	11065	-3931	-17876	15520	26628	351	29477	-24091	-16908	2480	-7824	-11395	12701	4889	-30276	-1812	-11568	16019	-23895	2473	132	134	1
-10052	-9156	10156	3426	3536	4945	-17452	896	-2372	2446	7919	-929	-15948	-6292	-508	-121	13544	-4197	-32768	5836	26372	4799	-7006	-4668	-11296	-836	-10248	1811	7552	4807	-25708	1804	-3896	9895	-31244	-1878	120	132	1
-9828	-5868	11436	6947	1752	6212	-16172	1908	-1600	5231	5944	-1126	-15688	-6400	-160	243	13627	-3842	-3876	15184	21160	13973	-27238	10166	-13840	-3260	4396	11752	-516	2089	-27200	2456	-3532	8264	-26935	325	127	120	1
-11664	-4844	12200	5702	1050	5236	-16324	4272	-3312	5574	5185	-554	-15720	-3656	1996	5800	13782	-1768	2512	12120	14784	11878	-26537	11972	-7608	-1732	2488	9557	-10689	2227	-21712	1772	-7876	6563	-22815	1743	124	117	1
-10844	-2948	12728	3530	27	3300	-16316	6560	-2980	5058	4852	-312	-16388	-1088	1644	7158	14866	-2367	-4032	8656	12964	9074	-25720	14126	-8760	2352	-1272	3616	-19638	1007	-18780	1680	-9096	2974	-21086	1048	121	119	1
-9988	-3656	12376	1813	652	1702	-15648	6656	-2252	3127	5127	-863	-16452	2248	1504	5753	15648	-2507	-4752	8196	12740	8704	-26071	14202	-7216	-264	-3080	1830	-26868	-1121	-14724	2588	-8628	-2574	-20733	703	122	118	1
-8716	-4388	11472	703	1221	939	-15796	5316	-1172	787	5783	-1367	-15584	1396	1824	1399	15906	-1835	-9792	1788	11336	12513	-31967	18793	-7984	-1632	-4144	4310	-32575	-2335	-12584	3700	-9096	-5737	-18927	402	124	121	1
-8988	-4488	11396	611	2009	1294	-15388	3868	-1092	-1200	6325	-2017	-14160	88	1472	-2337	15437	-980	-15524	-576	12468	16631	-32768	20551	-9256	-1136	-6396	8451	-32768	-2192	-9716	4332	-9500	-9218	-16913	26	125	127	1
-10072	-5204	11512	1097	1991	1955	-16380	2180	-2020	-441	6280	-2069	-15824	-2356	480	-3522	15657	-1038	-17476	-4552	13196	23761	-32768	22762	-11620	-1692	-6188	11238	-32768	-3238	-7796	4328	-9572	-15190	-14967	-1619	125	125	1
-10804	-5332	11716	1784	1736	2504	-16684	3304	-2084	-685	6868	-1913	-16228	-2900	320	-3759	16968	-2458	-14532	-3728	11320	30710	-32768	22877	-13272	-5080	-3964	12890	-32768	-3025	-6072	3804	-10448	-18599	-12141	-2057	126	121	1
-10292	-4788	11908	1543	1639	2337	-16852	2688	-2344	-1504	8328	-1428	-15828	-2836	480	-2945	19242	-3559	-14292	-1372	13692	30910	-32768	19636	-18688	-4132	-8560	12832	-32768	-2273	-5212	2720	-8976	-14191	-9697	-1371	128	123	1
-10256	-3220	12468	1336	1773	2222	-16212	3528	-2552	84	8915	-852	-15192	64	1104	-1791	20841	-3869	-31248	-3448	19652	28894	-29386	20207	-20428	-3812	-13900	15478	-32768	-3699	-6868	688	-4656	-6821	-9319	-1276	127	124	1
-10448	-3588	11992	873	1867	1927	-16020	3812	-1584	-181	9654	-688	-14364	2164	1720	-1643	20748	-3406	-32768	-2016	22452	26459	-32768	26156	-28032	-5348	-14976	17598	-32768	-2596	-9608	-1224	-2104	-8487	-10622	500	129	124	1
-10828	-4608	11968	768	2243	2378	-17272	660	-1772	242	9948	-264	-17688	-2280	1428	-2813	17915	-4296	-32768	-4636	17732	18261	-32768	32767	-27744	-1532	-17084	11230	-32768	-5294	-9940	3764	4904	2286	-6988	4947	130	123	1
-11428	-4036	11544	147	2799	2678	-16492	904	-844	480	11104	1441	-20148	-7128	4348	-3872	11828	-6112	-32768	-4168	7780	6042	-32768	32767	-25416	4180	-16404	-4129	-32768	-8389	-13356	2208	4040	4506	1734	8316	127	123	1
-10608	-5072	12380	-222	4032	3014	-17680	-500	348	32	13364	2883	-19712	-3240	9324	-6096	9765	-5371	-32768	-10820	-7524	-1302	-32080	32767	-24448	-2392	-19248	-11873	-32768	-4893	-14076	-8956	10244	-11073	4705	4371	127	119	1
-10700	-6820	14760	1518	7642	6192	-20284	1272	372	1111	15689	3727	-21604	-1916	6888	-8313	9148	-4450	-32768	-23940	-18852	3839	-13113	30306	-15316	-536	-24680	-6750	-23168	1230	-19060	-11364	28412	-18148	-491	-1363	124	116	1
-11428	-5516	15528	2191	14077	9097	-20908	4672	1800	2166	17846	4094	-21004	-2964	5432	-9971	6283	-3843	-32768	-32768	-21500	8109	3227	20900	-6940	5736	-22668	-2112	-3218	4080	-15024	-12824	32256	-8245	-1025	-1299	126	116	1
-10308	-4512	17144	4077	19420	10641	-21484	6080	-260	7750	18991	5339	-20432	-4840	3860	-7888	4165	-2065	-32768	-25940	-17192	-5465	4936	5491	-10164	7832	-19308	-6590	13854	2784	-18184	-1560	20504	-4809	-5777	1428	127	122	1
-7836	-4352	16924	5295	24897	12282	-22404	6516	-1444	10432	19510	5303	-21872	-5572	2548	-7023	1436	64	-22568	13924	32767	-7909	16588	-21202	-32768	-15260	32767	-16245	6627	-1785	-21772	-936	-308	-2648	5009	3463	129	121	1
-8064	-3680	17408	6147	32767	16429	-26300	7724	1080	7589	21095	5528	-25096	-7064	6116	-7286	-3019	1724	-22404	-24308	740	-19443	12288	-32768	-4012	-10868	-16364	-25143	6361	8403	-27608	-11176	16480	-9327	-1553	1711	124	142	1
-4220	-4968	17228	8166	32767	18972	-26732	11388	6260	4306	22688	6286	-26616	-884	27428	-3228	-22258	2521	-22552	-100	23860	-1903	32296	2071	-27448	-21136	-5780	-9275	19047	313	-2200	-14120	12736	-30368	25459	-596	118	124	1
-8420	-8140	17212	8252	32767	15405	-31924	19424	14196	-11919	24496	4760	-21176	19724	14744	-4283	-17461	7237	-18088	-15304	18980	-415	20320	-8717	-21680	-1592	-5700	-779	21584	7772	-16528	-23776	-7760	13734	12593	2705	123	129	1
-32768	-6464	7032	-1688	32767	20955	-29764	17864	15068	-15559	26627	4220	-24500	10868	13968	-19647	-18061	10364	-17348	9896	11688	861	15193	-5471	-18264	80	-4644	-1960	17849	8679	-12784	11608	-11888	29962	6688	658	132	120	1
-32768	-8596	11744	-1713	32767	26171	-32768	-1616	-5684	-5356	31169	5111	-24744	-5236	-15044	-32768	-22574	8516	-31124	10496	4564	-5451	4354	-5803	-21884	17060	-7092	-4084	15331	7747	-19104	25020	-9776	13210	9706	6706	128	151	1
-32768	-19740	27860	-3563	32767	25989	-26580	884	-1412	-2270	24881	4771	-27792	-14176	-12432	-24256	-22069	-1946	-14160	668	12932	-6033	3399	-6040	-18560	-328	-5952	-11054	9926	3907	-20180	11464	-7396	-9950	9658	7980	128	140	1
-3092	-15332	21392	-5720	27587	25203	-17916	824	-12420	2098	16999	2981	-27564	-12404	-7932	2168	-24951	-4850	-12588	4472	12368	-5064	2151	-4189	-16972	-1328	-3384	-2951	9885	3017	-16052	3856	-3628	-9778	10088	5350	137	136	1
-30176	-20864	25092	-8550	-27609	-342	-13468	-3092	-7104	-7281	7102	4022	-27976	-6160	-4344	11183	-25500	-3914	-12164	2240	12892	-3394	767	-3995	-17492	-2224	-3124	3377	9904	3240	-16296	268	-1768	-8083	10478	4331	128	135	1
4088	-20936	16996	-8838	-32768	-6845	-14392	-768	6936	-10676	-2104	-1602	-24868	-3968	-4428	6913	-23666	-7020	-11216	3280	12176	-2662	435	-4224	-17224	-1060	-1680	3613	8988	2944	-16272	-1932	-320	-5823	11219	5259	128	138	1
5800	-11488	12392	-5733	-32065	-8053	-8392	424	4164	-7706	-13814	-4703	-20564	-5512	-7216	5737	-22893	-7617	-11860	2292	12788	-1752	109	-3906	-16964	-1732	-1928	-825	7420	2393	-15384	-1356	1120	-2193	11414	4565	132	123	1
-4912	-8412	10528	-6954	-31980	-15739	-7492	-332	-2524	-3372	-21401	-5581	-17188	-2544	-8128	10330	-20441	-6693	-10500	3708	12080	-1458	453	-2946	-16940	-2008	-1472	-3256	6323	2332	-14756	92	-400	-1138	12958	5077	132	121	1
-8340	-11800	9588	-5304	-32768	-22656	-8660	-32	-3384	-2599	-29064	-6468	-14484	-2364	-8316	13505	-18629	-5850	-9700	4444	11512	-1851	1160	-2961	-15904	-2320	-1764	-2859	5207	2407	-15488	-252	-2144	-1262	14452	6067	124	124	1
-11724	-9988	9976	-690	-32768	-25533	-10792	1024	-5420	-2627	-32768	-8801	-12664	-3564	-8056	14318	-17305	-5320	-11460	1336	12224	-1157	1180	-2901	-15796	-4524	-2424	1782	5965	2964	-15176	-4064	576	-335	14436	5213	115	128	1
-15748	-4988	9944	-674	-32768	-28209	-12368	2212	-5492	-349	-32768	-10059	-11636	-3268	-10024	18331	-14760	-4984	-10980	4684	12056	-1145	1690	-2576	-17040	-1648	-724	7138	7053	3961	-15640	-1116	524	6052	17064	5205	128	130	1
-17796	-4668	10560	-3853	-32768	-29415	-12808	4228	-5688	745	-32768	-10383	-8696	-368	-10400	22183	-13236	-3900	-10484	6044	12244	-2672	1926	-3123	-17448	-384	-224	4881	6629	3982	-16288	2952	-424	6623	18806	5856	125	129	1
-19604	-4752	12840	-6472	-32768	-28704	-15560	5848	-6988	-969	-32768	-11502	-6460	1584	-10864	20414	-11198	-2536	-10976	1604	12464	-2969	1679	-2801	-17408	-716	-1620	1096	6144	3241	-16488	1608	-1608	1884	18949	5616	123	132	1
-23124	-4700	16704	-8439	-32768	-28106	-19532	8900	-9828	-4030	-32768	-12479	-6320	1740	-10672	19795	-10667	-2472	-12396	1536	12712	-3181	1193	-2980	-17412	-2100	-3720	3001	6735	3337	-18236	508	-1864	2719	18072	7935	123	135	1
-31216	916	20496	-14324	-32768	-28118	-23328	14068	-11276	-13104	-32768	-12275	-6552	2664	-7184	10907	-6849	-808	-12160	3244	12844	-1516	1365	-2309	-18528	-2184	-1596	9363	9316	3998	-18852	-1676	2368	555	18439	10145	129	130	1
-32768	-1440	18128	-18415	-32768	-24415	-25052	8704	-14012	-21195	-32768	-14236	-8196	6388	-3348	8114	-5638	-1644	-11988	4200	11924	-1088	1374	-3202	-16104	-276	3264	10055	12265	4624	-17092	-2484	8592	981	17116	11368	129	138	1
-32768	-5396	12568	-11435	-32768	-19182	-28784	7012	-19620	-14032	-32768	-14979	-10244	-136	5056	-313	-4368	-3071	-12316	3776	11872	-1398	2345	-4104	-15048	1412	3836	3287	13472	3162	-16952	-4604	8296	7658	11975	6487	129	137	1
-32768	4564	2480	-8349	-32768	-19353	-24436	13252	-23196	-5653	-32768	-12748	-16212	-488	11556	-844	-1459	-4055	-12276	3684	13572	-2615	4079	-5833	-19032	-468	480	504	15727	2032	-18592	-1364	4512	9311	11963	7275	131	138	1
-32768	9528	-10096	-8070	-27041	-23343	-18252	8784	-27904	-1183	-26213	-10593	-19432	428	20796	3245	-4417	-4207	-12644	1212	14860	-3427	9116	-6577	-21516	-3280	-540	268	18551	1085	-21432	1044	4760	9463	12860	8239	120	137	1
-32768	20264	-21920	-4505	-14567	-22282	-9444	10912	-28056	6436	-14289	-5870	-15524	3960	24260	-1298	430	-2887	-11888	2448	16136	-5294	13125	-8434	-20312	-1680	36	-6128	19719	946	-21136	1268	3624	7368	8833	5356	124	130	1
-32768	26268	-24168	-3486	3073	-14515	-6236	7136	-26676	3530	5201	-1172	-13536	-760	22484	-5956	-3157	21	-10856	2984	17756	-8354	17757	-9769	-22436	-4328	-1748	-10824	20455	96	-21324	2012	1516	523	3174	2831	116	130	1
-32768	16448	-14732	4897	14953	-1078	-8924	4088	-25444	8773	17790	3823	-14912	-5888	17292	-4033	-4178	-93	-10420	3296	17748	-10165	24080	-11498	-25056	-6296	-2688	-10434	20889	1254	-21564	924	2308	1697	2404	1428	120	127	1
22376	-10540	32767	15128	15280	15104	-32768	2004	32767	-10323	11838	11514	-16908	-3696	-3908	-2408	10290	-324	-8360	3472	18680	-12535	31317	-15210	-27036	-7992	1544	-5977	22295	2096	-24344	-168	6588	6658	-2339	-1379	108	124	1
-11912	7344	-424	10732	25802	28466	-6036	10996	-9904	31577	3962	-4444	-32496	668	15040	-948	7531	2067	-6588	4200	18000	-15489	32767	-19852	-27340	-12020	9688	-1227	24209	2715	-24492	-8672	19428	-248	-18758	-5402	116	128	1
-18056	-5756	19924	-3895	27627	381	-19908	14916	2976	-3942	20016	13157	-3724	244	12936	19758	8953	1691	-13964	4080	19524	-14680	32767	-18816	-30280	-19328	15300	11455	28097	4875	-15688	-23320	18352	1493	-17207	-16075	123	122	1
-23932	5544	20192	-3326	19929	11846	-19280	10244	-3828	2274	19657	1148	-19500	14652	-872	991	15041	393	-32768	-3836	7416	-8556	32767	-23640	-28752	392	-5516	13709	32767	6311	-16892	-8788	10192	6713	-16681	-14803	129	134	1
