#Activity	walking 
#ActivityID	1 
#Date 09-23-17-55
acc_rf_x	acc_rf_y	acc_rf_z	gyro_rf_x	gyro_rf_y	gyro_rf_z	acc_rs_x	acc_rs_y	acc_rs_z	gyro_rs_x	gyro_rs_y	gyro_rs_z	acc_rt_x	acc_rt_y	acc_rt_z	gyro_rt_x	gyro_rt_y	gyro_rt_z	acc_lf_x	acc_lf_y	acc_lf_z	gyro_lf_x	gyro_lf_y	gyro_lf_z	acc_ls_x	acc_ls_y	acc_ls_z	gyro_ls_x	gyro_ls_y	gyro_ls_z	acc_lt_x	acc_lt_y	acc_lt_z	gyro_lt_x	gyro_lt_y	gyro_lt_z	EMG_r	EMG_l	act
-8000	-3476	13312	139	43	68	-16312	-2272	-1128	-310	674	44	-13448	-1392	1512	-342	2533	214	-8680	1528	17688	15157	-32768	10441	-11088	-872	-3008	-2008	-3870	-234	-13176	168	-7832	-380	-1782	1182	121	150	1
-8136	-3092	13320	108	46	49	-16080	-824	-1944	92	629	104	-14856	-2128	4912	-635	2981	307	-11680	784	19232	16915	-32768	12861	-11096	16	-3680	-2120	-4272	-411	-11888	-1664	-7984	-854	-1683	923	126	145	1
-8184	-2896	13368	76	49	32	-16056	-16	-1992	74	650	157	-16224	-4736	-448	-924	2518	401	-12392	-928	17720	19468	-32768	15029	-11512	536	-3368	-2870	-4754	-636	-7912	-3120	-9600	-1394	-1601	627	125	140	1
-8036	-3112	13252	64	27	33	-15216	200	-1576	-277	719	143	-17992	-2880	-5584	-448	2168	195	-11328	-3288	10672	23927	-32768	17038	-11712	200	-3192	-2988	-4821	-705	-6568	-4624	-9976	-1826	-1434	443	128	140	1
-7884	-3256	13216	116	-1	69	-15352	-856	-64	-335	827	107	-18600	-912	-2624	738	1328	88	-18032	-3344	18200	22753	-31997	17599	-18840	-376	-9312	-2253	-5158	-1349	-6536	-7544	-10480	-2078	-1227	245	132	132	1
-7580	-3516	13436	244	-34	154	-15848	-2632	-384	163	901	123	-16232	-3104	4112	872	1050	117	-22184	-4048	27768	22150	-32542	18697	-19104	2224	-8856	-1642	-5317	-1396	-5960	-9136	-8200	-1639	-924	-43	131	130	1
-7936	-3156	13440	309	-43	236	-16168	-1408	-1576	660	992	118	-16432	-2904	4280	37	1146	128	-28848	-872	32288	19942	-32768	19640	-30784	2984	-12408	-1391	-5449	-1439	-5560	-4800	-3200	-1397	-734	-36	130	130	1
-7908	-3116	13532	321	-9	290	-16392	72	-1392	587	1147	158	-16048	528	1368	-263	1015	66	-32768	208	32767	17109	-32768	22370	-27992	6376	-15000	-869	-5445	-1647	-7768	-808	-256	-1189	-553	121	130	125	1
-7884	-3460	13144	297	64	368	-16584	-640	-1528	393	1288	120	-16168	704	-512	-49	1104	25	-32768	-7104	27904	17204	-32768	26136	-27880	6808	-16104	-1161	-5269	-1749	-11680	3272	2096	-392	4	184	131	124	1
-7972	-2700	13532	289	195	424	-17832	-360	-3024	487	1386	104	-17192	-944	-296	-145	1002	-87	-32768	-16496	23128	15517	-32768	25048	-29840	4088	-16272	-825	-4770	-2103	-17632	8104	9816	-53	206	596	131	133	1
-8396	-2156	13632	277	306	427	-17240	696	-3824	360	1529	214	-16192	-2296	-792	-578	827	-56	-32768	-21336	12776	11276	-32768	15704	-27192	7000	-15824	971	-3960	-1810	-19584	6664	16400	-1564	480	1263	130	132	1
-7304	-1648	14620	396	481	493	-17192	664	-3936	322	1549	231	-18568	-3592	-1728	-640	929	-25	-32768	-30360	-10352	9828	-28053	-1284	-16344	11552	-25680	1590	-3078	-678	-16128	-3216	32767	-3208	808	1742	131	133	1
-8588	-1976	13968	429	708	523	-18784	880	-2632	156	1810	312	-17104	-4672	1104	-632	760	13	-32768	-32768	-32768	27113	-12987	-12358	-4664	6096	-29704	3018	-261	477	-15320	-4328	32767	-537	-1194	-48	132	125	1
-9804	-1892	14196	445	999	451	-17288	2088	-2640	238	2004	408	-16856	-3704	2048	-387	733	193	-32768	-16152	-29592	-3110	6073	-15656	-8776	13776	-21600	2103	1525	702	-19936	-6416	17832	2214	837	-1796	128	134	1
-8760	-1120	13748	663	1408	327	-19776	24	-3360	406	2203	525	-18624	-6016	1472	-344	761	372	-15832	632	11776	-27205	16457	-22134	-22456	11752	-4696	1016	2143	625	-11896	-4744	1440	3359	1180	-453	130	144	1
-10716	-1744	13036	772	2046	444	-22568	568	-3416	491	2347	555	-21024	-4552	2192	-386	421	381	4592	31712	18584	-24524	20656	-13886	-29200	-10112	17848	-2059	1544	405	-20792	7312	2584	3298	415	-146	124	107	1
-9508	-2904	14488	987	2866	773	-25856	2616	-768	-204	2516	549	-22464	-840	5136	-105	258	429	-18912	-3896	22352	-25500	32767	1065	-27712	-4224	-3096	-2581	2366	1205	-26024	30064	32767	2776	-288	592	126	23	1
-8964	-4236	17876	1115	3766	1184	-28264	1080	1848	-910	2676	580	-24368	-2792	9704	-178	-268	509	-19536	-32184	32767	-14112	24573	-2349	-32768	-1656	-11296	-3024	2962	737	-21728	11752	-3896	-4847	523	1	121	12	1
-11068	-4092	15376	1387	5035	1821	-32768	-904	6800	-1541	2642	704	-28864	-3512	15152	-148	-1469	576	-8920	11480	15424	-7225	18567	-3182	-15512	-4048	-2136	-2483	2805	480	-12024	-32768	-21400	-3294	483	526	116	0	1
-17460	-4680	20724	2199	6575	2832	-32768	-1704	8296	-2755	2410	778	-25456	2072	16704	-1273	-3837	603	-6456	736	17408	-9152	21468	1285	-5784	7096	-7104	-1871	1950	892	-6624	-25032	-15648	2540	605	1018	113	0	1
-29412	388	28884	2591	7090	3378	-21672	-7040	-5304	-2850	2849	530	-15936	7600	-1688	-1858	-1838	608	-21840	4824	21928	-5429	6326	-3156	-17960	8904	-12624	452	1782	1383	-11000	18616	-8128	4276	927	143	112	0	1
-21572	-2664	32767	1617	7375	3177	-27792	-2272	-7848	-1720	3139	922	-23160	-2096	-3792	-1506	-1845	-517	-8376	-8592	20992	-3769	3624	-2018	-31120	1616	-8792	320	1512	987	-30368	19096	-17080	28	2151	200	115	0	1
-17292	-9292	29080	-291	5425	3440	-29504	-1256	-1752	-1643	2771	1119	-29248	-6872	-11600	-2193	-1493	-1163	-10352	3120	16960	-2263	666	-1351	-29376	1440	-8432	450	1497	969	-22872	936	-9304	-1331	1451	-2	118	129	1
-32768	9388	23568	-39	4338	3544	-20824	-176	-2920	-899	2151	846	-28296	-5856	-14080	-981	-2306	-1111	-7704	1160	16248	-2008	-890	-1402	-16416	4040	-3360	-123	1097	145	-15680	928	-2752	-873	1309	-98	114	156	1
-22804	-24256	32767	-541	1888	1983	-15056	944	-7864	-492	1332	582	-26952	64	-10920	539	-2505	-927	-6272	-944	16176	-1769	-1089	-1064	-18232	-944	-3112	114	764	164	-16824	-1608	-472	-513	1520	-299	116	164	1
-12304	-23696	31300	360	-390	646	-13336	-2272	-4728	-938	577	133	-24752	3576	-4704	1238	-3157	-812	-6136	-504	15392	-1547	-1121	-749	-18568	1112	-3872	344	732	363	-17280	-3488	224	-44	1669	-500	109	159	1
-4140	-14104	18316	270	-1332	-265	-11912	936	-1584	-628	-281	-113	-24312	2848	-4040	1279	-3243	-788	-5840	0	15160	-632	-104	-182	-17512	640	-2392	333	714	329	-17352	-1352	24	547	1810	-475	116	159	1
-2748	-8676	15932	-690	-1610	-769	-8280	1744	-888	-1047	-970	-177	-23416	-2856	-8400	1291	-3027	-512	-6088	576	15312	-139	1413	291	-16776	1752	-1832	382	660	162	-16248	1688	-376	671	1733	-467	118	155	1
-8272	-9892	21304	-1266	-2497	-1110	-7072	-288	-5936	-1172	-1375	-547	-19328	3160	-3352	938	-2616	-726	-6240	1272	15232	49	2255	361	-16760	1696	-824	595	626	187	-15064	2504	288	631	1759	-558	127	160	1
-9628	-9020	20832	-1177	-3752	-1422	-7904	-2632	-4328	-754	-1924	-973	-17216	2648	-5320	699	-2362	-691	-6736	1600	15136	16	2882	-36	-16656	1624	104	1016	569	260	-16064	2232	864	684	1810	-593	126	154	1
-7684	-5760	14756	-1270	-4415	-1636	-9472	-1448	-1120	92	-2533	-1249	-17880	-216	-5672	622	-2444	-757	-6944	680	15176	206	3047	-527	-15752	1856	-288	1383	503	374	-14944	2224	1984	687	1761	-529	119	147	1
-7600	-4064	12428	-1650	-4563	-1802	-9632	1696	-1536	549	-3034	-1371	-13568	-1456	-5912	441	-2214	-621	-6880	920	15312	590	2940	-747	-15600	1944	-200	1438	508	379	-14520	1728	2232	640	1676	-576	126	142	1
-8292	-3848	12116	-1981	-4529	-1954	-11064	2048	-1992	483	-3546	-1486	-12832	-2224	-7256	651	-2014	-644	-6784	1152	15536	538	3240	-991	-16552	3496	440	1344	497	428	-15200	2008	1480	725	1645	-635	129	135	1
-9776	-3556	12688	-2235	-4406	-2135	-12496	1880	-1968	807	-4005	-1614	-10296	-1904	-7848	1150	-1721	-537	-7296	568	15120	653	3034	-1050	-16032	3592	-1168	745	515	413	-14896	3984	2136	792	1722	-680	127	135	1
-13556	-4572	17952	-2345	-4422	-2386	-12984	2392	-4768	1352	-4377	-1730	-9120	552	-8376	1853	-1530	-275	-7440	936	14904	877	2748	-905	-16008	2000	-952	483	639	308	-14744	4864	2800	523	2042	-600	127	133	1
-16100	-3620	20592	-2439	-4583	-2733	-13696	5664	-5256	1574	-4793	-1697	-7768	3104	-8760	2106	-1332	2	-7472	880	15280	1226	2764	-1336	-16448	1904	-1392	749	680	336	-14880	3520	3056	207	2443	-484	130	135	1
-17600	-3800	19772	-2614	-4500	-3134	-16744	6840	-5392	1009	-5086	-1611	-6888	5312	-10104	1743	-1050	127	-7672	680	15064	1307	2435	-1681	-16496	2248	-2296	992	745	366	-16224	2984	-3264	73	2442	-177	132	136	1
-21484	-7584	21668	-2196	-4328	-3606	-20392	3728	-7592	735	-5309	-1683	-6624	6264	-9736	745	-583	37	-7376	496	15128	1091	2294	-1673	-16488	2200	-2424	656	872	320	-16720	1784	-4136	-277	1875	-474	130	137	1
-25924	-7844	23532	-1696	-4198	-4172	-24456	2104	-9768	1425	-5546	-1770	-6744	5888	-9392	588	-518	20	-7448	384	15104	1177	2627	-1426	-16832	1832	-3008	335	813	293	-17632	3480	-1784	-582	1578	-452	128	137	1
-31428	-4324	26964	-1654	-3877	-4567	-28096	1096	-13288	1950	-5789	-1458	-5304	952	-4456	-458	-32	-156	-7664	280	14928	1183	3019	-1159	-17720	1400	-2528	67	977	265	-16744	2392	-280	-537	1548	-392	131	139	1
-32768	2340	32284	-2013	-3891	-4582	-30504	512	-19216	2074	-5738	-1139	-7944	-5584	-144	40	6	-314	-7528	704	14816	794	3240	-1289	-16816	2376	-1096	115	1052	236	-16160	1320	2000	-207	1483	-451	128	153	1
-32768	9812	24504	-2162	-3906	-4077	-30080	2648	-22320	2257	-5426	-856	-14504	-8528	776	921	223	-609	-8152	1056	14848	626	3778	-2030	-17128	4272	-184	225	1230	273	-17720	2392	3728	101	1418	-329	135	147	1
-32768	13416	4388	-1409	-2887	-3032	-26312	4216	-24408	1556	-4752	-520	-23288	-2912	14936	1621	67	-685	-6816	-144	15072	-3	5108	-3231	-20488	2896	-224	157	1346	325	-19736	2888	3488	294	1344	19	146	148	1
-32768	26224	7884	-966	-2401	-1967	-17880	7288	-32768	263	-3356	-506	-20728	1216	32032	2470	-34	-901	-7624	184	15120	-226	7615	-4354	-20752	1744	-128	149	1367	318	-19440	1352	2984	786	1195	114	150	154	1
-32768	32767	-19660	-3063	-1608	-329	-6920	6776	-32768	-1958	-1042	-493	-19624	-3952	32767	1855	491	-119	-7688	128	14584	-786	11657	-4266	-20360	-104	-2432	174	1883	263	-19120	1752	2016	1024	1036	-192	164	151	1
-32768	32767	-32768	-423	1005	1777	-5840	-2024	-26392	-2951	1258	-304	-22936	15096	24344	-228	324	1343	-9888	-392	14640	-2148	15909	-3532	-21032	952	-2520	-157	2129	168	-19048	5968	328	843	867	-396	157	142	1
-17296	25592	-4072	3451	1880	3859	-20104	-14456	-2576	-1732	2670	437	-18144	4568	4304	-1802	37	761	-10152	688	14528	-4624	20098	-3193	-22648	2824	-928	-258	2303	108	-21544	8480	2008	752	554	-604	123	204	1
-10948	-30856	22664	1663	3242	2104	-32768	5752	15040	2964	1707	620	-18560	-6528	3704	-2114	150	-269	-9280	2376	13240	-8758	23994	-4526	-26488	2184	1600	-11	2463	139	-24024	6576	4800	434	-6	-555	97	171	1
-26068	-176	26600	2455	4505	912	-24520	12008	-6600	3095	2482	309	-32768	-11632	32767	1129	-1678	-1076	-11480	1552	14992	-14478	29747	-7919	-29896	1480	4632	587	2534	225	-27848	7248	12840	396	-1218	-512	123	166	1
-12624	26212	32767	751	2521	1074	-25112	11880	-5160	1608	3101	1178	6488	-14088	-21960	2139	2113	-1879	-11536	4672	19008	-21653	32767	-12968	-32768	-1248	13808	1836	2854	224	-29168	3240	17152	945	-2560	-495	124	166	1
-23940	-32768	3336	801	2451	525	-11792	-2208	-5416	47	2899	610	-13488	30248	-23408	-59	1747	219	-20280	2992	26704	-29726	32767	-21735	-29672	216	5576	2390	2639	647	-21656	-8144	17576	1107	-4237	-305	143	86	1
-21304	15140	32767	1311	1358	803	-3728	-13504	-18200	922	2366	-487	-3016	13568	-10104	-2079	-664	700	-24952	-744	27376	-16325	32767	-19888	-26688	5136	-2232	3188	2970	842	-21232	-6712	8400	1861	-2400	-63	115	0	1
-16464	-16696	12260	1228	272	303	-13944	7856	-6456	1900	1487	-16	-15568	-27688	-15328	-4060	337	214	-23520	2032	32767	-8384	32767	-16683	-30976	8904	-1424	2627	2645	441	-23080	784	-5032	2655	-1007	759	108	52	1
-8860	-2860	14304	935	145	285	-29592	9064	-8776	-1322	1805	226	-26576	-15712	-13000	679	1938	-1366	-21160	6888	32767	-5331	32767	-18937	-24792	3200	3784	889	2029	515	-29624	456	-11744	2273	-1375	1159	139	146	1
-8516	-3772	14556	684	84	203	-12200	-4424	-4672	-1942	1534	-310	-22376	4096	-6360	567	1854	-133	-32768	-3768	32767	-13239	32767	-26338	-18216	8616	-12968	-48	1651	677	-26120	-3368	-7160	982	-2103	1029	151	194	1
-8084	-2660	14600	471	49	179	-16984	680	-4328	-317	939	-59	-12872	-824	-2064	-92	1753	494	-24160	17256	32767	7174	1853	-12659	-14816	144	-8304	718	1257	132	-26296	-5216	-3480	-34	-2515	1147	141	203	1
-7468	-2012	14412	326	60	60	-18344	3432	-2824	548	759	200	-17520	-520	-1360	592	1809	786	-6632	16704	23720	8522	-12948	-484	-18368	-6064	3264	1700	663	177	-22888	-4432	-3768	-270	-2813	1313	131	188	1
-7388	-2664	13992	261	75	-11	-18392	-656	-3648	1151	700	158	-17616	2112	-1104	686	1879	795	1168	10024	10304	5655	-13413	5887	-12264	-1888	1432	1977	-69	274	-22312	-2512	-3600	66	-2818	1455	121	173	1
-7720	-2896	14172	190	93	-47	-16096	-344	-4192	1813	425	111	-15248	2320	-1712	311	1863	675	312	4880	13352	4212	-12888	7838	-7632	3264	-440	1293	-901	453	-22040	-1688	-3320	-147	-2807	1373	132	164	1
-7688	-2876	13892	138	89	-57	-15904	3960	-3032	1351	450	101	-15848	1336	-824	-19	1966	331	-1928	1136	18424	5583	-16195	7465	-8480	5672	-1760	5	-1510	603	-20064	-4152	-3104	676	-2246	1364	129	161	1
-7592	-2572	14000	105	79	-48	-15816	4880	-1920	-246	553	49	-15040	480	512	-108	1975	477	-2816	-176	20424	9059	-21151	6620	-9408	1880	-2504	-1087	-2131	486	-18392	-1608	-5128	730	-2309	1349	123	160	1
-7536	-3032	13816	124	49	3	-15224	-248	-544	-1304	657	-55	-14752	0	728	-409	1856	364	-3928	-568	20672	12294	-26133	6807	-9352	-1440	-2184	-1480	-2734	292	-17232	72	-5512	489	-2198	1282	122	157	1
-7764	-3024	13764	146	15	52	-16128	-3800	-624	-1029	620	-142	-14992	-1720	-8	-543	1957	224	-5360	-760	18472	14647	-30468	7992	-9976	-3080	-2544	-1453	-3219	164	-13736	1384	-5800	229	-2068	1174	121	151	1
-7632	-2984	13688	143	-5	66	-16144	-3736	-856	-17	570	-34	-13968	-1520	1208	-400	2277	198	-6656	-1824	17752	15346	-32768	9601	-11120	-3448	-2488	-1257	-3634	49	-12176	928	-6560	-16	-1891	1067	122	150	1
-7256	-2452	13704	143	-6	74	-15720	-864	-1712	771	552	52	-13704	-1912	4928	-285	2849	152	-8776	-3440	19712	15971	-32768	11217	-11224	-1848	-3728	-1490	-4101	-67	-11440	-864	-7040	-424	-1796	878	126	151	1
-7240	-2352	13808	142	-1	71	-16160	1648	-2272	697	603	75	-15304	-3416	4640	-754	2927	490	-11416	-4920	22216	15746	-32768	11772	-11976	-1512	-3824	-1910	-4462	-391	-8984	-2416	-8304	-949	-1656	585	123	143	1
-7536	-2524	13468	157	-8	158	-15256	928	-2824	-120	678	65	-16688	-2848	-5328	-1193	2537	367	-10352	-8208	18296	16894	-32768	11142	-13440	-2392	-3584	-2334	-4902	-775	-7104	-3896	-9240	-1342	-1436	321	130	148	1
-7696	-2304	13848	185	-60	220	-15040	-872	-3008	-486	733	-48	-17152	-368	-9744	-55	1731	51	-11216	-10128	16432	19288	-32768	9338	-18144	-4280	-5840	-2693	-5356	-1028	-6232	-5136	-10096	-1726	-1204	183	131	154	1
-7640	-2468	13952	155	-42	264	-16928	-1368	-2496	-204	724	27	-17264	-4608	-2176	752	1317	142	-18256	-9888	25664	20333	-32768	7407	-20480	-3160	-11288	-1703	-5376	-1286	-6576	-7120	-8520	-1892	-1023	-32	131	163	1
-7448	-2000	14020	140	30	268	-17432	952	-2176	280	792	108	-16512	-5760	2968	284	1343	197	-21136	-6312	28272	22787	-32768	9645	-27000	-2376	-11120	-1069	-5512	-1449	-5920	-5760	-5528	-1802	-728	-221	133	166	1
-7344	-2036	13728	155	116	302	-16768	1440	-608	218	935	89	-17256	1168	3160	-217	1129	233	-32136	-2760	32767	18458	-32768	15540	-31408	800	-15328	-624	-5509	-1604	-6432	-744	-1408	-1553	-486	-116	128	161	1
-7388	-2256	14104	197	190	342	-16112	576	-720	93	1125	43	-17664	2440	2536	233	1183	374	-32768	-9368	32480	15398	-32768	22622	-28024	5856	-16288	-616	-5203	-1940	-11208	3920	1600	-825	-369	141	132	155	1
-7508	-2092	14028	231	274	398	-16080	-8	-576	96	1157	59	-18424	-2440	1952	144	1167	242	-32768	-13288	21960	9718	-32768	24799	-29888	8680	-16472	-1127	-4674	-2216	-17696	6408	9384	-212	-37	691	134	151	1
-8120	-1472	13900	307	429	483	-19176	664	-3560	250	1543	212	-19352	-3552	848	-531	910	46	-32768	-9352	4632	780	-32768	20461	-26176	9272	-19720	-1727	-4012	-1914	-19200	3440	20560	-2427	610	1212	135	150	1
-8004	-1700	14384	374	658	523	-21256	2048	-2552	-197	1738	372	-19312	768	-384	-761	712	-46	-32768	-24976	-7392	10434	-26591	12150	-17560	9248	-25064	-985	-2898	-1174	-16096	-5096	32767	-3840	577	1163	134	152	1
-8272	-1628	14468	427	921	627	-18616	1208	-2288	-434	1925	311	-17456	1448	1120	-684	618	53	-32768	-32768	-32768	26227	-12723	3078	-6000	6024	-27920	1564	-492	89	-15632	-9944	32767	-1164	-374	-833	136	155	1
-8004	-1208	14300	600	1338	598	-19128	1392	-3016	-55	2041	482	-17208	-2824	2016	-710	664	139	-32768	-19016	-32672	1348	5135	1451	-7920	12360	-21032	1095	1166	566	-17792	-3376	19240	1292	393	-1644	131	156	1
-8852	-756	14032	939	1876	472	-19712	304	-2256	259	2212	686	-18616	-8952	1712	-898	644	240	-19416	-18464	-1688	-20115	11950	-3552	-15136	14064	-12976	94	2155	928	-11952	560	3936	2049	944	-234	123	108	1
-10172	-2072	14072	1300	2477	694	-22048	-1048	-416	212	2409	701	-20656	-7480	3984	-860	236	380	8480	31160	19872	-12387	22276	-15886	-24968	592	21728	-2335	1750	286	-11424	5464	3072	2448	966	-44	127	45	1
-9576	-3044	14540	1537	3091	1154	-25320	-72	1224	-385	2596	581	-22528	-2128	7496	-372	-160	540	-7656	22112	2048	-7075	32767	-6018	-32768	-15056	3376	-3578	1635	1211	-14560	13520	-368	972	1580	-225	121	60	1
-11220	-2616	14512	1501	3982	1685	-29464	1520	2536	-1104	2781	550	-22136	-1848	14336	-215	-760	621	-32768	-14016	32767	-10348	32767	520	-28528	3352	-9456	-801	2561	1095	-32768	2200	8288	-1386	-439	218	120	63	1
-12888	-2324	16348	1837	5393	2282	-32768	4656	8240	-2434	2649	839	-26024	-5120	22912	-251	-3023	523	-12216	4320	28464	-4932	31039	-3036	-24168	-1448	-4288	-1035	2399	1389	-10192	-13232	-1648	-2611	900	1037	113	0	1
-22624	-3644	32080	3014	6577	3258	-30232	-4272	1032	-4231	2550	1069	-11440	6384	-3432	-1956	-1894	373	-23296	-3048	23928	-7588	18020	-3503	-16336	10024	-16408	-153	2339	1436	-12712	-13632	-13000	2632	741	1804	114	0	1
-27704	-5836	32767	1637	7225	3521	-25552	-10512	-6240	-3534	3320	946	-28144	-1728	-920	-1230	-1861	321	-16664	8512	19456	-5184	6046	-2782	-18096	5288	-10272	-732	2080	806	-15952	10976	-17104	3168	453	-223	114	0	1
-28904	-4592	32767	1550	7257	3589	-29768	-6056	-8408	-1848	3054	1423	-24208	-8416	-11176	-1758	-1603	-1101	-9128	-1104	16688	-2567	1798	-2269	-17120	2456	-8944	842	1504	1142	-17816	8152	-14040	-68	1763	198	117	46	1
-3372	-24896	14412	434	4587	3660	-24104	-2368	-3240	-447	2555	1081	-31088	-248	-12544	-123	-2174	-1362	-8752	568	15856	-458	205	-806	-19424	4672	-5512	744	1185	603	-24880	248	-10992	-822	1613	-122	119	82	1
-30108	-28088	32767	585	1919	1913	-18184	4056	-13152	1112	1812	643	-28800	1704	-12920	813	-2328	-1185	-7448	1056	15400	115	207	-394	-19104	3208	-3112	40	815	335	-18264	2600	-6112	-1049	1409	-329	118	108	1
-11228	-29324	27848	110	226	188	-16344	536	-4400	-412	968	558	-29664	4816	-7872	647	-2947	-1212	-7728	848	15168	291	581	-282	-18360	728	-3544	-40	598	267	-17160	-304	-2496	-1083	1413	-630	126	118	1
-4484	-21096	15736	523	-355	-739	-13184	-1392	-768	-475	123	51	-24664	3336	-5824	420	-3221	-1118	-7032	392	14832	254	970	-100	-18072	-336	-3808	538	570	328	-18512	-4040	256	-333	1642	-674	115	123	1
-2036	-12948	14568	271	-695	-1310	-7296	-1016	-2456	125	-727	-345	-22352	1184	-4864	316	-3134	-1210	-7760	296	15392	667	1346	371	-17808	-1280	-3304	1166	624	312	-16344	-3648	184	444	1850	-413	113	123	1
-4424	-9808	18472	-388	-1371	-1745	-4760	16	-3768	81	-1309	-656	-19704	1000	-5032	729	-2708	-1111	-7856	928	14824	994	1471	804	-16880	304	-1736	1644	693	314	-15328	-1440	-128	926	1938	-456	122	122	1
-5952	-7260	20008	-991	-2312	-1987	-6160	592	-4688	238	-1806	-1020	-17696	5368	-1928	640	-2626	-873	-7744	1392	14736	1253	1422	951	-16032	1744	-504	1695	678	357	-15232	-1072	-712	934	1933	-456	125	125	1
-5632	-4920	16780	-1530	-3073	-2187	-7256	1056	-2872	534	-2460	-1223	-15008	4816	-5072	710	-2409	-730	-7880	1776	15016	1247	1428	694	-16024	2536	1008	1498	530	363	-15560	2376	1032	952	1857	-636	125	151	1
-6752	-3044	15992	-1818	-3541	-2320	-7616	3496	-2152	559	-2977	-1510	-14328	3808	-6168	341	-2055	-720	-7600	1584	14776	832	1161	240	-15904	3432	1584	1184	405	303	-14488	4200	1880	498	1766	-629	127	200	1
-8408	212	15784	-2056	-3892	-2355	-8816	4792	-2576	338	-3399	-1768	-12160	1440	-7576	101	-1864	-668	-7648	1776	14896	324	1002	-329	-15880	3264	376	886	340	298	-13800	4664	2064	64	1791	-667	129	219	1
-10328	2380	15120	-2364	-4072	-2305	-11080	4800	-2144	299	-3722	-1895	-9872	592	-7184	690	-1767	-506	-7744	976	14496	73	631	-629	-15576	1784	-184	831	375	284	-14320	3592	5616	99	2031	-512	126	197	1
-13404	2580	17672	-2533	-4166	-2210	-12032	4992	-4664	588	-4050	-2085	-8584	2096	-7840	1499	-1767	-196	-7792	1312	14568	-85	271	-707	-16160	1728	536	1059	522	245	-14440	4344	7320	555	2635	-474	128	187	1
-16024	3188	19760	-2724	-4344	-2277	-13192	7312	-5544	915	-4388	-2140	-7360	3656	-8528	1990	-1611	76	-7736	1808	14840	-307	225	-1105	-16224	2280	1784	1014	666	279	-17856	3896	3072	699	2551	-501	124	178	1
-16696	2216	17616	-2787	-4274	-2457	-15784	9112	-5864	672	-4600	-2003	-7576	4240	-9232	2096	-1470	225	-7512	1600	14776	-308	273	-1472	-15256	1968	1808	706	784	276	-20384	1464	2640	184	1389	-455	128	173	1
-17884	36	18544	-2577	-3975	-2734	-18088	7944	-7232	293	-4796	-1901	-8064	3992	-7848	1359	-1096	213	-7504	1776	14896	-62	703	-1744	-16056	1296	8	318	821	233	-18136	3744	3208	-520	1143	-97	129	168	1
-21176	-2680	22640	-2236	-3799	-3113	-18360	7608	-7320	277	-4836	-1905	-7952	3480	-6000	392	-618	78	-8184	1184	14800	164	1203	-1702	-16840	1456	-1720	81	1129	271	-15440	5064	2304	-180	1249	-210	129	161	1
-24688	-3392	26072	-2003	-3741	-3517	-23840	3840	-9144	697	-5317	-1855	-7408	1992	-5488	84	-116	-67	-7840	1184	14504	448	1656	-1425	-17104	1760	-2624	-220	1219	187	-14456	2424	-896	243	1444	-354	131	156	1
-30960	-1956	30904	-2070	-3754	-3780	-28352	1520	-12512	1088	-5496	-1690	-8112	-512	-3224	-229	196	-272	-7784	1152	14712	267	1943	-1621	-16944	1840	-2536	-438	1271	177	-15072	-760	-2344	30	1561	-275	131	150	1
-32768	2156	29764	-2291	-3861	-3925	-31040	2504	-16096	1586	-5515	-1364	-11584	-4784	120	-546	302	-415	-7904	1088	14832	125	2345	-1856	-17232	1248	-2800	-296	1321	238	-15864	-592	-2056	-399	1425	-145	130	146	1
-32768	8088	20216	-2394	-3524	-3809	-30352	5736	-17864	1441	-5118	-815	-17664	-5288	5424	-623	322	-488	-8360	832	14680	288	3192	-2142	-17664	1704	-3008	-220	1340	267	-16616	1936	-1112	-220	1285	-185	128	145	1
-32768	11084	7900	-1808	-2703	-3381	-23256	6168	-19416	1064	-4391	-532	-22176	-3112	20712	192	-69	-736	-8272	1120	14640	307	4713	-2629	-19760	3016	-3008	-240	1444	267	-17264	2688	-1168	101	1273	-219	138	142	1
-32768	31060	3624	-1579	-2441	-2265	-15880	9656	-30352	-482	-2854	-648	-15824	-2760	32767	1578	183	-1183	-8216	1408	14480	-682	7066	-3251	-20224	-72	-2840	-352	1577	230	-18952	1816	-360	58	1229	-188	151	145	1
-32768	32767	-24184	-3329	-1712	-375	-3200	6480	-30248	-2845	-455	-449	-20984	-928	32767	806	-129	-82	-8480	744	14456	-686	10392	-3267	-19144	-408	-2920	-416	1740	205	-18184	2952	968	140	1040	-374	164	139	1
-32768	32767	-28236	-675	100	2328	-6880	-3592	-23240	-2860	1489	-87	-22248	11904	20800	-409	227	1145	-7024	792	14400	-1885	13635	-2806	-20008	1528	-2720	-552	1951	127	-19344	4968	416	216	883	-518	156	134	1
-32768	5124	-3396	2837	807	3987	-17800	-4104	-15776	-699	2543	448	-11208	2952	2320	-1470	501	798	-9440	1048	13888	-3450	16699	-3149	-21720	1600	-1832	-606	2063	194	-20312	4040	1992	364	620	-543	121	135	1
-996	-32768	18496	2521	676	2897	-28456	-6040	27024	-242	1823	537	-11512	-6040	-4192	-2340	430	153	-9392	1840	14960	-6255	20290	-4379	-24120	320	-368	-130	2222	250	-22032	1520	4896	273	273	-441	115	162	1
-1420	-14932	-14596	2431	3546	1561	-30352	9664	8904	2877	1512	-32	-25824	-5208	104	-113	633	-460	-9912	1712	14880	-6808	20779	-4672	-27096	696	1592	421	2366	293	-24992	3600	9176	553	-386	-496	119	134	1
-26652	21928	32767	2171	4519	680	-23928	11528	-7280	2338	2177	450	-31312	-16208	16416	3377	-1031	-2339	-11416	1824	14360	-16006	32767	-9325	-31216	-160	8832	1370	2585	255	-25992	6288	14744	1002	-1593	-539	112	103	1
-8020	3560	32767	1073	3065	1708	-25240	10616	-4960	1891	2455	1064	-13432	10032	4904	1898	1382	-908	-12960	5904	20280	-21831	32767	-15928	-32768	928	14152	2213	2717	361	-27728	0	20072	2022	-3114	-354	115	24	1
-24944	-16208	10064	3013	1559	777	-13136	-16192	-10880	-374	2915	443	-17520	28656	-16112	-1984	1514	649	-24288	-2696	32767	-27178	32767	-21768	-27176	5760	-1704	2386	2720	773	-15704	-2760	8840	1797	-2905	-290	140	0	1
-18616	7396	32767	2483	571	1037	-11216	-896	-15264	3045	1809	-331	-6352	-9368	-18264	-4105	-137	659	-26400	2128	32767	-12096	32767	-17914	-28504	4912	-3832	2736	3042	488	-21616	3720	1816	2205	-1729	312	127	0	1
-10440	-404	20600	1832	-22	533	-20328	8224	-10656	732	1715	195	-12192	-29696	-11224	-1079	1033	-175	-23056	2504	32767	-8459	32767	-14796	-29056	6104	-416	1577	2293	319	-27360	3256	-11624	2126	-975	960	115	82	1
-10044	-2608	15268	705	-226	170	-20224	2184	-8232	-365	1511	90	-25040	-3504	-12600	1952	1936	-881	-20024	5248	25184	-6150	32767	-18628	-24448	3552	3400	586	2047	152	-30440	-32	-11144	842	-1764	1189	135	192	1
-8676	-2928	14268	278	-156	73	-18432	2944	-5120	-914	1283	104	-22192	10400	-4856	951	1638	-154	-32768	4160	32767	-11261	26207	-27956	-16184	10224	-17112	-530	1552	533	-26776	-2456	-8144	-100	-2332	1362	149	244	1
-7464	-1652	14188	111	-29	6	-16496	2616	-3072	-818	922	67	-15544	4984	-800	-279	1576	313	-20072	16896	32767	1034	-1897	-16443	-13800	352	-10384	-109	1008	-124	-26432	-1688	-4392	-641	-2721	1408	131	244	1
-7392	-1936	13980	62	113	-60	-17336	1336	-1848	-357	700	41	-16784	904	-1640	-316	1631	798	-7120	16128	23896	8420	-17005	-2135	-16136	-8000	2320	860	453	-412	-24048	-200	-4616	-834	-2817	1573	124	221	1
-7676	-2676	13808	70	167	-106	-16896	-1824	-1816	382	575	-129	-16472	-584	-600	-187	1629	849	-1392	12640	10520	4882	-19459	5551	-15824	-7928	2312	958	345	-434	-23352	-912	-4248	-814	-2868	1436	127	203	1
-8212	-2996	13764	105	147	-109	-16088	-3600	-3272	863	486	-23	-14256	-2472	-1400	-503	1624	531	-1592	6528	12672	56	-20656	8030	-6704	3712	-1632	1076	-1249	-74	-18624	-2728	-4592	-485	-2275	1559	131	190	1
-7928	-3116	13548	114	103	-85	-16552	48	-2232	517	428	76	-15008	-3528	-2168	-738	1734	270	-3384	2112	16008	2717	-23431	8777	-7720	6472	-1992	108	-1795	-34	-18488	-320	-5136	-285	-2236	1459	125	179	1
-7760	-3072	13608	94	101	-24	-16456	264	-2120	388	424	62	-15288	-2688	-1472	-613	1914	220	-5288	2232	18088	5990	-27964	8089	-8504	4472	-2400	-1110	-2446	-103	-16960	-672	-5752	-422	-2154	1248	115	173	1
-7856	-2756	13616	72	76	38	-15080	-528	-1480	-1367	500	-18	-15424	-1120	-472	-486	1988	262	-6624	1528	18104	7481	-32768	7376	-8008	2240	-2216	-1725	-3055	-266	-14848	216	-6680	-492	-2062	1082	123	167	1
-7488	-2228	13820	63	61	42	-16168	-1168	-1064	-1285	472	-117	-14640	-48	536	-553	1939	330	-8392	960	17304	11344	-32768	7990	-9624	704	-3536	-2065	-3617	-318	-12920	904	-7512	-599	-1864	1071	119	157	1
-7564	-2212	13820	62	59	44	-16480	-2800	-1280	-549	453	-17	-13752	-8	2248	-1006	2180	439	-10808	1472	16888	14295	-32768	9306	-10616	-24	-3016	-1980	-4023	-516	-11880	256	-8200	-1027	-1776	979	120	151	1
-7740	-2208	13700	15	95	-8	-15840	-2640	-1136	238	458	83	-13408	-3616	5256	-988	2618	301	-13488	1432	17584	15617	-32768	11124	-10848	896	-3752	-2336	-4419	-569	-8704	-1472	-8944	-1631	-1767	679	122	149	1
-7756	-2020	13608	47	73	-5	-15800	-48	-1824	293	506	136	-16552	-4104	1848	-482	2694	94	-14696	-1008	16856	18946	-32768	13930	-11736	-272	-4608	-3179	-4800	-880	-7184	-3400	-8984	-1953	-1586	424	122	144	1
-7656	-2352	13736	93	43	24	-14944	328	264	-469	719	114	-19712	-2976	-3192	-260	2103	-18	-15600	-2096	12616	21316	-32768	16677	-15560	-3008	-5864	-3250	-5016	-1375	-6736	-5720	-9624	-2051	-1330	176	125	134	1
-7368	-2884	13660	206	-10	139	-14672	-2624	1904	-570	875	41	-18816	-4984	1960	-36	1271	119	-20712	-3912	19520	18953	-32768	18109	-19504	-32	-9336	-2089	-5060	-1564	-7136	-7712	-8912	-1640	-1046	62	127	133	1
-7588	-2796	13968	276	-47	246	-16368	-3744	104	139	1005	77	-17632	-7728	5000	160	1015	155	-23656	-4160	27976	17650	-32768	18669	-23256	2328	-9408	-1667	-5177	-1605	-6856	-7272	-5048	-1073	-766	66	128	139	1
-7780	-2412	13788	280	-38	280	-16872	-992	-1840	753	1136	175	-15864	-4552	2024	96	1127	96	-32768	952	32767	14281	-32768	19814	-30912	4448	-13392	-1090	-5220	-1673	-6192	-2880	24	-1231	-579	213	127	138	1
-7872	-2208	13664	303	3	286	-16240	1280	-2752	703	1205	215	-14800	1464	-1664	-57	925	201	-32768	-1112	28376	12516	-32768	23877	-26544	6744	-13848	-1345	-5178	-1847	-9264	-432	952	-986	-311	215	131	133	1
-7952	-2132	13488	291	105	314	-16248	1456	-2856	654	1214	213	-15112	3632	-3192	25	1086	187	-32768	-6184	21200	11881	-32768	26207	-26848	6544	-13952	-1605	-4896	-2031	-14080	2640	2776	-420	253	266	134	133	1
-8044	-1560	13916	299	209	330	-17312	-272	-3904	169	1405	95	-16408	824	-1128	-132	1041	-25	-32768	-11976	16656	9454	-32768	23555	-29184	5392	-15648	-1114	-4347	-1952	-20752	5800	12552	-1073	317	662	135	138	1
-8160	-1736	13564	325	287	335	-16080	-1304	-3328	117	1531	203	-15568	-2840	-408	-558	899	-52	-32768	-21008	4456	9465	-30912	14836	-23176	6848	-18648	85	-3585	-1556	-16328	3016	22304	-3161	554	992	130	139	1
-7668	-3048	14468	423	443	420	-18640	-1528	-2296	31	1648	232	-17704	-4488	-1352	-863	935	-62	-32768	-32768	-9584	18551	-20759	-1419	-12752	8792	-26608	1692	-2357	-552	-13024	-3512	32767	-2782	-202	658	130	138	1
-8164	-1224	14212	464	675	425	-19184	1536	-3072	15	1815	309	-17744	-5416	128	-771	819	67	-32768	-32768	-32768	22983	-8346	-10496	-4304	7368	-26008	3171	333	517	-16288	-3728	32767	303	-475	-1066	132	136	1
-8540	-524	14348	500	956	317	-17728	936	-3256	-46	2009	425	-16712	-6216	760	-459	771	278	-32768	-15672	-18112	-8430	7173	-16394	-12288	15976	-18360	2077	1599	636	-18176	-7992	11160	2272	871	-1167	126	149	1
-8176	-920	14076	643	1347	264	-19768	-1792	-3496	258	2148	525	-18176	-6560	1368	-415	721	458	5216	-1384	11768	-15172	19118	-21566	-16168	11480	-7248	1045	2118	760	-10704	-5496	1448	3915	1105	-29	127	142	1
-9444	-1236	13888	757	1885	452	-21040	560	-2936	212	2343	533	-19336	-2936	3776	-493	387	432	2792	26072	20768	-14185	23829	-13958	-29176	-11216	16456	-2212	1568	367	-19656	5352	3904	3381	289	-283	122	60	1
-9040	-1932	14412	894	2555	761	-24224	1048	-1224	-596	2586	566	-21472	-176	6080	-238	199	431	-11624	7112	14528	-17813	32767	-102	-31056	-5296	1872	-2089	2010	1161	-23208	27432	32392	2152	563	470	122	17	1
-9616	-2720	16736	887	3435	1126	-27792	-368	752	-1065	2723	614	-23880	-2464	9328	-536	-219	355	-23176	-28600	32767	-11121	30591	-1520	-30840	2440	-10408	-1692	2654	1013	-23592	6368	1656	-3397	268	103	115	49	1
-10180	-2988	16036	1264	4623	1666	-32768	-432	3888	-1431	2696	691	-24840	-2776	9832	-588	-320	357	-11552	7144	18776	-4693	24221	-4120	-17280	-3440	-3360	-2108	2485	780	-11104	-20568	-15112	-1817	735	988	108	0	1
-15584	-4948	28368	2202	6125	2480	-32352	-408	3600	-2613	2653	684	-27288	-680	18136	-1526	-3701	517	-32768	2624	20216	-9920	19150	-494	-11136	15856	-5728	-26	2065	1113	-11984	-17544	-10792	2565	-109	112	110	0	1
-20700	-2772	25088	2186	6878	2935	-26360	-5056	-3736	-3070	2890	644	-16392	4232	-5016	-2101	-1628	473	-16504	-3984	24432	-5333	7316	-3156	-17728	6040	-11624	-1160	1704	1373	-14672	23768	-14624	3067	1107	454	107	0	1
-22632	-4288	32144	913	7527	3133	-29120	-1664	-5920	-2206	2955	1038	-23936	-1000	-4504	-1141	-1731	-339	-8744	-4136	18720	-3425	3223	-2656	-22784	1208	-8752	415	1475	804	-24296	8376	-14496	-1127	1933	456	115	0	1
-18232	-14632	32767	-549	6277	3315	-25120	-1608	-3024	-2217	2703	1188	-29664	-5792	-12928	-1749	-1726	-1040	-7920	840	15744	-1554	1250	-1482	-17184	5344	-5032	349	1182	432	-23784	-1472	-8440	-1439	1411	115	119	185	1
-32768	4124	26948	-266	4270	3442	-20088	-1904	-3712	-1075	2144	914	-27768	-2360	-12872	-520	-2464	-1049	-7632	248	16072	-327	1512	-1042	-18512	24	-4120	-214	808	316	-16352	-3696	-2816	-760	1514	-164	109	196	1
-22724	-27424	32767	-290	1621	1336	-14920	1512	-8936	-60	1327	499	-26248	2904	-9864	667	-2479	-913	-6992	-224	15400	719	1573	-434	-18672	-2248	-4096	487	617	336	-16880	-4184	-616	-212	1600	-430	112	189	1
-18664	-28168	32767	38	1114	1073	-13520	-2152	-2792	-806	684	149	-24760	4376	-4784	1007	-3039	-766	-6816	160	15320	1303	2386	448	-18440	176	-3432	568	522	488	-18112	-4000	568	419	1760	-522	111	174	1
1732	-11996	13576	438	-816	-570	-11064	-304	-400	-336	-242	-207	-21416	1216	-2288	951	-3053	-833	-6272	4024	6672	1396	3117	815	-17392	1328	-2760	580	487	428	-16512	-1112	-280	979	1926	-578	109	167	1
-1028	-8140	14604	-695	-795	-933	-7552	2336	-320	-721	-953	-355	-20952	1184	-3528	786	-2800	-778	-7144	928	15008	1303	2907	847	-16264	2368	-1720	730	501	296	-15184	3120	-1136	930	1840	-572	115	158	1
-6868	-9948	21396	-1343	-1607	-1280	-6280	16	-5536	-809	-1272	-694	-19160	3544	-5192	432	-2463	-707	-8008	1408	14944	1265	2640	863	-16416	1912	-808	1254	614	308	-15640	3960	-1160	577	1840	-654	123	147	1
-6832	-8528	18872	-1173	-2823	-1499	-7832	-2040	-2968	-453	-1843	-1142	-16712	3616	-5680	440	-2334	-698	-8008	1656	15160	751	1737	289	-15552	1712	704	1828	715	392	-15088	2760	-368	349	1865	-738	118	143	1
-5608	-5116	14676	-1349	-3390	-1686	-9232	672	-1000	176	-2440	-1444	-15600	1056	-5200	121	-2335	-672	-7912	1536	14944	412	1141	-284	-15664	2280	264	2086	694	420	-14136	3024	504	171	1868	-632	117	145	1
-8288	-4624	16872	-1812	-3730	-1919	-9312	2720	-3328	279	-2882	-1533	-14384	-88	-6144	89	-2173	-626	-7768	1344	14728	165	749	-583	-16264	3472	-104	1904	602	386	-14304	2824	1272	-73	1871	-578	119	142	1
-8672	-4704	17204	-1868	-3804	-1959	-10320	2128	-2520	247	-3336	-1724	-12152	-2048	-7056	361	-1982	-587	-7688	1088	14688	159	772	-565	-16312	3792	-504	1163	502	319	-14552	2536	4688	179	2071	-600	121	139	1
-9924	-2916	13800	-2093	-4339	-2289	-12072	1472	-1656	637	-3791	-1851	-10144	-1352	-7600	813	-1774	-431	-7584	1256	14560	272	1019	-546	-16688	2544	-824	599	537	182	-14144	4416	6272	809	2540	-656	122	132	1
-12068	-2588	15392	-2074	-4303	-2394	-13168	2712	-3376	1444	-4201	-1952	-9104	304	-7632	1509	-1627	-191	-7576	1304	14472	229	910	-747	-16096	1304	-88	621	642	164	-17024	4144	888	840	2571	-661	120	124	1
-15136	-1836	18968	-2212	-4272	-2571	-14344	5632	-5200	1679	-4604	-1878	-8136	2328	-8416	1887	-1412	-8	-7536	1352	14672	58	970	-1234	-15592	1224	328	941	734	205	-20272	2792	-1656	153	1809	-283	123	123	1
-17012	-2100	20096	-2384	-4182	-2833	-16728	7688	-5784	1063	-4883	-1732	-7552	4304	-9336	1657	-1121	77	-6976	1512	14912	128	1216	-1829	-17312	2200	-136	952	798	270	-18296	2592	1888	-444	1099	-300	124	133	1
-19884	-4780	22072	-2237	-4073	-3187	-19088	4992	-7632	492	-5139	-1720	-6912	4544	-9304	901	-642	-6	-7776	936	15016	335	1893	-1952	-17664	1912	-1784	411	782	182	-16576	4608	1912	-224	1334	-467	124	128	1
-23228	-5484	24076	-1931	-3971	-3607	-23280	3416	-9040	817	-5404	-1783	-6376	2592	-7568	57	-207	-192	-8320	600	14824	565	2562	-1616	-16632	584	-2480	112	1060	222	-15552	1784	216	153	1440	-483	124	128	1
-26888	-4016	26544	-1847	-3753	-3825	-28144	2320	-10512	1048	-5665	-1619	-6528	216	-5792	-373	175	-308	-8032	1312	14632	-12	2635	-1596	-17656	2240	-1672	3	1130	190	-15712	-1112	-624	4	1450	-384	126	128	1
-32768	-1864	30876	-1888	-3616	-3789	-32104	-720	-14760	1342	-5793	-1483	-9360	-3216	-2600	-157	394	-437	-8064	1168	14688	-20	2627	-1714	-17112	3048	-1616	-198	1197	205	-16336	384	96	-265	1448	-272	126	132	1
-32768	4716	29692	-1856	-3744	-3470	-32752	1752	-19040	1521	-5645	-1152	-15592	-6080	1256	227	289	-571	-8400	944	14536	-214	3909	-2841	-17984	2024	-1872	-233	1330	223	-18280	3232	1272	-8	1309	-190	126	134	1
-32768	10352	19480	-2042	-3597	-2960	-27704	5400	-21088	1222	-5012	-697	-24200	-5256	10952	938	-77	-867	-8240	1224	14712	-803	5944	-3101	-20392	240	-2040	-173	1519	162	-18656	2848	1320	280	1237	-102	134	138	1
-32768	22140	5624	-1886	-3022	-2280	-20440	8232	-31360	349	-3925	-791	-19512	-1048	32616	1780	78	-1292	-8104	352	14368	-496	8959	-3440	-19560	-480	-2064	-192	1720	191	-18536	-936	2680	462	1167	-92	147	141	1
-32768	32767	-23320	-3506	-2481	-1057	-5984	9600	-32768	-2289	-1110	-603	-17168	-3936	32767	1167	-335	-293	-9512	424	14568	-972	12418	-3401	-19688	-720	-1984	-390	1894	197	-17632	112	1904	494	1022	-236	163	137	1
-32768	32767	-32768	-918	-131	1705	-424	-2544	-26424	-3094	1365	-95	-22872	6992	26424	256	154	1241	-9936	-200	14168	-2569	15454	-2693	-18432	824	-2776	-573	2122	156	-18312	6480	1424	471	796	-482	154	143	1
-32768	19264	-11416	2676	1855	4492	-18416	-6584	-19864	-823	2545	274	-12560	8016	4064	-693	510	913	-9680	512	12536	-4724	18759	-2166	-21936	1640	-904	-694	2370	92	-20712	6664	3120	639	353	-639	141	158	1
-4328	-32768	27288	2269	1229	2920	-25736	-832	21968	15	2135	840	-12520	-3464	-2112	-2659	116	420	-11000	2344	14424	-7855	22426	-4144	-25392	-24	920	-195	2530	222	-23208	2312	8664	431	-389	-505	109	163	1
-2992	-32768	23280	2264	1461	2550	-32768	8968	6664	2585	2136	363	-32768	-8016	24480	168	-1602	-313	-10544	2584	15896	-11689	29274	-7093	-30128	0	4888	1029	2716	336	-25704	4344	15048	376	-1624	-527	115	176	1
-31420	30844	32767	1866	3802	979	-27376	12072	-14912	2726	2844	844	-20456	-17280	3768	3762	257	-2200	-12288	4992	18464	-18107	32767	-12442	-32768	560	13848	2269	2983	344	-28856	4656	18776	1865	-2793	-395	102	128	1
-31852	-24956	16860	1330	1902	711	-18472	-752	-7632	754	3149	1236	-20880	23584	-8592	1048	1515	-1127	-20736	-808	21344	-26188	32767	-21280	-32480	3552	5584	2358	2864	533	-20464	-2624	12072	1515	-3116	-332	137	0	1
-13636	9704	32767	2139	1170	967	-9024	-6240	-16464	2253	2610	20	-10072	26208	-20936	-2893	704	-216	-26696	280	27688	-17557	32767	-20374	-28104	5536	-2480	2395	3081	555	-19248	712	5264	2065	-2276	152	122	0	1
-18344	-15548	13628	1499	398	455	-8056	10296	-14352	966	2097	101	656	-12448	-12376	-4803	-438	809	-22336	1552	31472	-8038	32767	-16281	-30608	9952	-1816	1982	2932	263	-24104	672	-8392	1945	-1155	660	113	0	1
-8824	-3112	14800	1049	130	344	-19768	2248	-10264	-1175	1569	169	-23864	-30424	-17176	-464	867	-13	-18256	4728	32767	-8602	32767	-19491	-25632	1104	5808	785	1868	218	-30656	-32	-12176	1376	-1399	1113	119	165	1
-6868	-2904	14288	721	138	242	-19280	280	-5360	-1580	1534	-479	-25640	-1336	-9664	1785	1870	-455	-32768	-9408	21160	-18172	32767	-28197	-19720	7120	-6008	-272	1646	453	-28504	-3944	-8592	402	-2205	1209	142	244	1
-8164	-3260	14304	535	142	235	-18368	-3456	-3952	-670	1231	59	-22176	7392	-3752	50	1638	254	-32128	16744	32767	1265	2829	-19945	-12264	7520	-14992	-286	1172	90	-27592	-4200	-5600	-97	-2574	1286	139	253	1
-7812	-1612	14432	441	143	160	-16624	496	-4664	1055	822	153	-13968	-1712	-360	-415	1569	491	-8000	17240	27856	4179	-20420	-6663	-16736	-6056	2784	948	552	-162	-25272	-2160	-5552	-340	-2763	1404	136	245	1
-8180	-1800	14456	332	164	55	-18040	2568	-5608	1643	709	185	-17896	-160	-720	280	1681	781	1536	11176	8992	6334	-19971	1707	-12520	-3992	1312	1238	-277	-221	-24136	232	-6360	-332	-2772	1448	122	227	1
-7600	-2344	14252	261	146	32	-16984	2320	-4040	863	719	6	-16648	2272	-2072	254	1700	943	-2424	9272	13704	4098	-20532	5445	-5688	1560	-2200	1502	-1059	-176	-21528	-2592	-6176	-508	-2890	1479	129	215	1
-7900	-2472	14076	183	185	15	-16680	-152	-3872	426	550	-81	-17072	360	-2504	-415	1717	585	-3616	5128	17040	3038	-25446	7290	-6504	6232	-2904	875	-1727	101	-20112	-2304	-5928	-118	-2191	1504	129	199	1
-7932	-2932	13696	127	227	27	-15544	-1360	-2016	-64	514	-20	-16176	-3408	-1048	-930	1767	216	-2840	2088	14848	7342	-28947	8166	-8688	4136	-712	-557	-2478	103	-18248	-1328	-6800	-70	-2114	1263	125	185	1
-7976	-2820	13520	133	234	116	-17048	-1896	-2232	-619	515	-95	-15512	-4776	-584	-782	1915	255	-5600	2008	17920	10682	-31721	8454	-8216	2160	-2000	-1474	-3265	-104	-16472	-1224	-8096	-224	-1903	1164	112	181	1
-8536	-2480	13608	103	228	134	-15632	-3000	-2920	-441	403	-45	-15072	-4224	-1096	-472	2029	334	-9536	416	20696	13445	-32768	8732	-8416	1208	-4744	-1775	-3760	-187	-13560	-88	-8600	-262	-1689	1084	121	168	1
-8372	-2164	13592	70	200	95	-15088	-1568	-3736	156	277	32	-13376	-1656	-272	-189	2185	389	-10112	-88	17104	16933	-32768	9597	-11256	-112	-3000	-1808	-4183	-319	-11376	-744	-9176	-472	-1529	989	120	163	1
-8384	-2104	13588	26	190	69	-15656	776	-3680	-14	300	35	-12848	560	616	-308	2519	571	-12432	-1072	16488	19632	-32768	10854	-12856	656	-3296	-2308	-4700	-411	-9288	-2392	-9992	-812	-1479	774	127	160	1
-8688	-1948	13672	15	152	57	-15512	224	-4096	-587	325	47	-15032	-1632	2464	-811	2876	661	-14832	-1752	14592	22934	-32768	12388	-12944	-448	-5008	-3050	-4998	-684	-7304	-3376	-9920	-1413	-1444	540	119	153	1
-8476	-1988	13476	13	86	46	-14424	-512	-2752	-945	380	-7	-14240	-3032	960	-1048	2590	501	-17304	-472	10312	22662	-32768	15462	-17984	-2760	-8696	-3023	-5136	-1079	-6944	-4944	-9480	-1977	-1431	342	127	143	1
-8296	-2136	13488	42	-2	71	-14040	-2232	-1032	-794	483	16	-15920	-992	-5832	-622	2144	32	-24448	-832	22264	19715	-30604	19854	-15424	1336	-10728	-2055	-5133	-1385	-6296	-7312	-8504	-2095	-1318	185	129	140	1
-8020	-2136	13484	94	-70	111	-14800	-1752	-1896	-118	521	42	-17536	-344	-3408	300	1599	-52	-26280	-920	26584	18913	-32262	23282	-25704	2336	-9512	-1594	-5171	-1281	-5184	-5776	-3448	-2023	-1184	104	129	137	1
-7980	-1168	13620	109	-70	90	-16592	1040	-2936	206	578	100	-17120	-4504	1168	438	1245	206	-32768	-1192	29384	15292	-32768	24161	-28328	7168	-12832	-862	-5134	-1323	-5960	-3112	360	-2021	-949	340	130	135	1
-7892	-1436	13872	116	-58	43	-15984	1680	-2200	-55	692	141	-16168	-3416	2776	-98	1136	320	-32768	-3736	27960	14124	-32768	25327	-25440	8112	-15024	-1382	-5078	-1302	-9072	-408	2272	-1438	-710	381	132	131	1
-7948	-2752	13352	126	-32	65	-15688	-2416	-128	-270	897	114	-17192	-960	2608	26	1080	246	-32768	-10184	22768	15201	-32768	26524	-25488	4248	-14592	-1877	-4763	-1760	-12336	3112	4800	-265	-97	382	127	130	1
-7944	-2496	13588	174	36	193	-16744	-3656	-32	104	1072	119	-17976	-2472	3016	55	1042	125	-32768	-14960	19016	10515	-32768	23006	-28104	2472	-13760	-629	-4181	-1869	-17784	6808	12320	198	-13	478	129	133	1
-7656	-2056	14020	274	113	291	-17448	-712	-1008	329	1309	249	-18360	-2704	2680	-374	830	33	-32768	-18432	8736	6048	-32768	12735	-23880	7256	-15624	981	-3494	-1413	-17520	3384	15176	-1365	627	1169	130	139	1
-7796	-1784	13940	343	263	390	-19216	432	-2672	157	1502	278	-18448	-1360	-32	-698	693	-16	-32768	-28408	-9160	12115	-24428	-1915	-15472	8184	-21344	1432	-2665	-471	-19128	-2712	31512	-2488	585	1399	131	137	1
-7908	-1380	14004	395	463	397	-19032	1024	-3320	77	1649	335	-17184	-1040	-1832	-630	618	17	-32768	-32016	-25088	22719	-11838	-11981	-8168	5752	-23728	2860	-449	413	-15944	-2248	32767	-458	-1202	-318	134	129	1
-8192	-764	13968	431	707	342	-18296	1320	-3792	110	1778	434	-16960	-3608	-1856	-522	631	188	-32768	-15472	-22664	-3638	1976	-14349	-11192	10616	-18896	1686	1049	594	-15480	-1440	17792	1794	260	-1179	133	120	1
-8348	-1488	13972	539	1079	310	-20096	-872	-3424	299	1908	540	-19112	-7256	-856	-591	678	310	-31424	-12040	4624	-19208	9017	-16627	-15536	6224	-16816	447	1902	674	-13136	-1664	5096	2554	876	-211	125	138	1
-9472	-1636	13580	709	1533	442	-21360	-440	-3744	353	2033	511	-20088	-4992	352	-506	432	380	8536	4104	25896	-19239	10311	-13687	-15440	1272	10336	765	2247	427	-11336	3256	72	2684	680	-36	134	125	1
-10444	-1944	13640	926	2193	721	-22824	1816	-3040	-57	2142	484	-21056	-1200	1056	-358	373	393	10120	17264	15872	-11613	22713	-7917	-32768	-11024	13984	-2384	1412	453	-18608	4424	2016	1019	190	-337	125	81	1
-9388	-1628	14456	1198	2895	1015	-26160	2456	-440	-584	2267	479	-23096	-792	3440	-387	390	366	-12712	-3336	19048	-12895	31994	103	-19992	-3072	-1440	-1791	1877	925	-26440	12696	32767	40	211	689	123	37	1
-9316	-2228	15532	1254	3686	1304	-26840	1912	2816	-781	2285	544	-24744	-2192	8808	-514	-175	571	-24104	-13296	32767	-10773	26744	-3098	-32768	2728	-7232	-1452	2485	872	-16136	1992	6568	-2589	1292	202	119	6	1
-10376	-2176	14436	1440	4724	1723	-29192	1320	6624	-1135	2281	635	-25840	-1848	15480	-388	-1003	657	-13384	9096	19536	-6624	19188	-460	-19000	-1272	-3712	-2106	2527	636	-13976	-14856	-15768	-1112	1279	97	112	0	1
-17400	-2476	19876	2281	6245	2423	-30848	-928	7416	-2229	2437	832	-24128	200	22800	-740	-3269	659	-6648	-544	15936	-6657	19147	3155	-17496	-808	-3112	-2174	2404	517	-10392	-11584	-15976	1905	1046	951	106	0	1
-27148	-3032	25624	2693	7005	3028	-25240	-8928	-384	-2736	2984	768	-11464	3272	952	-2032	-2503	324	-19960	-1568	24840	-3443	6838	-2710	-12952	10496	-11296	543	1769	1215	-9680	14448	-5608	2292	1173	327	109	0	1
-25820	-128	30132	2317	7520	3270	-27544	-7320	-1272	-1678	2614	526	-25696	-2136	3320	-1560	-1971	143	-8544	-6976	21152	-3246	3968	-947	-26568	5096	-7048	-524	1345	966	-25424	14736	-13232	-451	1881	207	113	1	1
-28100	-8928	32767	-291	7414	3419	-27816	1016	-3528	-2437	2864	1252	-23416	-10344	-10880	-2043	-1320	-935	-11432	5488	16256	-323	1790	-433	-18032	4248	-4648	-77	1252	448	-22720	-528	-8872	-1427	1514	183	123	143	1
-10412	-16680	21488	-1085	4748	3218	-21824	-6144	-9672	-1316	2565	1001	-29840	-6776	-13896	-1116	-2249	-1253	-8016	128	17120	-70	737	-761	-15928	4880	-4296	-918	927	319	-16376	-1144	-3568	-733	1418	-42	118	163	1
-30644	-32768	32767	-589	851	1477	-16728	384	-16664	281	1568	468	-27232	-2392	-11936	839	-2459	-1027	-6336	-528	15648	643	464	-212	-18048	-2136	-3344	-266	698	291	-16568	-2672	-280	-227	1547	-339	116	162	1
-5284	-21568	24940	185	-1624	-130	-17352	-864	-480	-665	729	471	-27408	1984	-6752	1663	-2979	-956	-5736	256	14968	1707	1650	254	-19096	-456	-2312	471	621	472	-17360	-3424	600	52	1621	-411	113	156	1
-2032	-13636	12392	36	-1662	-734	-14032	-536	1440	-821	-10	104	-23960	2616	-4240	1349	-3281	-994	-5776	392	14744	2750	3771	726	-17752	704	-1584	451	504	528	-17184	-2392	184	571	1723	-378	115	155	1
-2572	-10272	14604	-596	-1682	-1093	-8368	-232	-3344	-930	-739	-34	-22888	912	-3456	1035	-3091	-801	-5880	1328	14704	2194	5117	674	-17008	1952	-1344	440	377	441	-15904	1992	-928	835	1667	-426	118	151	1
-5644	-9968	18832	-844	-2324	-1316	-7984	-2400	-3616	-812	-1324	-376	-20328	480	-2744	775	-2856	-913	-8040	2264	15200	657	5150	186	-17064	3728	-1736	628	385	424	-16080	3064	-992	720	1702	-487	122	138	1
-6336	-8472	17772	-860	-3184	-1455	-9744	-2976	-3544	-270	-1957	-783	-20424	912	-6280	706	-2440	-1132	-8712	1352	15800	242	3747	-150	-16760	2264	-1768	1235	430	376	-15048	1424	-496	771	1773	-549	127	140	1
-7232	-6864	16468	-1154	-3818	-1582	-9024	-1120	-3144	400	-2595	-1005	-18776	192	-7696	552	-2138	-1052	-7528	2032	15128	123	3131	-343	-15880	1544	-592	1751	472	326	-15752	-120	-568	888	1774	-489	123	139	1
-8164	-6100	14660	-1510	-4244	-1700	-8896	-992	-3104	461	-2695	-1024	-13528	-1568	-6440	537	-2141	-951	-7624	1608	15232	64	3102	-586	-16648	1696	-784	2165	528	430	-15928	224	-480	1034	1809	-626	124	131	1
-10096	-6236	14064	-1854	-4458	-1863	-10792	1032	-3096	641	-3657	-1458	-12520	-2672	-8288	808	-1945	-816	-7496	1640	15152	31	3164	-598	-16776	3080	-992	2212	649	475	-14856	3352	-896	996	1835	-747	129	128	1
-12816	-7104	14792	-1989	-4618	-2146	-11608	664	-3512	906	-4103	-1638	-11288	-1448	-8600	1477	-1700	-527	-8408	1432	14824	537	2925	-395	-16208	4184	-856	1799	720	409	-14168	6184	784	864	2010	-816	127	130	1
-14580	-6336	15508	-2212	-4638	-2552	-12464	1880	-3728	1346	-4502	-1785	-7984	232	-8880	2246	-1469	-239	-7704	1608	14648	688	2793	-473	-16312	3832	-472	1494	752	291	-13880	5656	5240	589	2573	-594	129	134	1
-16004	-5748	16472	-2444	-4487	-3022	-14680	3392	-4792	1803	-4889	-1764	-5520	2536	-9640	2557	-1264	-7	-8320	2000	14808	776	2553	-1043	-16304	2000	-128	1532	792	294	-14320	2424	1880	534	2818	-203	129	138	1
-18764	-5020	19968	-2468	-4294	-3409	-17320	5240	-6232	1455	-5239	-1666	-5584	5928	-10848	2332	-909	133	-8104	2064	14320	780	2451	-1559	-15256	1920	288	1762	883	288	-19496	584	-2280	304	2051	-57	130	133	1
-22780	-5912	24660	-2391	-4267	-3731	-20160	3240	-7912	1033	-5492	-1755	-6072	7360	-10608	1422	-475	65	-7952	1784	14536	849	2824	-1823	-16016	3136	-944	1272	877	298	-19320	5272	424	-31	1402	-101	130	138	1
-27332	-8196	25960	-2266	-4176	-4137	-25392	1776	-8904	1369	-5764	-1876	-6520	5680	-8264	328	-47	-44	-8056	1096	14688	1125	3551	-1328	-18776	2256	-2032	282	954	147	-16360	5104	288	-160	1371	-487	128	136	1
-32768	-7856	29212	-2266	-3929	-4593	-30000	720	-13216	1714	-5941	-1692	-5224	3720	-3888	-71	115	-165	-8272	1056	14440	1863	5125	-657	-18352	-136	-4472	81	1026	194	-17344	560	-1680	27	1506	-496	129	132	1
-32768	-396	32767	-2701	-3818	-4785	-32768	-536	-18680	1506	-5853	-1424	-8688	-2928	872	-70	-225	-223	-8672	816	14248	2450	6822	69	-18184	-504	-4112	122	1085	195	-18024	-536	-328	-116	1517	-439	131	135	1
-32768	10232	25072	-3123	-3729	-4313	-30976	2040	-21312	1086	-5491	-1088	-17464	-7104	2744	50	-49	-602	-8528	1840	13776	1277	8392	112	-18408	2200	408	300	1335	177	-17368	1560	3496	-55	1402	-325	135	140	1
-32768	15828	11624	-2892	-3130	-3226	-26336	6464	-23792	444	-4769	-1029	-25304	-2576	21880	540	-244	-1106	-9056	2968	14112	-685	9416	-1296	-19776	5152	616	-362	1451	213	-18552	1456	4800	147	1331	-146	145	139	1
-32768	32767	5980	-3499	-2608	-1709	-18720	12016	-32768	-2491	-3070	-927	-18704	-1496	32767	703	-354	-1423	-9352	1584	13872	-906	11987	-2386	-19712	712	-1248	-841	1598	170	-19320	3064	2568	355	1383	37	159	141	1
-32768	32767	-29464	-4692	-1909	395	480	1856	-32768	-4405	-472	-914	-20472	1544	32767	-601	-146	-309	-10032	1672	14088	-2182	15294	-2710	-21504	-1560	-912	-484	1922	132	-19688	4760	-32	844	1235	-357	158	165	1
-32768	31844	-32768	-1211	165	2569	-6096	-4200	-26480	-3460	1759	-343	-18088	7912	16816	-1348	465	943	-9920	1336	14680	-4273	18268	-2792	-20952	752	0	-308	2136	172	-20624	5480	1728	555	877	-594	145	161	1
-32768	3804	540	2144	707	3020	-16344	-2368	-25640	468	2946	202	-9624	-3888	4408	-2546	269	277	-11040	1544	14008	-6118	21578	-3219	-21760	1480	1464	-464	2296	194	-20728	2488	4976	621	335	-609	125	191	1
-15456	-32768	25780	3512	657	825	-24200	-4928	28536	513	2261	795	-7088	-15920	-1064	-2504	853	-572	-11296	2560	14584	-8083	26761	-4848	-24096	-1152	4184	53	2529	202	-23160	104	11776	814	-300	-571	134	212	1
21520	-2856	-14180	3993	3246	663	-32768	6120	19544	5272	1389	-544	-8464	-18336	-28904	377	1806	-1249	-12432	3664	16896	-11293	32767	-8292	-30688	-800	9008	1239	2781	302	-27344	2744	18424	1108	-1523	-664	104	153	1
-20824	32767	32767	2898	4903	1041	-20760	22224	-14448	5912	1944	585	-32768	-14552	27856	6688	-1615	-2050	-15408	3128	19864	-16052	32767	-14808	-32768	128	16272	2731	3099	412	-25456	4648	19328	2138	-3013	-449	144	15	1
-19028	11236	30876	1437	3419	2480	-32768	23576	-5088	3198	2665	1877	-26880	30976	4384	5040	2027	-116	-30880	6672	32767	-14846	32767	-18302	-30664	9352	544	2648	3283	767	-22888	4944	14888	2822	-3586	104	134	0	1
-32768	-22844	14352	3376	2184	803	-14720	-18224	-18432	-1559	3213	332	-21400	32767	-7344	-974	1304	504	-26880	3752	31512	-9867	32767	-18138	-32768	10752	-1712	1486	3268	794	-24432	6344	1720	2518	-2185	556	126	0	1
-6772	4556	19264	1680	915	582	-12720	2256	-17632	3178	2122	-491	-1048	-13856	-20976	-5710	-898	1193	-24320	3768	32767	-8919	32767	-14383	-32640	3760	5008	744	2609	175	-25104	6256	-1936	2371	-1924	648	138	145	1
-5652	4832	20744	1322	370	508	-21056	10008	-12864	-64	2475	984	-10784	-24072	-15312	-962	1090	-83	-6336	-2248	11520	-1139	32767	-22018	-25640	3184	5104	-395	2051	123	-32768	-1408	-13272	160	-2085	1221	95	216	1
-9832	-2752	15612	599	61	170	-13280	632	-8104	-1536	1738	-302	-24448	-7104	-14128	157	1679	-1300	-32768	16512	32767	3422	31846	-28442	-15976	8144	-22024	-1361	1696	272	-28744	-3568	-9128	-642	-2941	1376	124	253	1
-8524	-3508	14344	347	0	92	-23032	288	-6040	-1663	1480	-143	-23464	2648	-6216	-297	1579	-138	-23096	25608	32767	-5117	-7162	-16514	-17944	4736	-10232	45	953	-17	-29536	-3632	-5120	-790	-3354	1435	148	253	1
-6996	-2264	14164	200	36	21	-16992	1392	-4000	-1240	1015	-277	-16360	3080	-2608	-601	1864	276	-9456	13120	27080	-3570	-26079	-2016	-14832	-7232	-72	191	240	-246	-25904	-2672	-7208	-390	-3123	1602	136	235	1
-7172	-1984	14308	99	115	-75	-16920	-280	-2152	-33	720	33	-15824	304	-2456	-619	1695	719	-608	7008	12224	2351	-28279	5260	-8256	-3904	664	1248	-536	-999	-24024	-1440	-4792	-621	-3228	1614	130	206	1
-7216	-3072	13832	40	161	-134	-16240	-1496	-1696	787	624	-67	-16312	-2224	-928	-344	1850	1078	-1576	4272	11504	1277	-27545	5701	-8272	1472	-672	1464	-1486	-550	-21608	-2816	-5568	-600	-2450	1639	123	183	1
-7820	-3512	13736	8	159	-168	-16832	-3224	-3584	1095	531	18	-14192	-3400	-1368	-247	1846	640	-4776	712	17200	1460	-30394	3208	-6784	7072	-3568	1239	-2191	-272	-19976	-2176	-6504	-449	-2473	1433	138	185	1
-7700	-3432	13676	2	119	-135	-16848	-104	-2656	561	387	36	-16168	-4056	-1176	-233	1938	385	-7472	-232	18856	7699	-32768	1620	-6648	5688	-2624	-45	-2838	-260	-16752	-1536	-7376	-642	-2408	1181	94	189	1
-7544	-3860	13488	40	82	-40	-14400	648	-1408	-671	443	23	-13800	-3800	272	-258	1945	227	-9848	1224	18512	10989	-32768	174	-7912	3248	-2672	-833	-3592	-425	-14800	-832	-7952	-678	-2186	1076	131	186	1
-7664	-3216	13644	78	36	48	-14592	-1960	-888	-1475	508	-40	-13976	-2752	1200	-55	1924	75	-12192	648	18616	14578	-32768	790	-10184	1448	-3232	-1327	-4097	-498	-12632	-448	-9216	-684	-1927	1064	129	175	1
-7220	-2856	13648	113	19	62	-16168	-3056	24	-1028	605	-42	-14304	-1776	2528	121	1980	293	-15712	1104	18456	18488	-32768	3003	-10824	0	-4400	-1338	-4461	-635	-9544	-1664	-9408	-908	-1833	976	132	173	1
-7372	-2624	13952	120	29	52	-16104	-3224	104	-12	637	77	-14472	-256	3776	-170	2273	395	-17088	1016	15712	20155	-32768	5367	-12128	144	-3728	-1537	-4882	-649	-6696	-3848	-10128	-1435	-1797	631	114	169	1
-6896	-2968	13484	152	56	49	-15920	-2016	-536	761	664	95	-14800	-1784	6552	-717	2792	278	-19128	-576	14904	23312	-32768	8776	-12640	216	-4368	-2417	-5362	-722	-5256	-5840	-10728	-1811	-1645	274	120	166	1
-10412	-4148	21044	43	158	4	-26784	6928	5520	1261	2018	-811	-15872	-3312	3360	-853	2659	224	-18816	-3472	12976	26528	-32768	14235	-15664	-2472	-7368	-3189	-5590	-1149	-4544	-6760	-11216	-1779	-1406	-38	129	149	1
-7344	-2540	13196	168	79	150	-16240	2224	2216	-348	956	275	-16536	-432	-6672	-439	2119	-110	-25904	64	21024	23785	-32768	18229	-22904	1160	-10504	-2058	-5524	-1497	-6072	-8056	-9408	-1291	-1113	-80	129	139	1
-7344	-2672	13532	223	52	191	-14568	-2048	-2808	-841	1000	-110	-17168	40	-4552	15	1387	-142	-30472	-2440	29640	20573	-32768	21200	-24104	4080	-11760	-1793	-5598	-1397	-5416	-6184	-3672	-788	-783	-81	132	132	1
-7684	-2228	13864	236	43	245	-16896	-1424	-4304	-97	983	-29	-15784	-6648	592	-249	1226	15	-32768	648	32440	18929	-32768	24741	-31392	6128	-14024	-1220	-5502	-1603	-6040	-2520	232	-1047	-689	84	133	127	1
-7452	-2080	13736	216	74	209	-16960	-984	-3472	102	983	73	-14320	-6128	-1472	-400	1135	96	-32768	-3360	28040	15275	-32768	27606	-27800	9072	-15856	-1360	-5356	-1621	-8624	2128	2080	-946	-422	286	130	124	1
-7240	-2696	13624	227	144	234	-16592	-704	-1624	170	1126	113	-15824	-1992	-1936	-157	1278	163	-32768	-12816	20800	15937	-32768	28765	-28392	4936	-16896	-1654	-4909	-1962	-16960	6752	8808	-238	-21	464	132	128	1
-7472	-2276	14000	258	232	283	-16792	-1424	-1352	105	1270	65	-17232	-3888	2536	-68	1375	224	-32768	-20208	14232	13823	-32768	22790	-28152	5192	-15576	204	-4157	-1870	-20160	9728	17592	-973	-310	777	130	135	1
-7812	-2200	13752	323	326	358	-17688	-2320	-1624	139	1500	171	-18336	-5312	3560	-286	1102	203	-32768	-26256	-5024	12528	-29567	7609	-19528	12880	-23968	1590	-3210	-889	-16064	-1088	32767	-2742	560	1257	131	127	1
-6992	-1820	14564	460	549	541	-21664	-1400	-1896	253	1721	178	-21232	-2768	2784	-624	1018	138	-32768	-32768	-30928	27923	-16129	-8047	-8504	7264	-29072	2816	-915	368	-18208	-2560	32767	-1548	-721	512	131	116	1
-8572	-908	14168	476	858	531	-20352	2776	-2816	88	1998	342	-19784	-2664	3320	-652	847	116	-32768	-17112	-32768	13408	3775	-12718	-7912	12784	-22824	2983	1214	828	-17320	-7344	21768	1898	260	-1498	131	120	1
-8868	-1468	14408	546	1325	399	-21592	232	-2440	-76	2233	470	-20224	-4232	2616	-747	815	341	-32768	-6496	1808	-16699	12095	-14677	-17496	12784	-21232	1216	2162	1030	-12008	-3960	4800	3575	791	-504	129	132	1
-8668	-1248	13660	715	2015	463	-23464	-704	-2256	53	2397	502	-21608	-4152	3096	-1012	623	442	15696	8568	30232	-12667	14039	-6998	-14928	6152	13760	844	2437	427	-8344	7328	-1608	3494	1174	370	135	68	1
-8252	-2456	14588	818	2874	744	-24680	1688	-392	-241	2565	540	-22264	-1616	5688	-995	425	372	16336	18496	8408	-15763	28583	-4976	-32768	-6744	20232	-3955	1165	814	-14976	13672	8416	1861	929	191	132	14	1
-8788	-3368	16056	995	3931	1205	-28560	1992	2896	-1083	2718	541	-24464	80	8624	-1009	205	374	-10032	-13744	20688	-17715	32767	2805	-18064	-5064	-5344	-3383	1850	1153	-30368	23064	6384	-768	1613	895	117	22	1
-10604	-4724	15124	1368	5005	1751	-31144	-200	8344	-1730	2818	575	-25456	-2504	14528	-1282	-621	581	-21904	-27032	32767	-11432	29899	-8605	-32768	-1648	-8480	-3234	2492	589	-22632	-2384	15144	-5127	32	-67	115	0	1
-14564	-2904	19676	1880	6618	2415	-31592	-560	8848	-1797	2806	560	-25408	-2192	16760	-1001	-2020	741	-22792	19552	18848	-6827	22277	-5056	-19280	-2576	-3912	-2206	2545	703	-14784	-28056	-6920	-2056	673	-284	108	0	1
-26892	-4088	29352	2402	7898	2888	-30008	-7256	2536	-2667	3226	917	-22048	-2240	8504	-1871	-3954	244	-23704	-8760	32767	-13238	15518	-1127	-12640	11200	-7920	-1114	2092	1165	-11320	-10312	-15056	3275	866	964	110	0	1
-21668	-1512	32767	1901	8473	3048	-30616	-6272	-3664	-1488	3209	686	-22960	-3512	-3280	-1388	-1455	-4	-18616	5760	22448	-7288	6334	-3444	-14984	5536	-9720	381	1707	1313	-11224	17440	-14096	2930	1416	452	119	0	1
-24716	-9028	32767	365	8116	3372	-29560	-24	-3032	-1775	3049	1267	-25928	-5080	-13728	-1086	-1978	-922	-11184	-6880	22968	-5148	3191	-2658	-21368	6112	-9456	460	1372	1038	-24448	12472	-13912	-155	2029	603	125	226	1
-5572	-20352	6888	-1747	6214	2605	-22704	-2800	-5536	-155	2569	1271	-30160	-2368	-13592	-77	-2871	-1213	-10856	3240	16904	-3233	628	-1520	-20584	5264	-5520	157	1174	456	-23424	1952	-8416	-1252	1515	-40	120	253	1
-32136	-32768	32767	300	1071	177	-17304	608	-10648	788	1605	593	-29464	-2088	-13216	244	-2940	-1227	-7664	8	16688	-1310	-13	-1015	-16864	1024	-4920	-591	888	267	-15640	-3600	-2104	-984	1572	-310	127	253	1
-4028	-18556	29204	1555	-1343	-1080	-17432	-3488	784	114	598	313	-29776	4888	-5328	1301	-3597	-974	-6448	56	15424	197	575	-175	-18296	-2408	-3552	-46	688	289	-16960	-5336	376	-217	1790	-560	123	235	1
3072	-4588	20256	258	-1663	-1117	-13432	976	240	31	-380	13	-28552	4816	-4608	1286	-3621	-958	-5664	328	14896	1614	2064	589	-18240	-1216	-1536	395	587	480	-17152	-3304	1032	523	1862	-599	109	220	1
920	-4592	19784	-915	-2140	-800	-6096	2280	-2496	-755	-1063	-123	-23992	-1680	-8760	1016	-3665	-447	-6088	1168	14728	2030	3967	993	-17408	816	-768	367	531	548	-15824	752	896	788	1896	-502	118	196	1
-1616	-5268	18592	-1252	-2934	-480	-5896	-664	-1560	-1238	-1675	-736	-21136	4928	-5200	637	-3124	-565	-6904	2368	14528	444	4093	699	-16232	2840	-472	492	534	445	-15672	2872	-472	746	1833	-514	127	185	1
-3344	-5320	15920	-1431	-3568	-420	-8776	56	-1640	-843	-2316	-1160	-17896	4928	-6072	333	-2750	-478	-7400	2648	14728	-1168	3434	-128	-15896	3264	232	1027	636	367	-15176	4360	-1240	616	1894	-583	125	172	1
-6044	-6308	15644	-1766	-3938	-646	-8504	1800	-2504	-484	-2878	-1330	-13960	2848	-6224	-99	-2557	-556	-8064	2568	15016	-1950	2476	-1162	-15536	2824	48	1669	735	384	-14808	3600	-1200	445	1971	-670	125	162	1
-8276	-7048	15440	-2028	-4167	-1107	-9704	2328	-2296	-464	-3461	-1471	-12616	-288	-6672	-385	-2346	-637	-7696	1744	15352	-1658	2085	-1871	-16336	2032	-800	2140	814	426	-14912	1944	728	193	2076	-665	125	159	1
-11332	-7780	15860	-2084	-4351	-1674	-12024	2000	-3016	-113	-3934	-1675	-11208	-2232	-8584	-161	-2005	-442	-7680	336	15296	-784	2117	-1879	-16320	912	-1720	2173	882	484	-14480	-976	1384	62	2190	-716	126	154	1
-15372	-9484	17200	-1787	-4570	-2293	-12768	864	-4184	739	-4387	-1830	-10416	-2528	-8408	-29	-1990	-427	-7720	-208	15200	-88	1905	-1154	-16400	1616	-1088	1747	884	444	-13368	-40	3872	403	2422	-749	125	149	1
-17040	-7060	17528	-1701	-4638	-3051	-13832	3048	-4136	1684	-4875	-1832	-7176	3384	-10808	1861	-1736	-24	-7624	1048	14816	3	1794	-729	-16352	3400	536	1067	844	357	-12920	3616	6768	414	2730	-641	125	145	1
-18484	-2280	21420	-2073	-4587	-3659	-16072	4624	-6536	2094	-5302	-1605	-5840	5208	-10480	1882	-1470	251	-7784	1912	14824	133	2076	-1530	-15976	3752	1432	572	847	319	-13136	4184	6712	476	2785	-621	128	139	1
-20344	1988	27676	-2304	-4774	-3809	-19128	5072	-8120	1880	-5683	-1413	-5968	3544	-9480	1153	-1010	272	-7488	1560	14720	270	1711	-2538	-14648	2024	520	624	897	336	-19784	4568	-1496	-313	1841	-115	131	136	1
-23536	3704	30360	-2230	-5099	-3598	-22632	5320	-9168	1508	-6064	-1287	-5592	1224	-7048	200	-560	72	-8312	1288	15144	289	2013	-3084	-17296	2144	-1864	651	1003	351	-19184	6144	1016	-466	1536	-27	131	137	1
-28320	7128	30268	-2220	-5112	-3419	-26120	7920	-12848	1301	-6333	-915	-5032	-1464	-6432	-435	-105	-154	-8232	736	14880	469	2581	-2696	-18144	1720	-2640	248	1142	262	-15432	5104	-712	56	1599	-442	129	135	1
-32768	9284	32767	-2430	-5033	-3179	-29312	8112	-17608	-197	-6229	-436	-3944	-4664	-7192	-29	409	-232	-8304	968	14816	602	3146	-2354	-16408	1024	-3200	49	1314	295	-14728	1688	-2696	-123	1433	-481	127	139	1
-32768	10540	32640	-2264	-5205	-2756	-32728	3208	-20648	-1083	-5978	-434	-8248	-9352	-4512	446	652	-425	-8176	376	14576	561	4144	-2314	-18032	2224	-3528	-94	1437	272	-15744	-1680	-1224	-395	1444	-260	125	144	1
-32768	10056	17296	-1812	-4942	-1884	-30288	-576	-22104	-1111	-5402	-401	-22992	-7480	9576	623	-117	-686	-7224	-936	15424	79	5931	-2821	-21072	328	-3456	-213	1457	295	-18912	-2592	-232	-21	1487	-83	134	148	1
-32768	17860	-1300	-1624	-4184	-207	-21424	-1720	-28312	-718	-4292	-872	-26712	2176	26728	1328	-204	-1383	-7920	1240	14088	-268	9231	-3437	-21936	-1088	-2416	72	1667	305	-19992	-3120	1416	759	1470	-71	149	150	1
-32768	32767	-19512	-4469	-2732	954	-10584	11920	-32768	-1270	-2293	-1274	-13928	6936	32767	1078	-540	90	-8608	816	14448	-352	13696	-3802	-21344	-1208	-1472	165	1819	365	-20400	-808	3024	1163	1276	-161	179	145	1
-32768	30304	-32768	-3014	-279	-14	1096	6328	-30856	-2355	676	227	-20752	6400	32767	-327	110	2073	-10432	152	14472	-2124	17979	-3511	-20888	504	-960	-90	2097	291	-19584	7376	2944	1089	1103	-312	178	142	1
-32768	21792	-23832	4120	1126	884	-14408	-8144	-27576	-907	2580	373	-19360	-208	6480	-331	587	487	-9848	1072	14920	-5414	21876	-2708	-21832	2608	664	-372	2349	201	-21064	11584	3584	1077	740	-636	142	153	1
-28284	-21608	31640	2798	1378	2056	-29088	-21896	21040	-1237	2643	860	-9600	-5016	16	-2286	371	-292	-10232	2168	15392	-9852	25808	-4672	-26800	1272	3424	-232	2499	237	-24688	5600	6344	598	154	-769	129	178	1
2692	1248	-5584	2489	3662	1612	-30048	-22080	30736	-617	2343	546	-26064	-10816	12936	-297	278	-284	-11776	3856	18600	-15290	32767	-7864	-30856	-368	7056	730	2716	300	-27736	4048	14640	522	-745	-678	109	164	1
-28996	27888	32767	2466	4907	602	-29784	27248	-11976	4495	2553	807	-31136	-29440	7864	4434	-236	-3200	-13224	2608	18240	-20950	32767	-13353	-32768	584	15488	1989	2891	381	-26776	8520	19832	853	-2518	-633	105	111	1
-12724	19088	32767	307	2838	1431	-25024	11856	-5680	295	3425	1651	-21704	23000	-5408	2877	1737	-683	-24584	2328	31968	-29540	32767	-21758	-32768	5448	6832	2483	3156	577	-27520	2104	23160	2691	-3691	-37	140	0	1
-27164	-32768	7364	1510	2582	679	-8472	-8896	-13848	-1064	3114	559	-14168	32767	-22768	-704	1602	335	-27048	1432	32767	-18367	32767	-21156	-30488	7184	616	2659	3277	738	-21464	-808	5792	1677	-2792	71	122	0	1
-18204	25880	32767	1082	968	846	-5344	-4672	-18016	461	2354	-491	5208	-5792	-16328	-5651	-1002	1255	-24944	2248	32767	-9994	32767	-15076	-32768	7680	1864	1486	2999	529	-22448	56	-8096	1675	-1268	934	124	16	1
-17936	-13636	15924	1099	146	323	-29296	10232	-14160	-34	2287	492	-26720	-32768	-17648	-2030	698	-215	-22336	504	31896	-3281	32767	-19614	-26992	4424	3968	-452	1970	162	-30408	-2792	-12504	1175	-1467	1200	98	190	1
-11912	-7872	14152	591	-97	166	-23192	4264	-9384	-1118	1709	164	-26136	-6760	-12512	2012	2255	-1318	-32768	11224	32767	-1958	23322	-25421	-16880	8640	-31424	-769	2295	803	-30128	-2440	-8600	321	-2500	1459	132	213	1
-7108	-3168	15044	402	-168	105	-15200	-1912	-5096	-922	1276	77	-22232	9240	-4528	696	2082	243	-16608	24216	32767	1880	-13047	-10102	-19736	56	-2416	510	1245	-117	-29352	-4312	-5360	-460	-3140	1441	143	206	1
-6496	-1996	14976	255	-167	62	-15824	5784	-3968	230	753	197	-11808	2472	-928	-515	1812	459	1096	13696	15032	2124	-18111	1581	-20192	-9032	4768	782	403	-35	-27608	-3768	-5552	-458	-3016	1700	138	184	1
-7124	-2288	14628	105	-120	-23	-16592	9360	-4248	-48	726	-56	-11296	1232	-1048	-466	1715	488	2744	11896	12712	2524	-17333	3162	-9632	-1136	456	1349	-469	-243	-25536	-3176	-5048	-272	-2963	1904	113	176	1
-6708	-3516	13844	38	-83	-79	-17408	-272	-2632	88	627	93	-15848	464	-472	173	1994	947	-3568	4424	23032	1176	-20124	7895	-6984	3704	-3448	1089	-1407	112	-23016	-6496	-3496	-592	-3317	1548	127	173	1
-6420	-3200	13800	74	-42	-81	-16008	-384	-2328	655	427	108	-14968	1568	-1072	-244	1932	551	-2520	-1648	21584	7292	-27360	7172	-8496	3648	-1520	316	-1978	173	-20312	-5336	-3776	-250	-2674	1498	131	162	1
-6032	-4064	13256	247	11	-2	-16176	336	-1984	819	348	93	-16096	-848	192	-643	1992	257	-2512	-680	16944	14291	-30804	6272	-9080	-168	-120	-668	-2687	11	-16128	-4352	-4376	30	-2488	1248	119	160	1
-6248	-3784	13584	359	63	72	-15552	1360	-1640	439	399	86	-14744	-1032	2040	-547	2089	265	-4864	-160	16688	14081	-32768	5543	-9136	-856	-1240	-1151	-3382	20	-14888	-3216	-5512	22	-2335	1061	102	159	1
-6508	-3824	13792	445	86	119	-15168	384	-1112	-288	518	88	-14640	-440	1416	-557	2011	324	-7488	-1976	18056	15663	-32768	6858	-10312	-3576	-2992	-1408	-3880	8	-15048	-3976	-5936	-21	-2319	1031	132	154	1
-5812	-3100	13560	531	83	152	-15232	-1360	-584	-229	657	-11	-15496	504	1776	-348	1947	460	-10768	-2464	20232	17667	-32768	9375	-11616	-3880	-4376	-1416	-4202	-172	-11224	-2000	-7048	142	-2058	891	124	149	1
-6704	-3272	14092	516	120	191	-15664	-1240	64	144	791	28	-14384	-720	2480	-664	1844	524	-11280	-3512	20320	17517	-32768	12129	-12384	-3184	-4176	-1616	-4614	-366	-7944	-1888	-8768	-423	-1961	638	126	151	1
-7060	-2912	14124	443	141	167	-15768	-2056	-1128	662	932	94	-13608	-4304	2968	-813	2024	466	-12048	-5704	21328	17968	-32768	14934	-13472	-3400	-5336	-2180	-5068	-733	-5816	-2896	-10048	-885	-1755	409	118	151	1
-7004	-3176	13672	414	167	203	-15840	-1064	-1672	932	1011	76	-14200	-4704	3088	-683	2609	232	-15176	-7312	25376	17619	-32768	16495	-15168	-3776	-7360	-2399	-5400	-1295	-5376	-4576	-11736	-1370	-1462	262	128	146	1
-6488	-3316	14036	415	250	295	-16424	1808	-2032	339	1053	86	-15760	-2616	3360	-307	3102	154	-19768	-9800	30472	16962	-32768	16795	-19768	-3136	-9360	-2075	-5659	-1748	-6552	-3784	-12432	-1900	-1024	63	127	146	1
-6548	-3144	13980	406	261	304	-16608	1248	-3728	-345	1117	53	-17136	-384	-3736	-269	2499	183	-24080	-10648	32767	17038	-32768	16271	-25832	-1816	-10208	-1373	-5770	-2164	-6720	-3080	-10480	-1842	-534	-110	128	149	1
-7360	-1696	13848	336	243	323	-16448	1032	-3816	-457	1129	11	-16440	-1464	-7136	-59	1799	300	-30528	-8760	30808	14872	-32768	15645	-27088	1840	-12240	-615	-5771	-2387	-4912	-880	-8216	-1446	-74	-16	135	147	1
-7660	-1580	14248	277	268	285	-17552	200	-3640	-146	1092	114	-16760	-5360	-1952	399	1703	413	-32768	-9344	30408	12076	-32768	14207	-31440	7904	-15280	-487	-5613	-2393	-7584	1728	232	-956	-241	523	129	146	1
-7532	-1908	14204	250	328	256	-17608	56	-2216	-117	1220	176	-17384	-4376	2760	211	1434	313	-32768	-8128	22528	11119	-32768	12124	-32768	10248	-17088	-541	-4966	-2364	-14144	4152	8992	-1118	-513	793	133	146	1
-7604	-2404	14196	293	396	378	-17760	-1608	224	-40	1480	207	-19384	256	4632	-179	1148	237	-32768	-6296	2776	6488	-32768	6825	-27952	11120	-22080	-601	-4364	-1632	-21136	3992	28376	-2464	-917	707	133	144	1
-6984	-1968	14788	376	561	568	-21016	128	-632	-226	1705	282	-21808	2680	5392	-491	1042	186	-32768	-22680	-7976	15505	-22038	1506	-16976	11472	-30960	-179	-3119	-841	-16296	-4192	32767	-3496	44	183	128	148	1
-7520	-956	14872	416	803	704	-20832	2688	-1176	-377	1982	427	-20016	824	4816	-1066	831	50	-32768	-31648	-26696	18519	-11498	-2347	-6208	11008	-31376	1167	-663	17	-14992	-928	32767	-1566	-218	-1211	134	145	1
-5772	-248	14696	576	1284	717	-20960	2680	-1664	-288	2231	563	-19456	-3000	1592	-1202	774	150	-32768	-25536	-29640	-9184	5399	-6950	-8528	15336	-26576	723	1372	603	-18136	-7752	16816	504	305	-930	124	153	1
-8276	-1044	14164	1057	2006	624	-22056	704	-1584	107	2405	777	-20120	-8000	1704	-1218	569	256	-32768	-12064	10056	-15045	12141	-9211	-11992	13824	-24000	-491	2449	883	-7960	-5048	6232	2751	450	-64	125	111	1
-8872	-1784	14032	1485	2852	867	-23832	-152	-672	146	2586	803	-21504	-5608	5312	-1135	291	413	7320	21424	15680	-10020	20686	-11053	-12560	12800	-14744	-620	2595	856	5448	4816	18384	3270	1329	-110	121	85	1
-8996	-3612	15344	1774	3598	1355	-28568	-272	3664	-635	2779	715	-25176	-2296	9488	-812	-85	597	-3584	17176	6088	-4306	32767	-3572	-32768	-12368	1248	-3020	1867	1353	-32768	6232	-1808	1923	1912	-201	116	90	1
-11124	-3684	16136	1779	4699	2066	-32768	-2056	7072	-1259	2867	640	-26624	-3816	16896	-724	-983	502	-32768	-15392	32767	-11761	32767	1060	-32768	6856	-11144	-41	2950	1089	-32768	5912	19200	-2838	-401	537	115	121	1
-15312	-5660	22228	2815	6231	3090	-32768	-2912	12296	-2567	2806	899	-27416	-7256	23144	-1011	-3111	277	-20424	-4728	31288	-6073	24994	-2138	-23136	-2424	-12672	-1717	2636	1854	-16424	-16560	-18048	-577	843	979	113	0	1
-31120	-8176	32767	3296	7489	4009	-30400	-11000	2424	-3654	2832	736	-17008	-2168	-296	-2344	-2195	89	-5216	-2848	15320	-1800	21407	-410	-11112	3696	-8520	-612	2312	766	-6440	-19592	-14848	3202	560	1911	113	49	1
-30396	-5128	32767	1848	8056	4247	-29848	-7856	-7928	-2525	3587	1035	-26136	-5160	-2696	-666	-2134	-136	-22792	12136	22448	-5012	8053	-2289	-13904	15272	-9840	297	1653	1231	-19064	23376	-16376	3226	1174	-27	122	203	1
-28764	-23528	32767	216	5875	4033	-29144	-3440	-5616	-1644	3166	1226	-29616	-3184	-14584	-621	-2007	-1033	-9360	-7744	21448	-2835	4483	-1411	-28296	3560	-10392	78	1383	1343	-22808	15672	-15080	-1123	2120	-177	118	134	1
-32768	-24976	32767	932	2704	3030	-21504	-368	-12144	115	2585	621	-30552	6680	-13040	927	-2414	-1282	-8144	1104	17248	-1246	2409	-478	-16968	8312	-5560	-576	1042	356	-23384	-1368	-8200	-2282	1788	-187	122	93	1
-18224	-32768	32767	578	344	70	-21328	1960	-6216	-329	1562	376	-32216	3288	-9120	660	-2860	-1114	-5824	912	15640	320	3886	-474	-18096	-1120	-3336	-2000	626	165	-17744	-4024	-2472	-1756	1618	-314	118	106	1
-3812	-21232	18016	438	-440	-1507	-16624	280	1000	-415	546	47	-27920	3336	-6408	90	-3351	-1271	-6208	-312	16440	511	4940	-508	-18208	-5224	-4448	325	543	376	-16344	-6664	-128	-634	1654	-723	114	98	1
2332	-12248	13564	-512	-257	-2068	-9960	-744	1536	-543	-320	-376	-23632	3024	-4264	249	-3375	-1167	-6696	584	15856	1276	5004	426	-18888	-752	-4000	1681	509	642	-17512	-5040	72	464	1924	-688	112	102	1
-2160	-9612	20996	-1075	-730	-2201	-5000	-3360	-3736	-345	-1055	-662	-20960	1968	-3856	492	-2985	-1192	-7520	1880	15584	1038	4802	482	-17680	1872	-1936	1733	415	637	-16456	-2208	-176	1137	2153	-368	118	108	1
-5656	-6324	24912	-1061	-2183	-2119	-5888	-2088	-3680	0	-1682	-1298	-19880	2640	-5536	648	-2620	-1030	-7824	1608	15184	1093	4144	476	-15808	3328	-352	1246	358	411	-15272	1400	-320	1479	2089	-324	118	113	1
-4144	-1628	18804	-1556	-3227	-1949	-8248	208	-1544	467	-2360	-1602	-17272	6224	-4416	44	-2560	-945	-7536	2200	15080	409	3636	96	-16680	3456	336	754	367	343	-14064	3448	-480	1179	2110	-523	118	111	1
-4228	-1220	17820	-1680	-3320	-1916	-8856	2344	-1480	698	-2882	-1678	-13000	4192	-5808	-326	-2260	-892	-8080	1592	15120	69	2854	-376	-15608	1784	-272	788	404	365	-14520	2680	40	758	2115	-709	122	112	1
-7952	-2780	16072	-2260	-4008	-1803	-8800	2920	-1608	538	-3268	-1920	-12328	2336	-7824	-566	-2128	-1007	-7720	1896	15024	-52	2054	-672	-14976	1880	136	1252	458	324	-14048	2824	96	707	2122	-703	121	126	1
-9668	-2492	17224	-2326	-4259	-1971	-11344	3976	-2096	630	-3735	-2213	-10872	-80	-7864	-439	-1901	-903	-7688	1624	14768	-325	1543	-1153	-16112	2056	-560	1486	510	390	-13312	3032	712	109	2335	-663	120	115	1
-11156	-1604	18396	-2659	-4336	-2291	-13168	5624	-1536	823	-4159	-2214	-9560	-264	-8752	313	-1774	-763	-7536	816	14672	-246	1249	-1346	-16232	1880	-1384	1580	624	385	-14752	3240	5520	191	2741	-671	120	113	1
-13140	-1328	20944	-2739	-4443	-2606	-14304	5792	-3336	971	-4532	-2205	-6264	1488	-9272	1107	-1599	-488	-7904	840	14776	29	1320	-1229	-16480	1664	-1008	1467	761	335	-14248	3728	2824	712	3184	-701	125	115	1
-13900	640	21988	-2823	-4423	-2882	-15704	7264	-3816	991	-4954	-2186	-5264	2352	-10080	1672	-1428	-198	-7504	952	14616	419	1390	-1075	-16360	376	1184	1323	977	329	-18720	1688	600	302	2585	-608	125	118	1
-16664	996	26200	-2845	-4446	-3034	-18176	7008	-5576	565	-5273	-2107	-4080	3352	-11456	1882	-1179	-22	-6720	1408	14696	156	1607	-1540	-15160	1016	2128	1275	1133	404	-20760	-1608	160	-849	1460	-146	127	117	1
-20232	1196	30564	-2795	-4583	-3079	-21520	5832	-7416	559	-5604	-2173	-4160	3808	-10904	1566	-685	-33	-7432	1304	14832	23	2022	-2333	-16720	2496	-160	828	1045	418	-16736	3744	4216	-1026	1202	-285	127	127	1
-25140	452	32767	-2811	-4723	-3281	-25552	6456	-9440	1031	-5901	-2083	-4088	2808	-8880	1221	-184	-87	-8040	1168	15064	117	2204	-2405	-17824	2256	-2096	461	1326	420	-16000	5168	2312	360	1606	-401	130	132	1
-29560	2868	32100	-2882	-4519	-3613	-31944	6248	-13456	1177	-6141	-1784	-5624	-560	-4816	775	44	-177	-8280	1416	14720	311	2871	-2727	-17976	1776	-2152	222	1422	295	-16296	-128	-1280	613	1821	-259	127	140	1
-32768	9480	32052	-2757	-4114	-3729	-32768	4528	-18896	1481	-6106	-1310	-11704	-7616	-704	68	-189	-493	-7680	1048	14752	2	4026	-3169	-18536	1248	-1272	71	1521	243	-17408	-344	-432	-10	1572	-120	130	143	1
-32768	10576	27004	-2086	-3857	-3383	-32288	4256	-23752	1448	-5557	-600	-24016	-6952	6848	335	-39	-1013	-8064	1336	14896	-749	6103	-3612	-21048	1320	-1432	-41	1651	275	-20136	592	2640	262	1433	-57	137	140	1
-32768	15772	4928	-1289	-3331	-2894	-23680	6792	-32144	2235	-4485	-607	-24200	2152	32767	1576	331	-1216	-7744	1200	14168	-711	9972	-4529	-22592	-96	-1456	-260	1756	335	-20528	-792	4256	633	1289	18	150	151	1
-32768	32767	-18572	-3063	-2156	-1431	-12080	12640	-32768	-691	-2104	-562	-16488	-1864	32767	2050	-171	-379	-8792	688	14672	-1038	14673	-4685	-21888	-2992	-1232	-275	2002	294	-19904	456	3696	1002	1274	-101	175	145	1
-32768	32767	-32768	-1813	211	185	4240	3936	-32768	-2029	931	-99	-23600	11888	32767	894	346	1711	-9536	-616	14352	-2798	19617	-3820	-21224	-656	-832	-272	2255	286	-20216	7560	2416	883	1147	-387	174	162	1
-32768	22324	-5588	2976	1489	1453	-13984	-3200	-30560	-269	2810	485	-18504	6768	6400	220	508	1104	-9072	1400	15424	-6799	23519	-2728	-24064	1848	1936	-441	2545	150	-22088	9808	4160	826	627	-650	131	145	1
11180	-23504	32767	2676	2029	1147	-23200	-10968	25160	-1150	3087	1456	-7448	-3896	-1792	-2370	802	-114	-10232	3224	16104	-11371	29153	-5186	-26856	328	5392	-110	2658	234	-24928	4192	9616	562	-225	-650	126	150	1
14884	-16348	312	2497	3380	2398	-32768	3008	22056	4270	1428	-729	-13584	-9016	-680	-1426	-508	-418	-11840	3992	15904	-17449	32767	-9448	-32224	296	10096	1212	2925	343	-27968	4472	19744	567	-1467	-657	130	149	1
-26616	18012	32767	2418	5960	886	-19752	23560	-12816	3419	2373	461	-32312	-12160	4040	2902	174	-1066	-15520	4120	21888	-23053	32767	-16688	-32768	552	17448	2657	3180	408	-24496	5616	23152	1406	-3225	-427	105	49	1
-18744	28972	32767	685	4160	2124	-30464	12840	-9088	649	2981	1492	-27184	10552	11232	2936	1229	-1477	-30256	-32	32767	-26009	32767	-22131	-31456	9488	-672	2916	3280	828	-18488	832	9960	2438	-3251	-21	120	0	1
-32768	-30284	12868	2322	2132	927	-16968	-14648	-22776	-1683	3284	157	-22504	32767	-8448	-2154	1309	-713	-28064	2280	32767	-11860	32767	-19643	-32768	10616	-1168	2326	3447	721	-26232	6304	2488	2356	-2083	412	140	0	1
-5768	7776	22204	1212	931	661	-14952	4800	-13688	1848	2224	42	-784	-15320	-26440	-6072	-318	1256	-32016	8456	32767	-7245	32767	-16639	-32768	3808	7520	889	2484	159	-28768	3680	-14680	1503	-1075	1025	136	145	1
-8404	3232	21332	1243	63	431	-15936	-448	-10576	-585	2109	271	-14616	-32768	-15992	-899	1016	345	-10272	-12792	15144	-9735	32767	-23230	-24496	7744	-2536	-648	2442	411	-32768	-2528	-11976	-8	-2163	1312	122	192	1
-10564	-5060	14636	702	-141	169	-16416	-2448	-6368	-371	1449	-431	-24448	-6968	-14728	2103	2236	-714	-32768	25944	32767	-676	13432	-18595	-17592	8424	-17608	-1413	1840	155	-30488	-4544	-6976	-767	-2917	1501	132	242	1
-8532	-4116	13632	449	-69	101	-23504	1344	-5832	-138	1202	142	-24024	10288	-6344	1151	1951	19	-11336	23408	32767	-3801	-16040	-2803	-21616	-3592	2256	134	1002	59	-29248	-4136	-4904	-644	-3161	1634	141	190	1
-7292	-2376	14120	282	67	74	-16688	3984	-3544	-253	820	-155	-17248	4088	-928	-322	1894	367	4072	9848	11496	-2079	-16511	6251	-14800	-5440	3224	525	188	-264	-26488	-672	-6336	-186	-3036	1872	129	163	1
-7384	-2156	14104	171	184	-16	-16944	3376	-2704	213	574	141	-15664	1168	-264	-269	2060	870	-320	6664	15848	933	-15597	9045	-7288	1632	-144	994	-701	-460	-25512	-800	-6616	-527	-2965	1974	130	154	1
-7728	-2912	13628	139	236	-88	-16992	2064	-2992	-55	540	-34	-14952	2112	168	-54	2132	1051	-3608	3568	22144	713	-21729	7582	-5232	5176	-3512	728	-1544	3	-20672	-3360	-5800	-843	-3049	1613	132	160	1
-8132	-3260	13504	161	214	-110	-16072	-1848	-2552	-79	492	-54	-14672	1840	-664	-436	2039	633	-3072	-8	19920	6476	-28645	6388	-7088	4856	-1704	-193	-2140	-1	-17152	-4024	-4960	-554	-2544	1580	123	150	1
-8004	-3568	13424	176	165	-98	-15376	-2304	-1448	129	448	14	-15392	-1976	-776	-952	2077	294	-4696	1848	16584	11133	-32768	5676	-7368	1096	-952	-943	-2803	-237	-15560	-3608	-6320	-425	-2383	1307	117	148	1
-7788	-3724	13464	212	122	-21	-15200	-2032	-576	-112	590	28	-14352	-4304	192	-909	2257	166	-6072	1840	15224	10436	-32768	5420	-7960	384	-1296	-1211	-3461	-211	-14784	-2856	-7144	-253	-2209	1199	111	141	1
-7652	-3672	13176	242	77	77	-14992	-2840	-376	-494	754	65	-11784	-5416	1128	-459	2583	182	-9232	576	17080	13643	-32768	7331	-9184	-1128	-3144	-1435	-3942	-251	-12688	-896	-8824	-73	-1931	1161	125	137	1
-7784	-2828	13544	262	57	141	-15472	-2680	0	-293	868	56	-13472	-3448	4456	-272	2989	182	-11576	488	18384	15800	-32768	9626	-10080	-944	-3720	-1396	-4300	-418	-10656	-1464	-8520	-277	-1754	1036	127	143	1
-7632	-2660	13744	386	-12	200	-15912	-1768	176	220	948	108	-16560	-2728	6936	-483	3146	436	-12544	-1400	18344	16244	-32768	11801	-11504	-576	-3080	-1802	-4776	-563	-7312	-2432	-10120	-858	-1677	721	118	146	1
-8132	-2140	13576	360	-38	207	-15752	8	-1480	433	1010	162	-16632	-3448	-1144	-1076	2559	324	-13072	-4576	18688	19652	-32768	13795	-12840	-1384	-3432	-2947	-5329	-856	-5848	-4280	-10968	-1439	-1567	377	127	145	1
-7584	-2340	13668	334	-63	198	-14832	712	-744	366	1103	181	-17624	2616	-8256	275	1514	-113	-15672	-6560	18136	24534	-32768	15133	-16256	-3376	-6672	-3290	-5529	-1439	-5528	-6352	-11832	-1808	-1333	182	129	161	1
-7756	-2808	13532	315	-39	258	-15688	-496	-2608	349	1091	67	-15376	-1288	-480	947	1323	74	-21128	-7712	23752	24218	-32768	15446	-21760	-1296	-10184	-1982	-5518	-1786	-5872	-8000	-11280	-1803	-1052	17	130	171	1
-8300	-1928	13648	265	-6	256	-16736	40	-4768	295	1107	36	-15296	-4008	1480	-41	1254	75	-26320	-5448	31304	20378	-32768	15798	-27048	1968	-12008	-1476	-5645	-1855	-6080	-6256	-6320	-1186	-716	-28	132	171	1
-8008	-2136	13676	256	19	243	-16784	312	-4840	294	1099	47	-14048	-728	-2976	-709	1085	106	-32768	-1112	32767	14751	-32768	18684	-32768	4408	-16120	-1155	-5584	-2147	-7536	96	-640	-1047	-758	255	132	152	1
-8052	-2784	13640	274	77	316	-16160	-1728	-2400	-79	1233	68	-15816	-1344	-2744	-300	1438	134	-32768	-3864	30552	10701	-32768	22930	-29960	9984	-17912	-1139	-5322	-2293	-12208	5032	792	-1146	-682	614	131	140	1
-7640	-2560	13744	328	181	439	-17688	-2024	-1456	-32	1375	83	-18736	-5472	2184	-328	1407	91	-32768	-9832	17968	7010	-32768	24169	-29504	10696	-19216	-1801	-4836	-2383	-20448	6088	7608	-1622	-42	943	130	144	1
-8348	-3472	13616	392	377	600	-19704	-2936	-1568	-45	1581	149	-19824	-5080	3152	-698	981	34	-32768	-16888	8512	6478	-32768	17893	-27600	9160	-20584	-990	-4088	-2016	-15584	3320	20592	-3715	212	845	132	147	1
-8468	-1900	13796	523	656	667	-22688	1400	-1656	-125	1787	298	-21856	-1928	2104	-745	936	46	-32768	-29288	-7832	13622	-28047	5198	-18072	13008	-26216	617	-3019	-1053	-12272	-9016	32767	-3413	519	444	133	136	1
-8424	-1196	14412	533	1021	741	-21168	1840	-1904	-340	2031	381	-20056	-536	4120	-962	778	115	-32768	-32768	-31400	21224	-13960	-9621	-9264	9320	-30184	2536	-772	276	-19232	-8776	32767	-1571	-67	-790	131	136	1
-8636	-908	14368	714	1624	707	-21440	1848	-2064	-179	2234	479	-19592	-2064	2696	-953	748	163	-32768	-25048	-31216	-981	4317	-14524	-6440	13712	-27088	2158	1381	831	-18352	-6768	20968	1639	563	-1179	130	155	1
-9332	-440	13732	1033	2342	633	-22552	1128	-1800	86	2434	627	-20840	-7976	3960	-1009	719	337	-9032	-21616	-6112	-15791	25470	-18824	-15744	13440	-14384	1308	2404	691	-12040	-4920	9368	2938	888	-63	124	58	1
-9636	-2196	14828	1332	3105	833	-25024	248	1640	-49	2590	696	-22272	-6224	6456	-902	378	455	6440	28280	32767	-16438	27179	-14479	-32768	-13552	24624	-1693	1785	262	-26128	-2120	8968	3302	255	-313	122	76	1
-10424	-3212	14372	1478	3986	1355	-25552	96	1808	-93	2617	684	-24600	-3176	10464	-523	22	684	-19360	6272	13776	-21507	32767	-3474	-31128	-3672	-3848	-2010	2359	1734	-20736	16528	7808	2536	1956	-141	119	93	1
-10628	-3624	15220	1786	5203	2128	-31040	-2032	10304	-1352	2823	622	-26536	-5496	17856	-445	-1062	622	-26544	-26320	32767	-13060	29301	-1598	-30832	4304	-12272	-1344	3157	1065	-22216	5256	3504	-3096	479	497	115	35	1
-21872	-4484	29768	3121	6991	3066	-32768	-5288	10312	-2943	2610	811	-26104	-4208	20160	-1042	-3031	405	-10224	4752	17800	-5389	22698	-3212	-16656	-4000	-8192	-2379	2564	1092	-14248	-22592	-22488	258	1024	1704	112	0	1
-28556	-3072	32767	2805	7935	3688	-29552	-8872	-496	-3109	3407	716	-18408	-2040	-688	-1802	-2688	13	-32768	-6040	28696	-6978	17054	-1728	-8488	14272	-9216	268	2165	905	-4080	-6832	-7976	3101	850	1805	110	61	1
-27744	-5564	32767	1130	8636	3701	-31336	-4320	-5920	-2220	3512	1236	-27168	-2888	-4648	-917	-1888	-69	-12672	-720	21344	-3911	6858	-820	-21992	10352	-10464	-337	1539	1274	-6368	-384	-2784	3749	544	1096	125	162	1
-18208	-23804	32767	-558	5063	3275	-28392	-4088	-2704	-1634	3038	1237	-29896	-2440	-14320	-539	-2198	-1084	-12464	4776	17080	-1354	3662	-1099	-24520	2032	-7360	464	1512	913	-20264	2040	-14280	-2076	2082	-94	123	221	1
-32768	-28160	32767	1313	2338	2008	-20776	816	-13944	637	2217	502	-29704	2136	-12144	748	-2634	-1282	-8064	-536	16592	-890	2048	-936	-14880	6888	-6120	-138	1148	495	-21984	-2928	-7544	-1475	1564	110	124	160	1
-14640	-32768	32767	478	238	-428	-19984	2208	-3512	-579	1239	446	-31144	3280	-9168	674	-3034	-1092	-6736	496	15744	174	1929	-345	-18696	-2584	-2936	-500	738	232	-15992	-1776	-2920	-802	1671	-399	123	156	1
-1492	-17068	20412	210	-535	-1440	-15824	-512	1776	-482	271	171	-26984	4488	-5304	541	-3495	-1050	-6320	112	15672	1329	3245	267	-18424	-1560	-4016	834	628	473	-15848	-3408	-128	-369	1816	-624	112	156	1
3300	-9740	15568	-673	-460	-1660	-10000	-744	1296	-710	-649	-240	-23928	2712	-3920	388	-3503	-1084	-7056	480	15144	2063	3103	946	-18752	824	-3008	964	572	585	-17736	-5704	-88	383	2077	-647	110	147	1
-4824	-10408	24760	-1271	-1099	-1748	-5600	-760	-4496	-549	-1322	-676	-23992	-720	-8576	679	-3278	-658	-6408	1640	15072	1406	3281	969	-17216	1760	-1096	676	489	466	-16592	-1048	-336	1089	2187	-497	118	138	1
-10640	-10872	30304	-1220	-3009	-2126	-6216	-672	-6096	-502	-1847	-1180	-17928	5288	-5792	571	-2892	-729	-7160	1928	15136	142	3304	543	-16184	1912	-472	662	513	302	-14432	1816	560	1159	2152	-492	119	137	1
-6776	-4876	19036	-1263	-4278	-2312	-8968	-1040	-848	-54	-2557	-1444	-16512	3144	-7000	207	-2474	-810	-7920	1920	14976	-426	2997	119	-15880	912	48	1431	702	354	-14344	2848	1368	966	2156	-668	118	127	1
-6116	-1736	12808	-1592	-4424	-2243	-10480	936	760	387	-3272	-1594	-14920	1312	-6736	-260	-2205	-866	-7776	1792	15096	-591	2494	-449	-14888	2120	1656	2187	938	446	-14264	3184	2000	787	2077	-725	126	123	1
-11900	-2360	20708	-2019	-4739	-2303	-10192	2920	-4720	367	-3694	-1818	-13560	-680	-8488	-470	-1966	-804	-7896	1872	14936	-882	1847	-1292	-15424	3496	1528	2397	1045	519	-13592	5144	1256	336	2010	-680	125	117	1
-13304	-1920	19244	-2273	-5324	-2460	-11928	1776	-2624	453	-4151	-1913	-8696	-2488	-9520	57	-1743	-619	-7320	1296	15104	-1250	1328	-1770	-16768	3952	904	1833	991	469	-14512	6208	3696	-259	2251	-635	120	115	1
-12540	-480	14632	-2299	-5373	-2446	-13656	2224	-1512	1151	-4615	-2012	-7888	-1064	-10216	974	-1633	-491	-7856	1088	14704	-937	1199	-2182	-16496	4040	-824	837	863	348	-15168	4824	6568	-134	2901	-612	120	110	1
-14844	-1204	16768	-2302	-5097	-2455	-14368	5152	-3792	1839	-5036	-2001	-5680	2088	-11208	1840	-1350	-131	-8064	504	14792	-237	1240	-2178	-16472	1480	-1984	253	884	204	-15448	1608	56	1093	2795	-598	123	112	1
-17328	-3028	21032	-2323	-4872	-2752	-16952	8904	-5952	1508	-5427	-1791	-4520	3952	-11712	2129	-1137	56	-7368	1056	14552	176	1511	-2110	-15848	-808	-1560	413	972	223	-18096	-3024	-4416	484	2007	-208	128	114	1
-19188	-4528	22836	-2169	-4549	-3219	-21224	7064	-6080	901	-5744	-1632	-4208	5416	-11312	1650	-723	47	-8192	800	14992	171	1634	-2564	-16456	2280	-2872	715	873	353	-16832	-1136	-1248	-449	1312	-378	128	120	1
-24260	-4836	27580	-1804	-4210	-3615	-25952	5328	-9016	848	-6041	-1696	-3968	3768	-9968	1024	-163	-25	-8072	464	14880	105	1695	-2517	-17504	2768	-3728	380	878	302	-15488	4792	-944	-41	1774	-347	128	128	1
-32768	-3624	32767	-1840	-4186	-4060	-30456	2944	-14752	1203	-6265	-1418	-4360	176	-7224	816	218	-200	-8048	728	14320	-116	1799	-2554	-16808	1656	-2248	291	1117	356	-15448	3152	-968	380	1852	-370	128	141	1
-32768	1936	32767	-1717	-4546	-4202	-32768	-656	-19696	1513	-6248	-1108	-8224	-5832	-3184	652	27	-423	-8056	960	14352	-161	2619	-2960	-17784	2728	-40	211	1231	311	-17752	2448	2048	-139	1693	-302	128	144	1
-32768	9356	25016	-1406	-4654	-3575	-32768	-640	-23032	2106	-5912	-655	-17224	-6928	2352	552	-406	-770	-6720	-8	15448	-736	4381	-3817	-19800	904	120	-92	1372	364	-20576	2768	6520	-5	1405	-218	125	160	1
-32768	12392	4400	-1278	-3828	-2612	-26120	3120	-27680	2567	-5047	-425	-26296	-3128	22816	1764	-471	-1337	-7632	720	15024	-692	7934	-4699	-22184	-184	-48	-14	1781	287	-21224	80	6000	643	1334	-28	146	167	1
-32768	32767	-11592	-2257	-2604	-1475	-17376	15480	-32768	534	-3139	-569	-20896	4248	32767	3429	-166	-897	-8320	848	14896	-1106	12662	-5588	-22184	-136	-1192	-24	1989	392	-20520	-280	5040	1014	1294	-119	177	167	1
-32768	32767	-32768	-3718	-890	-824	4536	7192	-32768	-3115	173	-194	-21680	6968	32767	1237	24	1497	-5512	-728	14344	-2914	17539	-5441	-21520	-1304	-2240	-282	2240	374	-19576	5120	2896	1021	1104	-322	179	153	1
-32768	32767	-28552	2367	847	1701	-11136	-12328	-28328	-2318	2337	117	-21872	14728	6840	1233	706	1674	-9344	40	15640	-7070	22284	-3803	-23344	1176	512	-339	2572	238	-22624	9328	3336	909	727	-533	148	153	1
-32768	10128	17608	3843	1623	4317	-26776	-16312	3760	-854	3155	335	-14448	1936	880	-3147	65	140	-9568	2608	16288	-12544	26931	-5034	-28488	1664	4552	-165	2743	272	-25760	6776	7352	829	74	-607	114	139	1
-13076	-27392	9428	1335	3563	2193	-32768	8144	17152	3104	2045	635	-27896	-11032	24872	-2110	-1290	-341	-11536	2824	18096	-18485	32767	-9161	-32016	1304	8736	651	2856	389	-28088	6504	16472	634	-1120	-684	109	189	1
-28888	11212	32767	2579	5247	833	-31088	17072	-12168	3054	2998	578	-19096	-19200	-11728	1472	970	-2011	-13096	4216	20704	-26209	32767	-15753	-32768	-448	18360	2169	3090	385	-27480	8488	22360	1158	-2918	-583	97	108	1
-7008	15408	32767	885	3024	1430	-18152	7496	-7160	839	3329	1299	-21832	17888	-7832	1964	1280	-1387	-26184	-856	32767	-31840	32767	-23731	-32768	7224	3864	3004	3186	818	-23344	-2952	17632	2230	-3815	-80	115	0	1
-25320	-15584	10956	2272	1673	908	-9832	-9592	-20296	174	3142	-156	-15632	32767	-17448	-1208	1135	-657	-28064	2776	32767	-13858	32767	-20460	-32768	8136	744	3203	3354	811	-20560	-3200	9880	1711	-3467	-142	133	0	1
-14076	-4404	14512	1192	592	473	-12128	8496	-17048	1491	2208	-46	-3072	-13696	-16688	-4808	-310	682	-31224	4200	32767	-9340	32767	-16703	-32288	5840	5552	1930	2568	390	-29160	816	-11696	1854	-1339	1098	130	119	1
-8064	-236	18132	966	199	314	-20352	1984	-3944	-447	1771	158	-23944	-30128	-20008	-606	1230	94	3176	-11264	9568	-14792	32767	-22578	-26232	7000	296	537	2172	409	-32768	-2240	-12128	860	-2052	1413	125	200	1
-9244	-4168	14456	566	27	124	-16520	-640	-7904	-989	1560	-490	-22904	-1288	-11768	1977	2223	-513	-32768	19880	32767	-894	24640	-23012	-17304	5072	-17032	-455	1702	601	-29688	-4528	-7384	-34	-2752	1395	134	203	1
-7960	-3456	14164	353	7	63	-18648	-1432	-4664	-512	1142	54	-22144	8632	-5752	446	1974	303	-17784	29320	32767	4584	-6175	-3341	-20808	-2680	-3720	702	993	125	-28784	-5360	-4752	-289	-3122	1536	137	194	1
-7112	-2648	14004	227	121	40	-16936	3344	-3064	201	784	-181	-15920	-1344	-1984	-432	1934	761	-2808	16608	19856	4781	-14484	11570	-15136	-6312	3504	1434	121	47	-26480	-2920	-5528	72	-3020	1765	133	177	1
-7724	-2428	13816	182	170	-26	-17760	2264	-5032	177	713	94	-16496	-1728	-856	2	2056	864	464	6888	15872	3516	-15906	16002	-8832	1248	1328	1852	-714	-105	-24472	-304	-5296	115	-3021	1770	128	170	1
-7784	-2968	14032	140	183	-104	-17168	-544	-3968	441	553	-30	-14952	1592	-1664	135	2138	863	-1144	-176	19520	1988	-19930	13247	-6400	6776	-1096	880	-1679	452	-20768	-2184	-3144	112	-2993	1529	131	174	1
-7952	-3332	13776	79	171	-125	-15992	-1048	-2664	420	472	13	-15592	1840	-1912	-358	2254	475	-2160	-4808	19952	5715	-25390	8525	-7616	6704	-1360	-423	-2304	388	-17040	-1960	-6264	74	-2427	1614	131	156	1
-7696	-3548	13688	50	150	-99	-15240	-544	-1336	226	507	72	-15232	-1176	-752	-931	2311	128	-5560	-2856	20952	10660	-30622	5131	-8456	2408	-2224	-1611	-3000	193	-16376	-872	-6608	-13	-2246	1392	116	155	1
-7632	-3300	13692	36	128	-53	-15416	1608	-824	-378	522	-56	-14248	-1800	1120	-722	2477	164	-8480	-1056	20232	12331	-32768	4087	-8400	-448	-2512	-2028	-3562	1	-12624	64	-7776	-10	-2084	1267	113	151	1
-7688	-3040	13564	35	103	-16	-15080	-320	-592	-962	614	-33	-12544	-1096	1000	-171	2587	293	-10248	840	17592	14575	-32768	6550	-10144	-2840	-3320	-2002	-3978	-257	-11064	712	-8552	-8	-1868	1283	110	145	1
-7372	-3140	13428	49	79	16	-15392	-2512	-448	-686	620	-44	-12592	-24	3248	-61	2955	317	-12256	1368	15920	14129	-32768	9755	-11296	-2896	-2896	-1772	-4337	-430	-10592	-784	-9008	-417	-1799	1221	123	141	1
-7420	-3140	13616	118	82	58	-16048	-2872	-128	119	614	-62	-15848	-3104	9112	-457	3353	414	-14904	-112	18176	14449	-32768	12891	-10920	-136	-3896	-2049	-4767	-481	-5848	-2720	-10168	-1102	-1649	829	126	142	1
-7524	-1928	13704	202	47	90	-16048	-488	-1216	496	700	4	-16520	-7472	-408	-1213	2973	317	-19200	5400	25696	16674	-32768	15339	-11752	128	-5520	-2786	-5256	-736	-4168	-4936	-11224	-1683	-1559	512	124	140	1
-7828	-4808	13132	235	-26	142	-11496	-4968	-3576	777	644	-1109	-19320	-208	-7296	-149	2043	-5	-16656	-6176	17136	21597	-32768	18927	-14936	-1960	-3768	-3328	-5598	-1370	-4384	-6184	-12728	-1959	-1302	235	128	140	1
-7920	-3504	13676	343	-72	287	-15136	-464	-1432	78	977	176	-17000	752	-272	756	1167	9	-19160	-9616	18432	20593	-32768	17312	-22352	-1848	-6576	-3092	-5789	-1663	-5368	-6840	-12888	-1911	-911	2	133	135	1
-8324	-2688	13564	340	-40	325	-16104	-1504	-1648	100	1192	-66	-15152	-6080	5360	198	1320	40	-26368	-11416	32767	21361	-32768	14017	-26760	824	-12040	-1546	-5702	-1845	-5264	-6368	-7344	-1764	-440	-65	129	140	1
-7632	-2856	13496	299	37	334	-17312	-1080	-2496	359	1191	18	-16384	-3008	1968	-589	1170	73	-32768	-3504	32767	20558	-32768	15502	-32768	5584	-15408	-1420	-5779	-1958	-7192	-1560	16	-1835	-721	85	128	144	1
-7544	-2860	13740	290	150	358	-17152	360	-1904	450	1338	101	-16384	-1840	1160	-604	1164	68	-32768	-5840	32392	15406	-32768	20551	-32664	7352	-18864	-1154	-5397	-2279	-13072	4200	4336	-1438	-935	433	129	147	1
-7768	-2464	13924	330	273	466	-17888	-1224	-1840	131	1515	54	-18040	-2592	-8	-187	1368	37	-32768	-11024	18432	10393	-32768	22834	-28736	10944	-20008	-1184	-4755	-2217	-23680	5912	12184	-1621	-579	963	133	149	1
-7228	-1504	14732	442	483	643	-20032	-1816	-2640	-27	1690	49	-20072	-3608	1664	-662	1020	-103	-32768	-19976	3184	8271	-32768	16810	-25904	8848	-22144	-714	-3939	-1813	-17056	664	23616	-3909	455	1068	134	151	1
-7832	-1428	14528	497	736	639	-21896	904	-2040	-126	1914	315	-20256	-2256	1840	-914	888	-131	-32768	-32768	-14568	16341	-27206	3032	-14976	13072	-27960	971	-2666	-769	-10888	-7992	32767	-2745	36	341	135	143	1
-7932	-1664	14576	525	1096	724	-20568	1272	-1944	-223	2126	283	-19688	-1984	3600	-1008	818	69	-32768	-32768	-32768	16796	-11649	-10587	-6072	10440	-30672	2249	125	549	-17248	-6368	32767	-550	-23	-1116	131	136	1
-8292	-372	14156	734	1690	635	-20968	1832	-1944	-31	2324	438	-18872	-5136	2832	-867	781	225	-32768	-20648	-19744	-9704	8226	-14109	-9224	14296	-27472	1041	1896	713	-17256	-5776	12328	1834	702	-932	131	156	1
-9732	-944	13800	1050	2465	645	-22872	-320	-1216	82	2535	586	-21376	-8552	3992	-968	649	297	-32768	-4072	10464	-11923	10033	-11188	-14344	9856	-20024	431	2901	902	-10152	-3584	5320	3307	763	-15	123	37	1
-10040	-3124	14980	1384	3260	1000	-26400	-368	1704	-77	2695	550	-22504	-3376	6720	-858	320	450	28264	29040	16656	-17669	23549	-9811	-32768	-7672	32767	-2006	1748	18	-3704	6120	17208	4378	954	-313	122	71	1
-10932	-3072	13612	1515	4219	1620	-28392	168	5880	-927	2844	433	-24712	832	11272	-675	-166	697	-10632	1088	6960	-17265	32767	-337	-28296	-4760	-2256	-3064	2054	1646	-32768	22808	504	2169	2270	423	124	109	1
-11376	-4064	15960	1939	5527	2395	-31544	-1160	11320	-1715	2868	441	-24608	-1944	17376	-907	-1053	438	-32768	-25656	32767	-14969	32767	74	-32768	3584	-14736	-2085	3007	978	-26824	8704	17648	-4691	-212	624	111	0	1
-22228	-3720	31224	3279	7181	3316	-32768	-3616	11224	-3137	2473	582	-24832	-2424	20352	-1462	-3054	463	-20712	2776	29376	-8327	22844	-1435	-19920	472	-7312	-2402	2863	1097	-15592	-14624	-15984	-1093	1051	1414	116	0	1
-32768	-5008	32767	3024	7921	3641	-26800	-6664	-6344	-3479	3666	583	-16176	1640	-3696	-2521	-2488	137	-17920	-4256	23272	-8445	15714	1337	-12360	11736	-4448	-1291	2484	946	-5000	-7120	-12184	1706	1008	2075	118	101	1
-25036	-5276	32767	502	8006	3677	-30112	-4400	-5088	-1481	3583	803	-30080	-1712	-5216	-1524	-2080	-5	-21072	912	23920	-6235	7248	-2625	-13336	11920	-10768	-1202	1625	1003	-13744	22152	-13248	784	1220	-317	121	181	1
-14140	-8908	25116	-562	5896	3499	-29040	2224	-5248	-726	2971	817	-30136	-40	-16224	-1506	-2052	-812	-10496	-4064	18424	-2802	2625	-2699	-24000	1472	-10800	-150	1591	910	-24168	1344	-15032	-2067	2127	512	122	175	1
-32768	-29572	32767	-1278	2995	2806	-20416	4880	-14280	-991	2167	482	-30080	1792	-13560	196	-2768	-1169	-7832	-1240	17048	-2223	1008	-2371	-18752	3112	-7704	421	1322	601	-24832	-9200	-7080	-1467	1517	122	119	149	1
-13288	-32768	32767	-420	145	630	-18904	1048	-7472	-2783	1376	402	-31032	-512	-8488	594	-3112	-1289	-6456	-1176	16360	-507	1071	-1402	-17704	-3848	-6208	463	908	485	-14952	-9008	-2296	52	1472	-289	121	137	1
-5540	-20116	21164	-373	-1033	-1098	-15304	-1848	-840	-1812	279	13	-27760	824	-5232	337	-3457	-1411	-6080	-1584	15368	1353	2075	-331	-18592	-2792	-5840	1471	658	623	-18248	-7984	-1696	1243	1749	-541	111	129	1
584	-12724	13992	-948	-1123	-1693	-8968	-3536	720	-1434	-642	-165	-23416	176	-3776	488	-3314	-1306	-5888	-816	15128	2219	2951	582	-19192	864	-3896	1528	518	822	-17184	-1032	-1408	1935	2028	-559	113	135	1
-4984	-10544	20012	-1144	-1774	-1795	-6056	-5168	-3984	-568	-1312	-557	-21904	-512	-4456	954	-2838	-965	-6056	768	15008	1752	3551	1108	-17400	3320	-2064	796	467	651	-17472	3808	-1728	1698	2157	-663	117	131	1
-6092	-7780	19840	-1022	-3018	-1739	-6848	-4088	-3344	255	-1948	-1090	-17880	1624	-3640	804	-2607	-842	-7104	2000	14992	971	3686	1158	-16320	4064	-416	550	434	392	-15432	5152	-1576	1175	2040	-661	120	135	1
-6716	-4320	16664	-1373	-3792	-1666	-9136	-616	-2144	823	-2602	-1359	-14400	3008	-4128	837	-2356	-769	-7976	2096	15344	579	3563	634	-16120	2360	-280	1151	582	375	-14856	4808	-448	1032	2056	-771	117	136	1
-8484	-3964	15616	-1920	-4213	-1700	-9024	1464	-1920	869	-3047	-1497	-17616	4464	-7768	315	-2271	-828	-7744	1984	15408	65	2648	-229	-14344	1608	1552	2200	828	481	-14144	5416	512	858	2133	-797	121	128	1
-10132	-4684	15820	-2229	-4507	-1870	-10248	2632	-1824	759	-3506	-1722	-13720	-712	-7072	421	-2023	-706	-7424	1280	14936	-315	1902	-1268	-14960	2232	776	2655	929	603	-12648	4552	2304	362	2043	-724	122	127	1
-10552	-4140	14812	-2469	-4583	-2209	-12544	3760	-1720	988	-4000	-1905	-9336	-1816	-8288	765	-1864	-534	-7096	1368	15040	-153	2114	-1735	-16880	4032	288	2283	835	503	-14056	3872	2024	-160	2179	-688	121	120	1
-11388	-3732	14580	-2581	-4429	-2632	-13488	4848	-1080	1378	-4379	-1923	-8800	648	-9480	1561	-1876	-322	-6840	992	14952	8	2777	-2066	-17560	5352	-480	776	664	424	-16376	2448	6680	-357	2738	-584	118	115	1
-11768	-3692	14936	-2580	-4401	-2709	-13560	7112	-3528	1522	-4741	-1870	-6288	3264	-9872	2070	-1769	-69	-7728	-184	14872	622	2217	-1826	-16328	1376	-3048	-319	670	250	-15544	3064	2632	1378	3061	-695	121	116	1
-15868	-2556	22540	-2295	-4320	-3500	-15080	7704	-4976	1064	-5080	-1713	-4592	4720	-10416	2072	-1508	34	-7520	880	14752	703	2252	-1613	-16568	-1288	-2184	163	853	205	-15336	-2080	-3480	1391	2462	-570	125	119	1
-17076	-476	25144	-2183	-4337	-3720	-19440	5624	-5616	711	-5462	-1717	-4696	4672	-11024	1504	-1072	-18	-7744	1320	14784	1016	2558	-2164	-15216	1648	-2416	1173	807	401	-18128	-3488	-3552	-389	1785	-35	126	120	1
-20852	-1796	29300	-2142	-4289	-3789	-24616	4744	-7536	776	-5871	-1786	-5560	3728	-9968	674	-408	-100	-8088	448	15056	839	2518	-2621	-18400	4208	-3264	1037	717	396	-15680	5624	-1760	-392	1770	-173	129	121	1
-29456	-4180	32767	-2247	-4316	-4082	-28288	3536	-12376	1261	-6186	-1573	-6056	2632	-8048	229	123	-159	-8280	80	15104	823	3004	-2517	-17800	2536	-3208	522	943	381	-16592	8464	-448	442	1881	-386	128	129	1
-32768	-2004	32767	-2126	-4682	-4360	-32520	400	-18232	1820	-6343	-1253	-7504	-2072	-5808	-26	247	-319	-8400	1048	14680	1180	4115	-2550	-17776	2656	-2904	462	983	357	-16760	7416	-248	435	1917	-383	128	133	1
-32768	5600	27612	-1998	-4661	-4178	-32768	80	-22480	2305	-6193	-872	-12456	-6984	-4256	42	275	-655	-7464	496	14928	1011	6469	-2218	-18904	-1816	-64	461	1406	196	-20816	2944	5960	-193	1391	-474	124	137	1
-32768	6684	13732	-1552	-4056	-3494	-30992	3552	-27144	2220	-5500	-513	-20480	-3048	6672	1415	547	-927	-7808	904	14640	755	9728	-2997	-21824	1576	-248	651	1748	253	-21088	-360	6216	489	1362	-235	135	142	1
-32768	22508	-5284	-1362	-3045	-2836	-21872	6392	-32768	1651	-4173	-805	-26728	1496	32767	3908	-734	-1025	-8384	960	14848	-188	13858	-4220	-23448	216	-832	209	1861	291	-19560	-4360	4272	1015	1379	-94	159	151	1
-32768	32767	-27304	-3668	-1647	-1485	-5040	11592	-32768	-1760	-1046	-570	-14784	-232	32767	2234	-89	325	-14776	-984	14864	-1960	17745	-4867	-20856	-1072	-472	59	2120	245	-19712	1568	2464	1218	1245	-179	184	144	1
-32768	32767	-32768	-141	326	1060	64	-4384	-32768	-2974	1883	-14	-24520	15384	21728	1134	695	1683	-10504	-344	14688	-5766	20811	-3818	-20712	704	488	-98	2388	190	-20760	9928	2928	1228	947	-464	162	141	1
-9408	17508	-7328	1697	3092	3530	-21128	-6912	-23344	-399	3036	631	-13080	8672	5592	-2051	243	142	-10168	1504	14936	-10319	24420	-4131	-24864	2376	3976	-229	2667	102	-23680	10424	6192	1104	243	-700	123	165	1
3212	-32768	29956	2330	2702	2632	-23736	-9528	-12952	-710	3024	724	-20112	-4536	5376	-2976	-171	74	-12096	3256	16392	-16085	31656	-7989	-29560	2656	7240	181	2827	192	-27408	7976	14384	629	-805	-635	115	144	1
-28240	-2884	19684	2635	5833	1723	-32768	16288	-10800	3412	2772	339	-31000	-19768	1024	813	-54	-1293	-13880	4248	18640	-22822	32767	-14220	-32768	952	16168	1491	3089	305	-27200	10064	20088	648	-2491	-414	126	126	1
-20492	28368	32767	931	3387	1493	-22856	9048	-12768	791	3601	1368	-19008	-416	10848	2955	-146	-1415	-24704	3136	32368	-30806	32767	-24541	-32768	4064	7080	2492	3244	659	-29056	1736	23840	2473	-3907	-98	118	0	1
-27484	-32768	1252	1198	2883	942	-21968	7488	-8464	694	3564	1543	-19152	32767	-28392	71	1929	-1202	-27792	1944	32767	-18799	32767	-23497	-32544	8088	544	2880	3392	795	-23288	-808	5496	1407	-2853	-15	144	0	1
-21616	32767	32767	2130	1268	1148	-3464	-192	-24000	1208	2464	-405	4432	6648	-14392	-4695	-732	436	-25224	4864	32767	-7987	32767	-17235	-32768	9344	1968	1491	2929	423	-24960	-1200	-8096	1583	-1402	895	135	29	1
-15984	-11848	16864	1564	269	400	-26488	6168	-26160	365	2015	193	-22672	-32768	-17320	-3105	73	803	-26168	2224	26624	-5282	32767	-22271	-28056	4360	3864	274	2224	387	-32768	-2120	-12872	735	-1746	1556	112	197	1
-12012	-6900	14548	919	57	218	-24672	3096	-10632	-688	1727	-91	-25152	-13448	-12848	2179	2392	-1156	-32768	16136	32767	-2314	24184	-26643	-17880	8864	-31880	-625	2159	874	-30184	-4616	-9896	36	-2599	1527	132	226	1
-8428	-3400	14756	504	-13	114	-14816	-1192	-5680	-844	1370	-73	-24472	10408	-6736	1528	2299	3	-18192	31752	32767	5000	-13093	-5223	-19640	-400	-976	878	1316	-53	-31600	-6480	-4944	-468	-3316	1472	140	219	1
-7048	-2260	14564	283	54	60	-17856	7008	-4184	111	828	-3	-14184	2368	-1392	-55	1843	569	1712	16024	14184	1482	-17416	7858	-20552	-7400	6544	1095	320	138	-26752	-4584	-5080	-23	-3056	1784	134	203	1
-6980	-2004	14132	175	132	-25	-18024	4440	-4552	441	639	336	-16696	-584	-1168	256	2045	931	3104	7280	12808	3860	-14154	12534	-9024	120	1656	1427	-582	14	-25080	-3128	-4520	144	-2978	1976	125	192	1
-7076	-2900	13892	164	172	-94	-18008	680	-3832	525	510	69	-17000	2008	-1096	518	2153	821	-1288	2464	21736	4545	-17466	11159	-5072	4880	-1712	1062	-1481	332	-23304	-2464	-4888	-1	-2940	1584	128	183	1
-7568	-3176	13868	147	164	-106	-15584	328	-3560	794	404	-5	-15040	4552	-856	221	2159	561	-1832	-2696	22264	7624	-24475	7515	-8352	6352	-1520	-40	-2163	589	-16904	-3928	-4128	319	-2242	1450	121	177	1
-7540	-2988	13888	128	140	-107	-15200	1648	-1968	555	428	72	-15528	2664	-96	-594	2126	368	-2336	-1752	18400	14294	-28695	5705	-9120	200	-736	-1051	-2868	303	-15520	-1688	-5816	193	-2211	1448	128	168	1
-7328	-2712	14128	98	144	-80	-15976	2464	-544	-340	598	-40	-14904	-8	968	-1062	2210	107	-5992	144	18448	15460	-32010	6139	-9288	-1848	-1672	-1570	-3535	132	-14632	-1408	-7248	66	-2114	1345	122	162	1
-7192	-2696	14012	97	136	-71	-15128	-1504	-440	-995	788	-43	-13928	-1448	1504	-1090	2239	152	-9296	-512	20240	14742	-32768	8447	-9888	-3304	-3608	-1634	-4016	65	-11720	-1584	-7320	110	-1908	1296	113	164	1
-7048	-3292	13796	222	10	84	-15224	-4624	320	-660	790	-46	-12880	-2848	144	-996	2412	319	-10952	-1576	18816	16291	-32768	11656	-11544	-4064	-3544	-1549	-4271	-149	-13512	-2464	-8024	-257	-2013	1191	115	156	1
-7128	-2872	13804	275	-24	165	-15600	-3416	-1416	311	666	-73	-13288	-1432	3936	-615	2838	112	-12040	-3048	18568	17343	-32768	14563	-12568	-2944	-3384	-1911	-4738	-311	-6584	-3752	-8264	-648	-1774	759	131	149	1
-7252	-2352	13996	275	-41	181	-15712	784	-1688	634	754	16	-16672	-4120	6568	-951	3116	381	-15064	-5648	23128	18064	-32768	16869	-13008	-2680	-5296	-2697	-5242	-562	-3272	-5192	-9592	-973	-1629	519	123	147	1
-7116	-2628	13652	254	-26	211	-16160	1560	-2208	196	851	96	-16600	-4640	6280	-1084	3021	431	-15520	-9296	21896	20471	-32768	18001	-16136	-3208	-6064	-2991	-5493	-1138	-4440	-4936	-11112	-1414	-1417	277	126	144	1
-7184	-2752	13616	246	-14	304	-15504	672	-1992	-389	882	-35	-17560	152	-6448	-583	2234	76	-17472	-11944	22352	21159	-32768	16175	-22144	-3608	-7848	-2551	-5711	-1521	-5992	-4504	-11504	-1849	-1152	58	127	144	1
-7524	-2400	14212	227	7	356	-15568	-344	-2264	-244	975	-103	-16760	104	-4648	792	1424	26	-25120	-10592	32392	21840	-32768	14569	-25344	-376	-12752	-1874	-5747	-1765	-5896	-4840	-8728	-2243	-707	-112	131	145	1
-7308	-1808	13960	216	47	329	-16920	-832	-3112	292	1013	15	-15480	-7104	3256	592	1590	243	-32768	-4616	32767	18287	-32768	17608	-31344	896	-15368	-1679	-5740	-2173	-7144	-2232	-4488	-2267	-327	-3	131	146	1
-7132	-2196	13828	224	132	328	-17392	200	-2200	572	1062	118	-16560	-3952	2496	-184	1323	277	-32768	-4448	32767	17041	-32768	18575	-32240	4512	-15960	-1034	-5403	-2591	-11024	3944	-1080	-1691	-553	295	135	139	1
-7288	-2496	14000	255	266	399	-17656	-280	-664	206	1296	70	-18104	456	760	233	1303	172	-32768	-10000	21384	6076	-32768	22436	-32768	9672	-17336	-699	-4848	-2738	-18656	4928	7568	-1050	-416	744	133	131	1
-7728	-2100	14124	318	427	544	-18720	-1912	112	-23	1551	151	-21248	-3016	4600	29	1367	160	-32768	-13088	6952	2159	-32768	13619	-27952	11904	-20944	-831	-4345	-1933	-21800	120	22496	-3728	-294	1279	133	128	1
-7360	-1196	14832	459	626	664	-18888	-2208	-336	-38	1600	165	-22760	-2424	6264	-729	847	-12	-32768	-30392	-12496	17567	-27633	1650	-17736	12648	-29552	381	-3150	-969	-15432	-11104	32767	-4341	-272	454	132	135	1
-7992	-1576	14868	481	929	760	-20840	2160	-1288	-136	2121	439	-19096	1232	3272	-877	617	10	-32768	-32768	-32768	24114	-11890	-8076	-6072	10712	-32632	2097	-317	339	-17048	-8064	32767	-392	-375	-1662	131	136	1
-7936	-752	15080	747	1477	731	-20824	2496	-2192	8	2351	533	-18744	-3248	2040	-758	809	155	-32768	-32768	-32768	19822	-7994	-8284	-9512	13424	-27320	1518	1596	563	-18864	-9248	13328	1587	909	-1052	129	155	1
-8424	-1184	14568	1230	2189	607	-22952	-304	-1544	299	2501	757	-21088	-11128	1744	-985	697	335	-32768	-7712	10888	-14725	11768	-12559	-13856	14256	-21928	831	2902	986	-10472	-5720	3784	3665	767	453	119	35	1
-8908	-2064	14384	1621	3042	882	-25320	-120	856	121	2661	716	-22096	-6232	5440	-826	279	455	-1792	25304	7224	-11261	18502	-5849	-25816	-6688	32767	-951	2229	-16	-5048	3800	25952	4575	427	-201	117	42	1
-10208	-3568	15752	1624	3853	1458	-27304	352	4360	-732	2830	567	-23656	-312	10448	-462	-77	737	-11344	11632	9312	-12196	32767	-5793	-32768	-9024	3968	-4141	1702	1382	-16208	18048	-31448	2782	2682	-475	114	17	1
-11352	-3896	15844	1868	5153	2067	-32336	336	8856	-1825	2837	588	-23704	-8	17040	-502	-832	656	-24944	-18584	32767	-15731	32767	-1947	-31056	2776	-7816	-2026	2613	697	-32768	3728	10816	-4011	-509	802	114	37	1
-17744	-4888	28788	2628	6657	2882	-32768	-2816	9560	-3329	2494	764	-25392	-1624	21360	-1001	-2739	491	-24184	-2856	28200	-8820	26293	-5112	-27144	936	-12744	-1795	2560	1661	-13432	-18048	-5008	-2044	1128	635	118	0	1
-30144	-2788	32116	2485	7637	3619	-30752	-9016	-1496	-3267	3602	917	-19336	-3504	2944	-2437	-2623	100	-11264	-3880	30912	-4895	19786	209	-15200	3352	-7864	-971	2464	930	-11344	-15352	-19680	3426	810	1825	118	133	1
-26856	-11320	32767	690	7707	4060	-32768	-8000	-5472	-2429	3592	1377	-28192	-9040	-2536	-1486	-1682	-191	-21336	10824	21200	-4922	8127	-1700	-13016	9832	-7864	583	1796	1498	-15944	16712	-17472	3329	58	-599	119	161	1
-16196	-24712	28188	1480	5401	4438	-28672	-6200	-416	-1387	2989	1152	-29016	-7928	-14512	-710	-2099	-1027	-10504	-4968	21440	-3093	3363	-2153	-20720	5152	-10808	43	1554	1070	-18536	15600	-15376	-635	1980	-87	119	111	1
-32768	-26960	32767	599	3775	2751	-22760	888	-11528	554	2215	700	-30992	4992	-12104	1504	-2504	-1405	-9320	1416	17840	-1778	872	-1189	-20792	6312	-6128	558	1248	581	-26744	-480	-11896	-1802	1799	8	122	81	1
-23748	-32768	32767	38	1265	122	-20712	-368	-5648	-384	1504	587	-31576	5008	-8328	1371	-2920	-1090	-7280	1288	16160	-1032	10	-1023	-18184	3160	-3808	-392	911	260	-18512	-1160	-5224	-1171	1648	-252	119	65	1
-7784	-26908	28428	1102	-497	-1555	-15408	-2712	-584	163	541	103	-28360	4992	-4928	325	-3349	-1123	-6328	-592	15840	103	732	-951	-17728	-944	-3928	8	621	329	-15888	-3944	-1568	-495	1815	-589	117	73	1
2596	-10680	17352	380	-802	-2201	-10848	936	1232	243	-504	-268	-24392	1056	-4880	137	-3354	-1118	-5344	96	15024	532	1787	-691	-18056	-896	-3088	553	485	430	-17600	-3768	80	146	2011	-655	109	66	1
-2044	-6704	22364	-961	-1197	-2418	-6792	1840	-3296	-151	-1232	-296	-21872	-648	-4944	514	-3056	-1186	-5496	920	14968	899	3626	-316	-18288	200	-1664	435	433	472	-15680	-2320	1496	585	2218	-459	120	86	1
-6156	-6272	25216	-1097	-2540	-2304	-5880	-768	-4016	-609	-1751	-853	-21376	4336	-2776	1196	-2877	-899	-6976	1408	15008	941	5134	-106	-16312	760	-432	629	443	349	-15216	-576	1176	837	2161	-399	120	107	1
-4760	-1980	18808	-1140	-3638	-2080	-8624	-1848	-1536	-77	-2413	-1401	-16224	4704	-5128	614	-2537	-969	-8104	1664	15888	738	5127	-171	-16000	1432	-592	966	547	394	-14552	936	1056	1013	2099	-524	118	119	1
-4864	-32	14484	-1735	-3958	-1915	-9504	1976	-272	627	-3119	-1454	-14496	2720	-8208	393	-2449	-1035	-8040	1960	15416	437	4212	-435	-15608	2184	432	1509	711	395	-14296	2736	1504	962	2093	-668	124	122	1
-8520	-1888	17520	-2057	-4211	-1833	-8920	2792	-3216	338	-3538	-1574	-13920	1072	-8144	50	-2126	-922	-7776	1248	15152	7	3256	-1132	-15152	2176	720	1810	830	450	-13168	4040	336	361	2060	-734	127	139	1
-11756	-2848	19540	-2239	-4690	-1975	-10480	2736	-3288	368	-3987	-1735	-11256	-1264	-9824	236	-1912	-834	-7768	1008	15464	-200	2565	-1604	-16120	2328	-448	1766	851	422	-13592	4048	2408	-125	2265	-713	122	134	1
-13288	-3388	17472	-2292	-5049	-2227	-11824	3048	-2344	818	-4430	-1902	-8624	-440	-10456	849	-1719	-674	-7608	656	14992	-36	1549	-1772	-16808	3576	-952	1460	795	402	-14816	3848	6392	-14	3002	-609	120	132	1
-14048	-3444	16368	-2362	-4992	-2550	-13488	4808	-3120	1404	-4914	-1925	-6248	1928	-11464	1695	-1502	-421	-7632	1048	14752	141	1424	-2070	-16856	1864	-888	1007	761	334	-14480	4016	5304	252	3155	-603	129	139	1
-16284	-4056	20044	-2509	-4703	-2988	-16048	6856	-5048	1543	-5389	-1818	-5336	3472	-12168	2091	-1230	-84	-7656	784	14664	307	1675	-2181	-16120	-104	-336	832	851	307	-18976	-1664	-2416	798	2191	-327	129	135	1
-21176	-4404	25836	-2533	-4642	-3460	-19864	7440	-7552	1182	-5767	-1723	-5048	5480	-12600	1927	-965	138	-7088	1088	14864	447	2045	-2428	-15064	1080	-488	837	913	369	-17544	-1704	1408	-770	1208	-282	130	131	1
-27020	-4400	28984	-2359	-4680	-3893	-23680	5752	-9144	950	-6042	-1676	-4936	6088	-11288	1250	-434	168	-7720	760	14808	463	2247	-2431	-17328	2344	-2136	592	922	419	-15904	4280	3456	-222	1480	-330	128	128	1
-32768	-3352	31996	-2026	-4824	-4293	-27096	3640	-13248	1304	-6236	-1653	-4472	4240	-9032	661	77	79	-7696	952	14680	360	2601	-2413	-17528	2424	-1576	307	1216	397	-16432	3712	648	791	1869	-357	128	128	1
-32768	2836	32380	-1990	-4789	-4465	-32768	2448	-18040	1616	-6277	-1359	-5504	-2984	-3680	835	106	-159	-8592	1440	14552	541	3153	-3443	-17624	2624	-176	200	1297	389	-17096	1112	544	363	1760	-231	128	138	1
-32768	11820	27788	-2240	-4455	-4054	-32768	3232	-22464	1579	-5993	-855	-12336	-7248	-112	666	-241	-668	-7256	-48	14968	-240	4392	-3751	-18448	-1944	-824	111	1492	404	-18768	1896	3320	-26	1426	-106	128	151	1
-32768	14128	13264	-1844	-3813	-3095	-28984	2552	-25984	1402	-5256	-546	-27696	-4896	11768	1175	-470	-1035	-7488	600	15264	-299	7301	-4389	-21888	648	-1160	226	1745	414	-19816	176	3200	621	1318	39	139	142	1
-32768	26544	-1876	-1202	-2856	-2002	-21368	6248	-32768	1194	-4054	-724	-28408	2128	32767	2229	124	-948	-7688	264	15032	-366	11636	-5088	-22352	-760	-1744	4	1922	422	-20248	-208	3720	668	1316	27	162	145	1
-32768	32767	-22248	-3311	-1907	-638	-6184	10104	-32768	-1919	-1105	-417	-17368	-1280	32767	1711	-224	204	-7976	256	14832	-1698	17075	-5039	-22336	-1448	-1272	-121	2181	369	-20000	4496	1704	977	1213	-360	184	142	1
-32768	32767	-32768	-697	324	1484	-1288	-2368	-32768	-2717	1610	42	-21848	11544	22976	759	528	1612	-10296	-264	14848	-4996	22136	-4559	-21992	464	-8	-195	2419	346	-21224	8040	3472	703	908	-561	161	173	1
-32768	25412	-14676	1813	2148	3788	-21664	-6944	-19712	-1709	3025	609	-16056	9424	3264	-1422	424	821	-9952	1872	15368	-10839	25976	-4333	-25808	2008	3176	-213	2656	252	-23464	8088	5600	692	454	-720	114	155	1
12160	-32768	27124	2502	2063	2877	-32768	-11224	32767	-132	1958	453	-14032	-5120	-952	-3550	30	-57	-11648	3048	18776	-16786	32767	-7799	-29952	1616	7360	252	2762	343	-24216	7776	6344	671	322	-734	117	159	1
-9728	-10984	-3740	2987	5454	1493	-32768	15024	-1232	3272	2339	338	-19304	-7672	-2744	-678	-129	-1345	-12400	3784	18216	-24055	32767	-13127	-32768	320	11464	1169	2890	391	-29544	8288	20920	555	-1882	-733	101	155	1
-32160	32767	32767	1862	4287	1306	-23816	12664	-16776	2202	3129	913	-23312	-8040	19496	2606	-365	-1864	-25864	2000	32767	-30934	32767	-21559	-32768	1536	9864	2753	3254	427	-27056	4256	22600	1817	-3534	-347	135	0	1
-32768	-32768	19128	858	2744	826	-20224	1744	-13736	19	3306	1009	-24112	26856	-15944	-967	1640	-890	-26592	2064	32767	-21682	32767	-21870	-32624	8056	5800	3487	3343	689	-19240	576	2488	1685	-2617	-6	140	0	1
-16076	22908	32767	1851	1060	825	-12440	-2240	-18552	1218	2826	-371	-6760	8040	-25248	-4507	123	49	-25696	808	32767	-11123	32767	-16722	-32768	8664	5568	1600	2920	607	-22144	-920	2760	1698	-2363	17	129	47	1
-16444	-13620	13588	1331	245	328	-15552	1552	-12616	200	2396	175	-4576	-25048	-16352	-3560	336	1143	-30120	1216	29544	-3587	32767	-19606	-28232	4832	3176	35	2555	369	-30336	-1568	-12704	1036	-1598	1288	126	214	1
-11304	-5080	14820	821	-8	226	-12960	-2816	-9832	109	2175	251	-22928	-24448	-16160	1152	1818	-257	-32768	18080	32767	-7013	23452	-20594	-18440	6416	-25072	-923	2191	779	-27928	-3280	-8672	228	-2599	1416	132	243	1
-8228	-3556	14592	477	-23	171	-21048	2048	-6296	-512	1541	-63	-24928	5536	-9384	2060	2247	-219	-13648	31136	32767	-1458	-4969	1978	-24664	-1568	2064	971	1612	-301	-31528	-5832	-3976	-498	-3065	1645	131	228	1
-7868	-2416	14336	330	54	130	-18184	3416	-5888	-436	1179	-29	-19472	7672	-3280	158	2048	327	3608	10640	14440	-7294	-6085	11426	-18704	-1096	7496	353	335	348	-27104	-5136	-5992	66	-2865	1743	137	217	1
-7204	-2136	14168	193	167	16	-17400	1272	-3888	260	762	197	-15784	240	-1872	-371	2091	834	1136	864	24800	-271	-5391	11631	-8816	1032	-1584	463	-348	-109	-26880	-3968	-7080	257	-2877	1770	134	205	1
-7680	-2952	13824	176	210	-40	-17776	1568	-5112	744	613	35	-16672	880	-1936	-21	2284	1002	-3376	72	30896	4324	-14812	7841	-6720	3312	-3080	450	-1189	17	-24024	-96	-6016	-855	-3547	1353	129	192	1
-7724	-2788	13736	153	209	-84	-15904	376	-3904	507	607	46	-14512	1432	-1960	-72	2347	795	-2080	-728	24688	7951	-24955	4692	-8600	2128	-392	164	-1938	100	-20328	-3568	-5744	-363	-2882	1414	138	180	1
-7896	-3012	13780	96	214	-92	-15664	-896	-2080	346	561	39	-15296	1472	-1504	-453	2387	393	-4024	112	20344	12252	-30830	3140	-8408	1168	-776	-324	-2675	-38	-16376	-4256	-6376	-51	-2566	1307	120	173	1
-7744	-3312	13456	69	189	-47	-15344	-104	-1048	-153	574	-15	-14800	-272	-1144	-873	2571	278	-7648	632	20192	14239	-32768	3016	-7912	608	-2520	-683	-3336	-5	-15464	-2240	-7256	170	-2384	1250	112	166	1
-7528	-3504	13440	62	194	40	-15568	-1144	-872	-693	608	-64	-13536	-1880	-1080	-587	2742	365	-9088	-24	17560	15952	-32768	4500	-9080	-1328	-2064	-837	-3783	-132	-12400	-2096	-8296	344	-2114	1138	128	159	1
-7816	-3124	13572	72	213	107	-16888	-2488	-2152	-653	569	-112	-11776	-2328	1936	-17	3393	395	-11088	256	16320	16463	-32768	6440	-11000	-1456	-2336	-899	-4274	-214	-11584	-1048	-9736	290	-1916	1073	118	156	1
-8032	-2032	13800	129	137	120	-15544	-1320	-1688	-231	607	3	-15224	-2648	6488	-505	3491	390	-11496	216	16560	16427	-32768	6747	-11448	200	-3760	-1180	-4811	-297	-8696	-1528	-10440	-80	-1728	848	126	152	1
-8208	-2152	13596	193	25	117	-14704	-320	-1896	-173	672	16	-15016	-5448	-1040	-1322	2816	460	-14616	16	19800	17359	-32768	8967	-13024	-1128	-4296	-2271	-5323	-518	-6344	-2896	-11648	-705	-1563	634	120	151	1
-8044	-2488	13448	231	-93	126	-12992	-496	-968	-308	866	11	-16664	456	-7144	-444	2016	-42	-19408	4616	15752	26410	-32768	23091	-15432	-3984	-4856	-3145	-5621	-1186	-6184	-4384	-13376	-1325	-1248	481	127	144	1
-7312	-2328	14000	303	-148	208	-15352	-2016	176	204	970	33	-18056	-1408	-2408	986	1145	-70	-26472	1088	23280	28490	-32768	31367	-22160	-1304	-9280	-1907	-5728	-1457	-5936	-5184	-14000	-1399	-1211	440	136	103	1
-7788	-2956	13524	301	-87	279	-18184	-1728	-2632	453	1050	58	-17136	-7512	6032	188	1389	148	-31080	-1856	29216	21368	-32768	32767	-24984	6600	-9744	-1336	-5941	-1275	-5208	-8096	-8304	-1431	-900	22	130	93	1
-7676	-2576	13792	293	7	329	-17576	720	-2784	332	1105	110	-17176	-7616	5576	-25	1402	104	-32768	-560	32767	16240	-32768	32767	-32768	6048	-15536	-2697	-6061	-1528	-6096	-2432	-2296	-1381	-915	132	131	94	1
-7488	-2816	13944	289	122	394	-16528	-328	-1368	-28	1279	75	-15648	360	-2272	-178	1272	186	-32768	-6736	32767	12046	-32768	32767	-31528	7080	-19056	-2132	-5709	-2389	-9472	7616	-896	-1246	-1083	403	130	97	1
-8496	-2620	13460	286	245	492	-18032	-2176	-1952	10	1452	88	-18688	-2032	1960	-62	1423	110	-32768	-15280	22176	8158	-32768	30813	-30584	8896	-18832	-1590	-5053	-2640	-17592	9840	3968	-1345	-504	863	133	109	1
-7452	-1736	14112	446	431	516	-20232	1352	-2120	112	1661	234	-20392	-4888	2680	-574	986	-5	-32768	-15064	8944	-1971	-32768	17884	-29304	7784	-20648	-248	-4449	-2204	-19856	7352	16792	-3505	187	1711	133	137	1
-7684	-1584	14324	469	679	525	-21168	264	-1440	-10	1905	378	-19952	-2480	1456	-770	848	-1	-32768	-27272	-8848	3541	-32768	-1998	-19064	16728	-28608	1340	-3463	-1042	-13712	-6616	32767	-4218	432	1298	132	149	1
-9888	-1896	14788	470	1082	631	-21048	1088	-1368	-133	2138	352	-19544	-16	4256	-864	790	110	-32768	-32768	-32768	23826	-20548	-23519	-6704	12096	-32768	2467	-786	653	-17224	-6080	32767	-2316	-791	-1232	133	156	1
-8184	-1132	14092	718	1642	656	-19768	2120	-2080	-162	2346	463	-17608	-2984	2568	-818	714	231	-32768	-13496	-32768	-3231	3068	-23934	-4640	11336	-32768	2416	-263	851	-17584	-8360	18960	732	632	-1839	124	140	1
-8720	-584	14008	1019	2374	581	-21880	768	-2072	5	2558	632	-20304	-7912	3032	-1115	721	261	-32768	-22776	-752	-21020	19158	-23758	-15384	10448	-5424	1230	2486	648	-11264	-6528	7120	2768	857	258	117	50	1
-9848	-2864	14836	1213	3134	794	-25952	848	936	-83	2700	681	-22840	-4624	5624	-1207	313	443	17704	32767	32767	-22529	24715	-17324	-32768	-3720	28736	-1924	1874	626	-13496	1240	30376	3239	150	-128	126	115	1
-11072	-3360	14408	1240	4195	1370	-29728	2168	4448	-959	2836	519	-25640	656	10416	-642	-151	723	-20232	4272	10864	-30759	32767	-3944	-32768	1072	-4016	-2766	2568	1761	-32768	28528	-3768	2986	1990	317	121	146	1
-11664	-3876	16492	1695	5669	1975	-32768	1928	8816	-2166	2828	636	-27400	-3688	17496	-666	-1205	696	-29280	-28664	32767	-17927	30149	231	-32768	-3568	-17312	-3907	3265	895	-26072	288	7088	-5222	-265	486	109	0	1
-24236	-5420	32767	2584	7315	2754	-32768	1056	11232	-2446	2800	743	-27376	-2208	21144	-1655	-3217	644	-8488	-3984	20440	-6949	23268	-2347	-15424	-7872	-10168	-2989	2832	1023	-12568	-28136	-24720	28	601	2151	108	0	1
-27016	-3636	32767	1518	8415	3230	-32232	-10056	-2648	-2757	3631	1025	-19184	-6336	-6168	-2327	-2444	-49	-18064	3640	32767	-4543	21516	481	-6784	8288	-6648	1252	2334	1261	-1184	-13056	-10840	3178	787	1898	111	72	1
-26512	-14288	32767	456	8103	4040	-32768	-9256	-5080	-2510	3595	1414	-29232	-8152	-6808	-1196	-1842	-174	-17656	560	22432	-801	11512	-823	-20736	14424	-12384	1030	1471	1680	-26104	28944	-21600	3212	1309	-867	119	222	1
-1548	-25368	18076	272	5379	3924	-25696	-7456	-4616	300	2896	1205	-30552	-1760	-13264	-275	-2067	-1124	-15320	3848	19248	32	7000	-1470	-25016	3736	-9976	515	1462	1049	-23680	4624	-13064	-1512	2097	19	120	223	1
-32768	-32768	32767	813	1808	1565	-20584	1032	-11384	1731	2002	647	-30040	-2048	-12448	1102	-2506	-1395	-8168	-1928	18112	-248	2955	-1064	-14856	7528	-6000	-485	1120	427	-24496	-2208	-7856	-1054	1468	59	120	157	1
-8884	-26312	28232	1470	-269	-167	-20880	-1832	-1288	521	1081	471	-30720	-472	-10768	630	-3236	-1232	-6744	128	15720	347	1704	-674	-19216	-2656	-4616	-741	691	269	-15864	-2064	-1936	-484	1577	-317	121	147	1
-336	-13412	18396	779	-401	-954	-16464	2632	-424	570	4	138	-27536	2656	-5864	850	-3501	-1225	-7696	192	15640	1237	2001	97	-18744	-2592	-5728	919	521	519	-16456	-2648	-1584	-32	1789	-869	110	149	1
