#Activity	walking 
#ActivityID	1 
#Date 10-10-18-14
acc_rf_x	acc_rf_y	acc_rf_z	gyro_rf_x	gyro_rf_y	gyro_rf_z	acc_rs_x	acc_rs_y	acc_rs_z	gyro_rs_x	gyro_rs_y	gyro_rs_z	acc_rt_x	acc_rt_y	acc_rt_z	gyro_rt_x	gyro_rt_y	gyro_rt_z	acc_lf_x	acc_lf_y	acc_lf_z	gyro_lf_x	gyro_lf_y	gyro_lf_z	acc_ls_x	acc_ls_y	acc_ls_z	gyro_ls_x	gyro_ls_y	gyro_ls_z	acc_lt_x	acc_lt_y	acc_lt_z	gyro_lt_x	gyro_lt_y	gyro_lt_z	EMG_r	EMG_l	act
-32768	21092	32767	10038	31482	23511	-3544	19072	-5872	32767	16251	534	-32768	-19644	4364	11476	8136	-10711	-24608	9120	14540	9349	32767	-22423	-32768	7816	12640	32767	20498	-8501	-21332	-7696	14456	7725	-20013	-3300	90	103	1
-32768	-32352	15364	9469	8999	23827	-32768	6332	-10680	1142	23759	6411	-32768	15172	-11808	17094	11717	-286	-32768	21928	24624	22328	32767	-24895	-28544	16668	-3428	32412	22690	-8922	-24912	10600	-3720	12686	-20936	2232	60	92	1
-13472	22164	29160	14617	503	16829	-19672	-768	-11524	4885	16916	-3963	-17436	8240	-16548	-8697	10105	7586	-32768	17576	32767	27541	32767	-30808	-26184	9604	-12956	12909	20956	-11835	-28468	11048	-10480	7832	-21589	5204	173	105	1
-13516	-17764	7752	8205	422	6276	-14384	264	-10520	4032	18151	-1933	-3444	-11424	-13960	-2113	9671	10273	29312	28204	23004	30708	21127	-29065	-27260	-3568	-14632	-4579	20053	-9752	-32768	2436	-11908	-4365	-23592	6789	140	98	1
-13292	-4568	10676	4396	852	2977	-12740	-3724	-12320	471	13767	3851	-13736	-7140	-12072	14399	13219	1209	-32768	32767	32767	13319	-13420	-7150	-17092	-11996	-21916	-8480	10759	-5243	-30972	-6304	-6448	-16227	-29982	7442	134	55	1
-10540	-3696	12452	2573	494	2796	-11556	-3832	-9040	596	8971	1971	-18612	7708	-10340	12230	14585	2566	6144	32767	16004	-19578	-24940	156	-13956	-7040	-3884	22905	-484	1150	-25736	-3840	-5396	-2864	-31349	7181	140	173	1
-10496	-3724	12020	708	1258	2019	-27304	-272	-6452	1827	8067	-273	-16080	4820	-6132	1611	14939	4461	7548	4040	13952	-11163	-20998	5193	-10792	4660	-4168	22030	-7436	9623	-19360	184	-7504	8418	-24709	10748	147	195	1
-11180	-3624	11704	-537	1531	1339	-18756	1556	-3840	-3404	5748	2765	-17448	2992	-5452	-3525	15363	5597	2260	5896	14524	14811	-21298	19158	-1300	1876	-5904	-4162	-10721	14761	-19108	-276	-9076	7867	-22632	10048	166	198	1
-12000	-4192	10992	-646	1105	1122	-13856	-380	-2892	-6836	4572	685	-14512	1004	-3732	-7045	16433	6080	-4140	19124	13608	11891	-26069	20759	-3964	-3168	-5516	-14110	-15156	19039	-15068	-3056	-9448	5264	-19574	7485	186	183	1
-10488	-5000	10380	-180	803	1413	-13780	-5372	-444	-5015	3850	845	-14240	-2604	-2204	-4906	18336	6661	-8840	8252	15460	4509	-32768	21217	-4364	-5988	-7124	-13556	-20851	24402	-10536	-2136	-9884	5562	-16760	6172	137	139	1
-10356	-4404	10148	328	245	2286	-16056	-4256	388	-699	5077	793	-12816	-2884	212	2211	19849	5342	-7920	1840	15040	10609	-32768	26788	-5960	-6896	-5340	-10533	-25435	27561	-6568	-2224	-10604	6761	-11849	5624	125	146	1
-10036	-4180	10464	486	127	2342	-15440	-824	1268	-2007	5161	1722	-14228	-2308	892	7526	19667	2662	-8008	1836	15060	11530	-32768	27428	-8108	-5988	-6248	-9250	-29957	28419	-4056	-1916	-10388	6785	-6900	4133	141	142	1
-11296	-3224	10920	437	275	2496	-13712	924	60	-6026	6085	655	-16868	-2976	-796	582	16424	4520	-15668	1452	20972	12413	-32768	30339	-8664	-6328	-8100	-12836	-32768	28251	-4416	-1420	-11300	5456	-2941	2386	148	147	1
-10492	-3660	10876	257	120	1920	-14392	-1224	864	-7610	7713	1350	-18152	-3028	-2896	-2871	14397	6523	-22900	3284	25532	13175	-32768	31725	-12660	-6864	-10352	-16364	-32768	26959	-4596	-928	-12096	-2833	-169	2071	145	150	1
-12464	-4492	11300	119	756	2068	-14828	-1880	800	-7231	7958	1453	-18200	-420	-1792	7433	12712	5441	-32568	4816	27844	11787	-32768	32078	-17948	-7764	-12180	-13699	-32768	25152	-4880	-728	-12280	-4322	146	2140	135	183	1
-12348	-4344	11816	-92	1669	2189	-16476	-3388	780	4970	10722	2326	-18152	620	1112	5547	12350	2885	-32768	1944	26040	9823	-32768	31586	-21520	-6220	-13132	-9116	-32768	23925	-4688	-184	-9884	-11904	1004	4080	133	224	1
-10988	-3776	11948	-1207	2633	2794	-16952	336	216	3763	11658	2607	-16696	2768	2128	-1410	13517	1928	-32768	-5432	18744	8910	-32768	28883	-25348	-9568	-14524	-6379	-32768	20785	-9340	4180	-3384	-12965	-2001	7774	125	164	1
-11052	-4568	11820	-1007	4388	3821	-16772	1256	3212	-4537	12809	2405	-17984	4092	4116	-4349	12373	324	-32768	-11560	7516	6980	-32768	23347	-24392	-9308	-12916	2603	-32768	17549	-11428	4312	-2072	-13304	-2853	9685	128	97	1
-10240	-2760	13616	639	7619	3997	-16092	-332	3708	-9325	14798	3121	-18012	3768	4276	-4706	12036	80	-32768	-18752	-13988	3856	-32517	11803	-18732	-7888	-8992	7366	-25104	15235	-30544	6264	28840	-7356	-7550	12839	139	253	1
-11140	-4540	14216	1284	10992	5274	-18440	-1944	1600	-8833	17447	4607	-20256	-2896	-872	-9053	4746	329	-32768	-30928	-29580	12515	-16360	3202	-7640	-1160	-11052	1661	-9384	10207	-14200	3536	32767	1358	11368	-1895	139	253	1
-11168	-4748	14968	2819	15718	6802	-20524	-2768	-440	-3746	19317	4618	-19592	-5020	-1744	-7420	2778	3148	-32768	-20384	-32416	4222	1804	-1909	-6772	-1172	-7212	-1232	10150	-3419	-20644	-5832	20112	4828	-19	-11281	142	179	1
-10364	-5888	14628	4419	21817	10009	-21112	-1864	-1248	-1298	20841	5826	-20368	-4032	-1024	-4264	-1740	3821	13820	-5136	-1656	-30388	27807	-15665	-13216	-72	-8080	3135	25279	-13451	-23488	3324	12508	-331	-1931	-5798	142	101	1
-10428	-6976	15800	5467	31528	15455	-22212	0	380	-268	22059	5999	-23332	-2260	3596	-4252	-7883	4918	2624	25208	27012	-18661	20059	-7247	-32768	15108	24916	7830	12503	-5409	-4860	-444	-11720	23609	17358	104	137	97	1
-9436	-6584	19836	5262	32767	22561	-30752	1192	2664	-2928	22931	5755	-24252	-2484	4376	-4103	-9505	5104	-132	-21196	5968	-10843	32767	-10332	-12916	-11432	-7492	-24836	13873	-1945	-19916	-7496	1968	10073	9164	1099	137	53	1
-13668	-15596	15468	2274	32767	29107	-32768	7224	19252	-19954	21140	7214	-25976	10064	14860	-1890	-18133	7790	-32768	-6584	27672	-6212	18732	-19254	-21740	-15008	-12572	-6576	21014	-18246	-23056	-1396	6456	1874	7314	3591	129	71	1
-32516	-16440	16380	10804	32767	32767	-25880	-8256	10088	-32768	19750	6079	-23816	4132	10712	-8350	-17109	6058	-14540	23464	4804	-18478	5333	-14355	-29960	-1644	-17004	2517	16660	-6350	-26936	-21728	-9008	4741	16189	-2703	135	177	1
-32768	-4808	17540	1398	32767	32767	-25592	-24976	-4748	-21511	22363	7899	-24768	-18248	-7844	-14516	-16876	-1002	-17956	7156	14996	-9256	585	-5275	-15156	-6016	-15924	-9546	18529	-4178	-8816	7564	-12952	12689	8791	361	147	81	1
-32768	-28868	22872	4591	32767	32767	-25704	-23736	-7212	-16405	23270	8612	-30364	-11940	-12364	2168	-20071	-7864	-10668	-2380	18084	-5497	-1175	-3586	-15964	-1656	-12392	-6273	14423	-6151	-10516	13840	-12232	-2912	12402	-2682	148	129	1
30084	-30984	15356	4078	25685	32767	-23096	-6972	-16464	13463	14139	3439	-32404	2620	-8492	11649	-21797	-5963	-9516	3592	14968	-3033	-520	-2551	-14860	-668	-9924	1188	8455	-3978	-17804	2848	-10068	-9580	13235	-4265	128	115	1
-32768	-32556	23172	-5165	-10085	-4477	-13224	-716	-25712	14300	8207	3136	-25604	1324	-9868	14347	-22145	-7464	-9148	3284	14624	-1577	848	-1922	-22052	-1040	-8204	4848	6873	-2705	-17936	-5556	-4508	663	13804	-2762	122	100	1
-7004	-31072	12788	9635	-29351	-14987	-12268	5256	-5024	-7542	-2819	23	-24616	1884	-8300	2211	-22396	-8296	-9184	3272	14400	-306	2222	-1354	-19488	-2184	-3820	10491	4591	-3296	-18044	-1360	-2232	9652	15233	-3511	122	92	1
904	-8792	8408	10313	-28084	-13288	-9612	-6632	-9280	-14724	-11829	-3537	-19108	-2188	-10904	-5603	-20344	-8682	-9148	3792	13784	712	2904	-1008	-16552	2720	-2924	9668	3810	-1765	-14928	2068	-1940	12250	15703	-5151	127	110	1
-3144	-4380	7444	-4106	-25261	-20815	-3224	-9276	-10704	9158	-17410	-5697	-16212	-420	-11968	-3458	-18076	-10024	-9440	4744	13132	1013	2672	-917	-15516	8548	-2132	596	4466	-1912	-15136	4308	-2228	12016	17044	-5526	120	118	1
-9768	-14160	7600	-7316	-30142	-26292	-1944	-2480	-13376	25548	-22516	-9489	-13732	2516	-12416	-250	-16680	-9252	-9704	4872	13196	893	2556	-805	-15688	3704	-2564	-5679	4918	-2837	-13796	4768	-380	7340	17478	-4612	124	105	1
-10312	-10692	8380	-3298	-32768	-29701	-4072	3564	-9680	22848	-29608	-9962	-9312	1440	-12380	1243	-14990	-8610	-9432	4992	12856	360	2109	-1428	-16188	-308	-2224	2556	3259	-2733	-12864	4560	188	1865	17296	-3863	136	106	1
-10144	-6704	8884	-5178	-32768	-32768	-5104	4040	-10488	14665	-32768	-9374	-6744	1568	-13412	295	-11337	-8805	-9596	4696	12716	186	1202	-1897	-14724	1872	-1756	10678	4196	-2284	-13392	4664	804	-1647	18243	-3485	101	95	1
-14232	-7400	10168	-7458	-32768	-32768	-7304	468	-11108	9507	-32768	-7903	-4856	2412	-14732	-1046	-9263	-9120	-9704	4052	12904	-203	840	-2191	-15596	5652	-588	9475	5585	-2599	-17156	7212	-2288	2782	16114	-4496	143	97	1
-21460	-10420	12324	-5636	-32768	-32768	-7216	-588	-14316	12289	-32768	-8688	-3796	2448	-14212	2182	-3724	-6831	-9632	3932	12856	111	466	-2381	-16424	5256	96	1619	6418	-3442	-16476	4944	-4504	-1995	12453	-2561	150	102	1
-30228	-13496	13948	-1538	-32768	-32768	-9348	728	-13412	15506	-32768	-11121	-3536	1924	-15056	10448	-1974	-5580	-9500	4176	12936	748	274	-3198	-14932	3264	-1320	-4401	8128	-3776	-16676	1328	-1336	-5464	11366	-2406	142	106	1
-32768	-6808	13788	-1535	-32768	-32768	-14488	-1748	-12504	20934	-32768	-10402	-4292	4284	-11776	19147	217	-2724	-9504	4644	13204	793	333	-3333	-15304	3000	-1920	-4637	8171	-3930	-16072	776	340	-1342	12393	-2279	127	114	1
-32768	432	11216	-5319	-32768	-32768	-25528	516	-15068	31408	-32768	-5060	-2972	2524	-5648	22167	-883	-2198	-9952	3896	13208	459	2234	-3995	-17864	-564	-1368	4269	8745	-3372	-16576	456	1344	2011	12284	-1125	119	117	1
-32768	6304	5840	-9088	-31064	-32768	-27004	3128	-15396	17222	-32768	714	-9700	908	-2920	25360	-4078	-6070	-9512	2564	14280	-261	4348	-3403	-16696	2224	3308	9006	10099	-4219	-17636	-460	5120	4325	10886	575	137	113	1
-32768	15980	-2448	-4844	-22339	-32768	-22708	4184	-18068	566	-32768	-960	-29744	-7488	18076	25227	-29209	-17853	-9340	2928	15044	73	7247	-3694	-17344	5544	3788	6461	13136	-6716	-20648	1460	4256	6542	9344	-117	103	122	1
-32768	16472	-25672	-3367	-20669	-20361	-11612	6772	-17924	-12623	-24574	-100	-32768	11216	17240	10521	-4044	-12211	-9836	4044	15108	710	12245	-3905	-19988	2920	772	350	15654	-8549	-21172	8112	1908	9643	6869	-1023	0	118	1
-32768	32767	-29768	-16455	-16593	2010	596	-4048	-12256	-14022	-7701	-7905	-5440	1520	31336	-2760	10399	7319	-8940	3996	15824	1200	18057	-4572	-21368	1296	-744	3897	16455	-8969	-20608	6584	-856	7726	4053	-1394	25	119	1
-32768	21532	-32696	-22173	-5292	5387	-5304	1428	-10568	-8919	11993	-4768	-17028	11036	19580	-10225	5410	8870	-8356	5032	15140	353	25031	-5874	-21680	1544	-940	7423	16399	-9682	-20876	3596	968	7516	643	-1626	108	120	1
-32768	-7716	-10252	19559	7211	10211	-15292	-1592	-6664	-10477	22847	3379	-19480	7620	-592	-13659	8084	5214	-8920	5032	15000	-657	32638	-8877	-22576	1164	432	7007	18212	-10099	-21540	3108	4192	9773	-1433	-2856	134	123	1
6004	-20652	29812	23031	21793	4901	-32768	-2320	20236	-9459	13212	1701	48	2948	-19340	-31729	16582	1489	-11976	6264	16304	-1454	32767	-12495	-27756	1760	3672	9127	19237	-10589	-26152	5696	9140	9742	-6153	-2553	113	127	1
1208	9508	5088	16944	32767	11481	-32768	-7884	21964	-7807	11514	844	-13708	-4124	-956	-12420	10201	-4873	-13172	7164	16052	-409	32767	-19744	-32768	-488	4472	12700	19334	-10187	-31456	3640	22824	7875	-23552	-889	122	122	1
-32768	22540	24400	2638	16281	21277	-7084	10448	-10516	32767	16697	2202	-32768	-22420	3272	22339	11575	-11442	-25820	10356	18044	5754	32767	-25050	-32768	8764	11652	28752	18792	-8295	-25692	-4360	14560	6276	-17860	-4249	63	107	1
-23136	-28288	400	19159	-1597	17611	-32768	-2160	-14640	11854	23038	1759	-27144	12408	-13424	12452	12315	4614	-32768	22916	29068	19832	32767	-27913	-31460	14516	-2444	28666	20047	-9500	-28632	10168	-3416	10739	-21253	1181	89	89	1
-18048	8972	16600	6816	-572	7589	-15408	3672	-18324	19636	20634	-1095	-13392	7228	-9596	-2100	11316	9401	-32768	16012	32767	23889	32767	-32768	-24584	7996	-11304	17412	18234	-8988	-26344	6032	-8960	6432	-22187	3888	167	94	1
-10360	2564	15860	5669	-1501	4259	-12164	2020	-9280	2014	14485	-2093	-3024	-6736	-13832	51	10390	7308	11232	23184	26636	32767	25837	-23014	-24628	-3244	-11308	1265	18141	-9463	-30444	1064	-8944	-4125	-24487	5248	126	87	1
-10880	-5332	11096	3238	-867	2411	-11564	-3916	-10204	-12594	11072	3559	-14528	-7656	-11860	8627	13243	3384	-32768	32767	32767	25741	-9350	-5237	-16600	-14128	-24316	-6294	9655	-5594	-27396	-5540	-6076	-11477	-31153	4880	142	61	1
-10444	-4332	11540	2085	132	3228	-16268	-7240	-8352	-5999	8258	686	-17932	6324	-9476	9907	15306	800	1428	32767	15456	-14368	-25963	3205	-11200	-8032	-2736	28377	520	758	-21312	-6420	-5124	-1498	-29982	5475	146	128	1
-10572	-3904	11828	840	571	2594	-26240	1608	-5300	-1831	6398	226	-17088	9748	-5708	-2289	17030	2396	4844	5256	12396	-15591	-22525	3063	-10868	6128	-4820	28212	-4680	8568	-21144	1652	-7964	8788	-24594	8830	162	170	1
-9344	-3452	12268	-10	1127	1451	-17284	1992	-3880	-964	5405	2040	-18024	4484	-5508	-9555	18094	6417	2764	1112	13136	9266	-22568	15417	20	6876	-3552	-4820	-8392	13981	-17876	1004	-7884	7768	-22985	9584	164	191	1
-10992	-3948	11872	-624	1673	900	-14492	556	-1500	-3063	5426	231	-15200	-844	-1780	-6810	20693	7063	-672	17076	12308	12363	-25384	18605	-4092	-2688	-5340	-19544	-10412	16739	-15576	-1708	-8888	4551	-21051	7787	164	179	1
-12140	-4500	10972	-710	1982	880	-16264	-5872	-652	-479	4226	1072	-15408	-1368	-1440	-5730	21252	6890	-6628	11996	14244	3334	-30407	18552	-6068	-7288	-5800	-17250	-17651	21720	-11176	-1548	-9264	4587	-18665	6619	128	157	1
-9792	-6244	10248	-627	1839	1997	-14280	-2272	2032	-1012	5458	-315	-13292	-3572	-1824	9172	19886	3344	-6928	3868	14840	7437	-32768	25500	-6200	-7608	-6708	-11349	-23537	24244	-7208	-1736	-10416	5603	-13722	5734	125	148	1
-9388	-3832	10072	-235	1059	2792	-13756	-2160	-1104	-5651	6107	1137	-16156	-3660	-1224	2765	14665	1152	-8312	4848	15056	10832	-32768	30285	-6908	-6592	-6104	-6334	-28563	25447	-7604	-1356	-10580	7185	-8734	4106	144	148	1
-10516	-3456	10716	-105	948	2539	-14356	-1704	-152	-6073	7007	698	-16972	-3016	-2548	-2037	13517	2867	-13960	4996	19068	9215	-32768	31814	-7836	-5132	-8112	-8848	-32768	27359	-6796	-872	-12104	8379	-2945	2405	161	139	1
-10396	-4636	11336	-138	1043	2728	-14788	-1800	-108	-5753	7183	829	-17816	-2252	-2584	2421	15025	4491	-21508	6016	24040	9650	-32768	32767	-10816	-4828	-11524	-15157	-32768	27702	-6568	-1136	-14248	3664	1364	1955	153	156	1
-11716	-4832	11956	165	2016	3551	-17736	-3020	-820	877	8826	1433	-17236	-1584	-3164	1969	14569	4474	-31208	11260	27940	7667	-32768	32767	-17068	-6828	-16124	-20149	-32768	26635	-5276	-156	-15364	-4240	3143	2628	131	176	1
-10656	-2824	12136	-490	3478	4084	-17492	-212	-776	-790	9422	1635	-16984	3512	-1848	-2486	13545	2680	-32768	8800	27056	5013	-32768	32767	-23228	-3200	-14184	-16644	-32768	23695	-5192	1232	-13888	-14102	1748	3828	114	215	1
-10504	-1744	13144	7	5728	3596	-17324	36	-428	-1530	9531	1566	-18200	5424	992	-3975	12220	1003	-32768	2084	20508	2143	-32768	32767	-23764	-3456	-14512	-16810	-32768	23593	-5808	1876	-12976	-15146	1814	4212	133	182	1
-11800	-2000	12452	-560	8052	3023	-17036	760	2952	-10669	11962	3310	-19344	948	2440	-6769	11185	23	-32768	-6068	8792	704	-32768	31179	-27132	-8648	-15276	-11561	-32768	15397	-17848	2684	5044	-29828	-8019	15564	136	118	1
-11080	-3024	12724	-753	11052	2493	-16844	-2532	1692	-7561	14601	4105	-18416	-2940	-1380	-6037	8540	1056	-32768	-10708	-16844	-4566	-32768	20040	-16480	-13332	-11236	3	-27955	12968	-28728	3256	31752	-32068	-13260	12405	143	224	1
-11156	-4840	13520	206	14573	3826	-18592	-896	388	-5080	16367	5136	-18296	-2632	-472	-7404	6961	2409	-32768	-32768	-31372	12146	-15077	9783	-7784	1068	-15908	688	-9404	16135	-17324	-2816	32767	-5224	15914	-1505	134	253	1
-11124	-5460	12664	1877	18821	6640	-18200	-1596	2172	-5527	17939	5659	-19184	-2344	212	-6166	4143	3708	-32768	-19092	-32768	5513	460	2906	-2952	156	-7792	-4479	10300	-483	-18016	-14356	21920	522	1617	-14659	124	206	1
-10928	-6600	12564	3718	24355	10238	-17072	-3972	1668	-1950	19982	6113	-20172	-4020	1068	-5472	-433	3801	30336	-24272	-7880	-23263	25696	-12909	-8980	2084	-8676	-304	26221	-12744	-23548	5852	12196	3368	-5134	-6916	135	97	1
-11928	-7572	13892	4312	30794	15431	-21080	-1848	1660	-977	21701	6084	-23228	-4604	3420	-4574	-6340	5007	-3664	5524	15144	-10569	22179	-9575	-32768	5564	20696	-2948	12401	-2728	-7560	-184	-5660	20626	14474	117	142	83	1
-12744	-8664	16024	4432	32767	22586	-31520	1016	5112	-6256	22056	5970	-29440	-3540	12368	-5976	-17677	4171	-17088	-15064	19436	-5807	32767	-10257	-6744	-9116	-520	-16673	16949	-3566	-22240	-7868	10468	9818	5408	6297	142	34	1
-18620	-14632	10900	3522	32767	30257	-32768	2312	15824	-25791	21185	6171	-23516	8204	17152	-7005	-19966	4124	-32768	-5780	24428	-5303	16592	-17944	-23892	-8636	-16564	-7465	24794	-15777	-21928	9952	-10460	1393	1718	5896	133	90	1
-32768	-13136	13752	11537	32767	32767	-26208	-12980	8452	-32768	22071	5825	-27928	304	8076	-11564	-17370	3407	-11796	10428	13528	-15225	4473	-13067	-27816	-2552	-14760	-4292	14824	-3407	-23608	-8608	-20460	11771	9538	79	138	137	1
-32768	-20568	22076	-3150	32767	32767	-27268	-20568	-5960	-11299	26875	7650	-24856	-19160	-9476	-8403	-17594	-4218	-13912	15172	11388	-8832	1825	-5198	-13064	-3848	-17132	-6098	20357	-4446	-9564	10068	-13052	7844	9318	-2037	146	68	1
-32768	-23492	22968	409	30696	32767	-28732	-2716	-7636	1593	19756	3656	-32020	-4976	-10640	5599	-20259	-8134	-11412	224	16968	-7317	-845	-4668	-15680	-916	-13552	-1539	13160	-3981	-11700	17196	-13112	-8915	12755	-2678	141	104	1
16216	-22404	13404	1504	32767	32767	-22332	-4556	-12484	8517	14592	2222	-31232	3736	-10524	13467	-22110	-6785	-8856	3864	14920	-4845	-859	-3664	-16032	288	-10268	1074	10073	-5044	-20920	-3752	-9224	-12663	13908	-2572	133	86	1
-32768	-28860	20624	-3253	-2357	-7121	-14080	1704	-24664	7926	8001	1786	-25652	4584	-9548	12701	-23366	-7260	-8932	3032	14632	-3017	512	-2913	-22288	-5316	-6884	4019	7034	-2856	-18520	-7896	-2612	-233	13672	-1365	123	70	1
-7088	-26736	13960	10127	-21006	-20788	-13012	7236	-4732	-12448	-118	-1119	-24832	3740	-7956	759	-23264	-8302	-8888	2928	14648	-1202	2036	-1936	-18956	-3052	-4232	8834	5280	-2580	-17108	-4108	-1668	9109	14284	-3465	124	77	1
-24	-7660	9996	11301	-21575	-18540	-10464	-6172	-10648	-15184	-9128	-3604	-19248	-200	-10696	-5480	-22663	-9105	-9664	3548	13652	-91	2559	-1355	-15680	1664	-4368	6502	4990	-1013	-15784	124	-2836	13488	16126	-4343	125	102	1
-2784	-1560	8868	-2283	-20775	-21788	-3152	-8668	-8688	10245	-14471	-5102	-18340	1004	-11520	-3336	-19198	-11583	-9600	4040	13336	278	2207	-1085	-16024	6332	-3796	-2152	5417	-1232	-14664	3600	-2736	13512	16802	-4456	119	113	1
-8124	-11336	8940	-7016	-26354	-24443	-2480	-720	-12348	26495	-19683	-10655	-14928	3216	-11612	-1040	-18278	-11194	-9248	4560	13300	289	1959	-1041	-16684	2028	-3284	-5412	4535	-1864	-14012	6340	-2616	9467	17936	-3975	123	114	1
-8272	-9504	9884	-2498	-32124	-25164	-5140	5056	-8248	25074	-26571	-11451	-11452	3220	-11976	-704	-17989	-8933	-8732	4632	12596	71	1685	-1334	-15268	-868	-3272	2346	3922	-2137	-14352	5932	-2284	3306	17687	-4730	128	103	1
-9344	-4608	10628	-4780	-32768	-29468	-5140	6964	-11552	16094	-32768	-11698	-8112	3208	-12784	-2902	-14621	-8146	-9200	3888	12976	-67	974	-2062	-15268	1732	-2572	9815	3352	-1103	-13584	5692	244	-600	18213	-5101	136	97	1
-12420	-4520	11988	-9386	-32768	-32768	-6228	4088	-11268	8328	-32768	-9610	-6524	3740	-14004	-5629	-11789	-8098	-9288	4012	13280	-323	1057	-1817	-16740	5904	-480	7407	4826	-1966	-15056	5424	1152	-3900	19916	-4594	136	98	1
-17184	-7176	13572	-9299	-32768	-32768	-6748	2332	-12192	7102	-32768	-9528	-4248	3448	-13948	-5642	-6386	-5725	-9288	3960	13092	-97	1006	-2059	-16596	4968	572	-892	5738	-2481	-17740	4004	-2172	-2885	15169	-4155	140	103	1
-24260	-10800	15916	-6218	-32768	-32768	-7988	1856	-16648	8604	-32768	-12048	-3848	3268	-12984	-56	-3679	-4969	-9052	3788	13344	733	996	-2464	-14760	1780	-500	-5223	7001	-3342	-16036	1340	-2324	-4184	12669	-2169	135	110	1
-32768	-4504	16016	-3808	-32768	-32768	-11092	1212	-7388	8590	-32768	-12648	-2680	1504	-13392	9724	-204	-1983	-9204	3904	13472	993	1534	-3241	-16176	1140	-1012	-1988	7811	-2878	-17568	468	376	-4054	11428	-2028	128	125	1
-32768	-3436	15356	-6887	-32768	-32768	-18524	-3832	-14924	19017	-32768	-10435	-2472	2260	-8584	14784	2333	-4277	-9952	4240	13600	864	2762	-3840	-18320	16	-2128	3474	8804	-2615	-17780	588	2100	604	12293	-774	117	122	1
-32768	7000	8576	-10220	-32768	-32768	-27332	3356	-17876	24569	-32768	-3269	-3632	388	-5224	17743	-1845	-4676	-9004	2792	14700	240	4882	-4041	-18772	1272	684	8313	9532	-3093	-17888	-632	3444	5273	11674	1046	124	114	1
-32768	16332	1868	-9913	-29982	-32768	-26596	-2096	-14224	10304	-32768	307	-22084	-4828	12612	25856	-18959	-10634	-9352	3356	14756	674	7893	-3785	-17292	2724	4740	8892	11614	-5339	-18772	708	5140	7095	9950	497	118	122	1
-32768	20864	-17500	-2127	-21106	-27303	-17528	8720	-10192	-10960	-28770	2318	-32768	-4804	17964	10147	-19174	-18231	-9496	2396	15596	1115	12528	-3683	-18360	5280	2636	3422	14507	-7423	-21672	7624	3788	8399	8539	-852	5	119	1
-32768	29556	-32768	-2270	-20581	85	-2884	3656	-18944	-11752	-13633	-3309	-12004	-2212	26180	984	15008	147	-8800	4208	16144	1058	17904	-4145	-21324	2348	1868	3258	16519	-8924	-20948	8260	2276	9206	5104	-1306	1	122	1
-32768	32767	-32768	-22809	-7161	3487	492	404	-3956	-6323	6264	-7269	-5960	6696	30344	-86	7469	12359	-8620	4700	15260	476	24211	-5382	-20428	3392	2120	6696	17258	-9177	-20928	7716	2324	8475	4475	-1432	110	121	1
17100	-32768	4280	16152	3375	-3747	-12196	844	-15028	-5844	23562	2461	-26220	13500	6480	-1890	12058	12573	-9428	5888	14728	-449	31686	-8574	-21260	1560	2632	6737	19388	-10540	-21480	3024	7028	10398	-3267	-1811	128	123	1
-6344	-27944	30608	20078	18507	7300	-31760	-3180	22012	-13855	11012	3519	-1564	7604	-20848	-26752	18420	6628	-11420	6060	16356	-1293	32767	-13502	-28676	1860	4584	9802	21640	-10429	-26048	5536	11284	11636	-8906	-1812	121	127	1
-5560	9564	-2360	20474	28246	15173	-25992	-17460	-7884	30936	10966	-4723	-14500	1528	5504	-16170	5602	-5842	-13012	8316	18008	-294	32767	-21280	-32768	-1232	4888	14395	21737	-9427	-30644	2300	20500	8579	-24521	-1067	99	121	1
-32768	18056	26480	8315	18158	21998	-3700	15880	-8188	32767	17055	3025	-32768	-30968	5788	7004	13835	-15292	-28932	9204	18820	8271	32767	-25882	-32768	10408	13264	32767	21631	-7938	-25644	-4264	12100	6672	-19806	-3740	67	108	1
-32768	-29052	160	15328	7038	14921	-32768	9736	-18392	7585	22530	3435	-29672	21636	-12704	14322	8874	-309	-32768	24332	30968	26400	32767	-25388	-28020	13572	-12736	29801	21630	-8788	-27060	1900	6648	9496	-20151	-1967	75	85	1
-24716	19384	24512	8749	2023	10074	-14740	9404	-15944	4514	18287	-2556	-14092	10256	-12592	-8485	9318	10215	-32768	11768	32767	32767	27225	-23699	-23240	5004	-14132	10751	21849	-14540	-25764	9764	-11272	6064	-21911	5747	146	97	1
-16444	-9752	10640	6236	1496	5149	-14180	104	-11788	-9025	15495	-1945	-4748	-12524	-14308	-4251	8870	10700	-32768	26252	24860	25335	7858	-32768	-27384	-1844	-17796	-3917	18128	-4923	-32768	3772	-12032	-8539	-25325	6572	124	92	1
-13128	-7900	9252	3083	1259	1593	-12832	-12312	-10276	-7174	11307	3580	-13284	-9636	-13636	13217	14065	2613	-11972	32767	24488	-13332	-32768	-12791	-13104	-8924	-9484	10308	11303	-5287	-32524	-3108	-4320	-13403	-31148	5773	138	95	1
-11356	-4628	11828	2030	866	2230	-13376	-10100	-9208	13870	8916	1899	-18212	7120	-10040	12255	16397	851	13684	9780	10228	-19456	-29833	-9571	-14364	-2092	-4844	21220	-1624	1455	-22908	1260	-5828	488	-28696	8850	154	146	1
-10384	-3308	11980	681	876	1651	-26744	4464	-6664	13188	7274	477	-18308	8160	-9548	10278	16985	1186	15804	4896	6144	8755	-19771	6860	-5148	3576	-3196	5558	-7707	9027	-20148	1700	-7004	4207	-22669	10685	156	202	1
-10544	-3576	12168	-684	1241	776	-17816	7988	-3020	-6334	4871	2354	-17916	3660	-4468	-6632	16604	5817	15040	8224	5736	11769	-18274	8825	-4532	2376	-3352	2764	-8273	9668	-19348	-632	-8704	3372	-21224	7394	178	196	1
-10480	-3852	11316	-1435	1786	308	-14312	1480	-2296	-20497	3610	-233	-14184	-1128	-2464	-9380	18375	6363	-2188	17220	12432	8069	-14255	23894	-3472	-3856	-6752	-12192	-18349	17967	-14312	-1432	-10012	2212	-20029	5202	166	162	1
-10408	-5068	10656	-1277	1702	593	-13756	-11356	796	-14256	3824	429	-13764	-4364	112	-2974	19965	6678	-5096	10748	13984	7111	-19418	31577	-4208	-4512	-6064	-13041	-22322	21367	-5932	-1804	-9688	1929	-15477	4838	134	156	1
-10032	-5172	9788	-975	1296	1281	-15364	-9312	2584	1182	4709	1338	-12352	-4536	1036	4297	19677	4105	-7884	7764	15876	7150	-23816	32767	-5220	-3948	-6244	-11502	-26621	24007	-8308	-3176	-10616	2520	-10823	4542	127	151	1
-9772	-5928	10036	89	205	2667	-13260	-3024	960	3745	5900	2396	-15216	-5888	-44	6576	18725	2871	-13256	5032	20508	7217	-29165	32767	-6608	-3796	-10144	-16247	-31225	26235	-6336	-2560	-10532	3823	-6708	3152	146	152	1
-10588	-3344	10592	631	31	2620	-14292	232	-140	624	7656	1147	-17452	-3708	-3244	-707	14353	3627	-17388	3952	22944	7295	-32768	31023	-8744	-5656	-10644	-20334	-32768	27100	-6112	-888	-10864	2425	-2475	2303	135	137	1
-10920	-4624	11332	313	423	2413	-16848	108	812	-4597	8567	1582	-19536	-636	-3744	3187	12469	4730	-22824	3288	24192	10392	-32768	27193	-13296	-6556	-10876	-21218	-32768	25976	-5828	-1308	-11344	-4260	-8	3166	125	150	1
-11416	-4020	11732	-514	1517	2746	-18112	-3188	-868	-2930	8958	1639	-17760	164	-2604	4928	11155	3697	-31448	7280	24888	14740	-32768	27388	-17408	-12156	-13200	-13916	-32768	25205	-4284	-2408	-12920	-6451	620	4220	111	183	1
-10696	-3804	11776	-1948	2750	2968	-16824	-2404	-984	919	9987	2096	-16092	2204	-364	-1126	12742	2664	-32768	11676	23564	11457	-32768	31795	-20196	-8720	-14176	1810	-32768	23883	-5472	-2268	-9212	-9935	761	2909	118	214	1
-10516	-3232	12272	-1191	3988	3570	-16004	-844	2136	-1155	10801	1900	-17272	4628	1832	-2937	11510	633	-32768	-1048	15560	5174	-32768	32767	-25296	-7736	-15052	3575	-32768	22919	-10692	3372	-788	-11466	-3721	7064	124	163	1
-10640	-2832	12172	-229	6358	2818	-16116	3168	2680	-7586	12655	2656	-18776	1904	3512	-5150	10781	-1702	-32768	-12776	6800	7989	-30858	28019	-22408	-3656	-14368	5247	-32768	20792	-24252	4020	8056	-16148	-10094	15938	139	138	1
-10892	-3424	13356	47	9273	2623	-16692	-1760	3436	-9487	15441	4102	-19676	-1316	304	-6664	8070	-775	-32768	-8000	-14460	3525	-26231	17901	-15528	-2380	-9644	-3493	-23482	13121	-20244	7228	26772	-3348	-1002	11684	139	253	1
-11916	-5292	13000	881	13158	3948	-19120	-3848	724	-3319	17645	4293	-20084	-5308	-1508	-7940	5126	2473	-32768	-19996	-31080	-601	-9414	11547	-8040	-4228	-11388	-12467	-5096	11157	-12728	1124	32767	-355	13115	1103	144	240	1
-11680	-5668	13480	2748	17092	6682	-19888	-1668	320	-1822	18867	4505	-18776	-4008	-1652	-4774	2731	3089	-32768	-20640	-32484	2863	11457	11071	-7476	-5152	-7252	-12121	12003	-2800	-20732	-2852	18124	3439	1647	-9741	138	177	1
-10120	-6864	13648	3885	22601	10619	-18644	-2204	-556	-1696	20419	5038	-19408	-780	324	-4244	-1377	2618	11140	-8296	-8996	-23028	32767	-3557	-13796	1728	-8556	-3573	20746	-11608	-26228	4988	24256	-3499	-7796	-6402	142	135	1
-12452	-7072	14072	5407	30857	15154	-20732	-324	84	-2008	21768	4652	-22092	-1572	2376	-6129	-6532	4358	-5124	14916	29184	-16531	25842	-7706	-32768	14492	13288	-1816	12081	-3214	-9568	-1368	-11916	17011	18763	-2559	146	81	1
-10500	-6568	16872	4512	32767	21896	-29512	728	2920	-5284	22392	4551	-28388	-4108	12680	-5568	-18958	4192	-13288	-18908	15892	-8335	32767	-19637	-14340	-9156	-3408	-23667	15022	-1886	-22348	-224	9340	-6179	5693	2629	143	0	1
-16880	-15348	13876	2498	32767	27945	-32768	4948	17976	-23323	20762	4981	-25072	7972	14512	-5081	-18384	5637	-32768	32767	26392	-15552	7247	-20062	-25132	-10712	-19272	-9741	22150	-18074	-29276	14300	-3860	-12797	3760	4614	135	78	1
-32768	-14568	16748	9425	32767	32767	-26460	-7952	7980	-32768	20378	4311	-25908	3580	9424	-12037	-17734	4648	-10392	-12212	26648	-17291	3231	-16058	-28208	-6768	-11824	-5610	16141	-677	-22232	-20324	-9600	1781	15796	-3109	135	128	1
-32768	-7384	20196	-3570	32767	32767	-26224	-21408	-3192	-19935	23979	5071	-26172	-14356	-6228	-14978	-17612	-2388	-9548	13832	11780	-9772	732	-6680	-13692	-6568	-11328	-5366	17156	-6241	-8644	768	-9676	8976	7823	504	148	125	1
-32768	-27500	21320	-164	32767	32767	-27256	-6464	-8100	-4202	18600	4280	-29656	-7908	-12832	393	-20273	-8879	-10992	2624	15640	-6335	-666	-3633	-14312	-1468	-11580	-3711	13592	-5885	-13532	11240	-11632	-1684	11823	-1797	148	122	1
15612	-31636	16880	-68	29131	32767	-22480	-2464	-17464	8313	15240	758	-31272	6680	-7968	9119	-22532	-7937	-8888	3676	14704	-3922	-220	-2858	-16508	2308	-9892	-5870	10550	-3907	-18364	3840	-9436	-7985	13266	-1789	130	119	1
-32768	-32724	23516	-8731	-5211	-3668	-14192	2072	-29336	10371	10103	727	-25008	5500	-10056	8612	-23039	-7730	-8896	3680	14728	-2409	878	-2596	-22112	-2760	-8304	-4536	7590	-2918	-18316	-2612	-4540	-1055	13518	-2700	121	89	1
-5640	-30308	13660	4226	-25681	-18369	-11476	8160	-5764	-13192	-1	-3426	-25156	3164	-7708	-2856	-23542	-8786	-9076	3616	14524	-1095	1945	-2013	-18184	-4916	-4972	6374	4965	-3473	-16984	-1804	-2612	5490	14771	-4791	125	88	1
1892	-8032	10040	6700	-22553	-14610	-10224	-5552	-10292	-19659	-9684	-6616	-18724	-1300	-10792	-9389	-20429	-9319	-9240	3864	13904	-72	2505	-1448	-16996	412	-3912	11558	4352	-1655	-16280	492	-2692	8766	15834	-4878	124	105	1
-1000	-2564	8872	-7114	-19595	-20696	-2628	-8444	-8640	8336	-15229	-8854	-17592	776	-11412	-6089	-18440	-10151	-9332	4192	13576	309	2210	-1180	-16312	7996	-2304	3687	4209	-1075	-14780	3332	-2624	9041	17191	-5479	124	110	1
-7548	-11400	9528	-10701	-23455	-24976	-2176	-348	-11756	24455	-20151	-13997	-14012	2988	-10912	-3301	-18241	-8645	-9124	4336	13196	306	2007	-1154	-15584	4624	-2396	-6839	4840	-2555	-13832	4328	-1648	4268	17725	-5136	126	115	1
-8568	-8776	10804	-5810	-29405	-26974	-5124	5236	-8608	22217	-27046	-14416	-9276	3232	-11520	-3410	-16673	-8685	-9396	4560	12972	172	1636	-1410	-15672	-156	-2716	-3322	3371	-2809	-13644	3784	-1164	-1529	17602	-4706	119	110	1
-9584	-2976	11896	-8170	-31424	-31766	-5724	6824	-10468	13200	-32768	-13886	-5564	2864	-12336	-6383	-13218	-9395	-9440	4320	12996	-266	980	-1737	-15072	44	-1696	4308	3856	-2048	-13708	2992	944	-4908	19241	-3831	133	100	1
-13124	-4148	12752	-11355	-32768	-32768	-6196	3352	-10612	6916	-32768	-11639	-6636	2592	-12896	-8333	-9652	-7301	-8996	4052	13320	-362	742	-1843	-16344	2624	-316	6512	5298	-1824	-16448	3852	-356	-2144	17963	-4114	136	103	1
-17300	-5428	14292	-9710	-32768	-32768	-6300	1256	-11152	7417	-32768	-11227	-3396	3352	-13028	-7709	-4426	-4922	-9312	3824	13240	-151	768	-2195	-16624	3952	180	2480	6051	-2353	-17084	3868	-2964	-181	15224	-3009	132	106	1
-25444	-8492	17092	-6553	-32768	-32768	-9084	628	-15648	10237	-32768	-13429	-3208	224	-12368	-94	-1913	-5037	-9116	4212	13428	685	660	-2739	-15444	2788	-408	-2439	7323	-3176	-17816	468	-1920	-4653	12376	-1890	128	109	1
-32768	-2148	17104	-5584	-32768	-32768	-12900	1060	-10452	13658	-32768	-12702	-3496	1244	-12292	9652	255	-5520	-8736	4020	13908	978	938	-3531	-17060	2360	-1656	-2743	7796	-2732	-17364	1504	-368	-2111	11960	-1967	127	115	1
-32768	76	14356	-9476	-32768	-32768	-20340	-700	-14048	21768	-32768	-8487	-3388	632	-7016	15951	526	-5783	-8920	2636	14904	-216	3181	-3349	-18704	-1172	-1308	2758	8536	-3085	-18332	2112	1244	1642	11908	-914	122	119	1
-32768	8504	7036	-11428	-32768	-32768	-26020	5768	-17804	17310	-32768	-2757	-7716	-252	-3936	20770	-2969	-6595	-10332	4132	13584	-346	5609	-3151	-18584	-40	3336	9473	9704	-3731	-17972	-1940	4740	4696	9988	979	128	119	1
-32768	17304	972	-8177	-27833	-32768	-26156	1188	-15252	3388	-32768	-762	-28584	-6712	15840	21123	-24631	-10646	-9756	3124	14520	145	8175	-3694	-15724	5116	3640	6866	12451	-5355	-18856	-1068	5428	6585	8858	204	106	119	1
-32768	24220	-15544	-784	-19631	-23303	-19392	2804	-9040	-16001	-25630	2149	-32768	-6676	17112	2269	-11088	-15642	-9540	2656	15120	683	12615	-3545	-18780	4436	1176	2050	15182	-8207	-21120	8884	240	8681	7610	-833	7	114	1
-32768	20860	-32768	4737	-20095	4511	-3916	4292	-14688	-3770	-10282	-319	-15120	-2776	23296	4568	17495	-819	-8844	4476	15904	573	17829	-4005	-22208	1324	-236	1939	16149	-8701	-21364	8120	-788	7854	4394	-1048	20	115	1
-32768	32767	-31032	-17543	-6894	6511	748	-60	-6044	5188	7408	-6840	-8504	5072	26320	2406	4710	13873	-8580	4968	15304	35	24014	-5816	-21388	2476	-460	6543	16182	-8734	-21140	2928	1220	5284	-530	-1642	90	120	1
-32768	4868	-22544	-7135	5871	6910	-12824	5284	-15972	4397	24336	1306	-28132	10388	11616	7570	9592	15918	-9704	5088	14660	-798	30903	-8432	-21256	1416	1792	6605	17930	-10039	-21132	2344	5544	9131	-2505	-1803	114	121	1
4096	-32768	32767	23150	14969	9629	-30416	648	11156	-11906	14306	5354	13728	10048	-32768	-18216	25591	11144	-11712	5312	15844	-1632	32767	-12584	-26580	2300	4464	10017	19418	-10262	-25372	5460	9396	10223	-6651	-2112	140	124	1
8592	12920	7372	20863	25235	9180	-32768	-20324	3412	20880	6183	-5616	-14556	3524	-4776	-21407	13800	-6108	-12412	8224	16860	-951	32767	-19397	-32768	-1560	5608	13808	19866	-9934	-29900	2744	23816	6575	-25414	-795	108	119	1
-32768	16152	31692	10485	25514	21069	1332	15708	-4784	32767	10498	215	-30692	-30368	912	-2445	4877	-12504	-24344	10284	18504	5234	32767	-23983	-32596	7576	10772	29279	19869	-8426	-21116	-7052	16672	5670	-18446	-4342	92	101	1
-32768	-26516	18284	11269	9160	18381	-32768	10292	-15636	13633	20815	8615	-30644	18480	-572	25701	14882	-1175	-32768	20888	26772	19928	32767	-25305	-27996	14504	-2304	32372	21762	-9833	-24860	8312	-3152	13747	-20118	1104	44	93	1
-15356	18200	28284	11918	-1089	11589	-20004	5936	-7612	-4439	13775	-4607	-25320	17580	-9044	-9728	11989	9454	-32768	16140	32767	22534	32767	-31618	-25984	11372	-13120	13518	20041	-11163	-26304	14160	-9668	8868	-21171	5126	156	102	1
-12404	-13704	8980	4176	1468	3284	-16892	2260	-7512	-9970	15004	-1148	-3772	-10544	-9848	-4422	8221	13122	12488	23924	27012	29967	22863	-23051	-25560	-1212	-10488	-21	19616	-12767	-31588	5640	-11096	-5824	-24445	6756	130	89	1
-10884	-3824	11444	1908	1711	960	-13292	-11716	-7672	-7578	12425	3821	-10456	-8712	-9632	6499	10523	3761	-32768	32767	32767	16233	-9041	-14501	-17224	-11376	-24128	-10526	11294	-6923	-29372	-3472	-7528	-18880	-29891	5931	142	91	1
-11096	-4300	11584	1836	1135	1846	-7540	-11376	-8244	9756	8638	1359	-16288	4584	-8620	8227	14522	507	2952	32767	17048	-19911	-24971	-3263	-12668	-6480	-4860	16556	828	-2068	-27296	-1752	-4528	-8009	-31368	7379	144	134	1
-10616	-5248	11208	974	963	1636	-22712	-1888	-6052	16589	9540	-121	-14464	1364	-6836	-3184	14497	1145	9356	5592	12416	-17887	-20647	-545	-11084	2912	-4124	20003	-7824	5485	-19580	2740	-6648	5460	-23838	9937	163	171	1
-10560	-4228	11612	139	1405	1366	-22512	7656	-4056	-1013	6447	3754	-19476	1144	-5424	-6112	14469	3952	6632	2228	11868	8716	-17225	13689	-1860	3312	-5084	-1362	-12179	11124	-17880	2456	-8740	4596	-21421	9059	173	188	1
-10852	-4072	11240	-593	1815	938	-13912	5408	-2112	-20223	4317	-203	-13864	-940	-2368	-6294	15570	6463	-492	17068	11116	13604	-17327	20752	-3240	-2268	-5296	-13408	-16059	14389	-14904	-780	-9752	600	-19089	6233	161	184	1
-11004	-5028	9852	-966	1927	787	-13300	-8248	-700	-22913	4860	680	-14532	-3200	-920	-2627	17180	7096	-8820	16488	13528	2769	-23672	23504	-3412	-5396	-7784	-15083	-22023	18338	-12048	-1788	-10400	-1442	-17567	5343	143	167	1
-10940	-5100	10128	-850	1612	1135	-14888	-12460	260	-1647	5773	1359	-12952	-2984	-192	3799	19622	6826	-10228	8032	14084	649	-31860	27926	-3384	-5360	-7468	-10690	-26078	21899	-6016	-2820	-10144	522	-12150	4824	126	148	1
-11252	-5864	9560	40	433	1866	-15260	-4932	-184	8079	6586	2243	-13384	-2728	-736	4695	19279	3939	-11256	5428	14088	4952	-32768	30532	-5952	-4100	-7680	-8921	-29883	24181	-5428	-2692	-10360	2652	-7407	3552	132	146	1
-11260	-4948	9876	703	-560	2346	-13068	1336	-440	3705	7359	1771	-16356	-3452	-4136	1771	15472	1829	-15004	5024	16996	7377	-32768	30961	-7280	-3984	-9256	-13262	-32768	25854	-5656	-1620	-11068	3624	-3065	2059	136	138	1
-11548	-5176	10872	896	-593	2521	-14612	1304	-1300	-3579	8252	1522	-17356	-476	-5576	4010	12504	2689	-20972	5400	20916	10285	-32768	30436	-10572	-5532	-11876	-19085	-32768	26122	-6628	-1944	-11636	-1283	338	1328	147	139	1
-12344	-4348	11552	178	855	2399	-18280	-2268	-1644	-5564	8423	1129	-16976	-2244	-2932	4144	12283	4728	-31004	11852	22132	10696	-32768	30884	-16980	-7668	-10592	-17975	-32768	25740	-5352	-2880	-12972	-4911	2401	1876	146	172	1
-11368	-4284	11896	-685	2509	1987	-18868	-3368	-756	-901	8962	2431	-17576	1080	-1764	-1289	13782	4049	-32768	12540	21180	6494	-32768	32767	-20444	-7052	-13880	-8081	-32768	24669	-5480	-2560	-12028	-7964	3114	3302	132	219	1
-10880	-3700	11688	-1899	3999	2002	-16612	-2124	1136	824	10097	2526	-17712	4152	332	-724	12241	1816	-32768	2368	15532	2350	-32768	32767	-24164	-5084	-12716	-7741	-32768	22492	-9292	3216	-4304	-10661	-771	5114	117	199	1
-11356	-5128	11068	-3342	5198	2846	-14656	188	3304	-3578	11923	2714	-18116	644	3888	-4822	11243	166	-32768	5480	11724	-4138	-28742	32767	-30732	-4896	-16976	-5887	-32768	18245	-20224	6276	3840	-15721	-7849	14720	121	163	1
-10564	-3176	13300	213	7794	2887	-15812	-1236	3608	-7929	13970	3342	-19584	-3640	160	-5823	9173	-356	-32768	-10732	-12584	-3234	-26280	20165	-16772	-12608	-18376	-7340	-26758	15004	-28396	10176	22712	-19606	-9831	17359	140	253	1
-11176	-6104	12584	1264	10476	4286	-19508	-3928	1116	-8015	16202	4888	-19496	-4344	-796	-7118	5890	1826	-32768	-20148	-31104	972	-18876	9309	-7396	-1004	-12956	-6373	-9420	9424	-15600	3680	32767	-4435	16860	5366	143	253	1
-11708	-5948	13272	2480	14010	6900	-17932	-5004	-452	-1781	18065	4620	-18820	-2720	-1128	-5837	3555	3202	-32768	-20744	-32768	-8165	8620	-1180	-9540	-420	-3368	-3686	8472	1641	-18932	-8448	25992	1009	2895	-11175	128	202	1
-10096	-6228	14216	3431	19114	9468	-18696	-1880	-952	747	19997	5971	-20044	-4336	-2048	-3539	165	2627	23396	-5068	3648	-15400	32767	976	-11144	-256	84	1707	22078	-11636	-25064	2268	7832	-3553	-1602	-8127	138	109	1
-10836	-7236	14740	4727	26772	13622	-21948	-1072	-1280	-1035	20881	6077	-22680	-4048	264	-4597	-4268	4108	-27948	-13920	24724	-4774	32767	-6667	-32768	-3908	17784	-1870	13921	-6802	-11576	-1400	9596	9442	11532	2719	144	91	1
-12048	-10248	15964	5655	32767	20268	-28620	-1556	1836	-4853	21095	5824	-28536	-5296	6656	-4488	-14950	4580	-32768	4	32767	-1870	26889	-13851	-14704	-5616	-4604	-14382	16551	-4780	-19720	-13064	3592	5630	6133	-518	144	37	1
-15112	-10716	16208	5335	32767	29007	-32768	-704	14112	-14700	21332	5523	-28256	2792	12368	-2644	-19965	3553	244	7684	13220	-18343	-694	-14114	-20508	3288	-9348	-11893	28539	-15672	-21136	10300	-28644	7735	5722	3907	132	53	1
-25984	-20340	14352	11448	32767	32767	-31144	-5660	12216	-24699	20319	5843	-28560	5364	12372	-3831	-19382	1910	-16324	3120	11800	-11518	-609	-6561	-20388	-6860	-26308	-15135	17837	-4905	-11224	-4600	-14020	74	13811	7281	132	5	1
-32768	-7584	19124	-30	32767	32767	-24468	-17872	1224	-16086	23037	5449	-22452	-11268	-2100	-10729	-18855	-1309	-12412	-1864	18796	-6505	-2107	-4229	-11496	-3780	-13224	-12496	16678	-3270	-12776	2160	-13904	6710	10651	-1676	142	41	1
-32768	-25256	17172	7182	32767	32767	-28148	-5408	-7160	-6274	18958	3569	-25432	-8088	-9136	2931	-20108	-8068	-10296	2376	14416	-2794	-1365	-2601	-18516	-10940	-13388	10713	9491	-4794	-16372	9544	-11116	-4951	13905	-4344	148	44	1
2536	-24856	20828	1053	32400	32767	-22300	-3740	-10700	1501	14053	1093	-28620	5376	-8316	8617	-22037	-6936	-10276	3744	14224	-1333	-71	-1885	-20272	2020	-5680	16292	7231	-2552	-20080	-2924	-4336	-6355	14228	-3690	134	70	1
-32768	-22292	23852	-9371	13771	2144	-18760	2024	-32360	15334	8865	3931	-23480	6180	-8632	8703	-22907	-7029	-9152	3708	13864	-572	1141	-1452	-19064	5012	-3132	5459	5685	-1960	-17248	-4700	-680	1693	14101	-4221	129	73	1
-16004	-32768	19136	-3763	-21312	-24989	-11356	10576	-7320	-5688	3378	-3873	-24788	6636	-6456	762	-23213	-7373	-9736	3832	13492	-101	1704	-1052	-15536	3036	-3732	-4886	5082	-2461	-14744	536	-2056	9381	15029	-6019	128	90	1
352	-13788	13896	4551	-25717	-21008	-9808	2904	-5440	-22486	-7617	-6267	-19880	1424	-9188	-7426	-22021	-7209	-9368	4688	13164	36	1751	-917	-15736	2400	-2836	-9618	6014	-3099	-14844	5808	-2736	6382	15732	-5045	123	114	1
1036	-1356	10528	-5452	-23856	-21341	-7916	-6324	-7112	-13556	-14726	-9130	-17104	820	-10224	-8911	-19750	-8021	-9632	4640	12984	-64	1605	-1110	-18688	372	-3900	-3955	5012	-2249	-16796	3276	-1456	3270	16310	-3345	122	114	1
-6440	-6652	10312	-14515	-26307	-24578	-924	-5348	-8744	13066	-18884	-13952	-14796	3220	-10548	-8528	-18914	-7113	-9572	4648	13260	-128	1529	-1119	-15396	-1172	-2524	5712	4347	-2026	-13640	1736	-140	4095	16934	-3745	126	108	1
-8016	-9644	11528	-10457	-31590	-24985	-4620	3336	-8936	21417	-24262	-17066	-10556	2852	-11224	-7899	-16556	-6894	-9860	4432	12932	-426	1058	-1682	-15680	2828	-1092	11255	4712	-1693	-13776	2304	1288	3447	17802	-4413	131	113	1
-7144	-3696	12436	-8876	-32768	-27998	-6828	6448	-8032	16422	-31350	-16506	-7204	2024	-12088	-8911	-13318	-7065	-9732	3520	13056	-265	691	-1756	-16044	5204	-408	4905	5487	-2427	-15676	5788	1684	2541	17459	-5793	131	111	1
-10576	-3044	14244	-11810	-32625	-32428	-8744	4812	-9940	10191	-32768	-14026	-6132	1900	-12828	-9658	-10009	-7126	-9264	4004	12824	-510	864	-1866	-15996	3492	468	-1443	6686	-3240	-16512	8452	-2388	2441	14576	-5335	120	110	1
-17296	-5108	16344	-11168	-32768	-32768	-8568	3496	-10724	8524	-32768	-12101	-3680	2164	-13232	-8668	-6371	-6866	-9336	4296	12972	-363	468	-2280	-15304	2096	-1152	-3255	7258	-3484	-17464	4536	-3944	-4238	14133	-2919	130	121	1
-23000	-6892	18488	-7897	-32768	-32768	-8976	1948	-14480	9753	-32768	-12625	-4144	2136	-12200	-2936	-3443	-6305	-8984	4980	13140	318	359	-3723	-16856	1320	-2720	-1644	8048	-3292	-16288	596	-1828	-6154	12912	-2812	118	125	1
-31888	-3568	19108	-4929	-32768	-32768	-13568	416	-8444	10063	-32768	-13046	-3200	508	-12424	5699	-895	-4200	-9484	4048	13668	-23	1265	-4401	-17972	800	-3212	1467	7955	-2650	-16060	596	-1124	-1272	14753	-2774	111	126	1
-32768	460	18304	-6932	-32768	-32768	-20092	-3964	-13176	20550	-32768	-8427	-3936	-932	-6940	10872	-1549	-5350	-9796	1492	14820	-700	3873	-4352	-19004	-1168	-1556	5357	8120	-2857	-18076	900	-1824	1107	13804	-2131	111	127	1
-32768	7192	10140	-8201	-32768	-32768	-24856	4172	-16864	24142	-32768	-1687	-4872	-2704	-5216	17873	-1085	-5902	-8924	2392	14080	142	6336	-4337	-18376	148	3064	8205	9024	-4182	-17460	-264	3456	1419	10911	-1460	127	125	1
-32768	17740	2672	-4379	-30197	-32768	-26872	344	-13920	9499	-32768	1736	-24928	-6592	14256	31237	-19413	-10062	-9488	2420	14740	552	9725	-3892	-17952	1452	3740	8071	9282	-4305	-19884	-3776	7624	2270	10103	-614	119	124	1
-32768	22744	-18464	1141	-23152	-21586	-17784	9740	-10084	-8017	-27944	2820	-32768	-2500	16308	12464	-12653	-15763	-9580	2880	15552	512	14258	-3509	-19120	3524	2616	525	14837	-8340	-22676	4652	3280	8987	8434	-2350	36	123	1
-32768	32767	-32768	-8339	-21019	3038	-1016	2600	-15772	-12256	-10585	-2554	-14164	284	27028	1686	10967	4291	-8396	4680	15440	-203	20001	-4153	-22336	392	1684	3025	16451	-8998	-21244	7920	660	9874	4943	-956	27	119	1
-32768	32767	-32768	-20997	-4778	6837	-1224	320	-7512	-6686	7449	-4274	-9036	8552	28212	-5231	7498	16639	-8768	4152	15204	-817	26810	-5967	-21412	3068	1536	7122	16920	-9504	-22168	3676	2640	5470	251	-1581	68	120	1
-19036	432	-9968	13931	4563	8079	-11940	1480	-16248	-8267	23791	4679	-26080	10580	4520	-1394	13024	13061	-10472	5312	15008	-1595	32767	-9120	-21448	3256	1904	7272	17051	-9666	-22452	4340	8140	9957	-3501	-2371	108	130	1
8428	-32768	32767	14703	15549	8711	-32768	-7708	24492	-18969	8418	5735	10140	8408	-32624	-24170	22484	10651	-12036	6668	16676	-1480	32767	-13801	-29528	2556	5972	10772	20392	-11447	-27944	8176	12568	9581	-10073	-2373	119	122	1
-2800	4424	1296	18528	31471	25002	-20184	-17364	-6184	26004	8774	-3201	-20460	1876	6476	-16232	4779	-4804	-15248	6252	15472	1782	32767	-22383	-32768	-1168	5196	17789	19737	-9974	-29452	2304	20380	5917	-26309	-1221	88	116	1
-32768	-14268	29756	16693	7300	19670	-3688	11168	-13500	28080	17570	3764	-32768	-32768	4544	7011	10660	-17586	-32444	6368	21308	11827	32767	-23198	-32768	13440	9420	32767	20196	-9535	-25196	1076	10476	7886	-19156	-3787	42	97	1
-11456	436	22252	13478	211	12761	-32768	15600	-13256	14019	19837	-823	-27708	24008	-13900	16158	11571	91	-32768	23684	32767	22128	32767	-27967	-29580	23088	-7712	28199	18633	-12584	-27348	7504	4124	10374	-19927	-2392	87	100	1
-12364	-4488	13468	3142	1112	2801	-12516	15480	-10572	-2412	18976	-2143	-11364	20376	-10368	-14665	10402	11480	-32768	25620	32767	27806	29562	-27213	-24396	2352	-16452	-4366	22006	-15890	-27576	6820	-11680	-3608	-21943	6885	136	99	1
-10440	-3852	11556	436	2250	443	-12108	-1556	-9432	-25849	13488	829	-1720	-12988	-16872	-12007	6416	13989	-32768	14296	18968	15199	20358	-30055	-26408	-5964	-11900	-5955	14748	-6122	-30544	-1064	-9072	-21062	-28439	5528	117	71	1
-10624	-6676	10624	986	1205	1233	-8256	-21768	-8672	-11943	9729	2781	-11216	-17604	-11292	8790	13661	2306	-17068	32767	24900	-7613	-20447	928	-11664	-11704	-11620	2752	8550	-7635	-30540	-3220	-5444	-16974	-31964	6913	143	123	1
-10420	-5932	11116	986	601	1929	-16736	-12156	-7048	21826	9123	1433	-19776	7068	-9756	11868	15969	412	11864	20804	11968	-24065	-21663	-789	-12424	-1828	-4208	21748	-3481	1061	-23772	-2364	-5668	1387	-26850	9155	156	141	1
-10624	-4428	11100	916	370	1931	-27008	4628	-6236	21248	7914	3688	-14700	4432	-5708	-792	17102	2650	10968	15920	12436	-22609	-20925	-137	-5524	6936	-4076	6876	-11320	10836	-19596	1520	-8184	7085	-22476	10103	168	175	1
-10420	-4184	11716	543	311	1488	-14416	11076	-3184	-4771	5199	2428	-17928	324	-5060	-4552	15610	5976	2052	11864	13288	12225	-18562	19654	-3088	-2220	-5956	-11152	-13973	13403	-17572	-188	-9888	2889	-21763	8241	190	197	1
-10164	-4384	11064	46	601	1318	-13624	4252	-2156	-27055	3727	377	-14192	-1704	-1548	-6016	18467	7383	-6160	17536	13956	6958	-24364	22555	-3612	-5544	-6880	-14683	-19412	17434	-13636	-2312	-9216	475	-20807	5692	153	163	1
-9392	-4616	10988	-226	879	1742	-16588	-12704	0	-18599	3269	213	-13416	-2240	604	-188	21111	9331	-9168	9804	14688	1092	-32450	24788	-3968	-6516	-7520	-9614	-25275	21727	-8104	-3192	-10624	2348	-15896	4891	140	159	1
-11384	-5888	9988	-122	1032	2240	-16456	-10528	2388	2938	5092	1549	-13320	-1928	112	4960	21556	5451	-9772	4804	15028	4105	-32768	28939	-6040	-5872	-6972	-5879	-29555	25148	-5556	-3128	-11216	5185	-10638	4621	139	161	1
-11028	-4888	10484	1007	-143	2774	-12452	-3336	464	9147	6540	2491	-15684	-3280	-1604	3266	16256	2262	-13452	4424	17648	6831	-32768	31309	-7564	-4764	-8604	-8262	-32768	26376	-6152	-1580	-11388	6841	-5545	3432	143	130	1
-12104	-4692	11064	1559	-436	2702	-13448	2624	1788	4761	8784	1612	-19764	-3872	-872	3398	13770	2756	-19264	5376	20900	7272	-32768	31337	-9012	-5748	-10064	-13671	-32768	27617	-6092	-1300	-12068	3502	-1758	2378	153	135	1
-9876	-4056	11396	770	439	2514	-18352	888	480	-4192	9940	1816	-19020	-192	-1108	6114	14384	3451	-27408	11092	22784	6623	-32768	31365	-14880	-6692	-14096	-19921	-32768	27119	-5476	-816	-13440	-3782	391	2581	142	160	1
-9180	-3544	11640	162	1585	3262	-17452	-3264	1096	-5183	10094	1838	-17384	-380	-1468	2031	11713	4456	-32768	13324	21328	3458	-32768	32767	-18832	-6296	-13708	-16512	-32768	24178	-3168	-860	-13752	-9927	1412	3703	118	205	1
-10176	-4300	12096	-1105	2753	3556	-15872	-4120	348	-435	11664	2661	-16928	560	404	-4201	11766	3474	-32768	9536	17368	-1613	-32768	32767	-22684	-5172	-13552	-16940	-32768	22224	-4108	748	-8644	-15212	1719	4248	118	213	1
-11536	-3904	11240	-867	3893	4507	-16324	-2004	724	-1079	12926	2413	-17648	4700	1704	-3110	11318	33	-32768	-2960	8940	-3582	-32768	32767	-30288	-7416	-17488	-18024	-32768	16153	-13396	3028	-660	-19609	-6963	10888	132	165	1
-10860	-1544	13516	796	7035	4416	-16732	2284	2144	-8278	14223	3248	-18232	116	520	-6176	9795	-1808	-32768	-8932	-3804	-2306	-31196	25741	-21656	-12692	-14072	-5638	-32768	15712	-29952	3796	14568	-27165	-13712	12597	141	237	1
-10744	-3796	14220	239	10338	4442	-17604	540	1556	-12772	16484	5031	-19100	-1240	-1768	-9447	6084	-712	-32768	-18328	-26792	-2168	-28173	10432	-9344	-3996	-15880	-7992	-14907	10291	-17080	6088	32767	-6825	14326	9011	164	253	1
-11272	-5980	14236	1285	14785	5540	-19676	-3044	-936	-6142	18258	4759	-19632	-2784	-2012	-9395	3791	3286	-32768	-32452	-32768	9357	-11466	3376	-5788	-4180	-7032	3728	-2086	5477	-12052	-7676	32767	-5450	7713	-8680	144	252	1
-10904	-5852	14348	3586	19520	8769	-20156	-3332	-692	-2329	19259	5740	-19372	-5152	-3104	-5095	1528	3617	-32768	-692	-32768	-18869	17899	-4478	-4696	1500	-7992	10169	18151	-6735	-23580	-2644	12132	503	486	-10425	139	127	1
-10352	-7196	14536	5670	26689	13401	-20492	-2444	-1060	1591	20408	6469	-21316	-3700	-636	-3674	-2748	4050	-2252	12604	32767	-12809	23634	-1101	-29640	7028	26616	18133	20789	-9203	-23896	-24	10360	73	-511	-8854	134	76	1
-11308	-7292	15972	6789	32767	18592	-24948	-1328	-284	-109	21058	6037	-26124	-6584	4904	-3931	-10810	5696	1220	-15040	1816	-10612	32767	-13056	-32768	1148	4384	-13636	9737	2158	-13764	-18132	-4396	15441	13609	-827	140	54	1
-10420	-6784	16580	6707	32767	19930	-32768	2792	8076	-6871	21303	5976	-28804	-2764	12564	-975	-19092	4777	-32768	-11412	32767	-5851	27923	-15930	-9608	-15664	-1552	-21065	18640	-12362	-32768	4916	4628	-4354	7694	8514	135	13	1
-20680	-21632	8276	6145	32767	32767	-32252	1504	14640	-29076	19083	5696	-26944	15152	14296	-2433	-17566	6069	-32768	32767	5972	-13405	6242	-12477	-29712	-5572	-21100	-12182	24619	-12334	-15400	-7776	-484	-4828	7730	4997	130	135	1
-32768	1108	19308	4778	32767	32767	-23976	-16460	-660	-32545	20928	4756	-24680	-3508	4872	-15307	-19389	2461	-18160	-17888	26412	-13048	2163	-10216	-17292	-7472	-15204	-5789	16047	399	-12348	-860	-18524	11222	9594	-1440	138	64	1
-32768	-27060	17264	-159	32767	32767	-27620	-12812	-8100	-13673	23388	6265	-22956	-13924	-12304	-7829	-18095	-5970	-14820	1136	18328	-6586	-1211	-4827	-17416	844	-9684	-4132	18198	-3978	-12508	11008	-14668	2687	11037	-4092	148	62	1
-15064	-20676	21012	-1166	26984	32767	-23264	-1300	-15544	3056	18254	128	-30760	3736	-6512	2624	-21695	-7131	-10336	6968	12928	-3539	-194	-3070	-12768	-2324	-12436	6098	10666	-4698	-15920	6932	-10708	-8831	13201	-1624	143	67	1
-32768	-11972	13248	-8915	17051	13142	-22380	-524	-17012	10558	9035	2670	-25552	5416	-9844	7022	-21879	-6901	-10444	3688	14036	-2207	641	-2424	-18924	608	-9204	5760	9299	-3674	-19156	-5080	-7848	-4174	13954	-1819	127	58	1
-20068	-32768	16428	-3696	-15398	-13193	-12196	6796	-11072	-7247	5421	-3720	-25052	5488	-7108	2699	-24202	-7934	-9536	3184	14272	-1129	1588	-1757	-21376	-2960	-5476	5625	5810	-2802	-17500	-3792	-3092	3759	14127	-2757	123	82	1
-3888	-18452	11724	6927	-21055	-15997	-10372	-176	-7088	-20407	-4565	-5573	-20428	676	-9372	-9046	-22696	-9339	-9412	2736	14180	256	2356	-947	-16540	112	-4196	3230	4719	-2237	-16292	-960	-2764	8146	15402	-4680	126	88	1
212	-4684	8608	-525	-20857	-23072	-7852	-7832	-9224	-8959	-10646	-8854	-17996	-420	-10932	-10183	-20078	-11117	-9484	3684	13464	908	2286	-625	-15564	2476	-2804	-391	5387	-2015	-16096	2368	-2744	8348	16294	-5013	120	101	1
-4912	-8668	8036	-9880	-21122	-29570	-1348	-5716	-9512	17476	-15410	-11896	-16460	2524	-11292	-7622	-17985	-11959	-9424	4384	13020	781	1863	-740	-17400	3332	-2992	-4024	4638	-1398	-14588	3804	-1240	7174	16575	-5661	119	107	1
-8076	-12656	9004	-5785	-25633	-30151	-4728	1684	-9808	25706	-20809	-15110	-12728	2812	-11960	-5917	-18813	-11085	-9516	4580	12776	307	1621	-1108	-15504	384	-2460	-615	3652	-1987	-14040	4416	-884	3438	16942	-5003	123	116	1
-8352	-5980	10932	-3935	-29027	-31708	-6464	4276	-9740	22127	-28087	-15492	-9460	2804	-12392	-6161	-15945	-10361	-9748	4564	12404	-243	851	-1563	-14996	1140	-2528	6842	3632	-1897	-13500	4520	-612	12	17980	-4185	125	117	1
-10312	-2960	12212	-8790	-30636	-32768	-6388	4572	-11152	16391	-32768	-14477	-7840	3156	-12776	-8169	-12435	-10337	-9420	3920	12992	-761	498	-1866	-15628	3392	-956	7194	5335	-2229	-14180	4008	1800	-3831	18927	-3992	135	109	1
-15476	-4640	14124	-11693	-31963	-32768	-7156	2996	-11488	13002	-32768	-13395	-5776	2828	-12756	-8831	-7815	-7692	-9492	3380	13240	-612	193	-2058	-16600	3388	24	2546	6188	-2502	-17612	4324	-12	-876	16669	-5277	141	113	1
-22568	-7472	16284	-9794	-32768	-32768	-7320	2696	-14560	10868	-32768	-13855	-3504	2544	-12916	-3566	-4876	-6632	-9324	3296	13272	-214	184	-2298	-15772	984	-748	-34	7201	-3333	-16572	3332	-3136	327	14001	-3444	135	115	1
-29284	-3104	17344	-7036	-32768	-32768	-9388	3468	-11588	9588	-32768	-14700	-3076	-40	-13328	5381	-2090	-5744	-10700	4564	13068	253	138	-3154	-16112	2348	-1324	13	7841	-3320	-16332	756	-2400	-3614	12789	-2133	122	120	1
-32768	-1480	17416	-10003	-32768	-32768	-13944	-1360	-14524	12801	-32768	-12822	-2392	832	-11920	14592	374	-5815	-9444	3568	13548	-203	893	-4034	-17308	3372	-2600	240	8274	-2756	-16556	1296	-368	-2490	13143	-2190	116	125	1
-32768	5964	13448	-12498	-32768	-32768	-25160	2708	-16356	20348	-32768	-8134	-2876	756	-6664	19371	1061	-4960	-9456	3468	13372	-585	2150	-4595	-17920	756	-64	4208	8887	-3862	-16952	3144	2956	1754	12738	-457	111	128	1
-32768	16892	9428	-15122	-32768	-32768	-28512	2616	-17612	5623	-32768	-2005	-13680	-3260	668	25055	-6745	-7797	-9524	3196	14300	-819	4479	-4271	-17012	1336	5664	7556	10718	-5334	-18968	576	8104	4368	10502	450	131	126	1
-32768	26592	-2108	-9728	-27380	-29024	-20560	5880	-21380	-5411	-32768	-2661	-32768	-10476	20728	14682	-26565	-16089	-9148	2068	15816	-182	8526	-4581	-17072	5696	4920	3123	14485	-7737	-23128	1396	7400	5285	7681	-1330	98	120	1
-32768	25984	-26056	-1080	-24512	-9078	-11376	5872	-14584	-15616	-19784	1741	-26532	-4292	18820	3496	5471	-11593	-9004	4340	16196	833	14819	-5053	-23160	1852	2084	-1748	17524	-9788	-23248	6000	2872	8522	4776	-1505	36	120	1
-32768	32767	-30932	-9225	-18167	19242	3148	-128	-9424	-10623	-764	-5160	-7124	6788	30436	-8214	9811	8352	-7408	3444	17108	-447	22611	-6224	-23772	-1036	1728	3670	18325	-9095	-23540	2212	2764	7299	-143	-1637	67	125	1
-21780	-24632	-10916	10728	-1273	3710	-5676	3876	-13528	-2673	18472	-2297	-20616	10632	18840	-4458	8086	15307	-8044	4744	16744	-1529	31884	-8347	-23300	436	2716	7313	19000	-10300	-21648	1848	6528	7841	-3423	-447	110	129	1
-30740	-11560	32767	25660	6007	17977	-9684	2192	-9156	-6121	20219	217	-4180	13564	-19576	-5077	20553	8743	-9820	5312	17772	-2954	32767	-12729	-28188	3184	4256	6178	21207	-11280	-26584	9180	12976	9926	-9487	-1867	93	122	1
-1244	12404	-1444	15836	26700	13543	-32768	-10528	5536	28221	8772	274	-21036	14260	6528	-12045	5754	-5311	-11724	8600	18596	-2398	32767	-19829	-32768	1712	5992	9564	21566	-10982	-32720	6484	17468	3935	-22332	-1783	98	124	1
-32768	17744	25872	7342	17029	20709	-9572	12932	-7468	32767	18127	575	-32768	-21128	9040	-19829	11562	-6783	-22632	10776	16748	3106	32767	-27806	-32768	10276	15032	32767	20211	-9113	-25640	440	13264	-944	-22329	-5817	90	103	1
-6300	-13988	15252	14914	1754	12869	-32768	2896	-15376	4350	22247	919	-23872	5904	-21936	6750	9093	-1516	-32768	18744	32767	18888	32767	-28970	-29708	18556	-7272	32767	20186	-11001	-26188	16084	-2232	10141	-21761	216	91	95	1
-15124	7628	15028	3552	969	5415	-14868	7364	-19480	5631	18828	610	-11696	17944	-14112	-7926	11334	3615	-32768	17176	32767	22210	32767	-31449	-20064	10460	-17844	8582	18303	-15258	-24028	11404	-14004	2922	-21596	4887	153	110	1
-11168	-424	13964	2652	-501	2936	-10744	1808	-14428	-17584	12057	-1033	-7284	-8944	-15372	-14053	7479	11976	27492	32767	14200	17619	13082	-30510	-26164	2368	-19740	-12195	17914	-12512	-32768	5936	-11928	-11743	-22517	6368	107	80	1
-10888	-212	13016	2170	-225	2595	-11380	-12052	-8800	-23695	8209	1117	-12664	-18220	-12584	6551	14014	4463	-25240	32767	31424	-3540	-29324	-9135	-11888	-10412	-15092	-5652	7356	-10077	-31120	1292	-9216	-16011	-29456	5919	137	103	1
-10492	-4792	11852	833	-364	1218	-19524	-15236	-4688	3835	7530	4773	-21336	6644	-6372	8436	15203	1630	13492	23504	11052	-19375	-28421	-9323	-12772	-2584	-4080	19519	-4825	-656	-23168	1944	-5548	-7749	-29290	9804	136	136	1
-10240	-4296	11864	241	751	1073	-21740	-756	-3524	15910	7420	2409	-16340	988	-2784	-311	14974	4095	7328	6288	11124	-5010	-22796	3192	-8996	3136	-5776	11669	-13147	6062	-18896	2152	-8512	-161	-22006	11154	146	193	1
-10304	-3820	11992	-399	1037	521	-16596	4576	-2816	4459	6208	2410	-16152	40	-2084	-5233	14246	7257	2980	16496	10048	6560	-20673	16732	-2568	-536	-6980	-6103	-16812	8705	-19752	-36	-9048	-1542	-20535	8720	161	201	1
-10308	-4268	11168	-472	1157	224	-13724	1532	-2476	-10942	5093	2762	-13396	-2936	-2288	-5984	14961	7775	-3616	17880	10920	2361	-21954	23403	-3244	-3020	-6248	-12323	-21720	12249	-14172	-1320	-10472	-2852	-19030	6693	161	199	1
-10200	-5700	10672	-366	973	688	-14412	-6760	-1084	-14460	4122	2360	-14220	-1848	-2068	-4340	16576	5716	-7940	11464	12460	1033	-27579	28337	-3492	-4372	-7876	-12287	-26968	17420	-7032	-1864	-11408	-2830	-14968	6125	130	187	1
-10008	-5308	10860	-35	832	1784	-16928	-6684	176	-7063	4772	1324	-11952	-672	-876	-2970	18844	5260	-10644	9108	13476	3404	-32533	31053	-4024	-3976	-7716	-9938	-30848	20678	-6492	-2092	-11392	-1627	-9889	4690	113	165	1
-8924	-4840	10604	282	439	2797	-14632	-2992	892	-4687	4845	2619	-15596	-3872	492	-1448	20672	4177	-15132	8800	16188	4507	-32768	32678	-5392	-3500	-9696	-12948	-32768	24099	-4332	-3384	-11588	45	-5968	2790	127	172	1
-10396	-3820	10744	734	318	2787	-14044	-1904	1364	-4914	6427	2152	-16420	-4700	276	-1687	17583	6345	-20372	8168	19332	5205	-32768	32767	-7176	-3448	-10464	-19378	-32768	26927	-5020	-2696	-13336	-49	-827	1053	148	137	1
-10540	-3992	11560	561	968	2634	-15916	-2380	2104	-1748	8535	1907	-18032	-1148	-4028	5063	11693	4758	-26568	10116	20984	6614	-32768	32767	-12840	-4856	-12736	-25850	-32768	25235	-4696	-3472	-12448	-5817	3168	16	140	123	1
-10764	-3660	11456	251	1376	2743	-16316	-2844	-384	1331	9499	2441	-18064	596	-180	7176	10488	2697	-32768	6952	20732	9526	-32768	32767	-20484	-10248	-15056	-27136	-32768	23345	-3608	-2428	-12588	-15067	4566	475	136	172	1
-10836	-3788	12072	-465	2013	2568	-15664	-2472	-1116	2413	10504	2693	-16052	-1384	824	-1377	13232	2912	-32768	9832	20092	14465	-32768	32767	-24556	-10376	-14908	-8540	-32768	22204	-4892	-3760	-7780	-19188	2396	457	136	226	1
-10096	-5400	11844	-591	3278	3433	-17184	-944	980	-2449	11152	2606	-17752	-104	444	-2649	12747	3282	-32768	4704	14408	3439	-32768	32767	-27648	-5152	-17728	-3688	-32768	19153	-11756	1284	-28	-17609	-8572	7826	144	178	1
-11436	-4528	11680	-1191	4553	4653	-15952	-2568	3312	-8175	12741	2832	-18492	-1496	3520	-3542	9871	1192	-32768	-9960	-4032	-3192	-32335	29849	-18236	-7596	-16596	504	-32768	16954	-28892	3796	13824	-22714	-14571	15992	135	199	1
-10908	-2596	13596	146	8001	4036	-15404	-1716	1724	-8332	15441	4513	-19980	-1196	1188	-6553	6496	-70	-32768	-19680	-24480	4369	-25697	14747	-15820	4072	-11372	-1268	-18130	14848	-26608	2564	32767	-2071	4544	10254	136	253	1
-10608	-4720	14736	-23	11675	4649	-19948	-880	-400	-8859	17438	5922	-20312	-1392	584	-7332	5868	192	-32768	-26176	-32768	11043	-9624	5952	-13648	3508	-12660	-3782	-16768	13888	-13344	-10220	32767	5742	7951	-4623	137	253	1
-11620	-5364	14868	831	16004	5542	-20472	-1508	-1080	-6461	18769	5456	-18884	-1772	-3464	-8661	989	3359	-32768	-14108	-32768	-1704	6059	-2305	-4172	-5260	-9800	-3394	14998	-4336	-19336	-1544	12656	13674	-766	-7556	137	111	1
-11456	-6912	13944	3161	21078	9798	-20964	-1780	-2320	-5018	19380	6338	-20236	-2476	-1988	-7384	-3529	3214	7812	17368	25976	-28434	25604	-9635	-16388	3300	3856	18109	25945	-8990	-21828	5012	25816	13204	-6165	2276	139	35	1
-9268	-6352	15628	4582	29640	14943	-21752	-1268	-1752	-3029	20836	6309	-22952	-4108	5360	-7844	-11145	5337	5436	-11636	15780	-8473	18365	-8552	-32768	7380	19476	2533	9847	1136	-6076	3372	6692	20789	5184	1724	136	20	1
-10568	-7172	17140	5426	32767	21687	-30800	-1048	4948	-6648	21801	6112	-26088	-5936	10144	-4161	-16207	5300	-14544	-7780	11504	-3908	32767	-8762	-4224	-11904	-1148	-18511	15435	-4857	-19504	-364	1440	-15140	6341	3620	136	0	1
-14068	-13460	13844	2712	32767	31775	-32768	3788	13008	-17087	20929	6294	-25920	10600	17420	-181	-17014	6583	-32768	-3596	22288	-2235	23224	-13240	-23984	-3872	-13464	-8723	18508	-13141	-23852	1804	-3688	-16778	7483	255	130	153	1
-26368	-14104	15096	6644	32767	32767	-28136	-5536	11720	-32768	19646	4685	-24964	2624	12192	-11133	-17797	6542	-19408	10768	12356	-16112	4314	-12838	-28588	4924	-10696	-9560	14909	-1932	-27160	-9784	-16284	-2727	11522	-3159	135	111	1
-32768	-17716	17244	-1244	32767	32767	-28080	-21712	-7212	-24386	21377	8143	-23048	-20532	-7760	-17201	-15799	-1178	-15264	8868	13700	-8238	517	-5519	-17060	-2924	-15148	-19851	20931	-5326	-10392	9592	-11772	-1294	12851	271	151	45	1
-32768	-27256	15880	6426	30852	32767	-24816	-9344	-12824	-5960	18016	5763	-31756	-9428	-10628	2444	-19467	-9391	-12444	-484	17564	-6972	-2432	-4513	-13400	-3832	-14472	-12530	12545	-2832	-13204	9280	-12588	-12284	13505	835	150	70	1
9340	-32768	16240	8617	25886	32767	-21160	-10480	-14596	10758	12427	2504	-32548	3916	-9240	9947	-19241	-5927	-10676	4128	15092	-4394	-1895	-2915	-13936	-4840	-9824	-2857	9258	-3180	-18308	-5072	-7088	-10201	12461	-1094	129	91	1
-32768	-17864	19968	-5365	10915	9178	-15268	5092	-32768	24732	8754	2993	-24744	2652	-10696	10938	-21050	-9302	-8168	3116	14856	-2680	37	-2277	-25904	-8636	-6480	11749	6761	-544	-19200	-8600	-2120	3324	13148	-1408	119	87	1
-19184	-32084	12732	137	-16162	-21965	-11224	12648	-14352	-4370	1253	-1416	-23300	5388	-6952	2499	-22746	-9512	-8660	2760	14912	-499	2165	-1025	-20188	-4388	-2796	24285	4383	-660	-17632	-5660	-676	14127	13756	-894	124	86	1
-8164	-18480	8432	12438	-24576	-24240	-7460	-3524	-7896	-20494	-8407	-5559	-19540	1300	-10056	-7139	-19195	-9511	-9020	3800	13744	843	2926	-401	-14868	8704	-1672	17037	4797	-496	-15028	2304	-1252	20567	14234	-1661	125	97	1
-808	-1324	6784	5996	-26836	-25521	-4800	-9108	-9928	-4773	-13441	-8704	-16312	-552	-10328	-5364	-18691	-11808	-9364	4688	13060	913	2790	-334	-14320	12028	-948	-2848	5970	-1160	-14564	7624	-2244	17477	14911	-3778	120	102	1
-3100	-2228	6780	-8465	-24734	-27922	-1548	-5368	-6904	20560	-17595	-10713	-12556	2040	-9952	-1345	-17300	-11430	-9088	4664	12964	440	2260	-583	-16588	4332	-2472	-13263	5706	-2046	-13096	10040	-2292	6774	15399	-3827	113	109	1
-7908	-8948	8616	-10422	-27351	-27640	-3688	2400	-9080	29136	-23232	-13058	-9696	3648	-9912	86	-16556	-9208	-9208	4544	12936	0	1821	-1041	-16540	-3396	-1892	-5223	4738	-3507	-14248	5460	-780	-287	13968	-3382	124	106	1
-10056	-6696	10408	-6579	-31644	-29609	-4456	6272	-9680	23963	-29476	-13414	-7588	3568	-10508	-2263	-13785	-7604	-9516	4884	12980	-415	1036	-1691	-14404	-2340	-1748	13041	4391	-1488	-14144	3880	1108	-1167	14038	-4194	132	93	1
-10508	-3148	11472	-7570	-32768	-32768	-5196	6812	-10024	12470	-32768	-12451	-5852	2544	-11720	-4490	-9549	-7060	-8784	4188	13228	-694	192	-2039	-16668	4896	-228	14121	6615	-1493	-15156	4792	1564	-1532	17307	-5124	138	102	1
-14012	-3160	12512	-10088	-32768	-32768	-6840	3728	-9612	4958	-32768	-11157	-3900	2076	-12400	-5483	-5160	-5810	-11912	5452	13480	-707	305	-2523	-17396	7056	40	2346	7207	-2160	-17104	4972	-1536	-3042	16868	-3464	140	124	1
-18740	-4964	15480	-9617	-32768	-32768	-7764	1372	-12288	6097	-32768	-11200	-3560	2424	-13516	-1135	-1303	-3800	-9400	4112	13372	-752	968	-2489	-15672	3472	-360	-8821	8412	-3555	-15552	172	-3660	-5019	14015	-1217	124	128	1
-29120	-9744	18608	-6809	-32768	-32768	-11464	268	-15632	9828	-32768	-12926	-4244	840	-12360	7605	552	-2624	-9292	3680	13344	53	1288	-2773	-16068	-2376	-2052	-8727	8847	-3269	-16392	-1880	-1812	-4958	12863	-1675	118	129	1
-32768	-2972	17856	-3812	-32768	-32768	-17064	-20	-8140	14486	-32768	-12329	-4380	2488	-10596	16098	3302	-2523	-9376	4996	13328	1648	2007	-3853	-17936	-2156	-3604	1361	9249	-2205	-17080	564	-208	-293	12879	-1589	115	117	1
-32768	2900	11096	-8677	-32768	-32768	-24808	-16	-15020	23130	-32768	-7964	-4796	1848	-5128	16025	2023	-4586	-9764	4172	13656	1628	3304	-4474	-18168	2604	-1380	7965	10103	-1450	-18100	1236	1636	2615	11603	232	115	122	1
-32768	14124	6080	-11383	-32768	-32768	-30760	-432	-16684	20237	-32768	83	-16312	-3192	11508	19745	-13889	-8902	-9092	1000	15416	172	6201	-4076	-16752	3820	4476	9326	11189	-3689	-18552	2764	5164	5709	9653	1474	129	127	1
-32768	29860	-5512	-10386	-20343	-32768	-23968	5528	-8076	2400	-32768	2157	-32768	-18836	18148	8279	-23906	-23652	-10472	3296	14716	630	9829	-4127	-17352	4404	2468	5944	14550	-6907	-19860	3812	3748	7594	7488	304	36	120	1
-32768	10716	-29424	6931	-19475	-18495	-10932	1044	-18264	-15130	-17366	6129	-9180	-1164	22264	5300	12961	-10953	-10220	3740	14968	1775	15772	-4721	-22708	3036	-40	113	16083	-7944	-22232	7936	336	8273	6717	-1844	1	118	1
-32768	32767	-32768	5655	-20042	27034	5980	-7716	-1916	-10307	-1474	-6787	-6880	8632	28400	1963	13090	8048	-8684	3396	17260	1573	22105	-5716	-21936	716	144	4646	16694	-8044	-21244	4700	-436	6597	2892	-1457	56	127	1
5936	-10184	-5452	-13440	-398	1941	-736	576	-17384	12297	22213	-6180	-23272	11940	14652	-193	5141	20267	-8108	3988	15544	1342	30707	-6891	-22096	380	156	7381	16860	-9468	-20952	2040	2776	5844	-1086	-548	119	130	1
-11480	-10588	29776	32767	14311	27637	-32768	8536	8904	464	14233	6623	-21092	5972	-6428	-11653	18687	11277	-10176	4016	16540	-112	32767	-9705	-25724	3332	2132	7557	18218	-10257	-24804	7080	6272	9541	-2704	-2375	128	134	1
-6032	7712	5476	13152	31867	-333	-32768	-4912	9496	13373	7978	-722	-3248	7556	-11608	-7878	12144	-528	-11820	9904	17208	-1998	32767	-14845	-32768	1288	6876	9331	18801	-10617	-30076	7088	15996	8520	-14245	-2317	125	126	1
-32616	18120	31236	9904	30091	18716	-5408	8720	-392	29033	14781	-3251	-27100	-11976	4760	-6762	4569	-4948	-19480	10916	18668	123	32767	-22849	-32768	4920	16024	24470	18643	-9195	-25476	-2696	18332	6071	-21688	-3028	124	105	1
-32768	-25264	17232	6137	10457	12473	-28968	5376	-12148	9813	19521	3591	-27944	5896	-5748	17313	13579	1679	-31628	9932	17596	12787	32767	-22021	-29560	12992	4384	28597	20632	-9014	-25748	2220	9896	8807	-20662	-1284	97	115	1
-9012	13132	22604	10891	235	11706	-28476	-3008	-12276	4100	14981	-444	-19720	19824	-13256	-11964	12747	4226	-32768	12808	30832	21571	32767	-28156	-27240	14992	-10412	17732	19854	-12127	-24732	15476	-8916	9541	-21544	4857	159	99	1
-12668	-13020	8820	3571	434	1941	-16092	1348	-8712	4883	16122	-2270	-5272	-10488	-15400	-14804	10575	9526	-25352	23420	32767	23948	31799	-25848	-25764	1960	-12204	-237	19492	-12173	-27468	9684	-12536	-2136	-22038	6406	136	98	1
-10740	-3116	11940	2142	1335	1820	-13276	-2684	-7576	-7388	11489	949	-10396	-15460	-10600	4063	11171	4343	-32768	14832	29092	10397	16489	-24838	-24592	-8696	-15292	-4751	13054	-5079	-30072	1204	-9164	-17994	-29101	4339	150	78	1
-10732	-4996	11400	1435	261	1904	-7716	-7568	-5712	-12413	7922	2746	-16036	2400	-8904	10096	13691	3011	-14864	32767	27560	-6939	-19986	435	-11120	-8432	-10420	6299	5131	-6687	-27732	-4244	-5008	-17064	-31824	3689	153	112	1
-10636	-5324	11336	532	440	1895	-8188	-8320	-5640	-10706	7906	2368	-17032	7064	-6392	516	14418	3054	7288	15268	14912	-16194	-24165	-972	-11584	-2696	-4436	20887	-4591	1833	-21224	-1012	-5956	-63	-25858	7630	157	168	1
-10804	-4856	11288	1	818	1847	-22408	-864	-2532	1691	6392	2475	-15672	1768	-4928	-7275	15489	5100	5572	2072	13272	-182	-22321	7174	-7140	3224	-5488	10260	-11698	9184	-19096	-132	-8960	3632	-22961	8603	158	175	1
-10772	-4508	10832	34	622	1582	-13696	380	-1832	-2958	5910	1375	-13724	-3656	-2764	-6729	16871	4800	624	11312	12124	10938	-23047	16481	-2380	-1036	-6232	-6161	-14398	11612	-17540	-432	-9520	2246	-20714	6013	166	168	1
-10864	-5068	10432	275	-28	1350	-12768	-5136	-452	-5830	5510	1714	-16160	-4788	-72	-1316	18987	5535	-5520	16108	12464	4754	-26915	19566	-3612	-4224	-6328	-10839	-19765	16026	-13460	-1804	-10120	191	-18983	5246	135	169	1
-11576	-6020	10280	583	-392	2047	-15184	-5436	1680	-3539	5978	1015	-11372	-3168	132	5892	18071	4493	-9196	9360	13600	327	-32768	23054	-3548	-5704	-7984	-8922	-24802	19659	-9904	-1892	-10688	1221	-14791	5070	107	166	1
-10072	-4692	9940	844	-799	2689	-14908	-3232	1256	-3440	6499	1713	-16572	-2744	-1940	2015	11504	346	-10120	5376	13936	3386	-32768	26897	-5092	-4896	-7132	-6608	-28840	22459	-6548	-1848	-11176	3338	-10436	4154	135	157	1
-10240	-3916	10780	724	-880	2389	-13772	-1372	64	-3398	7392	2060	-18684	-2596	-2304	-812	11122	2588	-12996	5544	15368	5896	-32768	28478	-6888	-3936	-7860	-8567	-32768	25125	-6632	-1608	-12000	4422	-5831	2484	139	143	1
-10668	-4752	11020	667	-320	2205	-16772	-508	-12	-4489	8639	1879	-16964	-1668	-2272	141	12160	4146	-18500	6208	18712	7229	-32768	30096	-8164	-4240	-10384	-15095	-32768	26720	-5176	-2192	-12948	2384	-1216	1098	134	143	1
-10076	-4212	11476	141	463	2428	-17780	-1816	-476	-3606	9264	1773	-16508	-448	-2260	637	12113	3844	-27492	13148	23028	7019	-32768	31914	-13956	-6164	-14984	-23520	-32768	26993	-5340	-2712	-12580	-1482	2350	1212	122	169	1
-10156	-4584	11308	-540	1600	2328	-16396	-2120	-532	-1423	10027	2403	-15476	1996	-1476	-2080	12574	3196	-32768	8448	22700	3248	-32768	32767	-20448	-5832	-6048	-15423	-32768	22465	-4432	-1696	-13772	-6978	4186	2024	118	211	1
-11040	-4032	11416	-1322	2980	2301	-16160	-1536	316	-550	11020	2285	-17572	2168	-572	-1914	11469	2419	-32768	3660	18828	3573	-32768	32767	-22064	-4724	-13344	-14558	-32768	21422	-5272	140	-9020	-11499	2421	2777	129	202	1
-11768	-6072	11500	-1960	3850	3272	-16760	-592	1804	-4459	11972	2625	-17768	-156	1924	-3848	10624	363	-32768	-6120	10800	3578	-32768	32213	-28436	-9024	-18532	-14255	-32768	15528	-10884	4848	-3560	-16654	-4355	9988	127	146	1
-11348	-5984	12008	-1620	5538	4785	-16104	-2724	2980	-7610	13574	2597	-17356	-2316	1100	-6022	9108	-352	-32768	-5064	-3600	-2813	-32768	23355	-21260	-12452	-15540	-77	-32768	13818	-31892	5368	18772	-29192	-17208	14378	140	186	1
-11600	-6700	12452	744	8645	5064	-17472	-688	564	-7344	15409	4075	-17436	-3184	740	-6437	8599	-155	-32768	-25064	-29188	69	-27614	6822	-10692	-1336	-15640	2920	-15494	14753	-20244	7520	32767	-9818	10587	11827	137	253	1
-11932	-5172	12768	1775	12022	7010	-18412	-4052	244	-4674	17147	4557	-18740	-2516	-1304	-6582	4700	3010	-32768	-31200	-32768	16404	-7890	1462	-4492	1824	-4184	-1283	-220	5975	-14544	-11688	32767	-5439	7086	-9924	135	253	1
-11340	-5204	14580	4070	16111	8853	-19000	-2148	-680	-1664	18802	4885	-18520	-4332	-3900	-3361	2136	3462	-26584	8416	-19060	-14894	17288	-244	-4828	-3616	-12244	-3402	19669	-8824	-23204	-3660	9492	2969	-32	-10676	138	140	1
-10708	-5840	13948	5247	22122	12179	-19576	-1616	-3196	1362	20190	5927	-19088	-2892	-1496	-3424	-1604	3776	-18792	19168	32767	-14978	17487	70	-29280	5700	17204	19390	22424	-8414	-9288	68	6016	14927	1575	-3396	136	63	1
-11484	-6564	15148	6309	30193	16018	-22884	-1696	-1124	-815	20908	5291	-24708	-4800	2528	-3246	-6161	5691	2568	-18360	2088	-8756	25853	-12677	-32768	4552	7172	-10876	7069	6653	-6876	-13308	-11308	22904	14306	1619	137	55	1
-10656	-7804	16904	5505	32767	24544	-32708	968	1760	-3074	21039	4952	-29760	-3172	14520	-1048	-19170	3996	-27676	-8172	31728	-3576	32767	-10168	-5604	-19312	3060	-17057	16838	-10663	-24692	6836	7652	-6126	6478	7965	134	0	1
-15804	-17244	12924	3232	32767	31349	-32768	4528	17120	-23051	20199	4596	-24124	13928	15240	-5142	-16447	5783	-32768	27176	23960	-13442	7766	-21078	-29596	-1588	-21332	-3469	19940	-11800	-21696	-4132	2912	-9312	5483	4719	126	142	1
-32768	-10524	15312	8136	32767	32767	-25808	-6164	9316	-32768	19828	3472	-24856	1388	10496	-14335	-17620	4832	-15416	-14640	26824	-13437	2660	-12026	-21644	-2508	-9336	-3407	12450	2952	-20120	-5824	-24300	12832	12129	-4211	131	104	1
-32768	-21616	17668	-3924	32767	32767	-27764	-19276	-9832	-21069	23733	6692	-25012	-18332	-8152	-16136	-16428	-2522	-11624	9048	13544	-7337	-955	-4903	-15532	1308	-8944	-8571	17881	-4858	-8620	14976	-11680	2337	11808	-1227	147	67	1
-32768	-25696	17412	-3115	32767	32767	-27872	-8132	-9592	-6118	18906	3691	-30664	-9596	-10312	3002	-19486	-9386	-9756	7512	13340	-4590	-1335	-2639	-10580	376	-10716	-5748	11956	-5031	-15016	10272	-10084	-15060	12196	-1411	151	85	1
21696	-32768	14392	18028	26274	32767	-19324	-13964	-8364	12129	13134	2436	-28848	1268	-9568	11494	-21138	-8315	-8944	4404	14196	-2821	-46	-2154	-18348	208	-9664	-5901	10150	-3264	-19364	-5888	-8040	-9384	12738	-2650	125	78	1
-32768	-12824	23232	7739	10185	15652	-11196	-4772	-32768	28858	8561	492	-22440	-1184	-8268	11926	-22716	-11019	-9100	3140	14540	-1869	1022	-1979	-22788	-7900	-6852	5082	5879	-2309	-17852	-4964	-2764	2185	12711	-933	124	74	1
-22288	-22456	15668	4344	-18359	-19940	-13336	9828	-12672	9274	2872	-497	-22696	-660	-7620	6030	-22483	-11620	-8712	2692	14576	-228	2209	-1168	-17560	-4304	-2876	13551	4397	-2111	-16552	-5592	-496	9027	14301	-2052	119	66	1
-5964	-15784	9208	9970	-27862	-27744	-8920	528	-7184	-5575	-6055	-2522	-20244	188	-10532	1765	-19733	-10662	-9096	3400	13876	1175	2973	-577	-15488	2404	-2596	11640	5095	-649	-16080	-1424	-1880	13680	14659	-4951	115	84	1
2356	-3344	5896	5489	-25483	-26010	-6088	-5012	-9780	751	-12087	-3842	-19104	1988	-10568	2769	-19592	-10442	-9476	4352	13220	1504	3053	-432	-17020	6356	-1740	699	5092	-204	-15748	1800	-2000	14513	15601	-4966	120	101	1
-3476	-2284	6904	-5254	-22448	-27831	-4404	-3796	-9372	18955	-17576	-5318	-15844	2832	-10472	3822	-20022	-9240	-9536	4308	13252	1509	3029	-406	-16332	2584	-2452	-6291	4971	-1094	-13696	4252	-1476	11125	17020	-3446	120	109	1
-8752	-7792	9268	-6434	-27210	-28654	-2136	1832	-11220	25834	-23086	-7760	-10892	4532	-10544	3489	-19212	-7715	-9448	4044	13108	1476	2959	-272	-15400	-456	-2700	1702	4157	-2209	-13728	6272	-1628	5411	17222	-2829	130	106	1
-8832	-4464	10868	-3613	-32768	-28169	-1352	5860	-9696	19741	-30108	-9094	-8188	3408	-11356	431	-16272	-6387	-9272	5204	12784	494	1830	-1260	-15696	-672	-2888	3725	3756	-1886	-13772	6992	-400	1068	17399	-3875	139	106	1
-10268	-208	11680	-7596	-32768	-29406	-2804	5184	-10508	9173	-32768	-9334	-5312	2096	-12204	-2045	-12091	-5587	-11456	5708	12900	146	672	-2120	-15824	5476	-316	12245	5840	-1080	-15652	7852	-196	-1798	18103	-4253	141	111	1
-14212	-1916	12220	-12613	-32768	-30145	-6172	2284	-11036	4590	-32768	-8320	-3444	3060	-12548	-3344	-6882	-4168	-9456	4580	13064	-290	849	-2353	-16628	6860	688	2977	6433	-2318	-17056	5944	-1876	-1628	14347	-3725	142	121	1
-18552	-3420	14696	-13713	-32768	-29535	-6924	952	-13300	4677	-32768	-8767	-4116	4156	-14316	-4074	-2196	-3600	-9216	4308	12976	606	403	-3243	-16344	6464	680	1433	6619	-2551	-16352	1428	-588	-3034	12836	-1945	137	111	1
-27812	-7824	17792	-12551	-32768	-28868	-9972	-1000	-16376	5230	-32768	-10209	-5512	3384	-14256	-1250	117	-3732	-8984	5208	13232	1701	357	-4751	-16264	2084	-2028	-4655	8977	-3305	-16884	-804	364	-2235	12141	-1583	122	118	1
-32768	-2108	17156	-11086	-32768	-30555	-15244	-276	-13164	8506	-32768	-10530	-5532	2608	-10568	6319	2257	-4477	-8756	3596	13648	713	1979	-5552	-18576	-828	-3268	1804	9294	-2760	-18808	2612	-244	160	12703	-1094	116	124	1
-32768	10312	11156	-18281	-32768	-32768	-24108	276	-16924	18019	-32768	-6677	-2648	472	-4064	7402	1499	-5884	-9912	3660	14156	-94	5507	-4568	-20636	-1428	1632	8201	10009	-3985	-19252	1164	1560	3471	10918	978	112	128	1
-32768	17400	4476	-23866	-32768	-32768	-29088	4352	-17280	6412	-32768	-1429	-12276	-2372	-328	13568	-5878	-9046	-9788	2664	14440	440	8745	-4533	-16272	5252	5292	7883	11967	-5415	-19004	-1536	7404	5543	8338	-141	114	128	1
-32768	28364	-3804	-15431	-24189	-29634	-21964	3572	-24900	-9025	-32768	-2918	-32768	-14048	21464	13681	-29152	-18742	-9908	3388	14736	889	13643	-4410	-17860	3852	2984	2321	15422	-8328	-21064	5572	4436	7742	6812	-597	54	122	1
-32768	24632	-26480	-1187	-21687	-6991	-11028	4696	-13704	-25352	-19730	734	-17456	-6332	22372	-1732	8744	-9769	-8744	4004	16052	499	19759	-4419	-22380	2456	1828	1239	16967	-9574	-23452	10360	2056	9000	4700	-1230	7	115	1
-32768	32767	-32768	-11151	-14698	18297	952	-6644	-5560	-12476	842	-3744	-2856	2660	30176	-8052	14978	6529	-8228	5308	15188	167	27182	-6967	-22692	1348	2720	6002	18003	-9359	-22984	2928	3388	6650	-1973	-2081	51	131	1
-32768	13844	-21140	-13398	-282	12290	-2048	2708	-15936	4729	21819	-1162	-23796	9660	18340	-5109	8721	17628	-10620	5184	15536	-788	32767	-10124	-22684	256	4216	7126	19957	-9963	-21916	-196	8720	7228	-5654	-2008	106	124	1
4376	-27216	32767	22070	9087	16305	-32768	6332	17376	-7578	11353	7709	11020	5824	-32768	-24203	29640	19180	-13176	5692	16820	-105	32767	-13663	-29288	256	6548	11648	21680	-10713	-26380	5632	16560	9858	-12556	-2247	123	122	1
3876	-2284	-3936	16367	32767	5207	-32172	-14452	-4748	25050	6698	-1360	-15000	4340	4028	-10559	7787	-4951	-17124	7352	15792	3388	32767	-20240	-32768	1108	9908	20950	20698	-9955	-26556	-3660	17672	6282	-22827	-3056	87	103	1
-32768	15700	29964	10030	21556	20977	3600	7768	-6392	21353	12160	-2050	-32768	-32768	3332	-11149	8428	-8890	-31452	5492	20524	13577	32767	-21462	-28948	13940	7720	32767	22129	-8162	-23552	1140	9908	11880	-21323	-5854	89	99	1
-20288	-14552	7208	18774	-2184	17161	-32768	-11336	-16224	12234	23866	4443	-25524	6824	-13940	21346	13432	-3568	-32768	24532	32767	26077	32767	-25299	-30812	22648	-13520	22794	19847	-11089	-27412	21656	-8388	16930	-20781	2633	97	111	1
-12404	11920	19756	8279	-953	8703	-18604	10836	-12420	21245	17308	3735	-16488	17804	-8752	618	11768	6334	-32768	12588	32767	28539	30575	-28767	-23580	6824	-16136	962	22785	-15770	-28872	17204	-14820	3426	-21511	6128	144	102	1
-11332	2852	15160	4801	-438	4057	-10536	11216	-10800	-8216	13454	-2732	-8368	-4468	-10924	-2772	6645	11513	-32768	10544	22192	22413	11564	-32768	-28408	1236	-15088	-11204	15232	-7306	-32768	7336	-14748	-19343	-27102	6137	121	76	1
-11480	-6144	10932	2074	408	1317	-12360	-7060	-8364	-20893	11224	1403	-13500	-7440	-11180	7119	10839	4340	-22712	32767	26028	-8399	-29922	-14534	-11676	-9360	-15180	-386	6784	-8837	-31568	-356	-5384	-24512	-32768	6304	145	115	1
-11076	-4568	11672	470	1059	1295	-18684	-16232	-7540	-714	9029	1415	-18172	8348	-8232	745	14200	3443	9612	20224	10272	-26573	-32361	-15291	-13240	-3668	-6796	19001	-5235	-2133	-25320	1292	-5636	-6108	-28293	10062	146	166	1
-10464	-4072	11708	-507	1629	949	-20996	-4280	-5704	13090	6674	1711	-14676	160	-6560	-8575	16440	2107	9184	3084	8120	-5340	-23788	-916	-7232	2628	-7424	12902	-14405	5249	-21288	3156	-9108	841	-21967	10077	162	195	1
-10504	-4572	11276	-962	1537	621	-16104	3700	-3364	1417	5642	2598	-16772	-1484	-6528	-11226	16314	3707	4244	16224	7304	8901	-18737	13010	-2388	-872	-7852	-3945	-17462	6999	-19996	1600	-10740	-3514	-20628	8092	179	210	1
-10484	-4348	10840	-835	953	619	-13804	2820	-2020	-17392	4366	1946	-14788	-5104	-2632	-10641	16635	3848	-3724	19024	8592	5515	-18804	22018	-2296	-3604	-6688	-10724	-22355	11587	-15360	-148	-12116	-6796	-19675	6578	177	193	1
-10268	-5068	10600	-741	896	885	-15912	-6340	528	-22308	3030	701	-12720	-4244	-1012	-1942	16603	5883	-7624	15220	10364	2075	-23131	30663	-1032	-3248	-7756	-10060	-27513	15836	-8328	-820	-11408	-7359	-15582	5591	165	183	1
-10332	-5176	10360	-418	1042	1513	-14292	-11212	2112	-9781	4678	826	-13900	-4456	2108	1928	16919	4802	-11776	12536	11556	294	-28344	32767	-2092	-1644	-8128	-9255	-31006	19316	-6028	-3000	-11484	-5043	-10345	5143	127	171	1
-11328	-4440	9800	50	665	1819	-12636	-6584	1712	1716	6324	2851	-16104	-5604	2316	2079	17465	4046	-16480	10300	13576	-679	-32768	32767	-3556	-392	-9324	-15394	-32768	22442	-4564	-2448	-12080	-3056	-5858	2847	129	181	1
-10652	-4040	10604	571	289	1990	-14500	-364	2676	3394	8848	1982	-17664	-1968	-2416	-300	11896	3042	-19944	9268	16144	-507	-32768	32767	-5576	-1500	-11612	-24361	-32768	24606	-4792	-2736	-12624	-3827	-714	2460	147	153	1
-9216	-4408	11384	655	113	2318	-16460	-196	708	-1568	10359	2019	-18312	-1808	-2176	4319	8520	3085	-27124	12368	18672	1993	-32768	32767	-11216	-5120	-16036	-32768	-32768	25081	-6180	-3572	-13288	-4808	2974	3306	143	147	1
-10700	-3944	11376	108	1257	2733	-16032	-3172	-1980	-3146	10828	2280	-15776	-768	-1372	-1469	11358	3378	-32768	10496	17484	2720	-32768	32767	-19288	-10724	-14760	-32768	-32768	20755	-3932	-3340	-14812	-7986	5937	3038	132	203	1
-10780	-4008	11604	-1001	2549	3185	-17868	-2548	-2144	-2938	11050	2377	-15608	-308	-1372	-2384	11770	3199	-32768	11744	16904	5993	-32768	32767	-20504	-10692	-16612	-15970	-32768	19173	-4044	-2896	-11352	-14162	7764	1658	135	190	1
-11628	-3852	11872	-1493	4060	5176	-17184	-1936	368	-5487	11099	1862	-17192	3424	-516	-5711	11542	-84	-32768	3728	10860	-2613	-32768	32767	-27500	-8128	-19708	-8420	-32768	16769	-9308	584	-3652	-16759	-1688	7951	147	140	1
-9008	-2032	14180	-416	5853	4458	-14712	-344	1916	-10521	12627	2143	-17700	-2332	2412	-8157	9580	-1090	-32768	-8756	-2324	-1708	-32768	30435	-22272	-12676	-18260	7501	-32768	16161	-31228	1708	9764	-22838	-11339	12541	155	187	1
-11112	-3388	13700	-626	9595	3688	-17736	240	1096	-13276	15198	4786	-19208	-3780	-464	-9669	6984	-289	-32768	-19116	-24220	5602	-30838	13266	-16736	3372	-9464	7753	-23313	17146	-32768	3600	32767	-17742	2606	10584	147	253	1
-11436	-4428	13812	-508	13963	4195	-20256	-3884	128	-7300	17463	4313	-20656	-2884	-428	-9655	5199	3562	-32768	-28644	-32768	15763	-11868	5741	-7160	2432	-4912	-2918	-3204	11770	-14932	-8536	32767	-196	9057	-4271	141	249	1
-11200	-5392	15348	1844	18195	6688	-19688	-2176	1060	-4220	18809	5227	-19436	-4772	-1672	-5579	1962	4322	-32768	-228	-32768	-16479	17805	-97	-5176	-2996	-7936	-1344	15809	-6434	-19376	-5324	16912	10414	1936	-8178	137	92	1
-10464	-6160	14316	3307	24695	10484	-19676	-2252	-1340	-638	20859	5998	-19644	-4800	-1740	-5329	1370	4168	-22756	11128	32767	-14163	24886	-3072	-23720	6328	19600	19142	21254	-8135	-27092	4876	9464	16384	1883	-625	138	76	1
-10416	-6868	15924	5058	32767	15559	-23408	-2464	-408	-635	22588	5470	-24840	-5156	5040	-5441	-8271	5415	-1100	-18948	3512	-11188	32767	-15182	-32768	5924	14340	-11206	9032	5836	-10256	-812	-2032	25386	14691	3229	140	47	1
-11704	-9084	17604	4692	32767	24220	-32768	1756	2360	-4706	22833	4532	-30712	-2880	16136	-3855	-21501	4449	-32768	-4632	32767	-5375	25102	-15879	-8896	-16688	-4488	-19888	20268	-13877	-29304	5032	6004	-11199	3565	4768	133	0	1
-17744	-20196	12924	4763	32767	31983	-32768	2624	3292	-7641	22427	4310	-26096	12652	14836	-4579	-17829	6013	-27048	28008	5516	-12287	7391	-11297	-29472	-4388	-20028	-10815	24422	-13464	-18708	-1764	-15996	-857	6556	-126	127	110	1
-32768	-1936	20720	6131	32767	32767	-26328	-9648	676	-29901	20629	3713	-27656	-3160	6088	-14895	-19286	3205	-19276	-8988	21196	-12882	2976	-10614	-25472	1568	-15888	-11171	25206	-14143	-13976	-10376	-19244	4194	15332	-200	138	57	1
-32768	-27844	19076	-2462	32767	32767	-29000	-14052	-11568	-16700	22798	7349	-22708	-14988	-10948	-8854	-17734	-4616	-10612	6480	15456	-8816	271	-6295	-15032	1692	-11192	-11648	16769	-2847	-10400	14072	-13492	2063	13920	-4162	146	114	1
-20880	-20932	23836	-1037	31177	32767	-23920	-3672	-5972	-7940	17074	1441	-29836	1192	-8992	2773	-21212	-7345	-10820	4176	14616	-6472	-264	-4734	-15824	-5220	-11284	-877	9676	-4901	-17240	8144	-8900	-13282	13766	1261	142	79	1
-32768	1120	2788	-3374	32767	28410	-16764	-6068	-12508	10742	8934	323	-28376	5012	-10040	8280	-22904	-6719	-8148	3060	14576	-5277	828	-4196	-20828	-2204	-6488	5878	8575	-1947	-19404	-6788	-3744	-8135	13876	-3001	123	57	1
-32624	-32216	19228	-6674	-6144	-16449	-12240	6012	-19468	6307	5572	-1352	-24428	6460	-7152	6356	-24625	-8567	-9508	2400	14740	-3447	2313	-3229	-20400	-3388	-2384	9683	5738	-1468	-17588	-7784	-600	2978	14023	-3955	122	69	1
-7968	-25584	14524	9717	-23298	-23649	-10472	7448	-4720	-15618	-3775	-4697	-22168	4208	-7968	-6033	-22968	-8041	-9668	2836	14112	-1492	2969	-2352	-16324	3604	-1636	6249	4956	-1509	-15440	-1812	-720	12440	15032	-3022	117	83	1
1540	-2736	10700	5453	-25340	-20062	-8156	-6012	-8528	-17358	-12348	-8517	-17776	-668	-10680	-9477	-21227	-8770	-9360	3300	13516	-905	3150	-2029	-15428	6776	-712	-2587	6792	-1689	-15264	4604	-640	11910	15754	-2727	117	91	1
-2612	1320	8964	-13450	-23211	-23191	-7328	-7128	-9420	-13907	-13211	-8988	-15472	1992	-10816	-7944	-18866	-8715	-10136	4036	13492	-1207	3310	-2474	-16560	3976	-1040	-8226	6396	-1996	-14532	5772	308	6162	16333	-2462	122	104	1
-8776	-10304	9344	-16987	-28274	-23874	-2640	-216	-10216	22834	-21938	-15616	-11696	3692	-11088	-6693	-17915	-7499	-9084	4808	13196	-1099	3268	-3089	-15584	-1268	-1028	-262	5986	-2655	-14124	4368	1184	1228	15369	-2202	119	118	1
-9112	-8592	10780	-8712	-32768	-23764	-4636	4944	-8328	20881	-29067	-16202	-8980	3544	-11508	-7338	-16156	-6577	-9472	2268	13296	-1236	2669	-3925	-15092	1556	-900	9398	6140	-1734	-14872	3736	1984	-959	14420	-2506	129	96	1
-9140	-1428	12232	-10281	-32768	-28377	-4324	7752	-10192	10783	-32768	-15455	-6348	2092	-12316	-9442	-11915	-6648	-9684	2768	12964	-305	1512	-2870	-16032	2684	-1184	8467	8186	-2398	-15456	6384	656	1127	15395	-3342	136	103	1
-13496	-3004	12836	-14937	-32768	-32768	-6880	4312	-9856	1075	-32768	-12554	-4244	1456	-12828	-10317	-7974	-6050	-9600	3752	13488	-406	1786	-3100	-16648	4252	-2112	2688	8420	-3458	-17716	7132	-4912	3097	14344	-3838	136	109	1
-18108	-5360	15444	-12403	-32768	-32768	-7336	2020	-11752	-504	-32768	-12369	-2920	1288	-13272	-6362	-3300	-4997	-6288	1264	12912	-187	2069	-4049	-16012	2388	-3280	-6025	8911	-3523	-15140	1064	-6700	-4338	12999	-1964	125	119	1
-27880	-7376	18812	-8189	-32768	-32768	-9268	-876	-14928	2879	-32768	-14325	-2876	-772	-12748	221	-324	-5354	-9456	2316	13572	-83	2875	-3377	-17140	-2956	-5208	-4760	8473	-3576	-12880	-2132	-3336	-5605	14667	-2486	113	106	1
-32768	-3016	18056	-6128	-32768	-32768	-13724	-2816	-9524	9701	-32768	-13821	-1372	-1792	-12264	10425	1754	-4935	-10460	2000	12932	906	3845	-3172	-17720	-3664	-6980	1564	7506	-2347	-13300	-2260	-5632	714	17189	-2692	112	119	1
-32768	-976	13204	-7300	-32768	-32768	-22528	-3020	-12036	24050	-32768	-10478	-2552	-1380	-6476	15605	1184	-6238	-10260	1464	13280	778	5535	-2320	-18764	-1104	-672	8020	7533	-2271	-17992	-812	-2768	664	15714	-3298	115	122	1
-32768	560	11760	-7526	-32768	-32768	-29224	176	-15504	23542	-32768	-1471	-10188	-2500	-996	23077	-4207	-8498	-10112	2296	13800	683	7576	-2595	-16208	6160	4956	6559	8918	-4318	-19512	1268	7064	-1779	12172	-1095	129	119	1
-32768	22876	-2528	-4200	-24208	-32768	-26444	4200	-15768	14241	-32768	1623	-32768	-17392	19072	23158	-30518	-17441	-10004	2992	14192	356	10871	-2958	-16820	6204	3888	-40	13023	-6364	-21940	3252	8580	5349	8974	531	76	119	1
-32768	15720	-29452	1952	-19434	-22819	-9632	11584	-19804	-4400	-18659	5184	-22912	-152	18588	8375	8029	-11828	-10048	4528	13840	46	16150	-4052	-20980	2884	1580	1053	15117	-8099	-22372	7552	3004	10557	6162	-770	9	113	1
-32768	32767	-32768	-6370	-16437	8627	5416	448	-7812	-15935	-2872	-5380	-7828	5292	32608	9171	11698	11234	-9276	4780	14468	-907	21968	-6447	-20944	2316	1428	9787	16235	-7745	-21268	5748	2920	10829	3296	-54	52	108	1
-32768	4708	-32768	9205	12582	11054	-5188	-2848	-4572	-13126	17932	-4275	-20848	10936	22152	2248	4984	16021	-9640	4348	15288	-2793	28973	-9503	-21696	4320	2784	12836	17619	-9253	-21812	3636	3928	9470	-2105	235	115	122	1
-18016	-18064	32767	25490	16266	19160	-32768	-5600	30244	-10784	18288	11247	-22936	7432	7836	-4817	16290	7411	-10080	1884	15508	-2248	32767	-11405	-24892	3120	3784	9441	19190	-11106	-24180	8704	7956	12918	-5562	-1258	106	124	1
-1576	7880	7900	14889	26861	15435	-32768	-6764	32767	-3795	15071	11550	-15492	7976	5320	-3176	3290	-1999	-12344	4964	14576	-31	32767	-15372	-32768	-3060	7804	9919	19694	-11738	-29020	8128	17668	9643	-20924	-1139	122	117	1
-32768	11264	25012	6311	12972	18562	-7528	13024	-12320	32767	23022	2783	-32768	-17888	2660	1812	12707	-10722	-32768	12544	28672	9344	32767	-15320	-32768	5052	11040	20496	17923	-10180	-25888	-5492	13084	995	-20672	-3801	114	107	1
-7240	-19300	4344	12641	1984	12398	-32768	1172	-20948	8491	24664	119	-18680	11860	-18804	12016	9412	-2596	-32768	14584	27324	11362	32767	-25597	-32096	15652	320	23877	20279	-10154	-26800	-4544	12004	-917	-19119	-4343	117	104	1
-18660	13840	17520	8160	215	9272	-13060	3052	-18784	15577	19923	-85	-8644	7068	-16948	-8569	8538	3385	-32768	15084	32767	20875	32767	-27279	-25504	13412	-8744	14413	19379	-11926	-26156	12144	-10224	6122	-19184	4504	169	101	1
-14196	-5608	12144	6206	-1851	5512	-12876	3248	-13144	-8272	15260	-1896	-12460	-9796	-15320	-5714	8205	8964	-32768	17904	32767	21904	32767	-27803	-25860	-2384	-9392	308	19038	-12229	-28412	3912	-9572	-4493	-20651	6150	152	97	1
-10900	-6260	11332	3729	-1440	3156	-13848	-4168	-10160	-19220	9846	-570	-13840	-8408	-11292	8965	11712	1285	-32768	32767	32767	15152	100	-10191	-17504	-12220	-26180	-10274	11907	-7922	-27472	-4804	-8116	-17641	-28803	5504	157	67	1
-11044	-3144	12312	2151	-641	2918	-20276	-5948	-7936	-13916	7699	3454	-20480	8080	-6640	6245	14309	1207	-3996	32767	19332	-15083	-21405	2693	-15472	-6620	-4180	12824	3241	-3120	-25608	-5988	-3220	-13558	-30662	6918	152	127	1
-10116	-2644	13004	751	288	1875	-20164	-280	-5392	-6150	7269	1493	-17392	4816	-3724	-4731	13255	4319	-60	32767	17428	-18575	-22030	2170	-13436	336	-4244	18678	-5181	4148	-24748	-488	-5980	966	-27008	8887	161	149	1
-10492	-3448	11948	-56	1278	1104	-17432	-3268	-4548	915	6639	1764	-16328	1492	-4296	-10236	14395	6806	1436	2040	15992	5300	-23059	14116	-12172	1276	-4708	16452	-6389	5114	-21220	1816	-7520	4289	-23376	9230	154	199	1
-10096	-4004	11328	-16	1088	776	-13844	-2612	-4104	4903	5676	1826	-13604	-1784	-4308	-8984	16772	6634	-2880	15100	14488	9095	-27552	17643	-5604	-3044	-5548	-13396	-12660	12733	-19076	-1880	-8916	1252	-22292	6399	159	175	1
-12092	-4564	10812	190	982	1123	-15660	-2696	-2508	4866	5218	1838	-15540	-964	-3508	-6162	17157	4430	-6928	11064	14776	339	-32768	18654	-5540	-7112	-7148	-13342	-19396	17722	-12732	-1932	-9584	878	-21560	5311	155	150	1
-10124	-4792	10912	267	682	1643	-17836	52	-2500	-1769	3710	1745	-13868	-2272	-3376	-1363	17889	6237	-4852	2152	13480	3388	-32768	23801	-5416	-7220	-5348	-9527	-25237	20773	-8560	-1828	-10116	2464	-17483	4778	126	152	1
-10544	-5248	10876	794	506	2518	-14652	608	-1336	-12346	2689	1317	-13264	-3956	-1956	5536	20026	5441	-6192	1776	13996	8865	-32768	27254	-6328	-7248	-5972	-7830	-30005	22529	-6208	-2768	-10484	3673	-12851	3378	131	165	1
-9948	-3120	10972	821	447	2757	-13872	-3756	-12	-12077	3461	69	-15568	-4384	2364	5607	23612	6747	-12452	2092	17780	10723	-32768	29061	-5548	-7480	-7740	-9653	-32768	23865	-4040	-3756	-10908	4449	-7221	1488	139	160	1
-10184	-2804	11448	649	899	2667	-16896	-5796	2312	-1159	5628	1232	-17416	-5732	-2588	-270	18547	8535	-18488	4100	21512	10059	-32768	30406	-6868	-7720	-10032	-11026	-32768	24856	-4836	-4032	-13056	3599	-2354	691	135	156	1
-10320	-3172	11104	503	1308	2476	-15672	-4464	1136	7475	7508	2104	-18672	-688	-2984	7103	12477	6422	-26088	7728	24380	7107	-32768	29920	-12488	-7820	-12816	-11029	-32768	25618	-3228	-4284	-13504	3960	880	373	105	176	1
-10344	-4088	11972	1058	2088	3223	-15336	-1040	-32	8428	9140	1716	-18784	1936	2604	7872	12585	1834	-32768	8036	24308	4990	-32768	30854	-19124	-3408	-11876	-10096	-32768	24211	-1756	-2100	-13560	-418	2354	1007	130	193	1
-10492	-4016	11660	388	3279	4048	-17356	1240	-744	-886	10380	2292	-16668	1948	2816	-1450	15193	2765	-32768	7076	20068	2934	-32768	31793	-23728	-4828	-13080	-15075	-32768	22167	-4272	2108	-9136	-8980	2340	3521	128	202	1
-11252	-3176	12288	-848	4965	4602	-17468	-72	2648	-10067	11038	1528	-18756	1684	2436	-7966	13538	1939	-32768	-4812	10348	2530	-32768	31751	-27752	-9280	-18140	-17656	-32768	16558	-13884	3720	-992	-20819	-4009	10190	130	144	1
-10336	-1056	14268	474	7098	4818	-15188	-1656	5276	-12137	13085	2794	-20348	1288	3500	-7528	9057	-1486	-32768	-11988	-10140	3248	-30808	21750	-24912	-5268	-14344	-4406	-32768	12611	-32768	6020	18208	-28815	-10895	11499	127	253	1
-11192	-2616	14596	492	10876	4536	-17228	-1576	2120	-8493	17005	5232	-19640	-3156	16	-9416	5571	-224	-32768	-22648	-25412	3592	-23697	12000	-10664	-5380	-18888	-3396	-15612	9864	-20064	1008	32767	-7994	4469	5905	113	253	1
-10560	-3104	15132	561	11603	4536	-22044	-1892	-1516	-4457	19025	5232	-20740	-5176	-3568	-9054	3819	3687	-32768	-26940	-32768	1407	-900	2060	-4268	-944	-6088	4412	-140	3312	-7112	-7420	32767	4303	14006	-9006	125	253	1
-10520	-6176	14716	3947	21246	8791	-21692	-1344	-440	-5578	19382	6352	-19880	-5720	-2244	-5583	586	4517	-17904	-32768	-32768	-15350	24610	-11893	-7648	-1848	-14164	1177	21810	-8413	-24264	-124	12240	9176	3254	-7715	134	114	1
-11604	-6348	15280	6427	28446	13931	-20468	-3020	-136	-2277	20597	6441	-22324	-4120	424	-2322	-4620	5154	-12924	18584	32767	-4565	26011	-7695	-32768	5296	28004	9011	14633	-8300	-30200	7732	13036	16715	5302	-4172	139	52	1
-11548	-7028	17004	8415	32767	20246	-27216	-2700	2236	-1803	21429	6536	-28368	-7800	8572	-1774	-15329	6200	-11800	-8092	14284	-6096	32767	-14493	-14128	-2712	-3396	-7629	15274	-274	-9856	-15764	-7408	8440	6852	-1934	141	31	1
-12304	-8516	17896	3680	32767	29059	-32768	3072	13336	-10202	20929	6725	-28836	2488	13284	118	-20298	5633	-32032	-3492	20352	-5704	19067	-15168	-17056	-7988	-9884	-11271	23589	-13645	-29100	-792	-2568	-305	6376	6527	132	62	1
-27860	-17952	11312	9991	32767	32767	-29260	-1464	10440	-30941	19240	5902	-26240	13512	12300	-3069	-18192	6199	-23064	13556	8676	-13596	5085	-11753	-22696	-6360	-23712	-14455	22075	-9155	-12224	-7052	-7804	5043	8334	8809	124	64	1
-32768	-11108	17732	1257	32767	32767	-22664	-21924	264	-31184	19889	5585	-23032	-10268	-2112	-13316	-17610	1280	-15960	-1128	18080	-10316	1408	-7475	-15268	-7084	-16720	-2526	15958	-2844	-11792	10260	-15872	10212	8859	-2950	137	51	1
-32768	-24356	16164	6611	32755	32767	-27976	-9664	-8920	-12671	18198	5540	-24636	-9988	-10264	-2339	-19106	-7049	-11992	476	17216	-6532	-1465	-4493	-19672	808	-10764	79	14860	-3343	-13044	14372	-12840	-7904	13322	-1483	142	45	1
-1500	-29256	18556	4235	23806	32767	-22456	-6796	-11388	1384	15732	873	-29592	3376	-7172	3996	-20511	-6064	-9792	4844	14044	-4300	-1332	-3501	-14024	1580	-9300	1513	10520	-3948	-18280	1112	-8052	-12110	13348	-2789	131	59	1
-32768	-15472	20672	-6609	16919	10427	-18924	316	-29100	19448	9477	4077	-23840	3788	-9688	7280	-21044	-7658	-9012	3532	14392	-2830	-182	-2595	-18932	-2572	-6324	813	8134	-3739	-17284	-4964	-3012	-5099	13602	-1301	124	65	1
-20012	-32768	15160	-1127	-13730	-20144	-12124	10108	-11264	-2377	4500	-2819	-23832	5216	-6504	3833	-22762	-9064	-8824	2808	14660	-1306	1547	-1843	-20348	-4236	-3192	4612	6048	-2296	-17360	-4772	-1204	3061	13621	-3076	121	77	1
-6536	-19220	10420	12844	-20761	-20370	-9272	-1084	-8136	-17214	-5673	-5538	-19704	2016	-9208	-7873	-21699	-9316	-9208	3140	14128	-220	2196	-1291	-15800	424	-3508	4007	5714	-1725	-15992	-1428	-1668	7885	14696	-3756	122	89	1
-360	-1492	8536	5217	-21609	-22173	-7016	-7720	-8192	-5376	-12152	-9101	-17092	136	-10652	-9284	-18334	-11107	-9388	3268	13748	257	1968	-932	-16132	3692	-3216	-1519	5874	-1217	-15824	724	-1868	10095	15563	-3352	119	101	1
-5312	-4184	8616	-9267	-21265	-27087	-1812	-5356	-8844	19584	-16266	-11301	-15136	2680	-10920	-7273	-16842	-11595	-9328	3852	13236	361	1865	-779	-16776	1964	-3172	-4103	5228	-1066	-13564	3132	-2116	10154	16450	-3980	121	114	1
-11188	-10388	9928	-9794	-26808	-29221	-4300	2728	-10896	27019	-21789	-14266	-11056	3232	-11292	-5036	-16506	-10671	-9296	3760	13460	278	1464	-1019	-15548	-372	-3112	551	4493	-1716	-14360	4120	-1928	6350	17373	-4097	110	123	1
-9748	-6540	10616	-6354	-32078	-32282	-5400	6624	-9216	20351	-28555	-14239	-8804	3300	-11220	-5361	-14915	-8664	-9524	3984	13236	-6	1185	-1217	-15920	896	-2460	7664	4370	-1267	-14944	5108	-664	2800	18412	-3696	118	115	1
-9828	-2364	11532	-8739	-32468	-32768	-6416	6100	-9136	10136	-32768	-13313	-5616	1932	-12388	-7616	-11333	-8866	-9444	3436	13164	-289	553	-1428	-16384	3872	-1008	8593	5251	-1078	-13604	5852	916	-2006	18205	-4585	138	111	1
-15660	-3636	13252	-11196	-32768	-32768	-7116	2580	-11080	4818	-32768	-12377	-6132	2792	-13604	-9391	-6201	-6619	-6300	2588	12952	-207	473	-2290	-15444	5084	-396	3209	6232	-2104	-16392	6264	-756	-2307	18127	-4593	142	127	1
-20760	-5656	15828	-9175	-32768	-32768	-7480	1124	-12672	6078	-32768	-12667	-3460	832	-12732	-2371	-3155	-3940	-9468	3472	13180	-404	600	-1655	-15468	2820	-904	-2027	7137	-2896	-16280	4144	-2412	-2714	14881	-2645	135	121	1
-28924	-7456	18096	-5827	-32768	-32768	-11204	296	-13868	9463	-32768	-14457	-2976	-440	-12812	7510	198	-5009	-9144	3700	13272	-238	533	-1991	-16552	944	172	-1645	8416	-3162	-16364	1404	-1184	-5154	13811	-2046	127	115	1
-32768	-1464	17456	-6662	-32768	-32768	-16616	-784	-10864	15753	-32768	-12815	-3508	876	-10108	18185	2382	-4837	-8468	4500	13780	731	824	-3321	-17024	2152	-1964	-72	8954	-2791	-17532	980	-108	-3874	13021	-2165	122	129	1
-32768	-228	11528	-8305	-32768	-32768	-24016	1800	-13424	22787	-32768	-8781	-2904	992	-6812	21360	2733	-5338	-9312	3028	13868	632	2067	-4401	-17920	3448	-128	1969	9945	-2553	-17836	1340	2272	587	11910	-959	118	126	1
-32768	11352	7364	-7773	-32768	-32768	-30068	-888	-13996	17544	-32768	-1726	-14004	-1152	7080	26180	-9366	-6928	-9380	3364	14392	473	3868	-4856	-16976	2112	2796	5329	11285	-3685	-17224	-1212	5652	4075	10127	1109	134	133	1
-32768	28412	-5008	-7068	-22536	-32768	-24496	5716	-7300	6916	-32768	617	-32768	-10112	19232	18222	-28253	-15699	-11076	2952	14920	40	7918	-4621	-17716	412	3188	6709	14203	-6360	-21584	772	4832	7558	8307	1149	64	126	1
-32768	22436	-26060	-33	-17985	-20573	-11336	4732	-16884	-8819	-18773	4569	-24780	32	14880	7646	6413	-14164	-9100	2840	16352	1030	13684	-4784	-21964	3936	1568	4068	16582	-7765	-22920	5580	1812	11312	5515	-346	18	119	1
-32768	32767	-32768	-2245	-17739	15177	5276	3260	-7348	-10632	-3664	-5168	-7168	5716	29240	-1706	15008	7362	-7864	3800	17116	1909	20797	-5977	-22428	916	108	4563	18025	-8191	-22604	3764	532	10381	1343	-825	78	121	1
-32768	30968	-30360	-22983	-2791	7469	-2464	2596	-14968	-4201	16447	-5963	-15672	8480	19868	-5506	1095	19373	-7484	5008	15924	731	29602	-7232	-24356	-960	544	8006	17379	-8719	-22928	2272	2376	8791	-2388	466	130	125	1
-22904	-32768	18044	25522	5287	22504	-26224	-3808	5740	-14510	23021	8152	-25612	5316	-5932	-6802	15013	12182	-9144	3696	16600	-277	32767	-11111	-26052	1208	2692	9563	19657	-9061	-25116	4744	8384	11994	-4650	-1970	138	126	1
8520	-10168	24072	16723	25533	3695	-29288	-2632	14172	-12325	19614	8246	3496	6396	-21140	-13101	17905	2528	-11928	7212	18544	-1531	32767	-16410	-32768	644	6904	11193	20330	-9516	-32252	7696	22664	9277	-20889	-898	111	123	1
-21652	7156	15248	19037	29298	24789	-12236	-4164	-2624	32767	15674	1311	-24156	-3448	8048	-5951	3238	-7194	-18140	11264	15404	1995	32767	-24091	-32768	2208	16872	26530	19568	-8142	-22332	-9700	20048	4156	-22892	-4404	99	99	1
-32768	-13696	24672	10835	6047	20821	-18516	13920	-13060	25597	23004	4405	-32768	-9260	-5440	18093	15711	-6062	-32768	10208	20932	17907	32767	-23897	-29996	14628	3700	32767	21027	-7035	-27780	5724	5192	13447	-24058	-1562	26	78	1
-14596	-360	18896	14220	2013	14251	-32768	6928	-14300	-4152	17155	-1508	-17284	21776	-10280	-3818	10584	3577	-32768	17256	31340	29722	32767	-29820	-27176	17856	-15540	26397	17794	-9714	-27368	17812	-9196	16312	-22960	5004	126	108	1
-12036	-7444	11328	4342	783	3257	-15228	10832	-10920	-12553	16174	-3297	-6692	-2180	-14236	-9664	8015	9511	-18748	24936	32767	30307	23401	-27654	-23812	4952	-14116	922	20631	-11761	-27664	18136	-12068	14229	-23323	5878	130	103	1
-10744	-2412	12068	2857	779	1954	-12356	-7560	-7620	-23514	12421	2692	-8648	-16548	-10348	1824	9639	8011	-32768	32767	32767	19402	-1593	-20632	-19608	-12928	-25060	-17452	14748	-8408	-30740	1512	-9148	-18392	-29066	8129	132	88	1
-10340	-5964	11584	2124	1128	2150	-9508	-16808	-4460	-349	9207	4108	-14656	756	-7472	14853	12788	2196	-2520	32767	17392	-14817	-29699	-3612	-10288	-8864	-6816	11071	3547	-3729	-27460	512	-4852	-12756	-30888	10050	138	129	1
-10544	-5696	11068	1302	1191	2010	-18960	-8188	-5016	27080	11501	49	-18212	7900	-6756	7361	14997	943	10244	9004	9420	-20403	-24263	-3301	-12772	-332	-5072	22523	-5633	4403	-18744	2220	-6244	2389	-24348	9973	149	178	1
-10672	-4200	11504	726	974	2013	-25140	7176	-5276	20292	9454	2564	-16664	2552	-4636	-2313	14114	4279	8648	1892	9012	4173	-17759	12201	-2708	5036	-4976	1810	-12249	9973	-19972	2172	-7796	4924	-21484	10620	158	178	1
-10512	-4136	11552	-45	1000	1428	-14448	10716	-2808	-8978	6043	1543	-14940	-948	-3312	-5408	15093	7301	2104	16516	9132	12130	-14176	22028	-2628	-1368	-5212	-13488	-14591	12336	-17184	436	-10292	539	-20104	9032	159	152	1
-10252	-4504	10108	-389	948	1384	-12528	-348	-2716	-28132	5390	-7	-14496	-1736	-1544	-5521	18336	6939	-7496	17236	12620	2910	-18279	25951	-3236	-5284	-7896	-16692	-20918	16728	-12560	-1628	-10248	-1466	-19269	6605	125	147	1
-10908	-5252	10312	-140	842	2001	-16404	-13204	-528	-18975	5111	138	-14904	-1776	-1356	-5015	19125	6975	-10308	9880	14396	-658	-27334	30252	-2292	-5444	-7760	-12166	-25725	20293	-9012	-2352	-10140	-1810	-14542	5874	127	149	1
-9460	-5932	10192	530	48	3025	-15928	-10048	1632	1573	6556	2221	-14100	-1760	-1132	1989	19587	3491	-11844	5252	14940	2965	-32768	32291	-4180	-4856	-7452	-8797	-29640	23039	-6764	-2496	-11356	-24	-9468	5702	136	134	1
-11020	-4548	10520	1948	-837	3373	-12596	-2820	-1544	8858	7482	2197	-16336	-5520	-4888	3135	14754	634	-14480	4504	16100	5661	-32768	31911	-5348	-3836	-8604	-11818	-32768	26126	-5296	-2260	-11792	1043	-4710	2813	136	124	1
-11216	-3992	11220	1819	-783	3037	-14008	3144	-1280	4929	8772	1460	-16792	-5336	-5080	2832	14545	1009	-19736	4480	19332	7837	-32768	31363	-7472	-4744	-10324	-18642	-32768	28748	-4952	-2524	-12692	-662	531	899	139	135	1
-9488	-3772	11604	858	368	2946	-19540	1112	-1756	-3605	9042	1498	-16648	-824	-4140	5465	13773	3535	-29164	11600	23380	9348	-32768	32767	-13448	-7916	-16288	-23718	-32768	27016	-4660	-1960	-13512	-5201	4462	926	140	162	1
-12272	-4572	11904	-629	2136	2909	-17644	-2632	-32	-5738	8744	1157	-17968	796	-1272	-1565	12860	3876	-32768	11100	21944	5639	-32768	32767	-21388	-8428	-12784	-17552	-32768	22536	-4596	-2616	-13112	-12318	5143	1248	135	186	1
-11840	-5812	11952	-173	3447	4534	-15876	-5556	2628	-2751	9921	1890	-17980	2604	1084	-2390	12124	2595	-32768	656	19112	4467	-32768	32767	-24524	-6288	-14296	-14745	-32768	22550	-7352	-2296	-9552	-15259	3475	2738	126	214	1
-11016	-3960	11948	-1108	4662	5415	-16416	-2372	2532	-2433	11820	1658	-19140	1928	3496	-3821	11484	-1045	-32768	-10332	8468	3881	-32768	32767	-30068	-7776	-18208	-9576	-32768	14233	-19920	4736	2196	-16389	-5877	13594	131	160	1
-10988	-3528	13164	279	7964	4330	-17004	4320	1636	-7891	14175	3824	-19172	-1184	616	-7570	8745	-2227	-32768	-9156	-9804	-2565	-32768	20817	-17492	-7584	-16168	-3061	-32768	12254	-32768	3696	23408	-24884	-11435	18234	133	238	1
-11988	-4416	13632	878	11395	4800	-18188	-2996	1240	-9523	16432	4423	-19084	-1380	-224	-8197	7920	-1962	-32768	-29384	-32176	3786	-25101	3677	-8776	-828	-15160	-3188	-11535	10434	-22132	4152	32767	-1202	17972	5977	133	253	1
-11720	-5624	14472	3010	15205	7130	-18532	-4212	364	-8843	16669	4313	-19164	-3992	-1456	-7695	4013	2682	-32768	-28064	-32768	13394	-2350	1209	-6756	-3580	-6408	-2127	5583	2173	-15268	-13988	28420	2098	4798	-11893	134	250	1
-11608	-5660	14568	3475	15958	7674	-18524	-3008	-700	-605	19765	5751	-19564	-4996	-2128	-4243	540	2064	-6912	9456	528	-29204	20422	2446	-5052	-5724	-15156	1598	24166	-10886	-28308	-116	26312	3573	-7302	-10550	128	97	1
-11156	-6512	13928	6073	27577	13858	-20248	-492	-1096	307	21394	5433	-21428	-3728	524	-4886	-4355	4745	7668	32152	32767	-16550	14431	-1558	-32768	8876	20888	18129	14472	-6276	-2276	916	-24788	32767	23430	-741	140	47	1
-11420	-6484	16072	6714	32767	19830	-26536	-1384	1508	-4044	21640	5128	-27028	-6192	7672	-4174	-13149	5056	2916	-26068	-488	-8937	32767	-9478	-17304	-5236	-4744	-23307	7986	5194	-17808	-5992	9252	3983	11893	3507	143	82	1
-13544	-8424	14568	2609	32767	28317	-32768	4432	10804	-14201	22074	5319	-25836	4540	13952	-1573	-19567	4184	-2960	-21748	-68	-8954	32767	-7437	-15916	-19480	-10132	-9775	16887	-15647	-28548	17832	4956	-10503	2976	6534	131	97	1
-20796	-16304	10952	7736	32767	32767	-28164	-1096	12500	-32400	20913	4128	-23216	13656	14260	-6633	-16403	5623	-32768	32767	23424	-14092	9311	-16480	-32768	4520	-12696	-12182	18030	-12530	-32524	-19444	-6940	-1666	12790	-1150	131	180	1
-32768	1532	19948	-251	32767	32767	-23092	-19556	1164	-29873	22433	4843	-23344	-11948	-1220	-21293	-18403	1737	-13328	-21792	30188	-9742	3943	-9107	-18292	-5292	-10504	-5030	13935	257	-12780	5888	-11968	12277	10337	-5900	144	84	1
-32768	-24908	17516	923	32767	32767	-24212	-22580	772	-27522	22898	5267	-26720	-20468	-13984	-6557	-17623	-7325	-10412	13000	11736	-5533	876	-4661	-14064	-20	-10552	-6387	15846	-5608	-7920	13744	-14472	-8238	13452	-1036	152	90	1
-15276	-25740	20940	3224	26938	32767	-23372	-5432	-13108	2424	17653	3113	-31436	1684	-8820	9721	-20937	-7358	-10480	7372	13476	-3649	421	-2439	-9624	4344	-10036	-6942	12431	-4906	-18212	-1200	-10820	-12504	14177	-2173	134	99	1
-4576	-29856	20060	5748	26638	32767	-18876	-3336	-26380	20070	9298	6260	-26408	3472	-11316	14999	-22656	-6775	-8716	3696	14788	-2772	1129	-1928	-22644	-3648	-8544	-3118	8698	-2331	-16084	-5684	-5704	-1179	13470	-3267	119	85	1
-17328	-30092	17844	4164	-16292	-19603	-13216	8176	-12244	2797	5568	-577	-25312	3024	-6948	7882	-23761	-9434	-8448	3660	14636	-1419	2819	-1463	-21100	-6920	-3256	12245	4352	-1201	-19672	-4188	-3780	8306	15465	-1789	127	95	1
-4992	-16024	11308	12645	-21982	-19952	-10372	-1204	-8504	-13723	-6684	-1933	-20528	-4	-9612	-5195	-21685	-9745	-9252	4096	13832	-29	3573	-1035	-15548	2676	-2716	17679	3790	-497	-14860	-568	-1484	15250	15871	-2069	123	93	1
716	-2008	8124	3881	-22683	-21079	-6588	-7432	-10516	-4050	-12784	-4178	-17960	-1664	-11416	-3902	-18210	-11338	-9768	4856	12980	419	3009	-949	-15888	10232	-996	7747	4101	-1105	-15152	1556	-1432	16104	16143	-2493	119	88	1
-4116	-4532	7516	-7873	-22411	-23814	-1876	-5516	-9324	19382	-17765	-7309	-15340	2008	-11280	230	-17182	-11152	-9520	4820	12820	310	2392	-1029	-15260	7044	-804	-4151	5601	-2480	-12176	7972	-412	5057	16856	-3245	120	84	1
-9012	-10592	8528	-7169	-27218	-24207	-3500	2060	-10584	27326	-23136	-10418	-11940	2480	-11216	2781	-18923	-8571	-9444	5296	12460	-264	1641	-1434	-15592	2016	-1604	-1664	4555	-3188	-12844	4152	1928	-2245	15888	-1285	125	83	1
-9308	-7620	9772	-3369	-32396	-26537	-3684	5624	-9804	22145	-29517	-10912	-8784	3480	-11844	1451	-16085	-7584	-9564	5132	12492	-1039	847	-2040	-13532	1388	-912	6305	5186	-2646	-14032	3556	1404	31	14512	-2288	130	83	1
-11108	-3832	10816	-5971	-32768	-31631	-3976	6816	-11012	11282	-32768	-9962	-6124	3164	-12508	-1631	-12662	-6716	-9296	4320	12532	-1048	-137	-2445	-15648	3284	-428	9249	6793	-2505	-18368	9164	-3528	4892	13719	-2892	135	94	1
-14880	-5396	11328	-8790	-32768	-32768	-6160	3192	-10716	3380	-32768	-8541	-4444	3044	-13064	-2683	-7936	-5655	-10460	4336	12672	-1133	-690	-2599	-17004	4732	-96	5032	7241	-3316	-17640	6888	-4460	-2756	11512	-2089	137	102	1
-15376	-5764	11628	-8841	-32768	-32768	-6828	616	-12692	4810	-32768	-9841	-3392	3560	-13708	7	-3243	-3637	-9280	3668	13176	-1103	-54	-2690	-16432	3796	-244	-1851	8308	-4057	-16052	1764	-2452	-5437	10905	-1882	133	105	1
-27932	-10708	16204	-5488	-32768	-32768	-10004	-896	-17212	10584	-32768	-12970	-3992	2436	-13324	5531	-1117	-3154	-8984	4136	13388	-306	388	-2952	-16744	484	-1152	-4825	9021	-4118	-14888	-2044	-184	-558	12001	-2253	127	119	1
-32768	-3864	16336	-3468	-32768	-32768	-14728	-576	-9588	17343	-32768	-12441	-3784	2456	-13880	6538	-718	-3043	-9888	5292	12908	1671	748	-4181	-17148	116	-2140	-904	9462	-3488	-16444	-2120	364	1594	12294	-2196	113	125	1
-32768	3116	12900	-9135	-32768	-32768	-23488	-100	-15116	28329	-32768	-7566	-3696	1868	-6296	13225	1810	-3696	-9016	4756	13784	1712	1507	-5027	-16544	3032	344	4046	10505	-2913	-18192	-248	2988	1999	11542	739	109	127	1
-32768	10736	6344	-11749	-32768	-32768	-27040	1408	-15268	17195	-32768	-580	-8852	-1252	-552	19315	-4567	-6188	-9488	2160	14476	-567	5256	-4304	-17772	668	2812	7313	12840	-5223	-19476	2500	4340	6111	8939	2261	120	125	1
-32768	24800	308	-3006	-27479	-32768	-26256	1860	-10964	566	-32768	1260	-32768	-18844	12804	14245	-32768	-21028	-12572	1692	14576	186	9047	-4597	-18756	2928	2608	7317	14765	-6736	-18544	3748	2920	9942	7262	18	92	117	1
-32768	17756	-24368	7837	-24579	-16895	-13584	3412	-20348	-11049	-22714	4839	-21448	6608	16084	14300	8215	-17566	-9148	3748	15540	1124	15102	-4324	-20828	2988	-384	2284	16345	-8608	-21156	6792	-272	9226	6737	-1287	0	111	1
-32768	32767	-32768	-6426	-22446	21767	2580	-3820	-7288	-12153	-6004	-5064	-2368	7132	32767	5936	12004	9303	-9080	3936	16356	1497	21305	-5366	-21308	1260	-324	4152	17016	-8715	-20804	4376	-516	7451	2714	-1351	14	115	1
-32768	30380	-32768	-32768	-3530	10297	1224	3336	-13968	-1610	17012	-5915	-22824	17832	23872	-6261	7170	18768	-8044	4452	15232	550	29305	-6213	-21752	292	480	6089	17654	-9976	-21140	2696	2036	6399	-1219	-897	71	120	1
20928	-26836	21712	30309	11473	32767	-28976	3592	8316	-16307	19202	5638	-10240	6484	-8496	-28519	19780	11322	-11188	4684	15508	-205	32767	-9263	-25604	2192	2660	7593	19324	-10514	-24948	6192	7080	9821	-3662	-2968	79	123	1
-2924	-1188	7244	12638	32767	-126	-32768	-12988	16148	10292	6014	-2522	-12848	6348	-12128	-18347	12187	-2138	-12512	8916	16872	242	32767	-14459	-32768	780	7420	10980	20152	-10646	-31020	6612	16980	8245	-14958	-1669	123	128	1
-32768	16960	30844	12646	32767	20179	-7592	5792	-4132	31623	14209	-2009	-32768	-18320	4984	-4411	6346	-5963	-18972	10596	18820	4595	32767	-22136	-32768	6436	14640	27373	18566	-9242	-32392	6128	21888	7624	-21592	-948	114	104	1
-32768	-22016	6352	6730	3657	17595	-30892	-676	-13656	12788	24067	6030	-31980	808	-9648	24751	12845	1042	-32768	11992	18336	15109	32767	-23005	-32768	7768	15840	31093	18639	-8971	-27428	10596	3280	10936	-20689	-813	49	94	1
-16824	12912	24252	11482	2609	12814	-24392	2464	-14264	14208	15562	622	-29180	7912	-11680	21546	11950	868	-32768	17664	31276	24856	32767	-30882	-26716	15780	-13416	17625	19163	-11676	-25152	14464	-8428	9686	-21016	4449	157	106	1
-13996	-14248	9588	3566	733	2115	-14200	9868	-7696	6565	16335	-1609	-6608	-440	-12752	-11669	10474	11029	-13524	19796	32767	31570	26656	-24257	-25588	2604	-11180	-1785	21177	-13010	-29376	6444	-11844	-3844	-24298	5503	144	96	1
-10548	-4424	11088	1671	1291	1172	-13592	9288	-7016	1873	15202	-1768	-9828	-12908	-10436	-331	9580	6090	-32768	32767	32767	23689	3034	-18682	-21228	-13840	-22532	-12100	13943	-6754	-28632	-2132	-6976	-21374	-30904	5778	147	100	1
-10460	-4740	11596	1624	969	2212	-11612	-9988	-6144	-19239	8203	1063	-14024	-1700	-8068	6714	12783	-432	-2220	32767	22580	-15010	-26365	-3083	-12112	-8528	-4380	12719	3533	-3468	-24108	-3632	-3380	-9135	-30731	5634	152	112	1
-9884	-5544	11208	1053	1137	2315	-21592	-10192	-4164	-1399	8321	1000	-16376	6884	-6328	1215	15830	2381	10592	8416	15144	-21080	-23572	-2651	-11548	-264	-2880	22716	-6436	4433	-21028	1732	-7280	2884	-25894	9539	148	144	1
-10304	-4124	11428	707	879	2202	-19280	-1936	-4108	8502	6860	2910	-15992	5288	-6228	-7594	17006	3967	7664	-184	14260	6113	-20068	11593	-3620	4668	-3840	4373	-13229	12013	-17776	2632	-8420	5109	-22893	8900	174	181	1
-10176	-3888	11228	638	471	1871	-18548	-708	-3752	8283	6646	3050	-13660	-2712	-3872	-7494	18791	6142	328	15100	13444	15505	-20681	21070	-3124	-2432	-5616	-10363	-16300	13694	-16268	-608	-10080	1978	-20143	6825	169	167	1
-9652	-4456	10828	682	-288	1824	-13692	5104	-2464	481	5847	1405	-15692	-6160	448	-1551	20486	6835	-7868	17324	15008	2686	-27100	22611	-4188	-4884	-7404	-12946	-21704	18142	-11712	-1772	-9624	724	-18588	4295	152	174	1
-10400	-5816	10696	707	-329	2208	-15696	-6416	2948	-6879	5575	765	-13592	-5128	576	6607	19913	7221	-9784	5920	16248	-597	-32768	25885	-4676	-5292	-7204	-9980	-27416	21533	-7908	-1504	-11160	1954	-13554	5135	134	152	1
-11120	-5104	10496	1531	-853	2880	-13780	-6412	3788	243	7014	1659	-16376	-2748	-1540	3825	12455	3096	-10904	4016	16388	4603	-32768	29375	-7172	-5088	-7744	-10014	-32129	23973	-6716	-1972	-11744	4296	-8675	3884	139	144	1
-9392	-3972	11308	2309	-1179	3725	-13204	-2740	2528	5494	8724	1691	-19092	-2692	116	4103	10366	2142	-15280	4704	19280	5880	-32768	29387	-8320	-6060	-8520	-14325	-32768	25797	-7560	-2340	-12512	4245	-2882	2189	145	138	1
-9464	-3904	12116	2138	-837	3798	-17436	688	840	3435	10216	1325	-18480	-2460	-68	2359	14112	4581	-22632	5984	23516	8233	-32768	30614	-11388	-7344	-12240	-20037	-32768	26161	-8168	-3480	-13240	-258	-9	810	149	149	1
-11428	-4220	12364	1731	611	4231	-18616	-820	-1328	-1392	10838	1628	-17324	196	-2824	526	15351	4750	-32768	13132	25896	6466	-32768	32767	-17348	-9132	-11820	-17996	-32768	24231	-5964	-4052	-14612	-3020	1696	440	131	174	1
-10288	-5336	13032	1102	2707	4520	-17828	-2936	-824	-2432	10602	1234	-16996	1096	-2964	-1321	13222	4092	-32768	12572	25384	5417	-32768	32767	-22780	-4648	-14068	-12016	-32768	21450	-2968	-372	-12908	-8291	1662	1295	128	207	1
-11300	-4820	11720	526	4805	6216	-16764	-2304	716	-2465	11378	1614	-17372	2900	1384	-4306	11638	1219	-32768	2424	16468	-1264	-32768	32767	-25524	-6912	-13596	-15556	-32768	19283	-7220	3920	-6512	-15827	-1935	4270	131	177	1
-10496	-2936	12416	206	5969	7220	-15000	-640	2236	-5491	13040	1831	-17432	3468	3908	-4408	10984	-1656	-32768	-9408	1048	-4753	-32768	26192	-28884	-8176	-17312	-11196	-32768	15377	-22256	296	5876	-30765	-10547	12648	147	122	1
-11340	-2556	13464	1900	9314	6386	-16996	2312	616	-9458	15609	3366	-19100	-4396	-1852	-9050	9126	-54	-32768	-18736	-15444	3910	-32462	18266	-13872	-12104	-13516	-2013	-25741	13046	-32768	6928	29980	-28287	-9348	11618	140	253	1
-11120	-2332	14724	2502	13520	7189	-19560	-3004	-1012	-8615	17707	4349	-19200	-4084	-3352	-8818	5921	2509	-32768	-24200	-32768	7415	-15594	7153	-5816	616	-13132	1970	-11381	9104	-13856	-7268	32767	-8607	12648	-3108	142	253	1
-10036	-2820	15136	4095	18080	8393	-19944	-376	-68	-5828	18917	5113	-18868	-4168	-2824	-4313	3191	4653	-32768	-18100	-32768	-10453	11547	-3798	-5784	-2312	-8840	-2453	11616	-3207	-19952	-14052	19320	8967	1790	-11927	135	166	1
-10600	-3868	15292	6209	24049	10579	-18884	-2424	-108	-1735	20522	6493	-19788	-3528	-1408	-2489	-869	4849	-24740	16964	32767	-7681	30589	-1552	-15224	6564	12988	15922	24205	-10066	-26960	2548	22300	12870	-11578	-4603	136	76	1
-11440	-6292	16204	8264	32339	14927	-23000	-3800	400	-1300	21596	6477	-25700	-6072	1788	-2063	-6368	6237	172	-13852	6544	-7146	28500	-16984	-32768	2964	9532	-3405	12076	3126	-11840	-14000	-11288	21757	16659	1348	142	69	1
-12104	-10664	17208	8011	32767	23785	-32768	-596	3176	-2616	21347	6080	-31976	-5776	14084	-953	-21204	4889	-32768	-2428	32767	-4209	27792	-15422	-3656	-11000	152	-13321	17169	-8089	-26828	-692	7588	-55	6133	7784	135	27	1
-16296	-15936	12968	4345	32767	32767	-32768	3172	18188	-21807	19414	5317	-26040	10436	13012	-2827	-18735	5024	-32768	29688	9336	-13252	5252	-15092	-26412	-4608	-24276	-6024	25020	-11029	-16660	4700	-7516	-3626	2905	5169	130	122	1
-31088	2296	18364	7533	32767	32767	-24864	-13968	7124	-32768	19760	5145	-27772	-2100	6272	-13869	-18389	3091	-19304	-12688	23664	-11444	3374	-9680	-20816	-4872	-17112	-2659	12548	343	-15044	-2144	-23644	12506	12520	505	136	94	1
-32768	-29048	16264	129	32767	32767	-26612	-15668	-10852	-25012	22010	7944	-23168	-16496	-9996	-7589	-18076	-4034	-10592	3924	17720	-6470	-834	-5263	-16348	2820	-8664	-8536	16407	-4374	-10484	10760	-13720	3307	12732	-4366	146	50	1
-23340	-27856	22304	5181	25228	32767	-25880	-5948	-1140	-13600	17475	2114	-23672	-15200	-10388	-4723	-18823	-5722	-9748	7160	13100	-3787	-668	-3166	-12368	-2328	-11528	1984	9181	-4570	-14288	12064	-11656	-11302	13930	-2886	144	71	1
-32768	6512	4760	6159	29804	25087	-14220	-10336	-13460	14021	10450	-1396	-24964	4772	-9312	10124	-22057	-7615	-9108	4576	14388	-2295	136	-2762	-18304	304	-7472	-185	9136	-3087	-19340	-6812	-5896	-11134	15425	-2673	128	65	1
-27756	-31460	18068	-5640	-10308	-18973	-14064	6704	-12812	12476	7973	-1581	-24800	6460	-6564	7546	-23358	-9952	-9532	3340	14464	-1285	1625	-1873	-22400	-4416	-4152	3071	4948	-1908	-18168	-9088	-1696	1810	15223	-4380	134	84	1
-5720	-24444	13660	8590	-19777	-23753	-13048	8012	-4924	-9850	-2175	-4793	-21732	4916	-8384	-5036	-22702	-9419	-8960	3336	14308	-16	2360	-1240	-15948	-1152	-1928	5268	3947	-1194	-15744	-2924	-1156	10348	16005	-4544	131	83	1
468	-3980	10632	5037	-20509	-24704	-9628	-3712	-8228	-13961	-10377	-7723	-17432	-152	-10256	-9712	-20245	-10199	-9376	3896	13584	901	2456	-742	-15672	4360	-2524	2720	5523	-890	-15848	2532	-1380	11099	17284	-3804	123	97	1
256	-2036	10524	2525	-19996	-25327	-2224	-6932	-9184	10640	-14975	-10721	-15996	2928	-10900	-7889	-17647	-11141	-9140	4212	13328	885	2040	-738	-16688	3708	-2900	-857	4978	-1010	-14248	4060	-840	7811	18649	-4073	122	117	1
-8672	-10256	10640	-11840	-25929	-29935	-2820	500	-9856	24362	-20130	-15215	-13232	3292	-12184	-6581	-18295	-9766	-9100	5052	13048	276	1815	-1181	-15920	1420	-1592	2734	4071	-1704	-12360	4856	624	1857	19528	-2714	127	120	1
-7904	-4860	11676	-8010	-30698	-29501	-6016	5100	-8612	23181	-26783	-15664	-9420	3100	-11848	-6081	-15551	-8109	-8816	4264	12964	50	994	-1832	-15240	2156	-668	7707	4455	-1495	-14444	5100	1444	-2353	18639	-2457	129	128	1
-8820	-956	12880	-11746	-31863	-32768	-7252	6444	-11048	16014	-32503	-15034	-7200	3192	-12616	-8242	-12096	-8600	-11684	5164	13424	-403	917	-2034	-15712	3940	564	7830	6252	-2162	-17200	7672	-1456	5488	13664	-3793	123	112	1
-12628	-3088	14172	-14747	-32372	-32768	-7480	6148	-10788	14291	-32768	-14536	-5784	2740	-13160	-9916	-9209	-8233	-8892	4072	13136	-353	407	-2333	-16236	4412	328	3259	7057	-2526	-18252	7288	-2684	3132	13787	-3470	133	109	1
-17736	-4564	16700	-12649	-32768	-32768	-7496	3192	-12216	5061	-32768	-12136	-4192	2096	-13272	-6749	-3852	-6267	-8504	4288	13544	523	341	-3168	-16428	3464	-336	-1801	8317	-3172	-17444	3840	-1476	-4759	12317	-2772	134	109	1
-26368	-5804	20268	-11000	-32768	-32768	-10272	700	-15120	5572	-32768	-13557	-3404	392	-13008	715	-990	-4695	-9016	5100	13568	1142	519	-4339	-16900	2784	-1952	-2502	8465	-3149	-15120	1272	-616	-3747	13353	-2372	128	120	1
-32768	-2664	20524	-9695	-32768	-32768	-15628	-940	-9428	8070	-32768	-12620	-2296	-64	-11300	10365	1012	-4407	-10348	5112	13236	740	2026	-4939	-17532	-272	-3024	670	8785	-3129	-16444	-564	-1400	387	13568	-1836	117	137	1
-32768	2336	16544	-12239	-32768	-32768	-23560	-1248	-13172	17364	-32768	-9098	-3300	-1120	-6772	14193	1325	-6564	-9724	2504	14028	141	4675	-4012	-18636	-2376	-64	6029	9314	-3812	-18448	-380	-412	1889	11609	-1016	117	133	1
-32768	11604	9536	-13704	-32768	-32768	-27612	-92	-16184	15025	-32768	-3087	-9304	-2788	-2276	22873	-3124	-6751	-9664	2564	14548	352	7347	-3509	-17632	2748	3320	6241	11001	-5270	-17896	-1868	4352	1642	9579	-571	132	131	1
-32768	25516	976	-10755	-21670	-32768	-26200	4248	-11256	184	-32768	-512	-32768	-14284	17360	23726	-32211	-16794	-9272	2548	15588	878	11125	-3056	-18168	2776	2268	171	13382	-7238	-19680	488	4204	4346	9536	-920	86	129	1
-32768	12592	-26680	-1040	-19799	-23388	-11980	6344	-19232	-12191	-22121	3327	-25528	-3396	15796	6078	2309	-16465	-9132	3532	15604	1314	16619	-2863	-21300	2116	344	199	14732	-8794	-22264	7960	-132	8749	8444	-2282	15	122	1
-32768	32767	-32768	-4140	-16223	10902	5548	-5648	-7960	-7428	-4210	-6487	-22340	-4236	18420	5891	6420	-12501	-8908	5212	15196	544	22325	-4739	-21408	1124	864	5804	15291	-8533	-21672	5752	724	7813	4399	-1875	40	121	1
