#Activity	walking 
#ActivityID	1 
#Date 10-10-18-15
acc_rf_x	acc_rf_y	acc_rf_z	gyro_rf_x	gyro_rf_y	gyro_rf_z	acc_rs_x	acc_rs_y	acc_rs_z	gyro_rs_x	gyro_rs_y	gyro_rs_z	acc_rt_x	acc_rt_y	acc_rt_z	gyro_rt_x	gyro_rt_y	gyro_rt_z	acc_lf_x	acc_lf_y	acc_lf_z	gyro_lf_x	gyro_lf_y	gyro_lf_z	acc_ls_x	acc_ls_y	acc_ls_z	gyro_ls_x	gyro_ls_y	gyro_ls_z	acc_lt_x	acc_lt_y	acc_lt_z	gyro_lt_x	gyro_lt_y	gyro_lt_z	EMG_r	EMG_l	act
-22704	-21296	13756	8123	32767	31566	-32768	-3852	16400	-26216	20767	6663	-25292	4740	10180	-4933	-19565	5466	-14036	-5272	23168	-10347	6948	-9613	-27328	-11028	-13512	-17777	22876	-10112	-11128	-11616	-14560	-5371	7868	3112	130	128	1
-32768	704	14576	4994	32767	32767	-22732	-17296	-812	-19267	23480	5433	-26492	-8980	2360	-8480	-18069	989	-14232	16496	13240	-3118	504	-3237	-11288	-6916	-15436	-2187	12812	100	-8772	-18900	-6944	-8300	8125	888	131	51	1
-32768	-25648	14988	2988	32767	32767	-26152	-12720	-10664	-3543	24895	6620	-19732	-10708	-11152	-1353	-16952	-5822	-9588	4288	14464	-290	298	-2029	-17688	-3824	-10068	4416	13289	-2786	-17196	13568	-15600	6411	12665	-9104	140	132	1
-15496	-19652	21120	787	28620	32767	-24440	-1720	-10020	2344	18859	2575	-29512	1060	-10188	8417	-20064	-8361	-10656	6552	13224	-540	-381	-2408	-17900	4020	-8324	9716	9034	-1866	-16484	10212	-9224	-8593	14202	957	144	98	1
-32768	768	3516	-1530	32767	25336	-17736	-3524	-14308	11194	10153	2365	-27524	5728	-10296	9671	-20730	-7124	-9456	5500	13880	-797	442	-1875	-18148	4836	-5176	-2213	7854	-3312	-20500	-3436	-4104	-6587	14762	-2160	129	72	1
-29476	-29236	17708	-5015	-6390	-15702	-12972	5820	-18844	2259	6722	401	-24564	5040	-8336	6433	-23394	-7742	-8876	3924	13968	-606	1409	-1567	-18656	-3964	-4116	-3156	4911	-2335	-14920	-6432	-1040	2384	14367	-4937	126	91	1
-7424	-22116	13464	8863	-20224	-21240	-10384	6180	-5612	-16759	-2041	-3145	-22508	4564	-8152	-3079	-22445	-7934	-9344	4164	13608	138	2191	-1079	-15928	-1692	-4024	1685	5165	-2369	-17080	-2584	-2812	10935	15099	-5713	118	106	1
220	-3260	10148	5707	-23105	-18117	-9004	-5248	-10072	-19033	-10215	-6040	-18592	-180	-9872	-6040	-20005	-8572	-9644	4752	12780	586	2076	-794	-18176	1768	-4868	4454	4437	-460	-16096	1400	-3604	13884	17921	-1766	114	116	1
-3916	176	9096	-9074	-23097	-18897	-3272	-7764	-8176	4040	-14900	-7880	-17428	1936	-10456	-5310	-19116	-9866	-9324	5056	13200	410	1908	-969	-16964	2916	-4340	3549	3732	-469	-12568	3700	-3180	12710	19689	-3302	118	114	1
-6912	-9244	9592	-13203	-28275	-19572	-2796	-1088	-10356	19656	-19604	-13184	-14848	2164	-11056	-3290	-19252	-8600	-8920	5208	12428	-82	1406	-1035	-15016	2256	-2276	5304	3382	-1583	-13136	5368	-2272	4198	20873	-3932	120	97	1
-7320	-8792	10092	-7614	-32658	-20140	-5528	5464	-8040	19552	-26238	-14172	-10344	3112	-10940	-3704	-17570	-7551	-5524	3596	12304	10	858	-2268	-15968	4024	-1372	5057	3608	-1871	-14900	6748	208	-3204	19107	-3917	127	99	1
-7780	-3712	10636	-7869	-32768	-24579	-5360	7364	-9416	10041	-31545	-13439	-6608	2088	-11980	-5512	-15425	-6590	-11424	5056	12488	-348	828	-1377	-16388	3920	512	1443	4953	-1773	-17232	8680	-2300	-1677	14812	-4566	131	102	1
-11240	-4024	11616	-11153	-32768	-30768	-6164	3988	-10684	3189	-32768	-11183	-5292	1684	-12564	-6388	-10910	-5958	-8832	5492	12552	-1085	525	-1597	-16576	4476	940	1007	5023	-1518	-17472	6360	-3368	-6145	13483	-2380	133	99	1
-15984	-6552	13312	-9853	-32768	-32768	-5920	2376	-11052	3741	-32768	-11273	-3880	2480	-12944	-4682	-6264	-5072	-9272	4372	12876	-464	67	-3205	-15488	1940	-1416	-4567	7071	-2973	-17384	3452	-1324	-8777	12074	-3217	139	89	1
-23980	-10016	15532	-5879	-32768	-32768	-7492	312	-16160	8742	-32768	-13634	-4500	2308	-12560	289	-3411	-4679	-9356	3484	13604	624	654	-3930	-16008	1380	-1492	-4733	7196	-3026	-16188	-320	-1076	-4556	13460	-3270	135	86	1
-32768	-5980	16112	-1496	-32768	-32768	-11208	1020	-8736	14144	-32768	-14693	-3980	2564	-12828	7851	-786	-2796	-9148	4844	14224	-674	3101	-3541	-19008	-964	-156	1311	7860	-2868	-18296	-2388	-1092	-178	13619	-2979	129	109	1
-32768	24	14584	-5354	-32768	-32768	-18536	-3280	-15320	26047	-32768	-11410	-3984	3356	-8640	14455	1238	-3347	-9472	3624	14132	-160	5612	-3701	-18600	2212	2092	2541	8939	-3138	-20120	-2984	2948	592	11520	-1335	121	121	1
-32768	11636	5932	-9808	-32768	-32768	-26444	4328	-19412	32092	-32768	-2445	-4748	620	-4428	18196	-1362	-4258	-9600	3840	14184	628	8466	-3834	-17596	2072	4176	2210	10860	-4679	-20296	-3120	7100	3168	9983	976	122	125	1
-32768	25224	-460	-11823	-28959	-32768	-27068	2848	-15680	11360	-32768	2373	-24596	-6452	12028	23319	-19562	-10320	-9184	4288	14392	1346	11880	-4467	-16240	3228	4084	4215	14048	-6235	-19276	2432	5608	9408	8509	647	119	125	1
-32768	29440	-14924	-2024	-18413	-27080	-15364	7308	-14764	-16477	-24715	4534	-32768	-6896	18248	3726	-15564	-17061	-9536	4292	13624	1710	16254	-4885	-18520	5020	1740	6230	16654	-7873	-20740	11716	1584	10349	7207	-493	11	117	1
-32768	29024	-32768	5701	-20605	7231	-5392	6368	-20304	-23387	-11192	2215	-6948	-1448	24392	-478	20053	1013	-9688	7620	14728	351	22136	-6490	-20916	5236	2168	5148	18206	-9086	-22932	7312	2960	8627	1606	-1592	14	122	1
-15920	19496	-17460	-10304	-5620	15673	-492	-4548	-7768	-14090	7583	-4741	-9264	12572	26616	-6096	11837	10154	-10088	7276	14612	-2571	28596	-10217	-20992	4736	1992	4789	19735	-9669	-21208	2936	5596	7209	-4070	-832	92	129	1
-3456	-9108	15196	18782	236	32544	-13072	-1980	-932	-4753	20291	1163	-30188	10592	15864	-11651	13010	17363	-10520	6620	15212	-3934	32767	-16216	-23572	3120	4524	5437	23197	-10394	-24076	5536	10692	8443	-6871	-404	106	114	1
-7264	-11584	5460	7592	31386	5334	-32768	-11528	19336	10595	4771	4077	-19460	12472	-4732	-16072	22644	17086	-12380	9664	17252	-2973	32767	-24150	-32768	2064	6920	11108	23905	-9370	-29836	5896	18712	8451	-18837	469	123	90	1
-32768	3516	29376	15651	21014	15586	-14684	-1396	-13212	32767	16148	-1245	-32768	-8584	11656	-13080	7558	-10805	-19972	6088	18192	3974	32767	-31693	-32768	856	6276	24807	21383	-6501	-25556	-7192	11912	5252	-24181	-1342	102	103	1
-10544	-2732	21724	11604	277	9559	-25516	5596	-6688	20119	26152	1462	-24200	-8012	-17632	11336	13825	-346	-32768	17388	31704	18681	32767	-32768	-31648	12944	-1392	32767	21452	-6527	-31204	7104	-2604	12057	-24945	-629	56	133	1
-12016	1132	14692	3969	1069	5713	-20616	5804	-18932	11268	19082	3648	-10840	19780	-8024	2135	7818	1437	-32768	10068	32767	28192	32767	-32768	-25720	15132	-7424	31112	18034	-10565	-25636	12888	-13728	15520	-22936	4873	151	120	1
-10692	-8340	11728	516	1750	1798	-10452	10772	-6136	-12038	14290	457	-6876	3632	-12604	-15961	6033	12196	15832	32767	23808	23734	20002	-32768	-25152	-2580	-16496	3589	18864	-10793	-30096	2640	-12560	-4533	-24001	7077	136	109	1
-11288	-5736	10368	379	919	2308	-8736	-7152	-9832	-28896	11083	-2404	-11088	-23204	-10936	-2263	8500	8678	-32768	32767	32767	6963	-13458	-8850	-14836	-7252	-23004	-8152	11728	-7901	-29180	-4228	-6740	-17415	-32768	7721	154	80	1
-11684	-5288	11184	550	628	3062	-19320	-19920	-5096	-8376	10278	3552	-16200	-3252	-7684	12155	11657	-881	6056	32767	14416	-19140	-22465	3384	-14480	-4836	-3888	14643	2274	-935	-24784	-236	-3844	-5998	-29998	11633	145	115	1
-10912	-5104	10808	799	616	2821	-19824	-6288	-6360	18623	9178	3505	-18996	7364	-6236	5737	14496	2560	8104	4872	12388	-12510	-16605	10198	-9252	4032	-5112	9177	-6702	5411	-21296	1868	-7744	3745	-25382	13097	131	174	1
-11156	-4020	10916	1202	-177	2865	-13196	3348	-6776	14517	8256	2430	-15120	3428	-6140	-2335	14670	4998	4816	6532	12928	7631	-15197	22038	-2528	760	-5664	-12641	-10270	10182	-20200	1052	-8896	3885	-22937	9719	143	170	1
-11296	-3492	10920	1046	-89	2004	-14972	6416	-7116	-587	6320	2451	-14148	-1388	-7480	-5121	17435	7787	-852	15728	13608	5991	-17456	23042	-4740	-4036	-5644	-19401	-16230	15403	-14412	-1388	-9732	381	-22306	7857	156	182	1
-11584	-3500	10888	433	722	1239	-18428	1968	-6512	-13432	3981	1691	-14560	912	-6000	-5130	21378	9108	-7184	8756	16972	683	-24727	24937	-3944	-7480	-7136	-19388	-22279	19112	-10824	-1904	-11116	-1043	-20297	6321	149	162	1
-11108	-3888	10700	-288	1175	1215	-17732	-2180	-3924	-15321	2617	337	-11892	1432	-4596	202	26394	10004	-7596	3184	17468	3701	-31724	28380	-4720	-8888	-5960	-13174	-28289	21945	-7904	-4164	-9864	-1339	-17431	5059	135	146	1
-10816	-3744	10480	-493	1194	1308	-15524	-5720	-880	-9663	1737	1609	-14344	88	-5264	6513	22133	6044	-10388	1004	18512	8055	-32768	29454	-5456	-8976	-7788	-8519	-32768	23742	-7196	-4024	-10800	362	-12192	3724	149	139	1
-10668	-3344	10444	-183	647	1274	-12044	-4960	-408	2693	4630	2004	-16040	-3796	-2836	3949	12664	5201	-16472	720	20552	10722	-32768	29579	-5208	-8364	-8244	-6819	-32768	25225	-4468	-3216	-11588	2830	-4287	129	147	153	1
-12024	-4760	10244	889	-190	1521	-13428	-1472	1600	5456	6283	1696	-16572	-3912	1244	7615	13232	5206	-22872	3964	22900	11627	-32768	29125	-7232	-7880	-12064	-8046	-32768	26765	-3188	-4088	-13672	2853	1398	-2494	140	153	1
-10308	-5044	11004	1702	-325	2541	-14592	-1152	2008	4963	6621	1603	-19200	1064	1012	13018	14927	1534	-32768	7652	23380	10086	-32768	31342	-12796	-7344	-12612	-5895	-32768	26907	-1396	-2696	-14132	1317	5310	-1831	127	170	1
-10548	-4412	11756	1019	1143	2857	-16368	-1576	1048	2073	8992	2237	-18264	1636	1424	1533	14620	3011	-32768	11404	21384	4557	-32768	32767	-19876	-2976	-13648	-8761	-32768	25822	56	-1568	-14360	-6616	8078	473	139	206	1
-11224	-4324	11496	124	2565	3834	-17912	4	2492	-2288	10347	2279	-18760	188	1088	-6689	14723	3526	-32768	1944	15632	-691	-32768	32767	-29424	-5468	-12748	-17840	-32768	23061	-5248	456	-9144	-10391	5974	3517	150	198	1
-10856	-2396	12668	1096	4328	3724	-16660	-1592	4816	-6804	11695	2599	-19516	632	3548	-2703	11567	972	-32768	-14092	4976	1100	-32768	31011	-31780	-2512	-14592	-14502	-32768	15087	-30216	2620	8812	-18500	-10080	10395	117	135	1
-10308	-4448	13468	2017	6452	4445	-14660	-4224	4896	-5580	15262	5097	-19996	1140	3444	-6218	8060	-1827	-32768	-17564	-15568	-2805	-28884	19354	-15508	-13180	-19424	-16018	-22563	13140	-32768	11088	30144	-28707	-17488	19642	131	253	1
-11568	-4500	13696	2694	10486	5731	-18436	-3972	-820	-256	17981	5156	-20000	744	2272	-6367	7532	-1720	-32768	-32768	-32768	2410	-19011	3888	-5776	-10992	-19340	-5547	-10268	4643	-17120	600	32767	-7718	20659	2540	146	253	1
-11388	-6672	14432	3871	14581	8753	-21280	-288	-2276	-4764	19247	5559	-19008	-6708	-4072	-9351	3308	3469	-32768	-29852	-32768	10687	-1139	-5225	-5080	-5896	-10072	16825	9625	-1516	-12664	-16252	27272	5606	2176	-11932	130	196	1
-10220	-6128	15348	5299	20081	12477	-18632	-2320	-5956	-8555	20021	6075	-20308	-1740	-2760	-3593	-1491	3456	-16332	1920	16800	-7396	18574	-15836	-21276	10700	7032	17376	23432	-8300	-25804	-2444	1308	13231	1172	-13737	133	85	1
-12524	-4680	16368	6980	29004	16922	-22848	-2012	-1912	-5071	20758	6705	-24108	-4212	972	-4138	-5987	5126	3528	2664	-12600	-2368	26339	-12309	-32768	10868	19164	-2777	6950	4907	-14020	3032	-1304	22888	13370	1310	145	55	1
-10480	-6424	17548	7821	32767	23846	-32768	-1592	1216	-2203	20809	7167	-30560	-7336	11752	-3531	-21226	5173	-32768	484	32767	-6755	32767	-12301	-1732	-6472	-552	-13129	16209	-6503	-23996	1420	10696	6599	4786	3923	151	11	1
-14676	-13720	16552	3639	32767	32000	-32768	1844	18844	-14201	21116	7883	-27012	5748	16036	-264	-19819	6794	-32768	15876	9236	-19103	-1252	-15019	-32768	4312	-18060	-7902	23830	-11730	-27208	5856	-14016	1023	7511	8186	136	80	1
-32768	-10800	16416	11696	32767	32767	-27084	-4792	6424	-28470	20351	7727	-27872	1444	10568	-5862	-18530	5094	-23008	-11480	23800	-13962	2917	-11585	-21292	-10740	-17828	-17066	17677	-2389	-12352	-11544	-13652	9256	10167	5882	139	95	1
-32768	-26320	14748	5318	32767	32767	-27008	-18824	-9588	-19469	23347	10257	-22940	-16960	-7004	-6567	-18595	-2448	-11508	3396	18876	-7318	-918	-5135	-11864	-6132	-10768	-6643	19411	-4677	-7920	11172	-11640	11025	8940	-3697	149	74	1
-32760	-25068	19036	10125	27562	32767	-26152	-5320	-6100	-6134	18880	3898	-27824	-784	-9196	6136	-20550	-6503	-10384	5664	13512	-3801	-1220	-2924	-14040	-3624	-12380	8772	12204	-3710	-13936	18376	-13328	-9810	12174	-4983	141	71	1
32276	-23920	11828	8038	25527	32767	-20096	-9920	-13684	10768	14244	1396	-28508	4408	-8584	11528	-22007	-6546	-9500	4864	14016	-2670	-703	-2733	-19456	5988	-9260	7711	9846	-3807	-18884	-2872	-8032	-13946	13447	-4588	132	64	1
-32768	-24544	18676	-7912	-4869	-9135	-13712	4048	-21072	15186	9532	400	-25648	5592	-9440	8232	-22643	-8921	-9452	3756	14320	-1887	277	-2258	-19824	-144	-4648	176	6638	-3228	-18700	-7900	-2976	-2111	14066	-1553	119	75	1
-8592	-29796	11988	4310	-20995	-20210	-12748	9600	-7612	-10348	858	-2324	-24616	4852	-8156	-2052	-23451	-8847	-9084	2796	14496	-699	1271	-1561	-17188	-2060	-4184	-1376	5499	-3416	-16132	-2456	-1336	7714	14720	-3156	123	93	1
196	-9544	8568	8924	-20531	-18508	-11068	-4376	-9584	-17581	-8002	-5274	-19344	348	-10580	-8513	-20992	-9864	-9208	3632	13860	82	1859	-1128	-16552	-432	-4940	-839	5074	-2562	-16280	1908	-3436	10040	15772	-4468	120	96	1
-3276	-2604	8484	-3053	-18191	-24090	-3800	-8388	-9464	7644	-13168	-8588	-18496	2020	-11564	-6903	-19481	-12448	-9380	3796	13656	361	1950	-907	-18020	1024	-4824	-256	4389	-1166	-15804	2248	-3068	8943	16738	-4669	117	111	1
-6952	-10848	9492	-8643	-22582	-27736	-1700	-480	-11640	24816	-18524	-12923	-15460	3036	-11680	-4784	-19106	-11402	-8844	4076	13744	362	1907	-926	-16544	640	-2648	1807	3636	-1103	-13220	2236	-2296	7509	18528	-4226	115	105	1
-7052	-11480	9740	-8258	-23438	-27747	-6040	5936	-8916	23414	-25514	-13704	-11204	3712	-12064	-4214	-17597	-9722	-9476	4288	13144	250	2006	-1086	-15488	1628	-2536	6938	3600	-1680	-14608	3044	-1444	4419	19566	-4365	130	96	1
-8620	-3688	11596	-8932	-29486	-32768	-6672	6848	-10588	14449	-31668	-13935	-8256	3452	-12476	-6307	-14623	-8799	-8992	3952	13076	127	1594	-1252	-16224	3212	-1840	8560	3731	-1489	-14020	5160	1812	1887	20435	-4585	131	105	1
-12224	-3832	12860	-12625	-30595	-32768	-6176	3872	-10744	7846	-32768	-12729	-6444	3236	-12844	-8441	-11246	-7233	-9056	3960	13240	-140	1675	-1541	-16728	4596	1064	6176	4942	-1748	-16008	6344	1260	-811	18522	-5833	133	109	1
-16920	-5356	14480	-11981	-32017	-32768	-6124	2484	-11152	6895	-32768	-13106	-3028	3108	-13408	-7708	-6294	-5739	-9304	3920	13120	68	1331	-2135	-15660	4972	716	2471	6057	-2603	-17788	7568	-2880	-1261	14746	-4161	134	108	1
-24484	-6936	17260	-9507	-32768	-32768	-7476	844	-14860	10231	-32768	-14321	-2540	1816	-12536	-1943	-3024	-5381	-9304	3968	12940	127	1203	-2237	-14804	4796	712	-1001	7609	-3436	-18200	4080	-820	-4814	12608	-2621	132	103	1
-32768	-5060	18468	-5920	-32768	-32768	-11092	1020	-10076	12846	-32768	-14296	-2840	184	-12932	8230	-499	-4221	-9656	4120	13672	371	1380	-4512	-17524	3304	-1208	-1925	8684	-3487	-16964	1804	1296	-3751	12476	-2061	128	103	1
-32768	196	16468	-8966	-32768	-32768	-18944	-1800	-12520	19812	-32768	-11463	-2748	544	-8696	15899	1629	-4504	-9384	2676	14604	-317	2997	-5225	-17508	212	-1684	2532	8627	-3530	-16372	936	248	810	13577	-1491	122	104	1
-32768	5632	10128	-10317	-32768	-32768	-28592	3932	-18516	22791	-32768	-5236	-3916	72	-5448	21186	1804	-4282	-9068	2000	14544	-210	5288	-4584	-18472	-732	2052	7256	9710	-4726	-17156	-440	1968	3357	11422	-1106	127	116	1
-32768	21436	7124	-11868	-28157	-32768	-28668	-516	-22180	15793	-32768	832	-26324	-6992	17360	28391	-26919	-8833	-10624	1980	14136	131	7939	-3918	-15692	4256	3996	5312	12001	-6537	-18072	-1716	5568	3453	9683	-768	129	125	1
-32768	31936	-13388	-13485	-17624	-32693	-16540	7928	-12876	-15819	-26890	3701	-32768	-6512	18256	6096	-15446	-20745	-9564	2224	15692	444	12337	-3073	-18684	4820	944	-1692	15162	-9522	-22764	7204	2232	4406	9135	-1542	0	126	1
-32768	9664	-32768	2444	-19170	-2852	-4632	7572	-14628	-17332	-12505	2003	-14872	464	27820	945	16167	-5168	-9152	4072	16700	201	18206	-3651	-23576	948	628	-2158	16623	-10249	-22664	8176	360	7919	5215	-2082	5	124	1
-32768	32767	-32768	-15791	-11913	16624	5104	-6480	-4936	-9124	6601	-10895	-8472	8860	30952	-5876	4741	10508	-8648	4292	15636	-255	25498	-5845	-21524	968	936	6268	16974	-9641	-22784	2480	2400	4573	-227	-3010	65	126	1
-32768	520	-23144	-16216	3534	5364	-12124	4084	-16588	4713	27082	2093	-25904	12632	11056	2552	8418	19980	-10608	5748	15148	-1352	32767	-8935	-21900	1152	3168	8540	18298	-11219	-21952	224	7580	8182	-4624	-2161	107	126	1
8544	-32768	32767	29899	21236	12038	-32768	136	18560	-14141	12449	5946	9940	9968	-32768	-25489	26514	10368	-12720	5644	16596	-2653	32767	-13910	-28636	2980	4968	10901	20230	-11420	-27040	5824	11836	10888	-8870	-2122	102	126	1
3900	15940	3408	24932	31052	11674	-22448	-21964	-12004	32410	8929	-4515	-17740	-2628	-3040	-25258	12079	-9835	-14776	8144	17160	-772	32767	-21609	-32768	92	7400	16095	20116	-10773	-29984	1292	17528	6616	-24412	-1509	93	117	1
-32768	28124	32767	8059	16833	24713	-16456	-18800	-11804	32767	10223	-889	-32768	-32768	2596	7449	2586	-16271	-25788	7612	20960	6679	32767	-25195	-32496	11548	10956	32767	20436	-9536	-24176	376	13460	7080	-19502	-4988	69	99	1
-32768	-5252	25368	11123	7674	18453	-32768	1344	-16000	6754	22523	5458	-28580	20612	-8260	24450	14488	-1048	-32768	26512	32767	18789	32767	-28904	-31172	21460	-7360	29221	19317	-11677	-27660	16748	-6632	10319	-21739	2335	117	110	1
-14704	10520	20036	6040	-518	6805	-16824	13484	-11024	6111	19127	-741	-16832	13904	-10284	-4004	10400	12392	-32768	19620	32767	23768	32767	-29980	-24480	9368	-12780	2701	20242	-15948	-26692	14716	-13620	5268	-20950	6696	135	107	1
-10628	6008	16520	3756	1016	3113	-12108	4244	-7672	-15702	14499	-1423	-3688	-4972	-10596	-3898	6323	12519	-32768	28648	3300	21684	16315	-32768	-28788	2032	-9112	-8551	14300	-8962	-32768	3112	-11848	-16852	-25175	6703	102	101	1
-10656	-7696	10688	1831	1449	1266	-9212	-16160	-8536	-16862	11322	5376	-11800	-12240	-11172	8406	10719	4868	-27672	32767	26696	-748	-16847	-6549	-12964	-11008	-17076	-6812	9126	-9686	-31508	-2264	-6420	-22260	-32768	6759	143	98	1
-10984	-5532	11184	859	1802	2051	-15076	-15800	-9072	18102	10564	1035	-18268	8920	-9500	6854	14127	696	8568	27532	11680	-25600	-23621	-6392	-11972	-4296	-5708	17701	-2803	-2257	-23316	-876	-4908	-4500	-28347	9829	154	145	1
-11176	-4472	11004	35	1440	1607	-26180	4068	-8580	19709	8432	1285	-15192	2544	-8244	-8211	16776	2411	8492	2648	10488	-13428	-18174	976	-9576	4500	-5804	12648	-10600	6143	-22132	3716	-8496	3044	-23719	9058	159	179	1
-10748	-3888	11752	-796	1606	648	-15716	9844	-5292	-6651	4628	3938	-17024	200	-7808	-9804	17308	4919	4324	9140	10412	8102	-15221	15363	-1988	1060	-6968	-6933	-14250	8810	-19052	2204	-9932	279	-21360	8877	182	165	1
-10344	-4364	11164	-1347	2070	344	-15484	4180	-5368	-28281	2055	706	-14780	-896	-5988	-11227	19272	5785	-3916	19332	10536	8471	-17150	23133	-2384	-2976	-8048	-15838	-19768	12433	-16148	492	-11560	-4684	-20218	7301	163	189	1
-10744	-4020	10792	-1798	2245	152	-15744	-10744	-2288	-23578	1770	-395	-13876	-3304	-1528	-3145	21674	10120	-8788	17040	11076	-2012	-24619	26632	-1948	-4180	-7984	-13018	-25244	16745	-9584	-1040	-11116	-5712	-17925	5643	154	177	1
-10520	-5620	10144	-1707	2010	558	-16200	-10972	1540	-863	3479	1558	-12512	-5036	-2648	8180	20197	6113	-10532	9496	11628	-2952	-31275	29398	-2548	-2168	-7508	-9068	-29055	20513	-4704	-3216	-11648	-3618	-13212	5202	127	165	1
-11336	-5260	9620	-264	875	1401	-12252	-4108	32	7663	4288	2661	-15976	-4560	-100	5284	16142	3850	-14416	7488	13372	2283	-32768	32767	-4288	-2172	-9396	-14116	-32370	23118	-6080	-3412	-11868	-2544	-12272	4815	141	154	1
-11112	-4048	10240	475	-296	1489	-11968	1656	1340	5535	6765	1280	-16568	-2032	-316	4033	13656	3773	-18856	9444	16120	3154	-32768	32767	-6024	-3316	-10040	-18734	-32768	25405	-5344	-3408	-12544	-376	-2362	2538	148	145	1
-11572	-4676	10676	417	-483	1575	-16928	752	1520	-3613	8066	1695	-19376	-156	-624	10218	12503	3666	-27496	13940	19288	2772	-32768	32767	-10472	-5348	-16360	-26186	-32768	27066	-6116	-4196	-13048	-1753	1486	2428	147	139	1
-10684	-5036	11136	99	459	1897	-17292	-3600	1104	-5529	9065	1848	-17100	-2252	1736	709	13434	4547	-32768	8692	17560	111	-32768	32767	-17016	-8340	-13224	-23927	-32768	22973	-4568	-3640	-13580	-3532	2830	2166	135	169	1
-10596	-4152	11328	-816	1903	2519	-17364	-4504	948	-1316	9982	2120	-18312	2664	-168	-3812	14031	2788	-32768	3956	16924	5207	-32768	32767	-21224	-6836	-15748	-18197	-32768	21340	-3748	-332	-13392	-9434	6218	3598	145	178	1
-10552	-5088	11348	-2300	2664	3251	-16392	-1300	2204	-1415	11461	2331	-17136	5184	2064	-4196	12178	187	-32768	3368	16456	5873	-32768	32767	-26844	-10792	-17712	-14833	-32768	17373	-8168	596	-6204	-13971	389	7730	135	164	1
-10428	-3552	12232	-1088	4397	3580	-15320	-704	2980	-7318	13127	2853	-18040	-932	1440	-8398	10651	-1988	-32768	-14708	4720	4997	-32768	26251	-25268	-11984	-20356	2663	-32768	15046	-25356	2604	4700	-17663	-10196	13217	141	173	1
-10736	-3744	12032	-984	4839	3744	-16244	-1276	3044	-10627	15201	4326	-18540	-7080	-2220	-8997	7135	-554	-32768	-17328	-17740	3982	-32768	9827	-12948	-7732	-13044	16603	-24816	13788	-32768	6112	29672	-15218	-10766	11635	151	253	1
-11152	-5832	13720	922	11360	5423	-20080	-5840	480	-5574	17085	4594	-20452	-5404	-2156	-8235	4756	2430	-32768	-32768	-32768	13724	-21131	-2528	-12840	-5508	-12660	15601	-18926	16160	-12940	-1088	32767	3262	14848	-950	143	253	1
-11484	-5872	14304	1604	15849	8000	-20028	-2876	-952	-1663	18516	4854	-19836	-3452	-2772	-4263	2373	3818	-32768	-18688	-32768	8548	1922	-5631	-6180	-2396	-8496	-1878	13608	-4196	-20136	-9360	17692	12740	3392	-9021	132	130	1
-10036	-5160	15520	3315	22417	11037	-20184	1720	-1724	619	20193	5671	-20212	-212	-1468	-5138	-1243	3576	-22440	916	32767	-16917	14166	-9851	-19400	796	5924	10219	22587	-8900	-25252	2796	4240	15023	479	-5816	131	54	1
-9232	-5340	16340	3669	32503	14504	-23512	2844	-1408	-3107	20947	6055	-24816	80	2364	-6198	-6234	4946	15996	-12012	-6504	-10191	22580	-10952	-32768	15400	25276	-4938	5959	6756	-9568	1628	-6020	26185	22045	1866	137	60	1
-10540	-8880	17484	3121	32767	19620	-32768	2320	2820	-7684	20716	6084	-29524	-2108	12436	-6939	-19682	5325	-32768	-12536	32767	-4851	32767	-10068	1388	-13452	3544	-20576	13733	-5966	-21500	-3052	9960	-5850	1003	2462	151	15	1
-10748	-9212	17192	3103	32767	21344	-32768	1368	19556	-24585	19637	6589	-23356	9036	14384	-10128	-18260	6902	-32768	27152	10428	-18680	1864	-19987	-27732	7268	-18528	-3254	22293	-13361	-32300	10840	-2252	-6596	5673	5155	125	100	1
-32768	-16724	13108	6645	32767	32767	-24656	-10564	9076	-32768	20551	6741	-25668	-2212	9952	-12463	-17821	4882	-18176	-20552	30288	-15597	3958	-13737	-27544	-5036	-12336	-11524	14234	2194	-16392	-13864	-12044	8937	10142	-3754	131	134	1
-32768	-16936	17624	-3788	32767	32767	-27052	-20940	-5908	-12715	25121	7701	-24528	-22972	-8264	-11431	-16850	-3069	-11348	4724	15828	-8278	-1217	-7088	-10668	-52	-8132	-17127	20009	-6716	-4308	9832	-10572	7358	11431	1612	150	163	1
-32768	-26068	19952	4159	32767	32767	-28364	-6172	-9828	1473	19422	6165	-31992	-5556	-10572	8665	-20654	-7295	-9588	9048	12044	-4372	-942	-3261	-10428	-6292	-13768	2127	11533	-8818	-13716	16220	-12772	-8717	9891	-3475	150	104	1
20732	-23104	12812	4565	32767	32767	-22356	-8028	-7016	8203	12471	4195	-29848	3860	-9428	13813	-21703	-5464	-9244	4508	14324	-2635	82	-2807	-20152	3184	-10820	5668	11731	-3009	-18312	-2960	-7684	-12227	12523	-2971	132	110	1
-31956	-17280	16160	-5222	32767	31957	-13840	-156	-19560	18215	4713	5601	-22680	3476	-10456	8055	-23228	-6843	-9332	3264	14336	-1615	1210	-2304	-21388	-3404	-5348	4282	7070	-2358	-19432	-10464	-3908	1739	13958	-1884	123	108	1
-25764	-26320	13668	-3674	6581	338	-10672	2856	-22764	4024	-911	552	-22380	1892	-5344	2198	-24190	-9092	-9200	2152	14752	-272	1865	-1475	-15168	-2196	-3516	4159	6249	-2924	-16516	-4532	-664	10586	14258	-2716	117	95	1
-18484	-24152	12456	10233	-19022	-20051	-7776	1716	-11788	-11617	-6167	-5883	-20812	240	-10508	-3517	-20013	-9963	-9268	3724	14060	969	2647	-916	-17948	1620	-3448	3998	6274	-1916	-16204	3356	-3108	14321	16075	-4005	114	101	1
-9456	-10284	8836	13904	-29156	-25199	-8052	-3336	-8268	-8731	-11319	-6359	-18596	-368	-12208	-2827	-19968	-8989	-9376	4088	13604	1232	2820	-721	-17440	4168	-4328	-582	5850	-985	-15708	4776	-3520	12422	17104	-4803	115	110	1
-11024	-2236	8188	1082	-32768	-29573	-4228	-6324	-9252	6131	-16900	-7052	-14908	896	-11460	-328	-20324	-10725	-9256	4800	13316	1094	2831	-935	-15880	1612	-3524	392	5362	-1951	-13700	5072	-3328	6486	17442	-3478	120	93	1
-13436	-3896	6112	-12571	-32768	-32768	-2432	-1080	-12024	15462	-22372	-8799	-13308	-108	-10968	1305	-18052	-10159	-8948	5008	13356	917	2931	-1011	-15896	1396	-4184	7492	4049	-1456	-13896	3748	-2540	2974	18219	-3292	124	87	1
-10916	-9056	4708	-13747	-32768	-32768	-2888	1788	-9724	12953	-27757	-10000	-9016	1388	-11508	1716	-16040	-8602	-9600	4060	12928	418	1995	-1898	-15312	3224	-2832	8577	4985	-1533	-13444	3996	-180	775	18319	-4137	123	93	1
-9516	-9040	5312	-6383	-32768	-32768	-3552	1108	-7840	13041	-32768	-11565	-7144	2456	-12672	560	-13225	-6845	-9428	4132	13132	1686	1062	-2726	-16240	3940	-1300	5943	5400	-1658	-16032	5944	-1788	1862	16848	-5675	132	111	1
-13820	-6564	6996	-2117	-32768	-32768	-3844	-120	-11308	17415	-32768	-14624	-4000	2680	-12644	-544	-8684	-5157	-8608	5000	13324	1573	1107	-2895	-15308	4976	-1596	1969	5937	-1560	-16256	6196	-4624	-635	14077	-2921	136	104	1
-17592	-4972	9696	-2888	-32768	-32768	-7000	2368	-11492	19701	-32768	-11906	-2264	2908	-13548	-154	-3517	-4380	-9624	4236	13000	403	1488	-3426	-16232	-452	-2364	732	6936	-2879	-16780	1628	-2748	-4866	12970	-1264	126	105	1
-26380	-9088	13180	-3530	-32768	-32768	-11016	1896	-13620	17768	-32768	-9066	-3712	2192	-13248	3578	-726	-4323	-10052	2996	13312	-422	2646	-3006	-17368	-172	-2404	3538	7068	-2583	-16452	-1068	-772	-1632	12970	-1595	115	98	1
-32768	-5972	14040	-2830	-32768	-32768	-16408	-1052	-14980	15405	-32768	-7347	-4608	3264	-10600	11229	-125	-3611	-9552	2612	14060	212	4168	-3000	-18256	896	-1692	2851	7842	-3048	-17728	-580	-424	2302	13116	-2097	120	96	1
-32768	7380	9056	-9133	-32768	-32768	-22688	392	-18808	19926	-32768	-4775	-3384	1236	-5176	13924	-1085	-3688	-10084	3156	13436	302	6373	-2581	-18584	2688	2892	3507	8820	-3650	-18140	1916	3860	1102	11497	-1043	116	105	1
-32768	15712	732	-18034	-32768	-32768	-25228	6712	-21424	5081	-32768	-1074	-12340	-2036	-2196	15933	-6097	-10561	-10152	2968	13620	423	8489	-2741	-14832	5028	4344	2825	11640	-5769	-18560	1648	7856	3553	9542	1025	125	114	1
-32768	23416	-12420	-18557	-28519	-26337	-19128	6596	-16224	-24371	-32768	-6221	-32768	-6380	18452	11869	-19733	-15957	-9872	3572	14724	762	12519	-3027	-18620	3984	1712	1980	14866	-7911	-21548	5764	3832	9150	7899	-392	56	126	1
-32768	24844	-27780	-10382	-22271	-6465	-14292	-1448	-12252	-32768	-19277	-3739	-21956	1144	25440	-3710	319	-10157	-9360	4208	16176	507	17952	-4259	-22880	3728	1960	6010	15924	-8696	-22584	9728	1812	9703	5780	-1138	16	119	1
-32768	32767	-32732	-11231	-16935	11459	1256	-7772	-11356	-10537	1043	-6151	-4032	3304	26616	-16630	16031	3880	-8868	6224	14784	-266	24684	-7418	-20952	4504	2556	8244	17216	-9135	-22712	4244	3960	7276	-172	-1948	91	123	1
-32768	-2596	-28164	23907	6983	17005	-7296	-1668	-4040	1259	19252	-47	-21324	5800	15776	-15296	10773	12221	-8840	5996	15332	-726	25756	-8003	-22456	2920	2748	5811	19264	-10505	-22564	1876	7612	8904	-3955	-1247	123	128	1
20868	-19768	32767	26141	13133	12809	-32768	6652	30736	239	13007	8844	-4392	3020	-28196	-21313	27213	9716	-11356	5796	18040	-1571	32767	-13829	-29752	676	4548	8093	21176	-10761	-27916	6748	11712	9730	-8491	-1240	118	128	1
-8644	15692	12592	17178	24697	21298	-31752	-7272	-6124	30892	11232	189	-26996	-2424	13716	551	42	-5493	-14608	6140	17232	1204	32767	-20411	-32768	-272	6640	15650	21125	-10293	-31964	4188	16600	5524	-24942	-879	109	106	1
-32768	-26036	24012	11386	3117	15372	-6364	13976	-11556	32108	21204	3294	-32768	-20488	5312	21261	15132	-4097	-31436	5640	26228	8284	32767	-22365	-32768	12712	10004	32767	21311	-8401	-26472	-388	12744	2279	-20978	-5075	64	99	1
-14432	12132	24056	14513	4728	15415	-32768	2124	-12836	11684	18692	-1398	-19892	16352	-18920	10071	9783	5929	-29516	3792	19068	10467	32767	-21553	-29828	15476	-9588	21712	19858	-11402	-25860	13336	-7140	6605	-21869	2611	115	131	1
-15824	-14440	8548	4412	2279	4085	-14508	6880	-14304	8652	17770	1388	-5560	17344	-15224	-6638	12598	8591	-32768	12360	32767	26347	32767	-27534	-24116	7024	-13960	3439	20159	-14042	-27388	8384	-11760	1523	-23716	4155	92	118	1
-10940	-3096	12132	2081	668	1969	-10044	744	-12360	-13707	12266	-500	-9868	-11432	-13060	-15767	7145	7911	-32768	30008	4896	29472	18133	-32768	-28180	1760	-8080	-6096	13360	-7530	-32624	7004	-11388	-10236	-26907	4486	105	113	1
-10272	-3620	12072	1945	-400	1781	-12308	-7276	-8956	-19957	7542	-777	-14652	-11360	-11120	4485	14476	286	-27520	32767	30252	531	-16978	-6143	-12692	-9560	-14976	-58	6978	-7941	-28732	-2072	-6712	-16461	-32558	4926	143	114	1
-10516	-4316	11836	595	-53	1435	-24920	-10020	-4252	-8497	6756	4471	-19256	6476	-5784	688	16386	962	7356	27900	15360	-25304	-25481	-4273	-11576	-1420	-4420	18677	-5043	-1708	-23480	2004	-4976	-4531	-27572	9235	129	115	1
-10608	-4456	11496	-175	578	956	-19216	-4368	-2800	3937	6098	1355	-17692	4864	-4092	-7455	16445	4808	7712	1228	13540	-12395	-22023	2783	-9760	4316	-4600	12146	-12898	6510	-18804	4556	-8880	-25	-23585	8696	148	169	1
-10432	-4496	10616	-26	773	881	-12828	448	-1324	3458	4936	1614	-14120	-3444	-3612	-8534	16036	6937	3292	7264	12216	9118	-20913	16133	-2288	312	-7576	-6865	-17083	8313	-19268	2168	-10640	-2779	-21653	7687	176	178	1
-10172	-5116	10576	162	704	833	-14352	-1620	-316	-1795	6111	2611	-14292	-6880	-1060	-1691	16912	4871	-4384	18696	11652	7750	-23357	22296	-3364	-3516	-7144	-13155	-21936	11420	-15744	-1184	-11360	-4519	-20138	5226	169	201	1
-10188	-5108	10776	149	701	920	-16224	-4296	160	-4572	5216	1673	-13672	-4372	-76	8525	18697	8062	-11572	15048	13212	-1888	-31077	25669	-2344	-5268	-9108	-11020	-27171	16085	-8820	-2644	-11516	-2537	-17036	4254	144	195	1
-9860	-5792	10376	501	331	2555	-14672	-3992	1460	-6781	5204	1015	-13144	-2904	768	6085	18694	5058	-12664	9612	12804	-3354	-32768	29062	-2744	-3424	-8876	-7361	-31312	19095	-5852	-2940	-11736	-508	-11855	4504	138	181	1
-10672	-3896	10900	759	27	2445	-13196	-4424	20	-3478	6627	2118	-17372	-3724	-2392	-1280	13803	4499	-13836	7068	12908	-396	-32768	30017	-5660	-2524	-8756	-10149	-32768	22306	-5744	-1908	-11620	-15	-6242	2477	138	162	1
-10500	-4072	11100	814	254	2284	-15856	-2096	476	640	8451	1886	-18904	-2208	-3108	1274	12461	5901	-18168	7140	15456	3869	-32768	30685	-6896	-3132	-9984	-17062	-32768	25406	-5700	-2556	-13196	-732	-1529	1290	140	167	1
-10108	-4300	11624	433	946	2244	-17568	-1160	-1288	500	9394	1928	-17256	-24	-2676	6327	11952	5248	-25092	12248	17900	6961	-32768	32485	-11336	-4724	-12828	-24300	-32768	25404	-5060	-4348	-13708	-1517	1767	1464	137	151	1
-10372	-3748	11700	-222	1621	2458	-16748	-1200	-2380	-888	9623	1957	-13936	2800	-1512	885	14931	2770	-32768	14208	18800	7632	-32768	32767	-19632	-9684	-15312	-22814	-32768	21789	-2860	-3288	-13400	-5764	3951	1215	138	174	1
-10788	-3672	11676	-1147	2778	2669	-16536	-896	-1836	-3961	9558	2162	-15564	4764	-2528	-4963	14988	1996	-32768	12928	14896	8681	-32768	32767	-24488	-6748	-13340	-5476	-32768	22100	-3928	-436	-7616	-11584	2452	2238	128	185	1
-10492	-5724	11512	-2077	3786	3377	-16308	-632	1328	-8192	10227	2047	-17352	-1176	-452	-5132	13033	811	-32768	6496	9276	1016	-32768	32767	-25996	-5064	-18260	-7387	-32768	21069	-9440	1860	-880	-17281	-6890	8693	129	142	1
-10444	-4124	12876	-1376	5152	3993	-15776	-3988	2204	-9566	12444	2519	-19092	-4272	868	-4734	11146	-645	-32768	-9660	-3860	-1062	-32768	29053	-17924	-6888	-18196	-2816	-32768	17219	-28136	4180	12696	-25636	-14503	13175	146	242	1
-11560	-4852	13012	-524	9065	3086	-18272	-888	1372	-7655	14811	5001	-19104	-4372	-776	-6815	7930	1572	-32768	-17120	-23596	2861	-27776	13643	-16252	1064	-12044	-2767	-17322	14711	-26460	7596	32767	-4771	-2313	8142	152	253	1
-11368	-5288	13144	-248	13014	4204	-18988	-2816	980	-5331	16730	5350	-19684	-1784	-716	-8513	6609	4304	-32768	-28316	-32768	7473	-11551	4810	-7428	-4648	-7168	146	-3370	5834	-12100	-5380	32767	3134	12190	-1473	137	253	1
-11632	-5580	14092	1407	16837	6794	-18848	-2348	876	-4495	18206	5501	-19944	-2696	-2348	-6176	3136	3862	-32768	-18092	-32768	2715	7522	-1934	-2968	-3904	-8352	3963	15572	-3827	-20752	-2968	14756	9081	-214	-6441	127	128	1
-10896	-6656	13716	2986	22777	10556	-20368	-1936	-1100	-3480	19887	6441	-20220	-2000	-1136	-6882	-601	3160	-28996	5484	32767	-14450	21293	-7151	-20216	4904	3740	13040	24874	-6103	-26704	3732	15840	10530	-6126	-1818	134	70	1
-10240	-7088	14884	4110	31955	15617	-22572	-2096	-680	-3346	20763	6300	-24272	-3548	2616	-7420	-5270	5238	3664	-18628	6336	-9966	26245	-12208	-32768	10752	17200	-7224	10947	4094	-8952	-1816	-11212	27034	18867	1111	145	63	1
-11292	-11476	16628	4656	32767	23221	-32664	256	4488	-6720	21062	6249	-25748	-4552	3596	-7367	-6419	5338	-32768	-12844	32767	-5489	29615	-17106	-7636	-10100	1580	-21270	16649	-7202	-23264	3792	10424	-11882	3766	5286	127	13	1
-16880	-12168	13108	2428	32767	31271	-32768	740	20100	-27330	20202	6279	-26604	5156	16504	-7535	-20547	4997	-32768	24940	8016	-16866	2550	-13919	-32580	-6004	-21448	-10331	27369	-14789	-24108	5608	-12428	-9824	5746	4779	134	117	1
-32768	-9812	17164	9217	32767	32767	-26660	-11756	5340	-31307	20528	6795	-27788	-4036	8800	-11540	-17559	3327	-19916	-11180	21960	-11332	3811	-9268	-19448	-8828	-15700	-6443	13105	-1261	-17336	-16296	-14684	1006	14286	-4196	133	75	1
-32768	-30744	17584	37	32767	32767	-26884	-17272	-11520	-13490	26105	9535	-22956	-19348	-9100	-4795	-18674	-4903	-8896	1820	18456	-6233	791	-5325	-12776	2824	-8804	-13382	19239	-4767	-6700	4024	-9156	6571	11177	-3632	146	181	1
-32768	-25028	21576	4431	29487	32767	-27524	-5740	-7088	-2276	21298	3287	-30104	-288	-9036	11094	-20964	-7553	-10732	6408	13276	-2868	251	-2707	-11944	-3152	-12028	1631	11202	-4857	-15628	14512	-12460	-4496	12815	-885	145	119	1
26832	-23312	13048	6117	32767	32767	-18604	-7896	-11376	13653	13738	1018	-28640	5948	-9888	13569	-22403	-6781	-9700	5656	13876	-1491	1409	-2161	-22344	2360	-9344	5785	10725	-2418	-19632	-1376	-5960	-7280	14210	-476	128	85	1
-32768	-21828	21252	-7403	1385	-6850	-14504	3864	-29544	18908	9317	627	-24112	5980	-8596	8348	-23953	-8765	-9680	4556	13752	-950	1981	-1901	-19664	-1404	-5552	8224	5699	-1595	-17656	-6848	-2208	3688	14059	-2542	124	82	1
-11740	-30312	15804	3212	-23472	-26260	-14540	6844	-23452	13412	8822	-261	-23888	3708	-7124	-2830	-24350	-8396	-9464	3496	13992	12	2438	-1334	-15056	272	-2236	6820	6843	-2051	-15840	-1852	-416	12094	14806	-3186	122	85	1
3084	-10744	9968	10124	-22851	-21102	-9440	-4508	-8680	-23576	-8365	-5102	-19584	-1980	-10408	-7921	-21767	-9037	-9556	3748	13540	924	2604	-918	-17460	4184	-3460	-396	6609	-1480	-16676	3956	-1484	12561	16190	-3222	122	94	1
1920	1148	7852	-2245	-17090	-20748	-4896	-11860	-6384	-262	-14434	-7209	-17444	-672	-11256	-5937	-20483	-10476	-9184	4536	13844	1139	3059	-824	-17292	2128	-4168	-6178	6588	-1980	-14644	4588	-2816	9298	17938	-4242	110	95	1
-7256	-8788	9340	-10169	-20099	-23442	-220	-4700	-11872	26000	-19142	-11763	-14516	1560	-12004	-3893	-18321	-9882	-9700	4984	12860	711	2798	-1322	-16144	-736	-4816	1417	4809	-1267	-13676	5064	-3764	4204	17932	-4067	116	84	1
-10568	-12132	10912	-4114	-28852	-24543	-3928	3384	-10832	28072	-25034	-12365	-10840	1672	-12064	-2871	-17016	-8882	-9820	5048	12624	43	2348	-1855	-14824	1696	-4176	8730	4724	-1112	-12908	5180	-2356	1191	18899	-4303	120	91	1
-9472	-5248	11084	-3040	-32768	-29099	-4884	5788	-10700	18261	-32068	-12513	-7364	176	-12908	-3177	-14429	-9075	-9852	4488	12528	83	1330	-2351	-15608	4716	-2856	7636	5438	-1080	-13648	4720	-1228	115	19781	-4939	128	100	1
-12176	-5176	10096	-7105	-32768	-32768	-6912	3824	-10284	8034	-32768	-9423	-6136	292	-12944	-2977	-11328	-7871	-10032	4776	12440	1394	359	-3429	-16076	4292	-1544	1293	5527	-1690	-15748	4976	-3624	-1214	17214	-4654	134	113	1
-17696	-9124	10984	-5645	-32768	-32768	-6412	-24	-11176	7162	-32768	-8599	-4356	2004	-12352	220	-7318	-5730	-9568	4136	13052	767	662	-3143	-15456	556	-2160	-1364	6159	-1857	-15496	2400	-4472	-3959	14272	-2377	136	109	1
-22992	-6904	12864	-2603	-32768	-32768	-6888	-1408	-13104	12268	-32768	-10150	-4108	1944	-12748	3542	-3901	-5211	-9732	3648	13000	-163	1968	-2585	-16816	-2412	-2068	1870	6882	-2571	-16548	-1096	-576	-3565	13972	-1949	128	108	1
-32496	-6188	14424	-3683	-32768	-32768	-10724	-1768	-14760	18943	-32768	-10682	-4320	532	-12144	8203	-2654	-5466	-9684	3932	13128	-286	3228	-2444	-17516	1240	-1912	3979	7491	-2206	-17588	-2916	520	-49	14627	-1464	126	104	1
-32768	-2908	12216	-5614	-32768	-32768	-18676	308	-14532	22991	-32768	-7545	-3908	1952	-7572	15326	-2066	-5218	-9884	3772	13584	152	5102	-2954	-19292	2184	-1024	3104	8236	-2284	-18900	720	128	2316	14058	-1157	126	111	1
-32768	10248	5576	-11872	-32768	-32768	-25296	4840	-19408	20419	-32768	-2169	-4980	620	-3976	21432	-4031	-6403	-10240	3980	13328	405	7581	-3358	-18604	2640	2416	5261	9219	-3251	-18096	3284	3432	4203	11760	958	128	101	1
-32768	20832	-2496	-19136	-32539	-31017	-22200	6592	-19036	-4447	-32768	-2675	-21212	-2048	4840	20331	-14808	-11214	-10044	4408	13560	401	10193	-3615	-14908	5140	4360	6551	11889	-5330	-18980	3224	6356	6564	9519	1133	117	98	1
-32768	25424	-13600	-16881	-24997	-22873	-16440	4400	-20352	-23964	-28677	-4430	-32768	-2216	23020	1026	-18799	-12242	-9880	4332	14208	218	13934	-4586	-18168	6496	2640	5173	15255	-7560	-21432	8684	4152	9254	7832	82	41	115	1
-32768	23984	-28768	-4765	-20197	-680	-12856	-380	-12316	-28126	-14551	-2875	-9828	-1840	24792	-8089	14511	-3079	-8804	4728	14820	-562	19416	-6002	-21928	4652	2924	4186	17107	-8834	-22376	9752	2540	7584	4841	-618	28	120	1
-32768	28148	-32768	13340	-1375	25573	-1824	-8784	-2528	-6125	4819	-4528	-9664	1840	22772	-13289	12275	4709	-9300	4632	15448	-1110	26697	-8421	-21772	2824	2504	5285	18796	-9473	-23212	2380	5492	7275	-1066	-1506	91	123	1
18072	18360	408	28470	9876	31732	-6064	-1280	-8620	16062	22403	64	-32768	-272	32767	-7007	-1791	9364	-12764	4676	15936	380	32767	-10669	-24008	-104	3648	7568	20406	-10565	-23636	1172	8740	10009	-4150	-730	114	128	1
-31804	6104	32767	17246	26104	13266	-32768	-3640	18912	24675	13090	8812	-20248	-3232	-5612	81	16372	5224	-12832	7244	17800	426	32767	-13793	-32768	1672	7432	12671	21696	-11075	-29416	8092	11432	10638	-11041	-522	87	125	1
-32768	-11612	32767	14948	1029	16657	-19328	-8828	-10432	32767	26162	7646	-30760	-4664	6412	16750	9015	-8669	-18968	9868	20548	2924	32767	-20236	-32768	7544	12548	19191	21060	-10290	-32116	3448	11068	7695	-23339	-999	133	96	1
-9200	3476	26880	14202	5024	13124	-17680	-2888	-12116	32767	28166	6095	-19992	9016	-25284	9774	11189	4237	-32768	12920	22288	15372	32767	-19718	-32768	12868	5300	24477	23196	-9132	-29468	3008	8148	729	-22770	-2302	134	123	1
-18064	-13108	8760	2760	2724	3516	-14832	-1564	-19184	8279	20875	-4	-3440	18756	-12908	1224	10056	5271	-32768	5728	32767	25799	32767	-26000	-27024	13520	-12628	15316	21024	-11682	-26152	11148	-8352	4064	-23216	4483	144	118	1
-10744	-4080	11700	1656	56	1625	-11560	1204	-18376	5611	19724	-592	-9440	-1444	-18976	-20832	8739	7182	-24336	23288	32767	29058	31292	-21048	-28016	12	-13588	-1246	19585	-11502	-28484	10292	-14720	-1360	-23204	6997	113	111	1
-10128	-4236	11580	1718	-1424	2130	-15936	-5360	-11096	-32154	7638	-2118	-14420	-19776	-12848	-6203	14294	576	-32768	32767	32767	13633	10838	-13538	-21992	-13840	-22112	-4813	13486	-7837	-30636	268	-9088	-14143	-31593	5287	138	102	1
-10496	-3624	11956	1241	-1475	1584	-22344	-13444	-5732	-16377	5200	4816	-20972	1200	-5764	7656	17531	-328	-4232	32767	26064	-15936	-18705	-1385	-15080	-3132	-5580	10776	3381	-5861	-28616	-504	-5048	-15330	-31858	5281	160	131	1
-10244	-3564	12680	410	-101	748	-19196	-6192	-3144	12435	6646	710	-19504	7096	-1744	-708	16224	5020	6412	4252	17816	-13581	-21292	-4322	-11732	-200	-4732	15645	-5589	1694	-21244	2100	-5808	-5006	-25065	7943	152	144	1
-10024	-3656	11792	372	788	504	-14776	448	-3448	16860	6169	609	-13024	-68	-1988	-7211	17425	10646	3880	3036	15116	6206	-22081	3433	-5436	1652	-6020	3343	-11945	7230	-19184	1452	-7500	-1764	-23711	6017	148	144	1
-10112	-3844	11324	149	1227	243	-13996	772	-1776	10321	6586	3084	-13876	-2924	-2556	-2604	18253	7196	-1420	16792	13340	8642	-24693	10636	-4664	-2524	-6512	-5625	-16159	10259	-18668	-392	-8908	-1515	-23287	4735	140	156	1
-10380	-4764	11036	-118	1405	464	-18196	192	-1936	-1892	5778	2590	-15444	-1972	-1644	1141	18536	3178	-6096	15660	13080	-1004	-30287	16495	-3644	-4588	-7584	-8233	-21598	14405	-12028	-1312	-9460	-1245	-21139	4549	148	168	1
-10116	-5256	10328	98	992	1309	-14792	-32	-640	-15509	3518	252	-15336	-1972	-1544	1570	18757	3283	-6016	8072	11868	-1690	-32768	22524	-3516	-4312	-5008	-4691	-26635	16935	-6768	-1244	-10032	-325	-17325	4595	144	169	1
-10092	-4052	11060	742	318	2252	-12676	-3908	1016	-18230	4077	45	-13808	-2732	1228	-1298	19910	5518	-6220	6776	11832	-899	-32768	23424	-5028	-3264	-6652	-6141	-30575	18969	-4788	-1984	-10316	1068	-12660	2724	137	160	1
-10960	-4208	11076	1482	-670	3082	-15896	-10768	1360	-1463	6095	1476	-19316	-6244	-2864	-5676	14430	6855	-12940	5992	15532	3112	-32768	28292	-5360	-3676	-7136	-11209	-32768	21776	-5128	-1144	-11148	626	-7644	1282	141	161	1
-10484	-4088	11204	1770	-800	2939	-15172	-4044	2236	10714	8589	1661	-17448	-4416	-1864	4167	12864	5617	-17820	5512	18936	2122	-32768	28356	-7616	-4864	-10448	-17129	-32768	23596	-5848	-2072	-12328	-679	-3815	164	122	147	1
-9984	-2812	11448	1699	129	3704	-16428	1200	-936	6139	9635	1527	-16316	1356	2172	4379	14734	1511	-24408	9240	21944	3599	-32768	29654	-13332	-6416	-14300	-21901	-32768	23409	-6508	-1900	-11884	715	142	1042	124	153	1
-10992	-5504	12284	1615	1328	4189	-15468	1072	-2208	-4855	10146	1715	-14624	7128	80	-4835	16914	-273	-32768	11896	21352	80	-32768	32767	-18288	-5384	-7340	-12938	-32768	18607	-6352	-2396	-13220	-1281	1738	1027	124	164	1
-11012	-3612	12608	1447	3223	5173	-17692	-1644	-1752	-10022	10030	769	-18280	-1156	-5136	-9803	15130	3002	-32768	12452	17236	-4946	-32768	32767	-21256	-2072	-14768	-14884	-32768	17460	-5236	1532	-8672	-8608	749	3691	142	171	1
-10912	-3572	12028	-222	4860	6221	-18148	-2880	860	-10914	10890	1212	-18424	-6724	-1948	-4809	11482	522	-32768	1372	7276	-4940	-32768	32767	-24100	-9276	-17876	-22307	-32768	11966	-10528	5264	-3636	-17766	-7734	8013	147	149	1
-10628	-1872	15520	1496	7365	6223	-15376	-4508	324	-5977	13253	2596	-17808	-2480	-92	-2729	10270	429	-32768	-7408	-7956	2740	-32201	31622	-22376	-10376	-17976	-8788	-32768	8359	-25880	1332	9008	-32768	-13100	9542	137	253	1
-11468	-3060	14572	1267	11247	5856	-19480	1072	80	-6129	15498	4663	-18308	-236	-424	-7046	8885	2774	-32768	-10140	-24804	9237	-23404	17923	-12836	-4992	-18676	7922	-22095	12924	-20640	1416	32767	-18405	9929	3228	135	253	1
-10944	-2820	15292	1627	15471	6227	-19284	-804	-188	-6186	17470	4368	-21268	-2060	-1556	-6612	6527	4565	-32768	-18232	-32768	6869	-4156	7144	-6912	1220	-8312	12524	-5752	6402	-11880	-15772	32767	-83	8350	-6630	137	254	1
-10428	-3860	15296	3257	20822	7574	-20644	-772	304	-7612	19252	6014	-20884	-3544	-1452	-6564	2494	4227	-32768	-28400	-32768	-6450	18763	-12323	-3892	1860	-9388	8884	16862	-5587	-27808	-1500	16968	13105	-525	-6702	135	125	1
-11188	-5332	15184	5448	27940	11404	-20824	-3460	836	-5184	20786	6711	-21820	-2864	1296	-7593	-1666	4958	-16216	29648	32767	-10842	32767	-16091	-32768	13140	30196	12175	20943	-6412	-23228	9948	12868	22489	5746	725	134	56	1
-12536	-7716	16056	8293	32767	17956	-24584	-5052	3296	-6308	21939	6465	-26864	-8184	3980	-6695	-7118	5621	-32768	-11248	24508	-11627	31276	-22892	-23296	1924	-11232	-23267	16060	718	-19476	-5056	3184	16541	10656	2276	125	60	1
-12472	-12432	17840	6800	32767	29079	-32768	-500	6540	-8331	21332	5523	-32768	-4892	18628	-5445	-25272	4213	-32768	17912	22152	-15440	4908	-20329	-18016	-21860	-14260	-26443	30543	-15944	-21532	6876	-7904	-2269	7139	10574	135	25	1
-26272	-18244	14804	9870	32767	32767	-32768	728	19544	-27279	19670	4997	-26284	8688	10920	-5675	-20355	4905	-13760	-12928	23364	-14967	7039	-14111	-16752	-7048	-21608	-10378	24725	-11747	-3324	-2256	-11808	-5507	9113	4293	132	41	1
-32768	-11864	16736	-1776	32767	32767	-23884	-18552	2800	-32512	22782	5164	-23720	-6240	-1724	-9541	-18328	149	-9456	10032	14740	-9526	-1193	-6775	-9356	5716	-13664	-5915	16696	-4377	-8760	-1316	-16252	-876	7774	-5016	134	45	1
-32768	-26208	14480	3605	32767	32767	-27972	-10088	-7024	-19418	20630	3577	-24496	-7248	-9096	-2218	-19427	-6302	-11324	7432	12492	-4218	-1368	-4929	-19580	-6020	-16228	-8296	17399	-5043	-18956	10132	-12460	-5740	13532	-2108	137	32	1
10580	-32768	17028	9444	27396	32767	-22084	-7064	-11552	-1458	15445	-171	-30484	5476	-8340	3877	-19911	-7799	-11260	3320	14092	-2773	-626	-3566	-16308	-544	-11872	4977	11795	-3143	-21352	264	-7464	-8480	14936	2973	137	55	1
-32768	-12644	22816	-4728	17156	11032	-14516	-3668	-32768	22509	13902	-238	-23084	5532	-9956	5145	-19795	-8302	-9424	2920	14504	-2100	120	-2621	-20212	-3636	-6492	-133	9537	-2669	-18396	-4860	-2064	-768	14507	-254	127	75	1
-19856	-31440	15552	-3921	-7938	-21181	-15896	15176	-11044	2611	7920	-5438	-25080	6240	-7096	856	-22415	-9969	-9132	2016	14812	-1057	1218	-1784	-17696	-2920	-4780	2808	6753	-1271	-14940	-3752	-960	6263	13923	-3881	124	82	1
-4308	-17256	11388	7630	-12029	-21975	-12120	3220	-7640	-20231	-2808	-6230	-19964	2632	-8132	-7441	-22048	-9360	-8944	3136	14340	82	1840	-1113	-13848	1452	-4252	-4957	8056	-2134	-16644	740	-1368	5942	15690	-3226	122	95	1
-1728	-708	10812	1758	-10932	-23152	-7800	-6980	-8208	-10524	-9694	-9131	-18728	520	-9360	-8979	-19865	-11638	-9360	4328	13584	91	2144	-1391	-19208	316	-5016	-6224	7340	-1052	-16292	1116	-832	5087	16903	-1612	119	106	1
-9412	-2828	11976	-9693	-14038	-28400	-2596	-5652	-10540	16572	-13815	-12015	-17812	932	-10356	-6806	-20364	-12013	-9072	4060	13552	-434	2319	-1641	-16648	-1532	-4948	1055	5996	-419	-15944	840	-1296	6035	17070	-1579	119	102	1
-10800	-8288	13552	-8349	-23699	-29319	-6604	2840	-10116	26239	-18279	-14373	-13900	1132	-10024	-3911	-18664	-12035	-9016	3960	13580	-78	1850	-1849	-14572	1744	-4716	6579	5210	-384	-14616	4440	-2308	9791	18699	-3550	117	88	1
-7252	-2724	13760	-5052	-28957	-30231	-8408	7068	-8052	21125	-25317	-14606	-11400	1040	-10480	-3615	-18310	-10324	-9408	5140	13460	-245	1208	-2013	-16040	3684	-4320	5343	5392	-710	-15688	6564	-1380	5266	19620	-5900	127	105	1
-8700	120	13696	-7896	-30198	-32768	-8156	6164	-9200	12749	-31229	-11999	-9396	668	-11492	-4741	-16328	-8172	-9448	3772	13428	-46	2011	-3018	-16692	2308	-3184	2010	5415	-693	-14652	7176	-1208	-1411	19794	-7008	128	113	1
-13992	-1912	14484	-9420	-32768	-32768	-6684	3356	-10516	8537	-32768	-9648	-5668	780	-12180	-4176	-11810	-6275	-8876	800	13752	-642	2732	-2966	-16460	636	-2628	1513	5639	-1150	-15156	5844	-2948	-3361	19780	-5551	135	124	1
-16920	-2936	15376	-7812	-32768	-32768	-5444	2520	-11344	8350	-32768	-9282	-3804	1756	-12412	-1335	-7180	-5133	-9148	2840	13568	-209	3413	-2716	-16484	-1236	-2632	2187	6166	-2206	-16704	2248	-4292	-2490	16611	-3641	135	120	1
-20992	-3360	16736	-6917	-32768	-32768	-7156	1136	-13144	11471	-32768	-10496	-2832	1240	-13100	2708	-3145	-4599	-9660	2896	13536	133	4195	-2700	-16564	-432	-3208	1663	6581	-1820	-16080	-2396	-2252	-2463	15092	-3681	130	123	1
-30600	-9388	17828	-5229	-32768	-32768	-11928	780	-13856	13438	-32768	-10067	-3620	2360	-13248	9592	-885	-3577	-9664	3012	13872	388	5522	-3230	-18040	-1016	-5340	2078	6891	-1530	-16024	-4228	-1268	-2118	17159	-2040	128	114	1
-32768	-3720	15920	-3983	-32768	-32768	-19348	-412	-11884	17433	-32768	-7945	-4148	4188	-9468	17822	820	-3063	-10512	2900	13200	901	7851	-3336	-19584	-1640	-4440	4641	6833	-1330	-17636	-2236	-2496	357	18194	-754	124	87	1
-32768	4628	7776	-8886	-32768	-32768	-22016	2932	-16176	22578	-32768	-4295	-2476	1716	-5068	19874	-300	-3023	-9936	2600	13888	1463	10661	-3624	-19680	156	812	8941	7289	-1305	-18528	1920	112	3654	14648	-431	119	123	1
-32768	13440	96	-11770	-32768	-32768	-27108	2016	-14572	13051	-32768	-867	-18984	-3492	16108	23917	-19851	-8167	-9544	1760	14316	1808	13587	-3085	-16208	3584	4380	9028	10100	-3536	-18816	3008	6892	5565	11815	654	130	120	1
-32768	32767	-11968	-13200	-17493	-32024	-22080	3716	-10544	-5396	-28708	980	-32768	-13016	23164	14791	-23409	-22250	-9584	2200	14460	1280	18028	-2405	-17632	5800	4408	3980	13272	-6826	-22676	6188	5360	7616	9817	-715	10	125	1
-32768	16676	-31548	-3330	-16548	-10944	-4588	6800	-20348	-18717	-13910	2326	-8148	4996	23592	-913	14111	1013	-9300	4296	14256	536	24106	-3497	-21576	3356	3680	990	15959	-8695	-23100	8796	3508	9317	6620	-2667	0	120	1
-32768	32767	-32316	-7478	-12968	11576	4384	-2404	-5960	-21398	5114	-5774	-10172	12516	26932	-7813	8548	5180	-10112	5808	13996	-855	30396	-7087	-22152	2932	3252	7054	16949	-8470	-22680	3136	4904	8647	1725	-1694	52	126	1
29692	14032	-25184	27913	9064	32767	-8460	-6260	-15196	-7080	22746	-3431	-26840	10776	10896	-15183	5368	14674	-12976	5636	14068	-2420	32767	-10701	-22548	3952	5420	11314	18553	-9713	-24796	1880	10596	11848	-4016	-443	126	134	1
-8076	-6452	32767	17297	29701	6981	-32768	-16072	24340	11809	9035	5029	-9312	-3772	-14604	-18072	21092	10026	-14396	7608	15672	-865	32767	-16652	-30256	5692	9376	15565	21154	-10962	-29068	10008	14008	13425	-10220	272	93	140	1
-32768	22780	27600	11494	23688	28095	-19484	-1084	-6696	32767	23363	4369	-32152	-15172	6800	602	5691	-17287	-25252	7520	21372	3475	32767	-23012	-32768	6656	10696	21271	22915	-9589	-32768	9164	17916	10879	-28868	802	130	118	1
-20248	-11888	13268	15974	1368	17335	-29332	21392	-14500	11484	29739	3844	-28284	12468	-18296	14654	11660	4166	-32768	21960	31676	17869	32767	-25806	-32768	13592	2324	26020	22836	-8441	-31520	6868	13156	9829	-26807	327	78	94	1
-17724	12004	15828	4673	4315	6457	-16196	2508	-23448	2136	21059	250	-9168	16512	-14284	-2486	8876	4880	-32768	10940	32767	23393	32767	-28836	-24828	17860	-9628	10595	22435	-12136	-25304	12836	-10888	5381	-22140	6480	152	110	1
-12380	-5712	12496	3249	2001	3635	-9100	-1288	-11292	-9742	15862	58	-6252	-988	-15184	-18929	4947	11759	4072	28280	22988	17603	30499	-30117	-29392	-2820	-12664	-3134	19623	-12466	-31400	9460	-13980	-4637	-21921	9478	120	100	1
-12568	-3908	12164	2780	1980	3398	-11032	-8148	-10544	-21445	10091	-326	-10764	-24104	-14220	-3005	12016	7133	-32768	32767	32767	2301	7278	-14094	-18732	-7032	-23564	-12815	13105	-8545	-27964	-3324	-11220	-15763	-27019	7610	130	85	1
-11200	-6024	10612	2438	-601	3277	-13816	-13672	-6856	-5216	10898	4369	-17396	-2320	-7428	15471	13685	-1773	-5364	28716	21216	-16535	-9347	6380	-15604	-6916	-8212	3159	3953	-5958	-26468	-3180	-4840	-17657	-32180	7848	155	103	1
-10952	-5212	11272	1700	-768	3111	-24556	-3568	-5044	13173	9417	2399	-20356	8116	-3688	4704	15101	1753	3596	5648	16868	-12417	-11262	8576	-12852	-2408	-6104	13552	-4830	1148	-22740	240	-5608	-4110	-27101	9916	158	147	1
-11176	-4124	11004	1630	-1227	2694	-14936	3036	-4732	6821	8247	1761	-15228	2316	-1908	-4688	13972	7082	92	4148	17120	4524	-14503	14565	-5080	764	-7928	1936	-9520	6315	-22100	-988	-7072	-2408	-24161	8818	153	170	1
-10660	-3940	11084	1600	-1364	2094	-13208	1544	-4392	-970	7533	2054	-12272	-1948	-2744	-5558	16094	7934	-4912	13236	16140	6705	-23639	16187	-3988	-2228	-7208	-7599	-14146	10487	-19452	-2868	-9176	-2033	-24014	6154	143	160	1
-10432	-3904	11216	1181	-713	1701	-16320	-4592	-3864	-1501	6850	2774	-16624	940	-3608	-4472	17793	4135	-7464	12488	15264	-928	-32768	15978	-3520	-5572	-7680	-9979	-19382	16270	-17332	-2300	-10064	-1262	-22779	5753	153	152	1
-10624	-4336	10900	769	21	1723	-18416	-2772	-3624	133	5000	2375	-14952	-340	-3860	-4873	19227	4589	-6960	4720	13448	1262	-32768	20500	-3992	-6848	-7172	-7332	-24672	20646	-10544	-1456	-10472	-388	-19673	5051	166	146	1
-10180	-4516	11128	355	258	2217	-16300	2000	-2792	-5752	4395	1678	-13960	-1888	-2764	-1277	20870	5723	-6656	4276	11700	6151	-32768	24376	-5360	-5700	-6076	-4507	-29921	21809	-5492	-2616	-11500	1342	-14650	3030	142	144	1
-10864	-3680	11152	170	1243	1980	-14736	-484	-1812	-10625	4636	1141	-15456	-2460	-2372	740	19542	6924	-10768	4428	14352	7022	-32768	26336	-5412	-4284	-7264	-7040	-32768	24361	-3916	-2232	-12604	2611	-9373	823	136	146	1
-10516	-3224	11160	-57	1491	1832	-15800	-4804	-860	-4428	5727	1208	-17136	-5764	-1064	2110	18543	9175	-17852	5052	19212	8519	-32768	29970	-6108	-5768	-9340	-13017	-32768	25579	-3500	-2004	-12760	2236	-7746	936	133	135	1
-10624	-4472	10936	-249	1709	2140	-16360	-5000	-1108	3112	7229	1902	-15376	-4188	-3352	3411	15217	7348	-26492	11028	23048	8214	-32768	32280	-10964	-6812	-13724	-16125	-32768	24991	-4720	-2904	-12816	-2012	-534	1346	119	154	1
-11340	-5440	11220	424	2343	3000	-15768	-2096	-564	4606	7971	1995	-17608	2052	-472	7151	14352	4485	-32768	9644	23468	3127	-32768	32767	-15724	-6604	-11324	-11997	-32768	23644	-4040	-4916	-13776	-932	882	1789	155	179	1
-11120	-4736	11004	429	3219	4317	-16504	604	-1784	-1354	8718	1970	-17200	5200	560	129	15797	1829	-32768	4172	21884	2584	-32768	32767	-20340	-592	-13532	-12359	-32768	23210	-3656	-1252	-11288	778	2334	3027	137	214	1
-11380	-3232	12044	238	4008	5090	-17728	176	1000	-9570	8824	1209	-17500	264	1472	-7071	15357	3050	-32768	-1520	16132	3136	-32768	29916	-26860	-6808	-14940	-18169	-32768	17155	-8728	6732	-3116	-1642	-2220	6581	135	196	1
-10832	-4332	11964	1209	5823	5599	-17212	-1148	2728	-11482	11156	2708	-19360	-3408	3132	-5294	13092	672	-32768	-9652	4316	1707	-32768	23620	-26444	-11064	-17852	-7473	-32768	12494	-22260	8332	9972	-18174	-12512	14858	135	98	1
-11544	-2336	13376	1628	8763	6074	-14212	-5280	4656	-3834	15193	3632	-20244	932	4924	-5448	9201	-227	-32768	-16852	-17584	3171	-32768	11227	-14164	-9328	-14692	7502	-23394	11687	-32768	10296	27192	-23426	-1991	12038	130	253	1
-11404	-3532	14116	2371	12988	6630	-18484	676	1860	-1621	18831	4733	-20176	-4280	1340	-9931	6403	3602	-32768	-30852	-32768	14885	-19867	806	-1956	-1396	-12392	13128	-11095	8872	-23648	7636	30560	-19032	9607	10482	128	253	1
-10844	-4112	14496	3115	18282	8470	-20504	232	1380	-6077	20902	5160	-19728	-4848	-124	-7285	2763	4124	-32768	-13788	-32768	-13391	11670	-13605	-6424	3852	-9600	3898	13564	-3303	-18352	-13252	22664	12503	291	-14619	129	205	1
-9672	-5428	15028	4338	25864	11624	-19780	-1376	352	-6265	22508	5707	-21444	-2472	2516	-5373	-2826	4405	488	32124	32767	-13095	31192	-10307	-26768	10924	24892	17760	21748	-10211	-17768	12712	2572	25384	3920	-5618	144	113	1
-11460	-6992	17904	5452	32767	17110	-26232	-2288	2272	-7350	23982	5934	-28272	-6580	5584	-5572	-9885	6258	-22292	-20448	8284	-14601	32767	-21007	-32768	2700	-120	-11492	10797	6053	-23996	-7868	2680	12584	9861	-290	138	60	1
-11628	-9148	19332	3926	32767	26945	-32768	2616	4008	-8158	22862	6004	-32768	-7912	17020	-3067	-25338	4650	-32768	-7480	31652	-12451	19329	-20562	-18312	-14416	-9608	-21370	24349	-17565	-32768	15624	1676	-8047	5505	14443	135	45	1
-21660	-24052	15040	11296	32767	32767	-32768	-4840	15180	-29747	21134	7592	-29008	9244	10392	-1745	-19321	6717	-13856	-5356	22976	-14283	7101	-12657	-26792	-6220	-17988	-20228	25190	-13882	-12512	-17600	-11212	-4862	10145	8429	132	129	1
-32768	-9612	18192	-2793	32767	32767	-25468	-24516	-2460	-28097	22952	7065	-25856	-11548	-4344	-8085	-18244	285	-16616	12040	12816	-8190	2158	-5429	-6980	-6456	-20164	149	18696	-4635	-1060	-3200	-18812	11913	3999	-2401	141	72	1
-32768	-29108	16056	7761	32767	32767	-29008	-9548	-10684	-9906	18512	6467	-29088	-8824	-10724	2392	-20961	-6772	-9836	5660	14756	-4515	-436	-3546	-14644	3752	-16132	-585	16756	-5447	-13832	18852	-16872	4784	10684	-7175	141	105	1
84	-27652	18968	7128	27386	32767	-23472	-8672	-13100	3925	15906	3535	-31704	3628	-9800	8216	-20124	-6591	-9340	4296	14272	-3231	-1103	-3521	-16480	2824	-11260	4737	10692	-3374	-17488	10824	-11392	-9181	14481	829	133	64	1
-32768	-13508	19292	-2753	20005	15160	-16736	528	-30240	24843	10763	5569	-24980	3520	-11008	8821	-21318	-8464	-9176	2968	14712	-1948	120	-2785	-21192	1808	-8312	-86	9006	-4702	-20700	-2320	-4760	-6364	14730	-443	127	83	1
-19656	-29600	16236	-1874	-7961	-16881	-13544	11008	-14900	2864	5281	-525	-25100	3432	-8008	3874	-23220	-8917	-9016	2428	14772	-1296	1007	-2036	-18520	-4820	-5468	3850	5269	-3377	-16872	-5220	-716	1234	14344	-3739	117	70	1
-7064	-19712	10904	11876	-16046	-18191	-9980	252	-7700	-18311	-5127	-2871	-21556	1932	-10232	-3582	-22251	-8683	-9220	2108	14608	-33	1863	-1092	-15940	-3412	-3736	7474	4376	-2494	-15388	-2380	-1444	7232	15394	-4318	119	88	1
-4124	-3644	9064	8566	-19637	-17409	-6672	-7348	-10456	-8735	-12744	-6521	-18996	148	-10672	-3633	-21218	-10984	-8920	3200	14008	549	1993	-761	-16472	3888	-3052	2679	5661	-1918	-16296	-508	-1512	9016	16700	-3548	117	111	1
-5788	-2484	8936	-6171	-23005	-22751	-2276	-5964	-9916	14512	-16284	-8440	-17348	1996	-11148	-2400	-20207	-10676	-9068	3948	13716	569	2265	-860	-17604	4460	-3068	-3782	5554	-828	-14904	1116	-1176	11391	17073	-4091	114	108	1
-8248	-8764	9040	-11388	-27775	-25544	-3676	1948	-10724	24127	-21822	-11457	-13028	3400	-11204	-729	-19213	-9508	-9112	3788	13252	333	1888	-983	-15584	544	-3584	-3172	4749	-1797	-13984	3100	-1436	9539	17471	-3140	115	94	1
-9820	-9252	9564	-7851	-32338	-28813	-5128	6392	-10152	20131	-28424	-12272	-12560	3676	-11152	-658	-18938	-9253	-9120	4204	13076	-559	1433	-1311	-14944	80	-3032	6898	4260	-1371	-14136	5240	-352	7498	17800	-3951	119	95	1
-10560	-5296	10060	-6495	-32768	-32735	-3792	6624	-10964	10162	-32768	-12083	-5972	4192	-12212	-5641	-16206	-7432	-7932	3396	13480	-117	988	-1978	-15988	2668	-1680	9852	5514	-1305	-14400	6564	1180	2496	18349	-6262	133	106	1
-12816	-3204	10432	-9550	-32768	-32768	-4696	3916	-9036	2645	-32768	-11759	-3596	2920	-12648	-6969	-10821	-6162	-8980	3204	13468	130	765	-1966	-16568	3984	-1240	6223	6212	-1447	-14764	6364	-508	-783	19609	-5896	137	101	1
-17112	-4968	11904	-10994	-32768	-32768	-4528	1688	-11148	3409	-32768	-12573	-2872	2976	-13448	-5946	-5981	-2854	-8872	3380	13372	149	723	-2000	-16096	3996	-2552	-261	6952	-2429	-16520	4840	-4876	614	16511	-4315	134	110	1
-25284	-9872	14392	-8533	-32768	-32768	-6436	-408	-15700	8204	-32768	-14493	-2444	1704	-12056	-270	-2776	-1399	-8972	3560	13520	605	1695	-3450	-16584	932	-3536	-2198	7312	-2358	-17232	1868	-4260	-1010	14908	-3555	127	106	1
-32768	-5176	14732	-4195	-32768	-32768	-10208	1004	-10116	13157	-32768	-15294	-1288	1584	-12612	6660	503	-1520	-9008	2856	14604	552	2859	-4062	-18544	-416	-4936	3044	7061	-2005	-15948	224	-2416	-2172	15543	-2360	113	97	1
-32768	-356	11964	-8112	-32768	-32768	-18544	-2600	-12688	19018	-32768	-12498	-1748	1516	-8704	14113	1649	-3932	-9464	3344	13764	275	5096	-3885	-19192	-1124	-1792	8390	7208	-2046	-17260	556	-1060	-50	15463	-1503	107	105	1
-32768	6188	4168	-11675	-32768	-32768	-27844	2344	-16916	19064	-32768	-5421	-5016	-1980	-3716	16952	-2042	-6831	-11064	2444	13320	342	6743	-4121	-16020	5420	4468	10193	8403	-3182	-16932	2404	7096	3538	12592	-1534	121	106	1
-32768	23212	360	-13550	-28939	-32768	-28112	-768	-20744	11297	-32768	411	-26852	-11364	20188	17404	-31457	-14104	-9280	2504	14776	312	8816	-3757	-13776	6268	4888	2156	12328	-6540	-19264	2464	7616	4587	10751	-262	119	109	1
-32768	30172	-19372	-12469	-19190	-29480	-13760	7288	-13340	-16501	-22295	2100	-32768	-9172	18520	3137	-9540	-22682	-9548	2104	15700	451	13339	-3356	-20392	3896	524	-2663	15720	-9011	-22676	8272	820	5742	8486	-2174	4	116	1
-32768	12780	-32768	4646	-20497	253	-4428	3024	-17332	-23431	-9922	2028	-11012	2680	24320	-2357	18590	-2357	-8856	3624	16952	-227	19401	-3942	-23768	668	-260	1517	16627	-9284	-22392	7800	836	7084	5854	-2162	32	116	1
-32768	32767	-32768	-10760	-16730	21069	1336	-5496	-8684	-7680	9012	-9081	-12596	11848	27132	-9534	7119	5600	-8504	4632	15656	-852	26978	-6601	-21680	2660	1192	7054	17279	-9180	-23120	-124	3592	6376	114	-1715	91	127	1
-32768	-20748	-18112	21541	412	19207	-12916	-2024	1740	-2670	25744	892	-25620	8284	31496	-11601	4343	18305	-10664	3756	16128	-1863	32767	-9983	-22576	3176	1772	8330	19140	-10938	-22756	-884	4380	6635	-859	-1230	127	133	1
4140	-4784	32767	24630	23555	3195	-32768	-9540	27736	4661	9547	5056	-9524	-1044	-23076	-13203	20795	8102	-11684	6908	17656	-2562	32767	-14989	-31048	4904	6816	11213	20650	-11734	-29620	12204	13356	10955	-10176	-636	113	127	1
-29124	16704	20724	18343	32767	26416	-14744	-1808	-7152	32767	15730	6365	-32488	-16916	9628	7222	1763	-18199	-16776	9500	18240	-111	32767	-24190	-32768	5528	10104	18197	20423	-10369	-32308	3572	15172	8004	-24729	-1805	119	110	1
-32768	-32768	-620	12697	2559	21178	-13616	9560	-19048	25159	29269	2660	-32768	-2688	-2392	32767	14707	1521	-32672	7408	27884	7858	32767	-28003	-32768	14828	8180	31532	21376	-8866	-28804	4920	9012	4049	-20736	-3153	31	87	1
-32768	-32504	-2972	16051	443	18797	-31836	-656	-18336	20354	17912	388	-18940	23560	-12888	11762	11747	5758	-32768	11968	32767	18622	32767	-31510	-28740	20972	-7204	23307	18973	-13586	-26400	15524	-8752	6119	-23166	4304	166	107	1
-16444	-17316	8724	4387	1681	3425	-11712	12408	-12940	12371	18062	-635	-3244	7700	-16980	-11821	10202	10634	-32768	14508	32767	17373	32767	-32768	-26728	2772	-13372	886	17974	-13429	-27764	11276	-14956	-2600	-20682	7571	67	119	1
-10776	-6636	10220	2658	788	1891	-9848	-408	-12088	-17971	13416	-460	-9992	-17004	-13160	-9212	10133	6045	-32768	6684	16064	156	23861	-23560	-25060	-296	-10920	-3639	13091	-5163	-31980	-1524	-8632	-18415	-29382	5807	118	114	1
-10652	-4156	11716	2426	-484	2470	-11620	-10324	-8620	-18623	7595	-859	-14860	-4592	-8600	7804	16294	-1267	-18316	32767	29044	-14281	-16279	9096	-12652	-8408	-11120	-2070	7177	-9660	-28668	-3112	-4668	-20394	-32518	7835	152	106	1
-10720	-3888	11728	995	-149	2129	-27692	-7932	-3440	-1267	6920	3487	-21332	8764	-5088	-579	17707	397	9172	14412	15828	-22853	-21572	4707	-13308	-2568	-6164	12895	-4216	-814	-24208	-688	-5508	-2775	-28952	9550	164	135	1
-10848	-4452	11716	365	375	1460	-17948	-2352	-2372	5563	6226	1401	-18156	5056	-2908	-9660	16805	5457	6164	-3980	16108	-1480	-20729	9968	-5556	2108	-5220	-266	-10870	6941	-21908	1512	-8096	1285	-23269	8431	177	183	1
-10424	-4604	10972	282	555	986	-12828	1648	-1536	2662	5670	1300	-11240	-4624	-2188	-10638	17099	7453	-468	10168	15212	12957	-23929	17353	-4280	-3876	-6868	-12415	-15174	10914	-20024	-1132	-10244	-561	-24049	5552	157	174	1
-10420	-4976	10304	625	223	1045	-14856	-3872	-744	-2266	6017	2190	-15836	-5184	-1912	-2747	17963	3116	-6392	15320	15240	4856	-30999	19474	-3532	-7448	-7492	-12329	-22027	15362	-13972	-1468	-10532	-3280	-23235	4046	170	150	1
-10812	-5336	10100	1085	-203	1800	-15464	-4668	276	-1394	5467	233	-12596	-5168	-424	7627	19120	7988	-7652	5576	14648	1388	-32768	24360	-3220	-6812	-6536	-6263	-27370	18329	-7844	-2424	-10932	-1325	-18908	3795	145	165	1
-10264	-4944	10228	1548	-769	2325	-14132	-2508	1372	-2622	6197	925	-13588	-3924	844	7469	18429	3853	-7576	2432	13640	5268	-32768	27691	-4824	-4296	-6300	-4426	-32168	19844	-5840	-2380	-12220	1167	-13807	2885	146	173	1
-10112	-4084	10972	1924	-1334	2901	-13096	-2392	1104	-703	7359	1477	-17148	-3472	-436	398	15352	4068	-12128	2984	16400	6576	-32768	28300	-5388	-3948	-8140	-9246	-32768	21683	-2256	-1096	-11712	2158	-6794	1093	148	149	1
-9488	-4100	11316	2198	-1137	3058	-16124	-2492	1296	1027	9073	697	-18864	-3072	-2740	237	13869	6045	-17512	3792	20160	6791	-32768	28616	-6888	-5492	-9596	-14700	-32768	23555	-4496	-2520	-12608	186	-2274	753	142	161	1
-11288	-4520	11132	2251	-1277	2964	-17264	-3992	-1744	2821	9930	906	-17772	-2284	-1952	6915	13513	5040	-25560	9084	23448	8740	-32768	30303	-12420	-6728	-14168	-17717	-32768	23472	-5560	-2852	-13544	-356	565	1150	123	162	1
-8764	-3348	12316	1510	1258	3734	-16728	-1632	-2996	4013	10512	1268	-15472	1956	-908	2052	15737	2308	-32768	15712	23468	3877	-32768	32767	-16752	-6944	-12484	-11890	-32768	19922	-3408	-2592	-14268	-2190	2230	1029	140	176	1
-10968	-6192	13108	1539	3319	4146	-17468	-96	-1888	-1347	10917	1131	-16392	6476	-2484	-3958	15271	1826	-32768	11380	18260	-1109	-32768	32767	-21376	-1904	-13260	-13099	-32768	19771	-4008	1080	-8492	-8687	1616	2645	138	193	1
-10216	-3564	12436	1067	5097	5566	-17420	-440	1460	-7755	11532	245	-19436	-4	1632	-7257	12169	1294	-32768	2660	9864	-3963	-32768	32767	-27608	-5236	-15752	-19827	-32768	15197	-8908	4704	-2564	-16415	-4987	7865	127	132	1
-10992	-3640	12184	907	5351	5624	-15380	-2464	2788	-12292	13281	1242	-17732	-2812	2436	-7159	10620	-2408	-32768	-7004	-1704	-4764	-32554	26451	-24408	-8596	-15480	-14472	-32768	11598	-27276	5948	17580	-32768	-18116	13926	126	240	1
-11252	-3652	13776	747	10931	6305	-17480	128	-44	-9440	16604	2570	-19896	-2992	-652	-9337	7717	-89	-32768	-16324	-23748	811	-26452	11233	-10724	-5208	-16976	-9902	-18654	8380	-15600	6512	32767	-13924	16560	9361	140	253	1
-11824	-3244	14920	1815	15076	7692	-20380	-2448	-660	-9243	18412	3704	-19364	-3184	-1292	-11177	5622	3477	-32768	-24004	-32768	7327	-12320	2568	-4496	-6092	-9744	4367	-4328	4031	-14256	-15308	32767	-4149	11067	-9365	131	253	1
-10608	-4076	14956	3187	20235	8908	-19980	-1772	-428	-6679	20258	4472	-20080	-3452	-2608	-6793	2348	3106	-32768	-12428	-32768	-10740	26579	-11895	-6592	1416	-10136	13521	19655	-5597	-26144	-3060	15068	6965	-1896	-12544	129	210	1
-10932	-5864	15468	5770	27396	12751	-20988	-2884	-596	-5438	21508	5366	-21940	-4208	116	-5562	-1979	3406	-11808	32188	32767	-8001	29403	-6262	-32768	9836	25996	18676	19298	-8723	-11368	15324	-152	23481	13116	180	144	83	1
-12660	-8068	16652	7974	32767	19189	-27084	-4972	2288	-6762	22387	5520	-27080	-9400	4940	-5800	-8327	5386	-8276	-10524	4152	-7207	32767	-15896	-26368	644	-3932	-16776	13108	3134	-17472	-13340	-1240	11318	10362	70	144	17	1
-11532	-11020	18460	5383	32767	29945	-32768	360	5224	-8342	21929	4591	-32768	-6760	18120	-2665	-24421	3436	-32768	-7664	32767	-6375	18498	-17554	-18340	-17332	-11468	-19752	24672	-16409	-32768	13360	-5508	-4587	6880	9948	136	1	1
-21732	-19128	11832	10657	32767	32767	-32768	-2312	17960	-29898	19571	3974	-27988	11332	13328	-3676	-19132	5089	-13008	20412	8932	-3091	19604	-7987	-25628	-8188	-13000	-18456	23420	-10951	-17940	-18256	-9796	-3440	10717	4240	128	126	1
-32768	-6280	16572	-3078	32767	32767	-23760	-19724	2044	-31796	21861	4048	-23036	-7332	-1664	-11832	-17862	-395	-15496	-6984	22440	-9144	7205	-9330	-10668	-4588	-16280	1119	15727	-2262	-10132	-792	-14768	13276	10059	-4420	135	39	1
-32768	-25904	14956	2083	32767	32767	-29444	-9976	-9716	-20846	18256	3650	-25068	-7668	-8396	-1450	-19809	-7413	-11956	11672	13132	-8256	2688	-7469	-17372	3964	-10524	48	15372	-2846	-9896	19656	-12832	-393	13047	-4293	142	62	1
2160	-32768	18080	10064	23933	32767	-22620	-7648	-4960	-5281	15645	-1145	-30928	6768	-8232	1870	-20134	-8001	-11784	5224	15008	-7727	-228	-6194	-15556	4708	-10676	-1506	12841	-3384	-17612	9148	-9400	-10178	15311	2129	133	39	1
-32768	-8824	23524	-4280	22421	13717	-15752	-2760	-32768	25222	11834	-353	-23612	4956	-9536	3617	-21190	-9460	-10652	4884	14288	-4931	-404	-4903	-17508	-1628	-6880	-4141	10191	-3006	-17036	-4272	-2840	-6664	14889	-925	131	31	1
-22936	-32768	17252	-7262	-7665	-25273	-14872	15436	-11860	3180	6620	-6246	-24980	7620	-6852	-51	-22438	-10258	-14884	2548	15084	-2832	702	-3345	-20020	-6692	-3580	4755	7088	-3782	-17264	-6364	-492	2364	14756	-3815	130	61	1
-9856	-20384	13244	8924	-17916	-26919	-10508	3584	-8740	-20744	-4071	-8875	-19764	4572	-8708	-9351	-22191	-9187	-9952	2288	13896	-967	1760	-1843	-16560	-132	-3148	7571	6235	-2150	-16320	-1880	-1892	8342	15153	-3532	122	90	1
-2548	1880	11364	2923	-22198	-26415	-6464	-6668	-9408	-14272	-10170	-12429	-17300	1624	-10076	-11640	-20081	-11807	-14212	4812	14272	-461	1829	-1669	-17268	6096	-2176	-745	7748	-1821	-16060	1616	-1400	9763	17038	-2561	118	124	1
-5352	820	10848	-13992	-23516	-27372	-1480	-6384	-7348	15041	-14544	-14650	-15716	3192	-10808	-10713	-17931	-12982	-9544	2952	13552	49	2424	-1625	-17016	2116	-2740	-8547	7045	-1789	-14300	2596	-1476	7603	17277	-4408	124	121	1
-7168	-5564	12176	-13264	-28004	-23829	-5116	2624	-8916	28000	-19776	-18014	-11224	3428	-10180	-8210	-18127	-11166	-9312	3192	13600	243	3331	-1796	-15752	-4292	-3340	-1221	5943	-2898	-15592	2792	-1880	2908	17109	-3575	117	100	1
-5716	196	13340	-11261	-29618	-25710	-7548	8104	-8572	25052	-27097	-17986	-8668	2932	-11116	-8667	-16394	-10132	-9884	3100	13024	380	3363	-1962	-15956	-2092	-4128	9074	5989	-1599	-15516	2420	-1088	3216	18294	-5190	129	96	1
-8672	1528	14488	-15641	-29639	-31317	-7580	9572	-10424	13750	-32768	-14393	-8312	2800	-11240	-8836	-15858	-10422	-10476	3324	12792	545	2901	-2232	-17128	2276	-3120	10824	6315	-900	-12880	3928	-492	886	19465	-6818	132	97	1
-13608	-952	15692	-16478	-31948	-32768	-6860	6188	-9968	3112	-32768	-11910	-5080	2632	-11804	-8897	-9387	-7280	-10116	3036	12884	646	2463	-2460	-17252	2692	-2736	10391	6291	-864	-15276	5256	-3132	186	20336	-5962	135	101	1
-16712	484	17752	-15867	-32768	-32768	-6380	4068	-11612	-131	-32768	-12397	-3320	1672	-12192	-4841	-4315	-3730	-10432	3436	12700	59	3303	-2767	-15000	2988	-2184	-1867	7742	-3055	-16476	4164	-4876	-1528	15832	-3481	128	121	1
-22916	-688	19976	-16536	-32768	-32768	-8620	772	-12676	3876	-32768	-14000	-2916	1524	-12752	-15	-902	-3267	-9852	3892	13304	506	3769	-3716	-16948	484	-2760	-1486	8160	-2906	-15916	-488	-2864	-3996	13756	-2365	118	123	1
-32768	-2752	21396	-13938	-32768	-32768	-12892	-56	-12448	8937	-32768	-14056	-2288	1148	-11776	8720	1007	-2717	-10436	2908	13500	699	4989	-4506	-17600	-1468	-3800	4380	8354	-2444	-17244	-856	-584	-2224	14258	-2207	119	123	1
-32768	6156	17300	-16149	-32768	-32768	-20948	-744	-11924	16461	-32768	-11334	-3484	888	-6524	13946	1172	-3517	-10756	2452	13372	1165	7300	-4806	-19096	-1424	-1336	10033	9235	-3182	-18416	988	1348	4414	14035	-1411	120	123	1
-32768	16060	9200	-20100	-32768	-32768	-27852	2228	-16132	16653	-32768	-3486	-8712	-3052	1444	17223	-4037	-5500	-9572	1004	14472	945	10300	-4540	-18740	3244	4436	10415	9996	-4424	-17800	-616	5028	5608	12035	-691	130	126	1
-32768	32767	2388	-18543	-25146	-32768	-25964	5740	-12520	-189	-32768	-52	-32768	-18208	16564	15100	-32542	-15395	-10036	480	14900	451	14037	-3604	-16264	4248	5620	4374	13243	-7894	-20484	1288	6676	5806	10527	-731	80	113	1
-32768	31068	-15948	-7084	-19120	-23408	-11956	1408	-13868	-32162	-18064	5649	-21544	-4472	19440	5608	-159	-19273	-9300	1700	15400	31	20338	-2864	-20988	2896	3304	-1624	16063	-10540	-24656	8280	3792	6500	7850	-1927	0	113	1
-32768	23808	-32768	9159	-19676	17477	464	9312	-13872	-16542	-4002	2224	-5196	2936	31824	2220	20199	1697	-9512	5912	14460	-1008	27813	-5685	-23552	896	3844	1360	17714	-10477	-24864	8640	3348	6812	7107	-2213	42	113	1
-32768	20036	-32768	3790	9133	13774	2156	-7372	-5920	1100	16844	-5262	-15956	20076	24620	-4008	6663	20598	-11900	5340	15192	-2409	32767	-9669	-22796	4280	5852	8032	18588	-10511	-23756	1844	9784	6008	-4878	-2298	103	127	1
9868	-25020	32767	20991	14622	14142	-32768	6536	23224	6201	21199	10943	976	1808	-32768	-15161	24876	22018	-11952	6772	15848	-1715	32767	-15079	-27936	3696	8056	12593	21655	-12511	-26768	7672	16888	9644	-10597	-756	117	129	1
-9140	12364	7352	21524	23021	31611	-32768	-18768	-1180	27207	12390	-174	-32768	-6788	14604	1598	3988	-13221	-19064	7768	17584	1378	32767	-22472	-32768	6540	9212	18797	20911	-11940	-32332	8368	15620	9554	-24556	-922	112	116	1
-32768	-13516	4480	18421	-38	21270	-7284	8896	-17376	32767	30295	-745	-32768	-20716	6664	4844	10949	-9051	-32768	16164	24020	8986	32767	-25177	-32768	17952	6480	27522	21648	-11411	-29284	9896	5956	4427	-19319	-3189	71	107	1
-16736	15072	23244	13729	3906	15377	-32768	9900	-24052	23119	23481	1988	-15324	22516	-12712	16212	6557	-267	-32768	12680	32767	15587	32767	-32768	-27732	25264	-8216	15461	20608	-15981	-27096	21636	-12204	2107	-20361	6422	132	92	1
-16492	-5356	12648	3830	1341	4163	-8052	18228	-18532	-6784	17416	377	-2208	13428	-23180	-15479	8305	9050	-16592	29308	32767	16653	29689	-29264	-28580	1956	-14948	-9176	19541	-16359	-31172	5972	-13844	-15669	-21705	7323	115	94	1
-13560	-6788	9752	1844	924	1556	-11936	-2560	-15768	-32768	13179	-1222	-15320	-15524	-18120	-15113	7667	10799	-32768	32767	32767	3192	3970	-10600	-19968	-9704	-30688	-23610	14078	-11141	-31152	1164	-9348	-20937	-27619	7326	108	88	1
-10596	-4576	11412	1270	-92	2021	-21188	-23184	-11072	-27073	6647	-807	-12832	-10212	-8852	5805	15124	3369	-2856	32767	24124	-21741	-21870	6426	-15492	-4844	-3784	-985	1609	-7170	-29332	68	-6848	-15439	-29878	8955	141	105	1
-10156	-4508	12308	406	-13	1635	-16924	-12640	-3796	14957	7055	7758	-21724	5496	-6040	4696	17781	313	4792	7128	16836	-18458	-22261	5539	-13964	-2708	-7076	10919	-8053	533	-22724	1676	-8268	-3723	-25590	9714	147	132	1
-10088	-4380	11284	392	675	1284	-18624	496	-4328	22859	8687	1049	-17272	4996	-2928	-4653	16838	5424	340	5352	15604	1634	-24539	16755	-6024	548	-8832	175	-14524	6334	-21168	2324	-9692	-2924	-23281	8897	162	187	1
-10508	-4776	11340	409	1080	1590	-16248	5860	-2928	7660	6854	2499	-13224	-1344	-2148	-10362	16511	8602	-3028	16952	13132	2574	-28785	21316	-3240	-2308	-7904	-8658	-18793	8259	-19288	24	-11356	-7425	-23344	6900	165	143	1
-10376	-4388	11312	200	1312	1296	-14848	788	-2556	-10320	6281	3470	-16476	-2784	-1968	-8831	18058	4918	-7824	13088	12856	-5545	-32768	20903	-3952	-3688	-8360	-8135	-25415	13910	-14876	-1240	-11980	-8316	-21587	5243	161	169	1
-10664	-4972	10708	-33	1370	2077	-16364	-4984	-384	-17109	4094	1209	-16520	-2616	-1672	-8430	18159	4509	-9056	5920	12976	-1254	-32768	25285	-3648	-3740	-8400	-9379	-29875	17761	-7432	-2796	-12672	-5597	-16510	4925	136	154	1
-10688	-4772	10948	943	1339	3421	-14040	-8100	-68	-10647	4809	158	-13092	-4352	-188	506	18703	4737	-9380	7956	11896	2726	-32768	26508	-6456	-3968	-7656	-8753	-32768	19476	-4168	-3084	-12656	-2925	-12378	3247	135	154	1
-10712	-3276	11112	873	858	2844	-12344	-5276	-196	-180	6789	2514	-16984	-5016	292	1875	18801	5914	-14608	8336	15324	3248	-32768	27094	-6208	-3988	-9076	-13447	-32768	23296	-4388	-3120	-12592	-3181	-7351	1548	146	163	1
-10132	-4232	11612	770	1180	2762	-16016	-1544	-1328	3179	8621	2499	-17136	-3916	-4060	-3449	14742	7335	-22004	9456	19856	5771	-32768	29903	-8476	-5640	-12040	-19687	-32768	25162	-4928	-3784	-12992	-4753	-2851	1032	146	142	1
-10612	-3784	11932	619	2427	3251	-17976	68	-1452	1065	9212	1434	-17816	1448	-4276	5857	12652	5451	-32652	18524	23684	5914	-32768	32767	-15968	-8028	-17168	-19976	-32768	22639	-4176	-5668	-12724	-4305	-53	1294	150	159	1
-10388	-3780	11832	-577	3700	3639	-16176	-220	-3604	-4223	9549	2015	-15844	2772	-96	832	14495	3010	-32768	14004	20792	578	-32768	32767	-19924	-1796	-11996	-12298	-32768	20849	-2580	-4068	-11820	-3193	2332	1366	145	206	1
-11484	-3304	11292	-1587	5241	4252	-17372	-1804	-2188	-8729	9551	1771	-16420	3068	-492	-8858	15612	2748	-32768	5828	16796	-1046	-32768	32767	-24200	-3188	-13464	-16731	-32768	19672	-4072	2996	-5452	-4808	-584	4208	143	195	1
-10272	-2368	12312	-167	6926	4655	-17548	-744	1856	-10978	10728	2052	-19004	-2168	1412	-6214	13605	1440	-32768	-8748	-2148	-5650	-29583	18709	-29368	-6016	-16640	-8839	-32768	15578	-5288	3964	-4472	-5819	-2317	5498	151	168	1
-10384	-2848	14056	-360	9655	4734	-15980	-2540	4480	-9247	13955	3942	-19248	-1856	3976	-6516	10679	-269	-32768	-11804	-11504	7914	-30793	20523	-17772	-13732	-18240	-142	-26045	13494	-32768	7492	24272	-32768	-21756	20075	144	253	1
-10428	-4112	14992	587	14126	5128	-18180	-1096	1360	-4712	17433	4811	-21372	-2740	868	-9939	7213	3324	-32768	-20756	-32768	9516	-19435	5818	-6524	36	-18032	9717	-15627	12399	-8684	3376	32767	-5695	12305	4849	140	253	1
-10384	-6116	14376	2727	18910	7538	-21336	-1676	884	-6993	19217	5576	-20596	-6660	-560	-8417	4552	5459	-32768	-18972	-32768	97	5711	337	-5580	480	-7076	5817	4959	2632	-9000	-17204	28740	12669	3739	-11294	135	247	1
-11712	-6288	14116	5055	25191	11594	-20464	-4996	612	-5242	20827	6003	-21712	-5160	-88	-5310	830	4485	32767	-25464	-26404	-11682	32767	-7872	-9100	368	-10540	5378	25005	-11267	-32768	5812	6376	10977	-5072	-7022	137	131	1
-11540	-7212	15204	7204	32767	17518	-22800	-4396	840	-3214	22354	6263	-24148	-6508	2788	-4570	-4788	5421	-32768	-1852	32144	-3328	32767	-13483	-32768	688	16020	-810	17993	-4636	-18592	14716	5692	19504	12624	5602	141	68	1
-12716	-9816	18196	6624	32767	25525	-32768	-2064	5056	-4370	22786	5873	-32768	-8124	13160	-3058	-17905	5827	-32768	-4808	32767	-5259	25808	-18891	-13960	-16	-4812	-19149	20885	-7789	-25300	-3520	-2084	-2374	2653	3086	126	19	1
-19004	-12808	14696	8444	32767	32767	-32768	1148	19804	-21901	21171	6152	-30392	1684	13824	-3080	-21364	5373	-32768	24084	4400	-16902	7287	-16010	-23048	-8976	-21988	-16621	31149	-14511	-18404	2312	-20100	-3124	9430	3598	134	20	1
-32768	4708	22656	10884	32767	32767	-26092	-14760	4156	-27881	22297	6356	-28204	-2752	7148	-7287	-19283	2558	-21888	-6196	21468	-12487	1361	-8820	-12684	-9568	-27976	-12374	16968	-3103	-8528	-9736	-16324	562	10707	2827	132	25	1
-32768	-31128	19548	2537	32767	32767	-28972	-15924	-15384	-15096	26809	7814	-23380	-12736	-8640	1894	-18811	-4977	-8572	1176	19072	-6298	-3040	-5346	-15396	-2680	-11988	-12187	19612	-2283	-13792	3288	-14196	9231	12328	-1762	139	27	1
-15660	-25500	23836	7441	29267	32767	-26196	-3624	-460	-8449	19413	2087	-30856	3264	-9640	4238	-19725	-7201	-9752	2520	14904	-3242	-1562	-3408	-19428	-8220	-14580	12170	11555	-3054	-18444	13532	-12444	-1895	14767	409	139	32	1
-32768	7612	3740	5411	32767	28722	-15648	-9764	-11608	15554	10068	-1070	-28532	4864	-10188	8215	-21592	-7445	-10124	4092	13556	-2955	-403	-2286	-17800	4964	-7056	12920	9973	-3197	-20084	-428	-5064	-7194	15884	-2178	129	51	1
-31332	-30856	21268	-10269	-5712	-19687	-15184	5392	-18008	11819	8677	-669	-26476	6192	-6792	6926	-23761	-9507	-9180	3988	14480	-2630	-141	-2580	-19792	1912	-4344	393	7634	-2553	-17520	-5792	-220	569	15989	-4242	125	68	1
-5680	-29016	15172	6180	-19817	-24978	-12352	10752	-4748	-12717	-2699	-5607	-24516	5284	-9196	-4297	-25079	-8403	-9172	3032	14168	-815	1662	-1475	-16316	240	-3120	-5883	6696	-2385	-14488	-1688	-2044	8033	16296	-4997	123	105	1
1496	-3492	11580	6013	-19660	-22129	-10228	-3028	-8172	-21351	-11735	-9180	-19528	344	-10664	-8534	-22160	-9911	-9040	3552	13820	81	1922	-928	-15456	2344	-4856	-11041	7350	-1937	-14904	2904	-2416	7697	18012	-3168	123	134	1
-5080	972	11424	-11247	-19146	-27160	-3124	-7900	-9436	3958	-15969	-10357	-16752	3196	-11112	-8608	-19491	-10596	-8976	4852	13536	-142	1969	-1279	-18948	36	-5304	-6167	5918	-1806	-15296	2716	-2068	7865	19454	-2305	113	110	1
-9788	-9608	12280	-14180	-26763	-28417	-2180	-104	-10568	20827	-20856	-15032	-14444	3060	-11644	-7146	-18659	-10243	-9056	4584	13136	-388	1442	-1979	-15476	-2144	-3664	7886	4554	-630	-14260	4160	-1828	7607	19605	-2938	121	82	1
-8320	-5996	12892	-6992	-32731	-27443	-5948	6092	-7588	20081	-27933	-15024	-9912	1892	-11980	-6058	-17419	-8426	-9068	3560	13272	-306	1318	-2328	-14848	1772	-2468	12448	4813	-373	-14888	4872	640	3720	19984	-5395	126	74	1
-8004	-4552	13236	-6611	-32768	-27576	-7148	6624	-10752	13000	-32768	-14101	-6536	1820	-12836	-6645	-15115	-9059	-9324	3396	13524	-411	1356	-2232	-17376	5496	-1184	7334	5881	-1140	-14944	6604	676	-1117	19452	-7143	130	99	1
-14772	-1856	14848	-13739	-32768	-32768	-6928	3972	-10836	8601	-32768	-11852	-5848	1724	-13060	-6197	-11608	-7391	-9296	4212	13436	-255	1954	-3364	-16112	4256	-1364	-1357	6519	-1676	-16860	6508	-2944	-13	17653	-5397	133	123	1
-17836	-4428	15816	-11829	-32768	-32768	-6264	3448	-10964	8113	-32768	-11320	-2924	3020	-13544	-3556	-7015	-5732	-9468	3932	13180	71	2075	-4035	-15572	508	-2092	-2066	7420	-2235	-16604	2072	-4068	-2486	15902	-1763	134	102	1
-23976	-5392	18116	-9367	-32768	-32768	-8596	1080	-14520	10863	-32768	-12687	-2632	2448	-12924	734	-3273	-4732	-9188	1780	14332	20	3559	-4144	-17492	-2828	-3232	3895	7434	-2112	-17224	-820	-1212	-2809	14594	-2048	120	103	1
-32768	-5216	19680	-8116	-32768	-32768	-12656	1292	-11868	14603	-32768	-11938	-2296	1960	-13380	8698	-322	-3095	-9692	2332	13728	881	4926	-4500	-18676	-1116	-3200	9014	7869	-2124	-16780	-2960	-468	1940	15313	-1970	115	121	1
-32768	-1648	16484	-9737	-32768	-32768	-20328	-508	-12352	20555	-32768	-8537	-3048	1884	-7540	14835	410	-3414	-9652	3232	14060	1259	7541	-4590	-18996	1936	-440	7454	8474	-2102	-18524	-1616	704	4462	15088	-1217	116	130	1
-32768	5180	7384	-9758	-32768	-32768	-25132	4528	-16660	19468	-32768	-3336	-2092	80	-4284	17619	-1135	-3437	-9268	3052	14372	1328	10251	-5209	-18252	2536	3056	6997	10108	-3161	-18128	484	4948	6260	12549	80	130	120	1
-32768	23288	5044	-7807	-28274	-32768	-29304	1020	-25888	13580	-32768	1133	-23908	-8832	19536	28306	-32768	-10835	-9068	2812	15016	938	13163	-4710	-16344	2044	4784	7891	12491	-5416	-18840	3456	5948	7420	10367	745	117	113	1
-32768	32767	-16340	-11528	-18757	-31457	-13640	3332	-15192	-14304	-23559	5389	-32768	-7312	19172	9649	-14191	-18824	-9088	2560	15524	63	18220	-3849	-19728	3892	2060	5324	15560	-7888	-21656	8832	2392	8979	9170	-1255	0	113	1
-32768	15576	-32768	3627	-19128	4397	-1184	5704	-18196	-15624	-9638	2857	-11700	1392	26192	-937	18194	2310	-9192	4356	15060	-987	24689	-4776	-22352	3032	1456	1526	17214	-9125	-21352	7932	1464	7858	5924	-3381	14	115	1
-32768	32767	-32768	-15665	-11780	16540	2672	-884	-7268	-7056	11227	-7959	-10032	12904	28936	-5498	5493	11753	-11060	4608	14636	-2326	31781	-7976	-21404	3020	2016	4119	18043	-9537	-21964	1960	4140	5265	1257	-3000	100	126	1
-29604	-10140	-7644	13286	-3381	10614	-13648	1560	-13744	-7022	28619	4022	-32768	7312	32767	-9060	1789	17878	-12188	5468	15052	-2597	32767	-12479	-22692	2576	3664	7351	19240	-10125	-23824	2408	10680	10007	-3161	-1471	127	159	1
19936	-30340	29756	20808	20214	10190	-32768	-21284	24888	-18004	7667	212	-1056	8640	-27868	-13469	17276	9431	-13644	7396	15868	-1310	32767	-18012	-31372	2872	8452	15166	21518	-10145	-29508	7060	16676	11594	-12155	-897	116	135	1
-25048	9300	16836	21931	32767	31219	-12264	-11716	-7988	32767	14215	4478	-32768	-22160	4164	-23041	6166	-19650	-25912	6964	18364	7633	32767	-23936	-32768	4016	8020	27643	21596	-8693	-29296	2748	20208	10860	-25939	-1823	102	106	1
-32768	-15012	7280	20928	1774	32767	-20784	3888	-21960	25268	29114	6301	-32768	-12972	2860	29313	15619	-8424	-32768	20376	30976	20088	32767	-27596	-32768	21232	3404	32767	22517	-8509	-29732	8744	2808	10544	-19168	-1867	39	95	1
-16088	25292	32620	14283	2205	16441	-28620	14672	-17840	24284	18076	1312	-26836	22548	-8852	10426	11123	4294	-32768	15504	32767	25731	32767	-31683	-25316	19148	-12496	12512	21873	-13430	-29324	19788	-14100	12228	-19944	7915	154	99	1
-14704	-6564	12212	4024	2506	3233	-11376	21520	-11668	-11762	20005	-1500	-4028	6628	-8996	-6029	4146	16044	32767	32767	20608	21214	23336	-32707	-30124	-4088	-13660	-7897	19156	-12889	-32768	4428	-13612	-11658	-23955	9239	102	75	1
-12696	-9064	8852	384	3195	-141	-11828	-7488	-11072	-32768	16254	3527	-8812	-12824	-13368	-2771	7751	10593	-32768	32767	31632	-7142	-9071	-2703	-15924	-7912	-25108	-18310	12649	-12377	-30036	-4828	-9496	-24337	-28685	8435	123	72	1
-10980	-6168	10568	109	2160	1913	-8420	-24936	-8936	-2636	10674	333	-13592	-2440	-11680	6051	14966	226	5468	23200	14952	-26504	-16049	4196	-17128	-6132	-5512	8053	1322	-4691	-27356	-3608	-5460	-10954	-31814	10528	146	100	1
-11004	-4784	11208	84	1356	2243	-21896	-7532	-10372	21948	10282	1802	-19908	3800	-9428	-3497	15370	-703	5624	-3048	13408	-9823	-13391	7758	-9740	-104	-7528	8061	-6393	2920	-20880	816	-7572	2208	-24476	10722	155	147	1
-11212	-4904	11060	-249	618	2010	-23228	5932	-6628	11070	7293	5180	-15880	-100	-6680	-8618	16552	3142	1864	6760	12612	8471	-14204	15772	-3668	-1780	-7892	-5798	-10065	6986	-21976	476	-9368	-604	-25580	9084	168	181	1
-10360	-4664	11088	177	433	1413	-12664	7108	-4132	-11398	4273	1644	-14752	-1024	-5748	-10969	16916	6492	-4348	16760	13092	3027	-19588	16140	-3268	-3640	-8256	-11807	-16011	11515	-17684	-2228	-9688	-3921	-23027	8020	173	162	1
-9900	-4732	11448	-331	888	1228	-13592	-1680	-4148	-22456	4063	1169	-17200	-624	-3236	-12021	17431	6262	-7264	9152	14284	-2927	-28482	18846	-2836	-6496	-8440	-11734	-21367	17132	-14256	-2496	-10004	-4608	-21955	5992	161	164	1
-10684	-4124	10684	-410	963	1153	-14108	-3544	-4028	-22314	4068	1077	-12796	-1712	1424	-6972	20452	10488	-5920	4644	12604	1712	-32768	23251	-4356	-6168	-6008	-7001	-26646	19281	-7868	-3368	-8800	-1006	-17736	4786	146	143	1
-10184	-4724	10152	-758	897	1859	-16512	-5820	1172	-2032	4538	2531	-14724	-3864	-1528	1271	19565	5969	-8616	3740	13596	5940	-32768	24709	-4664	-6132	-6096	-6180	-27455	19631	-10544	-3724	-11288	-2824	-18145	5072	145	131	1
-11372	-4352	10144	-85	481	1969	-10876	-1656	468	-505	6060	2014	-15436	-6224	-144	5069	16637	4287	-14228	3532	16580	8684	-32768	25457	-4624	-4636	-7956	-8317	-32768	24597	-3780	-3348	-12104	260	-9932	1288	157	151	1
-9544	-4896	10132	594	-443	2798	-12724	-1236	564	-3041	7618	2204	-15388	-5444	-132	-761	14054	5394	-15164	3600	17008	9064	-32768	25621	-5728	-6044	-10496	-11999	-32768	26650	-4080	-4076	-12804	-729	-4830	1741	146	143	1
-10872	-4868	10648	862	-287	3439	-17168	-3900	-468	-2368	9134	1849	-17196	-1196	-3440	6439	13949	4880	-27656	10260	22592	10242	-32768	28299	-10512	-7524	-15012	-11876	-32768	26339	-3572	-3156	-13752	1000	-1175	1123	136	162	1
-9948	-4560	11908	570	899	4069	-17764	-1964	-3312	1510	9468	2393	-17384	-972	-2616	5129	14186	5767	-32768	9416	20860	7474	-32768	32767	-14604	-6028	-13204	-7890	-32768	24921	-1972	-2688	-14444	-1577	1517	949	124	201	1
-11028	-3452	12224	-593	2815	4442	-18692	32	-2544	-1832	9306	2730	-16164	3708	-1752	-3348	15369	5025	-32768	4836	19700	6776	-32768	32767	-20128	-2592	-13496	-12294	-32768	25238	-2752	-1488	-10944	-4404	4723	3639	135	214	1
-10324	-1600	13320	-14	5421	3969	-17296	1200	1580	-6800	9944	2491	-17616	6376	2264	-4116	13916	1482	-32768	-3164	15260	7824	-32768	32767	-31776	-6688	-18112	-14613	-32768	18051	-12880	6336	-4752	-3702	-1773	7340	127	183	1
-10180	-3660	13224	62	7711	3720	-15912	164	5008	-8884	12541	4474	-19156	848	3496	-6637	11526	301	-32768	-4916	14180	7994	-32768	32767	-26064	-5500	-16636	-4117	-32768	11473	-31192	13592	15748	-11784	-15891	16377	140	117	1
-10756	-4580	13660	1171	10607	3869	-16544	-5804	1748	-2069	15982	4892	-21332	-5720	-1384	-6487	8096	2182	-32768	-5516	-24856	-4165	-27897	18703	-12324	-8536	-12176	-1301	-23574	9147	-24140	10592	26492	-17545	7552	17277	151	253	1
-11548	-6868	14424	2814	15541	6653	-21568	-3100	1352	108	18248	5552	-21560	-8588	-324	-6874	5323	5429	-32768	-32768	-32768	9098	-17523	2541	336	1856	-10156	6378	-7437	9080	-17536	-10376	32767	-7179	14539	944	134	253	1
-10796	-7588	13824	4253	20958	11469	-20560	-2340	1916	-2970	19714	5528	-21684	-2384	1888	-4126	1449	4321	-32768	-16612	-32768	8075	-905	-6251	-5284	1136	-11600	-3354	17108	-3911	-20164	-9940	22652	7699	-1071	-14864	133	207	1
-12620	-5852	14200	5542	28863	16667	-19924	-768	1872	-3854	21792	5589	-22108	624	4916	-4962	-4418	4206	-10016	-1032	32767	-19718	10286	-16315	-17808	-1392	1620	6395	27038	-11465	1084	7892	-3452	23059	8435	-6117	141	127	1
-11416	-5628	16392	5111	32767	23580	-25652	1356	3316	-6922	23240	5223	-26156	-2020	9864	-8154	-12288	5985	-28712	8488	32767	-17575	7592	-10790	-32768	7928	22000	5691	7644	8745	-19528	-9704	-15080	22853	17610	-6144	134	34	1
-13024	-10736	17284	3036	32767	29879	-32768	4468	6996	-17186	23081	4982	-31304	-2072	17164	-5236	-23651	4780	-26040	-6028	31500	-5082	32767	-10020	3812	-12780	10428	-8116	14105	-7511	-32768	16360	3804	-9078	2796	7756	137	118	1
-26848	-19168	15552	9444	32767	32767	-29388	-4364	13324	-32768	20740	5442	-22836	12480	13856	-8606	-18457	6305	-32768	32767	30940	-10189	20158	-15533	-32768	-6116	-18076	-9653	19713	-11557	-31652	-23840	8856	-20256	11741	1511	126	229	1
-32768	-7172	18868	-4928	32767	32767	-23340	-26344	1500	-28428	24133	5385	-24532	-13532	-3772	-20461	-17155	1335	-14420	-30760	32767	-13225	6867	-13408	-23712	-8312	-9432	-11996	14857	-996	-12668	-6488	-18400	23867	5888	-7840	130	100	1
-32768	-32116	17208	1139	32767	32767	-32768	-13884	-10188	-9667	20114	6330	-32548	-21440	-14464	-2645	-18080	-9926	-10844	19908	8760	-7461	3374	-5935	-14052	2928	-10668	-3630	22201	-7772	-6680	12656	-14936	9477	11198	-1098	145	173	1
8188	-32768	19380	8782	24907	32767	-22536	-10068	-14732	7469	17081	2768	-32768	5860	-9660	11126	-20341	-8522	-10792	10896	10712	-5360	569	-3077	-6144	4652	-16892	-1736	11550	-5532	-11008	18716	-16156	-2228	11085	1886	130	99	1
-32768	-22820	22880	-27	6115	6894	-14280	-2596	-32768	29577	12093	3793	-25348	2004	-11812	14983	-22423	-8838	-10416	6488	12908	-4574	-25	-3105	-13412	912	-14236	-1540	12825	-4634	-16552	4224	-10920	-6276	13358	-1284	127	84	1
-14740	-32056	14136	5820	-21402	-23990	-13432	11804	-8908	2099	4149	-2007	-26632	2996	-8640	3875	-23019	-10385	-9320	4196	14200	-3337	286	-2682	-28700	-4624	-7320	9638	6764	-5349	-19300	632	-5284	-1812	15147	-1719	119	57	1
420	-12904	9144	12589	-20388	-20461	-10168	-2952	-8812	-15746	-7877	-3513	-21416	48	-12060	-4056	-21838	-10114	-9448	3084	14508	-2114	1091	-2199	-16496	-516	-4296	11078	4060	-3016	-17544	-4312	-1180	1560	15888	-3739	121	62	1
-1156	-192	8584	-125	-17769	-23349	-5388	-8912	-10980	325	-14204	-6592	-18768	472	-11636	-2738	-20455	-11613	-9404	3024	13716	-1097	1332	-1714	-13816	3612	-904	2980	5454	-3468	-14928	-2128	-224	6097	16598	-4654	123	79	1
-7972	-8100	9380	-10274	-22374	-28065	-1088	-3740	-11700	22082	-18902	-9845	-15472	3936	-11188	67	-19830	-11518	-9360	3848	13204	-673	1247	-1443	-16860	4120	-2168	-7426	6526	-2536	-15400	824	-788	7268	16776	-5843	119	99	1
-9464	-10312	10456	-6281	-29104	-27967	-4152	4288	-9484	24855	-25382	-12014	-11068	4260	-11132	-174	-19607	-9251	-9444	4048	13148	-719	1208	-1433	-16560	2664	-2624	-13339	5515	-2344	-14612	2924	-764	3955	17773	-4930	123	104	1
-10028	-4608	11612	-4453	-32768	-30197	-4588	6128	-10036	15755	-31531	-12220	-7776	3440	-11936	-4207	-15665	-9159	-8768	4192	12584	53	1124	-1592	-16028	-3920	-2748	-3834	5352	-2782	-14736	1564	-1004	2053	17444	-2808	125	100	1
-12176	-2576	12096	-7843	-32768	-32768	-5840	5076	-10124	6115	-32768	-10044	-6608	1496	-12528	-6273	-10994	-8529	-11532	5064	13136	-245	772	-2048	-15668	-1860	-3724	10796	4854	-1550	-13468	2644	88	2756	18831	-3311	133	83	1
-16236	-5156	13008	-8133	-32768	-32768	-6828	1836	-10460	2983	-32768	-9377	-4444	1804	-13088	-5437	-7001	-7330	-11672	4960	13308	-489	694	-2071	-15600	3124	-1420	13116	6803	-1082	-14844	5032	1380	1399	20887	-5540	134	87	1
-21068	-6184	14716	-5160	-32768	-32768	-7544	-832	-12748	7591	-32768	-10822	-3224	1456	-14132	1705	-3792	-5424	-8956	3380	13104	-312	620	-2758	-16400	7508	-1256	3692	7147	-2093	-16600	6576	-3188	-558	17436	-5085	129	86	1
-29456	-9344	16112	-2428	-32768	-32768	-10100	-1040	-14188	16664	-32768	-11172	-2516	-200	-13720	12805	-2902	-5110	-7692	4052	13360	-633	1519	-3259	-15264	4328	-1480	-5450	9028	-3420	-16724	2836	-4016	-3978	13913	-1448	128	89	1
-32768	-4220	14804	-1822	-32768	-32768	-13892	776	-12728	24370	-32768	-9440	-2148	2800	-10476	22514	-563	-4469	-9184	4032	13464	114	2139	-4087	-17320	48	-3912	-4044	8779	-2857	-17368	-836	-660	-3466	13262	-1028	121	105	1
-32768	2732	8068	-6404	-32768	-32768	-23296	2748	-16232	28949	-32768	-4581	-2060	2896	-5836	24049	640	-3477	-9920	4160	13348	149	3018	-4993	-17020	-820	-552	8137	9205	-2016	-15140	1020	3464	2841	13166	-2	123	108	1
-32768	8856	2608	-7787	-32768	-32768	-30752	2400	-14060	14178	-32768	2450	-14100	-1184	9488	23490	-13689	-7260	-10636	3220	13576	-431	5486	-4925	-16500	2576	3652	14402	12091	-3460	-18336	56	7076	7562	11851	1618	136	112	1
-32768	26020	-10392	-6938	-21158	-32768	-21756	4928	-10180	-513	-32561	1705	-32768	-12896	21184	14843	-29604	-17988	-10060	1728	15264	505	9373	-5093	-17956	6420	3840	8422	14569	-6483	-22520	2284	3048	9648	8379	338	49	112	1
-32768	16776	-29632	-2010	-17798	-15969	-9120	5096	-20512	-13966	-17390	2701	-22200	8436	19232	6825	7910	-5725	-9308	2564	16620	1065	15720	-4788	-22188	2768	960	-177	17540	-8786	-22404	8284	828	9598	6458	-707	0	104	1
-32768	32767	-32768	-6963	-15959	10000	1864	-964	-7768	-19911	-2737	-4874	-5104	7840	29264	905	8132	8505	-7964	2944	16840	399	23328	-4895	-23884	-780	-732	2542	18112	-9117	-22472	6820	4	6604	2162	-1979	55	104	1
-32768	23156	-31944	-17100	-6191	10451	-4348	-2340	-15992	-7117	17314	-3967	-19288	15644	17720	-7125	4699	12270	-8848	4156	15800	-253	32295	-7058	-23024	1196	1268	7626	17863	-9560	-22028	1748	5208	8603	-1239	-1529	98	112	1
24648	-29348	19520	32767	9839	31737	-24016	-7492	10736	-8741	23903	4471	7956	4476	-23300	-32367	24002	10927	-10952	6056	16840	-1096	32767	-11480	-26804	3520	4636	10451	20284	-9951	-26452	4540	10512	10084	-4354	-2082	122	119	1
2368	13668	17732	18321	32767	1625	-32768	-13228	17192	25507	8465	264	-18968	-8200	-10472	-15501	15295	-6282	-10528	7992	17136	-1634	32767	-18588	-32768	2500	6588	13675	21093	-9874	-32768	9696	24568	7342	-23197	-98	129	114	1
-32768	32767	32767	13540	23075	32767	-15868	1464	-15084	32767	20013	1565	-32768	-26804	4244	11255	5523	-17014	-24188	12016	22304	4535	32767	-24675	-32768	8092	15576	29417	20788	-8566	-26940	-6000	16440	3696	-21474	-3886	96	104	1
-32768	-28512	2096	16808	-798	18963	-32388	9840	-21532	20951	27988	6229	-29876	20452	-9932	29460	14605	2584	-32768	16572	31208	23843	32767	-25602	-30992	14688	-220	32767	22078	-8004	-27996	7824	524	10951	-23193	37	68	136	1
-19792	23192	25288	8506	1026	11317	-17384	10144	-20056	15609	19989	-697	-15792	16384	-15744	428	9540	8909	-32768	21844	31764	25814	32767	-25579	-26312	14544	-13896	19024	20081	-12054	-27736	10772	-12184	12049	-21500	5909	173	119	1
-11224	-4004	12144	5018	-1429	3997	-13112	6364	-12432	-11136	17384	-384	-6160	-1664	-11812	-8403	6898	11612	32767	32767	18856	28150	17622	-32445	-25388	-1132	-13084	694	19075	-9180	-31704	748	-10476	-2964	-24800	7542	107	105	1
-11464	-6644	10348	2648	-56	1754	-12900	-6248	-11220	-22065	10939	3281	-12448	-10576	-11800	2394	12496	4287	-32768	32767	31188	34	-18659	-4449	-15008	-9236	-19268	-6099	11937	-6427	-30724	-4768	-6920	-10627	-29393	8534	139	80	1
-10420	-5088	11912	1600	595	2551	-14064	-12564	-7608	-4810	10098	621	-18176	-1180	-8916	9140	14314	-476	12192	27796	12308	-23398	-22253	-286	-14204	-4808	-2836	17447	-212	1408	-27324	-660	-5516	-2091	-31739	10942	150	112	1
-11052	-3452	11908	1243	878	2251	-24344	-3432	-6396	11793	9400	3586	-18236	3564	-5196	2809	15175	1904	8624	-508	14140	-6408	-17062	9041	-8056	4752	-3764	8102	-7744	9698	-19196	2388	-8528	5597	-25193	12299	153	164	1
-10808	-3996	11648	1183	706	1842	-16524	2948	-3808	10317	8084	2365	-16860	4292	-2728	-3200	14819	6632	3060	10560	14044	13275	-16370	21800	-3420	-2228	-6388	-10710	-11183	12956	-20372	-820	-8960	4490	-24217	8988	153	200	1
-10736	-4408	11840	1804	665	2333	-13872	1200	-4180	496	7040	1709	-14532	308	-2368	-7119	16268	7158	-5308	17928	15192	5525	-21593	23494	-4144	-4504	-6440	-14583	-17538	17750	-14752	-2160	-9912	2410	-22138	6506	160	165	1
-10280	-4548	10824	1868	740	2623	-15532	-2628	-2504	-2208	5874	1339	-15528	120	-2628	-6974	17570	6801	-7372	5052	16736	-202	-29947	26001	-4424	-6908	-6852	-14487	-23004	22598	-13132	-2128	-10548	1284	-19395	5667	149	152	1
-9992	-4836	10648	2580	599	3791	-17196	-2588	-716	-3747	5282	215	-13504	-1644	344	-3872	19798	6307	-6908	-1792	16232	6766	-32768	29711	-5540	-8168	-4740	-11628	-28186	23830	-8780	-3100	-11320	2256	-15044	4687	157	155	1
-10284	-3872	10684	2964	-212	3830	-14940	-3416	-128	-4506	5604	1050	-13772	-4916	-728	3840	20775	6377	-11580	-816	18748	9882	-32768	29817	-6472	-8272	-6932	-9950	-32768	25008	-5236	-3892	-10980	4074	-10796	1527	153	116	1
-9756	-1448	11552	2538	-472	3725	-12248	-2296	-996	350	6942	1207	-15008	-4960	-1260	7222	19166	5115	-16796	-2612	22312	8995	-32768	27538	-6600	-7692	-7312	-10665	-32768	25822	-2820	-2728	-11240	3081	-5674	-79	143	133	1
-9020	-1836	11468	2459	-311	3804	-15068	84	-2272	2118	8207	1150	-17168	-1924	-2116	848	16268	5322	-23616	-896	26016	11050	-32768	27333	-9428	-8028	-11480	-11144	-32768	25039	-2952	-1388	-12716	1119	-1299	822	126	173	1
-8460	-3896	12248	1671	1011	3289	-18372	-704	-2484	-852	8968	1185	-16732	1336	-3816	4393	15179	5528	-32768	6260	26892	9237	-32768	27908	-15384	-8884	-12696	-8164	-32768	21843	-2444	216	-13024	-4142	31	1085	133	179	1
-10208	-3116	12164	1518	2325	4007	-17060	-2048	-2696	-2962	9241	1296	-17344	100	-1340	4841	13766	5772	-32768	6232	22832	4816	-32768	29498	-18324	-5164	-11944	-4970	-32768	20999	-2172	512	-11748	-11218	945	2251	149	208	1
-11464	-3784	12740	1057	3296	4724	-15932	-1660	-204	-4900	9799	1838	-16468	1928	1920	-1009	14394	3174	-32768	-244	15228	3011	-32768	30015	-24316	-5404	-12040	-8603	-32768	18344	-7720	2744	-5928	-14487	-1156	4431	139	185	1
-10384	-1672	13388	1123	5583	5427	-17384	188	1656	-6625	11359	2153	-17772	5812	4764	-7159	14361	-226	-32768	-724	14312	3058	-32768	29667	-28664	-4240	-15040	-6654	-32768	13630	-20056	4780	8592	-19211	-11212	11022	132	120	1
-11420	-1856	14148	1138	8366	5933	-17132	1484	2744	-10124	13855	3367	-20556	3648	1896	-8891	10909	-209	-32768	-10936	-15516	1195	-32246	17249	-15700	-7900	-14420	-7438	-24627	10582	-32744	6360	28456	-17745	-7558	13313	135	253	1
-10716	-2464	15216	2114	12765	6428	-18724	-860	2064	-9491	17131	4279	-21120	-5528	-1084	-10637	6143	1968	-32768	-23736	-29376	10184	-16713	8469	-6796	-5508	-15484	-1735	-13768	7060	-14756	-5904	32767	-5657	14728	247	127	253	1
-10596	-3788	15720	3805	17629	8645	-20956	-2732	-48	-6935	19142	5480	-20656	-6472	-1136	-8988	2945	3806	-32768	-19056	-32768	5487	-873	1914	-4328	-3844	-10604	8145	7498	-1492	-17532	-11464	22852	11389	365	-12364	138	238	1
-11888	-5432	14924	6260	23234	12322	-21288	-2584	-188	-4393	20433	5922	-20928	-3952	168	-6149	-1063	4699	-6544	-2060	5892	-13311	24246	-12911	-14272	10136	-8220	13436	21021	-8039	-23100	5484	29784	8641	-9300	-7971	145	121	1
-11800	-5884	15924	8186	31687	18664	-23952	-2968	512	-5020	21700	6139	-25456	-7120	5220	-4288	-9001	5739	-2852	2792	6508	-10110	29536	-16188	-32768	9788	16576	-545	11651	642	-21816	-3564	-10916	16032	16879	-1545	148	90	1
-10468	-8052	20112	7916	32767	27403	-32768	-1988	4064	-7742	21582	6686	-30212	-11332	12164	-1519	-19206	4770	-32768	-2736	32767	-8028	31926	-16514	-7752	-2444	2116	-18526	18389	-8368	-32768	8536	15404	-6006	4750	9705	137	38	1
-16516	-17860	13820	9016	32767	32767	-32768	-536	16168	-21141	20546	7823	-28864	8024	11704	1637	-17939	6448	-32768	27200	21156	-14542	9082	-16754	-32136	-7384	-17480	-18387	27643	-13384	-16616	-8020	-3516	-11709	3566	4321	131	171	1
-26508	2752	24068	11297	32767	32767	-26848	-19200	11444	-28413	20877	8053	-26156	-6908	4064	-7967	-17835	3006	-16016	-21216	26240	-10966	6243	-10099	-16072	-10272	-16504	-8839	16446	-2604	-6236	-5036	-22736	7429	7849	-599	135	101	1
-32768	-27184	19856	9256	32767	32767	-27496	-13608	-15292	-14774	20126	9034	-25140	-14168	-10316	2074	-18045	-5565	-12304	9172	13764	-8618	520	-6739	-12116	7360	-11788	-2628	19663	-5208	-12432	5540	-14488	5575	8775	-7149	139	132	1
-11028	-30572	20936	18962	19200	32767	-24464	-6056	-6424	-3079	16649	2576	-29708	3224	-8760	6522	-18743	-6538	-10320	8208	13400	-5180	-785	-4218	-14244	-2312	-14112	-2675	13980	-3861	-14296	13944	-12336	-4215	12724	74	133	76	1
-32768	4332	13192	13759	26703	15942	-17560	-6612	-23756	26712	9405	5129	-25776	432	-10800	10094	-19028	-9432	-11388	5456	14104	-3767	-170	-3358	-19164	-1068	-11152	7837	10130	-2657	-20916	480	-8268	-5249	13697	265	131	68	1
-21776	-29160	15972	-243	-5687	-26585	-15208	10020	-13976	14442	8620	2848	-26320	2388	-8508	10313	-21466	-11255	-9216	4660	14372	-2643	1163	-2838	-21036	-3668	-5044	12440	6435	-3697	-17640	-2100	-1312	1685	13790	-1606	117	72	1
-8116	-22788	11424	15361	-11627	-25336	-12556	1596	-7304	-8819	-3803	265	-21716	3612	-10008	1679	-21342	-9454	-9428	3160	14292	-1610	1780	-2290	-17636	2628	-3432	10617	4055	-2468	-16012	-1808	-508	7441	14301	-4768	120	79	1
-6620	-3352	9848	12770	-18190	-22996	-8176	-5220	-11764	-5623	-11226	-4805	-19696	1768	-10796	-562	-20260	-11218	-9532	3392	13908	-524	1824	-1822	-13488	5496	-1432	-1836	6518	-3406	-15540	2068	-836	8219	16002	-4138	115	104	1
-8876	48	10668	-4986	-24892	-27730	-2220	-5380	-11624	15495	-15150	-6597	-18148	3732	-10392	-579	-18947	-11545	-9248	4148	13608	-47	1943	-1443	-17808	4076	-3268	-11633	6867	-2391	-16020	2236	-532	7979	16110	-4127	117	112	1
-8904	-7624	10024	-12802	-32017	-28329	-4168	2028	-10000	24242	-21147	-10569	-14376	4800	-10864	-494	-19094	-10189	-9060	4924	13252	-318	2050	-1868	-16640	-1768	-2756	-6378	6176	-3057	-14644	2056	-720	7797	17082	-3997	122	104	1
-9132	-7824	9112	-10156	-32768	-27942	-6292	6272	-9876	18856	-27987	-11962	-10636	4572	-10660	-2086	-17532	-7480	-9188	4804	13028	-910	1197	-2462	-14552	-1184	-4752	8761	3674	-1524	-14096	4180	-1936	7499	17903	-3549	127	87	1
-8176	-4088	8540	-10667	-32768	-30207	-5216	7072	-8624	6933	-32768	-11821	-10264	4216	-10896	-2410	-16876	-7154	-8292	4068	12952	-1112	1214	-2792	-14968	3624	-3036	11088	5598	-1781	-14148	4844	-1804	6949	18307	-4013	129	80	1
-10320	-3328	10332	-13783	-32768	-32768	-6116	3764	-9716	59	-32768	-10929	-4712	2664	-11960	-5984	-10862	-5122	-9476	4808	13536	-1371	223	-2815	-16856	5088	-1696	4749	5655	-1909	-13892	5920	-736	-398	18817	-6566	129	90	1
-16956	-6036	12932	-13624	-32222	-32768	-5644	2348	-10808	-99	-32768	-12515	-2120	2848	-12648	-4361	-6862	-4064	-8896	3248	13012	-1096	823	-3512	-15492	2908	-948	-2533	6678	-2825	-16852	5452	-2868	-3232	17888	-5638	133	101	1
-22040	-6868	15976	-11546	-32259	-32768	-7100	68	-12900	3783	-32768	-14403	-1912	2848	-12796	-3611	-6373	-3906	-9568	3624	13272	-361	1305	-3118	-15620	-1224	-3224	-3860	7472	-3292	-15724	456	-2564	-3388	14877	-2878	128	120	1
-31652	-9708	17508	-8209	-32768	-32768	-12496	-572	-11480	10603	-32768	-15155	-2440	1652	-11620	7611	-1787	-3536	-9328	2956	13744	398	1998	-3425	-17200	-1816	-2744	3082	7779	-2526	-15916	-2856	-196	-1463	15038	-3465	116	131	1
-32768	-876	16228	-9102	-32768	-32768	-19856	-2196	-12128	18607	-32768	-13102	-3420	2268	-6636	12203	-662	-3852	-9264	2816	13960	290	3070	-3972	-17396	1968	-928	7877	8322	-2068	-17172	-1720	1364	516	15654	-1937	111	136	1
-32768	5344	8816	-11993	-32768	-32768	-24048	960	-16532	22456	-32768	-6694	-4748	-628	-3508	14152	-1429	-5946	-9900	3184	13836	93	4582	-3631	-16944	1688	3300	8035	10156	-3767	-17680	3120	4900	2225	12820	-62	119	127	1
-32768	18048	4400	-10859	-27601	-32768	-27436	1712	-21160	18134	-32768	-393	-25032	-8760	17792	14456	-28207	-14268	-9412	2628	15044	62	7562	-3785	-16600	5016	3408	3125	12938	-5748	-19280	2032	6884	4396	10430	548	127	119	1
-32768	30296	-11040	-8263	-17319	-30431	-18072	3600	-12756	-6691	-25388	3416	-32768	-13480	17820	246	-13663	-22726	-9808	1740	16024	790	12360	-3467	-20364	2048	228	-690	15832	-8086	-22456	4836	1776	5792	9043	-1439	0	116	1
-32768	28804	-14848	-6730	-16967	-28134	-5152	12480	-17840	-15702	-12818	1162	-12964	1812	23940	-1009	13428	-2731	-8452	3516	16844	885	19039	-3503	-23152	376	1360	2813	16939	-8698	-23076	7200	1456	9144	5332	-1828	18	111	1
-32768	32767	-30920	-22898	-15618	14171	2776	-2608	-8240	-21291	5726	-9601	-10852	9356	27592	-9218	5028	8269	-7692	4132	16256	415	27553	-5185	-22136	2588	2216	8207	18027	-9059	-22872	2676	3916	6020	-786	-2146	113	120	1
9016	-7508	-29244	31590	10630	32767	1324	-1848	-10368	-17806	9134	-8809	-26420	8384	11948	-11065	6578	17164	-9172	5896	16444	-990	32767	-8892	-24332	3228	2744	8745	19704	-10864	-23712	3392	9664	10122	-4168	-959	115	125	1
-4928	-8556	32767	20022	22853	4995	-32768	-12464	30824	518	11619	7536	-3228	-5636	-21960	-18111	22180	9360	-11648	6980	18652	-2454	32767	-14809	-32768	3792	5832	10892	21755	-11093	-31772	9804	18092	10573	-15942	-319	114	129	1
-30212	22016	21316	18234	29780	32605	-18304	-4840	-7492	32767	20697	2292	-31876	-13544	11560	4328	2917	-13605	-16984	11916	18992	791	32767	-23738	-32768	4208	13384	21811	19775	-9682	-29408	-3132	12568	4593	-23501	-3547	125	125	1
-32768	-18748	3768	12668	3163	19887	-19040	19172	-17652	27475	30366	6860	-31188	2384	-8416	25340	10253	3494	-32768	7868	21936	9587	32767	-26302	-32492	11936	2816	28204	21521	-8342	-28552	5220	5320	6892	-22129	-2171	81	104	1
-15092	16548	22416	11482	3727	14085	-21376	-1556	-23136	11558	20931	-1280	-12124	21468	-10436	8841	9358	2287	-32768	13272	32767	19201	32767	-31623	-26028	15824	-13028	22829	17497	-11620	-25228	13424	-10000	12724	-19979	3912	136	110	1
-14620	-9992	11204	6061	-688	5760	-9684	4536	-15592	3080	18025	-1580	-5296	5992	-16656	-17663	5675	8458	-23664	23728	32767	22801	32767	-29680	-23000	2964	-13276	3593	17287	-11047	-26188	8320	-16408	-1327	-19095	7522	129	99	1
-12548	-8156	9848	3559	-390	3069	-13732	-968	-12112	-18669	12284	841	-14076	-18836	-14812	-10642	10618	4273	-32768	19532	31184	13889	17758	-18839	-21696	-7276	-16620	-6543	11147	-4588	-28224	2288	-8384	-15171	-26635	6484	128	88	1
-10852	-5116	11260	3052	-1123	2837	-13856	-9184	-9932	-20341	8899	1275	-15448	-6780	-9708	8916	14738	137	-14092	32767	26884	-9064	-20497	8872	-10516	-6768	-9096	2649	3434	-7204	-26432	-336	-6056	-14246	-28990	6955	129	102	1
-10824	-3536	12012	1975	-966	2437	-24604	-8276	-4360	-3216	7971	4695	-20188	5264	-3992	4329	15109	1566	8752	16288	14452	-24187	-24345	4750	-12596	-364	-3840	17875	-6746	1667	-21496	1292	-6760	-3672	-25251	9275	153	146	1
-10460	-3540	12104	1302	-367	2008	-16928	-2960	-3156	6358	7674	1341	-17364	4420	-1496	-3420	14296	7124	4984	-1684	14816	-3659	-22974	12457	-5136	4908	-4620	2360	-14224	9136	-19496	1288	-8640	-1219	-22479	8443	159	182	1
-10072	-3504	11628	926	126	1363	-14196	456	-2932	7537	7199	2123	-16756	3508	-1600	-4432	14365	7456	-1784	11188	14632	11016	-26039	20454	-3488	-2172	-5756	-14973	-16159	11589	-17568	-1928	-8884	-2679	-20608	5608	168	161	1
-10308	-4592	11176	589	498	974	-15400	-1772	-2068	5051	7232	3315	-16588	-844	-2720	-4474	15895	5986	-8740	17612	14552	1979	-32740	22137	-4996	-6408	-7100	-17326	-22640	16058	-12916	-3472	-8824	-3348	-19109	3241	149	152	1
-10388	-4928	11000	784	681	1594	-17728	-1880	-2584	-214	6109	1617	-14380	-1468	-1896	-3819	16711	6981	-10012	6372	14572	-2682	-32768	24558	-5256	-7120	-7188	-9360	-28109	20153	-7844	-3072	-10008	-604	-15410	3195	127	141	1
-10904	-5100	10712	979	618	2377	-15264	-1292	-1632	-8410	4660	1423	-12480	-3676	-2328	-492	18686	4895	-9096	2044	13888	3730	-32768	27160	-7120	-5244	-7180	-6170	-32768	21898	-5688	-2880	-11364	2892	-10246	2619	136	132	1
-11768	-3600	10804	1602	10	2846	-12760	-1812	-932	-10221	5022	1389	-14212	-3256	-1588	1767	19891	5013	-13772	3452	17084	7690	-32768	27288	-8032	-4788	-7768	-8512	-32768	23608	-4068	-1512	-11644	3733	-4908	425	148	127	1
-9872	-2820	11488	1400	211	2704	-15852	-5432	-1532	-2716	6342	1428	-16900	-3536	-104	1815	19670	7117	-21524	4928	21580	9982	-32768	28086	-9384	-6180	-10804	-13479	-32768	24369	-4528	-3108	-11692	-933	-1817	-309	144	141	1
-9408	-3052	11796	681	1125	2764	-17680	-1876	-1012	4216	7857	1542	-18132	-2784	-4008	1063	14583	7834	-29360	12068	23820	10289	-32768	29485	-15568	-7772	-13176	-14528	-32768	24044	-4268	-3880	-12308	-4106	650	645	152	153	1
-11128	-4044	11800	646	2672	2738	-16400	-484	-632	1612	8706	1976	-17064	380	232	5902	13335	5372	-32768	12344	22260	6036	-32768	32767	-19044	-5516	-10116	-4234	-32768	22619	-4124	-3984	-11368	-4393	2046	987	140	217	1
-10368	-3680	11700	295	3554	3250	-16280	-388	-504	1077	8731	1841	-16936	3088	2780	1863	13887	2360	-32768	7644	18788	3578	-32768	32767	-22772	-792	-11272	-3655	-32768	22972	-6784	1676	-4748	-3640	-1056	3012	133	202	1
-11200	-3100	11416	-1089	4330	4306	-15816	-1480	680	-9024	10683	1940	-17100	360	3004	-5144	13741	3160	-32768	276	9816	4040	-32768	29361	-28136	-2580	-13588	-9186	-32768	19276	-13268	4496	-312	-5217	-6976	9112	127	148	1
-9576	-1208	14600	682	6420	4271	-17456	-2272	3788	-9334	12471	2430	-18824	-4228	2760	-7213	12765	2472	-32768	-7636	-6132	4113	-32768	22256	-19656	-9204	-15668	-8313	-28703	17772	-31496	6384	21232	-23020	-18957	18588	131	150	1
-11640	-3376	14248	977	9901	4477	-18656	-896	3932	-7666	15399	4684	-21376	-220	1236	-3833	8154	1367	-32768	-24184	-25184	12422	-23163	11537	-11428	-5492	-14820	2608	-17674	11813	-17988	8228	32767	-4271	7770	11578	138	253	1
-11728	-3592	14900	2557	14802	5574	-19276	-2092	936	-2109	18212	5029	-21052	-3004	1140	-6649	5240	4615	-32768	-26224	-32768	10704	-10943	-53	-1556	-1408	-7904	12065	14	5141	-13064	-12336	32767	6823	6203	-6503	136	253	1
-11076	-5872	15024	4728	19760	8174	-21044	-3216	116	-2698	20346	6167	-20844	-6232	-912	-6012	1975	5280	-32768	-20236	-30852	-2728	1867	-10968	-2748	28	-9436	7159	21395	-7256	-21772	-364	12016	11988	-3008	-8600	140	148	1
-10516	-7872	14196	6460	26228	13544	-21124	-2752	488	-1381	21737	5697	-21724	-2088	2136	-3989	-3757	4404	-21744	32767	32767	-24361	15058	-14850	-23564	5920	14940	16322	28779	-10381	7828	13616	-18676	32767	15103	-701	141	79	1
-11060	-5624	17140	6951	32767	21275	-24736	-80	2420	-5769	22947	4670	-26932	-3084	11068	-2658	-13807	5837	32767	-15852	-12184	-6304	24471	-8221	-32768	6112	19128	-3445	4071	6212	-13788	-7084	-8456	12023	12109	-543	139	85	1
-10172	-7072	19336	3136	32767	29732	-32768	5136	9672	-14886	21848	5120	-29300	-412	13744	-2880	-19919	4867	-32768	-8288	32767	-5178	32767	-9218	4952	-11484	3424	-19231	16168	-9074	-32768	15396	-2244	-17475	2912	5607	125	117	1
-11336	-9200	18132	2005	32767	30989	-30956	2280	16284	-32768	20032	5559	-25036	15928	15196	-8637	-16242	8236	-32768	-3744	22972	-3312	21423	-19135	-32768	-1876	-12968	-19589	18754	-13978	-30996	-15712	4060	-20853	13480	1846	120	243	1
-32768	-4036	19860	-166	32767	32767	-25556	-25120	4540	-32768	22160	7676	-24692	-16580	-3212	-22251	-14833	2920	-14244	-5276	24148	-15529	5003	-13604	-20312	-2976	-9856	-9624	15946	-279	-16312	-14612	-16180	16866	9427	-8989	142	102	1
-32768	-27716	17748	6586	32767	32767	-29832	-17144	-13960	-13772	18040	9358	-29076	-23716	-12836	-532	-19281	-10259	-12868	22452	6644	-6994	3203	-4819	-12240	-376	-12180	-5086	21517	-7686	-4628	16952	-13104	5401	9802	-876	153	152	1
-3196	-30816	19616	15679	23251	32767	-22936	-12228	-6608	8951	15773	4996	-32768	5864	-10180	14975	-19257	-6998	-11976	4576	14864	-6822	127	-4994	-8392	2972	-16328	4179	12905	-2827	-14024	13856	-13880	-6558	12127	2107	133	70	1
8260	-32768	18732	18194	25471	32767	-16516	964	-32768	32767	8625	7298	-32768	5976	-10312	15924	-19867	-6383	-8792	4964	14244	-5390	-465	-4106	-16736	2352	-12536	-723	12027	-4240	-16180	-1384	-8772	-5813	12634	-69	121	79	1
-22300	-30832	17800	-2673	-13871	-22019	-14644	15336	-16584	9802	4232	1486	-26668	4296	-7720	8704	-23675	-9803	-9772	3396	14808	-3756	499	-3330	-26320	-6904	-6896	7513	6780	-4462	-19340	-3324	-4008	3424	14437	-1449	116	53	1
-8264	-23908	11016	13076	-23460	-23627	-9204	296	-6600	-18944	-7424	-1169	-22020	3312	-10784	-3303	-21425	-8090	-9200	2828	14508	-1804	1832	-2302	-23668	-7224	-6024	8979	6002	-4472	-18600	-4180	-696	8954	15230	-2809	121	72	1
-3684	-3460	8024	10510	-27406	-21689	-6644	-7160	-10852	-9113	-15044	-6501	-19088	832	-11712	-2992	-20241	-9892	-9392	4080	13812	-347	2454	-1648	-15600	3376	-1856	6301	5656	-2364	-15520	864	-1512	14414	15867	-3772	117	52	1
-5052	960	8136	-7785	-27281	-27294	-1972	-5700	-9284	15585	-19264	-7296	-15328	3316	-11220	-410	-19545	-10998	-9508	3344	13732	-195	2522	-1580	-16284	6540	-2920	-5870	6234	-1505	-16160	1340	-1792	14797	15906	-4510	119	65	1
-10628	-8920	8344	-14360	-32522	-29181	-2024	1920	-11016	27512	-24248	-10617	-10496	5868	-10432	1312	-18621	-8149	-9592	4572	13084	583	2584	-1353	-16172	1424	-3028	-9235	6208	-3333	-13904	6188	-1888	3716	16043	-5087	127	73	1
-9948	-9180	9324	-8185	-32768	-29362	-3096	7548	-8220	20552	-30653	-11571	-7048	5608	-10808	-2301	-16070	-5872	-9764	5176	12724	-83	2076	-1758	-15588	-2668	-4680	4187	3085	-2354	-14020	4156	-2668	-39	17045	-4399	128	78	1
-9516	-2276	10420	-7969	-32768	-31543	-3752	7656	-9968	7830	-32768	-12036	-5072	3692	-12028	-6943	-11540	-5770	-9532	4320	12628	-440	1261	-2405	-14444	684	-2224	12885	4833	-1551	-12680	2952	-256	143	18342	-4433	132	85	1
-13712	-2060	11432	-12716	-32768	-32768	-7236	3532	-9308	-171	-32768	-11347	-3276	2240	-12876	-8908	-6673	-5210	-9420	3672	13212	164	467	-2780	-16848	4620	-832	10430	6441	-1358	-15748	3484	1600	-143	19381	-6193	134	91	1
-18836	-5800	14132	-13089	-32768	-32768	-6792	692	-12344	1836	-32768	-11610	-1664	2824	-13144	-4182	-3135	-3434	-9684	4208	13004	-21	703	-2847	-15432	5552	-332	409	6809	-3215	-16808	5072	-2352	-675	15939	-5030	127	102	1
-28160	-10408	16980	-9667	-32768	-32768	-9596	-436	-14984	6513	-32768	-13945	-2676	1064	-12528	4738	-1451	-2978	-9532	3716	13176	137	1415	-3125	-15720	1176	-1720	-6163	8442	-3692	-15808	1036	-3020	-3579	14374	-1320	125	126	1
-32768	-4988	16076	-6506	-32768	-32768	-13704	-2140	-9244	13412	-32768	-13825	-1304	1448	-11692	13376	1069	-3131	-9620	3752	13280	111	2127	-3342	-17240	-1332	-2444	-1803	8551	-3492	-16728	-1184	124	-4152	13765	-1073	118	121	1
-32768	-412	10712	-9037	-32768	-32768	-23092	-2284	-11796	24538	-32768	-9316	-3512	324	-5732	14231	-142	-5587	-10384	2280	13440	146	4227	-3049	-18164	-1572	-2364	3978	9236	-3643	-17480	-308	476	1767	14077	-552	113	117	1
-32768	6364	3936	-9216	-32768	-32768	-29808	-488	-13980	17495	-32768	-1623	-12708	-3256	6836	15388	-8478	-9810	-9904	3336	13760	399	6203	-2892	-17876	1592	2340	8285	10588	-4220	-16188	1504	3200	4712	12015	-706	125	111	1
-32768	24800	-3944	-8782	-18366	-32768	-27484	3708	-9796	3729	-32768	251	-32768	-19272	19176	15667	-32768	-22098	-9924	3092	14764	627	9353	-2883	-15580	6620	2792	3635	13372	-6349	-20324	3972	3592	4069	10082	-1053	72	109	1
-32768	14464	-28140	-5639	-15860	-26300	-10548	7548	-21360	-13214	-20293	2931	-24268	3340	15936	6732	4591	-15279	-10024	3932	15116	1437	14854	-3230	-21048	3020	56	-987	16195	-8890	-23144	7068	1620	6319	7334	-1781	0	108	1
-32768	32767	-32768	-9096	-19262	8094	4876	-2100	-8084	-22193	-6062	-6996	-7604	5480	32552	-1367	9956	8205	-8752	4864	15528	1216	21332	-4553	-23740	300	1104	4700	16298	-8560	-21992	5652	1648	7719	3887	-2029	74	110	1
-32768	31452	-32768	-25862	-9233	7267	-3152	-1308	-12760	-11029	16317	-6701	-17856	7036	20964	-7465	4266	12517	-8448	6560	15836	-332	29481	-7413	-22092	3348	1680	8235	17568	-9447	-22808	1832	4960	7199	-458	-1289	145	113	1
25420	-16372	12588	32767	11447	32767	-26088	-4296	5484	-10969	20572	3181	-30240	4004	26520	-14467	3229	8360	-10308	6676	16000	-2269	32767	-11855	-25276	4484	4300	7883	19373	-10688	-25240	6172	9596	10370	-3801	-1248	118	119	1
-792	11900	15808	23311	32767	2857	-32768	-14264	14296	25601	9953	-1229	-7748	1736	-11064	-10282	12528	1075	-11336	8472	17700	-2658	32767	-17866	-32768	1992	7844	9955	21640	-10704	-32768	9908	20128	8648	-18725	-346	114	119	1
-32768	32767	32767	14117	26519	30717	-14360	6056	-6592	32767	21343	1183	-32768	-21352	9164	8715	6541	-14175	-19984	9588	18520	3688	32767	-25430	-32768	6876	16580	30154	20674	-9168	-26736	-6276	14436	3943	-23483	-2529	120	122	1
-32768	-27792	1748	15630	-2160	17229	-32768	15936	-17836	11853	28860	5816	-29148	16832	-14664	24841	12643	4888	-32768	15068	30144	20999	32767	-25679	-30728	14196	928	32767	22176	-8103	-27328	6228	688	8088	-22211	437	78	90	1
-18640	23772	23320	7103	1295	10224	-16420	5100	-21752	11004	20308	-26	-16032	21128	-10996	-1900	10515	5585	-32768	12808	32767	27600	32767	-31233	-24476	14376	-11436	18531	19447	-12559	-25380	10116	-10004	10601	-21732	4737	147	107	1
-10568	-5964	13112	4786	-643	5087	-11908	536	-8756	-3721	16895	-3025	-5768	-1000	-12240	-17978	5748	10209	18448	30716	26308	25751	23443	-28359	-25112	-1452	-12860	-861	19554	-11165	-30044	5004	-11544	-592	-22059	6318	107	102	1
-11364	-9260	9268	2515	-95	2729	-11628	-5024	-9972	-19204	11490	1838	-10864	-20820	-11580	-2638	10719	2934	-32768	32767	32767	5589	-13984	-9970	-17292	-9272	-22848	-10273	12079	-6264	-29212	-2960	-7984	-12657	-28754	6874	138	84	1
-10432	-5796	11244	2350	76	3695	-11088	-12088	-7368	-7818	10828	2423	-17660	-1612	-7284	10834	13300	-1579	8396	32767	15676	-21636	-22846	-1519	-14028	-4064	-3360	16157	288	-843	-26244	-1048	-5796	-6386	-29579	8451	141	118	1
-11588	-3492	11944	1135	780	3122	-28652	-2700	-5504	5368	9488	1982	-20332	5920	-4916	1404	13738	1558	8372	1460	14332	-11453	-18559	3828	-10608	4340	-3768	12262	-7798	7083	-20132	2716	-8248	1925	-24976	11083	159	149	1
-11544	-3540	11880	547	1078	1864	-16132	132	-5372	4030	7583	2453	-20296	5712	-4848	-279	13657	2574	3064	7420	14248	9855	-18074	16969	-3484	104	-6860	-8325	-11205	10810	-19612	1252	-9132	2404	-23449	9207	164	172	1
-10588	-3448	11508	333	1205	1394	-12448	1724	-4560	-524	6584	1850	-12300	-2000	-4184	-7763	15477	8487	-4584	19244	14240	4954	-23518	19826	-4024	-3452	-7684	-13989	-17079	14365	-19204	328	-9220	2323	-23451	8562	176	169	1
-10440	-4248	10728	269	1091	1198	-15928	-3428	-3252	-4025	5220	2561	-15864	-640	-4680	-5368	17058	7142	-8016	8548	14620	-2113	-32215	20946	-3884	-4816	-7944	-13466	-22582	19697	-11640	-1700	-10480	826	-17750	5909	145	134	1
-11844	-5556	10988	950	886	2253	-17344	-3216	-1436	-5658	4474	1049	-14368	-1572	-1416	-2427	18832	7229	-6512	2184	13252	5632	-32768	25051	-5124	-5580	-5988	-11191	-27775	21824	-9176	-2588	-11788	1111	-13866	6050	122	151	1
-11704	-4400	10340	1428	-182	3034	-15388	-3492	-1512	-4625	4146	1351	-13440	-3404	-1316	2253	19924	5588	-9560	3048	15868	10133	-32768	26866	-7120	-6436	-10004	-11573	-32730	23894	-6160	-2644	-11640	2476	-9803	3718	137	123	1
-10084	-4104	10180	2418	-997	3635	-11772	-4000	-664	-1228	5609	1482	-13488	-4020	-1072	4091	17356	5107	-16916	904	20696	12642	-32768	26517	-9292	-6636	-10852	-13251	-32768	24773	-5380	-1260	-10800	-690	-5656	2216	144	127	1
-11904	-4296	10396	2628	-1372	3739	-13552	-3604	-1276	3757	7226	1569	-15884	-6936	-1360	1966	15328	6805	-25328	1132	24228	16613	-32768	24859	-12260	-9380	-11580	-11629	-32768	24916	-5240	-1404	-10660	-9802	-3184	3435	142	143	1
-9796	-1916	12304	2686	-406	3197	-17612	-892	-3412	5919	7954	2187	-16660	-3520	-4932	6731	17741	7002	-32768	3616	21032	19754	-32768	22277	-15524	-8604	-10656	758	-32768	24203	-5396	-3140	-11836	-10207	-3269	3549	139	163	1
-11368	-3868	12204	1585	656	3281	-19272	2080	-3880	635	7643	2153	-17548	3380	-5528	7546	17158	5438	-32768	11412	16924	12185	-32768	24138	-14764	-6516	-11676	3241	-32768	25872	-5544	-2960	-6540	-11506	-842	3130	134	173	1
-10500	-2452	11740	290	2279	3779	-17304	700	-1896	-6040	7271	1946	-14828	5352	-840	1239	15760	5974	-32768	-1472	12028	7449	-32768	29483	-24212	-6756	-9916	-207	-32768	24685	-8120	-3588	1900	-7226	-5755	5598	124	147	1
-10664	-2236	11376	-180	3140	4033	-14888	-1620	2988	-8455	8640	2336	-17836	3460	4960	-1045	14478	3226	-32768	-17692	6680	14580	-28183	26100	-22356	-2928	-14104	-1368	-32768	24534	-16496	-2724	7040	-6831	-11564	10611	123	143	1
-9352	-1844	14508	1254	4479	3975	-14896	-3664	7320	-5163	11897	3188	-20988	-80	7168	-3146	11932	-871	-32768	-21988	-2384	17156	-26652	14957	-18736	-3492	-15048	-3648	-22728	15873	-29920	3344	15948	4601	-8570	7613	137	253	1
-10656	-3052	15024	1004	8400	4273	-18496	-412	4796	-2657	15806	4317	-24392	-3696	2320	-7943	7798	1415	-32768	-19980	-16872	2505	-20323	7297	-14472	-8584	-13968	-6601	-11935	7787	-11928	4632	30896	10566	5974	2055	141	236	1
-11044	-3440	16004	969	14403	4890	-22440	-536	-144	-6016	18426	4932	-22708	-7080	-1512	-9302	4887	5410	-32768	-32768	-26544	2795	-6936	-262	-8892	-12860	-10728	7862	3043	-4	-11260	4184	29104	9939	6470	1946	139	168	1
-9752	-6536	16084	2625	19681	8490	-23132	-1980	708	-9605	19232	5867	-21632	-2728	60	-6040	681	4919	-32768	-24744	-20732	7459	3629	-9796	-6664	-5816	-13672	15314	15916	-4255	-24500	-236	20808	9776	-4919	-4570	134	108	1
-10832	-5692	15200	4110	25996	13448	-21072	-2488	2064	-6191	21009	6516	-22232	1816	5228	-6672	-3991	4298	2132	32767	32767	-26477	13700	-18786	-19440	2528	-344	21190	22649	-6312	6100	-2268	-25256	30823	16996	-5148	132	103	1
