#Activity	walking 
#ActivityID	1 
#Date 09-23-16-52
acc_rf_x	acc_rf_y	acc_rf_z	gyro_rf_x	gyro_rf_y	gyro_rf_z	acc_rs_x	acc_rs_y	acc_rs_z	gyro_rs_x	gyro_rs_y	gyro_rs_z	acc_rt_x	acc_rt_y	acc_rt_z	gyro_rt_x	gyro_rt_y	gyro_rt_z	acc_lf_x	acc_lf_y	acc_lf_z	gyro_lf_x	gyro_lf_y	gyro_lf_z	acc_ls_x	acc_ls_y	acc_ls_z	gyro_ls_x	gyro_ls_y	gyro_ls_z	acc_lt_x	acc_lt_y	acc_lt_z	gyro_lt_x	gyro_lt_y	gyro_lt_z	EMG_r	EMG_l	act
-10388	-6596	10844	-179	190	49	-16376	-2832	-3672	-1042	713	-406	-14176	-2176	-5936	-511	1386	-191	5528	17568	16328	-671	-3707	1054	-7984	264	6824	993	-546	148	-22616	912	-11208	-396	-2653	806	133	129	1
-10184	-6860	10392	-147	222	20	-17288	-4312	-4016	-770	607	-325	-15336	-3320	-6680	-638	1460	-118	8936	7920	8224	-762	-3114	1503	-6136	2496	2240	608	-1379	426	-18120	1800	-12872	-382	-2235	1167	131	132	1
-10732	-6612	10528	-116	252	-22	-17944	-3912	-4136	-296	435	-162	-15496	-2184	-5648	-321	1460	-250	1832	7328	10216	-757	-2753	1782	-4376	4768	-3368	118	-2369	460	-14368	-1608	-12720	-178	-2073	1208	130	135	1
-10496	-6412	10592	-113	244	-35	-16696	-1232	-1144	187	208	13	-14288	-808	-5632	-140	1287	-74	-8920	7808	13912	-884	-3307	1905	-3472	5536	-4768	-1177	-3117	718	-11720	-2136	-12040	84	-1920	1060	131	135	1
-9872	-6192	10444	-157	241	-33	-16144	-136	-1824	-136	198	37	-14632	1016	-5392	-102	1455	-173	-10384	4928	14016	-808	-4590	2231	-3008	3200	-5008	-2111	-3735	615	-8608	-1296	-12272	119	-1693	1001	128	129	1
-10104	-5996	10560	-163	221	23	-16336	-520	-2328	-364	208	-67	-13672	2576	-4432	-560	1711	-141	-8016	3752	11112	-528	-5189	2511	-5624	-1416	-3376	-2130	-4410	371	-6776	-640	-12776	-103	-1419	1157	126	128	1
-10412	-6588	10008	-198	187	58	-15904	1032	-1104	-695	232	-140	-13224	1208	-3608	-1021	2090	-162	-9920	3624	11056	-543	-5306	2531	-8488	-2360	-4208	-1551	-4926	138	-5624	-1192	-13376	-276	-978	1244	129	129	1
-10108	-6448	10252	-187	143	110	-17080	-3440	-2664	-1012	316	-265	-14456	-200	-3376	-1012	2493	-120	-16344	3152	14912	-680	-5366	2439	-10712	-720	-7080	-1244	-5512	-183	-4424	-1184	-12576	-696	-660	1059	126	127	1
-10060	-6628	9964	-139	43	20	-15824	-2856	-2152	-514	329	-299	-14120	-1336	-3024	-596	2433	-194	-23432	816	18360	-528	-5676	2458	-17184	-3840	-7400	-1089	-5999	-476	-4048	-3240	-12096	-1249	-532	928	120	124	1
-10372	-5328	10408	-46	39	82	-15816	-336	-792	-307	290	-166	-16168	-328	-664	-263	2115	-341	-30080	2864	19368	-224	-6055	2480	-19856	-6824	-8776	-429	-6130	-641	-3120	-3896	-11256	-1218	-186	529	121	127	1
-10340	-6188	10124	-34	-27	30	-16688	552	720	-625	412	-153	-14576	-880	-720	-149	1586	-530	-32392	6664	19168	-344	-6126	2416	-21968	-2904	-9544	669	-6073	-551	-2200	-2928	-9736	-814	238	425	118	124	1
-10308	-6360	9720	32	-120	168	-15736	-2240	1032	-774	575	-227	-15024	-952	-1160	-23	1281	-257	-32768	9976	22400	-756	-5989	2265	-28704	3008	-9208	617	-6279	-372	-5224	-872	-2280	-445	296	634	120	122	1
-10688	-5996	9936	96	-151	201	-14080	-2960	-88	-276	720	-172	-18368	-528	-2568	-429	1332	-255	-32768	2488	19040	-764	-5714	2262	-30208	-2304	-8480	-196	-6283	-421	-11424	5464	4368	-976	-656	529	121	122	1
-10156	-6588	10240	90	-106	276	-16520	-64	280	-154	884	-99	-20464	-136	-2704	-802	1462	18	-32768	264	13704	-94	-5504	2202	-30096	-2616	-12616	-66	-5411	-451	-19520	8240	7552	-1613	-1289	598	117	121	1
-9076	-7680	10184	52	-74	281	-17000	800	1952	-645	1119	-225	-19536	-120	-496	-896	1633	-147	-32768	0	12360	-57	-5495	2158	-26904	-1184	-18672	-794	-4486	-513	-32768	8040	24808	-2812	-3090	961	116	120	1
-10388	-6756	10036	1	57	333	-17440	344	2032	-710	1174	-248	-19792	792	2432	-735	1655	-337	-32768	-10568	-17784	35	-3214	1448	-15624	-6104	-15560	-924	-3424	-985	-24264	-2704	10096	-2456	-1991	508	117	117	1
-9808	-6220	10940	-104	312	387	-16592	-1528	1880	-695	1495	-288	-19632	6408	2224	-590	1483	-471	-32768	-10240	-28920	145	-1963	-163	-2616	-1640	-20104	174	-1482	-71	-4864	-16432	32767	92	-701	654	111	108	1
-10700	-4800	11632	-245	666	378	-17504	2912	512	-168	2090	-217	-19936	6144	-1048	-713	1068	-308	-32768	-4504	-31296	1464	-858	-58	-6152	2104	-19360	1308	614	350	-12960	-4072	25848	2033	127	-152	112	111	1
-11600	-3200	12428	-535	1165	174	-19984	2488	-792	-93	2383	-222	-21240	-1584	-3152	-398	778	-57	-32768	5760	-21896	-45	510	-811	-10248	4816	-17080	1031	2119	500	-20728	4320	14168	1107	607	-786	109	116	1
-12252	-6860	13464	-989	1838	-157	-22928	1768	-3032	148	2635	-202	-21552	-1864	-4472	-22	194	279	-18312	11632	-1992	-1612	1229	-118	-18032	1072	-7336	327	2771	347	-21856	4536	11824	863	970	-698	108	113	1
-10084	-9688	14308	-1041	2747	290	-22200	712	-3664	223	2775	-223	-20856	-1288	-1824	176	-284	596	32767	-1256	32767	-113	2893	-151	-32768	-9240	32767	1217	1541	-762	-7392	1512	-8560	613	3705	643	111	113	1
-12012	-7852	13248	-929	3899	486	-24320	-352	-1808	54	2899	-156	-24560	-1600	3400	315	-717	807	-10248	-32280	11368	691	3486	-3242	-24232	-968	-4912	-3221	1368	945	-23496	8392	-6152	281	1183	435	111	112	1
-10716	-10468	11612	-1928	5682	509	-29208	352	-216	113	3040	-164	-30008	3584	10456	766	-1928	732	-19912	-31448	10448	378	3645	-3134	-2016	-25728	-16248	-2583	2027	-258	-26672	15576	1936	-113	493	428	116	114	1
-13480	-14308	15460	-2998	6520	1783	-32768	8712	5888	-836	3059	-932	-30904	12680	17368	1631	-3744	1158	-11856	22536	15384	-184	2696	-303	-31616	4472	-4248	1129	2735	10	-9784	-11056	4976	-2470	741	-1139	121	110	1
-13168	-16816	15444	-3534	7920	2492	-32768	8560	8976	-2144	3027	-1195	-31600	14424	16864	1941	-3887	1322	-19160	1968	17216	-606	3091	-586	-15184	6168	-4168	-752	2313	645	-16976	-13584	-5272	-947	898	-716	118	112	1
-19800	-18860	11448	-2566	7956	3825	-23056	-3200	2264	-2463	3243	-995	-14328	9512	3160	-2282	-1299	1104	-23376	4728	16584	-352	783	-921	-16592	248	-8400	-614	1941	443	-13752	4408	-9008	739	814	467	122	112	1
-32768	-7360	5628	-1555	7078	4691	-19544	-10000	-4104	-2690	3102	-706	-26952	-9728	-15456	-4372	93	264	-20088	2880	14720	-235	734	-707	-17536	3416	-7488	-309	1803	396	-9424	2312	-10432	1287	665	172	123	124	1
-32768	-19840	6740	-1968	4493	3805	-28072	-6424	-15024	-1001	2882	-167	-32768	-12416	-17488	-4487	-1076	-448	-15120	2400	14920	-86	19	-634	-16456	-2072	-8840	-1099	1386	336	-16048	2888	-7504	913	917	191	127	119	1
-31400	-29936	20740	-3592	3912	2271	-21104	-6336	-12440	-1111	2303	77	-28168	2096	-13640	-1407	-2299	-1181	-10648	2256	14584	-124	19	-261	-19168	-6096	-4120	-524	1217	169	-18040	3472	-9296	623	1325	158	121	121	1
-28416	-32768	32767	-1115	1140	970	-13768	-7656	-12016	314	794	442	-22696	536	-17592	171	-2429	-295	-8208	3296	14256	-15	57	-124	-16312	-240	-4888	882	1178	285	-15464	5648	-10368	748	1341	-175	124	117	1
-11660	-32768	28908	1155	-3898	-423	-9424	-9304	1816	-348	-413	145	-20912	-3760	-12960	345	-2503	-135	-10168	4880	13664	119	9	-163	-17200	2184	-6528	1543	938	195	-15376	4952	-8960	758	1405	-306	132	126	1
1220	-16400	15676	2527	-5075	13	-7056	-8072	3672	102	-1174	33	-18648	-4736	-14912	396	-1897	-130	-8928	4400	13440	78	41	-233	-18832	2960	-4912	1426	639	261	-15288	4392	-7560	860	1601	-189	133	130	1
376	-5948	9664	1881	-5703	-154	-5952	-8888	-376	1518	-1971	206	-13304	-560	-14536	644	-2043	-394	-10032	3600	13656	-67	128	-178	-17688	2248	-4568	438	346	213	-16408	3952	-6000	614	1669	-303	133	129	1
-2904	-8132	7160	852	-6097	-625	-4520	-2768	-1344	1780	-2738	283	-10096	344	-13400	592	-1780	-452	-10016	3776	13096	-76	202	-43	-16992	912	-3368	-380	203	34	-15648	2904	-3784	377	1658	-505	137	130	1
-6468	-12792	6612	270	-6559	-1262	-4848	-2880	-3264	1362	-3452	522	-9800	168	-13920	564	-1726	-428	-9712	3552	13416	-2	212	45	-16248	120	-1968	-647	226	-91	-15776	936	-1464	333	1563	-591	128	126	1
-5580	-13132	5132	402	-6699	-1969	-5688	-1144	-3184	1355	-4173	785	-7088	-1088	-14792	1036	-1697	-363	-9136	3880	13240	57	202	2	-15496	-1136	184	-359	435	-125	-14984	496	-928	680	1626	-402	128	126	1
-6856	-9148	4520	134	-5135	-3078	-11416	-128	-3800	620	-5104	1083	-2696	-3072	-15568	1225	-1438	-510	-8936	3680	13024	48	89	-80	-15096	-648	520	999	630	48	-13008	3280	-1272	1420	1799	-334	130	125	1
-18492	-13012	11448	-156	-4681	-3483	-16208	-2120	-7344	89	-5358	1171	-2288	-2312	-15320	1721	-1228	-616	-9328	3416	12800	35	17	-102	-16080	1184	-616	909	658	154	-13272	2832	696	1531	2046	-388	132	128	1
-21628	-12448	15848	-220	-4528	-3560	-24376	-3008	-10128	26	-5678	988	-2664	-112	-12000	2308	-980	-574	-9584	3816	12824	4	-5	-139	-15448	2264	-192	350	678	103	-15096	2224	2568	1598	2442	-287	131	128	1
-27884	-14660	19556	-309	-4037	-3518	-28640	-4328	-13624	1153	-5954	1040	-4144	3136	-6936	2292	-1088	-192	-9128	3728	12888	-44	-28	-151	-15608	776	80	-348	728	55	-14136	2472	2568	1013	2565	-33	129	129	1
-32768	-21388	22216	151	-4224	-3640	-28936	-1408	-14304	1268	-6015	1176	-8072	4312	-1744	1643	-1532	326	-9504	3984	12888	-45	3	-142	-14968	240	-600	-510	902	43	-15904	2352	-3304	440	1925	265	126	127	1
-32768	-22952	15004	693	-3831	-4111	-31040	-1256	-13128	1653	-5920	1051	-10720	5840	504	1448	-1288	793	-8752	4184	12968	32	43	-156	-14664	-288	-528	-423	1104	90	-19080	4496	-7608	606	801	-212	130	129	1
-32768	-17892	11024	1187	-3100	-4896	-21624	-4096	-14528	2836	-5783	945	-14544	1296	1904	1557	-884	770	-9488	4064	12904	57	123	-168	-15776	608	-96	-195	1307	145	-20472	7672	-3392	555	609	-387	131	131	1
-32768	-11832	3792	1351	-2865	-5724	-18848	144	-16080	2506	-4672	1675	-28424	7248	13536	2669	-1963	702	-8920	4056	13328	44	225	-219	-16128	752	-664	-94	1392	150	-16456	7064	-3424	293	921	-26	121	124	1
-32768	6072	-12452	1556	-2117	-4365	-31144	2584	-32768	-516	-3782	776	-25384	10752	4784	3099	-959	499	-9232	4304	13312	84	412	-262	-17288	392	-1520	-121	1541	167	-15424	-104	416	912	1382	-10	103	119	1
-32768	16472	-18124	415	-1463	-2573	-8024	-6120	-15640	1013	-2139	566	-17080	30760	15952	1599	-1670	484	-9464	3424	13832	112	640	-274	-16064	-1552	-2128	-232	1699	209	-18440	-488	-1744	789	1122	-102	98	112	1
-32768	15000	-24580	-440	-1166	-1070	-4272	-3568	-16400	851	-714	-114	-13008	13744	25312	65	-1271	213	-9960	3016	14440	186	951	-221	-17720	168	-4496	-363	1890	112	-19128	3864	-5592	554	743	-227	103	112	1
-32768	11844	-27100	-345	186	-193	-6816	-3816	-17184	561	1024	-473	-18320	4520	14208	-293	563	523	-8992	3392	15264	290	1564	-221	-23000	-600	-4816	-416	2030	57	-20848	6152	-6920	452	588	-272	107	114	1
-32768	3024	-15556	313	1504	568	-12536	-2368	-16176	390	2450	-914	-18152	5136	4864	-312	1062	87	-9256	3384	14616	359	2443	-198	-21136	-1832	-4192	-444	2137	187	-19336	6272	-3952	368	208	-405	121	122	1
-22520	-13560	2000	1094	3070	983	-23176	-3552	-6184	193	2944	-1160	-15192	6008	-6288	-758	2230	-540	-10800	3408	14552	626	3214	-230	-19968	-1336	-3416	-353	2284	186	-19952	5296	-136	144	-96	-580	128	128	1
13388	-12408	32767	797	2602	804	-32768	8792	21288	2200	1690	-465	-1000	88	-13856	268	1398	-1740	-14616	6560	15368	910	3964	-214	-22584	-328	-528	-141	2498	208	-23168	4424	5072	189	-496	-593	130	125	1
-1800	14564	21928	-725	3205	2348	-27784	17792	-1592	2203	1603	-554	-27768	-2424	-152	-1356	1213	-835	-10080	5848	16824	1081	4609	-614	-26408	744	3400	-8	2727	297	-27824	4752	13320	-75	-1427	-504	130	133	1
-32768	-768	13184	-1376	2663	1767	-7800	7336	-14768	-1255	2375	-520	-21808	736	-7840	176	19	-480	-10840	13800	16912	877	5719	-1061	-30504	-1752	6960	248	2888	712	-31472	2880	23368	-580	-3009	-432	126	127	1
-14476	-25380	10492	-1371	2714	830	-21880	4632	-8440	-2582	1447	-511	-11256	2784	-2904	1105	-617	-127	-11200	12760	18720	957	7557	-1993	-32768	-5104	9296	1055	3088	1254	-27032	-8920	16944	-1591	-3282	-942	111	125	1
-16728	-12676	8636	-457	2719	915	-16928	-16336	-7616	-1135	1926	-1170	-10488	2264	-816	272	924	-319	-17968	2224	15696	1986	9573	-2816	-31408	-7008	4960	1600	2819	1483	-13848	-16840	6880	1223	-2181	-697	117	121	1
-21000	-16380	9520	398	1187	1110	-17424	-9312	-8864	1634	1796	-369	-16176	-4048	-11632	-522	882	-220	-32768	8624	12472	2937	9014	-2601	-23896	2112	-8096	3084	3187	1158	-29088	9512	-10752	4414	-1091	-274	126	121	1
-14240	-6040	14588	1360	846	961	-17616	-2248	-8200	2404	1451	-327	-14088	-5304	-8296	166	780	-160	-32768	17088	15408	2855	6042	-3996	-25312	4168	-8320	3703	3304	767	-30568	16512	-25664	4048	-872	914	125	124	1
-14592	-7008	12524	956	199	696	-16824	296	-7568	2751	1165	-287	-13176	-2176	-7488	1021	845	-308	-32768	18704	19944	3777	4632	-3251	-25840	4528	-11296	3464	2561	731	-31088	6560	-12208	-270	-2280	1446	122	128	1
-12828	-4968	12560	483	39	430	-17912	4736	-5872	669	1052	-282	-17160	1784	-10000	861	1247	-491	-26144	24016	32767	2471	2571	-1595	-11384	11592	-19296	1813	1787	217	-26264	-4128	-12624	-1475	-2734	1091	130	133	1
-10044	-6792	11440	69	136	223	-18104	872	-4088	-562	853	-432	-16512	1200	-7640	560	1258	-317	-24904	32767	32767	272	-3976	-234	-7544	7128	-10384	490	444	74	-21672	-4328	-8352	-991	-3178	837	131	131	1
-11072	-6876	10804	-51	186	250	-17824	-384	-5224	-1207	783	-659	-14848	1816	-7808	-2	1399	-359	3624	14488	16400	-1285	-5394	821	-10168	-416	9552	631	-701	259	-23800	56	-11272	-262	-2708	937	138	134	1
-11080	-6928	10448	16	192	234	-16800	-2216	-5728	-1420	739	-704	-14776	712	-7736	-746	1505	-421	13208	5424	6640	-438	-4556	1732	-9136	-304	2832	269	-1652	452	-19168	424	-12432	-266	-2367	1389	138	137	1
-10660	-6160	10448	81	195	163	-17712	-4888	-4984	-857	579	-495	-15120	-1352	-6408	-835	1528	-370	304	9720	9928	-302	-3844	2061	-4408	3376	-248	240	-2492	466	-14112	-2824	-11560	-3	-2277	1271	135	138	1
-9928	-7156	11100	48	228	148	-16824	-4192	-3584	178	379	-218	-15576	-952	-5784	-497	1510	-306	-11216	8888	14176	-856	-4527	2153	-3280	5160	-6184	-864	-3285	797	-10624	-2504	-11560	290	-2036	1132	130	132	1
-10052	-6164	10472	-59	191	186	-16384	-344	-2712	433	226	-16	-14728	-64	-4640	-299	1531	-251	-8256	2360	12832	-673	-5445	2500	-3744	3568	-3512	-2109	-4043	678	-7936	1016	-11432	17	-1812	1203	130	127	1
-10352	-6824	10040	-91	108	233	-15224	1792	-1904	-240	231	-85	-14424	128	-4768	-485	1712	-279	-7784	3416	11800	-379	-5788	2667	-6984	-1896	-3616	-2385	-4809	461	-7208	-72	-13064	-103	-1423	1191	123	127	1
-10484	-6692	9764	-82	45	319	-13672	648	4576	-719	456	-201	-11344	40	-3824	-825	1825	-24	-10936	1408	12320	-452	-5735	2507	-10696	-3320	-3088	-1611	-5270	-14	-6280	-816	-12352	-600	-1207	1170	121	125	1
-10356	-5348	10696	-26	-105	238	-16552	-1248	-2416	-788	221	-219	-14416	1904	-3976	-569	2400	-182	-17160	504	15320	-366	-5674	2444	-12992	-4632	-7464	-1665	-5756	-316	-2984	-2536	-12880	-1092	-841	1067	124	127	1
-10620	-5108	9936	69	-186	226	-16096	-448	-1360	-780	378	-397	-14304	-208	-1680	-735	2496	-84	-24416	8	19160	-323	-5800	2473	-17424	-8240	-9248	-933	-6020	-498	-4632	-5680	-10952	-1417	-753	812	120	127	1
-10168	-6216	9968	188	-279	272	-15344	-2784	-432	-683	455	-291	-15504	-2064	-1280	-439	2421	-107	-26696	-1576	21344	-226	-5963	2467	-19848	-6560	-9304	335	-6044	-740	-3280	-3400	-9544	-820	-505	353	121	129	1
-10924	-6468	10248	231	-305	344	-16232	-4112	-1208	-65	575	-160	-19200	-728	-800	-249	2145	-173	-30488	1904	23072	-234	-5758	2216	-24848	-4200	-9696	1055	-6191	-840	-2032	-1408	-8072	-255	72	264	122	129	1
-9920	-6500	10428	171	-217	378	-16808	80	-480	227	712	-42	-15496	0	-1488	179	1943	53	-32768	3528	23304	-419	-5638	1904	-28792	-2912	-11248	1087	-6229	-526	-5840	504	-1952	-429	155	456	129	126	1
-10444	-6184	10028	165	-91	336	-16464	1328	-544	-133	916	-102	-17192	2288	-1280	59	1910	-285	-32768	1632	20376	-193	-5520	1774	-27128	-520	-13360	615	-5917	-357	-11432	3856	2904	-1118	-606	616	124	125	1
-9748	-5488	10616	48	95	266	-16048	1112	808	-483	1230	-213	-19144	2328	128	-103	1484	-307	-32768	680	12408	27	-5369	1550	-29776	1600	-14808	-5	-5327	-482	-19960	5488	3944	-1403	-1307	671	119	124	1
-10176	-5056	11096	-8	241	257	-16472	-704	2032	-360	1460	-211	-19040	3072	880	-411	1265	-435	-32768	2128	-1400	-198	-4518	1645	-27264	-2152	-20056	-1218	-4384	-707	-32768	8384	13648	-2204	-2412	815	116	120	1
-9988	-4820	12044	-96	529	199	-17728	392	-472	264	1719	-167	-22808	2944	-5920	-548	1420	-301	-32768	4392	-20720	-1034	-2714	1206	-14552	-3648	-20056	-1971	-3341	-773	-20856	-6056	17672	-2738	-1873	800	116	121	1
-11204	-2344	12252	-324	963	85	-20880	4104	-3208	303	1883	-172	-18608	6536	-3920	-651	1279	-251	-32768	-5968	-30912	468	-1018	1477	-4304	-1408	-23072	-883	-996	-93	-8920	-8208	32712	294	246	103	111	109	1
-10976	-4436	12652	-384	1039	52	-20144	2776	-2280	108	2021	-283	-17888	6152	-3616	-638	1241	-248	-32768	1128	-29264	488	140	1520	-5120	4784	-20784	39	952	271	-16232	-912	23072	1178	808	-876	109	110	1
-10780	-6704	13352	-545	2389	57	-19912	-1552	-3224	333	2262	-235	-19976	-4352	-2360	-229	425	75	-32768	-232	-20128	-655	1345	744	-11976	4976	-18416	-291	2400	372	-20488	5624	9280	475	1354	-867	108	109	1
-10968	-6940	12468	-475	3169	418	-21440	-2664	-2544	657	2362	-174	-21352	-1520	-1400	572	-195	183	-18344	11504	8528	-1306	1828	941	-18888	144	-9784	-308	3142	499	-15352	2264	4080	-32	3273	272	109	109	1
-11344	-7884	11700	-765	3790	488	-22608	848	-1336	600	2515	-341	-22288	-720	392	619	-546	408	32767	-14576	32767	-356	4127	458	-32768	-17624	32767	1431	1595	-551	2904	544	-19600	1493	2925	790	115	116	1
-14484	-10684	13836	-1607	4676	951	-25136	24	1792	-76	2769	-611	-26344	-768	3360	45	-998	542	-7104	-25336	7072	3140	2575	-2088	-20736	2632	2840	-1415	1497	844	-32768	14168	-3392	424	1115	-461	112	114	1
-12644	-11908	10984	-2130	5464	1502	-29560	2536	232	-313	2870	-890	-32192	8488	16616	251	-2397	275	-32768	20192	15384	712	3320	-1386	-3704	-16104	-16216	-945	1866	-64	-19896	18848	6944	-2148	-1530	312	120	118	1
-14596	-15396	12956	-2213	6538	2247	-32768	9456	6072	-1419	2834	-1441	-23016	24864	7176	4740	-4089	1409	-6240	22688	8288	-231	3137	-646	-32768	11280	-5352	1293	2604	-212	-9888	-20392	4384	-2477	1050	-1084	119	109	1
-16368	-17620	11520	-1865	8044	3333	-31528	9024	7224	-2443	2084	-1615	-12368	27264	-4408	-1958	-1487	1426	-18392	-7264	19120	-57	3636	-552	-13920	-7256	-6288	-2057	1744	745	-19008	-9776	-7232	283	984	399	115	117	1
-28828	-15336	7860	-2351	7884	4473	-20736	-4456	-608	-2638	2917	-1328	-25448	-288	-1320	-3762	-695	302	-27016	16968	14936	-197	1193	-1033	-18152	248	-9032	821	1972	356	-14072	3224	-10736	1836	867	297	118	110	1
-32768	-12272	11604	-3426	5147	3076	-22224	-14344	-13672	-3467	3499	-1248	-32360	-17992	-24128	-6342	99	44	-14472	-1352	16840	-19	985	-718	-18624	3368	-8040	464	1682	453	-12696	8048	-8288	1462	978	46	121	125	1
-32768	-30696	21460	-4431	3214	2082	-25544	-10880	-15464	-2087	2901	-375	-32768	-8224	-14752	-2466	-2189	-1364	-11256	7128	13608	-116	162	-521	-18856	-3088	-5528	-857	1191	353	-13240	6888	-6704	1275	878	40	121	115	1
-5420	-28892	26780	-1587	664	2282	-17376	-7152	-10216	-581	1488	-213	-22112	5440	-20184	-9	-2472	-320	-10360	2440	14400	-150	192	-341	-16848	-904	-3600	-325	1153	209	-17280	6008	-8584	448	1298	-205	123	113	1
-9388	-32768	31880	493	-3665	264	-9664	-7712	768	-62	36	-347	-19896	-1160	-14384	156	-2560	-14	-11408	5736	13192	-197	237	-89	-16608	-392	-6440	256	1072	91	-14440	5384	-9160	304	1381	-419	127	122	1
9484	-19484	14760	1704	-4193	158	-7112	-6808	4104	230	-1018	-323	-19120	320	-14936	310	-2109	-191	-9688	5248	13616	-110	287	-76	-18984	3584	-4032	697	881	124	-14904	2680	-6928	366	1564	-432	134	124	1
5756	-7732	12440	1025	-4196	-570	-3840	-3944	192	1723	-1698	-116	-14288	1512	-14432	344	-2105	-651	-9584	4496	13336	110	285	-72	-17376	1064	-3736	266	631	124	-15680	1992	-4912	519	1648	-525	136	132	1
620	-11656	11708	284	-4683	-1655	-2776	1272	-56	1327	-2512	124	-9904	1072	-13776	94	-2096	-620	-9336	4880	12920	187	330	-54	-16568	24	-2208	235	548	-31	-15776	1448	-3576	527	1675	-534	138	130	1
-908	-13004	10096	349	-5111	-2244	-4984	1144	480	642	-3377	290	-9304	1176	-13280	102	-2085	-604	-9472	4704	12744	115	329	-107	-15992	200	-1120	-16	524	7	-14792	2352	-2248	588	1615	-505	131	128	1
-3680	-8888	9260	582	-5250	-2796	-7800	-1520	-1896	357	-3921	437	-7592	-1064	-13432	278	-1862	-602	-9632	4552	12616	56	306	-119	-15904	1040	-1696	97	558	-13	-15344	3328	-2064	696	1714	-494	130	128	1
-7884	-6364	9688	601	-5323	-3154	-9560	-1208	-3576	474	-4479	625	-5496	-1976	-13392	531	-1669	-827	-9976	5024	12432	28	222	-150	-15072	1176	-1792	283	627	-51	-15584	3672	-3216	1038	1802	-532	127	124	1
-7944	-2696	8884	278	-5210	-3172	-12048	-760	-3136	613	-4986	755	-3376	-3352	-13056	671	-1475	-773	-9296	4920	12344	-43	77	-246	-15248	880	-1896	500	713	-48	-13432	4576	-2256	1102	1765	-541	129	122	1
-14776	-3684	12664	-263	-4850	-2908	-14768	-728	-6320	781	-5337	927	-2512	-3128	-13800	1265	-1128	-718	-9584	4736	12256	-149	-36	-316	-15408	160	-736	641	749	54	-13664	3792	-1192	829	1901	-394	128	127	1
-21060	-6236	16296	-593	-4834	-2814	-19328	-1672	-11408	918	-5601	984	-3000	-760	-12208	2150	-980	-676	-10256	3872	12072	-287	-77	-328	-15512	440	-1048	619	762	65	-14960	3872	-1200	551	2109	-411	126	127	1
-24156	-7776	17560	-814	-4384	-2751	-25120	1272	-12384	1238	-5901	1304	-5144	824	-7424	2291	-894	-498	-9816	4192	12200	-376	-135	-345	-13728	1184	-40	-289	865	58	-15128	3288	-1528	285	2060	-492	127	126	1
-32768	-14052	22112	-606	-4252	-2910	-25216	3656	-11960	473	-5924	1553	-5464	1040	-6736	2275	-914	-441	-9720	4264	12384	-339	-141	-317	-14584	976	-896	-966	913	28	-14688	392	-256	112	1784	-503	128	128	1
-30724	-16868	16976	-51	-3820	-3092	-28280	3320	-11080	-112	-5783	1292	-10088	4464	-848	1604	-1488	429	-10416	3288	12648	-211	-68	-277	-15896	-1944	-1448	-1238	1089	46	-16680	-1520	496	255	1797	-310	125	127	1
-32768	-20960	11300	590	-3287	-3553	-27560	-384	-17096	558	-5563	421	-10704	5616	-1224	1565	-1469	498	-9376	3632	13120	-94	57	-222	-15832	-2560	328	-649	1368	103	-17072	648	-568	912	1790	-158	126	129	1
-32768	-6064	6220	85	-2856	-4810	-19296	-5504	-12272	777	-4785	461	-21624	6792	3200	1066	-1130	820	-9312	4184	13392	-5	258	-253	-16344	528	-1200	-390	1568	184	-18720	4528	-4448	1058	1355	-175	123	125	1
-32768	-8612	912	594	-2687	-4641	-19296	-8344	-7056	-430	-4401	966	-27408	8832	14216	498	-2378	1544	-9400	4064	13624	90	447	-281	-17224	-144	-3584	-541	1595	152	-16544	472	-2112	620	975	-96	112	117	1
-32768	8644	-8800	964	-2411	-3387	-18568	-4152	-17888	1566	-3261	570	-18640	14344	6168	1426	-1412	-192	-9712	3232	13920	129	801	-252	-18160	-1424	-3344	-515	1750	208	-15144	416	-1240	842	1085	-31	102	114	1
-32768	11140	-16736	233	-1764	-2459	-8488	-5272	-9080	2702	-1697	502	-10312	14904	19920	360	-853	-235	-9176	4368	15120	278	1204	-200	-18344	-408	-1600	-341	2009	156	-19448	5568	-832	649	824	-94	104	113	1
-32768	12808	-24568	-75	-888	-1362	-7344	2120	-16720	795	-202	59	-17512	6896	18224	133	343	343	-9736	4192	14480	391	1939	-201	-20072	1040	-1840	-429	2243	159	-24168	8736	-4248	278	320	-252	110	120	1
-32768	11712	-25156	396	1144	-90	-8464	-4912	-14688	149	1228	-718	-20336	5400	11496	255	883	218	-10056	4360	14360	629	2751	-267	-21432	-456	-3784	-611	2449	213	-21352	9008	-3280	310	-341	-450	122	122	1
-32768	8720	-22300	520	2664	1971	-14392	-7184	-12744	649	2568	-953	-23144	6376	3504	-18	1505	-359	-15512	4968	14312	904	3265	-410	-23312	-3080	-4720	-612	2607	237	-19112	608	5520	-761	-743	-393	124	125	1
13060	-14040	32767	1410	4595	1236	-32768	11248	32767	2984	1681	-185	-24952	1776	-5256	-494	2480	-1135	-10160	10216	17888	1114	4292	-388	-26320	-1032	-976	-208	2802	311	-25856	2904	13232	-997	-1312	-502	126	125	1
-30572	17716	14916	-247	2563	3116	-24616	9384	-15520	2980	2395	-1136	-20664	4272	10872	415	-136	-946	-13152	15880	15888	840	5463	-673	-30768	-1640	4032	-89	2920	520	-28696	6088	18752	-1749	-2631	-649	126	122	1
-25516	-9656	14360	-323	2913	2090	-27552	1656	-32768	-287	2483	-905	-14296	-1016	-7192	538	745	-495	-11616	13192	18512	937	7257	-1388	-32768	-3784	10024	397	3114	1019	-22624	-3432	18232	-939	-3238	-975	127	123	1
-23408	-14704	18816	-363	2844	1835	-23744	-7280	-10968	-4545	3031	-2069	-4624	3040	-11368	527	-63	-135	-14048	6056	17760	1750	9489	-2521	-32768	-8184	13184	1440	2996	1288	-29216	-12552	9776	374	-2460	-1022	113	121	1
-25408	-25332	10984	961	1602	1571	-9488	-22520	-13728	-456	1992	-939	-12184	4816	-6960	240	703	-836	-32768	9424	9896	2512	9835	-2920	-27352	888	-7520	2250	3241	1158	-26880	13712	-5424	3685	-1079	-392	121	121	1
-17908	-3496	18516	1387	496	1231	-19896	-4720	-11360	2683	1906	-582	-11208	-7296	-12776	-998	632	-392	-32768	5432	13328	2284	6913	-4250	-25504	4048	-8344	3344	3351	514	-29976	14120	-22352	3256	-975	520	127	123	1
-16404	-8084	11572	1134	-92	829	-18688	320	-10576	2638	1419	-280	-16400	-7288	-13656	94	1098	-219	-32768	17512	23488	3528	5087	-3394	-26768	8520	-8200	3363	2748	256	-32768	6488	-13616	140	-2032	1229	121	129	1
-11720	-2916	12620	641	-67	423	-17872	7904	-4912	685	1196	-425	-14720	-400	-11552	978	1045	-375	-25152	24520	32767	3193	3455	-1268	-15088	11512	-16288	873	1848	138	-27464	-2440	-10896	-1017	-2384	1112	128	132	1
-10884	-4972	11800	293	-10	235	-19000	-1632	-6272	-1051	1044	-678	-17208	2792	-9896	486	1272	-707	-32032	32767	32767	-86	-3213	-418	-6360	8328	-14336	-331	389	-222	-24600	-776	-11008	-1024	-2764	936	129	128	1
-10364	-6156	11464	-72	40	207	-17128	-1896	-5640	-1091	796	-656	-14856	-792	-7320	8	1498	-397	1112	15944	20000	-2468	-5146	257	-8480	648	6600	-92	-825	-237	-26856	2144	-13624	-701	-2746	913	136	132	1
-10720	-5500	11132	-77	48	156	-17320	-3136	-3848	-1179	628	-486	-13776	-1056	-5456	-409	1584	-300	7792	3440	9352	-1317	-4913	1428	-9720	-1064	1304	-564	-1843	23	-20352	184	-13896	-725	-2549	1234	138	134	1
-9676	-5956	10900	18	88	124	-17488	-7072	-2760	-471	595	-305	-15192	-2544	-4328	-574	1645	-371	16	7784	11656	-626	-4785	2021	-3888	-664	-1440	-139	-2659	-236	-15424	-2432	-13080	-511	-2447	1027	135	137	1
-9372	-6320	11240	148	120	200	-17024	-6168	-2496	697	544	-146	-15776	-2744	-3368	-365	1607	-274	-7224	8304	13400	-1021	-5415	2075	-2552	3392	-4728	123	-3449	15	-11352	-3368	-13048	-349	-2344	819	130	134	1
-9804	-5320	11072	150	164	271	-16152	-336	-1952	921	429	4	-15520	-1248	-4736	-159	1659	-118	-6736	2816	11976	-1091	-5985	2142	-4432	4088	-896	-800	-4437	69	-8408	-2600	-12808	-376	-1997	935	124	130	1
-10948	-5720	10528	27	182	241	-15800	2488	-1968	-200	465	-72	-14376	-88	-5264	-549	1884	-106	-9400	2040	11400	-713	-6340	2250	-6000	528	-3808	-1431	-5074	-49	-5440	-2168	-14072	-404	-1538	1023	120	127	1
-10816	-4952	10076	-98	138	87	-12704	2632	6288	-991	1063	-257	-9744	-1000	-6248	-1291	2034	-84	-11864	2480	12280	-564	-6444	2179	-8328	-1752	-5416	-1006	-5651	-435	-3552	-1952	-14224	-597	-1097	1085	123	124	1
-10296	-4944	10868	-47	102	154	-15584	-4568	-1528	-855	453	-185	-14568	-760	-3960	-668	2399	-355	-18880	1352	14016	-471	-6460	2106	-11944	-4304	-8200	-764	-6109	-691	-2096	-3632	-13536	-1100	-671	943	123	127	1
-9896	-5436	10700	19	-14	112	-15128	-3168	-376	-158	575	-222	-17256	-1488	-1576	-281	2215	-62	-25968	1920	16752	-92	-6439	2110	-17432	-7920	-9976	-269	-6290	-751	-2856	-6600	-11896	-1772	-455	607	121	126	1
-9492	-6156	10764	-10	-18	161	-14440	-568	-1392	36	578	-123	-17088	-2736	-2760	-271	1940	79	-32768	6688	20544	-153	-6395	2319	-20240	-4312	-11440	850	-6220	-633	-3336	-5288	-8864	-1318	-367	283	124	128	1
-9924	-4760	10776	83	-13	166	-16744	-472	-1344	-136	686	-189	-14576	1088	-928	-248	1678	-30	-32768	8728	18776	-488	-6189	2547	-25864	-2400	-11680	915	-6209	-672	-5008	-2176	-3392	-928	-637	152	126	127	1
-10568	-4960	10756	27	-1	186	-17184	-696	-816	-221	805	-224	-16136	2752	-1656	-41	1886	57	-32768	8960	15592	-828	-5444	2507	-29912	976	-11960	-26	-6094	-463	-7648	1128	2152	-708	-983	80	128	134	1
-9712	-5168	11072	-34	21	244	-16480	-1560	-1488	-378	892	-270	-15104	1528	-2304	-531	2188	-165	-32768	4520	15264	-604	-4616	2484	-28096	456	-14736	-623	-5681	-503	-10264	5904	2384	-903	-1023	315	134	133	1
-10172	-4996	11012	-66	135	307	-18160	-1488	-1032	-484	1040	-236	-16120	104	-1656	-730	2088	-488	-32768	5680	7080	-583	-4107	2336	-24656	1968	-19368	-1486	-4911	-602	-22648	4656	2016	-2096	-983	1108	126	130	1
-10416	-5064	11660	-114	292	326	-17624	-320	176	-555	1242	-295	-18128	1032	520	-631	1740	-644	-32768	8336	-7144	-952	-3623	2456	-19704	-1304	-21560	-2115	-3936	-806	-32768	-1552	12984	-2507	-1766	1090	122	125	1
-10532	-5208	11820	-178	511	305	-16512	912	-296	-546	1522	-327	-21288	3504	-4024	-774	1532	-552	-32768	-5800	-15976	-507	-2048	1335	-14024	-6840	-19120	-1258	-2706	-617	-11648	-13888	25136	-729	-940	351	118	119	1
-10632	-4232	12816	-146	887	323	-16648	1104	-1088	-444	1705	-304	-21440	1512	-5656	-1217	1103	-201	-32768	-3176	-23536	1713	-1464	1047	-10608	2104	-19584	1460	-643	229	-8032	-4984	25320	1535	507	-446	114	116	1
-11784	-3636	12672	-163	1458	255	-20752	-352	-4352	-209	1958	-269	-17432	-1520	-2320	-973	986	-121	-32768	4752	-24496	783	39	-54	-8976	7472	-18312	1315	967	631	-15832	2680	18744	1416	849	-574	111	110	1
-11020	-5800	12652	-188	2186	230	-21520	-1824	-3176	58	2163	-355	-19904	-3032	-2528	-233	709	-6	-32768	17960	-14648	-507	1006	-373	-11432	4448	-14432	862	2148	558	-24800	7520	4872	1079	2044	-121	109	112	1
-10744	-7128	12988	-212	2974	356	-21224	-824	-2024	164	2291	-397	-21952	-1384	400	519	22	53	-4960	-1432	28656	-1960	926	-759	-27584	-8960	25592	649	2135	-9	-18896	2952	-4944	255	2457	427	103	107	1
-13604	-7384	12312	-311	3893	533	-23872	-144	-640	-16	2465	-452	-24056	-792	4344	835	-219	220	-1016	-14968	25672	695	4024	-1642	-32008	-12936	32352	695	1940	-332	-22248	4040	1256	-209	1777	726	103	105	1
-11188	-7432	13748	-1063	4851	833	-27320	-96	1384	-182	2719	-548	-30424	264	5000	229	-988	362	-32768	-5144	9440	679	3980	-1414	-2952	-11960	-21056	-3476	1785	442	-22704	15664	10256	-988	62	304	103	109	1
-13096	-12712	13732	-1685	5563	1322	-27768	4424	5008	-774	2929	-897	-32696	6008	14888	-189	-2388	552	-19784	9496	22472	252	2757	-627	-20808	-8944	-3880	-1032	1987	154	-14320	1112	2480	-2551	669	-126	112	113	1
-13948	-16948	12928	-1476	6627	2437	-32768	4696	5832	-1668	2833	-1406	-32768	15112	19616	3347	-3986	1130	-17424	11408	17720	201	2603	-366	-21848	8408	-3504	-432	2198	768	-10408	-17240	-6912	-1094	1163	-1002	114	112	1
-16424	-13768	11020	-1183	8479	3679	-31992	9600	11240	-1117	1981	-1831	-9640	27320	-8840	-2098	-1566	1495	-13520	1784	14568	-78	2059	-847	-12184	720	-6480	-1261	1730	542	-13744	1184	-10304	799	880	270	115	113	1
-24576	3428	5336	-2780	8828	3988	-19968	4224	-1136	-2478	2620	-1332	-20464	2848	-1600	-2599	-1030	269	-24192	18360	14400	-772	780	-1168	-18592	6816	-6024	-11	1801	631	-11872	11712	-5696	1351	772	288	119	118	1
-32768	-16632	13888	-4343	5330	2363	-25128	-6280	-13664	-3944	3509	-844	-30072	-10816	-15544	-5959	-543	18	-11464	-1352	18240	-648	668	-1109	-19312	-3024	-4392	-1291	1466	499	-15088	3656	-4960	278	1190	337	118	108	1
-32768	-32768	26472	-3857	2843	2988	-26232	-10576	-16704	-3510	2923	-865	-32768	-8528	-14152	-3422	-2528	-1326	-12112	1616	13768	-84	62	-850	-15856	-9912	-5280	-152	1517	504	-20280	-568	-9080	288	1537	171	121	110	1
-2976	-23492	32767	-44	667	1405	-16576	-7976	-12752	-931	1481	-324	-23952	8032	-17248	-547	-2487	-537	-10528	3472	13872	36	-31	-266	-16984	-1136	-6224	1814	1571	389	-14312	4904	-8632	727	1271	-51	117	114	1
-3472	-30412	29680	414	-3607	-556	-11256	-5728	5888	-87	106	-135	-22912	-3680	-16896	64	-2584	-149	-11336	4976	13720	52	-45	-180	-19176	7304	-5480	1345	1291	329	-13248	4744	-7320	647	1406	-245	124	123	1
8960	-17336	15596	1343	-3997	-550	-10296	-6776	4224	316	-1187	-62	-19600	-896	-12888	657	-2400	-302	-9912	4608	12712	141	14	-213	-17208	5088	-4784	-27	836	228	-14592	5192	-7088	528	1527	-409	128	128	1
4156	-10140	14836	892	-3940	-1051	-5640	-2088	72	1916	-1962	129	-15448	2784	-13840	662	-1957	-499	-9824	3200	13632	77	119	-56	-16920	-56	-2888	-936	486	47	-15336	3904	-5336	157	1695	-459	135	132	1
-2468	-11760	14508	327	-4522	-2065	-4144	2464	-2448	1749	-2815	227	-11600	3232	-13976	233	-1854	-483	-9272	4288	13400	55	193	-16	-17112	-1400	-2576	-1142	578	-82	-15824	904	-3648	-114	1653	-523	138	127	1
-3744	-10436	13676	494	-5168	-2871	-7680	1664	-1384	936	-3686	392	-9144	856	-13800	205	-1960	-287	-9600	4512	12648	15	186	-2	-15616	-2856	-2480	-381	678	-98	-14832	-256	-4352	315	1815	-569	132	132	1
-6176	-6592	11856	862	-5322	-3238	-10640	832	-3144	691	-4203	507	-7552	-432	-14088	346	-1846	-290	-9104	4280	13312	25	132	-65	-15464	-848	-3360	662	780	46	-15000	-424	-5904	1096	1931	-336	133	130	1
-9644	-2480	11260	794	-5399	-3165	-11224	-552	-4120	706	-4788	669	-5032	-2688	-14144	558	-1702	-541	-9704	3936	13040	101	113	-123	-16688	320	-3824	898	665	85	-13440	2504	-5832	1391	2024	-402	131	126	1
-16168	-764	13472	178	-5637	-3040	-11680	-1896	-7200	796	-5278	943	-4152	-2944	-14320	933	-1519	-579	-9256	3880	13112	92	128	-102	-17360	376	-2560	664	564	64	-14384	3520	-4016	1172	2340	-611	131	127	1
-20832	-1120	14120	-450	-5755	-2673	-15080	-600	-8808	1171	-5608	1069	-3944	-408	-14008	1618	-1408	-462	-9664	3584	13016	50	169	-87	-16256	696	-2080	165	503	65	-15928	2528	-1568	593	2406	-645	128	128	1
-24396	-3664	15788	-807	-5562	-2347	-19904	1848	-11568	1112	-5875	1396	-3248	1160	-11384	1971	-1354	-289	-9784	3488	12536	17	176	-40	-15040	-312	-1056	-248	559	0	-12464	1056	-240	401	2429	-527	131	129	1
-27328	-8456	18708	-894	-5193	-2367	-24064	8184	-11072	47	-5918	1512	-3344	2984	-7720	1697	-1198	-55	-9400	4016	12896	23	164	-92	-14432	-672	-664	-341	703	21	-12448	-304	2632	352	2383	-96	128	129	1
-31524	-16000	20620	-665	-4978	-2805	-25984	2320	-12872	-1121	-5895	1004	-4808	3240	-4696	1002	-1151	273	-9752	3616	12784	36	155	-144	-14464	-2064	-392	-108	905	116	-15104	72	-128	73	1944	221	130	130	1
-29748	-16044	14936	-374	-4357	-3475	-28568	-3616	-11880	-1121	-5845	648	-7448	4536	-2680	507	-1082	376	-9752	3864	12264	68	150	-154	-13760	-616	-16	99	1144	178	-19976	1280	-7320	594	849	-337	126	129	1
-32768	-13808	14052	-273	-3243	-3732	-25648	-6728	-11600	10	-5669	764	-12096	4296	672	309	-1006	417	-9392	4248	12856	87	193	-157	-15096	1400	-992	-80	1274	143	-20000	5080	-5352	602	794	-383	130	131	1
-32768	-12504	15600	-86	-3077	-3836	-27120	-5112	-11344	919	-5166	762	-22336	3080	7568	554	-1486	628	-9528	4512	13200	109	300	-197	-18368	480	-3432	-264	1368	115	-17408	3904	-4704	784	1502	-5	129	129	1
-32768	-8960	7876	446	-3302	-3736	-26880	-4576	-12104	1006	-5031	807	-32768	9792	2656	701	-1594	810	-9480	4384	13592	127	570	-233	-19032	-1000	-1376	-161	1511	137	-17480	-432	-3888	906	1581	-144	121	125	1
-32768	40	-6676	927	-2845	-3099	-17120	-2768	-14400	2803	-4768	992	-23128	12104	8136	1752	-1169	-296	-9368	3960	14304	168	894	-262	-17096	-1904	520	-222	1689	164	-21072	2616	-528	625	1017	-141	101	119	1
-32768	11680	-23792	136	-1926	-2415	-7672	2864	-21800	1055	-1747	372	-12120	10128	24664	873	-1559	184	-9192	2776	14376	273	1459	-250	-18424	-1688	-1208	-351	1966	139	-22352	4304	-728	499	682	-101	99	117	1
-32768	16940	-32768	-304	-598	-1670	-928	-3056	-19336	273	135	-241	-14872	8968	23784	628	-222	812	-10008	3848	14240	439	2406	-168	-21712	-1576	-1800	-480	2245	121	-23304	6600	-848	294	401	-179	107	119	1
-32768	11872	-26940	242	1104	-645	-4552	-7144	-18384	1157	1937	-782	-17976	4632	14808	1210	456	748	-12280	5136	16760	506	3118	-245	-22088	-800	-696	-606	2488	164	-22512	7984	-136	196	84	-399	118	122	1
-32768	4284	-7464	1012	1972	91	-18128	-5024	-21760	1647	3281	-916	-18440	3656	2176	1101	1557	351	-10840	5384	16592	719	3980	-387	-23608	-1280	-248	-640	2699	239	-23648	6040	2312	293	-299	-521	121	125	1
-1504	-15408	29312	1293	2452	467	-32768	920	16776	2558	2730	-667	-9024	-256	-9272	876	2357	-1301	-10544	7200	15480	879	4848	-800	-26488	-1280	3088	-303	2920	387	-26456	4520	7720	147	-1030	-561	129	127	1
15248	-2172	26228	-1364	2114	2893	-32768	13704	13600	3622	1345	-568	-21424	10640	-1296	219	1402	-643	-11056	9512	16400	513	6256	-1103	-31352	-888	4312	73	3099	542	-31640	3856	18624	-285	-2341	-485	132	130	1
-32768	148	1412	-819	2948	2559	-7776	3888	-4240	-48	1556	-831	-30448	3176	3496	-751	731	-784	-11328	14880	16248	924	7913	-1781	-32768	-5800	12696	774	2949	1009	-32768	-1336	29600	-2120	-5016	-673	126	119	1
-16592	-14368	21356	-896	2777	1612	-15880	2136	-3904	-2949	2207	-1131	-13616	5224	-14336	-73	-198	-1032	-12848	5592	15160	2323	10381	-2968	-32768	-10824	20760	2042	2777	1375	-3360	-18896	4616	1731	-2078	-1238	119	113	1
-16408	-14992	5848	-578	2733	1192	-20952	-16408	-14816	-1658	2207	-1652	-7160	13080	-3200	-913	147	-968	-32768	8016	9488	3473	10927	-2999	-22824	-2648	-8528	2850	2879	1126	-24352	-416	-192	3710	-1345	-278	111	116	1
-13924	300	15540	-268	2444	1059	-16896	2928	-8120	1203	1952	-538	-11672	-2752	-10144	-2164	612	-1070	-32768	1312	6288	3944	7924	-4210	-19744	3256	-9320	4226	3246	762	-29480	15800	-25536	5566	-631	574	115	114	1
-27884	-27316	15184	573	1387	1069	-18616	-7456	-9640	-546	1671	-522	-17984	-7672	-4600	-1076	868	-115	-32768	20720	17712	4620	4115	-3987	-32592	12408	-19224	4208	3314	736	-27648	20096	-18520	1888	-1701	1624	121	119	1
-11200	-1252	17976	1130	882	711	-17736	-6704	-7600	822	1565	-1019	-13288	-13208	-10304	789	812	-250	-13936	28728	32767	3366	1751	-1097	-30976	13976	-18384	4286	3018	700	-28520	4800	-17392	-2706	-2458	1182	120	122	1
-12808	-13184	8444	556	488	586	-18000	-6536	-6632	2604	1177	-209	-15888	1336	-8256	1428	1308	-395	-30016	32767	32767	-556	-1324	-44	-8392	10344	-16328	214	830	-88	-23368	560	-10872	-2202	-2792	731	129	133	1
-10072	-3476	13732	645	401	534	-17208	3536	-3336	1508	890	-112	-16864	-2184	-7768	874	1315	-371	-16264	21680	20840	-3168	-4131	1034	-7392	6016	-3312	-745	-198	-204	-24760	-768	-12584	-1383	-2436	985	134	134	1
-9028	-7008	11564	516	216	610	-18400	3560	-2272	-235	698	-320	-13656	1288	-7032	699	1401	-276	-1464	2960	9288	-3128	-5227	1648	-8816	2976	744	-1294	-1075	-155	-21512	376	-13216	-857	-2197	1469	139	131	1
-11504	-4964	11036	447	11	671	-17928	3008	-2520	-470	671	-372	-14944	88	-7464	63	1660	-242	1832	720	6584	-1784	-5052	2116	-6648	2464	-2992	-1749	-2138	-24	-18824	-504	-13120	-779	-2224	1583	140	134	1
-11016	-6684	10876	338	32	577	-17520	-1936	-3328	-1991	620	-561	-15960	32	-6624	-481	1768	-390	-3440	4768	7608	-1106	-5180	2218	-4576	864	-4632	-1940	-2928	92	-14504	-3504	-12328	-606	-2205	1330	125	130	1
-10068	-6672	11092	302	7	592	-17560	-6248	-3456	-1370	622	-545	-15832	120	-5496	-693	1781	-366	-6024	6296	7488	-1315	-5380	2124	-3136	1192	-4328	-2110	-3592	108	-11560	-3016	-12648	-461	-2051	1246	131	135	1
-11300	-4952	12500	254	29	492	-16408	-5920	-4504	194	571	-470	-14240	552	-4376	-654	1728	-182	-9824	4432	9176	-1474	-5608	2129	-2808	-904	-5056	-2393	-4233	-35	-8136	-3280	-13504	-628	-1838	1269	127	127	1
-10836	-3884	11504	175	136	260	-18248	-8744	12432	-1633	1094	-296	-16144	3240	-5664	-806	2043	-168	-11416	4016	10184	-1440	-5935	2392	-5496	-3048	-4288	-2030	-4844	-407	-6848	-3608	-13296	-1063	-1577	1376	125	124	1
-10732	-5960	11144	119	236	164	-14872	1400	56	435	-22	137	-12784	1528	-2280	-1103	2220	-516	-10344	1960	10400	-1345	-5887	2608	-10496	-3264	-3928	-1784	-5314	-816	-6688	-3520	-12688	-1360	-1255	1197	124	128	1
-10716	-5476	10572	76	192	149	-14400	1256	256	233	161	142	-14216	-40	-2808	-1257	2521	-407	-18304	2136	16544	-1244	-5653	2660	-14912	-6176	-9072	-1388	-5817	-1138	-4536	-5040	-11856	-1607	-982	1004	127	132	1
-10028	-5132	10892	-25	115	253	-15376	-1192	-1520	-532	565	-345	-15544	-1280	-2904	-682	2543	-404	-27504	-2272	20912	-1027	-6076	2352	-18208	-8328	-10608	-247	-6089	-1316	-3816	-6936	-11224	-1521	-737	414	125	131	1
-10716	-4784	10484	-24	94	208	-16504	-1104	-2184	-541	722	-479	-17352	-2272	-4408	-711	2580	-179	-30032	-3456	20568	-302	-6379	1961	-21328	-6504	-10336	1319	-6162	-1258	-2344	-5528	-7616	-1028	-435	34	128	130	1
-10236	-4636	11004	-35	83	170	-16568	-2256	-1904	-199	788	-370	-14672	-1448	-3432	-120	1956	65	-32768	4152	20616	57	-6220	1549	-24768	-3016	-10192	2095	-6142	-875	-3304	-3432	-5080	-690	-398	56	129	130	1
-10636	-4976	10588	-35	76	177	-15352	-2312	-472	102	853	-251	-15800	-360	-1280	135	1920	-25	-32768	10184	21008	-407	-6037	1253	-27896	1512	-12512	1466	-6049	-362	-7136	-144	384	-929	-702	212	126	131	1
-9704	-5788	11024	-57	111	264	-16160	-1944	-536	99	978	-230	-16032	-264	-712	74	1929	-162	-32768	4728	17240	-457	-6024	1409	-28304	808	-13840	316	-5805	-435	-10496	4216	1536	-919	-754	191	128	129	1
-9440	-5060	11308	-130	203	336	-18424	-688	-616	-192	1140	-312	-17200	1176	-2128	-190	1890	-401	-32768	4280	15952	-379	-6023	1458	-27536	-816	-15384	-453	-5123	-637	-23384	3720	3328	-1452	-1272	460	123	128	1
-11036	-4316	11056	-193	420	362	-18272	1088	-208	-469	1353	-374	-20656	4096	-1064	-534	1728	-683	-32768	11136	-4272	-808	-4205	1910	-24136	-992	-23304	-1700	-4406	-665	-31944	168	11688	-2465	-2140	1044	118	122	1
-10028	-5988	12304	-199	754	372	-16488	720	1200	-527	1665	-479	-21400	4568	-1248	-957	1408	-595	-32768	-4456	-20448	-154	-2057	1452	-14072	-5480	-20888	-1780	-3035	-420	-16824	-14176	26784	-1630	-1305	380	116	122	1
-10248	-3688	13328	-197	1306	326	-17648	704	-1736	-166	1988	-372	-22800	1296	-3568	-1240	982	-206	-32768	3680	-29352	1148	-1106	1531	-7232	3336	-22288	477	-655	98	-13104	-5648	30344	846	318	-272	113	114	1
-11348	-4184	13424	-274	1954	217	-21560	320	-2016	25	2270	-362	-20040	-2160	536	-1111	815	-122	-32768	1504	-28696	-82	437	741	-6600	7688	-19192	36	1118	403	-17984	-48	20824	1197	663	-698	110	113	1
-10816	-6888	13564	-315	2865	213	-22584	-1600	-1952	147	2533	-489	-22616	-5464	-968	-135	444	47	-32768	1416	-16352	-272	1658	98	-12288	3640	-16704	-7	2622	425	-20056	7008	7640	967	1402	-292	107	110	1
-10828	-6684	13420	-305	3000	234	-22536	-1624	-1560	359	2664	-577	-23504	-1920	2944	636	-173	162	-2072	-2880	32767	-1547	1258	-289	-31112	-7504	30520	950	2352	-26	-18352	4856	-8336	1072	2884	200	100	105	1
-12036	-7660	14500	-1081	4810	915	-26400	-136	2056	88	2841	-623	-25672	-584	5904	1065	-703	358	4528	-9976	15776	1506	3780	-2447	-32768	-2696	15192	-1791	1338	725	-28136	2392	3064	322	2725	356	101	97	1
-12308	-11740	13256	-1629	5706	1318	-31040	336	3048	-272	3034	-910	-32768	1736	11968	748	-1968	560	-32768	-5880	11680	1246	3392	-1787	-3096	-17208	-22440	-3008	1872	644	-19432	13368	10592	-128	427	470	106	98	1
-14900	-16980	13092	-1752	6699	2271	-32768	6128	8728	-1211	2975	-1491	-32768	14904	23720	3008	-5324	995	-17712	13016	26128	821	3245	-469	-21360	-9208	1176	-291	2470	154	-17552	3152	-2112	-1744	460	361	113	106	1
-9888	-14016	14824	-1957	8805	3562	-32768	10632	11336	-2993	2313	-1950	-8504	32767	-104	-2715	-633	1992	-18792	19848	9488	348	3600	-616	-23320	11360	-5664	1286	2800	714	-7240	-13424	-4552	-165	754	-854	114	111	1
-28160	-8848	9072	-3384	9842	3853	-24592	2208	-5872	-2861	2580	-1552	-22688	14512	-4760	-2615	-531	-2	-10296	5976	14832	-87	2382	-747	-13848	2704	-5248	-384	2151	561	-13800	152	-8776	504	922	420	120	116	1
-32768	-6640	8512	-4587	6987	2469	-16304	-5472	-7736	-4864	3352	-1175	-30032	-12536	-23568	-6746	-396	-100	-22192	7008	14744	-594	1029	-971	-18040	4480	-6320	-601	2008	676	-11600	12480	-10408	883	601	455	124	118	1
-32768	-32768	17648	-4664	3951	2850	-32768	-13240	-20416	-5310	2906	-938	-32768	-13504	-17984	-5057	-2859	-1403	-12592	40	17056	-396	690	-1153	-18560	1248	-8400	-1459	1607	200	-13384	8	-8624	16	1185	-422	123	120	1
-13764	-32768	22176	-2583	1087	1636	-15880	-9184	-19032	-2627	2023	-664	-22008	2656	-18584	-415	-3102	-888	-11256	3880	14424	-92	78	-712	-19136	-11576	-7408	-1271	1318	170	-18808	232	-11800	315	1693	27	128	121	1
-21104	-32768	32720	-319	-3939	-1073	-6712	-10000	1248	-670	309	-394	-21912	-336	-15256	31	-2443	-487	-11176	4656	14160	-169	121	-90	-17432	-2088	-6232	903	1458	197	-15400	3112	-10568	586	1549	-98	128	120	1
7964	-22556	19304	1820	-4818	-914	-9960	-11536	5672	237	-1150	-69	-21936	568	-13424	517	-1891	-393	-9952	4184	13760	-134	173	-144	-18304	1912	-4912	1347	1166	189	-15080	2848	-9344	714	1612	-276	135	128	1
4800	-10192	13484	1606	-4531	-907	-7888	-4136	128	2343	-1982	-258	-18008	1376	-16144	493	-1717	-638	-9720	5640	13232	-25	127	-288	-18376	4216	-5392	1325	914	378	-14128	3672	-8240	1011	1770	-446	134	126	1
-1856	-9820	13192	724	-5127	-2128	-6320	3432	-2336	2611	-2770	-218	-12664	2160	-15112	420	-2070	-612	-9920	4840	13168	14	89	-305	-16688	3696	-2584	204	555	303	-15048	3832	-5560	797	1962	-528	134	128	1
-3040	-9984	10944	413	-5494	-2921	-7328	3392	-1416	2100	-3642	-171	-8848	2312	-13704	440	-2037	-364	-10152	4760	12560	-34	134	-290	-16816	912	-3120	-641	380	79	-14920	3696	-3968	480	1872	-601	134	126	1
-6132	-7400	11120	704	-5417	-3448	-9512	976	-4496	1617	-4228	190	-8040	824	-13280	556	-1942	-325	-9184	4224	13320	-103	162	-182	-16144	-2104	-696	-741	473	-111	-15016	2696	-1704	329	1933	-541	127	126	1
-11300	-1812	13360	900	-5377	-3661	-10704	2408	-6096	1331	-4893	651	-5592	-2400	-12856	783	-1825	-421	-9224	4512	12944	-84	142	-186	-14920	-80	-728	-429	717	-81	-14512	2880	-1464	621	2167	-495	129	126	1
-15356	832	13896	595	-5391	-3643	-13144	3368	-5832	1225	-5351	1089	-4464	-2744	-14256	1227	-1675	-538	-9160	4344	12920	-51	105	-221	-15728	112	-544	-116	744	-44	-14008	2872	-968	903	2275	-570	126	124	1
-19872	-1168	17484	519	-5281	-3370	-15744	1712	-9840	1414	-5584	1343	-4536	432	-12936	1783	-1534	-407	-9832	3352	12832	13	75	-274	-15952	-216	-1480	-12	798	34	-14776	1688	-1864	920	2501	-644	127	129	1
-23988	-1308	20176	567	-5278	-2990	-20056	6200	-9448	935	-5805	1708	-3992	1096	-10976	1608	-1315	-454	-10328	3464	12728	-58	62	-245	-15272	-464	-1200	-5	837	69	-14024	1808	-1288	759	2543	-525	125	124	1
-24784	-3364	19964	437	-4950	-2580	-22144	5984	-8776	41	-5898	1837	-3184	624	-9888	1334	-783	-317	-9952	3864	12680	-50	27	-198	-15048	-392	-1304	-20	839	62	-12904	1752	192	171	2307	-229	129	127	1
-25880	-8580	20148	366	-4432	-2203	-27776	3448	-9992	-811	-6029	1717	-3376	1152	-7320	1304	-678	-242	-9728	3712	12864	-35	37	-176	-13672	736	-952	-456	1028	46	-13992	1088	152	-350	1758	122	127	128	1
-31340	-14220	20188	-194	-3779	-2164	-31800	-1040	-12056	-338	-6205	1223	-5984	5912	-1168	916	-1189	-5	-8968	3776	13216	14	61	-178	-14512	-1416	-784	-697	1130	51	-16624	1000	-3952	-57	1130	-193	128	129	1
-32768	-19912	18624	-694	-3937	-3145	-26416	-6344	-13960	126	-5781	754	-9560	4872	2576	960	-1712	677	-9776	3872	12512	46	170	-183	-16520	-2344	-3568	-437	1327	97	-19416	2416	-5776	548	991	-544	134	131	1
-32768	-18760	9088	-157	-4483	-3893	-24512	-6488	-12784	768	-5069	894	-19712	5744	9368	1692	-1942	1190	-9544	3944	13320	58	307	-177	-16920	200	-1560	-105	1543	137	-17144	3600	-2120	509	1263	-210	127	130	1
-32768	-7844	-7452	573	-3868	-3616	-28432	-11752	-4224	2151	-1952	2801	-32768	11776	14016	1981	-1654	1540	-9184	4192	13528	62	471	-215	-16384	648	-928	-257	1657	140	-17280	-4160	1440	514	1422	66	115	123	1
-32768	2344	-15416	1212	-2585	-2963	-13728	-5168	-8696	2940	-4215	861	-24080	16240	6056	2413	-1180	81	-9600	2944	14232	130	752	-226	-16968	-2472	-1728	-504	1821	127	-19960	-2824	-1296	687	1227	13	98	126	1
-32768	8604	-23524	649	-1767	-2790	-6184	-784	-16256	2182	-1307	562	-10936	10728	25176	1008	-2030	230	-9920	3120	14352	222	1316	-200	-19424	-2648	-2896	-430	2123	108	-21224	5152	-3424	640	859	-201	101	122	1
-32768	14080	-30616	536	-510	-1674	-6096	-176	-16200	1139	32	-256	-13384	5760	19912	479	253	748	-9936	3744	15112	351	2115	-127	-20936	-272	-3464	-397	2358	111	-20760	9856	-4808	473	581	-249	115	124	1
-32768	13600	-25164	252	938	-489	-8008	-6096	-17288	833	1771	-753	-17080	6608	12624	711	651	806	-10176	4280	14456	511	2976	-187	-22456	752	-3968	-653	2488	117	-21360	7792	-4208	304	157	-440	123	127	1
-32768	4616	-10592	142	2132	476	-13320	-5720	-14888	984	2801	-935	-18624	3288	2984	506	1464	221	-15792	7656	14144	649	3684	-419	-23848	-1888	-3144	-753	2592	206	-22192	5368	-1944	168	-216	-736	129	131	1
-10916	-17536	21224	421	2494	995	-29848	-2216	9368	1700	2751	-826	-14088	-152	-5624	264	2240	-1293	-12888	6904	16320	667	4618	-693	-25120	-1784	-1280	-467	2734	308	-24792	3640	5816	-51	-690	-721	129	127	1
21072	-4872	26168	-1876	3237	2916	-32768	21816	18496	3434	1381	-194	-21856	12360	-5480	230	1298	-831	-11056	11504	15848	331	5753	-1003	-30024	-952	3264	-51	2863	363	-30832	4400	15912	-574	-2085	-576	137	128	1
-32768	-380	4924	-1302	3507	2099	-8904	480	-21128	-1493	2952	-1290	-29464	3272	5584	-859	258	-748	-10920	10560	17432	547	7422	-1577	-32768	-3448	11208	406	2821	814	-32768	232	27504	-1861	-3877	-747	126	120	1
-22512	-16848	28668	-1027	3049	1539	-4960	1408	-20312	-1767	2939	-1214	-13360	7688	-10752	492	195	-719	-11576	11232	18288	1293	9598	-2655	-32768	-8808	19480	1588	2758	1179	-11208	-14664	7160	873	-2382	-1033	117	118	1
-19360	-14028	7796	-737	2821	1049	-22624	-9376	-7856	-834	2027	-1628	-9696	11576	-6472	-565	1013	-1005	-23136	7928	14440	2486	11085	-3391	-27032	-3880	-1544	2427	2656	1126	-26768	-1232	6136	2795	-1774	-544	111	115	1
-30176	-18192	21240	277	1515	1376	-15184	-8656	-12984	445	2004	-680	-13272	-312	-9304	-2050	620	-824	-32768	1776	304	2787	9265	-4083	-19856	1480	-14608	3722	3104	685	-22600	13936	-21440	5087	-752	136	124	117	1
-26508	-18264	12104	138	1196	1285	-18520	-2008	-7568	311	1748	-852	-12112	-13288	-13664	-1699	949	-401	-32768	22696	17584	3862	4100	-4073	-30512	7824	-14792	3563	3739	448	-31632	16784	-21728	2607	-894	1159	123	119	1
-15080	-6420	14016	961	484	839	-17280	-9144	-9856	1396	1421	-731	-12992	-12624	-10920	657	928	-144	-23376	24176	32767	3006	3211	-845	-20760	9928	-10544	2409	2346	364	-30312	-3320	-11568	-1373	-1987	1257	121	120	1
-12388	-6276	12832	717	212	654	-17184	-2984	-7680	1971	953	-254	-17120	-1712	-12960	1558	1403	-326	-32768	32767	32767	-73	-136	-602	-6888	10328	-18344	386	894	123	-23616	-2248	-12088	-2174	-2817	652	130	134	1
-11004	-8136	10748	280	137	406	-20568	2088	-5344	627	665	-25	-18496	664	-11192	1267	1347	-340	-13608	23344	25080	-1680	-3803	811	-7816	2968	-1904	135	-154	7	-25216	-2688	-11640	-1043	-2920	812	132	135	1
-11532	-6260	11128	165	207	348	-17616	2968	-4968	-807	505	-293	-14576	4024	-7968	555	1559	-247	-2792	5352	11072	-1804	-4896	1449	-8992	3480	616	75	-676	218	-22872	1168	-13376	-279	-2289	1192	144	136	1
-10552	-5756	11352	65	265	259	-17232	2568	-4616	-1889	536	-473	-14568	2576	-7656	-286	1774	-378	3888	2880	5680	-986	-4682	1834	-5904	3056	-2168	-471	-1931	315	-18072	-2120	-13944	-383	-2126	1462	141	138	1
-10344	-5656	11236	-66	304	202	-18872	-2248	-3552	-2248	525	-539	-16176	-40	-6688	-838	1984	-465	-2808	5360	6688	-471	-4571	1958	-3912	2704	-3928	-1025	-2667	629	-13760	-4760	-11920	-186	-2302	1350	136	135	1
-9888	-7008	10880	-231	367	225	-18640	-7736	-2856	-1510	431	-586	-15984	-1096	-6048	-1114	2010	-297	-6552	6624	7592	-573	-4812	2100	-3048	1648	-3968	-1898	-3420	754	-10184	-5072	-11424	50	-2011	1377	133	135	1
-10664	-5260	10740	-239	357	212	-15400	-4312	-3456	-91	264	-326	-13648	-1792	-4448	-1125	1998	-175	-8216	5048	8864	-811	-5091	2243	-2104	-1040	-4496	-2415	-3995	636	-8064	-4560	-11712	53	-1799	1365	128	130	1
-10544	-5572	10624	-234	322	148	-15264	-3624	-3360	29	236	-258	-10952	1352	-2464	-1113	2450	-142	-7808	2400	9816	-827	-5167	2422	-5256	-4448	-4016	-1894	-4593	411	-5880	-3584	-12448	-116	-1647	1360	124	123	1
-10700	-7052	10544	-118	265	236	-17344	3168	-5248	-1376	817	-82	-9744	1296	-2928	-1108	2961	-255	-12944	-112	13192	-560	-5339	2722	-8968	-4136	-4736	-1447	-5008	58	-5360	-1320	-12120	-330	-1371	1233	118	124	1
-10584	-5540	9948	-144	126	271	-14968	-480	-624	-1335	374	-59	-15288	-56	1640	-851	2527	-774	-19264	384	18000	-501	-5738	2851	-12528	-4656	-7968	-1077	-5638	-428	-4344	-1944	-11856	-552	-967	1071	113	122	1
-11104	-6684	9048	-158	-12	288	-15296	-2152	904	-1604	684	-375	-15928	-4016	856	-512	2110	-856	-24544	-2240	18304	-605	-6170	2596	-17024	-8400	-7616	-129	-5909	-605	-3976	-3536	-11024	-938	-708	736	115	118	1
-11076	-5648	9684	-34	-113	365	-13328	-2280	440	-1221	778	-344	-18240	-5568	-2280	-548	1371	-348	-27768	-3560	18064	-258	-6298	2175	-18584	-5160	-8448	1036	-5990	-504	-2192	-4304	-11448	-852	-475	454	118	123	1
-10924	-5716	9736	68	-133	385	-11984	-2128	-216	-203	961	-180	-21264	-656	-3976	-687	768	111	-30512	904	21408	-71	-6162	1743	-22496	-2272	-9576	1337	-6225	-424	-1120	-3048	-8272	-350	-39	362	125	120	1
-10992	-5424	9940	192	-134	314	-14384	-320	-1232	193	1074	-6	-15432	688	-1080	-319	1027	236	-32768	3024	25048	-162	-6034	1455	-30544	-3728	-9520	1255	-6374	-441	-5592	2672	-1632	-563	-127	438	122	125	1
-10572	-5156	10612	205	-31	260	-17776	-88	-1808	121	1222	-39	-13560	2080	-1912	66	1904	82	-32768	4240	23608	-62	-5947	1359	-31496	-3328	-10216	952	-6123	-327	-12768	7312	3152	-1276	-824	502	121	121	1
-10252	-6504	10796	136	149	279	-19888	-1704	-912	382	1358	-128	-17088	2832	-2440	-98	2417	-112	-32768	5512	14648	-167	-5845	1522	-30288	-768	-14936	77	-5559	-315	-24576	8112	720	-1833	-1239	792	120	122	1
-10112	-5216	11108	15	328	339	-19056	-2600	-1288	410	1363	-123	-21584	1352	-1000	-227	2058	-293	-32768	5736	-1256	-565	-4888	1968	-25608	-32	-18312	-1055	-4703	-483	-32768	2624	9496	-2619	-2322	721	119	121	1
-10484	-4952	12272	-140	713	268	-17720	4680	424	392	1785	-159	-22032	1552	-664	-213	1965	-307	-32768	488	-20192	-648	-3190	1551	-17256	-4056	-22784	-2032	-3662	-566	-14568	-7344	21824	-2337	-2260	803	117	118	1
-10992	-3980	12916	-244	1276	207	-19320	2712	-1552	531	2113	-228	-21096	9024	-3096	-411	932	-164	-32768	-4832	-32456	1050	-1699	1889	-4784	112	-22920	-855	-1297	-44	-7264	-9656	32767	576	-102	133	111	114	1
-10824	-4672	13160	-334	2006	183	-21256	2104	-2152	634	2307	-202	-18456	4200	-1512	-250	720	45	-32768	2072	-32768	-16	-140	1144	-6120	5328	-21792	-46	691	186	-15248	-20976	24496	900	808	-996	107	113	1
-11280	-6708	12604	-475	2895	155	-21992	-1928	-1736	566	2591	-238	-21664	-5992	720	-255	627	283	-32768	768	-30840	-1007	2120	-146	-11968	6120	-17880	-34	2376	403	-23536	4424	10608	645	1358	-518	110	117	1
-11236	-8116	12204	-677	3860	375	-21688	-2040	344	580	2791	-344	-24944	-6392	2448	22	-131	349	15480	-8064	32767	-1390	241	-651	-31784	-11744	32767	1014	2113	-399	-23680	3968	-9912	953	3051	318	105	109	1
-12892	-9012	14316	-1597	4914	941	-24784	-824	2904	25	3024	-452	-26736	-5496	5792	378	-1012	577	-14888	-23776	13552	1028	3293	-2946	-31392	-4680	-8936	-3102	1814	1065	-29208	2424	8328	-87	2744	798	99	101	1
-11240	-11868	11756	-2182	5646	1367	-31712	952	1336	-189	3182	-578	-31904	216	14280	774	-2317	596	-28704	-3216	16448	775	3913	-1297	-3352	-31168	-11016	-2511	2151	-242	-14040	9480	168	-1044	-419	245	102	98	1
-16028	-14180	11580	-2705	6804	2260	-32768	11344	5328	-1098	2978	-1210	-32768	16800	16360	2882	-4292	1303	-20176	14304	16744	609	2825	-262	-23272	3904	-3552	1481	2982	387	-10456	1520	5480	-561	330	-665	110	106	1
-17108	-19764	14212	-2525	8527	3387	-32768	9576	9328	-2944	2699	-1479	-7024	30904	-12720	-1700	-584	2243	-13888	18776	12736	-193	3335	-646	-19064	11288	-3848	1124	2831	584	-10992	-8648	-10160	-325	677	-529	117	114	1
-24676	-4748	4028	-2474	8756	4178	-17640	-1936	-880	-3223	2923	-912	-19232	7952	-720	-2763	-1006	363	-27568	8248	18176	-1037	1887	-1444	-15184	9200	-10392	-667	2087	607	-14744	5920	-9960	244	493	468	120	115	1
-32768	-16576	9400	-3624	6034	3265	-18184	-8968	-7032	-2715	3142	-500	-29608	-15208	-18296	-5395	-13	-75	-12856	5784	17288	-579	-159	-1089	-18200	2376	-7672	-1595	1736	397	-8544	5504	-9336	656	649	37	125	124	1
-32768	-32768	13972	-3614	3989	3179	-29032	-10968	-20448	-2659	2821	-377	-32768	-13576	-18912	-4208	-2167	-1072	-16792	832	19752	-419	152	-883	-16888	-4440	-9496	-1939	1470	175	-17864	2800	-10528	137	1320	-108	131	120	1
-13036	-29240	26872	-2471	1903	1711	-19712	-248	-14048	-939	1868	-76	-22512	7200	-15944	-463	-2648	-791	-9872	4992	14152	-139	-47	-371	-18896	-7544	-5848	-454	1362	137	-17288	72	-10928	287	1452	121	122	120	1
-29144	-32768	32500	-386	-2921	-359	-10848	-7896	-7816	-802	512	-403	-21664	-480	-15248	245	-2557	-374	-9968	1936	14320	-209	31	-76	-17088	-664	-6144	1068	1292	171	-15864	4656	-8912	500	1406	-90	126	120	1
-2776	-23300	19280	1971	-4864	-682	-4944	-8376	3272	-293	-810	85	-21904	-264	-13880	548	-2198	-316	-9080	4464	13848	-120	20	-136	-17752	1480	-4744	1553	1024	132	-15288	3552	-8408	526	1498	-301	125	124	1
2824	-9444	10024	1888	-4966	-625	-7680	-6696	32	778	-1655	-64	-19192	288	-15248	363	-1860	-581	-10352	4296	13304	-16	43	-211	-17920	2424	-5272	1672	813	291	-15088	2600	-6312	671	1635	-439	127	121	1
-1640	-7924	7944	1022	-5127	-1289	-6352	-2640	-3952	1546	-2281	-100	-13728	1184	-14752	261	-1846	-551	-8928	3872	13344	11	90	-164	-17368	1976	-4152	728	506	224	-15792	2744	-5336	742	1767	-470	127	124	1
-5696	-9688	7616	513	-5633	-2065	-6128	-128	-4536	1588	-3087	-27	-9424	400	-14072	348	-1843	-366	-8912	3688	13864	5	161	-63	-17616	1928	-2272	-421	255	103	-15960	2496	-3008	664	1821	-557	130	122	1
-5952	-10332	6620	581	-5814	-2429	-7032	80	-3008	1406	-3756	198	-8648	1056	-13536	624	-1842	-310	-8320	4024	13624	-25	210	-71	-16280	-8	-368	-1040	257	-64	-14816	1656	-2216	736	1793	-537	129	120	1
-7580	-7388	7860	715	-5690	-2851	-7760	-1048	-4656	1401	-4279	347	-7272	-288	-13704	757	-1755	-471	-8984	4576	13392	-12	165	-66	-15320	-1544	-720	-726	502	-63	-14512	2296	-1176	913	1879	-456	126	125	1
-11068	-5728	10384	592	-5523	-3361	-11136	1504	-5000	1553	-4826	700	-5136	-2352	-12952	827	-1784	-542	-9032	4320	13256	-8	111	-142	-14712	-720	-1048	167	770	-62	-13232	3544	-1424	1149	2106	-361	127	121	1
-13756	-6264	11656	670	-5178	-3488	-14280	432	-5608	1573	-5215	1077	-4168	-3368	-13304	1196	-1586	-464	-9000	3800	13248	13	35	-182	-15328	768	-344	651	893	-4	-13288	3016	-456	1333	2095	-531	127	125	1
-19516	-5312	16116	666	-4928	-3272	-19136	96	-10368	1603	-5511	1443	-4448	-2488	-12928	2082	-1450	-316	-9408	3528	13120	-7	17	-175	-15768	920	-1584	535	836	45	-15808	2104	-160	1365	2288	-427	128	122	1
-24320	-4028	18340	421	-4806	-3099	-22808	2752	-11024	1347	-5753	1763	-4144	-1168	-10408	2419	-1213	-283	-8920	3688	13128	14	43	-141	-15928	624	568	55	828	9	-14144	2320	2184	1134	2416	-439	126	123	1
-28172	-8532	20460	287	-4516	-2774	-22416	4488	-9896	747	-5809	1919	-4248	1456	-8128	2188	-982	-133	-8928	4512	13064	33	42	-152	-15552	312	512	-379	920	-3	-15400	2496	2456	534	2227	-30	127	124	1
-30316	-14424	19792	500	-4371	-2629	-27480	3480	-10216	-55	-5845	1707	-5080	3728	-4336	1752	-1089	86	-9048	3760	13240	44	71	-189	-13984	376	-784	-532	1058	3	-15144	2576	-3400	106	1659	90	125	123	1
-32768	-21016	15764	654	-3924	-2790	-31824	-3280	-12848	-93	-5756	1074	-8304	8792	-1128	1380	-1342	487	-9288	2816	12976	77	174	-186	-15432	-320	-1888	-482	1221	26	-18104	3472	-7704	145	957	-312	129	123	1
-32768	-18428	10360	356	-3796	-3832	-30984	-4712	-14104	38	-5700	947	-14016	6888	3216	1290	-1522	1116	-8928	3968	13304	137	290	-191	-17152	-704	-2248	-339	1369	55	-20144	5848	-5456	453	823	-580	125	126	1
-32768	-13436	2212	157	-3581	-4687	-19688	-4128	-12248	1773	-4728	1098	-23232	10768	8440	1736	-1628	1423	-9184	4032	13376	114	454	-227	-16216	-48	-2056	-114	1455	107	-15528	3440	-2488	304	1092	-248	127	128	1
-32768	-12636	740	232	-3515	-4675	-28416	-4240	-32768	-193	-4346	306	-23216	8576	7360	2438	-2082	749	-9392	4440	13440	121	678	-256	-16768	1280	-1696	-160	1586	116	-14616	-1568	1088	784	1455	-117	112	127	1
-32768	4864	-13012	1063	-1801	-3315	-13544	-2256	-18328	2469	-2245	1057	-18232	16488	14024	1564	-1650	191	-9176	3152	14368	167	979	-260	-17520	-1592	-3128	-451	1680	81	-18152	-4432	-2320	716	1471	-112	109	129	1
-32768	14644	-26152	828	-1373	-2028	-2848	2144	-15520	1501	-1158	379	-16672	11976	23368	1193	-312	268	-9960	2784	14680	260	1473	-243	-20664	-3280	-3472	-291	1938	44	-21904	3728	-4584	500	964	-350	110	125	1
-32768	20448	-30712	-368	-202	-791	-4936	-5696	-16880	173	796	-503	-18688	8448	14520	180	694	778	-9960	4040	14728	378	2090	-211	-19976	-592	-2224	-273	2197	94	-21712	10224	-3576	415	539	-343	119	129	1
-32768	6032	-17000	-279	1015	465	-9480	-4792	-16352	487	2116	-959	-15624	5496	9152	-19	818	277	-9776	5080	14264	588	3009	-251	-19784	-400	-2352	-299	2226	83	-20192	7488	-1808	279	108	-510	130	130	1
-32548	-1948	-3880	272	1916	1094	-17680	-3872	-16360	391	3048	-1167	-13928	4632	-1880	-347	1654	-304	-14640	7496	13512	663	3624	-425	-22648	-712	-2688	-550	2508	158	-20824	4072	840	238	-62	-669	130	133	1
8468	-16104	32767	464	1900	978	-32432	5456	20576	1216	2237	-669	-456	1576	-9760	708	1687	-2020	-11112	7088	16704	645	4331	-776	-24744	-88	-344	-247	2672	268	-24064	3872	5536	182	-459	-670	132	130	1
14308	-7300	17720	-2441	2970	2587	-32768	19736	13376	2599	1342	-468	-22784	3264	-3552	-1699	1633	-953	-10960	9872	16928	233	5463	-1051	-28872	440	3032	84	2843	343	-29936	4888	14176	-251	-1569	-524	140	138	1
-32768	-1668	3356	-1756	3712	1654	-7168	-2128	-19856	-1645	2624	-1009	-31304	1288	-320	-1089	618	-672	-11848	12392	18000	352	7020	-1734	-32768	-2920	10104	502	2843	763	-32768	1584	25800	-1229	-3704	-587	137	131	1
-32768	-4248	5572	-1764	3813	1479	-24032	8784	1224	-2916	2775	-1315	-16888	2232	-1552	1194	-244	-1092	-8392	11312	17408	1052	9131	-2728	-32768	-6648	15008	1503	2834	1159	-17288	-8936	4928	-331	-2511	-1218	120	122	1
-20120	-16768	7160	-974	2925	1015	-20856	-6304	-8664	-988	2341	-1329	-12528	8824	544	-323	762	-654	-23888	9120	17632	2507	10412	-3243	-26224	-1152	184	1936	2836	1130	-20328	-4696	6560	1947	-1853	-518	122	119	1
-22516	-7644	13696	627	1084	1084	-19536	-4896	-12072	741	2180	-885	-12024	-3568	-16184	-1671	950	-653	-32768	-1400	2584	2988	8957	-4438	-22008	2680	-7304	3653	3083	688	-26904	12200	-22672	4653	-423	257	126	120	1
-14036	-8124	12480	817	774	986	-16896	-5688	-9704	1126	1796	-628	-12896	-8432	-12840	-1312	792	-350	-32768	17568	11648	3360	4559	-4467	-29408	2248	-14080	3106	3536	619	-29784	15352	-19248	2525	-1192	1085	121	118	1
-11588	-6544	12312	1040	351	607	-14808	-4880	-8664	2032	1316	-548	-10544	-10024	-10320	596	855	-212	-30320	18672	30768	3478	4206	-935	-23816	5576	-11536	2612	2324	351	-31000	-3096	-11104	-1068	-2374	1165	124	125	1
-12496	-6120	14252	969	248	620	-18168	1504	-5912	957	987	-250	-16440	-864	-11800	1421	1444	-457	-32768	32767	32767	-377	1954	-570	-6712	9176	-15920	1051	806	72	-23472	-3520	-13592	-1817	-2740	781	128	132	1
-9488	-6308	11936	155	122	391	-19576	1840	-4544	-446	800	-384	-18464	384	-11520	965	1371	-319	-19192	27600	28800	-2282	-2956	1368	-6296	3768	-3976	392	-71	156	-22936	-3112	-10016	-963	-3142	880	135	131	1
-10348	-7076	10884	-13	228	343	-18032	-568	-5872	-1371	652	-438	-14848	1480	-9896	81	1610	-295	-5552	2856	14520	-2599	-4542	1949	-8096	5160	2240	162	-618	246	-21264	-264	-12000	-206	-2434	1013	136	136	1
-10728	-6264	11028	35	279	315	-17848	-1856	-5936	-1537	537	-439	-14320	1560	-8216	-631	1737	-447	3520	120	7968	-1232	-4787	2120	-6992	3352	-1216	-545	-1927	443	-17456	-1720	-13688	-158	-1963	1477	143	137	1
-11344	-5916	12064	-179	356	205	-18912	-3776	-5192	-1109	453	-446	-15840	-760	-7056	-805	1930	-442	-2880	3352	7832	-455	-4726	1901	-4784	3984	-3512	-917	-2574	639	-14712	-3088	-13144	-15	-2109	1372	138	136	1
-10332	-5768	11260	-261	397	79	-17152	-2648	-2944	-353	325	-318	-16296	-792	-5640	-658	1857	-215	-9408	5152	9400	-409	-5035	1825	-4232	2560	-5056	-2015	-3383	813	-11272	-3544	-12424	190	-1954	1343	137	131	1
-10380	-5564	10664	-302	432	29	-15648	-1256	-2696	39	212	-67	-13928	416	-3080	-546	1842	-99	-8056	3984	9192	-589	-5541	1981	-2832	-912	-4200	-2800	-4198	728	-8352	-3960	-12216	217	-1720	1391	130	132	1
-10044	-7104	10100	-314	417	84	-16800	24	-1080	-242	179	7	-12776	2560	-2288	-779	2205	-120	-7240	2832	8672	-589	-5425	2257	-2952	-1688	-3560	-2820	-4298	689	-6104	-2888	-12840	10	-1473	1447	128	129	1
-9880	-6432	9532	-397	357	201	-13624	4152	10000	-662	789	-229	-10120	1080	-2360	-1314	2216	91	-11848	2464	12608	-626	-5256	2417	-10048	-4216	-4648	-1505	-5153	-1	-6392	-1976	-13728	-411	-1146	1228	119	127	1
-9996	-6856	10468	-288	362	272	-14880	-368	-328	-1339	326	-215	-12824	-40	1216	-787	1977	-696	-18392	1160	17872	-603	-5343	2567	-13936	-4232	-7752	-1132	-5588	-487	-4720	-1456	-11904	-757	-849	1146	115	120	1
-11340	-5996	9332	-168	73	257	-15456	-3144	-1496	-1264	634	-541	-16952	-2128	-1520	-397	1771	-939	-27848	-200	22280	-543	-5873	2549	-18888	-7640	-8856	-306	-6080	-775	-3880	-3688	-11512	-1343	-657	716	117	120	1
-10856	-6532	9188	-27	-13	291	-14664	-2968	344	-607	650	-307	-16400	-4288	-1632	-404	1707	-294	-31472	-3672	20056	-145	-6446	2373	-19176	-8040	-9008	1244	-6113	-797	-1424	-3496	-10008	-1104	-520	329	121	124	1
-10268	-7244	9396	108	-144	359	-14104	-2664	1536	-309	811	-157	-20344	-3616	-4464	-960	1301	4	-31664	664	19264	157	-6360	1995	-22160	-2152	-9160	2221	-6103	-519	-1128	-1304	-9792	-488	-156	420	122	125	1
-10464	-7172	9360	286	-295	501	-12816	-2040	-792	-102	1046	-133	-17008	-2136	-1840	-427	841	110	-32768	6592	23024	-136	-6015	1388	-30040	1120	-9152	1702	-6263	-150	-4712	240	-4696	-443	100	697	123	125	1
-11328	-4116	10484	230	-131	454	-15792	-64	-4128	120	1194	-70	-13240	1336	-1376	-89	1618	-30	-32768	7488	23176	-194	-6000	1299	-32520	16	-11168	524	-6324	107	-11984	4408	2456	-1072	-775	582	123	122	1
-10936	-5172	10796	45	95	313	-21752	3280	-2576	-606	1367	-102	-16136	6648	-3888	-383	2462	-148	-32768	4568	16384	378	-5860	1631	-31688	-1976	-12640	-296	-5783	-141	-23312	7920	5624	-1683	-1721	496	120	126	1
-10644	-5272	11004	-98	368	220	-17896	1176	456	-955	1524	-248	-19744	3888	-1952	-823	2117	-289	-32768	9000	728	-54	-5067	2447	-26848	768	-20408	-1218	-4908	-457	-32768	7184	17296	-2873	-2925	915	120	126	1
-10684	-4416	11836	-237	688	58	-16144	760	1400	-349	1771	-134	-23128	2520	1176	-556	1375	-280	-32768	296	-27816	-1131	-3038	1980	-15248	-4448	-18784	-2667	-3669	-567	-21952	-9432	22776	-2903	-1966	993	115	115	1
-10648	-5620	12296	-427	1182	-111	-19840	1744	-1720	602	2015	30	-20760	7304	-2632	-443	1058	-262	-32768	-7336	-32768	547	-1272	2307	368	-504	-24088	-1280	-1139	127	-11456	-8568	32767	419	-115	237	109	111	1
-10640	-5924	12796	-492	1976	-41	-21240	2104	-3296	944	2174	-33	-20160	3376	-4856	-243	896	108	-32768	-688	-32768	93	285	1526	-3856	8984	-23000	-191	1234	416	-14920	-1824	25416	776	531	-650	109	113	1
-11228	-7456	12200	-649	2849	190	-22640	-192	-2904	726	2363	-90	-21328	-4472	-1376	53	859	403	-32768	-944	-23824	-790	1672	794	-10600	5296	-20512	-799	2794	579	-17192	3504	9216	156	1430	-551	113	118	1
-12240	-7784	11672	-918	3792	292	-22152	-2016	-440	672	2552	-174	-21848	-5592	-1008	91	785	453	-6320	13464	26280	-2871	1643	372	-11728	3760	-19992	-865	2969	591	-12784	1544	-10144	609	3182	307	110	110	1
-16300	-10952	11200	-2001	4863	614	-22728	32	560	433	2776	-270	-24952	-4112	5592	522	-647	701	32767	-20736	32767	1347	2542	-1436	-32768	-2848	29608	-1516	1196	734	-9016	1896	-10960	637	2989	1021	113	114	1
-13628	-11564	11636	-2297	5564	1184	-29240	944	3552	-24	2943	-352	-29736	448	13256	778	-1873	713	-32768	-22376	2752	1640	3182	-3337	-3072	-14144	-30824	-3485	1803	1083	-32768	20176	10112	-407	-584	80	113	110	1
-11576	-14492	8328	-2939	6439	1903	-32768	7800	5992	-675	2993	-805	-32272	13352	20168	2035	-3794	840	-13648	32767	19856	506	3389	-688	-19496	-11872	4360	-41	2402	-352	-24792	9016	536	-2892	-451	233	115	113	1
-14304	-21492	12252	-2844	7407	3052	-32768	8912	9352	-2582	2910	-1362	-12896	26552	3680	1547	-2006	1906	-24544	11656	12824	-540	4511	-594	-31312	12776	-9664	1479	3180	739	-11312	-20096	2032	-1566	336	-1152	113	108	1
-21064	-15148	9476	-1797	7487	4670	-21216	-1272	-1688	-2961	3133	-1194	-14648	7944	-704	-3203	-1002	654	-25144	10456	22344	-1203	2166	-1426	-14544	3000	-8464	-704	2324	702	-16520	-144	-8536	75	867	465	117	114	1
-32768	-10060	10664	-2313	6112	4020	-20912	-11904	-5152	-2525	3234	-631	-29168	-11640	-17008	-4734	328	-158	-13024	1392	19824	-532	263	-983	-17344	1688	-6824	-857	2101	572	-9184	3968	-13128	1208	677	263	124	127	1
-32768	-29308	6344	-3232	4126	3149	-30176	-9216	-22520	-1859	3199	-411	-32768	-13024	-17456	-4077	-1302	-842	-18352	4200	16192	-352	76	-925	-15296	1992	-9976	-1190	1772	476	-11888	2752	-11000	701	828	-27	130	124	1
-16324	-24212	24872	-3782	2649	1511	-27936	-7640	-22520	-1739	3164	-462	-24424	6592	-16720	-1110	-2436	-787	-13512	2064	14048	-80	-40	-532	-18600	-6192	-8760	-958	1369	245	-17456	3048	-12672	883	1519	237	129	120	1
-32768	-32768	25348	-858	-844	457	-12624	-7688	-13416	-248	720	-35	-23800	1008	-15160	287	-2726	-463	-8832	3200	14544	-312	120	-52	-18880	-1520	-5472	543	1351	229	-17272	5840	-10952	655	1436	11	127	119	1
-8776	-29660	22712	1572	-4443	-696	-9104	-9200	416	-409	-323	-235	-22048	-1864	-12736	281	-2457	-297	-10328	4632	13616	-160	162	-85	-17952	1808	-6696	913	1134	176	-15800	5856	-8072	512	1545	-283	131	125	1
2928	-10184	11800	2055	-5071	-356	-8712	-6376	352	208	-1256	-340	-20688	-1464	-15456	262	-1884	-238	-10272	4368	13592	81	188	-88	-18368	1272	-5648	1368	835	255	-15280	3264	-5792	678	1770	-361	134	127	1
2628	-4320	7020	1187	-5001	-745	-6888	-4064	-2176	1320	-1995	-171	-15760	920	-15880	255	-2008	-516	-9736	3968	13408	150	200	-64	-16840	3136	-2976	903	630	316	-15448	2232	-3336	770	1713	-399	128	125	1
-2452	-8688	7456	638	-5139	-1152	-5136	-704	-3752	1441	-2769	-55	-15104	1072	-15216	254	-2017	-536	-9096	3624	13048	146	251	41	-15912	2584	-1432	-9	434	144	-15016	3328	-1352	857	1659	-450	129	126	1
-6964	-11044	7992	443	-5526	-1668	-4752	-528	-5200	1492	-3463	157	-9520	1288	-13992	439	-1805	-473	-8240	4672	13616	101	277	14	-16216	1120	376	-377	491	-81	-14848	3968	-1848	838	1688	-416	133	129	1
-5008	-8220	7024	530	-5608	-2352	-6632	-8	-4032	1339	-4110	359	-7552	272	-13632	515	-1904	-579	-8320	5528	13200	74	241	-194	-16048	824	-928	-143	604	-87	-16392	3576	-3384	1009	1800	-354	125	128	1
-7240	-6876	7496	504	-5247	-2834	-9672	2152	-2656	1125	-4566	623	-4928	-2248	-13504	522	-1915	-695	-9784	4120	12664	31	133	-219	-15168	-1080	-4008	500	712	37	-12920	1592	-5272	1320	1969	-475	127	128	1
-11760	-7940	9804	531	-5031	-3106	-10384	2104	-3232	1030	-4604	664	-3648	-3192	-13392	852	-1826	-639	-9848	3752	12608	52	46	-238	-15840	-656	-3952	932	722	47	-12144	2224	-6096	1753	2128	-469	130	122	1
-16056	-6228	12468	369	-4873	-3113	-15536	432	-6968	707	-5264	969	-3296	-2288	-13416	1567	-1643	-490	-9848	3488	12736	26	30	-224	-15976	784	-3568	780	613	14	-13720	1256	-3984	1806	2550	-272	131	124	1
-17088	-5816	12588	314	-4814	-3134	-18856	-1408	-9432	1043	-5558	1190	-3424	-736	-11888	2227	-1383	-395	-9744	3704	12664	-46	44	-157	-15288	1776	-2984	384	537	-1	-13128	1544	-1984	1359	2797	-308	127	125	1
-24816	-8628	17620	-257	-4221	-3134	-22216	1056	-11048	1157	-5717	1360	-3328	1632	-9528	1868	-1021	-285	-9184	3720	12856	-43	95	-108	-16464	1136	256	-72	580	-64	-12560	3248	1304	476	2464	-234	127	124	1
-30632	-16200	21596	-60	-4285	-3249	-25040	1864	-12168	688	-5811	1466	-4128	2816	-4928	1365	-1092	27	-9600	3704	12696	-62	105	-145	-13424	760	608	-462	713	12	-16552	5592	-2288	-237	1481	-122	126	127	1
-29788	-20600	19268	65	-4051	-3846	-31544	872	-13088	363	-5937	1336	-6104	2704	-1528	1112	-1262	222	-9808	3464	12880	-5	92	-145	-11840	-1312	-392	-498	911	49	-20728	4832	-4888	7	586	-506	128	132	1
-32768	-26024	14988	600	-3749	-4798	-26536	-4288	-15152	1255	-5825	880	-10136	3016	-1816	1036	-777	612	-9568	4112	12744	38	133	-163	-16544	-728	-1648	-182	1179	86	-18968	3400	-2104	306	858	-363	128	129	1
-32768	-15944	10128	1238	-3394	-5202	-22616	-5264	-11104	1474	-5251	1241	-22440	3592	3608	1682	-1057	721	-9304	4424	13472	56	253	-208	-17856	-408	-1272	75	1339	165	-17360	848	-520	652	1406	-114	127	129	1
-32768	-6808	-232	1481	-3172	-4433	-32768	-6728	-19120	-296	-5988	1727	-29032	14568	10584	1312	-2035	1290	-8952	4176	13776	114	474	-282	-17080	288	-744	-118	1459	190	-17072	-1360	1320	942	1670	-58	122	129	1
-32768	8232	-13684	872	-2836	-3121	-14056	-3808	-11424	1952	-4378	1180	-26808	16432	7672	2580	-1545	482	-9168	3184	14264	229	828	-304	-17872	-2248	-1296	-477	1586	174	-19656	16	-1384	919	1395	-45	102	128	1
-32768	10384	-25264	-301	-2349	-1841	-1752	-11712	-21528	655	-1574	119	-11480	17720	22992	852	-1815	391	-10344	2832	14064	274	1406	-177	-18144	-2208	-2400	-402	1912	147	-19864	4392	-2528	469	887	-156	103	121	1
-32768	14256	-32768	-400	-952	-596	-5976	-3872	-19576	629	288	-355	-16088	8296	21704	553	-420	725	-10128	3584	14664	346	1978	-61	-19496	1288	-2408	-465	2138	69	-18872	8824	-4352	547	705	-182	112	123	1
-32768	7724	-28576	166	1090	-38	-6528	-3224	-16848	809	1849	-652	-17520	3616	14008	609	1070	578	-10120	5064	14056	573	2761	-79	-21448	2112	-3248	-663	2284	65	-20144	9648	-5080	327	373	-441	119	121	1
-32768	-376	-11544	943	2038	630	-16168	-6704	-15760	699	3183	-1011	-14576	4920	4136	620	1908	-9	-12384	5440	14360	803	3206	-362	-21720	-216	-3248	-573	2390	199	-19872	6976	-3472	293	187	-637	125	123	1
-26476	-18876	7760	1310	3819	830	-23064	-3928	-2096	1593	3297	-1092	-9816	2432	-3640	531	2116	-1595	-10864	6872	15936	1010	4030	-466	-21744	-672	-3056	-538	2401	217	-21688	4552	1536	251	-213	-648	129	129	1
32767	-10684	32767	730	2953	862	-32768	19864	32767	3235	1171	142	-1328	2768	-15216	-603	1641	-998	-8176	5888	17256	628	4872	-443	-25680	16	1528	132	2749	354	-26264	3024	8712	-24	-1036	-580	137	128	1
-17688	18676	13236	-622	3559	2803	-16336	9896	-16296	1119	2318	-961	-32768	-432	8888	-1004	1270	-860	-12888	12112	15144	893	6151	-872	-29480	-904	3768	270	2854	512	-30480	1768	20392	-325	-2457	-494	131	129	1
-31708	-12024	11164	-755	2895	1643	-9952	11856	-6136	-1249	2233	-637	-28624	-832	-12504	1400	-574	-388	-11248	12624	17744	1328	7863	-1627	-32768	-5632	11040	887	2813	964	-32768	-4224	23336	-1670	-3929	-834	118	121	1
-16420	-21192	2452	-912	3018	1266	-29232	-13664	-15176	-3918	2718	-1927	-4640	13696	2048	1977	350	-636	-18576	5368	13064	2764	9991	-2546	-32768	-10280	12448	1979	2705	1163	-12064	-13824	3992	1549	-1883	-1016	110	120	1
-32768	-24756	24268	672	1770	1501	-13120	-8296	-14224	415	2094	-882	-19728	9592	-13240	-843	1280	-966	-17928	4232	11408	3122	10261	-2582	-22792	432	-6440	3201	2962	970	-23688	6128	-4448	3792	-1342	-127	126	120	1
-10300	-9084	12768	761	1178	995	-20560	1032	-6048	1308	1822	-569	-9576	-8640	-13936	-2647	896	-463	-32768	20336	10344	4140	6258	-3702	-25120	3920	-8584	3931	3469	580	-28944	12504	-26072	3976	-572	729	124	119	1
-16436	-8700	10184	1046	401	798	-15816	-7944	-11648	1313	1533	-765	-12024	-12216	-9504	-300	885	-266	-32768	20528	23344	3745	4210	-3915	-29480	10008	-14072	3731	2807	812	-31632	6400	-9336	159	-2388	1408	121	123	1
-11400	-4552	12076	527	125	498	-16128	1464	-5296	1155	1205	-493	-13376	-1696	-9280	1369	1355	-327	-21480	23136	32767	3086	1808	-1003	-14944	9704	-14464	1511	1902	306	-28384	-3896	-11432	-1153	-2660	843	124	129	1
-10096	-7248	11360	263	216	396	-20784	1352	-4704	-662	1064	-371	-20568	504	-13816	807	1471	-554	-24192	32767	32767	46	-3411	116	-10904	5928	-10560	260	596	156	-24296	-2216	-10080	-1315	-3201	842	132	130	1
-11292	-7656	10668	18	276	383	-16688	-1256	-6376	-1579	822	-593	-15152	-992	-10912	-138	1424	-411	-3048	13384	18416	-2156	-4802	803	-8320	0	6096	643	-605	253	-24040	-2576	-12112	-161	-2808	848	133	135	1
-11716	-5864	10628	-44	303	293	-17984	-5920	-8224	-1288	716	-612	-13688	-1440	-9552	-597	1592	-468	6088	2920	9016	-1182	-4736	1418	-7768	2512	2160	274	-1486	564	-18840	176	-12928	85	-2286	1319	140	134	1
-11208	-6584	10724	-86	340	147	-18264	-6240	-6088	-331	561	-310	-14808	-2488	-9072	-538	1816	-260	-1200	4672	10720	-382	-4435	1744	-5208	3760	-2184	-9	-2531	617	-15448	-2648	-12984	118	-2207	1348	138	137	1
-10644	-6272	10436	-139	378	125	-16640	-1560	-4040	232	246	-20	-16016	-1920	-7928	-325	1953	-153	-8240	7936	12080	-358	-4918	1904	-4568	3704	-5104	-1042	-3269	856	-12304	-3248	-12688	260	-2051	1315	139	137	1
-10600	-6036	10576	-244	401	71	-17144	1112	-4248	-87	168	-25	-14640	32	-6384	-98	1982	-147	-8480	6384	11088	-700	-5464	2087	-4952	1816	-3520	-2109	-4057	803	-9888	-2280	-12792	321	-1794	1389	128	133	1
-10376	-5664	10660	-336	424	61	-16152	1656	-2512	-539	119	-88	-13760	3816	-2968	-202	2114	-145	-8216	3800	10664	-771	-5554	2279	-6672	-2616	-3320	-2166	-4738	522	-6824	-1512	-13464	168	-1484	1377	124	130	1
-10296	-5916	10096	-404	414	61	-16040	1128	-1520	-1075	177	-180	-13288	4360	-1312	-890	2610	-195	-12464	1656	13384	-634	-5505	2450	-10248	-3480	-4944	-1503	-5306	143	-5632	-576	-14128	-222	-1220	1253	119	126	1
-10612	-7392	10196	-350	408	169	-18952	-1232	-9624	-2013	579	-479	-12288	168	536	-719	2553	-395	-21552	16	19504	-511	-5751	2531	-14704	-3544	-6728	-1068	-5936	-420	-5536	-640	-12504	-1014	-974	1140	116	121	1
-10544	-6876	9184	-273	243	257	-14704	-2600	-944	-1167	544	-291	-14928	-360	1040	-347	1961	-738	-29320	-1568	19360	-164	-6513	2551	-18056	-10632	-9664	-462	-6208	-495	-4632	-4304	-13256	-1615	-801	831	116	119	1
-10856	-7256	8784	-81	60	323	-15160	-3712	-384	-1030	743	-310	-15232	-3592	-1600	-285	2013	-565	-29256	688	16568	136	-6649	2383	-18192	-6672	-8552	1259	-5992	-459	-2616	-5976	-12672	-1391	-576	479	122	121	1
-10916	-7416	8768	85	-98	403	-12864	-3536	328	-696	865	-193	-23680	-4080	-11328	-1352	1569	155	-31576	4960	19968	-241	-6244	2034	-22272	0	-10592	1361	-6297	-162	-1032	-4224	-9336	-641	-299	515	121	124	1
-10924	-7196	8996	237	-214	509	-13912	-1920	-224	-2	871	-27	-17496	-48	-2640	-675	895	167	-32536	5232	20888	-326	-6185	1989	-31360	-3064	-9896	720	-6454	-230	-4320	-952	-256	-506	-369	480	121	122	1
-10924	-6716	9036	303	-248	605	-15920	-552	-1360	-295	1029	-124	-11720	1920	3184	-164	1428	-154	-32768	3200	21984	-322	-5853	2057	-29672	-3752	-9240	13	-6369	-127	-8664	6088	3080	-1102	-1164	383	119	120	1
-11128	-5432	9636	293	-132	522	-16336	-600	-144	-496	1390	-288	-14880	2056	1928	-506	1812	-471	-32768	6624	16384	-572	-5870	2304	-31752	1920	-17312	-447	-5588	-292	-19248	10240	3392	-2032	-1669	758	118	122	1
-10660	-4400	10896	179	135	458	-15656	408	-296	253	1533	-79	-18088	2912	2328	-634	1558	-463	-32768	5032	-5288	-1272	-5021	2765	-25432	976	-20984	-2444	-4712	-695	-32768	7088	12864	-3481	-2277	1272	118	123	1
-10268	-5324	12152	-5	593	356	-19904	4800	624	414	1840	-91	-24424	5336	-1424	-739	1524	-430	-32768	976	-28368	-1810	-2592	1839	-13736	-4240	-21112	-3922	-3748	-887	-21496	-9360	19808	-3494	-1687	653	113	117	1
-10828	-5072	12904	-70	1131	330	-19712	2368	-1776	640	2128	-308	-23576	5072	-7536	-429	1116	-153	-32768	-3928	-32768	318	-1188	2340	-2224	-1184	-27624	-1645	-1150	-95	-6208	-15904	32767	-812	-429	-452	108	110	1
-11540	-4004	12672	-270	2002	239	-22664	2576	-3448	776	2284	-242	-17824	3912	-2280	98	961	-71	-32768	-1416	-32768	-390	-125	1607	-7160	8672	-20208	-147	1214	285	-15600	-3712	24216	498	612	-795	109	112	1
-11320	-6248	12408	-434	3055	171	-23088	-1368	-3104	806	2512	-218	-21416	-5464	-888	31	708	265	-32768	-1640	-21856	-943	1686	351	-11736	6496	-20416	-185	2789	602	-21536	5464	6112	302	1466	-647	111	113	1
-13024	-7888	11904	-720	4118	366	-23104	-1288	-1032	836	2632	-261	-25240	-6096	1136	116	-44	414	-11480	12136	23312	-1808	1236	-4	-23640	-1416	6656	163	2802	434	-11656	408	-5712	601	3530	400	108	107	1
-13552	-9800	13684	-1608	4970	847	-24984	504	2224	314	2842	-467	-26728	-3104	6352	491	-989	640	32767	-9968	32767	1775	2724	-936	-32768	-7600	32767	-505	1094	345	-7648	-3400	-11144	1066	2870	998	110	110	1
-12344	-10888	12264	-2254	5779	1289	-30448	744	4824	-418	3154	-666	-30600	88	14848	816	-2079	719	-32768	-13688	7232	1627	3798	-2781	-5256	-7792	-30032	-2776	2040	1224	-32768	19688	9976	305	-53	132	115	107	1
-15064	-18000	10176	-2378	6724	2251	-32768	5608	6056	-1088	3036	-1074	-32768	14120	25440	2278	-4279	898	-15976	16872	22288	486	3726	-761	-17736	-9856	3264	-176	2329	-387	-18160	8424	6624	-1978	-481	12	113	112	1
-14656	-22620	14640	-2504	8237	3624	-32768	8968	11312	-2816	2708	-1658	-10088	32767	-6152	-136	-567	2151	-25440	16880	12680	-41	3984	-399	-30056	10744	-8464	914	3062	758	-15432	-19976	2232	-1600	696	-856	112	109	1
-14296	-20124	12936	-2402	8559	3921	-21288	104	-7792	-3277	2864	-1270	-16512	9336	-5008	-3477	-535	304	-21816	7032	23024	-829	2051	-1160	-14104	288	-7008	-959	2249	683	-15760	-1208	-9232	559	752	386	119	118	1
-32768	-14188	8376	-4143	5659	3084	-18744	-6576	-11384	-3138	3543	-603	-32768	-14672	-19104	-5938	212	-237	-12656	5064	17448	-363	721	-993	-16800	4240	-7360	-524	2113	630	-5760	7072	-13176	1669	871	258	126	132	1
-32768	-32768	19292	-4605	3539	2326	-32768	-11760	-18320	-3384	3153	-524	-32768	-13000	-19432	-4602	-1908	-1270	-16312	288	15328	-208	-570	-1178	-16200	5360	-7696	-538	2068	628	-12600	5672	-11216	643	1015	92	133	129	1
-192	-23028	30144	-2291	917	1455	-20736	-3664	-11248	-1607	1912	-431	-22632	11264	-21352	-782	-2461	-884	-12320	4488	13176	-15	-274	-581	-19816	-6440	-7104	-568	1339	336	-18856	5008	-14728	496	1590	224	131	124	1
-21104	-32768	32352	101	-3542	-182	-10600	-9664	-4624	-634	532	-577	-22688	-1512	-12928	-105	-2900	-565	-10712	3064	13792	-166	-78	-184	-17264	104	-7360	336	1319	258	-16160	6216	-12264	206	1596	-183	131	118	1
5160	-19120	14996	1814	-4613	-239	-5736	-5504	2488	209	-877	-182	-21392	-224	-16000	295	-2090	-345	-9168	4312	13672	-110	8	-107	-18656	1432	-6152	719	1064	98	-15112	4736	-10096	282	1802	-299	133	129	1
3768	-8604	10868	1418	-4450	-548	-6280	-3416	-640	985	-1654	-221	-18224	2080	-17400	243	-1896	-619	-9080	4480	13944	-17	119	-178	-18520	3824	-3544	327	820	297	-14768	4384	-6488	346	1919	-346	135	129	1
-700	-9996	9608	532	-4933	-1678	-5904	384	-3928	1435	-2451	-305	-12944	1384	-15328	261	-2148	-705	-10024	2704	13600	27	254	-137	-16816	1736	-4064	-1040	486	200	-16104	1544	-3456	93	1914	-568	131	124	1
-2132	-10456	8736	368	-5110	-2495	-6112	1072	-2936	1496	-3273	-187	-9480	1600	-13808	356	-2134	-575	-9432	2664	13744	33	259	-105	-15920	-2208	-2048	-1386	362	-60	-15504	-992	-1208	-41	1890	-731	131	117	1
-4508	-9336	8816	808	-4932	-2941	-7648	-800	-3304	1522	-3993	109	-8848	1128	-13816	513	-2035	-590	-9072	4464	13208	9	363	-66	-15744	-2208	-296	-546	626	11	-13408	328	-600	490	1802	-534	125	128	1
-8800	-6044	10180	1174	-4879	-3335	-7680	1016	-5416	1650	-4506	365	-6192	-656	-14144	557	-1935	-681	-9072	4136	13216	-3	297	-83	-14704	1208	-1432	226	795	89	-13016	2760	-928	951	1945	-453	123	124	1
-11500	-2332	11700	1008	-4939	-3515	-10648	1968	-5624	1493	-4982	729	-4024	-1608	-13800	674	-1823	-672	-9432	3816	13152	36	231	-170	-16528	256	-1408	453	758	137	-14864	2288	-1120	1276	2364	-589	124	124	1
-17496	-4612	17340	664	-5035	-3627	-14168	-192	-8296	1561	-5448	1079	-3328	-2064	-13568	1148	-1621	-588	-9760	3144	12920	56	178	-199	-16128	-920	-2320	437	783	127	-16000	1056	-1760	1291	2486	-460	124	123	1
-24384	-7096	21696	659	-5436	-3481	-21160	2040	-10144	1552	-5861	1534	-3384	-1264	-12944	2054	-1333	-355	-9672	2344	13280	25	170	-124	-15232	-952	-2576	311	905	171	-13960	1744	-2640	1208	2830	-253	127	126	1
-26400	-4848	20300	505	-5687	-3184	-21256	5632	-10008	841	-6091	1693	-3520	736	-10512	2262	-1109	-222	-9720	3208	12888	28	213	-68	-15208	24	-2192	8	843	96	-14944	1920	-5728	621	2296	-205	127	123	1
-26520	-7316	19488	238	-5217	-2978	-23224	6168	-9440	-117	-6222	1796	-2992	2704	-9008	1907	-956	-45	-9472	3432	13280	54	216	-61	-14584	712	-1840	-153	914	117	-13608	728	-4608	25	1429	-112	129	126	1
-27564	-8544	19188	234	-5082	-2930	-27952	2824	-10712	-702	-6272	1464	-3208	4304	-6744	1243	-820	0	-9776	3560	12664	72	234	-85	-15672	120	-4112	-311	942	95	-13144	1920	-4752	-2	1322	-122	129	125	1
-32768	-14040	17464	-16	-4173	-2799	-28632	-2552	-12488	-308	-6043	899	-6400	5704	-472	532	-1222	386	-9648	2792	12536	64	343	-118	-17488	-8	-4456	-26	1003	102	-14864	2016	-6992	665	1572	-339	125	126	1
-32768	-14680	12908	-566	-4172	-3510	-27872	-5712	-13656	87	-5433	673	-13312	3592	6280	821	-1566	915	-9784	3304	13216	64	448	-142	-17088	-504	-2880	287	1065	182	-19288	2192	-7264	866	1303	-312	125	126	1
-32768	-13476	2380	-237	-4041	-3802	-25560	-6784	-17176	914	-4602	657	-32296	8040	16768	1651	-2473	1316	-10088	4040	13080	104	525	-139	-14768	-1232	-240	606	1248	212	-18320	3336	-808	713	1028	-20	124	123	1
-32768	-1752	-14932	139	-3034	-2951	-24112	-392	-32768	40	-3829	344	-31688	9904	-1696	2561	-1392	520	-9896	3280	13696	165	738	-192	-16112	-120	-696	324	1425	179	-17320	-3744	3808	496	1028	105	104	122	1
-32768	10060	-27104	348	-1691	-2355	-7056	-2224	-23072	2503	-2090	728	-14088	17464	19400	995	-2041	344	-9760	2736	14024	209	1185	-148	-18776	-2040	-1480	15	1673	127	-20760	-408	-1640	991	1320	-60	94	120	1
-32768	16028	-32768	446	-42	-1684	472	-8544	-22496	1403	63	245	-12416	8872	22136	268	-126	778	-9744	3224	14480	303	1812	-86	-20368	-440	-2248	-130	1942	77	-21504	9952	-5888	915	1101	-120	104	122	1
-32768	15544	-32548	487	1109	-515	-5104	-6728	-20408	656	1879	-694	-17456	3536	14232	347	900	869	-9824	4776	14408	434	2593	-97	-22176	248	-2480	-217	2162	61	-21896	10376	-5560	570	625	-216	120	127	1
-32768	6732	-19956	252	3237	1213	-14496	-8816	-13696	766	2991	-1074	-14144	2984	2944	696	1448	362	-15584	5816	13328	582	3120	-242	-21472	304	-1952	-385	2289	79	-20576	6832	-2960	345	156	-518	127	128	1
24840	-356	32767	279	3735	1217	-32768	9016	32767	3368	1959	-254	-16336	3176	-10568	549	3129	-786	-11808	6664	15464	612	3881	-370	-23888	128	-528	-223	2409	65	-22984	7256	-184	289	13	-636	129	131	1
-25328	2496	23024	-591	3566	3262	-28648	13504	-7256	3863	1742	-896	-30200	8040	6856	390	1545	-1367	-11304	8008	15712	518	4800	-586	-27048	-112	2328	-115	2579	133	-27768	6136	4616	64	-474	-471	129	129	1
-32768	-416	2920	-787	3578	1588	-3040	13336	-14800	106	2613	-841	-20432	-536	2528	974	-326	-379	-12000	10360	16416	451	5974	-1009	-27440	-408	7672	145	2746	399	-30504	5288	13968	121	-1735	-444	137	126	1
-24128	-15656	23256	-996	2763	1343	-26128	5232	-4728	-1995	2451	-1401	-16160	3056	-12072	926	433	-704	-10776	14128	15312	653	7526	-1838	-32640	-3680	8560	655	2815	703	-32768	1808	22880	-352	-3542	-432	118	119	1
-12468	-9640	5872	-661	2884	1052	-22472	-2144	-8400	-1958	3474	-1539	-4312	10896	-5424	324	1072	-708	-16696	7928	14952	1850	9211	-2891	-32768	-9056	8912	1399	2616	1084	-26200	-9640	15352	-2141	-3463	-805	113	113	1
-19284	-11352	9760	1111	1064	1502	-15576	-14160	-12616	1233	1826	-732	-13744	-2544	-15832	-1621	1377	-1269	-32768	3504	6416	3651	9205	-2305	-23424	-2744	-1224	2832	3118	956	-9808	-7216	1016	2143	-1787	-278	122	116	1
-19968	-4908	16984	980	128	1343	-18528	-4528	-10480	2443	1735	-434	-10984	-14168	-11032	-2075	1026	-240	-32768	16112	11640	3154	5858	-4422	-28128	4112	-10424	4170	3569	635	-31032	7672	-24328	3465	-397	485	118	120	1
-13480	-3092	12340	866	-108	692	-16584	3464	-8200	1642	1383	-508	-14856	-8016	-12328	1457	1213	-174	-32768	21232	20656	4286	3981	-3481	-29976	7504	-8168	3604	3128	968	-31648	8760	-11744	1070	-1988	1132	115	120	1
-10732	-6472	11072	317	10	332	-19552	1496	-3840	-87	1139	-527	-17352	7056	-11448	1480	1374	-918	-22568	29744	32767	2303	2392	-1564	-18224	10448	-14624	2095	2349	488	-29608	-3272	-10496	-895	-2764	908	121	128	1
-11068	-6904	10524	50	86	308	-18344	424	-4416	-898	934	-636	-17184	1400	-9504	154	1490	-601	-22040	32767	32767	-52	-2564	255	-12560	4656	-7768	161	965	369	-23408	-5024	-8928	-1087	-3080	895	129	133	1
-10264	-5688	11276	18	132	309	-16752	-784	-4472	-1457	819	-693	-13528	384	-6336	-195	1736	-376	1400	14624	21568	-1764	-3658	1219	-11480	-440	7960	23	-353	375	-24528	-3416	-9952	-324	-3071	1038	138	132	1
-10848	-5056	11168	-17	303	135	-18768	-7448	-6568	-336	731	-314	-13368	560	-6704	-363	1898	-235	8088	4904	14304	-683	-3296	1994	-9112	-160	4592	-161	-1245	761	-21288	-1360	-12720	247	-2321	1228	138	132	1
-10412	-6404	10820	-1	364	90	-17640	-3000	-4088	915	609	-143	-15608	-1408	-7208	-549	2182	-86	-4560	7504	18064	-228	-3433	2247	-6352	2744	-2648	-107	-2093	916	-15832	-3696	-12128	275	-2306	1380	139	135	1
-10264	-5684	11056	-3	376	164	-17208	2904	-1984	141	378	85	-16696	-872	-6032	-415	2312	-71	-10024	6608	18776	-471	-4576	2282	-4368	2416	-3912	-791	-3040	1145	-12648	-4160	-11416	523	-2211	1381	133	134	1
-10524	-5772	10736	-103	379	181	-16464	2496	-3960	-1080	400	-317	-14688	848	-7520	-659	2484	-239	-8920	2656	14680	-522	-5617	2465	-6152	1208	-2344	-1532	-3839	1121	-10528	-952	-12696	668	-1823	1367	128	131	1
-10776	-5248	10468	-257	363	160	-16872	5704	-11752	-1531	354	-356	-17960	1936	-8464	-567	2264	-173	-7432	880	11872	-496	-5821	2488	-7416	-2664	-2456	-1916	-4615	823	-7992	-48	-13792	443	-1685	1522	123	123	1
-10628	-6456	10120	-263	427	188	-16352	-2920	-1352	-1126	-159	-244	-13200	-504	-3504	-745	2371	-186	-11496	-1000	13280	-436	-5652	2423	-9792	-4312	-5504	-1501	-5338	390	-5816	-160	-12696	-15	-1384	1334	118	120	1
-10692	-5576	9908	-206	295	180	-15576	-2496	-1104	-853	480	-166	-13672	-888	-3808	-726	2231	-159	-20696	-3864	19608	-261	-5857	2431	-13600	-4592	-8200	-1221	-6003	-198	-4752	-960	-12776	-774	-1088	1133	114	124	1
-10656	-6300	9472	-58	170	200	-14496	-3400	-1464	-260	478	-154	-14320	-1680	288	284	1304	-490	-29744	-5104	20088	293	-6543	2360	-17256	-12856	-10032	-453	-6160	-442	-4768	-3560	-13120	-1161	-727	723	114	119	1
-10716	-6624	9320	-28	91	240	-16368	-640	-8	-285	637	-161	-14304	-400	1144	288	951	-298	-30984	-1080	17664	400	-6763	2109	-18192	-7048	-9976	1855	-5916	-393	-3168	-2912	-13016	-992	-561	571	114	117	1
-10580	-5908	9700	-25	24	348	-16232	-464	1552	-516	814	-189	-18008	1872	-2496	-326	1814	-362	-31216	4888	18328	-67	-6437	1751	-21504	-600	-10184	1859	-6190	-105	-2656	-1224	-11024	-510	-302	771	118	121	1
-10980	-6400	10044	46	16	405	-14448	-1480	-1472	-549	1019	-191	-21032	1400	-8096	-1181	2102	10	-32768	8608	20848	-443	-5961	1630	-32768	512	-10120	918	-6367	30	-5784	-568	-3352	-405	-215	767	121	122	1
-11200	-5104	10608	36	114	408	-17320	904	-984	-509	1148	-218	-17304	2672	-952	-676	1380	-130	-32768	5200	22184	-310	-5483	2010	-29512	-2520	-12312	-603	-6415	85	-9432	3600	2448	-1027	-1066	507	120	120	1
-10576	-6444	10744	26	310	446	-18232	-272	-608	-361	1370	-305	-15312	3856	944	-755	1670	-593	-32768	7008	14504	-262	-5809	2628	-29880	1832	-18640	-1052	-5542	-218	-17920	6880	2840	-2092	-1786	610	120	124	1
-10676	-4668	11076	57	528	479	-16376	-216	-832	70	1551	-239	-15984	2480	912	-715	1576	-526	-32768	4712	-9216	-1027	-4638	3480	-26896	-152	-23352	-2926	-4561	-768	-32768	10584	8576	-3242	-2378	839	117	121	1
-11104	-4396	11368	-4	886	401	-17384	1656	-16	262	1741	-152	-21128	1616	-2672	-712	1556	-472	-32768	3256	-25984	-2738	-2136	2392	-11832	-4176	-24856	-3992	-3480	-931	-14992	-3632	15784	-3441	-1309	1117	113	114	1
-11432	-5124	11740	-69	1394	400	-18592	2016	-2192	289	2062	-281	-22672	4192	-6416	-660	1192	-44	-32768	-12848	-32768	-263	-396	2213	-2752	-1080	-29536	-1948	-895	-141	-3640	-12736	28664	-1774	165	-119	105	109	1
-11636	-5448	12368	-164	2124	398	-21008	1816	-2488	147	2286	-365	-20672	160	-1480	-246	695	79	-32768	-3200	-32768	51	573	1463	-5576	7704	-25744	-1014	1218	350	-11496	-8080	23336	228	1000	-1210	104	110	1
-12680	-5848	12300	-244	2959	428	-22088	-1224	-1160	271	2576	-390	-20752	-3152	2200	191	425	104	-32768	-2480	-22864	-1054	1878	479	-10608	2568	-23352	-752	2813	492	-21024	3344	3064	15	1848	-1039	108	109	1
-10240	-6832	13004	-655	3825	703	-22024	-232	744	487	2781	-394	-25376	-1936	4504	326	-350	280	26256	-20672	32767	-1022	-443	-186	-32768	-15616	32767	2011	1855	-488	-5944	1672	-8576	370	4522	495	113	112	1
-12360	-9376	13348	-1188	4554	959	-25912	120	3304	44	3070	-539	-26640	-2248	9840	345	-1375	520	-5792	-19600	848	2852	2995	-3363	-29696	-2328	4464	-821	1776	965	-31232	1240	-6904	1551	2277	305	112	107	1
-11860	-14656	11112	-1416	5442	1685	-32768	2056	3432	-390	3316	-846	-32768	3528	16816	421	-2272	371	-32768	13184	13952	944	3871	-1586	-1120	-18264	-15104	-1012	2182	136	-27480	22040	5400	-558	-1394	642	116	116	1
-12896	-17308	12256	-1458	6677	2857	-32768	7712	7656	-1688	3133	-1572	-25208	21976	8008	3739	-3626	1113	-21112	15280	14336	9	3132	-309	-31552	9168	-8680	1174	2842	303	-8344	-7736	6120	-1673	519	-311	117	116	1
-16540	-18372	14504	-1504	8436	4313	-32768	10408	8248	-814	2276	-1959	-10696	26928	-8776	-2559	-862	1287	-31024	19120	24824	-628	3485	-598	-16944	-1848	-6392	-1348	2475	684	-18112	-10824	-1688	-459	552	80	115	114	1
-32768	1352	11472	-3528	8065	3876	-18040	-6160	1632	-3446	2949	-1281	-25392	-1880	-15680	-3387	-374	-514	-10832	-4080	17336	-558	1160	-628	-17336	-736	-7328	-806	2221	544	-10368	6408	-17504	1236	702	558	121	113	1
-32768	-16352	11964	-4516	4244	3027	-32768	-11320	-22568	-4391	3419	-837	-32768	-14528	-15600	-5633	-1661	-599	-12992	9216	13216	-233	-70	-751	-16792	112	-6808	-687	2188	482	-7560	4368	-11464	341	853	-239	121	125	1
-27112	-32732	24676	-4117	2092	2455	-21160	-7632	-15032	-2779	2814	-713	-27432	3472	-14792	-2426	-2665	-1077	-10088	-208	15488	37	27	-661	-15984	-4256	-7184	-1089	1339	254	-15880	3776	-13032	393	1411	-119	128	119	1
-32768	-32768	27896	72	-34	1708	-12744	-6976	-8584	-472	1100	-460	-23296	4328	-18040	64	-3075	-507	-9960	3912	14848	-29	41	-255	-20712	-2424	-5768	352	1356	243	-18240	5504	-12248	198	1516	-73	123	115	1
304	-28436	25636	712	-3156	-554	-9728	-8464	2000	216	23	-341	-19848	464	-13416	310	-2475	-373	-10464	5928	13240	-130	77	-106	-17936	672	-7152	579	1135	89	-16472	4872	-11048	54	1559	-364	126	118	1
5624	-15964	12400	1129	-3176	-798	-7584	-1968	456	889	-1179	-295	-20240	2680	-14576	222	-1849	-381	-9400	4720	13896	-100	141	-154	-18200	832	-5080	856	858	121	-15008	2696	-8880	334	1858	-307	131	121	1
1368	-8868	11752	769	-3364	-1640	-5512	976	-1208	1282	-1804	-346	-16112	3824	-14376	-95	-1763	-765	-9400	4312	13712	-22	185	-280	-17832	3496	-3952	282	675	265	-15696	2488	-5464	554	1810	-343	125	123	1
-3196	-10412	11568	517	-3842	-2490	-5656	1168	-2296	1198	-2486	-397	-11424	1480	-13984	-169	-1745	-743	-10168	3024	13392	28	264	-168	-16432	1192	-4432	-857	328	77	-15792	888	-3352	364	2001	-528	128	122	1
-6136	-7912	12060	783	-4363	-3156	-7136	-968	-3808	971	-3144	-280	-10016	-232	-12496	54	-1852	-650	-9120	4448	13208	20	332	-115	-16912	-2440	-2048	-867	348	-112	-14664	128	-2840	328	1848	-625	131	123	1
-6404	-3956	11240	1150	-4522	-3493	-9120	-184	-4608	1555	-3767	112	-9560	-720	-12464	358	-1808	-689	-9664	4552	13096	1	300	-55	-15320	-2008	-1832	-76	565	-12	-13336	1288	-2984	825	1971	-505	125	123	1
-9576	-324	12100	1260	-4540	-3516	-10160	2104	-5040	1846	-4404	563	-7480	-2568	-13128	742	-1807	-706	-9528	3760	13392	43	257	-101	-15048	224	-2032	544	746	59	-14776	2432	-2480	1173	2199	-422	120	122	1
-14864	-40	15064	1041	-4769	-3293	-12328	1392	-6424	1668	-4892	985	-6224	-2184	-13368	1176	-1804	-665	-9376	3912	13248	94	200	-177	-15864	224	-1568	660	641	37	-16240	2192	-3272	1396	2330	-523	122	124	1
-18644	-600	17468	748	-5223	-2942	-12576	1480	-6624	1664	-4948	1024	-5520	-1144	-13808	1532	-1617	-507	-9568	4232	12432	49	155	-209	-16456	792	-2408	503	705	108	-13488	1544	-3016	1577	2430	-505	128	127	1
-20012	-1376	18420	468	-5382	-2641	-18192	3760	-9360	1537	-5577	1616	-3792	176	-13688	1827	-1247	-357	-9800	4144	12592	-1	125	-183	-15120	48	-1112	423	717	121	-13032	2528	-2048	1262	2438	-220	129	127	1
-21860	-4468	18200	248	-5279	-2501	-19096	6456	-8200	650	-5777	1863	-2416	992	-11784	1929	-964	-207	-9608	4200	12592	-35	108	-161	-14608	1328	-1112	299	767	59	-12720	2752	-2592	711	2190	116	129	129	1
-25016	-9868	19600	232	-4795	-2415	-23184	4256	-9080	-242	-5914	1937	-1648	1696	-9936	1642	-702	-111	-9800	3248	12600	-32	110	-206	-13888	832	-2144	-229	805	6	-13520	1928	-4088	-31	1573	142	128	127	1
-26880	-14976	20668	75	-4333	-2582	-29696	1240	-10088	-598	-6139	1694	-2648	3968	-6176	1188	-731	-53	-9960	3768	12192	-28	117	-178	-13960	-2080	-1816	-348	925	16	-17824	2144	-5952	265	974	-432	130	128	1
-32768	-23256	20716	-381	-4180	-3356	-32632	-4800	-12968	-766	-5951	1037	-8808	7976	2488	861	-1619	631	-9744	3632	12992	14	184	-141	-15960	-1376	-2504	-93	1105	70	-18592	3624	-4776	611	857	-519	132	130	1
-32768	-20256	12140	-60	-4451	-4004	-26648	-7256	-11456	280	-5618	412	-15960	2696	4240	933	-1469	1295	-9576	4056	13200	46	332	-157	-17480	288	-1752	72	1261	79	-18192	2432	-2520	531	1158	-142	127	128	1
-32768	-9040	-2464	-194	-4104	-4281	-23672	-8560	-14520	1161	-4750	782	-32768	6416	10624	1725	-1880	1451	-9296	3952	13584	85	504	-220	-17384	-848	-1048	20	1378	115	-17200	-1448	408	478	1098	19	123	125	1
-32768	-4500	-14056	-257	-2817	-3657	-25112	-1544	-32768	382	-4194	389	-28160	8912	912	3227	-1528	746	-9344	3336	14216	160	823	-234	-17168	-2240	-1504	-136	1576	72	-20176	-496	-896	818	1283	19	101	123	1
-32768	7500	-22516	496	-1866	-2751	-8552	-2784	-21136	2341	-2342	746	-13592	16064	16264	1728	-1962	130	-9632	3032	14288	238	1284	-168	-18112	-2616	-1624	-99	1863	68	-21344	3008	-2248	865	1009	-131	98	123	1
-32768	13352	-31432	557	-630	-1545	-4128	1208	-21328	1565	-531	380	-11248	9232	24088	633	-166	465	-9984	3056	14552	379	1892	-103	-19696	-616	-2400	-208	2081	16	-20360	8016	-3920	670	743	-232	105	123	1
-32768	14256	-32768	102	549	-537	-4248	-6464	-20016	530	1362	-691	-15080	9384	14976	344	926	766	-10072	4656	14240	576	2619	-113	-21128	952	-3544	-393	2275	-12	-20344	8104	-4736	509	448	-381	123	129	1
-32768	4348	-26340	608	2613	1336	-10104	-8384	-13408	538	2491	-1032	-14696	4992	7416	465	1291	327	-12032	5360	13560	755	3126	-302	-21576	80	-2968	-574	2381	28	-19720	6560	-3088	288	91	-635	129	128	1
19832	-2148	32767	896	3649	1219	-32768	2576	32767	2440	1878	-571	-14432	1952	-12616	-69	2753	-588	-10856	7672	15720	884	3965	-449	-23152	-32	-1512	-363	2536	76	-21600	6824	464	172	-161	-697	140	133	1
-25324	12464	31232	-662	2916	4091	-32768	12168	-6912	4335	1498	-908	-32768	9232	6920	-429	2253	-1599	-11936	9680	15304	554	4911	-478	-26352	536	2064	-255	2768	99	-26728	6176	6000	-212	-764	-507	140	136	1
-32768	19040	19380	-88	3076	3845	-1912	23712	-12720	989	2652	-995	-22808	384	4248	706	-961	-967	-12568	12008	15112	584	5928	-1006	-27264	688	6624	-166	2945	359	-28872	5672	16712	-198	-2181	-453	140	135	1
-27564	-15640	15464	-417	3097	1544	-13056	4776	31216	792	2029	-1486	-17688	1720	-3968	806	-146	-1043	-12080	17144	13216	1134	7365	-1990	-32768	-5576	7152	324	2924	708	-32768	1064	22992	-1168	-3887	-603	125	126	1
-15752	-6544	13364	-514	2719	967	-18800	-10296	-10288	-1930	2510	-2108	-4688	9048	-8624	-160	-25	-492	-15272	7960	14472	2104	9298	-3006	-32768	-8552	8576	1328	2775	1029	-16536	-7392	208	-128	-2180	-956	114	120	1
-20776	-15872	7644	815	1104	1133	-14032	-13048	-14152	100	2243	-893	-8608	-24	-16656	-1306	775	-1152	-32768	7824	12656	3526	9142	-2635	-23472	1104	-1832	2595	3235	789	-17384	-520	-3192	2491	-1517	-74	121	118	1
-17256	-52	16752	825	308	815	-17944	-9976	-11200	1951	1953	-634	-8208	-13880	-11344	-1727	658	-183	-32768	16544	9888	2310	5958	-4711	-27104	4512	-11144	3558	3380	619	-28464	11384	-23832	3088	-544	641	125	120	1
-12344	-10024	10300	803	-23	473	-14736	-3144	-7824	2734	1346	-334	-12896	-10592	-13216	1177	1020	-71	-32768	21712	15768	3183	4123	-3851	-26296	8984	-9736	2591	2886	696	-29744	4136	-8952	56	-2143	1091	119	123	1
-9796	-5388	11900	543	-64	411	-20288	6568	-3656	872	1070	-316	-17360	2920	-12392	1366	1429	-552	-18824	29784	32767	1239	2081	-1826	-15560	9840	-13976	1176	1995	286	-27552	-5200	-13472	-1044	-2524	738	123	130	1
-10104	-4640	12040	271	-5	311	-18952	584	-4880	-895	924	-593	-19248	2152	-9112	703	1330	-625	-18864	32048	32767	-39	-2430	203	-11960	3208	-8616	-229	783	182	-24192	-2856	-10672	-1160	-2895	843	130	133	1
-10692	-6144	11248	21	56	313	-17440	272	-4240	-1526	718	-656	-14040	2160	-5896	107	1518	-397	-1440	13968	18136	-1573	-3569	1311	-9648	-1120	2808	-41	-318	121	-24384	-2072	-10328	-362	-2758	1104	140	132	1
-10916	-5980	11108	-33	90	232	-15656	-4384	-4008	-1535	655	-468	-13008	136	-4088	-590	1683	-318	6856	4608	9640	-1084	-3316	1941	-8288	296	1264	-118	-1131	386	-21624	-888	-11968	-194	-2317	1265	139	130	1
-10524	-6984	10980	25	122	175	-17080	-5688	-3896	-522	637	-199	-14760	-2968	-4352	-636	1776	-196	208	3808	11288	-873	-3035	1996	-5880	1624	-2704	-159	-2035	465	-16432	-3136	-11976	-118	-2267	1303	137	136	1
-9892	-5552	10964	81	126	129	-17152	-3408	-2560	137	636	-227	-15928	-2648	-4720	-267	1776	-148	-8456	2896	14288	-835	-3520	1895	-4400	2408	-4912	-772	-2936	739	-14120	-3552	-12360	102	-2139	1286	129	133	1
-9588	-5504	11260	60	142	148	-17112	-1088	-2216	302	560	-134	-15160	392	-4232	-26	1669	-171	-11672	2048	14680	-724	-4616	2025	-4016	952	-4672	-1606	-3546	621	-11072	-2240	-12648	196	-2008	1289	127	131	1
-9504	-5420	11216	-37	142	195	-16328	3664	-1032	-379	507	-104	-13088	2760	-3984	-500	1899	-175	-7536	656	12144	-600	-5292	2156	-5136	-2648	-3888	-1787	-4218	343	-8864	-1088	-13336	-5	-1867	1266	124	123	1
-10560	-5976	11000	-80	158	135	-18640	456	-12512	-1304	388	-346	-11336	2344	-4928	-1264	2756	-522	-10312	488	12320	-579	-5330	2111	-8408	-4176	-4928	-1230	-4793	-20	-7696	-1176	-12696	-358	-1619	1131	116	121	1
-10192	-5024	11112	-90	113	192	-16568	-1536	-4312	-1419	682	-284	-16008	448	-6112	-1008	2524	-481	-18112	-328	15896	-509	-5626	1979	-10792	-3528	-6960	-718	-5445	-372	-6328	-2176	-13104	-717	-1384	1020	117	123	1
-10428	-4768	10788	-74	135	121	-17624	-4128	-4064	-871	597	-358	-16096	-1824	-4160	-646	2118	-498	-23640	-352	16896	-177	-6228	1992	-14568	-6064	-7864	-300	-5868	-440	-4544	-4336	-13168	-1158	-1077	849	117	121	1
-10332	-5120	10736	-40	132	99	-15648	-928	-1136	-276	532	-185	-15744	-1592	-2656	-271	1679	-230	-27008	1672	16232	19	-6490	1923	-16976	-6264	-8544	562	-6069	-394	-3360	-4776	-12632	-1063	-853	526	118	118	1
-10012	-5772	10704	-38	152	154	-15688	-1264	-328	-225	608	-101	-16960	-1320	-2000	-376	1053	-368	-31312	5200	19472	-140	-6427	1867	-20520	-2664	-9992	1428	-6145	-380	-1008	-3240	-11096	-372	-324	410	118	124	1
-10292	-5788	10476	-50	110	207	-15168	-1912	-1472	-247	711	-171	-16200	-2512	-3488	-214	1031	-42	-32768	9408	22488	-571	-6333	1840	-27352	752	-10352	873	-6440	-255	-1688	-1120	-7320	-29	63	592	127	126	1
-10292	-5920	10736	-71	130	251	-16600	-1496	-1064	-165	806	-156	-16896	824	-3824	-615	1410	-104	-32768	11584	21616	-974	-5929	1773	-29424	760	-10384	755	-6494	-270	-8712	1480	112	-412	-176	468	124	124	1
-10652	-5944	10796	-110	214	327	-18088	-2512	-1872	-196	933	-173	-17840	1560	-4016	-778	1881	-169	-32768	4024	18888	-557	-5663	2281	-29240	-3024	-14088	-849	-6242	-339	-15808	7312	1240	-1348	-1205	468	121	122	1
-10524	-5864	10908	-117	228	352	-18184	616	-928	-292	1057	-200	-20208	1072	-2152	-835	1905	-378	-32768	3440	6368	-530	-5799	2704	-29056	-2184	-16216	-794	-6038	-390	-31080	8488	5872	-2553	-1770	1031	120	125	1
-9756	-5244	11872	-231	587	485	-16696	760	240	-422	1310	-282	-20568	544	616	-856	1728	-444	-32768	3848	-14776	-1090	-4381	2684	-21976	-784	-25232	-2289	-4279	-705	-26424	2192	12168	-3468	-2362	964	116	122	1
-10412	-4508	11864	-206	974	460	-17824	2424	128	-163	1585	-234	-19320	6008	1880	-706	1408	-442	-32768	-12720	-30832	-886	-2092	1047	-9576	-4056	-24560	-2012	-2539	-283	-14408	-10088	32767	-2129	-1612	272	108	111	1
-10892	-4008	12528	-259	1456	361	-17912	2408	-784	108	1939	-238	-19336	7448	-704	-647	1153	-198	-32768	-5424	-32768	959	-774	1080	-1168	1720	-25536	-33	-56	218	-13040	-6224	30096	608	667	-522	108	111	1
-11540	-4088	11604	-305	2127	260	-19400	744	-2440	292	2235	-256	-21184	-1496	-2000	-473	883	33	-32768	1624	-32416	-273	377	274	-5056	7832	-21872	-61	1955	461	-16968	1208	19824	508	627	-933	106	110	1
-11236	-6752	12692	-297	2932	254	-21920	-952	-1984	403	2491	-281	-22536	-4072	-2152	65	583	228	-32768	-768	-14448	-677	1812	-464	-12440	1736	-21264	52	3275	541	-19360	1264	2840	251	1736	-330	112	114	1
-18204	-9564	10464	-753	3781	538	-21720	-464	48	383	2638	-453	-23032	-2800	1448	366	-187	451	32767	-8384	32767	-633	1982	27	-32768	-13472	32767	2124	2029	-567	-6112	-2520	-2512	379	3910	616	112	108	1
-12092	-7460	13108	-1204	4476	835	-23440	-480	888	-41	2871	-535	-24472	-3400	5928	220	-732	613	10312	-18112	7688	2741	2599	-2994	-30328	-280	9768	-1603	1394	877	-24760	-216	-8296	1513	2539	292	115	109	1
-11024	-11352	12036	-1716	5218	1169	-24192	-1016	1360	-100	2897	-531	-27984	2592	9576	280	-1512	435	-32768	320	10120	1044	3664	-1494	584	-23352	-21520	-2671	1795	182	-29432	22280	4856	-597	-873	583	109	112	1
-14152	-15208	10576	-1690	6099	2159	-32176	4856	3776	-976	2997	-1180	-31848	11096	19320	1140	-3483	710	-16240	15712	21424	754	3682	-86	-27760	-1440	-2400	172	2358	26	-14280	984	5208	-2154	-331	-21	114	114	1
-14648	-15324	11316	-1719	6333	2308	-32768	9864	9864	-2394	2774	-1607	-21656	25080	11648	3389	-2507	1875	-25600	11528	15616	140	4117	-307	-20600	6032	-5400	236	2504	799	-14680	-16528	-2744	-225	901	-787	118	112	1
-25164	-10052	9040	-2312	8639	4233	-22072	4144	-3512	-3220	3031	-1414	-9040	9760	-3960	-3504	-777	754	-25544	14144	16568	-620	1536	-1054	-17584	6456	-10336	230	2170	614	-15664	6928	-13056	1257	798	549	120	116	1
-32768	-9792	7464	-3837	6787	2894	-19040	-9456	-5984	-3665	3036	-633	-29832	-8032	-17120	-3804	-350	-219	-15216	3664	18184	-347	-125	-915	-17704	5144	-8472	-395	1917	530	-7928	8840	-10976	957	735	-112	128	131	1
-32768	-26768	8464	-3332	4089	3848	-32768	-11072	-17920	-3525	2855	-661	-32768	-16648	-20544	-5423	-1095	-774	-13304	2824	15672	-206	43	-604	-16112	-2088	-7696	-1548	1359	350	-15536	888	-10504	194	1180	-114	129	126	1
-21916	-27036	25880	-3217	2524	2392	-18936	-4560	-13160	-1971	2148	-368	-23240	5920	-21616	-1501	-2490	-912	-11336	4808	14368	-60	7	-412	-18880	-5904	-5408	-521	1288	101	-17648	1728	-11488	393	1412	21	123	120	1
-32768	-32768	32767	-137	-818	496	-10704	-7656	-11264	-287	517	-176	-19112	-1184	-14168	283	-2632	-641	-8520	3472	14704	-229	111	-32	-17272	-560	-5576	725	1154	137	-15288	5456	-10976	642	1549	-135	130	117	1
-6088	-29316	26948	1561	-3919	-1157	-3032	-7832	1336	436	-810	91	-17088	6552	-14664	1062	-1788	-217	-9408	5344	13392	-116	88	-84	-18472	1552	-6320	1146	883	64	-15704	4000	-9608	711	1715	-269	130	122	1
-1256	-12060	13216	2063	-4537	-1255	-4776	-1096	1816	1087	-1679	12	-18776	3072	-15968	358	-1645	-524	-9192	4768	12968	-46	93	-196	-18832	2600	-4264	1337	623	192	-14744	3672	-7008	774	1857	-360	130	124	1
-4232	-5380	10212	1116	-5097	-1989	-6752	-344	-3264	1274	-2307	-151	-14664	200	-14848	152	-2105	-609	-9744	4432	13056	-36	93	-245	-16800	1648	-2952	480	382	272	-16016	2152	-5256	686	1901	-505	128	117	1
-9512	-8196	10064	294	-5761	-2694	-10584	104	-4520	833	-2932	-385	-11480	88	-12560	275	-2260	-400	-9360	4096	13168	-46	143	-129	-16160	1352	-2920	-376	170	26	-14760	2096	-3952	607	1901	-563	131	125	1
-13028	-11308	10504	417	-6342	-3090	-11432	-224	-4544	772	-2999	-425	-9568	-968	-10528	570	-2265	-342	-9592	4688	12880	-72	197	-114	-16456	-560	-1056	-652	196	-182	-14688	1544	-2408	597	1960	-560	123	127	1
-10108	-6024	7640	796	-6373	-3145	-9880	-4712	-6296	1851	-4412	67	-9576	-4152	-11328	1179	-2032	-461	-8936	4448	13112	-51	143	-55	-15952	-1688	-32	-151	492	-128	-13840	1648	-1400	659	1909	-504	124	117	1
-10640	1616	3824	547	-5558	-3181	-11928	2808	-3288	2532	-4741	793	-10000	-1320	-11712	1610	-1800	-407	-9560	4600	12776	-5	109	-118	-15168	224	984	573	713	-156	-13976	2912	424	1214	1889	-446	124	121	1
-15764	-3864	8076	250	-4747	-3058	-14096	2544	-8624	2071	-4907	1078	-7088	1232	-10824	1838	-1769	-392	-9120	3936	13016	4	47	-202	-15232	104	296	730	745	-37	-12672	1960	768	1493	2020	-520	122	122	1
-21420	-6508	15536	567	-4588	-2978	-16328	6512	-10512	1549	-5044	1283	-4856	3416	-10480	1758	-1660	-153	-9192	4576	12792	3	24	-232	-15816	-192	-88	724	770	45	-14032	1256	2840	1398	2298	-278	126	125	1
-19732	-3044	15728	684	-4412	-3076	-18328	7160	-8408	235	-5159	1501	-3224	2480	-8664	1274	-1536	-26	-9824	4128	12864	-52	-1	-241	-15640	424	688	285	825	48	-14552	3160	616	779	2729	178	137	127	1
-22548	-3144	16064	492	-4005	-2749	-20128	4392	-8760	-742	-5305	1401	-3048	1344	-7632	869	-1160	-20	-9712	3160	12944	-66	25	-254	-13856	1792	-600	-266	915	37	-15888	3408	-7160	355	1737	-97	129	130	1
-26880	-6656	17368	356	-3849	-2226	-23720	232	-9448	-1283	-5334	1072	-3952	1456	-8432	744	-656	-121	-9240	3720	13176	-44	18	-209	-12752	-584	-976	-796	994	8	-20072	4096	-8856	147	632	-558	132	131	1
-26044	-7104	17712	-52	-3758	-1732	-23944	-5176	-10264	-631	-5422	712	-6688	3544	-6320	727	-708	-65	-9408	3760	13280	-17	55	-177	-15424	-408	-2864	-908	1119	0	-17504	4456	-4632	-198	794	-440	130	127	1
-32032	-15224	17796	-857	-3817	-1965	-28384	-4872	-11432	537	-5376	771	-13672	7824	-704	827	-1514	353	-9408	4056	13216	45	222	-188	-19440	-368	-3640	-763	1144	-18	-15256	760	-4464	274	1362	-361	127	127	1
-32768	-22184	13396	-416	-3959	-2434	-25128	-592	-15504	1658	-5189	455	-16384	3712	592	716	-1575	777	-9296	4760	13400	64	482	-249	-18432	-368	-1832	-318	1290	56	-16704	-376	-2960	733	1489	-375	126	127	1
-32768	-13588	6064	159	-3473	-3590	-32768	-5880	-19000	-567	-5794	915	-23416	11848	9032	60	-1625	1383	-9720	3704	13440	60	628	-305	-15000	-1472	120	-137	1441	108	-18160	968	1784	757	1350	-84	123	125	1
-32768	-9796	-6812	1138	-2640	-4137	-17408	-3272	-14408	2810	-4519	1102	-23632	10360	9240	2415	-2292	368	-9576	3368	13448	135	730	-291	-14208	-1912	744	-100	1707	114	-19240	128	1616	588	947	-41	119	130	1
-32768	10600	-19664	1363	-1370	-3651	-14000	4016	-23272	1825	-2161	669	-17600	14304	16400	1528	-1053	591	-9608	3528	14680	213	1100	-270	-19312	-1440	-3008	-247	1951	11	-19240	3112	-2304	587	817	-265	115	126	1
-32768	23568	-32056	559	-553	-2153	368	-4616	-16840	936	-378	247	-17328	9152	24320	1061	-547	636	-9224	3024	13864	286	1745	-282	-21328	-784	-2536	-348	2166	15	-20936	6784	-3744	692	666	-312	110	129	1
-32768	24424	-32768	391	-339	-1777	-2640	-8256	-19872	1034	1487	-592	-15904	5616	16272	626	481	384	-10072	5112	14320	494	2684	-283	-20048	-16	-2552	-518	2393	43	-20168	7144	-3352	681	600	-310	115	126	1
-32768	8036	-15980	131	1434	972	-11440	-3560	-20696	1068	2945	-843	-12648	6232	5560	596	1316	234	-12744	4704	14032	604	3024	-449	-20368	-464	-2272	-636	2619	87	-20616	5624	272	224	-91	-497	122	125	1
10324	-10708	30180	614	2090	1674	-32768	3144	29952	900	2233	-626	-10872	6064	-10688	0	2678	-282	-11688	5048	15304	532	4018	-635	-23456	-1056	-168	-461	2794	133	-22848	5344	3936	148	-569	-611	128	130	1
12736	-21704	25928	-2442	2469	3258	-32768	11992	9576	2368	1235	-701	-29048	12104	3648	-203	2225	-1506	-10720	9680	15152	252	5148	-882	-28688	-384	2272	-262	3004	222	-28312	7112	9568	-242	-1312	-591	138	131	1
-32768	-188	-36	-800	3203	1991	-9552	1104	-12624	1763	1398	-822	-26384	-296	11736	-1377	-45	-935	-11600	12536	17264	14	6468	-1463	-30824	-2160	5376	-123	3044	557	-32608	6408	21120	-891	-3207	-680	139	131	1
-21364	-11580	28940	-927	3032	1606	-23648	5816	-5432	-1990	2551	-1291	-19256	-7432	-18392	-421	94	-913	-11872	15496	19032	707	8526	-2331	-32768	-6896	12656	932	2964	968	-29504	-5512	16088	-2703	-3646	-1138	122	118	1
-18780	-12548	8084	-687	2588	1109	-19552	-10328	-12464	-2048	2741	-1440	-3536	16696	-8344	203	131	-631	-18176	4656	17576	2455	10715	-3161	-29744	-4856	7944	1399	2799	1117	-17128	-12632	10992	562	-2285	-911	116	119	1
-24668	-8608	18964	-84	1863	1323	-12840	-4744	-10680	1077	2001	-593	-8032	-200	-8152	-1380	317	-1219	-32768	6672	9488	3464	9904	-3037	-21360	2200	-5208	3476	3059	667	-24144	10640	-17232	4012	-409	-27	122	116	1
-13784	-12308	8804	1000	658	1051	-21936	-5280	-11040	443	1785	-712	-16144	-15152	-15864	-1533	1143	-483	-32768	10752	6648	3017	5304	-5259	-25944	5048	-13368	3227	3438	562	-28608	14896	-19008	2987	-1232	897	120	121	1
-14916	-2620	14576	982	298	709	-16688	-7312	-11056	2120	1369	-553	-14824	-13744	-10824	1434	953	164	-32768	23896	16904	3338	4316	-2325	-24688	8088	-14048	2877	2493	379	-32768	3784	-10448	-845	-2588	1374	126	125	1
-10312	-7280	11412	699	97	435	-17176	-400	-5616	2921	1000	-74	-15936	5256	-10672	1964	1416	-444	-15080	32767	13408	1556	1492	-512	-12464	8240	-13440	508	894	-91	-27256	-3888	-16000	-1570	-2486	982	127	131	1
-10644	-6744	12152	498	43	417	-19800	2456	-3184	1042	718	-35	-18624	584	-9304	881	1329	-500	-20736	32767	32767	-2546	-2082	1288	-7424	5248	-4944	-151	-127	62	-23200	-1336	-11608	-1323	-3022	1004	136	132	1
-10832	-4956	11612	310	41	336	-16512	3456	-5448	-865	570	-476	-13672	1424	-6936	239	1409	-319	-10680	8416	18024	-3771	-4000	2115	-6664	5200	600	-514	-764	-52	-22976	-216	-13152	-588	-2534	1100	136	132	1
-10848	-4696	11752	281	42	322	-17320	128	-4784	-1782	465	-491	-14120	752	-7096	-216	1575	-352	-3088	-608	12112	-2467	-4959	2342	-8104	2984	-1776	-1026	-1995	141	-19064	-448	-13648	-637	-2105	1474	140	134	1
-10680	-6116	10880	158	138	181	-17568	-2424	-4056	-2060	475	-561	-16552	-544	-6056	-605	1733	-426	-4240	-272	10112	-1224	-5279	2023	-5840	3616	-2712	-919	-2893	259	-15608	-4080	-12984	-527	-2086	1372	129	136	1
-10408	-5192	11148	118	131	166	-18160	-3992	-3936	-1678	413	-514	-15200	-24	-5256	-710	1717	-365	-11608	2472	9552	-554	-5734	1709	-5464	2408	-4728	-1395	-3561	500	-12856	-4272	-13224	-84	-2050	1334	130	135	1
-10672	-5636	11904	5	120	148	-16816	-5784	-3344	-604	361	-453	-13928	336	-4272	-761	1722	-192	-12896	4704	9736	-489	-6366	1649	-4680	184	-6072	-2236	-4373	420	-8432	-4144	-11656	101	-1519	1178	129	128	1
-9936	-4884	11296	-41	149	55	-16552	-4880	-3552	-383	364	-428	-13616	368	-3776	-957	1919	-78	-9696	3016	8936	-600	-6512	1709	-5696	-5000	-5016	-2039	-5057	184	-4584	-4352	-13008	-198	-1539	1274	124	129	1
-10036	-5548	10512	-136	190	-13	-13912	3296	10448	226	490	282	-9504	424	-3896	-1494	2049	91	-12264	752	10152	-385	-6158	1973	-10056	-6600	-3848	-903	-5580	-270	-4864	-3264	-12944	-756	-1150	1047	125	127	1
-10376	-5424	10624	-88	152	35	-16016	3312	0	-966	74	39	-12984	1264	-4792	-1244	2840	-464	-20920	1624	14640	-127	-6163	2334	-13728	-6096	-9112	-196	-5784	-605	-3008	-2856	-12536	-933	-866	934	121	124	1
-10056	-5348	10956	-153	109	56	-16544	672	-2640	-1731	434	-301	-15248	-872	-5448	-1246	2881	-524	-30568	2152	17192	-98	-6447	2475	-16048	-7856	-11984	718	-6060	-549	-1320	-5040	-11688	-1404	-774	618	118	125	1
-10184	-4112	10716	-158	85	78	-17280	-1464	-2536	-1666	247	-351	-16808	-2528	-3600	-846	2454	-684	-32768	-376	15208	51	-6796	2509	-17328	-3368	-9448	2005	-5963	-411	-672	-3544	-9328	-1050	-538	464	120	126	1
-10624	-5100	10732	-179	57	67	-16768	-2048	1312	-1386	430	-277	-14560	-3416	-1608	-396	1512	-46	-30400	3440	14808	71	-6406	2159	-22368	1272	-8776	1946	-6006	-83	-1360	-944	-7168	-502	-204	587	120	124	1
-10392	-5156	10436	-122	45	74	-12880	-3000	2168	-520	560	-172	-16072	-240	192	-52	1196	-260	-32768	8000	21552	-247	-5778	1513	-30904	2496	-8400	1336	-5979	145	-6320	1192	-128	-325	-231	572	120	121	1
-9696	-6128	10412	-55	-30	122	-13456	-2760	1088	-102	785	-28	-17616	-168	-64	-73	1229	-93	-32768	7896	20736	-205	-5880	1356	-29832	744	-12312	-259	-5919	362	-13320	5848	5544	-1204	-1321	486	119	120	1
-9892	-5888	10668	17	-33	215	-17736	-808	680	-78	1035	-1	-19960	-80	-2040	-658	1803	-48	-32768	6592	9760	144	-5645	2206	-26448	-1872	-12744	-1287	-5361	-63	-24864	8928	6144	-1677	-1856	567	117	120	1
-10228	-5644	10608	-16	93	242	-18224	832	1520	-521	1375	-175	-20120	696	-1288	-858	2069	-235	-32768	12344	-3624	-1124	-4139	2840	-22120	-128	-18280	-2342	-4509	-598	-32768	6080	13736	-2525	-2152	995	118	122	1
-9940	-5780	10960	-109	297	291	-17288	544	3504	-898	1655	-223	-21968	2264	2744	-915	1939	-605	-32768	-5584	-15344	-1643	-2058	2303	-14904	-9520	-15192	-2938	-3090	-569	-16176	-6416	19904	-3132	-1729	911	112	116	1
-10196	-5780	11864	-265	560	359	-17032	424	3680	-349	1988	-173	-21168	6032	2192	-855	1429	-436	-32768	-7952	-23832	455	-1273	2210	-8288	1016	-21880	-898	-1328	-68	-9704	-12552	29304	-385	-110	-74	112	114	1
-10860	-4628	12096	-419	926	241	-17488	1448	904	313	2399	-107	-21608	3264	-8	-837	856	-354	-32768	-5368	-30144	-32	-122	872	-7320	5672	-18840	-478	490	417	-19616	200	26768	553	303	-754	111	116	1
-11648	-4460	13404	-688	1543	3	-21312	376	-1656	867	2634	-45	-21360	-4000	-3960	-378	709	-39	-32768	-3840	-20384	-690	1223	-302	-8624	3024	-17472	-195	2153	433	-24512	4032	12920	-168	621	-491	110	117	1
-8564	-6068	14608	-588	2605	337	-25208	1936	-4296	885	2792	-147	-22712	-2248	-5680	-22	277	275	-16960	7360	-1056	-1229	1528	-38	-18432	312	-5552	702	2925	503	-18376	632	-2208	795	2604	99	113	111	1
-11928	-7248	14072	-744	3714	650	-23216	2528	-2352	591	2915	-325	-23568	-48	-1304	225	-234	596	30448	1760	32767	634	3010	-691	-32768	-11184	32767	887	1883	-419	-13536	-7216	-3400	892	3136	565	109	110	1
-12404	-6912	14828	-1291	5125	616	-26760	-72	792	205	3091	-322	-25640	56	3328	409	-737	769	-23632	-27192	18056	459	4357	-2943	-20960	-2192	-9928	-2522	1733	1155	-19576	2464	4688	945	1481	820	113	111	1
-12672	-12528	13296	-2331	6311	1291	-30256	888	2656	34	3311	-458	-29160	4472	11576	528	-1708	686	-30760	-2920	11640	764	3616	-1062	-6568	-26032	-11112	-2178	2125	-191	-25504	19944	5008	-603	-319	1127	111	106	1
-11572	-16524	13752	-2859	7179	2047	-32768	7336	5008	-519	3143	-934	-32768	10712	19904	1342	-3910	948	-19528	22408	16704	761	3245	44	-28632	3496	-2728	997	3027	296	-13608	-136	5624	-1704	87	-336	115	118	1
-13792	-22632	14432	-2620	8262	3231	-32768	9408	10720	-2374	2956	-1422	-17160	21104	4840	3055	-2537	1787	-18000	7544	16472	-90	3311	-485	-16312	8712	-5176	-107	2647	672	-13000	-15608	-7912	-357	1073	-1069	113	110	1
-22212	-9900	8616	-2179	8654	4596	-20648	-3344	664	-3040	3247	-1208	-10696	3928	-3208	-3176	-806	945	-25968	8296	15424	-500	1442	-1014	-15600	5856	-9352	-625	2150	642	-13160	8392	-11728	1418	759	519	116	114	1
-32768	-17300	11540	-2969	6183	3854	-21552	-12800	-4560	-3065	3347	-620	-30024	-9864	-18464	-5137	242	-127	-12152	4128	16616	-379	-180	-1037	-18528	5216	-7496	-1058	1912	476	-7656	9016	-13264	1368	795	122	118	118	1
-32768	-32768	16612	-3193	4693	3743	-29744	-8936	-23208	-2063	2989	-511	-32768	-11712	-17048	-3580	-1883	-860	-12352	2368	14072	-144	-112	-749	-16264	-1776	-9672	-1765	1437	337	-16136	3672	-12800	179	1531	101	124	118	1
-6868	-29400	29404	-3260	2225	1459	-19560	-4512	-11840	-736	1853	-14	-25448	7160	-17752	-1127	-2307	-865	-12656	3576	14008	-104	-151	-276	-19224	-7480	-6912	-246	1307	218	-18992	4240	-11792	328	1770	-8	123	116	1
-28044	-32768	32636	-736	-2481	-258	-18416	-5872	-11824	-454	1583	45	-23816	-1312	-15920	-142	-2572	-471	-9224	2768	13832	-122	-14	-99	-18056	-1240	-6296	1432	1252	84	-16408	3504	-10176	238	1640	-274	126	112	1
-3556	-28756	21300	1989	-4814	-770	-8912	-7336	3320	48	-799	-254	-22224	-4104	-13824	243	-2562	-376	-9104	3872	13640	17	43	-134	-19064	2160	-5240	1548	966	172	-16312	688	-7464	546	1824	-393	128	123	1
3208	-9616	11308	2198	-5016	-799	-6960	-4688	1056	975	-1585	-270	-17104	-320	-15040	301	-2121	-463	-9144	4184	13248	72	135	-167	-18304	2768	-4336	1062	654	352	-15288	2200	-5864	862	1907	-364	131	125	1
1540	-6212	8344	1187	-5093	-1479	-6560	-4872	48	1105	-1743	-240	-12456	1384	-13944	361	-2213	-630	-8920	3896	13840	97	254	-72	-18352	2096	-2424	-17	426	311	-16256	3744	-3992	876	1966	-428	131	125	1
-2376	-8456	8096	361	-5293	-2051	-5936	-696	-1952	763	-3203	-50	-8872	1664	-13984	214	-1877	-558	-10096	4264	13040	107	384	0	-16664	2136	-1752	-852	350	59	-15720	2664	-1296	661	1827	-489	130	123	1
-7872	-11392	8912	304	-5694	-2542	-6312	-3688	-4488	710	-3856	133	-8320	-240	-14344	470	-1813	-590	-8824	4480	13072	90	388	-59	-15088	-3600	32	-470	512	-117	-13848	1368	-1384	710	1835	-491	123	125	1
-4944	-7704	8344	460	-5698	-2902	-8040	-2712	-3984	1233	-4512	274	-5784	-1944	-14736	690	-1807	-667	-8928	5776	13360	36	324	-92	-14696	104	1200	657	987	76	-12904	2024	-728	1385	1895	-369	125	123	1
-9112	-5888	9376	391	-5356	-3178	-10440	104	-4520	1647	-5052	612	-3208	-3008	-15656	959	-1640	-706	-9632	4096	12960	38	286	-195	-16032	1976	-1464	884	992	95	-12440	2504	-616	1563	1943	-365	125	120	1
-10480	-6028	10192	357	-5324	-3240	-11944	-200	-7680	1559	-5373	949	-2656	-3504	-15432	1303	-1463	-713	-9720	3328	12680	112	270	-271	-16320	768	-1528	474	990	53	-16184	2168	216	1619	2465	-248	125	126	1
-18220	-6376	14656	264	-5383	-3409	-18792	968	-7856	1494	-5790	1313	-2592	-2360	-15016	2267	-1365	-552	-9880	3800	12560	89	268	-229	-15888	1408	-2208	65	923	50	-15040	2200	-2344	1574	2998	-350	128	124	1
-23208	-7612	16460	30	-4828	-3326	-20240	1400	-8240	1523	-5832	1346	-2688	-592	-12200	2667	-1106	-465	-9968	3896	12712	29	315	-245	-15200	-72	-2552	-381	930	48	-14920	3416	-6792	1218	2650	-428	128	129	1
-29548	-13244	21468	138	-4302	-3126	-23688	2888	-11024	1087	-6007	1690	-2704	2360	-9184	2138	-959	-217	-10216	4072	12544	86	469	-221	-14328	-184	-3600	-422	1046	-3	-15424	2096	-7712	85	1408	-238	126	129	1
-31612	-19468	22112	538	-4202	-3341	-31416	1848	-12208	421	-6165	1528	-4984	4048	-2408	1685	-1528	207	-9472	2544	12928	131	453	-231	-15928	-264	-4200	-339	1066	56	-14160	848	-4296	-302	1057	-205	127	129	1
