#Activity	walking 
#ActivityID	1 
#Date 08-20-12-54
acc_rf_x	acc_rf_y	acc_rf_z	gyro_rf_x	gyro_rf_y	gyro_rf_z	acc_rs_x	acc_rs_y	acc_rs_z	gyro_rs_x	gyro_rs_y	gyro_rs_z	acc_rt_x	acc_rt_y	acc_rt_z	gyro_rt_x	gyro_rt_y	gyro_rt_z	acc_lf_x	acc_lf_y	acc_lf_z	gyro_lf_x	gyro_lf_y	gyro_lf_z	acc_ls_x	acc_ls_y	acc_ls_z	gyro_ls_x	gyro_ls_y	gyro_ls_z	acc_lt_x	acc_lt_y	acc_lt_z	gyro_lt_x	gyro_lt_y	gyro_lt_z	EMG_r	EMG_l	act
-15980	-32768	19356	4751	32767	32767	-32768	-5124	13980	-11027	26710	-5298	-31652	5336	11880	-8860	-12760	8888	-14180	6468	16016	-14965	12345	-16358	-23652	11732	-8996	-2427	16437	16885	-28328	-7228	-15836	-10492	17836	21532	142	164	1
-32768	-15220	24660	-14398	32767	32767	-29308	-2996	6732	-24290	29681	1022	-23872	-11976	1636	-30558	-13155	7534	-23048	1932	17368	-10403	3629	-10500	-13156	5264	-13304	13669	14229	8425	10636	-3768	-19788	27755	5269	16720	122	111	1
-32768	-32768	27828	-7973	15601	32767	-30656	-24076	5320	-5090	22210	-328	-27336	-13164	-15232	-21196	-13968	1302	-10544	6600	14540	-2784	163	-5291	-17536	8052	-5932	18995	10487	6687	-19428	29920	-12084	15700	8146	3364	127	142	1
-19984	-32768	24224	7341	-658	32767	-19440	-6588	-4356	18363	11424	-5247	-30008	-2180	-8836	-4205	-18769	-2225	-10412	5392	14760	-1860	907	-3769	-19000	6608	-5332	10917	9306	5299	-25372	15468	-10184	-16883	13125	4701	118	168	1
-29848	-32768	32767	4035	-22113	15755	-18072	-2128	-7740	-7917	8972	780	-28324	2812	-10660	5091	-22789	-3021	-8860	6512	13124	-307	1523	-1434	-16368	6444	-3508	944	8552	2596	-15124	-5256	-3220	-12006	13689	3736	134	152	1
3112	-31960	1768	-1744	-31874	-13349	-11456	2316	4668	-4800	2363	990	-27980	5664	-5280	4783	-23082	-2516	-7764	7384	12976	81	2034	-1509	-17656	2192	-1676	2146	7343	1989	-12152	-3076	-2596	-2660	13844	958	124	140	1
9056	-13276	-7224	2680	-21076	-16996	-9508	3084	4032	-7039	-7006	3522	-24852	-1688	-6364	261	-26639	-4125	-8088	7552	12852	423	2334	-2126	-16028	3996	248	7453	6203	2121	-15388	5424	-2024	2036	13786	2054	117	126	1
3960	-7820	-996	-8541	-12254	-18997	-7264	-2392	400	-4133	-14630	3977	-17360	-2344	-7988	3049	-20073	-5517	-8880	8072	12200	343	2119	-3695	-16072	4624	-816	13382	5576	2582	-19148	3576	-728	1186	12893	4669	127	140	1
-2624	-17192	4336	-15817	-10391	-23860	-8436	-4244	-304	5099	-21350	3360	-17416	-3028	-8112	3669	-19769	-5262	-8664	5952	13140	292	1612	-3564	-16812	5748	-2500	6570	5387	2307	-16004	-964	-528	7866	14712	7465	146	110	1
-5756	-18788	7776	-10470	-13083	-30672	-7884	-3292	-720	10104	-26902	2677	-13132	-2084	-9068	8930	-18096	-3866	-8692	6132	12984	417	2076	-2830	-16332	2316	-2664	3209	5202	1438	-14516	-1724	980	16569	16015	6858	140	108	1
-6240	-11436	9760	-11038	-16211	-32768	-9980	-1208	-1364	14716	-31594	3223	-11560	-1596	-9576	9326	-16364	-3943	-9276	6380	12308	443	2473	-3116	-16396	2252	-2060	4147	5246	1462	-14472	608	476	19120	16490	5237	130	83	1
-6020	-9944	11188	-16889	-17662	-32768	-11644	672	-816	16587	-32768	5319	-9632	-1244	-10724	11751	-14835	-4092	-9348	6660	12116	604	2053	-3790	-15216	3752	-1332	10912	4982	2379	-14040	-640	44	14847	16948	5145	126	104	1
-9556	-13136	14668	-17983	-19311	-32768	-12160	684	-2540	14825	-32768	7372	-7420	-1320	-11652	14195	-12934	-2089	-9860	6584	12232	533	1146	-3916	-14860	4400	-1172	9952	5372	2414	-12776	-220	-1712	9110	15619	4881	126	109	1
-12636	-12984	17956	-16070	-20836	-32768	-14996	1552	-3816	14080	-32768	10492	-4564	-2424	-13448	20583	-10285	-294	-8960	5108	12692	500	1093	-4144	-15280	2484	-1572	6503	6146	2029	-16128	3948	-1896	4012	12783	4641	118	121	1
-14752	-13600	21940	-17259	-21624	-32768	-17960	1020	-4944	12565	-32768	14035	-3272	-1996	-15788	23766	-7119	136	-8868	5248	12896	634	2382	-3571	-16376	1924	-2244	5228	7089	1930	-16688	5192	-2268	3669	11460	4582	132	123	1
-19324	-18848	27728	-17748	-24056	-32768	-24912	-204	-5852	9770	-32768	16054	-3288	-212	-16072	19928	-2468	838	-9080	4756	13416	2001	3850	-3533	-16884	2876	-3256	4461	7740	1979	-16504	3672	-1188	1594	6758	1914	138	132	1
-26728	-23812	32767	-17358	-26009	-32768	-32768	-908	-6640	8730	-32768	19843	-6096	1620	-11980	10920	1479	4077	-8612	6564	13664	379	6709	-3830	-18584	3476	-2512	3819	8336	1696	-17736	4440	-400	1498	10133	669	143	127	1
-32768	-13428	32767	-17780	-23219	-32768	-32768	-600	-9324	-4109	-32768	23325	-5908	424	-3384	9087	828	1822	-9700	7756	13344	179	8680	-4573	-18568	3860	112	4292	9624	1944	-20560	4616	2104	577	11012	1095	133	130	1
-32768	-13760	30456	-7423	-20529	-32768	-32768	-22468	-14432	1644	-32768	20837	-19188	-1720	14712	1665	-11695	-3804	-10060	5756	13400	254	11633	-5418	-18552	2424	2552	3367	12126	1393	-20732	1444	5980	-113	9323	2614	118	129	1
-32768	11952	4084	-900	-24717	-29947	-27112	-12292	-24808	10318	-32768	10629	-32768	-5092	19464	4165	-16330	-17204	-10112	8948	13644	-1107	14649	-6485	-20200	2128	1220	121	14923	2965	-21248	-4784	7712	2514	7940	3497	128	116	1
-32768	32767	-6456	-15833	-4491	-14390	-13464	-9652	-32376	-6493	-15535	-796	-12888	13564	32767	21830	3024	-1806	-9308	6284	14856	-1924	18257	-8475	-20068	620	-184	-257	17465	3545	-18300	-6340	6804	5871	6512	1428	150	114	1
-32768	30628	-1340	-5381	3179	-2408	-6824	-22092	-32768	-1555	5789	-3925	-11600	32767	28804	32592	22216	2492	-9908	6016	14600	-3092	23565	-9406	-20288	1496	264	-2212	20168	3005	-19280	1300	5372	7679	7238	-295	130	120	1
-32768	31356	740	31779	21018	15213	-14592	-14152	-29948	18402	21309	-11552	-27284	13604	16108	2180	6883	11692	-10972	7716	13672	-2046	29601	-12803	-23504	900	2016	-879	22292	4130	-22988	4328	6504	9927	5779	-1330	136	125	1
20744	-24916	32767	26712	27513	11237	-31920	26672	32767	32767	23413	-14319	-20824	-4672	-5296	-13207	-7801	7667	-11268	9620	14896	1347	32767	-18814	-26356	-532	4412	4596	23415	5402	-22768	2312	10808	11997	678	-3497	120	121	1
-32768	4360	32767	10352	30254	31049	-26932	-10464	-14560	21806	6350	-3035	-20496	-4268	-15888	-13140	12688	-14978	-12904	13376	14612	4216	32767	-26833	-32768	-5416	7208	12783	23001	3688	-29300	-672	16008	7446	-11231	-6465	140	125	1
-32768	-32768	32767	31444	21533	6129	-15000	-9460	-5516	9859	23454	-20799	-20716	-5772	2764	10653	205	-2179	-25212	23104	13120	3424	32767	-32768	-29996	10004	9592	22735	23802	4811	-24488	-8496	16808	-3602	-17249	-13663	144	128	1
-18044	-9572	14920	12701	7952	8932	-23148	-11056	-8260	8797	13970	-8235	-17224	5604	-20064	-3715	11918	-13457	-32768	36	22176	11550	32767	-32768	-24768	10740	-16	15140	26812	6617	-22436	-2948	-24	13220	-16557	-4421	136	129	1
-14020	-10420	12728	12142	3395	3582	-14052	-4288	-6384	-6702	14631	-13128	1916	-9196	-20456	-29770	5440	-10505	-32768	30676	19904	17745	30766	-32768	-27012	17732	-1340	2459	22164	3260	-28308	12196	-7164	32767	-15950	-2617	132	143	1
-9280	-5860	17024	7942	-44	2156	-22016	-6352	-2152	-2833	11467	-7790	-22340	-30752	-8016	3816	8998	3074	-18232	15508	14340	4233	22054	-32768	-20468	11160	-6756	-11732	19119	5225	-29340	11232	-18404	22646	-15022	2793	119	150	1
-6104	-9412	12364	5398	494	815	-18580	-512	624	-3127	9736	-5490	-21856	-8176	-8940	22393	14168	-7774	-32768	32767	29292	2840	521	-27269	-19504	6904	-14168	735	13367	1578	-28452	2804	-15496	2559	-25322	5817	98	150	1
-7444	-5356	15176	2701	-140	1036	-17680	-2492	-2256	138	7878	-5767	-18332	9868	-3472	14350	11598	-8960	-13572	27768	15832	-6892	-9905	-3943	-12756	2748	-7900	11411	6123	3469	-26236	556	-10044	-8718	-31506	2919	94	161	1
-6356	-6496	13752	1059	916	436	-18036	168	-1080	827	6472	-4876	-13248	5480	-2940	2804	12174	-3925	-3808	15348	7560	-6658	-15602	9487	-8748	2148	-3016	13760	438	501	-22444	-1728	-5924	-3535	-28956	2506	83	124	1
-6696	-7540	12804	37	1233	683	-17528	140	48	-3313	5470	-3729	-14332	-656	-4616	-2696	12479	271	144	7240	4556	-1635	-16493	12454	-5980	4264	-1088	9332	-5686	202	-20128	-200	-6900	-5086	-26042	4054	134	104	1
-6584	-7432	12824	-483	1285	1228	-17492	-396	1112	-6955	4736	-3176	-18388	-1812	-3528	-316	13763	-3409	-1700	7024	4668	3441	-15803	11384	-4448	6300	-3204	-5896	-11519	513	-15884	-1320	-7084	-5836	-21582	3521	192	96	1
-6412	-8400	12324	-763	1223	1960	-16636	-316	2428	-11894	4744	-2557	-17752	1272	-464	-6270	14311	-5660	-7664	10428	9192	6841	-21435	15292	-3536	3176	-5852	-14259	-16464	557	-12856	-628	-7768	-6580	-18587	2872	143	120	1
-6676	-7960	12268	-799	1058	2503	-17440	-2624	1272	-12084	4551	-3403	-14816	540	-388	-14679	15486	-5498	-8400	11784	10460	7086	-30689	23775	-5096	428	-4436	-8653	-21582	-283	-11580	-1704	-8064	-7072	-17666	804	80	125	1
-6100	-7088	12776	-996	1235	2235	-17068	-1812	568	-4513	3802	-2943	-14968	-1124	128	-16287	16791	-4615	-3048	4844	8660	8704	-31576	29714	-8416	-3732	-2692	-6754	-26250	-968	-10048	-1660	-6860	-8620	-17442	-618	128	119	1
-6396	-6704	12480	-1099	1223	2686	-16352	520	2196	-8524	4466	-1551	-15268	-1320	2344	-14664	14586	-3971	-3960	2480	11056	12953	-27474	32767	-8504	-2796	-4200	-7362	-30054	-3247	-9988	-456	-7520	-10623	-16391	-1941	117	124	1
-6940	-8488	11580	-852	652	3477	-15296	-3544	3096	-12128	5537	-2072	-14892	-1308	1248	-13503	11230	-3655	-10316	6644	16404	11564	-28621	32767	-9184	828	-4844	-10100	-32768	-5359	-8988	980	-8912	-12468	-13267	-2526	125	138	1
-6272	-7696	12108	12	55	4513	-15576	-2588	2664	-6820	6047	-2568	-15260	-4236	3976	-7844	13406	-4350	-12912	5152	18428	6796	-32768	32767	-11480	760	-5816	-13973	-32768	-7613	-8264	1600	-9952	-15070	-10074	-2443	126	120	1
-6828	-7192	12672	-168	-266	4650	-15904	-740	2132	-5336	7530	-2657	-17096	-2164	5168	2120	11949	-5620	-13280	2008	20488	9790	-32768	32767	-14276	-1692	-7944	-16463	-32768	-11188	-7360	940	-11528	-16214	-5769	-2572	129	122	1
-7188	-7800	12240	-444	-614	5000	-16016	-1828	1460	-3172	8789	-3605	-17000	-1976	784	-3492	5310	-5193	-17068	6984	24592	13114	-32768	32767	-17652	-792	-10372	-12752	-32768	-14841	-6572	1096	-13500	-15129	-1954	-2101	121	128	1
-6708	-7728	12488	-1458	-148	5548	-17824	-1308	-20	-2254	9492	-3217	-17016	-5544	96	-2954	5972	-3288	-24244	11208	29372	12571	-32768	32767	-22612	-404	-11832	-9494	-32768	-18412	-6244	-160	-13460	-7581	3322	-1394	116	134	1
-7392	-7332	12728	-3696	586	5611	-18576	-1652	-388	-2592	9860	-2866	-17028	-5208	-1720	-230	9007	-2805	-29176	8136	30924	9055	-32768	32767	-29524	1712	-13828	-1919	-32768	-20590	-6796	72	-9280	1217	5445	-879	113	134	1
-5272	-7768	12840	1575	5843	7830	-18728	-1364	-436	-3004	10708	-3501	-17768	-1140	-1056	-790	8776	-3471	-32768	1556	32760	10956	-32768	32767	-32768	13628	-16236	4943	-32768	-21138	-11536	5728	1232	-491	2531	2859	115	138	1
-6924	-7416	13696	1000	9283	7654	-18216	644	348	-1230	12522	-3094	-18256	-680	3564	-1517	8758	-2389	-32768	-604	15044	4028	-32768	21323	-32768	14732	-19716	-3340	-32768	-15195	-23804	3152	20648	2010	-17943	6220	126	136	1
-7248	-7056	14648	379	13122	8090	-19668	960	560	664	15003	-3637	-18880	2500	7788	-2283	8439	-1136	-32768	-25848	-10240	10304	-31748	8694	-15552	11252	-31456	-608	-25011	-7040	-30276	3624	32767	-7006	-1763	4367	122	125	1
-7748	-9524	14968	1400	17067	9811	-20720	1624	1284	579	17436	-4459	-18892	5332	7508	-2869	7674	-790	-32768	-32768	-22472	16381	-8373	-942	-420	9808	-30660	10634	-3364	1646	-18472	-32504	32767	-28549	8524	6017	123	123	1
-6912	-9020	15172	4230	20978	11948	-20336	1076	1540	851	20279	-5431	-18552	356	7988	-4292	8007	1682	-32768	-20380	-19136	-8338	12526	-6755	-4172	19184	-29812	-6069	17894	7347	-17740	-32768	14020	-10035	10038	-2360	123	129	1
-9932	-7800	13984	6491	26170	15465	-23644	1512	3132	1271	22770	-5280	-19808	-740	9332	-6315	4788	3513	-16904	6888	21568	-13349	23877	-1571	-20428	-8260	10740	-17943	27313	7955	-14664	-8752	3932	17531	44	-11552	123	102	1
-9904	-9568	14576	6594	32028	22304	-29672	4976	5744	-6061	24694	-6940	-23248	2112	18932	-11625	-2733	5815	25288	804	13524	-6390	32767	-32768	-32768	12396	10192	-24703	16041	17890	-12832	-10604	-1832	6856	-25	-5172	133	111	1
-9576	-23160	16836	9090	32767	30122	-32768	1812	20648	-18789	28598	-2644	-31880	5180	29260	17694	-19450	9375	-32768	32767	32767	-28425	22585	-4262	-5580	10476	-6796	-6373	25894	4552	-28472	21492	-3004	10387	-1157	7263	133	123	1
-23084	-17092	20744	3881	32767	32767	-32768	-1904	13608	-10590	26114	-5736	-31912	6696	10328	-5530	-12668	8483	1956	-4612	16676	-19225	8245	-17170	-19820	5672	-8524	-8746	18551	18778	-15664	5512	-26428	2928	15295	16731	143	136	1
-32768	-4128	28712	-14122	32767	32767	-27728	-1028	6588	-24898	28843	-2412	-22908	-3460	2584	-27513	-15469	7980	-20968	7148	13068	-7185	-286	-8813	-10588	948	-16580	16314	15837	7585	1060	-224	-9120	26573	10415	17381	125	140	1
-32768	-32768	27572	-14383	19775	32767	-30588	-20760	6924	-10839	21674	-742	-31452	-10904	-13756	-28213	-14215	4069	-7908	9504	13628	-1234	-874	-4759	-20684	11012	-5412	22875	11562	7617	-23116	23564	-15548	10899	7917	3751	126	123	1
-18288	-32768	21544	-2399	10533	32767	-18680	-1860	-5584	9728	12246	-5234	-27544	-3432	-9968	-14170	-17059	-1921	-9020	4400	15092	-1878	902	-3061	-16988	10452	-5748	521	10756	4341	-23336	11848	-8860	-14891	13092	3155	125	164	1
-26584	-32768	25560	5583	-958	5919	-18304	-3516	-9268	-12120	9213	1475	-29648	372	-11044	-1071	-21006	-3029	-9356	5320	13752	-1271	1666	-2348	-16152	2228	-5876	-2872	8900	2865	-16000	-5120	-4780	-10826	13160	5342	121	167	1
9112	-32008	-116	11847	-8877	-31738	-13308	-2600	7324	-4624	3479	2099	-28844	2628	-6652	4280	-22380	-2655	-8164	6676	13428	334	2100	-2294	-17892	3392	-4612	5912	7082	2059	-13672	448	-4392	-1276	14783	1103	130	145	1
3168	-7948	4204	7261	-7888	-31655	-11056	-4812	5976	4002	-7584	2659	-24948	-3388	-6384	1422	-24929	-4357	-8300	8208	12772	525	2501	-2647	-15848	5884	-1928	8224	5629	1620	-17760	7100	-2992	614	14314	2112	114	148	1
-1068	-6000	8744	-11324	-12950	-25398	-9008	-6208	1784	11459	-17358	1216	-17900	-2132	-7584	5076	-19157	-6029	-8724	7324	12708	289	1959	-3267	-16572	5092	-2656	9980	4887	1741	-17216	5108	-2568	-2654	15692	5868	122	132	1
-6788	-17780	11620	-14524	-23664	-26297	-9844	-4804	-308	16177	-23821	841	-17732	-108	-8628	6213	-19384	-3510	-8392	5848	13092	333	2324	-3061	-16616	4452	-3064	3938	4336	961	-16056	-1912	-2848	502	15926	6566	135	133	1
-5272	-12616	10792	-9565	-30760	-28871	-10504	4084	1284	11540	-28121	2754	-14804	-948	-8704	7347	-18213	-3907	-8540	6592	13072	107	3076	-2833	-16412	2152	-2444	4213	4188	851	-15612	-3208	-772	7759	16362	5664	142	94	1
-3632	-6380	9768	-11374	-31435	-27882	-10732	4960	-984	6612	-32731	5354	-12196	-1688	-9964	8692	-16972	-3916	-8832	6600	12700	522	2960	-3068	-16516	3092	-2848	6652	3797	1509	-15456	-2680	-580	9167	16511	5508	146	12	1
-7112	-11512	13868	-14658	-30829	-29693	-13448	5468	-2864	4370	-32768	8715	-8396	4	-10724	13190	-15643	-3089	-9460	5932	12300	788	2651	-3495	-15776	3020	-2488	9526	3827	1869	-14852	-392	3160	17530	18564	4929	133	143	1
-8060	-12824	15660	-14409	-30061	-32768	-14448	3044	-3412	1428	-32768	11538	-6756	1132	-10132	16036	-14699	-1047	-8772	6276	12236	932	1965	-3532	-14676	3936	-1752	8880	4179	1775	-14596	-944	3024	18295	18676	4971	122	115	1
-8524	-11796	17224	-15077	-27016	-32768	-17348	3844	-4328	990	-32768	13470	-5580	-656	-10736	18087	-13177	-180	-9192	6628	12648	801	2360	-4417	-15704	3908	-1580	8120	4860	1524	-14516	448	-2440	10142	16872	3380	117	116	1
-13376	-15932	21524	-16613	-24859	-32768	-20152	76	-4296	2951	-32768	14296	-3888	-2120	-11944	17441	-11034	351	-8976	6120	12760	123	3126	-4748	-16472	3788	-2164	5802	5670	1717	-17408	5916	-2684	-247	16175	4214	131	112	1
-17328	-19672	24456	-14539	-24843	-32768	-25084	-900	-4444	7656	-32768	13899	-1800	-3064	-12064	14442	-7009	578	-9092	5328	13440	-208	4995	-4733	-16812	2000	-3256	3976	6450	1342	-17876	8468	-6012	1562	7139	3784	142	130	1
-25232	-27288	28196	-13402	-25891	-32768	-32768	-5056	-6656	13117	-32768	15653	-4624	1104	-12228	12533	-1662	2330	-9452	4876	13324	-93	6801	-4379	-16620	2396	-3688	2884	7286	1312	-17056	6164	-1320	-1146	6901	1740	150	136	1
-32768	-16312	28252	-12057	-20787	-32768	-32768	272	-11996	15847	-32768	19721	-4132	580	-5936	11131	1047	1997	-9724	6344	13304	-465	8841	-3635	-18212	3372	-1108	1193	8586	912	-19412	3008	1816	-1266	9007	308	133	129	1
-32768	-11208	30276	-5419	-20802	-32768	-32768	-11872	-17276	9457	-32768	22284	-14792	336	11052	8998	-8664	-275	-9068	6468	13440	-522	10701	-5013	-17472	4620	3128	1081	11357	1316	-21136	-400	8808	-1918	10739	1489	121	135	1
-32768	8872	9472	-2989	-15296	-32768	-25068	-7740	-19880	2228	-30426	10490	-32768	780	29616	6336	-21488	-9835	-10128	8484	13816	-2088	13001	-6723	-19860	2736	1872	-484	14184	2403	-21824	-5268	9560	1220	7478	3050	135	117	1
-32768	32767	880	-9058	-11205	-9047	-16424	-22120	-28676	-5635	-16817	474	-14500	13224	32767	14842	4117	-3988	-10572	6176	14676	-2769	17377	-8761	-20820	504	212	264	17002	2883	-19320	-6432	6312	4766	6616	1918	154	110	1
-32768	31140	1444	-9172	-10893	8318	-6648	-19796	-32768	-2652	4862	-7161	-12028	25012	31684	19516	17029	2975	-10300	5816	15304	-3722	23014	-10125	-21460	1004	104	-1491	19718	2320	-20056	3028	6508	8303	8574	-526	124	116	1
-32768	12628	-4928	28341	12813	21255	-13524	-12620	-27388	5673	21382	-10449	-24992	16940	14948	3203	4920	9158	-11180	7784	14152	-2688	29373	-13245	-23372	-96	1924	-363	21855	3042	-23148	4428	6592	9960	7222	-1654	142	125	1
1524	-15488	9832	32767	24362	14609	-22200	6804	17720	21239	28794	-16410	-14000	13708	21712	22667	-12697	6399	-10908	8316	13840	-147	32767	-18326	-24256	-1860	3928	4017	23192	4303	-21140	500	8596	11633	1973	-3698	116	123	1
32767	-8432	14356	11739	32767	26498	-32768	20076	20716	32767	1983	1867	-9732	-17780	-24092	-32768	15002	-17278	-11812	11496	13508	952	32767	-25286	-32564	-2732	5064	8183	23208	3065	-26888	-2236	14732	8516	-5352	-5883	120	125	1
-32768	-80	24320	28828	32767	17343	-8156	-8496	-21928	9502	19560	-22086	-26460	-1256	16800	32767	-7041	-913	-25108	17564	14156	576	32767	-32768	-31108	3084	11900	22926	24510	3425	-24544	-3760	11592	11084	-14241	-10636	125	127	1
-7612	-9068	15596	13296	11307	11127	-31264	1252	-9304	9165	18803	-17363	-29160	15596	-20604	20998	12225	-11831	-32768	13228	17948	1374	32767	-32768	-24972	16400	-3916	6897	26272	5952	-19872	-7368	1864	8499	-13609	-6275	138	135	1
-14128	-7516	18112	6966	2252	3704	-10896	-3280	-2608	-7478	18263	-15355	4020	628	-27204	-32768	3690	-12018	-32128	17548	21868	16227	32767	-32768	-25264	9892	3080	6986	26034	3580	-24376	11272	-7104	23960	-15797	-3334	143	144	1
-9788	-10916	14560	8350	-754	2470	-17200	-8172	-4412	-7818	14464	-11806	-13852	-23980	-12436	-26240	8318	430	-21624	13076	15432	5917	23183	-32768	-23220	12196	-4180	-6158	20985	4374	-26276	10800	-15884	26994	-13677	-439	118	141	1
-6276	-8792	13412	4097	-655	1357	-19356	-1404	-1060	-8798	13365	-5396	-21916	-28060	-11180	11204	14410	-5881	-32768	22392	26912	4880	13568	-32768	-19448	6492	-15896	-5711	16553	2266	-30540	3368	-16896	10086	-22413	4568	108	143	1
-7628	-5964	14196	3247	-265	770	-18836	-8588	-4312	-3251	10409	-5406	-19972	1416	-7648	18517	13191	-9144	-19484	32767	17324	-5257	-6689	-2939	-15452	6580	-10436	10645	10658	1525	-29380	1224	-13768	-5542	-30606	5460	94	155	1
-6276	-6580	13704	1838	506	103	-19128	-2280	-2888	7382	7212	-5831	-16408	5856	-5388	6980	12839	-4464	-8136	22820	9252	-15716	-17728	15515	-10652	5740	-4508	10751	2844	-21	-27428	2056	-7564	-3837	-31418	3541	94	140	1
-6128	-6868	13264	949	1224	236	-18156	2072	-1740	2618	5807	-4289	-15356	-1492	-5204	1888	13073	125	-780	6268	5560	-11172	-19471	19448	-6452	5184	-1708	4040	-3866	-1288	-24104	1260	-8156	-2774	-29047	5338	105	114	1
-6316	-6848	13368	126	1474	500	-17748	-1836	-912	-4128	5002	-3553	-18292	-3560	-4580	3919	13635	-1711	-132	4044	4840	1329	-19549	17795	-5248	7480	-2792	-7299	-10844	-2316	-18884	1460	-8080	-8591	-24489	7015	139	72	1
-6344	-7752	12688	-240	1456	1435	-17052	-1584	392	-8701	4060	-2576	-18788	-1972	-2892	3042	16380	-5013	-3848	8836	6340	7567	-24366	16546	-3960	4548	-3852	-12600	-17827	-2140	-15716	-336	-9560	-10900	-19145	5120	183	110	1
-6588	-7216	13056	-1301	1497	1716	-17460	-3172	-80	-10079	3580	-1615	-15712	-804	-2164	-2279	15613	-5196	-4224	8508	7676	9297	-28861	17651	-4980	-316	-4176	-12593	-24105	-2316	-12900	-3144	-8616	-10987	-16670	1543	170	125	1
-6484	-6864	12856	-1202	1447	1857	-17240	-3380	-820	-5190	2532	-2642	-15716	-196	-3528	-4378	15212	-5147	-6012	6396	10312	13785	-29871	23807	-7080	-3352	-5084	-6907	-28651	-3922	-11796	-3304	-7312	-10247	-15946	-284	82	128	1
-5956	-7152	12752	-1407	1505	1242	-16876	-396	772	-790	2142	-2027	-15688	400	-2180	-5619	14401	-4196	-8904	8128	12820	15735	-30982	31783	-8392	-2048	-4604	-3	-32357	-5231	-7404	-396	-7644	-12011	-14685	-248	114	130	1
-6516	-8136	11924	-1232	1440	2061	-16908	-216	1100	-1194	2278	-1880	-14648	-328	1640	-10739	14605	-4817	-10308	8108	14428	12592	-31587	32767	-10128	1188	-3752	-2016	-32768	-5933	-7032	872	-8572	-13309	-12323	-756	110	117	1
-6648	-7396	12316	-1037	663	2911	-15952	-2604	1120	-8189	3267	-1955	-14824	-532	4068	-14606	16015	-4609	-11876	7236	15152	8516	-32126	32767	-11828	2796	-4088	-9927	-32768	-7762	-5640	3436	-9712	-16393	-10043	-207	118	111	1
-7076	-6848	12428	-174	489	3804	-16048	-1504	1308	-7251	4121	-2071	-14736	348	2748	-10101	14203	-3705	-15320	7240	17744	7594	-32458	32767	-13768	2732	-6812	-18837	-32768	-10684	-5300	3504	-11172	-20259	-6802	1178	132	112	1
-6548	-6704	12596	154	430	4464	-15188	-1272	1572	-7695	5437	-2099	-16216	2708	-28	-3910	7550	-6816	-19660	10348	22404	8935	-32768	32767	-18068	948	-9120	-15594	-32768	-14916	-4896	1600	-12772	-18651	-3591	2350	123	118	1
-6708	-6948	12684	74	447	5047	-15468	-1568	1280	-8713	6919	-2398	-17328	-3740	3548	-10253	5165	-5719	-24340	13800	24892	8915	-32768	32767	-23584	1964	-9956	-10923	-32768	-16654	-5580	-1356	-13104	-9799	1595	1073	115	124	1
-7480	-7460	12652	-964	389	5956	-17304	-2004	1272	-8306	8089	-2498	-17496	-6916	4112	-8558	7829	-4198	-30832	17536	26380	5001	-32768	32767	-29988	3200	-14136	-11876	-32768	-17880	-6812	-3508	-9384	-4288	4018	-1183	119	132	1
-7348	-8548	12768	-2947	1228	6359	-18332	-3660	2300	-7514	9540	-2844	-18248	-6160	3296	-4149	10195	-3223	-32768	4364	26696	7663	-29608	32767	-30992	10268	-14848	2109	-32768	-17793	-10804	492	460	-1634	636	-395	115	132	1
-6168	-6304	14540	846	6147	9132	-18864	1488	1516	-4651	11590	-3936	-20516	-2468	5800	-2720	9096	-2920	-32768	2164	15812	4143	-22236	23762	-32768	18192	-19336	-8058	-32768	-10690	-23992	-3412	19032	10214	-17971	3615	122	140	1
-6408	-7180	14996	295	10318	8886	-19272	772	544	-2437	14371	-4086	-19100	2268	8376	-4089	7655	-2010	-32768	-24512	-6864	11903	-24767	11367	-17004	6604	-29488	648	-27467	-5804	-32768	2364	30864	766	-7804	-420	122	130	1
-7476	-6952	14964	-420	16011	9780	-21648	1932	608	-266	17150	-4439	-19632	7244	7068	-2931	6057	-1809	-32768	-32768	-17868	17078	-17723	-546	-1552	12636	-29360	15467	-8230	-353	-13252	-11356	32767	-16547	5431	3149	124	118	1
-7064	-7808	16676	1475	21121	11223	-21420	1748	724	152	19979	-5392	-19712	1828	7252	-5008	8175	848	-32768	-28356	-20692	-2839	-4718	-15493	-5656	14136	-29152	-3244	11826	7632	-20280	-26968	19076	-16587	10659	2185	124	113	1
-9164	-7848	14604	3575	26740	14387	-24132	1768	2352	131	22696	-5467	-21072	-2132	7644	-7048	5775	4177	-19136	-24832	-2716	-22951	22099	-11823	-23076	-7312	4240	-26093	25167	8450	-19600	-9268	6400	10042	-3407	-10509	123	107	1
-9268	-11572	17964	5444	32767	19364	-29560	4672	3204	-4304	24652	-6706	-21004	-1988	8032	-7475	5164	4423	-22304	26752	32767	-7695	32767	-32768	-32768	23488	-10036	-18038	23402	21017	-18676	-24692	14048	-31206	-12589	-13373	128	114	1
-7244	-12724	14772	2700	32767	26800	-32768	10468	18428	-19368	28603	-3374	-32768	864	23644	7721	-19002	9499	-22004	32767	27544	-29559	16428	-2790	-11820	6252	192	-11210	26822	6221	-15096	23484	-11980	6575	6591	14181	124	132	1
-20440	-18300	13220	691	32767	32767	-32768	-436	15552	-22767	25148	-1463	-28696	16424	3372	-11653	-10402	12303	-1944	32767	7644	-15845	15894	-10366	-8948	15404	-11868	-17947	17583	17105	-4796	9880	-32768	15513	7656	19082	144	132	1
-32768	-7892	19072	-20248	32767	32767	-27084	-8448	3236	-27762	28362	-2202	-22888	1628	3508	-27963	-17815	9959	-13860	-332	16732	-8346	-1990	-7022	-16740	-2564	-15776	14853	14230	7475	-10216	15992	-9552	15996	14588	16478	143	156	1
-32768	-32768	27424	-13947	18416	32767	-32592	-21548	6692	-8943	22072	-897	-31672	-15984	-14272	-32768	-13201	4735	-8548	9984	12700	-1639	-628	-3218	-22948	8428	-8840	27417	9913	6612	-26064	23360	-19432	-8634	10861	681	127	144	1
-18904	-25752	24180	-6917	2694	32767	-20660	-4744	-2180	9627	12433	-6063	-30076	-7848	-11712	-21225	-16878	-4032	-8800	6632	13832	-1528	1336	-1298	-17060	13776	-6292	-952	8606	4270	-24328	-2456	-8984	-14272	12846	5825	127	165	1
-32768	-32768	24232	-3199	-14340	27199	-17404	-6888	-8688	-9315	8438	-1378	-28832	1072	-10832	-3977	-21293	-4730	-8688	4612	13824	-311	1711	-820	-16368	-1880	-6524	-6366	6102	1952	-12396	-4792	-6124	-5335	15094	6248	127	168	1
-456	-32768	5552	-1496	-32768	-8353	-12480	-3400	5536	-8496	2028	-323	-29444	3692	-7904	2420	-23792	-3142	-8060	5436	13648	1236	2450	-579	-17924	2480	-4600	6914	4163	1943	-14508	2420	-6160	-582	16027	1617	119	146	1
7484	-15432	-6600	9013	-29822	-12816	-10000	932	4136	-3674	-6770	-451	-24856	-2168	-6096	-1751	-27497	-3125	-7980	8272	12832	1879	2553	-1283	-16408	5384	-332	11870	2559	1571	-18008	4948	-4600	1338	15542	2564	132	149	1
7904	-3124	-5432	-7127	-18089	-13830	-8052	1540	1012	-4222	-14841	1527	-19548	-4292	-7612	3808	-21574	-7628	-8660	8220	12260	1433	2225	-2681	-16352	5500	-900	17182	1628	2184	-17276	5116	-664	3682	17092	7093	116	140	1
1840	-13480	292	-22084	-9345	-17312	-8688	-1684	-556	1824	-21356	2849	-14904	-2100	-8456	6135	-18218	-4792	-8500	6600	12904	882	2327	-2513	-16540	7516	-1840	6853	1235	1270	-16060	2448	-876	12310	18748	9475	132	100	1
-6308	-24136	6120	-16788	-9408	-27431	-6720	-3580	-1612	5918	-26042	2481	-12192	-1496	-9100	8719	-17239	-3478	-8772	6464	12816	664	2416	-2362	-15772	2484	-1768	4015	1148	351	-14552	32	2844	17338	18058	7491	150	9	1
-6704	-17628	8564	-8319	-11209	-32768	-9652	-2576	-916	11347	-29577	2183	-9832	-2876	-8712	10213	-16262	-4643	-8748	6024	12400	776	2336	-2488	-15940	2016	-440	9757	1331	805	-13268	780	5208	17519	17282	6089	142	104	1
-6496	-8700	10212	-10432	-11248	-32768	-10420	-208	-1324	16161	-32768	4471	-8408	-3536	-10168	13672	-15675	-4315	-9212	6404	12052	908	1663	-3071	-13724	3500	1440	13678	2385	1985	-14700	-3964	2724	12752	16742	5721	118	142	1
-9744	-11512	14368	-16177	-13612	-32768	-11820	2204	-1800	18754	-32768	7709	-6624	-4112	-11552	19178	-14646	-2842	-8636	6520	11924	385	728	-3315	-13164	4696	2320	10721	4281	2142	-14276	-3424	3024	4706	13761	4763	127	107	1
-14492	-14700	18244	-13924	-18144	-32768	-13496	-796	-3456	18667	-32768	8292	-4964	-4804	-13052	27762	-13145	-1394	-8460	6156	12188	-47	-446	-3654	-14000	2752	1696	6279	6753	2158	-19164	5940	4840	6885	8982	4962	130	115	1
-14452	-12388	16820	-12668	-21737	-32768	-16984	1644	-4244	17851	-32768	12678	-3756	-3116	-13896	31593	-10196	-498	-8464	5496	13104	-319	-168	-2870	-15424	1760	-668	2830	8576	2314	-18884	7292	1400	2192	3792	4723	130	123	1
-16824	-14608	22360	-13651	-22525	-32768	-20932	1760	-4404	15013	-32768	16630	-2900	-2776	-14384	26252	-4395	-2065	-8564	5700	13184	445	1436	-2315	-17612	1600	-2564	2104	9500	2684	-15116	684	-1184	979	6711	2401	141	122	1
-21508	-21028	26540	-12614	-21995	-32768	-28640	724	-4396	12298	-32768	18541	-6196	3460	-13328	14614	-300	4123	-8812	6292	13252	927	2950	-2410	-17280	3504	-2492	1946	9930	3169	-14164	296	-3064	2842	10287	1649	145	131	1
-30128	-26292	30276	-8223	-20840	-32768	-32768	-492	-4320	12981	-32768	22793	-5756	3592	-6140	6376	2478	2052	-8628	6668	13516	1362	4222	-2741	-16932	5272	-1676	2529	10740	3005	-16592	3192	-2296	2930	9494	2394	135	128	1
-32768	-14880	32767	2624	-15663	-32768	-32768	-9916	-7288	-1726	-32768	25340	-13664	3508	6516	5250	-3790	-517	-9740	9608	14188	113	7376	-4095	-18500	3776	-1016	1641	11906	3224	-18572	3580	460	3248	8027	2839	131	128	1
-32768	524	14092	-1465	-25228	-32768	-32768	-16800	-18972	7124	-32768	15673	-32768	2080	25180	3702	-29448	-7231	-9280	7412	14796	-61	11189	-4987	-20384	2948	-960	1358	13642	3015	-21640	2720	4760	4154	8902	1937	123	119	1
-32768	24392	-11220	-10442	-16875	-24057	-20960	-10508	-27008	-1696	-25364	3743	-22972	7120	30156	5248	-13839	-11869	-9344	7600	15148	-586	15759	-6510	-21672	2164	-728	340	15615	3709	-21944	712	3556	3587	8008	1892	128	117	1
-32768	32767	-8572	-19361	-3075	-5519	-8572	-12540	-29760	-14592	-5434	-1228	-3736	24748	32767	17895	12318	-684	-9656	6108	15576	-1184	20855	-7301	-20368	2412	-852	-1629	18043	3579	-19828	2476	2764	2323	7384	795	138	122	1
-32768	27704	-4336	-661	4761	6110	-10668	-21696	-28948	1220	15000	-9096	-22104	22876	22204	10156	16558	5868	-9336	6980	15268	-1784	26121	-9622	-22320	2284	-428	-3601	19895	3712	-21588	4808	4168	2841	7234	70	132	127	1
-32768	2384	10620	32767	26548	17863	-19328	-11860	-22372	24899	24070	-14861	-23752	3208	12160	-1272	-5919	11164	-10872	8036	13948	-1128	32453	-12944	-23424	1328	1212	216	21301	4762	-21908	1568	5960	6169	6245	-816	149	124	1
32767	-28056	32767	32767	32767	4079	-32768	32767	32767	32767	19908	-15839	-13424	-3456	7708	6726	-8192	-2065	-11008	9004	14064	2716	32767	-18294	-24528	980	4292	6138	22441	5317	-21436	-1864	9596	10264	1028	-1353	136	119	1
-30984	20312	31708	10311	32767	24444	-22320	-3580	-11068	29783	6347	-3707	-11080	-19772	-23788	-4769	19009	-25047	-12660	12176	12548	5055	32767	-26696	-32768	-4368	6864	12526	22093	4353	-27896	-4352	16956	9174	-9718	-4962	123	119	1
-32768	-32768	32767	32767	9874	4680	-19800	-11908	-7364	7485	22394	-20314	-24480	340	7224	32767	3497	6014	-22052	22232	15076	6847	32767	-32768	-29888	3588	9980	25165	23261	4754	-24556	-10848	17988	-2368	-16069	-12981	143	127	1
-17148	-9704	10544	14926	7747	5064	-26492	-2496	-8084	8816	15923	-12141	-27028	18256	-17424	7322	14263	-7855	-32768	2056	19032	11730	32767	-32768	-23584	12532	-2568	18122	26189	6608	-21320	-5908	436	18812	-15365	-4688	124	125	1
-11096	-10204	14132	8155	-863	4797	-20848	-8128	-7456	8283	15735	-11085	3256	-3972	-30316	-31856	3292	-12351	-32768	29044	21200	21845	32767	-32768	-28460	15784	780	8880	22693	2723	-28792	15128	-8192	32767	-17464	-2110	112	136	1
-8476	-1664	18848	6261	-341	1550	-21212	-824	-5472	-7752	11613	-8858	-20420	-24108	-1780	-12305	12927	-3716	-19280	16108	14440	10990	20431	-32768	-21324	15224	-5896	-14380	19842	6632	-29012	11612	-19476	23133	-17350	1758	129	151	1
-6568	-11192	11636	2134	1026	622	-18564	-1800	164	-11229	10775	-4394	-21984	-10328	-9780	15004	12442	-6100	-32768	32767	29244	581	4436	-26835	-20268	7412	-16344	-5409	14209	3061	-29820	1208	-14408	3165	-27457	5489	104	152	1
-5780	-7640	12952	1343	682	832	-17400	-4644	-660	-8092	8606	-4439	-18836	3408	-2816	10469	12632	-6885	-14596	29996	16564	-9673	-16140	-2340	-13668	3852	-6304	10173	6451	3466	-29704	-1088	-9916	-5341	-32768	3731	102	158	1
-6120	-6916	12888	892	1077	521	-18848	-2620	-296	1042	6368	-5040	-13668	3552	-1828	1477	12028	-3306	-2564	14092	7060	-11232	-21846	6061	-9276	2828	-1956	12882	-1491	2843	-25448	-3064	-7400	-145	-31955	1955	111	121	1
-5832	-7992	12564	-39	1023	705	-17844	1076	972	260	5481	-3493	-15172	-3048	-1688	-1118	12694	510	2000	4000	4300	-2237	-22155	5225	-6716	4280	-1368	4980	-8598	2779	-21012	-688	-7496	-1930	-27793	4241	135	45	1
-6560	-7724	12668	-253	1040	874	-17172	-1088	976	-6736	5420	-2477	-18884	-4560	-2792	1836	14664	-3128	484	3864	4928	10555	-21234	5431	-5416	2748	-3784	-5287	-14831	1998	-16396	-1472	-7620	-5517	-23330	2900	161	102	1
-6340	-8060	12312	241	1092	1691	-16060	-2004	1432	-10004	4882	-1694	-17752	-212	-1108	-3225	15088	-7120	-3804	11512	7916	15042	-21663	10413	-4984	-2368	-4896	-4556	-20282	1101	-12836	-2632	-8728	-5698	-20064	940	76	121	1
-6344	-6764	12788	458	388	2427	-16740	-1212	688	-9191	4501	-2389	-14220	2484	-752	-7930	15221	-6019	-4992	11500	11036	11847	-22532	19952	-5176	-2236	-4812	-3950	-21163	1010	-10832	-3924	-8016	-4742	-19160	-1237	38	139	1
-5964	-5952	13292	-487	500	1688	-17016	-92	-196	-2009	4019	-3637	-14796	2032	-364	-8106	16589	-3332	-6360	5760	14112	11912	-24028	31393	-7660	-3100	-5276	-2628	-28992	-202	-7956	-2744	-7320	-5238	-18867	-1683	110	131	1
-5700	-7368	13032	-1684	1012	896	-16428	712	1348	1345	4115	-2872	-15416	-132	3164	-7251	17151	-3054	-7580	2536	16232	13008	-25029	32767	-9216	-2244	-4136	-4700	-32423	-1724	-7568	-1032	-7468	-6922	-17182	-2018	109	120	1
-7084	-6932	12268	-1040	574	2313	-15292	-908	1788	-5172	5107	-2854	-15688	-1156	1324	-5007	14286	-3259	-11904	868	20040	11997	-28752	32767	-10048	240	-5004	-10681	-32768	-3732	-7152	1656	-7848	-9723	-13947	-3127	117	111	1
-6552	-7728	11896	288	-479	3752	-14960	-1996	2552	-7444	5852	-3335	-13288	-1328	3940	-6053	14527	-4185	-14032	512	22836	10969	-32768	32767	-12424	-320	-6844	-14347	-32768	-7176	-6496	3384	-9680	-13577	-9414	-3311	125	105	1
-6816	-8324	11952	1091	-1203	4241	-16092	-3284	1748	-3612	6978	-3344	-16100	1184	3488	-1401	10712	-6121	-14564	996	23864	14058	-32768	32249	-15272	-2904	-8528	-14773	-32768	-11939	-7104	3784	-10888	-16035	-5014	-3344	128	117	1
-6348	-7308	12516	1225	-1138	4658	-16848	-760	668	-1239	7997	-3894	-16180	-2020	1572	-4216	5438	-6079	-17176	6236	26032	14386	-32768	32767	-18480	-1764	-11640	-12715	-32768	-16814	-7236	2280	-12772	-13738	-1181	-2571	123	132	1
-6328	-7904	12728	207	-410	5396	-18504	-1208	-684	-2804	8509	-3822	-18252	-6608	-204	-5178	7138	-3906	-24340	9044	29320	9364	-32768	32767	-21900	-2612	-13744	-10617	-32768	-20972	-5688	-108	-13272	-5098	3767	-1970	119	138	1
-7416	-6908	13648	-1069	1379	5905	-17356	-492	-620	-3051	9321	-4064	-17984	-6872	-2568	-1385	8364	-3114	-32768	3136	32392	5936	-32768	32767	-28980	3848	-14164	-1372	-32768	-23865	-5160	2344	-7476	3336	5036	-1491	116	134	1
-7660	-7568	13816	-640	4815	7531	-18556	-1968	404	-2189	10155	-3571	-18360	-1468	404	-1061	7689	-3835	-32768	660	29908	4481	-32768	32594	-32768	19100	-16536	1989	-32768	-23125	-10688	7800	4916	1621	-1983	2773	115	143	1
-7008	-6624	14228	859	9147	8385	-18452	1460	780	-2530	12237	-3874	-18536	684	6876	-3206	8199	-3558	-32768	-7964	5496	5555	-32768	15571	-30840	11992	-23020	-6273	-32768	-14577	-24052	6948	18236	664	-13613	7784	118	126	1
-7184	-7656	14984	504	13051	9440	-20636	836	1176	-1370	14710	-4350	-20376	4076	7948	-3040	8311	-1889	-32768	-25680	-20780	18627	-24180	5913	-12776	8468	-31600	4644	-22292	-5658	-32768	3244	32767	-21070	6285	2493	121	113	1
-7012	-7888	14984	1753	17354	11339	-21024	2036	1244	-1375	17412	-5612	-19324	3992	8076	-4249	7661	-879	-32768	-26252	-16988	12405	-365	3029	-244	18568	-30520	9432	475	2581	-18276	-32768	32767	-32768	11987	-1056	119	126	1
-6840	-7716	16012	2530	17967	11430	-21240	1112	548	644	20502	-5867	-18472	-908	7820	-4113	7233	1849	-32768	-31684	-18500	-14738	10630	-7498	-7616	19232	-27880	-13766	20047	9158	-17020	-28648	14788	-4347	9373	-2168	122	123	1
-9120	-9412	15144	7963	26759	16543	-24660	664	3588	661	22867	-5796	-20088	-1760	9788	-6790	5605	3976	-9784	20588	32767	-11580	22678	2327	-19900	-10896	14752	-22551	26169	5713	-16304	-1976	4040	17601	-16	-8048	124	113	1
-10508	-11444	15408	8921	32431	24018	-30260	3912	7116	-6929	24797	-7498	-24344	1864	19096	-12291	-4085	5848	32767	7004	8064	749	32767	-28037	-32768	5076	11856	-32768	13548	15060	-1680	772	-16716	25252	11103	3746	136	114	1
-12532	-22936	14844	12683	32767	32767	-32768	2816	19944	-18763	27922	-4104	-26672	10188	27620	18572	-14504	9644	-32768	13032	28572	-15925	32767	-5985	-4992	6160	-12516	-10607	22393	7075	-31792	15680	8940	-10320	-7399	10202	144	124	1
-20764	-15856	14464	4910	32767	32767	-32768	-1040	12364	-13200	26015	-7351	-30336	9280	13012	-10255	-14249	9208	-17524	13544	16560	-14261	9380	-15512	-27456	10280	-10756	-3367	16078	17596	-22944	-8268	-21808	-8808	14026	15632	142	152	1
-32768	-10196	27940	-13303	32767	32767	-30884	-1944	8788	-26845	29136	-2054	-25816	-8684	672	-32768	-15393	7842	-19504	1952	17524	-9314	917	-10768	-12652	7484	-11656	14541	14039	9100	-17948	-11584	-12616	4111	13639	14258	126	119	1
-32760	-32768	28340	-9743	15651	32767	-28792	-21888	8192	-12080	21452	-1790	-28032	-11712	-16160	-28754	-15104	1735	-11224	8064	16272	-3706	-831	-6630	-17832	9428	-6956	17383	10422	6863	-21380	24900	-15536	10186	8623	5268	125	132	1
-22916	-32768	24404	10091	-506	32767	-16848	-5044	-9148	13460	10546	-5336	-30152	-1372	-9944	-10820	-18070	-4252	-9228	6320	13944	-2132	1124	-2587	-19412	5528	-6088	11439	9175	4971	-22892	12008	-11688	-13061	13924	5414	117	150	1
-26380	-32768	32767	-3989	-24190	5296	-19916	-4840	-2708	-10410	7771	-1098	-31084	3616	-10820	1702	-23499	-5265	-9380	5836	13352	-358	1767	-1160	-16344	4016	-4616	3911	8165	3131	-14620	-4760	-5300	-9865	12901	2573	122	178	1
7668	-32120	-5340	4328	-24653	-18723	-11372	1216	6160	-4477	-970	-614	-29000	3876	-5604	1944	-23471	-4256	-8248	6476	13380	281	2290	-1473	-17604	4024	-3356	5687	6515	2276	-13792	1132	-4768	200	15088	-153	124	156	1
7056	-10028	-1960	1133	-14834	-21038	-9316	2988	2728	-3740	-10626	602	-22948	-368	-6844	155	-25182	-5311	-7988	7936	12872	313	2667	-1911	-17072	5236	-636	6486	4910	1450	-17260	7328	-4476	842	14823	2346	131	145	1
2836	-7708	3352	-16778	-9550	-22824	-9760	-2196	408	-371	-18817	1547	-18148	-252	-8312	3752	-20689	-5015	-8956	7336	12676	260	2563	-3355	-16696	3796	-1960	11511	3929	1707	-18180	2548	-3244	-1043	17366	5252	142	152	1
-5892	-19788	11212	-20811	-13863	-28202	-8888	-2332	-676	5486	-25249	759	-16112	1872	-8560	5128	-19538	-2930	-9160	5680	13124	234	2714	-3381	-16976	5032	-3100	7536	3208	1189	-16248	-1140	-2860	5679	18843	7361	144	93	1
-5620	-14520	13228	-15156	-19768	-32768	-10096	-144	-644	9443	-30369	332	-13252	168	-8376	4820	-18864	-3550	-8768	5960	12756	487	3088	-2670	-16704	2744	-2884	4992	2802	748	-14388	-504	372	14828	19054	7451	145	41	1
-3096	-5600	13748	-18485	-21136	-32768	-11668	4408	-1160	10956	-32768	2283	-11512	-2152	-9508	5340	-17042	-3730	-9180	6184	12536	701	3260	-2527	-16020	2832	-1312	9620	2647	756	-14144	160	2448	14044	17719	5710	132	115	1
-6296	-9976	18228	-22289	-22325	-32768	-12340	1312	-2428	11534	-32768	4778	-8280	-1872	-10884	9236	-14353	-3896	-9396	6440	11928	786	2092	-3330	-14320	4244	224	10767	3149	1363	-13820	-2284	828	8576	15961	5513	122	96	1
-9140	-12368	20076	-19267	-24398	-32768	-14252	2572	-4128	10346	-32768	7577	-7004	-3384	-11368	13989	-12118	-2910	-9548	6364	12168	537	828	-3583	-13500	3188	864	9362	4606	1669	-14608	-1760	200	4497	14117	4625	107	115	1
-9860	-9668	21172	-18963	-24194	-32768	-16556	4232	-4816	10770	-32768	12334	-4128	-2644	-13472	21208	-9991	-1915	-8560	5488	12188	52	460	-3788	-13824	3380	320	5874	6227	1707	-17056	3116	2336	2976	10998	4256	116	115	1
-14412	-14840	24944	-19568	-24133	-32768	-19932	1096	-5288	10088	-32768	16021	-2628	-3076	-15872	22679	-7609	-866	-8720	5104	13192	-356	1088	-3686	-15392	1544	-1204	3399	7701	1890	-18196	4968	-672	2961	4811	4150	124	124	1
-19404	-20004	28772	-17525	-25362	-32768	-26616	-332	-5460	10124	-32768	16369	-3148	-512	-15664	18741	-2311	1115	-8640	5304	13520	-69	3070	-4162	-18524	1384	-3152	2442	8345	1939	-17184	2436	-2716	1426	6788	2708	147	124	1
-25420	-22648	29444	-14515	-23409	-32768	-32768	300	-6372	12588	-32768	18866	-3672	520	-11948	15140	865	3875	-9072	5428	14016	741	5554	-4143	-18632	996	-3364	2606	8409	1969	-17496	716	-3604	3619	9474	1214	146	127	1
-32768	-14624	32767	-16913	-19144	-32768	-32768	-9336	-10684	6612	-32768	23875	-3512	472	-10124	15020	354	3733	-9372	6648	13508	767	8024	-4195	-17836	3060	696	4099	10402	2411	-20576	1604	1520	1893	9112	1792	128	134	1
-32768	-6428	26768	-11432	-20042	-32768	-32768	-11020	-11388	6065	-32768	23716	-27064	324	26704	2975	-25407	-1251	-9900	5512	15236	270	10506	-4453	-18660	3384	3072	1774	13115	1203	-20252	940	7800	2439	6565	2937	127	123	1
-32768	23832	880	2044	-10249	-28449	-26128	-8580	-27112	2176	-29595	14168	-32768	2108	22544	6050	-14138	-15965	-10220	10016	14160	-1275	13406	-5776	-20968	2696	556	-1739	15291	2764	-20692	-2500	5516	4183	6355	3473	134	114	1
-32768	32767	-7812	-14679	1505	-1973	-12220	-13360	-29456	-16180	-12274	2303	-7084	10932	32767	18524	8659	-795	-10328	6224	15064	-2408	17260	-8197	-20804	1488	-632	320	17341	2847	-19020	552	4064	7525	8196	1217	148	114	1
-32768	27804	2384	-11504	588	10303	-6700	-27384	-32768	-6139	9896	-4569	-17204	32767	27676	24618	22966	7512	-10284	6780	15556	-3779	22733	-9541	-22268	1952	-176	-2089	19438	2327	-21108	5892	2264	6542	7492	-447	127	123	1
-32768	15120	2100	11088	3797	14258	-18032	-15524	-27396	13577	25482	-13421	-25556	10912	10924	-133	6779	13259	-11188	7704	14548	-2526	28991	-13140	-23724	664	1616	-347	21124	3112	-22940	3816	5448	6116	6516	-1374	132	123	1
2068	-19672	9952	32767	20218	18064	-24988	2508	14372	22675	27300	-14777	-15200	3236	12272	8983	-16632	2267	-11252	8168	13456	142	32767	-18509	-24284	-1624	3512	3830	22208	4244	-21912	488	9648	10098	3371	-2754	113	115	1
32767	-17088	-112	8060	29320	24593	-32768	32767	32767	28014	958	1994	8812	-14984	-32768	-32768	20765	-25496	-10312	10284	15024	3383	32767	-24576	-31616	-3468	4348	7488	22122	2774	-26460	-5096	14808	8689	-5659	-4716	130	124	1
-32768	16716	17816	23145	32767	15536	-32768	19044	22156	26252	491	4578	-32768	-11668	21432	32767	-11742	-6808	-24140	19012	14848	2781	32767	-31627	-31316	1476	12488	24062	23803	2597	-25604	-6100	12920	14019	-12251	-10121	126	125	1
1568	5036	23860	11476	7603	7272	-32768	-600	-6004	6709	18155	-20637	-32768	24928	-14604	15860	19537	-9529	-32768	4652	17256	4879	32767	-32768	-26404	11756	-984	11756	26664	5544	-21408	-5668	9224	980	-18468	-8240	151	139	1
-16744	-2016	19640	2472	3519	4442	-10760	-612	-5572	-4152	15093	-9415	3548	2600	-5272	-32768	18334	-11729	-32768	31380	22164	14712	32767	-32768	-29416	17540	3136	7439	24501	765	-23784	14140	-7896	27392	-16560	-1884	121	142	1
-9744	-14960	10180	5041	1221	1463	-17096	-10896	-3660	-8688	12172	-9189	-7924	-19312	-16612	-23551	-5284	-1132	-27880	19204	20760	5555	15198	-32768	-22396	16436	-7964	-22381	22674	7396	-25296	13844	-14604	20061	-14542	115	119	148	1
-7052	-6972	14348	3412	160	1511	-18576	-208	-488	-3397	10373	-6493	-20736	-31624	-6204	12477	20995	-3811	-32768	25792	21260	-3101	5767	-26682	-21656	2524	-11860	-6935	17088	1678	-28968	1464	-14056	4385	-23778	2996	113	159	1
-5892	-6940	13704	1428	892	278	-19248	-2260	108	-6243	8957	-5165	-24176	3320	-6224	21953	11816	-7229	-7384	29720	13976	-6496	-17144	-1780	-15472	2200	-1744	14056	7960	3216	-30492	-3564	-11440	-5816	-30133	1258	94	144	1
-6620	-7532	12892	590	1008	101	-18120	-2736	-600	-654	6850	-5583	-13860	8252	-2204	5085	9718	-7542	1040	14292	8224	-6619	-15796	4753	-10908	2628	-736	12061	-337	2174	-25892	-1924	-8336	-1113	-31290	-624	106	145	1
-6332	-7208	13092	-303	1405	421	-17516	-256	-24	303	5339	-3938	-12368	484	-1140	-3492	12508	-1910	2628	7688	6028	4206	-14188	8982	-6916	2820	-1436	7850	-6825	702	-21476	892	-7872	-2837	-28373	3429	108	104	1
-6616	-7572	12772	-857	1584	435	-17308	-1236	764	-4917	4955	-3633	-15752	-3384	-4300	-2507	14156	-1514	-1072	12140	6540	10647	-14884	12836	-5204	5800	-2744	-140	-13297	-421	-16192	-224	-7772	-5190	-22457	4603	166	107	1
-6116	-8172	12380	-802	1816	1456	-16760	-700	2200	-7649	4413	-3189	-19280	-1572	-2008	-2832	13959	-5632	-5824	15336	9160	8969	-20376	18122	-4992	4412	-3932	-5566	-19510	-557	-13476	364	-8676	-5435	-18790	3861	181	94	1
-6616	-8020	12028	-44	1774	2330	-16620	-640	2164	-8507	4377	-3135	-15920	-20	12	-10763	15227	-6688	-6560	11756	9560	7026	-25379	24874	-6628	2364	-3704	-6769	-24328	-949	-12196	1360	-8640	-6092	-17569	2273	135	102	1
-6220	-7460	12660	-407	1693	2066	-17208	-1880	1228	-4237	3859	-2663	-14240	-508	-564	-13192	16691	-5186	-5700	7728	9816	8458	-26055	30314	-8296	412	-3088	-6365	-28777	-2389	-10600	2028	-7712	-7310	-16692	1212	88	121	1
-6428	-7188	12788	-1011	1640	1939	-16636	272	1460	-4576	4186	-2769	-15884	24	1924	-11503	15942	-3848	-7904	7472	11520	9315	-25931	32767	-9188	1424	-3484	-8900	-32768	-4065	-9444	2320	-8720	-11220	-14849	898	111	133	1
-6756	-7352	12184	-1148	1601	2666	-15736	-1716	2524	-7682	5039	-2475	-15260	-12	1512	-11149	11668	-3789	-12720	7932	14948	8845	-27906	32767	-10332	2228	-5464	-13486	-32768	-5464	-7692	2632	-9740	-14986	-12428	485	129	120	1
-6688	-8096	12080	-801	880	3791	-15480	-3072	2460	-7891	5680	-2647	-15088	-2152	3016	-10054	12666	-3608	-17096	9308	17824	8405	-32096	32767	-12012	2436	-6844	-15864	-32768	-8543	-6768	2860	-11244	-19766	-9796	-305	123	110	1
-6628	-7540	11972	-123	509	4713	-16356	-1744	1872	-6316	6618	-2635	-16912	-2828	4932	803	12664	-6785	-18036	9224	19196	7938	-32768	32767	-15776	1372	-7304	-15961	-32768	-11631	-4836	2944	-12600	-21194	-7061	-147	131	121	1
-6916	-7720	12540	-584	245	5364	-16184	-944	1884	-6747	7747	-3222	-17392	-760	-1440	-5812	5391	-7816	-21880	11000	23144	9201	-32768	32767	-20380	2348	-9776	-16157	-32768	-14849	-4592	1276	-13744	-17943	-3371	84	122	132	1
-7004	-7372	12504	-1543	47	6366	-16760	-1680	724	-7657	8507	-3755	-16624	-3624	1728	-8030	5693	-5153	-30108	17924	28716	7634	-32768	32767	-26428	2896	-11680	-14499	-32768	-18424	-5048	-480	-11492	-9765	852	-440	116	133	1
-7424	-7744	12604	-2651	1199	6519	-18940	-3260	516	-6310	9143	-3404	-17448	-5716	960	-4762	8189	-2827	-32768	7412	29600	5507	-32768	32767	-30720	120	-13352	-1317	-32768	-19598	-8280	300	-4244	-6141	-348	-1176	114	139	1
-7704	-8460	14460	-3416	3535	6190	-18764	-260	1024	-6590	10237	-3443	-17404	-5436	764	-4396	8443	-2766	-32768	2280	27016	9352	-32768	32767	-32768	17576	-15440	4411	-32768	-18621	-15900	3796	6972	-2993	-7108	2757	112	134	1
-7768	-6304	14140	-816	8988	8055	-19236	428	612	-3954	12108	-3720	-19284	-944	4388	-2651	9100	-3002	-32768	-5228	8036	3362	-32768	19586	-29652	13932	-21624	-9519	-32768	-11063	-30608	-1904	17368	9106	-18785	3803	115	131	1
-7572	-6784	14332	-244	13561	8618	-20148	936	1312	-1685	14603	-3974	-19988	2812	7068	-2574	8031	-1420	-32768	-32768	-14096	16144	-28805	3941	-12400	5864	-30540	7852	-22432	-3776	-26376	4656	32767	-12387	7152	5353	124	119	1
-8080	-7020	14056	322	18704	10460	-20708	1340	1868	-608	17564	-4698	-19936	3284	8008	-3313	8046	-741	-32768	-31316	-23308	20314	-9039	-2390	1812	13836	-30512	13989	479	4489	-19616	-32768	32767	-29106	11373	4756	124	111	1
-7968	-9308	15080	2743	23284	12432	-21940	40	3216	580	20468	-4937	-20648	-1296	8500	-4859	7794	1166	-32768	-22716	-10976	-6356	6090	-10527	-7856	15032	-30260	-4952	20603	8610	-16984	-26364	9668	-3738	7593	-7198	122	111	1
-9728	-10692	13392	4520	29771	16925	-26128	1728	5436	-343	22655	-5464	-22828	596	11828	-8855	4142	2688	-31728	8744	13556	-23593	20982	-744	-17776	-2668	-9768	-12360	30065	9590	-12544	-9108	14688	-630	-14673	-12250	127	117	1
-10968	-18400	17812	2031	32767	27338	-31504	8924	6472	-12915	25143	-7631	-25884	8612	23148	-18613	-7754	6385	32767	8908	17040	-12747	29004	-13406	-32768	-2840	32767	-32768	9452	6232	5200	13808	-32768	32767	19674	9134	132	114	1
-9348	-29596	14332	2821	32767	31372	-32768	4484	23096	-30461	28401	-2125	-25000	24416	22896	-3145	-9342	14027	-32768	-320	32767	-17192	29098	-27638	-32768	11684	23736	-32768	10930	11548	-32768	32012	23556	-23650	-16548	16739	139	141	1
-23640	-6228	18660	-6261	32767	32767	-32768	2604	6492	-8839	25458	-8424	-30212	664	15452	-21815	-14288	6100	-10084	7512	21772	-21739	8271	-13628	-24336	11860	-7792	-1609	18274	18550	-27572	-23108	-16088	-30436	13975	14226	138	161	1
-32768	-32768	32767	-19840	32767	32767	-32768	-15164	7104	-27240	28462	2812	-31148	-16988	-10628	-32768	-13129	6977	-23924	7476	16172	-6873	4356	-10273	-11756	2424	-12816	14753	14932	8177	13144	-10588	-21840	24660	4922	13469	125	136	1
-29568	-30240	27412	-20144	6590	32767	-28468	-14972	11080	-208	19589	-3834	-28756	-15044	-13984	-14844	-21037	-1069	-5772	4008	17736	-5032	1065	-6541	-17092	13868	-4832	17001	10854	7894	-17032	25384	-10600	20567	6394	2776	124	161	1
-27092	-32768	30956	-10467	-8991	32767	-17464	-5404	-9256	8883	10540	-4464	-30424	-6468	-6352	3746	-22219	-1271	-12804	5472	14868	-2252	1278	-3255	-20368	3568	-6380	5032	9830	3588	-25460	23888	-9500	-15770	17166	4342	128	151	1
-26792	-32768	29608	-9110	-32768	420	-16960	-8960	-3028	-11621	7879	1567	-29812	5100	-9320	11283	-22418	-3085	-9540	6212	13400	-739	1870	-1631	-15788	5584	-4928	4055	8696	2682	-18012	-2560	-4740	-15501	14352	6955	112	137	1
4172	-30284	-4948	10786	-32768	-18352	-11220	452	5500	605	-2279	-906	-26180	5824	-6392	1505	-22591	-2211	-7888	6972	13580	-333	2283	-1517	-17644	4160	-2856	3157	6771	1793	-12740	-3780	-4064	-1236	15717	524	123	152	1
7372	-8224	-3604	9107	-25152	-18840	-9660	5120	2244	1794	-10789	2009	-23228	-2092	-7652	379	-25853	-6007	-8052	7264	13092	61	2395	-2164	-15564	1952	-976	7141	5394	1577	-14728	5508	-2984	3251	16372	2992	131	144	1
4768	-3540	556	-15020	-15247	-20950	-8576	1220	256	629	-18328	4740	-18180	-280	-9240	3884	-22078	-4185	-8712	6652	12800	70	2110	-2853	-16644	4172	-2204	10236	4544	2112	-17752	3204	-3772	1003	18656	6211	119	140	1
-2560	-19488	5064	-22475	-13952	-26582	-7480	-1008	-404	1602	-24621	5002	-14744	748	-9784	7785	-19791	-2028	-8356	5140	13348	358	2492	-2611	-16376	3520	-2724	4017	4053	1598	-16276	-3840	-1776	6183	18897	6973	137	97	1
-6492	-19256	10068	-12963	-17341	-32768	-8252	-2548	-844	3970	-29601	3714	-11696	-64	-9388	9242	-18283	-1878	-8580	5824	13076	467	3079	-2180	-16632	2108	-2904	4791	3809	1338	-14020	-3596	2796	17213	19294	6890	144	89	1
-6100	-9612	12108	-13152	-20252	-32768	-11456	-16	-884	9397	-32768	4381	-10640	-1224	-9352	8388	-15952	-1911	-9340	6472	12476	654	2755	-2589	-15860	3572	-984	10537	3767	1951	-14964	188	2096	16394	17908	6597	138	87	1
-6728	-9464	14676	-19272	-20950	-32768	-13168	-1192	-2044	13165	-32768	6187	-7836	-1664	-10964	9370	-13281	-3141	-9236	6848	11952	570	1785	-3535	-14188	5000	0	11186	4202	2086	-12396	304	-1496	11279	15063	5508	131	91	1
-12184	-14776	18760	-19145	-23674	-32768	-14876	288	-3156	12056	-32768	7776	-7008	-2944	-12048	12595	-10770	-2160	-8348	5936	12616	53	755	-4277	-14460	3484	-528	8199	5019	1952	-14820	920	-932	7083	13164	4990	109	112	1
-12084	-13344	19684	-16752	-24292	-32768	-17768	2884	-3776	13486	-32768	11377	-3996	-3096	-14064	21069	-8725	-903	-8392	5408	12800	96	741	-3975	-14956	2352	-1128	7769	6308	1893	-17460	5040	-16	5608	9211	4368	120	118	1
-16048	-16732	23892	-17475	-22893	-32768	-21428	1136	-5300	12566	-32768	14236	-2584	-3304	-16372	22261	-6289	-445	-8540	5692	13160	196	1313	-3520	-16044	2852	-1544	5916	7381	2053	-17300	4840	-1884	3643	4761	4114	122	122	1
-22140	-24244	28832	-14929	-22986	-32768	-29744	-1356	-5692	12075	-32768	17806	-4336	-256	-16284	17351	-1290	1622	-8588	5668	13192	834	2477	-3586	-17140	2708	-1980	4514	8206	2119	-16572	3240	-424	3252	8240	1790	145	125	1
-32524	-24888	31068	-9031	-21875	-32768	-32768	552	-7508	13520	-32768	21615	-3976	116	-15628	16554	-756	2687	-8800	6764	13968	564	4651	-4180	-18276	3552	-1604	4183	9153	1819	-18404	3428	-500	2972	9762	1455	146	126	1
-32768	-11684	32767	-14493	-21051	-32768	-32768	-14308	-12552	89	-32768	24310	-8232	-268	4488	14860	-8728	1800	-9128	6520	14084	266	7622	-5292	-18348	2760	220	3169	10829	2464	-20588	3836	3048	2333	9752	1847	125	130	1
-32768	-2612	17904	-7784	-27509	-32768	-32768	-21268	-20140	17842	-32768	17224	-31256	616	20992	1220	-26494	-7074	-9048	7460	14516	-632	10539	-5761	-18240	4800	-140	409	13173	2114	-21384	-272	7040	2825	7983	3028	125	124	1
-32768	30036	-4524	-1621	-16225	-22306	-20996	-10404	-32768	8213	-26313	2407	-29624	-628	32767	15541	-7561	-12858	-9392	8472	14940	-1669	14111	-7180	-21444	3084	-280	1312	15761	3505	-20560	-5100	6276	5540	6432	2944	158	118	1
-32768	32767	-2260	-15993	-2062	-4694	-8468	-16408	-32768	-8534	-4386	970	-6368	19008	32767	26564	16377	4989	-9964	6292	16216	-2378	18752	-8267	-19612	736	-448	-112	18387	3172	-18400	-960	5880	7246	7475	866	126	117	1
-32768	27328	-2360	5961	4067	6630	-12388	-24112	-32716	5303	15736	-9471	-20644	31972	20892	28374	18850	5815	-10864	6556	15700	-3541	24115	-10240	-22668	1796	52	-1225	20776	2966	-21816	4936	4908	8582	7681	-767	123	124	1
-32768	4924	14552	32767	25155	17470	-18584	-12000	-19808	22779	26875	-15611	-19200	7844	4232	-11303	1205	9612	-11196	7728	14784	-1298	30411	-14736	-24796	884	2588	1999	22691	4579	-23296	2848	7992	10207	5407	-2044	124	123	1
32767	-30812	32767	21639	30580	8119	-32768	32767	32767	32767	11295	-9441	-8988	9744	-3304	14877	986	2773	-10348	10308	16720	514	32767	-20874	-28588	1396	5228	6402	24062	4689	-25432	-4	12196	11098	-306	-4072	115	128	1
-32768	19244	23772	16812	32767	24846	-16916	-25084	-32764	13875	9031	-7828	-30292	-7400	2844	14783	3014	-14936	-13580	11708	14824	4134	32767	-30134	-32768	-7912	9868	16874	23468	4066	-29024	-1672	17452	6689	-12824	-6940	129	125	1
-2196	-27460	32767	13671	25601	9604	-32756	4800	944	11931	22869	-25279	-22404	5332	-5540	7534	9832	129	-24784	26644	16244	-858	32767	-32768	-29132	12204	6592	22061	24338	5526	-23904	-14720	19356	-9868	-18247	-14938	150	127	1
-26928	-13368	20120	6804	4156	7645	-17056	-15596	-11848	2114	14749	-9190	-7812	6736	-13484	-19996	10744	-15525	-32768	-6740	18200	15415	32767	-32768	-25432	9616	2280	19491	27680	3288	-22464	1932	-3716	19704	-17698	-4654	125	131	1
-10760	-10832	14244	6836	1564	4867	-16248	-9448	-5416	-11039	12788	-10788	-3516	-15336	-28476	-32768	251	-3752	-32768	32767	23780	14112	24705	-32768	-26988	22156	1196	2275	21045	5385	-29320	14588	-11784	32767	-13558	-2902	121	146	1
-9556	-9076	14092	5139	636	1853	-19208	-3572	-1304	-4690	10282	-7714	-21952	-32768	-6176	4673	15480	-79	-16996	30024	16392	-1446	19560	-32768	-18960	7968	-9488	-23369	18455	6314	-29140	6024	-15952	17497	-17352	4071	112	140	1
-6164	-8280	13340	3152	782	789	-19604	-2384	1016	-1731	8456	-5144	-22916	-4016	-7528	27203	14574	-7750	-31200	32767	27188	2065	-2143	-12112	-18820	4216	-14324	2299	11911	1265	-27672	1376	-14316	-2321	-25997	6367	111	144	1
-6032	-6768	13224	2106	663	743	-17372	-212	-508	-111	6867	-4961	-17884	13544	-1964	13442	10630	-9346	-6996	31556	12804	-7040	-12685	9973	-11648	2660	-1668	15078	3963	2670	-28680	580	-7532	-7967	-31582	596	99	142	1
-5564	-6920	13188	937	1241	988	-17444	592	820	-789	5670	-4199	-12576	5924	-1036	-724	11699	-3100	1884	10856	6176	-8018	-16214	15409	-7224	4160	196	10609	-3015	2888	-21956	-1412	-5852	-4836	-29011	1494	88	134	1
-5676	-7496	12600	44	1086	1647	-17148	324	1248	-5590	5082	-3686	-14908	-1728	-2600	-4631	12927	-332	3668	4032	4872	1939	-14717	15556	-5592	4660	-844	1172	-9228	1605	-18276	-980	-6616	-6132	-23859	4690	138	77	1
-6292	-8328	12492	-227	1216	2315	-17424	-380	2672	-9666	4993	-2824	-19040	-2816	-1412	-2810	13730	-3563	-1360	7284	7084	9603	-14330	15196	-5812	3668	-2328	-10905	-14805	610	-14008	-1648	-7500	-6236	-20209	3494	166	88	1
-7036	-7628	12548	-381	789	2933	-16676	-2300	1700	-12318	5122	-3189	-16372	-224	120	-8058	15146	-5796	-6272	11976	11644	8907	-19454	18001	-5740	1736	-5036	-14903	-20452	433	-13008	-1376	-8340	-6567	-18503	2236	136	118	1
-6888	-7248	12524	-717	432	2491	-16472	-2920	480	-7243	4635	-3025	-14136	-920	-60	-12943	16318	-5199	-7468	9716	13448	7335	-26227	25767	-7676	-1916	-5056	-8278	-24744	-1640	-11096	-1180	-7000	-6043	-18251	1255	106	112	1
-6848	-6684	12968	-729	553	2233	-17044	-560	1048	-4588	4289	-2473	-14928	-1184	1340	-13888	16269	-4610	-5592	5108	12900	7506	-28140	31364	-9032	-3200	-3716	-3162	-28747	-3349	-10060	660	-7244	-7697	-17524	410	116	125	1
-6344	-7388	12712	-986	418	2632	-16404	-900	2000	-7977	4927	-2060	-16136	-208	956	-12426	14573	-4505	-6860	3676	13844	8019	-27831	32767	-9400	-972	-4220	-7672	-32704	-4629	-9536	392	-8640	-10351	-15294	-286	128	130	1
-7020	-7260	12380	-857	-164	3622	-15092	-1408	2368	-8936	5593	-2658	-14476	-724	956	-9273	12609	-3674	-12348	4880	17468	8166	-30443	32767	-10696	920	-5836	-11193	-32768	-6860	-9104	644	-9620	-12756	-11999	-799	133	111	1
-6240	-7324	12252	-75	-351	4161	-15056	-1832	2556	-7486	6669	-2550	-14960	-2780	5520	-3601	13595	-3393	-14180	5300	19552	7896	-32768	32579	-13048	168	-7112	-12763	-32768	-9725	-7900	1492	-11004	-15288	-8774	-1767	133	117	1
-6728	-7324	12564	186	-530	4361	-16240	-2128	1740	-3421	7670	-2770	-17044	-2764	3108	1658	8300	-5190	-15292	5480	21900	10185	-32768	32767	-16900	-528	-9508	-13304	-32768	-13133	-6248	2136	-12688	-15944	-5494	-1679	128	127	1
-6516	-7240	12704	-825	-398	4644	-16864	-928	764	-2723	8735	-3252	-17268	-3172	-532	-3472	4160	-5869	-22472	11228	27216	12910	-32768	32767	-20868	-488	-11380	-9150	-32768	-16820	-6188	1192	-14108	-13213	-1522	-1644	115	134	1
-6528	-7596	12744	-977	-472	4767	-18164	-2080	-256	-2312	9263	-3225	-16840	-6068	1648	-1783	8593	-3676	-27252	10892	27880	8923	-32768	32767	-26204	-596	-14096	-2093	-32768	-18387	-6044	-2224	-12348	-7622	3186	-1960	112	137	1
-7116	-6364	13024	-4258	1090	4662	-18636	-1036	696	-2363	10138	-3135	-17476	-3140	-748	613	8850	-3144	-32768	1700	30680	11059	-32768	32767	-29944	7452	-16692	3982	-32768	-19378	-5660	-756	-11040	-6660	3231	-1347	110	141	1
-5952	-7724	13492	373	7035	6918	-18880	540	868	-2236	11394	-3265	-18572	776	1884	-261	8014	-3655	-32768	2520	23452	9862	-32768	28805	-32768	18568	-18852	456	-32768	-15943	-15544	3040	8196	8078	-5374	5093	115	136	1
-6732	-8008	14220	410	10634	7372	-18364	556	460	-1301	13706	-3657	-18520	1788	6972	-2107	8772	-2011	-32768	-13188	1628	7597	-32768	14017	-24956	9884	-26892	-4512	-32768	-8900	-29012	1444	21524	6422	-12341	5183	119	129	1
-7400	-8284	14384	341	15444	8503	-21392	856	1148	656	16096	-3836	-19392	4008	6828	-3253	7905	-750	-32768	-31928	-19584	15613	-19938	5140	-8352	8472	-31868	4634	-15511	-2791	-28404	-1316	32767	-21951	5389	3657	126	112	1
-6872	-8332	15208	1011	19624	10644	-20796	1444	956	462	18449	-4622	-18436	2052	6380	-5728	8093	445	-32768	-28588	-22480	6371	432	1035	1040	14972	-32040	1204	6860	5227	-20684	-32768	25744	-32768	15820	7138	125	114	1
-8616	-8316	14996	4621	23378	12936	-21592	948	1556	1216	21017	-5241	-19092	-2256	7148	-5272	7238	2162	-32768	-21644	-8688	-16683	25054	-4626	-11028	14688	-29256	-17448	24548	11092	-17360	-20376	10588	3962	6891	-6325	127	117	1
-9780	-10704	14416	7634	28158	17648	-25188	1724	3576	-506	23102	-5972	-20656	-336	12200	-7629	3393	3787	26340	32767	32767	-7799	24143	10415	-32768	-32768	32767	-14038	16791	-1291	-12680	-1300	-5080	15293	1338	-8073	127	121	1
-10008	-15024	15036	5965	32767	25730	-32768	7840	9476	-12120	26327	-6744	-28248	1848	22820	-10894	-9447	7578	-26652	-19400	15152	-10699	32767	-32768	-22328	23744	-26092	-32768	19247	18259	-16364	6736	-11512	11421	3301	4749	140	116	1
-13588	-25848	12980	9409	32767	32767	-32768	-1432	20340	-19635	27632	-1211	-27784	7884	10628	-5553	-8654	10998	-28480	32767	17776	-24772	9331	-7060	-21692	6544	-6784	-12042	20455	8353	-25740	23072	7504	-5259	2366	10283	145	135	1
-26968	-7068	15688	-1985	32767	32767	-32580	4228	9168	-11016	27091	-8872	-29288	660	11756	-9482	-15882	7940	-7140	28	19364	-17084	6701	-15173	-15672	7768	-9484	-790	16518	14294	-16912	-11760	-15816	4787	14733	16029	147	165	1
-32768	-32768	23456	-11229	32767	32767	-32112	-12448	8160	-20908	27836	3592	-24272	-10120	-5960	-30378	-12270	5598	-13768	8616	12524	-9550	362	-8129	-14924	1416	-10132	15856	13713	8307	-10432	-10916	-15440	19391	10441	15413	125	113	1
-25636	-32620	25760	-8294	9280	32767	-26304	-14272	10436	2642	18248	-4851	-25516	-10496	-9488	-29111	-12054	5382	-11192	6092	15052	-3688	240	-6298	-19960	8288	-5716	14043	10047	6778	-25288	29576	-10872	6050	9743	3140	117	137	1
-27264	-32768	29476	-1551	-8160	32767	-24828	-12192	6376	8545	15678	-5528	-31204	1352	-7940	-7274	-20130	-1642	-9080	5368	14432	-2979	1278	-3805	-17624	7536	-5540	7067	9317	4576	-22820	11272	-9192	-16054	13584	3962	116	158	1
-18840	-32768	27352	-10008	-32768	-2614	-15964	-4048	1420	-12487	5768	112	-28360	5356	-9780	1903	-22688	-2911	-9232	7292	13008	-1170	1846	-1564	-16908	4468	-3832	-203	8540	2116	-14344	-5036	-4104	-10701	13816	2949	121	147	1
9088	-27272	-6416	5752	-31495	-16813	-10740	2160	7048	-6445	-4471	-1279	-28892	6072	-9536	2823	-22464	-2756	-8468	6916	13248	-445	2070	-1709	-17768	3040	-2904	3205	6783	1682	-13464	936	-4260	-1549	15802	1661	115	144	1
7328	-7600	-1280	-2794	-22691	-18089	-8908	3552	2788	-6604	-13475	708	-21932	-3616	-6684	-1143	-22559	-5592	-8432	7588	12764	16	2111	-2379	-15596	2428	-1236	8718	5309	1802	-15616	4444	-4308	-622	15942	4391	133	146	1
1692	-10644	4752	-23255	-16709	-22322	-10684	-2416	516	-3240	-20742	3071	-17804	-2328	-8724	3620	-20455	-4196	-8716	6640	12832	265	1912	-3536	-16584	3772	-2648	12824	4458	2407	-16972	-1480	-2740	2249	16266	5217	133	136	1
-4376	-23696	8784	-21136	-18019	-30531	-10400	-2056	1032	3190	-26647	2486	-15196	-1316	-7900	6760	-19003	-2639	-8316	5848	13300	542	2547	-2767	-16744	5044	-2788	6217	4098	1525	-15216	-1756	484	12497	17044	6189	137	83	1
-3216	-13156	10572	-12500	-18923	-32768	-11984	-68	8	10642	-32075	2222	-12860	-2480	-8192	6152	-18380	-3303	-9124	6896	12316	199	2892	-2255	-16676	4772	-3024	5295	4017	1383	-14656	1668	1420	18025	18036	5650	133	75	1
-4176	-7916	14216	-17623	-17880	-32768	-12700	2668	-2192	14601	-32768	4548	-10756	-3428	-9664	7798	-14961	-4814	-9256	6332	12344	452	2426	-3158	-15576	2936	-1176	9392	3790	1501	-14536	1912	728	14694	18041	5761	130	94	1
-8316	-14940	18660	-19662	-19051	-32768	-14804	3132	-2304	13948	-32768	8605	-7724	-2176	-11420	12292	-12568	-3793	-8812	6744	12164	454	1606	-3816	-14536	4384	-140	11859	4236	1929	-13984	-852	-44	10354	15802	5432	115	116	1
-10944	-12524	20948	-15980	-20666	-32768	-16760	3416	-3852	13946	-32768	10660	-6156	-2392	-12224	18904	-10846	-1985	-9124	6528	12712	33	970	-4355	-15060	3676	-208	8629	5233	1797	-14356	568	-132	5274	14693	4273	115	124	1
-13084	-12860	23568	-15864	-20653	-32768	-19168	2636	-4932	13081	-32768	14944	-3712	-2760	-14524	24018	-8871	71	-8848	5932	12636	-227	1266	-3962	-15108	2676	-748	5708	6579	1603	-17828	5020	-576	2314	10596	4396	131	122	1
-17284	-17372	26952	-14382	-21562	-32768	-23868	328	-4812	11060	-32768	17133	-1184	-4968	-15560	22498	-5384	-807	-8804	5580	13092	95	2031	-3759	-16244	2236	-2068	3048	7646	1602	-17164	4568	-2500	1822	5414	3284	136	125	1
-24572	-23952	31160	-13087	-23671	-32768	-32644	-2416	-5636	12055	-32768	20124	-3976	540	-13628	18542	-1425	4221	-8724	6872	13680	-131	3906	-3956	-17220	2536	-2724	3363	8316	1803	-17112	2960	-1312	1298	8168	1404	158	132	1
-32768	-19872	32412	-11286	-22950	-32768	-32768	-1112	-9852	8614	-32768	21400	-4400	1456	-5828	19296	-1774	3602	-9080	6244	13632	18	6618	-4383	-18184	3560	-808	3213	9518	1755	-19924	2456	1300	805	10037	1129	137	129	1
-32768	-17384	28944	654	-21156	-32768	-32768	-16632	-14860	5617	-32768	21473	-12680	2316	8044	15762	-11160	1258	-9752	6208	14676	-850	7952	-4778	-18624	176	180	2034	11762	2535	-20580	1676	5268	680	8724	2782	125	125	1
-32768	11664	7020	-22215	-27371	-32768	-27464	-7452	-24852	11832	-32768	8823	-32768	5392	24388	5547	-21945	-7349	-9928	7588	14028	-1414	11424	-6204	-19632	2108	680	-1234	14436	2518	-20888	-3912	6908	1936	6887	3799	123	115	1
-32768	32767	-1632	-9592	-7222	-17030	-16996	-15864	-27532	-3215	-18451	2589	-18244	12288	32767	18218	920	-1207	-9732	6756	15260	-1943	15713	-7574	-21496	928	-848	-129	16880	3225	-19312	-4916	5520	5385	6727	1702	148	116	1
-32768	32767	-3840	-7491	-3024	-12	-8184	-23208	-32468	-6188	1763	-4135	-11268	30608	32767	20992	16095	-50	-9768	6036	15632	-3372	20673	-8713	-21124	1144	-512	-1465	19303	2782	-20000	2568	4184	7764	8268	-161	129	117	1
-32768	24272	-3564	2748	5641	11815	-12548	-16936	-29108	10318	18781	-10647	-13756	31676	30224	22945	16944	43	-10648	7512	14840	-3696	26952	-10922	-23680	1120	1368	-1037	21500	3166	-23316	5140	5048	8587	7118	-943	130	119	1
-26208	-10676	18260	32767	24041	14485	-21444	-4392	-10140	19813	27331	-15832	-15852	132	-4332	-17571	-4341	5707	-11332	9112	14136	-1220	32552	-16530	-24384	264	3172	3032	23081	4973	-22516	1588	9132	9710	3798	-2197	136	125	1
32767	-16716	20348	15111	32767	11899	-32768	32767	32767	31636	7779	-2224	13084	-17836	-31836	-32768	23127	-20872	-11372	11804	14812	909	32767	-23928	-30808	-516	3836	6434	23435	4777	-26212	-3188	15048	10634	-3944	-4403	113	127	1
-32768	16116	32767	12378	32767	28083	-15944	-19936	-30220	10249	10581	-12755	-32768	-13940	15424	32767	-12422	-6682	-19684	12852	17292	4296	32767	-32768	-32768	-3948	14172	29094	24612	3763	-27552	-4652	13828	12113	-14861	-9337	141	126	1
-9716	-23520	9844	4453	12760	11478	-32768	20	172	5542	18007	-20200	-32768	25424	-2184	15614	17655	-780	-32768	14184	18420	717	32767	-32768	-27460	15048	-3100	11185	25457	6690	-21140	-8612	7276	5387	-15827	-8898	132	134	1
-13024	-4552	19512	7051	5986	2632	-14724	-6568	-2996	4240	15857	-13570	-2280	1256	-6816	-32768	19179	-13546	-32768	19752	21812	18831	32767	-32768	-26592	12592	-3068	12271	26403	6704	-23280	12788	-4828	24898	-17209	-2388	140	143	1
-10756	-13212	9268	8020	1017	3260	-14300	-7744	-5120	-5828	11706	-7043	-3572	-13288	-25652	-29959	-5069	-7119	-32100	20876	23556	14183	15562	-32768	-23652	19284	-7304	-13393	24085	6852	-24844	14224	-16748	25125	-13779	-191	113	142	1
-7380	-4648	16612	5244	731	1546	-15712	-4396	-4252	-6554	11719	-7543	-19344	-32768	-2140	7101	19378	-3164	-32768	27964	17988	-2371	4729	-27440	-21532	4096	-12136	-8225	18614	3580	-30804	1832	-15868	6321	-23176	3322	91	153	1
-5748	-8476	12860	2607	1145	451	-19448	-2428	-180	-7092	8456	-4172	-25048	1900	-9044	22935	14223	-4666	-8600	31748	14844	-9931	-20562	-1483	-16348	3532	-2460	10063	9877	3301	-30356	-1080	-11800	-7245	-31059	2285	72	141	1
-6376	-6996	13272	1097	1364	313	-18224	-2960	-1092	417	6673	-5141	-15064	7920	-2436	6866	10236	-7391	2952	13324	7896	-8314	-17769	6567	-11232	3176	-1536	7978	1593	2536	-27836	-240	-7112	-4638	-32768	232	107	143	1
-6008	-7024	13212	-21	1512	398	-17596	-252	132	1188	5164	-3926	-13004	784	-1580	-1576	12901	-2467	4980	6076	4724	4094	-14211	10522	-6464	1784	-1200	6547	-4877	192	-22196	608	-7100	-3014	-28580	5240	128	124	1
-6320	-7524	12644	-410	1381	631	-16808	-128	760	-4349	4780	-3142	-14836	-2204	-4128	-1362	14112	-643	168	12204	5492	9635	-14575	13119	-4900	6300	-2012	260	-11232	-597	-17028	-948	-8284	-5143	-23849	5873	162	24	1
-6436	-7724	12628	-485	1289	1445	-16760	116	1872	-9904	4600	-2360	-19392	-200	-2200	-459	14743	-4288	-2216	14388	6724	5176	-18380	15377	-4896	3868	-2852	-8969	-17593	-485	-13132	-548	-9296	-7251	-20689	4369	170	107	1
-6468	-8404	12272	-703	1162	2244	-16776	-980	2336	-14653	4722	-2662	-16408	1936	-208	-10589	15542	-6265	-2588	8964	7832	4319	-20572	20658	-5892	-396	-4248	-11751	-22816	-1201	-12588	-816	-8828	-6901	-18703	2758	108	113	1
-6564	-7192	12908	-1152	736	2093	-17564	-4092	172	-8775	3910	-2421	-14428	-1220	-208	-16771	17285	-4561	-2964	8312	8016	4989	-20741	21886	-7208	-2948	-4220	-8559	-27394	-2411	-9936	-1368	-7692	-7542	-17815	809	133	109	1
-6616	-6868	13052	-1295	789	2086	-17116	-12	1512	-3319	3558	-2283	-14800	-3264	1492	-13110	16784	-3742	-6140	7860	13248	11548	-21074	32375	-8820	-476	-4680	-7946	-31472	-3503	-8936	-1632	-7976	-9823	-16182	-424	109	137	1
-6612	-8160	11764	-1134	291	2846	-14884	-1224	3460	-9095	4586	-1751	-15144	-1516	1560	-10342	13650	-4056	-10768	7456	17732	9051	-24157	32767	-10052	708	-5552	-10592	-32768	-5166	-8520	-764	-8156	-11205	-14129	-1740	131	119	1
-6880	-7788	11896	251	-787	4225	-15092	-2512	3168	-9268	5512	-2379	-14736	-464	3496	-8635	12268	-4033	-13152	4816	20260	8455	-29427	32767	-11668	972	-6780	-14063	-32768	-8020	-8516	188	-8408	-11935	-13486	-1741	124	115	1
-6832	-6964	12756	481	-995	4664	-15772	-1460	2316	-5718	6666	-2276	-16340	-784	7420	1090	12560	-4731	-15392	5324	22072	10485	-32768	32767	-14556	-344	-7872	-15651	-32768	-11322	-6936	1964	-11324	-16758	-7389	-2129	133	121	1
-6300	-7104	12512	359	-846	4856	-15676	-552	2468	-3917	8448	-3002	-18276	636	2120	-3230	5150	-7112	-19864	8876	26052	11808	-32768	32767	-17664	-128	-10072	-12685	-32768	-14868	-6328	1808	-13692	-17694	-4304	-2833	128	131	1
-6488	-7692	12680	-695	-1006	5639	-17340	-1252	692	-1985	9276	-3591	-16900	-4092	1316	-4623	4334	-5262	-23016	11536	28612	10922	-32768	32767	-23072	-180	-11556	-9228	-32768	-17945	-5528	128	-13280	-10774	-289	-2563	123	137	1
-7208	-7340	13000	-2868	-636	5848	-18648	-2100	48	-3434	10053	-3522	-16936	-7232	-72	-2312	8338	-2873	-29576	8340	31588	10144	-32768	32767	-28444	128	-14348	-1050	-32768	-20228	-5644	-1124	-9724	-3510	2526	-1374	115	134	1
-7324	-7340	12496	-4366	883	6347	-18756	-2036	680	-3226	10697	-3603	-17476	-3280	-1704	-1042	8867	-2800	-32768	828	32592	12893	-32768	32767	-32768	10860	-16296	9152	-32768	-21338	-9540	4396	-320	-1881	783	1725	112	135	1
-5696	-3100	14788	1861	7486	9660	-18820	956	-88	-2821	12417	-4554	-18912	-40	2624	-2217	7891	-3511	-32768	-2184	22028	9071	-32768	20608	-32768	15260	-19848	1343	-32768	-15526	-21176	2968	17004	9351	-13422	5738	114	142	1
-6724	-7792	14616	788	11149	9087	-19264	956	348	-1932	14598	-3903	-19252	644	7544	-4179	8524	-1363	-32768	-20824	-4144	9575	-32768	5498	-19900	11044	-31096	4049	-29158	-7356	-29424	2316	28976	5132	-4247	4089	124	112	1
-7416	-7196	14656	680	16493	10152	-21776	2064	796	150	16871	-4361	-19516	5752	7108	-3105	7448	-1487	-32768	-32768	-20240	15524	-15864	-2374	-2808	9916	-32768	9855	-7854	-774	-18144	-20340	32767	-21017	7914	6075	127	119	1
-7168	-7360	15984	2591	20817	12219	-20804	1656	652	-15	19575	-5421	-18832	2232	7376	-4115	7763	1025	-32768	-24692	-19856	-4104	3411	-4609	-2288	17364	-32768	-2600	14739	5803	-21244	-32768	13876	-20237	14117	2171	123	119	1
-8992	-8392	15964	6832	25532	14956	-23456	1972	2232	1011	22075	-5837	-19920	-1644	8320	-5828	6030	3573	-32768	-13800	2720	-15539	25787	-4127	-14848	10976	-22812	-13595	28686	10795	-15428	-12344	4396	11794	2911	-9810	122	115	1
-9164	-9792	14456	7435	31868	20701	-28040	3872	3524	-2413	24003	-6876	-22012	1188	16916	-9909	1372	4860	32767	32767	32767	-2520	19520	5811	-32768	-32768	32767	-16197	10822	-1087	-1020	-4868	-13360	89	5287	-9193	126	126	1
-8844	-18600	17552	7516	32767	27314	-32768	7124	19192	-17818	28614	-5452	-29084	2004	24200	-3350	-12485	9601	-32768	-3088	13992	-13272	32767	-32768	-17740	15764	-31068	-32768	17812	16478	-32768	14884	11392	-13614	-5484	13439	140	128	1
-25900	-25212	14340	3997	32767	32767	-32768	-4752	16224	-11171	27072	-3256	-28672	5716	9612	-9197	-10872	8915	3708	2064	24660	-6372	16898	-10763	-28520	1420	-4392	-11657	18634	12627	-31460	13972	-4916	-13818	18915	11554	141	156	1
-32768	-5960	22896	-12774	32767	32767	-31740	4508	10016	-19228	29994	-5990	-26224	-8468	9024	-18713	-15964	8046	-24356	14516	10700	-13395	8069	-13360	-10652	14036	-11728	4361	13971	11651	-8580	-16480	-5552	22439	12919	17103	133	126	1
-32568	-32768	32272	-9645	28338	32767	-31468	-18840	9960	-16345	25133	2616	-28472	-14092	-13480	-25440	-13485	4397	-4924	6092	14268	-6920	-239	-6756	-16796	8780	-3956	12859	11606	7937	504	20828	-12948	32767	9756	8152	119	132	1
-24652	-32768	30452	-6421	9252	32767	-22268	-10380	-2376	14053	12872	-3441	-26224	-6404	-11452	-11461	-19708	-540	-8772	7160	15000	-7857	1510	-7277	-18960	7096	-4808	5711	8679	5923	-26612	32767	-9504	-8665	11404	6428	124	162	1
-26988	-32768	5332	143	-10602	24527	-18912	-3044	-7932	-3625	10144	-1354	-31804	536	-9796	1696	-21184	-1611	-9748	6852	12848	-1476	1170	-2910	-17252	5388	-6436	6805	7853	3042	-22660	3936	-10740	-18245	14453	5799	124	154	1
4532	-32768	4668	2293	-32768	-13754	-13296	-2320	5736	-4262	3452	1776	-29648	4004	-8360	6132	-23236	-918	-8076	6268	13220	-1013	1380	-2227	-17220	6188	-5700	6281	7679	2719	-19140	-2208	-8488	-17883	14183	4977	119	143	1
8528	-12908	-3464	9154	-27487	-17252	-10460	2692	3932	-3428	-6604	3188	-26336	-1964	-5772	265	-24518	-3270	-8120	6472	13344	-60	2064	-1928	-17692	604	-2672	7344	4976	2072	-12380	-2368	-4124	4584	16620	674	119	150	1
4900	-5380	-396	-10450	-20260	-19928	-8296	572	1296	-5857	-14933	6135	-19968	-4160	-8176	5510	-20247	-6421	-8172	8064	12492	896	2596	-2312	-16848	2240	-336	16907	3946	3386	-19336	5308	-1688	6427	16991	4431	135	125	1
-1924	-18336	4116	-20681	-17910	-24563	-9520	-5052	800	208	-21730	6873	-15488	-916	-8796	7508	-19214	-3918	-8732	8364	11936	613	1726	-2831	-16660	8148	-452	16512	3385	2014	-16580	2700	384	12239	17502	7777	142	127	1
-6456	-21864	7320	-11762	-19782	-31356	-9144	-4820	84	8117	-27759	5441	-15632	-1080	-8592	7383	-19094	-3731	-8392	7484	12596	610	1772	-3337	-16244	5452	336	8086	3309	932	-15284	1088	2892	18985	16581	9044	140	84	1
-5740	-12180	8536	-9447	-20885	-32768	-11340	-1784	-720	15393	-32276	5885	-11840	-4356	-10004	9451	-16730	-5588	-8652	7340	12192	243	1867	-3466	-15492	2568	964	11579	3891	1027	-14872	2300	3052	16628	13649	6393	130	57	1
-5632	-11024	9304	-15068	-19265	-32768	-11780	1928	-2020	17316	-32768	8519	-10440	-3904	-12124	15277	-14573	-5424	-9308	8076	11732	97	867	-4170	-13984	4680	1460	12748	4749	1929	-15084	-828	3496	12182	12398	5035	127	112	1
-9868	-15912	14760	-16095	-18470	-32768	-13160	-100	-2924	16528	-32768	10237	-7248	-3944	-13316	20529	-13363	-3552	-8632	7040	12372	26	-26	-4521	-14204	4308	1000	8231	6178	1516	-12936	-920	3008	7718	12764	4094	128	123	1
-13328	-16552	18384	-13508	-18815	-32768	-16448	-324	-3936	17739	-32768	14350	-5072	-5040	-15292	29082	-12635	-1548	-8512	6068	12516	-567	51	-3692	-14996	2280	-600	4029	7865	1446	-17772	4668	2284	5234	12626	4698	119	121	1
-17020	-16744	22012	-12096	-20070	-32768	-19136	-108	-4484	17334	-32768	17854	-3316	-4000	-17316	32515	-10597	-425	-8540	6212	12596	-557	900	-3273	-16144	2072	-1352	3161	8922	1660	-18064	8116	-2136	2195	6836	3484	126	134	1
-21904	-19656	25760	-12600	-22360	-32768	-25840	-1732	-5588	14073	-32768	19861	-3364	1836	-17116	26578	-4422	1547	-8632	6664	12644	-17	1913	-3510	-16860	2932	-1656	2651	9637	2111	-16916	2124	-2648	-1916	7336	2135	145	131	1
-31420	-24508	29000	-13076	-24538	-32768	-32768	-2544	-6368	7964	-32768	21465	-3720	6320	-13476	17238	1246	5635	-8588	7360	13148	710	2984	-3754	-16028	2768	-1800	1582	10409	2507	-15152	304	-32	95	8735	1770	143	121	1
-32768	-17512	29844	-13707	-24813	-32768	-32768	-8360	-10352	2332	-32768	20230	-4084	7804	-2284	10983	-383	4941	-7636	6092	14688	598	5544	-5005	-17816	2096	-1432	989	11564	2589	-18252	-1300	924	932	8451	2615	138	124	1
-32768	-7684	25360	-17513	-27400	-32768	-32768	-17828	-13932	1610	-32768	17408	-19220	3328	9908	1411	-8173	938	-8856	6268	14192	-314	8722	-4889	-17720	1944	-1168	34	13444	3335	-18132	-1304	2636	2291	7638	2957	117	125	1
-32768	15436	10112	-11930	-21763	-26677	-25936	-5904	-26484	1371	-32655	7557	-32768	2868	29288	3090	-18848	-4596	-9676	8132	14604	-682	12841	-5294	-21508	3044	-988	-1382	15348	3369	-20736	-1636	3304	3988	7419	2352	128	113	1
-32768	32767	3436	-11526	-8632	-11861	-13940	-13768	-31604	-15764	-14539	1566	-15048	20572	32767	12974	-2488	-3857	-9532	7452	12948	-773	17655	-7005	-19604	3272	-2964	-1399	17036	3270	-20664	-1256	3112	4391	7410	2093	123	119	1
-32768	32767	-2952	-4485	-3409	3744	-8652	-21696	-32768	-526	6022	-5991	-14568	29964	27124	11569	9787	-5733	-9420	8768	14480	-2665	21572	-8205	-20676	2488	-732	261	19204	4355	-20204	5692	2492	7623	8357	318	142	120	1
-32768	21680	988	6612	9198	12352	-15364	-11212	-31472	13505	21516	-9873	-20524	9028	12112	-10914	4494	4807	-10456	8528	13440	-1995	27510	-11413	-22604	1588	40	140	20588	4748	-21320	3184	4076	7463	6326	-610	152	123	1
-1128	-23064	16012	25876	22973	7470	-23564	4000	3500	19643	28296	-14730	-11216	-7784	-9724	-22322	10	4616	-11396	9332	14260	-3	32651	-16274	-24248	328	1248	4453	21719	6014	-21876	-352	8576	10542	3711	-1879	127	124	1
32767	-16556	6720	9398	28777	28198	-32768	32767	32767	26921	2712	-25	2408	-28380	-32260	-29280	21268	-15268	-9908	10496	15472	2477	32767	-22666	-32164	-440	2112	6747	21857	5008	-27484	-3428	13416	10853	-2351	-3667	102	125	1
-32768	10108	22168	18066	32767	26671	-13260	-20096	-32768	8010	13303	-14383	-32768	-12704	21016	32767	-15542	299	-14924	13168	14184	7177	32767	-31829	-32768	-6244	13652	26554	22752	4462	-28372	-5488	13424	13867	-12435	-8625	144	126	1
6956	-24024	32767	11964	14475	11516	-32768	4156	1500	9665	19580	-23378	-32768	32312	-9064	21332	22548	-1308	-32768	19080	15592	5525	32767	-32768	-32768	-2784	13588	27022	22690	4806	-21704	-9668	10336	2615	-16357	-10106	142	131	1
-19140	-18488	9440	9199	9388	2902	-10812	-12636	-3096	4297	15505	-12496	4152	4052	-6644	-32768	15009	-13900	-32768	12012	18916	17546	32767	-32768	-26952	14720	-132	15350	26344	3463	-23980	9772	-1384	23847	-17277	-3189	131	133	1
-7644	-5144	15804	11420	2000	6301	-19568	-2980	-5364	-1961	11172	-6819	-5796	-13048	-21440	-32768	-1958	-5209	-32768	25444	18972	19387	20446	-32768	-24480	16776	0	-6307	20845	6324	-25584	15172	-16008	29798	-13369	-2144	110	137	1
-11112	-9400	13792	6813	1211	2321	-18956	-3744	-1940	-8150	9897	-6417	-19888	-32768	-5144	598	21223	-2091	-32768	32767	15476	-646	15164	-32768	-18908	6612	-6732	-10987	16169	5015	-29308	3120	-14392	8225	-20870	3090	107	155	1
-7176	-8156	13484	3603	530	1981	-19636	-3344	132	-7744	8832	-4534	-23396	-2044	-6724	20745	13341	-4544	-16252	32767	18324	-6817	-13309	-24207	-16048	6096	-11324	4706	9091	4788	-27372	432	-11688	-4785	-27355	3937	82	148	1
-6940	-7060	12976	3316	584	995	-16648	-4664	-660	-536	6747	-3438	-14688	6628	-2576	8636	12693	-7388	-7752	21452	12960	-3725	-21124	-233	-10716	532	-6040	13254	3174	2650	-25320	-1236	-6128	-3219	-28894	841	104	139	1
-6396	-7020	13012	1562	785	946	-17604	1528	1096	1609	5838	-3540	-12444	3120	-1368	3353	14373	-2864	348	10912	5752	4194	-22254	11705	-6700	228	-940	18354	-2715	1074	-21872	-824	-6816	-1912	-26724	2440	122	130	1
-6592	-7316	12912	475	749	1072	-17576	1208	1336	-4764	5636	-3144	-16008	988	-3432	1692	13847	-992	2024	10540	2560	7879	-19211	14238	-5740	5420	-436	10075	-8946	1375	-18472	-1308	-7564	-4640	-23247	3577	129	90	1
-6772	-7660	12584	-729	775	1843	-16668	320	2780	-8580	5373	-2735	-19540	2480	48	-3097	13206	-4184	-1616	10340	4424	6253	-18893	14792	-4580	5496	-2300	-8093	-14938	2490	-12200	-1140	-7292	-5136	-19869	2594	192	103	1
-6968	-8076	12396	-764	817	1882	-16808	-1684	1784	-13944	5449	-2043	-15248	1528	236	-13339	15442	-5347	-1276	7912	7484	6989	-18755	18837	-5916	-1564	-3384	-13343	-19530	1138	-11772	-1744	-6984	-5217	-18273	1673	158	116	1
-7304	-6864	12572	-229	133	2599	-17328	-2764	540	-9009	5006	-2543	-13852	-1960	-924	-16052	17041	-4608	-3240	7376	10720	9463	-18453	25472	-7340	-2912	-3976	-9893	-23795	-617	-10396	-724	-6820	-5343	-17699	207	122	122	1
-7540	-6264	13044	-811	524	2405	-16648	500	1356	-5128	4738	-1606	-15540	-2392	760	-12485	15756	-3831	-7304	7052	14340	8192	-20770	31603	-7964	-940	-4620	-8915	-27872	-1486	-9180	-400	-7540	-8104	-16221	-573	106	115	1
-6936	-6756	12536	-824	447	2511	-15292	-556	3028	-8479	5790	-1389	-15668	-176	1652	-10522	13278	-3613	-8904	3612	16472	8275	-25376	32767	-8760	-1244	-5108	-9487	-31426	-3630	-8996	-476	-8128	-10336	-14911	-1201	128	112	1
-7320	-7592	12172	-296	-487	3505	-14840	-2436	3272	-8464	6825	-2334	-14156	-528	4196	-7942	12918	-3960	-10992	2552	18180	9422	-29800	32767	-9676	-80	-5760	-11713	-32768	-5970	-8608	1564	-8788	-12148	-11547	-2106	131	112	1
-7308	-7356	12192	360	-936	4140	-15564	-2128	2636	-5650	8229	-2507	-16164	-3960	7180	447	12871	-4057	-13916	3924	20304	9961	-32768	32767	-11824	-140	-7188	-14978	-32768	-9077	-7808	2028	-11264	-15158	-7616	-2914	133	122	1
-6836	-7172	12528	406	-1342	4593	-16136	-1424	1940	-2549	9126	-2897	-17732	-3444	-536	-3401	5433	-6248	-16136	5116	21656	10277	-32768	32767	-15252	-1636	-8184	-12531	-32768	-12535	-6464	1264	-13352	-16347	-3941	-3472	126	131	1
-6824	-7100	13008	93	-815	4779	-16952	-484	340	-1393	10213	-3408	-16328	-4168	380	-1424	5511	-4425	-18208	7328	24468	11997	-32768	32767	-19568	-740	-10520	-9895	-32768	-15466	-6008	-144	-14424	-11609	205	-3215	127	135	1
-7128	-7380	12704	-41	-403	5413	-17940	-1964	-676	-927	10956	-3447	-15680	-4072	868	359	8928	-1634	-25596	12272	29540	11997	-32768	32767	-25680	400	-12452	-6957	-32768	-17872	-6124	-1952	-12856	-1779	4672	-2804	118	134	1
-6880	-7808	13076	-2262	1118	5601	-18576	-988	-420	171	11362	-3524	-16144	-128	-2612	710	8914	-2656	-32768	5104	31096	11986	-32768	32767	-32156	2912	-14108	2132	-32768	-18861	-7512	1716	-6892	-663	5076	-554	112	131	1
-5272	-9268	13292	-421	5378	6374	-19308	-300	-556	-1145	11922	-2951	-18448	460	-1228	-1466	8915	-3058	-32768	76	28252	14606	-32768	30384	-32768	15296	-18120	3114	-32768	-17857	-14884	5684	9724	1357	-2711	4466	111	129	1
-6188	-4300	10920	1983	11198	8192	-17816	2016	-392	-641	14248	-3410	-18384	-1956	4708	-3368	10028	-984	-32768	-15872	11868	11423	-32768	16332	-29220	9240	-25304	3190	-32768	-13077	-32216	944	30148	4648	-23084	2952	124	142	1
-7836	-8212	13864	862	14808	8572	-20696	460	608	1617	16208	-3429	-19548	1556	5824	-2207	8517	-459	-32768	-28196	-13836	11455	-28167	366	-7484	12952	-29520	11343	-18500	-4684	-27176	-1324	32767	-11071	9608	7270	125	118	1
-7616	-7856	14792	1228	15495	8976	-20608	2656	1320	994	18680	-4682	-18700	1608	7796	-2942	9429	357	-32768	-32768	-26576	13658	-11351	-10663	496	13400	-29696	8980	5206	4808	-23172	-32768	29424	-26337	14565	9957	129	109	1
-8800	-6936	14724	5316	22959	13206	-21572	968	2064	1637	21525	-4745	-19080	-180	8764	-3127	8046	3357	-32768	-5796	-13388	-13668	17903	-12838	-8620	13744	-28528	-11991	23309	8468	-13968	-21044	8720	3744	7215	-11243	129	122	1
-10080	-9856	13312	7556	27546	18204	-25020	2100	4684	767	24062	-5586	-20500	2504	14236	-6205	3952	4145	17756	18904	32767	-10389	26839	11064	-31164	-21476	32767	-13677	21803	2099	-8092	-7172	652	-4529	-7243	-13048	125	109	1
-10028	-8004	14012	6206	32767	27873	-32768	8184	8884	-11081	27180	-7127	-25988	6620	22316	-9910	-9193	9126	8484	-30340	14752	-13400	32767	-32768	-32632	21560	-22848	-32768	19173	20868	-16788	11692	-10756	18680	9326	8888	136	116	1
-13240	-22128	12704	9374	32767	32767	-32768	608	21644	-21867	28442	-980	-29416	10744	11564	-9290	-11937	11513	-32768	32767	10648	-19492	11082	-13142	-18020	20916	-7520	-1768	21285	6970	-32468	22452	15436	-10011	2679	9997	130	125	1
-30924	-15340	26696	275	32767	32767	-31324	1908	11568	-16298	28742	-6689	-28520	-5548	9788	-15442	-15091	8505	-4592	-5688	24088	-16520	4119	-12735	-20672	388	-11252	-7788	18009	14219	-16796	-13112	-16880	-376	13832	15463	135	152	1
-32768	-32768	28376	-6340	32767	32767	-32768	-16644	8112	-19270	27628	5132	-27756	-16056	-9348	-32505	-10868	4993	-17036	3800	13936	-3552	-974	-5643	-9636	-812	-13356	26929	14434	8052	7964	-2160	-18440	32767	6086	12194	120	118	1
-25596	-29800	24552	-7757	9748	32767	-26504	-12444	7808	8824	16998	-3066	-27792	-6948	-12632	-14269	-20693	-1011	-12752	10384	12740	-932	-429	-4214	-21156	11256	-8188	25335	9700	6960	-23848	25596	-15732	15414	11900	1233	119	139	1
-25560	-32768	28876	2595	-10384	32415	-16556	-7392	-9908	7026	10502	-1556	-31336	1156	-9832	326	-21066	-1855	-9036	6172	13564	244	1781	-2027	-18220	10840	-5896	5259	8978	3589	-22160	13840	-9756	-8005	15197	5710	128	155	1
-12696	-32768	21780	-8551	-32768	-7083	-15668	-3536	3336	-7416	5201	1898	-30776	4692	-7604	7292	-23540	-2802	-8448	6444	13108	-49	2021	-1164	-15808	5672	-3448	-2761	7839	1513	-16032	380	-4780	-5363	14358	1769	132	162	1
8352	-25612	-6064	7622	-29159	-18169	-9748	3888	5932	-2720	-5787	698	-27988	3660	-5948	-622	-22234	-3832	-8172	7116	13192	80	2523	-1925	-18116	4464	-1852	2959	6113	504	-14128	3664	-3676	-1100	16229	36	137	146	1
5496	-8552	-1076	-4355	-21716	-20777	-8200	2584	1768	-6079	-14130	3951	-20508	-3488	-8612	-1503	-21657	-6388	-8412	8852	12208	78	2112	-3176	-14840	2304	-428	9978	4838	984	-17404	5724	-1868	-1314	15699	4461	122	158	1
-1224	-14012	4820	-21857	-17778	-25858	-10380	-4904	992	-2706	-21111	4980	-16844	-2076	-9388	5009	-19452	-4212	-8812	6776	12596	166	1843	-3832	-16928	5516	-2612	13657	4276	1458	-17720	584	-2324	814	16556	5207	108	130	1
-5684	-22268	6900	-17917	-19430	-32304	-9084	-3468	1340	5847	-27740	3498	-14300	-1100	-8936	7272	-17968	-2997	-8748	6160	13060	62	2582	-3004	-16624	4776	-2508	4482	4219	419	-15664	-1444	-528	8167	16088	6664	140	107	1
-5044	-12836	8920	-12651	-20459	-32768	-11236	-1412	-24	12080	-32768	3044	-11864	-3128	-9888	8772	-16916	-4094	-9036	6432	12620	110	3047	-2983	-16204	1852	-1952	4835	4170	262	-14420	-1280	2168	15383	15839	4343	137	45	1
-5320	-9584	10036	-17838	-19111	-32768	-13304	2592	-956	14837	-32768	5845	-8692	-2616	-11524	12100	-13908	-4658	-9484	7024	12204	538	2642	-3455	-15056	3684	-928	12203	4326	1166	-15044	-364	2948	14868	15496	3582	137	108	1
-9904	-14972	15844	-19534	-18480	-32768	-15036	2240	-2324	15267	-32768	9671	-7272	-1736	-12452	16899	-12143	-3284	-9108	7180	12112	597	1607	-4595	-14688	5632	-112	11687	4609	1626	-13716	-2144	1580	14874	16572	4819	124	111	1
-12468	-12812	13856	-14141	-15779	-32768	-16356	1872	-5120	14484	-32768	10580	-6868	-1644	-12492	17594	-11794	-2840	-8872	6884	12220	523	1331	-5973	-15648	4780	-1108	8951	5308	1425	-14500	-528	140	10409	17306	5158	120	116	1
-19996	-17884	30752	-23758	-24664	-32768	-19900	1532	-5772	16166	-32768	13702	-2016	-1832	-16108	24927	-9336	306	-8960	3972	12652	-32	2645	-6306	-15984	1556	-1876	7212	6513	1428	-17200	3764	-2084	5547	13164	5249	120	124	1
-19928	-15520	31112	-12393	-16038	-32768	-26240	-116	-5500	12805	-32768	15548	-3800	-852	-16036	20650	-4941	2044	-8832	4568	13424	-602	3806	-5473	-15416	1816	-2624	5326	7780	1573	-15976	5552	-5224	4539	5895	3808	133	122	1
-26348	-25216	31236	-14227	-20212	-32768	-32768	-2808	-5768	11878	-32768	19159	-4900	412	-11948	16451	-2169	3484	-8984	4588	13680	-403	5777	-4328	-16780	2208	-3356	909	8987	1064	-16480	4416	112	1051	6429	882	147	130	1
-32768	-14664	32767	10643	-11949	-32768	-32768	-2828	-9128	1708	-32768	23703	-6924	3672	-1424	16084	-3537	2584	-8876	4584	13576	-268	8518	-3911	-19680	4136	-692	656	10342	360	-19596	4532	2044	-353	9540	-918	127	126	1
-32768	1088	29832	-7095	-24147	-32768	-32768	-19384	-20400	8546	-32768	19542	-24200	1152	22924	2481	-21894	-1943	-10256	7056	13564	-1294	10848	-4051	-17252	3584	972	-1504	12664	1585	-20284	5284	4748	-1957	10899	-265	123	134	1
-32768	15440	7596	-7167	-21805	-29050	-21964	-10560	-25080	1532	-29486	11951	-32768	-2088	18392	528	-17590	-15697	-10632	7948	13728	-1870	13902	-5645	-20236	2340	756	-2833	15102	2019	-21952	-1512	6728	-2082	8898	2412	142	124	1
-32768	32767	-10772	-19036	-6788	-8935	-13876	-14492	-30648	-12739	-13624	-903	-4396	11940	32767	14000	4534	194	-10400	6124	14240	-2953	17890	-7904	-20212	1104	-348	-1507	17477	2761	-18628	-6100	6012	1270	7690	1427	143	114	1
-32768	22100	-7568	-2857	6199	6053	-9128	-21544	-32768	-1764	7168	-7183	-12712	31160	24332	27751	21923	2402	-10256	6144	14932	-3875	23286	-9150	-21300	1400	300	-2961	20030	2266	-17884	-5476	5888	2009	7688	994	122	121	1
-32768	14076	-7844	32767	23208	18085	-15424	-14112	-27904	18821	21941	-13253	-27228	8588	11288	3760	2462	9294	-11244	8160	14140	-2405	29333	-12406	-23388	-32	1992	-605	21913	3375	-23224	1540	6860	9394	7122	-1926	128	122	1
32767	-21376	32767	32767	32767	10382	-32768	32767	32767	32767	17771	-13200	-21164	-5576	-1588	-7568	-11333	-1023	-10764	8992	15640	-238	32767	-18255	-27060	584	5040	4031	23284	3687	-24540	2668	9916	10698	1416	-3728	133	124	1
-32768	19560	32767	13266	28694	28712	-21012	-17412	-26184	19769	14136	-9662	-18068	-8348	-5360	3891	9794	-19137	-12820	13868	13652	2154	32767	-26756	-32768	-6836	9060	13299	22802	2646	-29976	-632	16100	7069	-10478	-6199	133	122	1
-11076	-32768	32767	26808	18260	6151	-21980	-3548	4720	7616	24525	-23810	-15464	4356	-9832	10429	7100	-1362	-30568	26692	16388	109	32767	-32768	-30168	10656	9832	22774	23980	4181	-26112	-7732	13444	5620	-16580	-12418	134	129	1
-19460	-5216	20560	15342	7418	6830	-16540	-12440	-10680	2781	15801	-13559	-9432	4708	-14412	-18513	7493	-10184	-32768	-8696	14328	11726	32767	-32768	-24468	12024	744	15845	27282	6345	-21312	-5992	904	13525	-18673	-4433	150	131	1
-12584	-13280	11928	11871	848	5814	-16720	-8208	-9900	-8014	14676	-10575	-4636	-14064	-18952	-32768	3487	-5891	-32768	32767	23932	17532	25988	-32768	-26964	20748	1192	2130	22867	5187	-26388	12672	-10828	32767	-16025	-1747	133	151	1
-9604	-2532	18424	5457	-50	2586	-22036	-2152	-3516	-9092	12339	-6219	-26504	-32768	-11416	-2753	17014	-3167	-32768	32767	21860	17031	19232	-32768	-19884	10932	-9408	-15339	20743	6768	-26872	8132	-16040	22662	-15973	3699	118	141	1
-7428	-9756	12632	3482	380	1175	-18556	-5264	-332	-8378	11074	-5432	-20716	-4724	-5924	16369	13208	-6922	-28844	32767	28292	-1279	-12505	-13083	-20752	5072	-9636	5442	13010	3444	-30160	196	-14128	5009	-24712	4625	104	165	1
-6868	-7208	13096	1539	348	817	-17192	-1516	-1216	2662	8579	-5140	-15944	5340	-2044	12209	12212	-6535	-3756	28304	12064	-10319	-16768	2312	-12708	1736	-624	10324	4202	3973	-28164	-2856	-10128	-573	-30486	2260	87	139	1
-6256	-6880	13300	780	913	587	-17996	508	-52	1344	7793	-4679	-12884	3492	-1316	5945	12667	-1944	3784	11148	6880	-2691	-15688	10673	-12104	1948	-1056	9767	2830	3996	-24000	-1620	-7216	-2823	-31353	150	92	121	1
-6484	-7556	13000	213	942	1037	-17240	-1408	316	-3116	6904	-3793	-16768	-3252	-2136	1686	11965	812	2280	10016	6320	10457	-14687	16652	-8272	508	-884	7427	-4299	3459	-20180	-1992	-6112	-3905	-25007	4447	112	128	1
-6480	-8296	12196	-74	918	1435	-16920	-2244	1216	-4288	6351	-3100	-18560	-3964	-1044	1680	12970	-4313	-2124	13724	8676	12584	-15760	20863	-6244	3300	-2144	-4202	-16026	2250	-13984	-3144	-7348	-4565	-21228	3901	148	80	1
-6848	-7780	12240	358	670	1988	-16464	-1936	824	-6138	6138	-2634	-16260	-1996	-408	209	14521	-6490	-4496	12120	11720	7056	-17681	25307	-7940	952	-3512	-10791	-21642	1346	-13568	-1936	-7416	-2783	-19810	2070	181	115	1
-6880	-7376	12512	562	400	1868	-16796	-2324	-60	-4208	5661	-2474	-14468	1468	-1452	-1775	14180	-5723	-4932	6000	14212	5410	-20594	30286	-8520	-1616	-4844	-11283	-26288	-982	-12508	312	-7372	-1454	-19152	1265	128	111	1
-6628	-6204	13020	280	390	1627	-16896	-584	-992	721	5041	-2916	-15316	2876	-1848	-5399	15157	-3574	-6964	3456	16376	7688	-22334	32767	-9728	-2020	-4952	-9644	-30381	-3736	-11244	1528	-7684	-1676	-16930	1119	94	99	1
-6676	-7064	12732	-496	596	1357	-16752	228	-20	-1825	5273	-3100	-15084	1108	-712	-10148	17113	-2918	-11924	4720	19304	7766	-26537	32767	-10332	48	-5296	-10675	-32768	-6211	-10076	1952	-8668	-6731	-14357	1132	122	135	1
-6720	-7576	12236	-532	586	2313	-17100	-1684	536	-4815	5233	-2972	-15048	692	-544	-10809	17639	-3049	-13708	3524	20008	6088	-32768	32767	-12352	-324	-5900	-12528	-32768	-9033	-8092	1552	-9332	-12083	-11313	834	132	109	1
-6804	-6864	12724	-516	237	3326	-16952	-1888	-772	-5092	5238	-3233	-15264	-1816	-1312	-6967	18284	-3767	-14500	3220	20392	7862	-32768	32004	-13924	-1412	-7340	-13548	-32768	-12120	-7256	1984	-10896	-16462	-8244	-560	132	118	1
-7352	-6552	13004	-198	361	4094	-16068	-784	144	-7235	5897	-2518	-15388	-528	-308	-2201	14370	-5250	-19636	7168	24132	10086	-32768	32529	-16796	-896	-9668	-10617	-32768	-15294	-5356	2552	-12924	-17807	-5276	-1824	131	120	1
-7176	-7528	12440	-1060	51	5247	-16068	-2852	720	-6869	6576	-2568	-16408	-1288	1140	-2177	8329	-4515	-21176	10952	26400	10565	-32768	32767	-22380	436	-9852	-5624	-32768	-18549	-4364	236	-12856	-15173	-2415	-3034	122	130	1
-7128	-7668	12224	-1706	4	5495	-17112	-3180	620	-5675	7446	-2906	-17200	-7288	2088	-7010	7266	-3860	-27684	13956	29648	7945	-32768	32767	-28112	1532	-12140	-6512	-32768	-20049	-4152	964	-9808	-13069	262	-2835	118	135	1
-6868	-9112	12520	-41	2224	6601	-18408	-2656	532	-4616	8486	-2766	-18712	-6672	2528	-4476	8410	-4333	-32768	7284	30900	9407	-32768	32767	-32760	6196	-14400	3231	-32768	-21203	-7292	2600	-3080	-13191	-390	-233	120	143	1
-7516	-7420	14216	2250	6223	8724	-19796	-468	916	-3066	10114	-2757	-20392	-2644	2560	-1128	8717	-3501	-32768	5252	21680	7032	-32768	29273	-32768	16752	-16908	-1804	-32768	-18150	-16416	1048	13520	-2129	-11276	3021	119	134	1
-7104	-6584	14908	1719	10102	9672	-19676	596	1064	-1380	12449	-3605	-19704	552	6832	-2183	9750	-2333	-32768	-16728	-4436	4284	-32768	15286	-21960	12568	-26668	-4864	-30817	-9911	-32768	-2348	22868	3600	-11978	3386	118	130	1
-7920	-7200	15204	2408	14513	10915	-21192	1996	1844	-177	15268	-4133	-21004	6520	9592	-2758	8590	-1945	-32768	-31728	-18772	13385	-17364	5196	-5272	9508	-30876	3283	-12915	-2765	-21268	-10876	32767	-24164	5828	2144	125	130	1
-7468	-6340	15992	5611	18580	12690	-20544	2540	1444	-7	18489	-5369	-19820	6008	9980	-4257	7703	-910	-32768	-21628	-22120	5168	1839	-732	-1336	19904	-30204	1045	8431	6198	-21860	-32768	19220	-29335	15385	5480	134	108	1
-8340	-8020	15336	8286	24177	15179	-22748	1892	3472	2026	21721	-5503	-21372	92	10232	-5609	6644	2056	-32768	-16360	-8608	-15073	23316	-6211	-9636	14944	-29480	-17427	25258	11456	-15324	-15584	9408	5935	1205	-8931	124	133	1
-10440	-10464	14232	9723	30127	20690	-26728	2568	6732	-965	24025	-7058	-22456	-876	14296	-8138	3243	4559	32767	29864	32767	-14707	30096	12273	-32768	-32164	32767	-31127	17441	-704	1424	-5872	-6720	-10205	-4047	-10745	131	104	1
-11188	-11180	16996	12028	32767	29801	-32768	6316	13268	-14055	26944	-7638	-28028	836	23356	-10843	-11620	7631	-32768	-19324	29788	-13223	32767	-32768	-18312	12544	-32768	-32768	21462	18342	-32768	17308	9288	-6885	-3956	15805	133	132	1
-19252	-28688	15112	10836	32767	32767	-32768	-4352	19884	-18861	26384	-2323	-28000	8512	4712	-9008	-8997	10544	6896	11752	32136	-10518	19552	-12522	-24164	1048	-3924	-1287	18363	15356	-24144	2144	-24616	-14927	17688	13282	131	143	1
-32768	-5172	21700	-5982	32767	32767	-30064	1736	7292	-18950	29439	-8391	-27204	-32	7052	-18822	-18306	8521	-24624	5040	13364	-15414	4536	-15275	-12044	11204	-14552	6581	14092	13909	-1552	-6648	-20728	20622	8982	12105	130	133	1
-32768	-32768	31516	-12966	29750	32767	-29608	-15696	7464	-24431	23754	2621	-27944	-12476	-13060	-31548	-13320	3815	-6452	10660	12280	-6311	849	-6184	-16824	10772	-4944	18542	12096	8023	-16680	21796	-18488	20281	10232	6042	122	131	1
-32768	-32768	31560	-15822	22893	32767	-23072	-10896	-5200	8180	12921	-5818	-28380	-7980	-13444	-20972	-18064	-3906	-8904	-200	17664	-4255	-549	-7374	-21192	4992	-6592	8198	9266	6314	-23836	22768	-10844	-7589	15246	7941	126	146	1
-32768	-31452	32767	9612	-6960	20657	-20060	-2368	-9784	-7554	12235	-1789	-29072	512	-10488	-1685	-22771	-3624	-9824	5704	13736	-2059	912	-2136	-16636	8092	-6712	2766	8701	3048	-18272	1408	-7240	-14482	14309	7961	127	155	1
1676	-32768	1600	1222	-23365	-17285	-14140	576	3760	-4520	5872	-366	-29316	4028	-7300	2494	-23625	-4189	-9304	7360	13012	-561	1932	-1422	-16888	2464	-4576	4060	6697	2588	-13064	-5536	-6764	-4534	15080	903	128	151	1
7744	-13760	-5516	5937	-13355	-23943	-10200	1516	3944	-862	-4510	1497	-28336	-560	-6700	-1194	-25711	-4635	-8376	6440	13324	421	2497	-1821	-17336	3672	-3024	8588	4624	2075	-15952	2336	-6088	2123	16990	723	108	157	1
3764	-6796	1396	-7153	-7938	-24516	-8648	-2764	988	2204	-13181	1476	-19008	-2468	-8180	5069	-22560	-6839	-7772	7684	12792	962	2800	-2659	-17948	2712	-972	12004	3602	2405	-18196	3992	-3368	831	16811	4600	130	134	1
-3740	-13492	9580	-16401	-10530	-26318	-8400	-4172	-724	9713	-20836	1507	-16636	576	-8560	7612	-20292	-4917	-8132	6720	13112	1129	2884	-3058	-17068	4760	-2008	11559	3007	2125	-16576	396	-596	2813	18008	5471	145	134	1
-6412	-15836	12288	-14637	-18100	-31192	-7948	-1116	-952	12852	-26175	1438	-13876	1128	-8680	8230	-19143	-3700	-8488	6424	12948	1162	3525	-2885	-16564	4048	-1384	7666	2902	1354	-16076	-744	2600	11816	16814	6979	138	89	1
-2544	-7456	11784	-14877	-21809	-32768	-10604	5172	-760	12169	-30324	2694	-13312	-100	-8832	8394	-18638	-4311	-8888	7252	12484	755	3326	-3030	-15980	3988	-160	9800	3029	1234	-15964	-788	3396	13568	16664	6678	140	38	1
-2480	-5888	12952	-19412	-21018	-32768	-10460	5788	-2740	9730	-32768	5306	-10816	-696	-10640	11120	-17162	-2979	-9020	7512	11708	629	2131	-4051	-14788	4700	892	11186	3799	1740	-14384	1840	3008	12425	16202	5664	121	124	1
-6020	-11212	18320	-18865	-21485	-32768	-12260	4068	-3584	8380	-32768	9252	-8268	-448	-11292	12551	-15016	-1123	-8892	6960	12464	156	676	-4535	-13972	4104	604	8072	4854	1908	-13052	-284	1276	7766	16046	5603	112	114	1
-8808	-11552	21212	-17397	-23315	-32768	-14084	3664	-4508	8314	-32768	12367	-6252	-2148	-12524	16344	-12791	-239	-8584	5400	12740	-192	720	-4400	-14852	2312	-300	5808	6326	1671	-16536	1548	2352	2194	15749	4246	88	120	1
-11696	-12548	23132	-17123	-24643	-32768	-17136	2208	-4832	8653	-32768	15424	-3632	-2864	-14428	22221	-10481	-283	-7972	4552	13332	-692	1708	-4307	-15516	1212	-1460	2684	7801	1960	-18400	5364	-2772	2362	7957	4183	138	137	1
-15792	-15772	25692	-16284	-26694	-32768	-20920	192	-5360	9664	-32768	17295	-3212	-3144	-16300	20524	-7039	1447	-8724	6068	13544	-49	3335	-3738	-17112	1372	-2488	2121	8809	2188	-17156	304	-4044	-311	5301	2667	143	125	1
-21932	-22476	27232	-14300	-28094	-32768	-28668	-1832	-6116	11920	-32768	18159	-2564	-3220	-16664	20011	-5940	1669	-8696	4884	13876	-223	5744	-4095	-17192	1476	-2748	1488	9598	2009	-16152	652	-1352	875	8688	1710	150	125	1
-30632	-19096	29744	-12532	-23898	-32768	-32768	-416	-11204	12745	-32768	20913	-3436	1752	-9844	14052	1093	4137	-8944	6780	13996	-506	7936	-4028	-18620	2976	-852	771	10697	2367	-20076	2268	916	715	9753	1804	136	129	1
-32768	-14592	32767	-18287	-22373	-32768	-32768	80	-11388	10277	-32768	22137	-7680	-1476	1872	10910	-5436	1673	-10216	9032	13456	-285	11012	-5005	-15832	1480	1472	-63	13221	3571	-20252	2972	4968	1366	8255	2345	122	124	1
-32768	1596	16440	-5661	-21635	-32768	-32768	-13460	-22456	14389	-32768	16515	-31320	-1448	27468	4229	-23220	-8989	-10024	7724	14220	-1465	12791	-6260	-19956	3484	584	-1739	15353	3180	-21000	-572	6800	2163	6872	3241	121	116	1
-32768	32767	244	-3234	-10753	-19277	-18724	-16836	-29576	-3929	-22541	9944	-31692	3340	32767	20166	-1712	-9232	-10612	8292	14996	-2288	16883	-8701	-22004	856	-204	228	17324	4102	-19716	-3404	5380	5551	7385	2515	157	114	1
-32768	32767	-920	-11900	-9126	2748	-8228	-21380	-32768	-3808	-1429	-3552	-9512	30232	32767	19956	17078	69	-10232	5088	15300	-3090	22106	-9866	-19800	588	-632	-182	19751	3747	-18484	388	5132	8114	8155	555	122	119	1
-32768	21992	-9172	15477	12038	18143	-11400	-15344	-30536	5403	18087	-10017	-20476	26964	18636	8692	14107	5717	-10512	7352	15044	-3071	28063	-11947	-22720	1064	1324	-1113	21989	3779	-21920	2548	5236	8144	6691	-1054	122	124	1
-13656	-19708	14976	32290	19715	14157	-19424	140	10548	20145	29570	-16178	-17676	1224	-2400	-21727	-1043	8639	-11704	9960	14476	-427	32767	-17176	-23180	736	1736	-880	22299	4053	-22000	828	10072	11569	3606	-2662	115	123	1
32767	-27268	7712	17130	32767	29962	-32768	32767	32767	24493	3474	2622	-1976	-13604	-24428	-32768	16294	-8851	-11580	13180	16132	1877	32767	-23458	-25128	-1264	3608	3821	23563	5730	-27656	-1920	14996	9712	-4949	-4854	131	124	1
-32768	14420	13432	18213	32767	20043	-6064	-19296	-30888	9372	18779	-18977	-32076	-10452	20056	32767	-8150	-6084	-23764	13452	17524	5925	32767	-32768	-32768	-216	13044	28162	24762	4119	-27340	-3388	11080	12259	-15473	-10132	127	126	1
2140	-14940	32767	18371	9790	9867	-32768	9928	312	9656	17747	-19616	-27232	12500	-13752	8099	17992	-4997	-32768	13664	15900	1866	32767	-32768	-25348	13844	-3904	12344	25551	6878	-19856	-6512	3468	9843	-14525	-6802	152	133	1
-25236	-19496	8376	9266	6438	3964	-11352	-15164	-5900	-3064	14714	-13985	1844	2660	-8964	-32768	9528	-16224	-32768	22928	21228	18291	32767	-32768	-26976	14876	1276	10024	25874	2354	-23704	11832	-5408	26805	-17317	-2325	141	140	1
-6188	-6968	15368	10260	1019	4722	-21816	-2200	-3800	-5271	12598	-9258	-16212	-26140	-5792	-26787	1711	1790	-26824	14940	19816	9797	17320	-32768	-22488	17568	-7148	-14257	23083	6258	-25484	14612	-21320	31697	-12521	-132	99	147	1
-8580	-8088	14112	5154	895	1752	-17860	-2716	-2100	-6940	11442	-6661	-20420	-24664	-9524	13096	15449	-4488	-32768	31600	26680	-2859	5673	-29124	-20248	4220	-13016	-7145	16811	1861	-30812	1708	-12504	4024	-23934	4320	118	142	1
-6868	-7804	13244	3112	463	1725	-18104	-3284	20	-6927	9813	-4305	-20092	3472	-3856	17030	12873	-8325	-32768	32767	31952	-2029	-3301	-21413	-13912	1148	-3476	11474	8128	1961	-29348	-940	-11504	-13107	-27894	4577	83	155	1
-7272	-6056	13740	2245	513	1457	-18176	-1948	-1700	-3183	8125	-5161	-13832	6664	-2624	3697	11259	-5832	2724	13388	6400	-6374	-16244	5014	-9940	1540	-1156	11752	97	-155	-25548	-2288	-8624	-3971	-28557	1747	99	140	1
-5768	-8028	12612	774	914	1307	-18236	-2272	480	763	6161	-4003	-15004	-1640	-2644	-2074	12839	-1446	3744	7768	4276	2378	-13516	8968	-6856	2156	-1460	6795	-6416	-841	-20244	-732	-7172	-3186	-27173	3575	101	119	1
-7012	-7476	12596	43	982	1375	-17480	-660	32	-1968	5367	-3258	-16376	-5764	-3664	-271	14112	-1083	-352	11352	5896	7989	-12452	12228	-5024	4696	-3072	-2462	-12363	-1589	-16488	-1528	-7324	-6215	-22012	4812	127	61	1
-6944	-7792	12300	300	1170	1647	-17536	-1348	1180	-6234	5187	-2186	-18712	-1744	-2788	1877	15861	-6274	-5600	14436	10260	6814	-17585	18556	-4076	3060	-4692	-9150	-17877	-1930	-13016	-2216	-8456	-6756	-18812	3097	169	92	1
-6140	-8044	12136	1271	1190	2888	-16856	52	2236	-11985	5304	-2627	-15892	2380	-44	-3468	15713	-6236	-5972	10936	10756	4534	-24046	25870	-6232	-128	-3988	-7878	-23171	-2270	-12144	-1240	-7888	-6375	-17087	1588	153	123	1
-7008	-6972	12848	-23	957	2752	-16932	-2856	28	-9209	5040	-3338	-15684	1528	884	-8787	15437	-4331	-4948	5576	11120	6819	-26499	30269	-7316	-1252	-3408	-6303	-27792	-2954	-9940	-660	-7968	-6356	-16250	430	110	132	1
-6492	-6524	13072	-818	1115	1999	-16320	-308	1248	-294	4909	-3406	-14756	300	2108	-9385	16418	-4109	-7504	5144	13452	9986	-27923	32431	-8260	132	-3548	-7659	-31865	-4706	-9140	80	-8056	-8950	-14303	-315	179	123	1
-7116	-6904	12556	-1096	677	2460	-15432	-900	1120	-3820	5536	-2890	-13752	368	1476	-8538	15836	-3634	-11916	6336	16116	10274	-30815	32767	-10156	1072	-4704	-9764	-32768	-6212	-7388	472	-8420	-11816	-11591	-693	129	121	1
-6948	-7464	11944	-826	621	3183	-15976	-1540	880	-5452	6013	-3562	-15708	-1684	-96	-7048	14346	-3289	-14040	6360	17620	8866	-32768	32767	-12376	-28	-5336	-12635	-32768	-8196	-6348	1772	-10004	-15812	-8174	-1665	113	119	1
-6280	-7500	12536	-843	461	4202	-16104	-1296	908	-6546	6749	-3664	-15300	-964	2016	-3694	14422	-5567	-15352	6052	19064	9011	-32768	32767	-15300	-844	-6864	-13391	-32768	-10963	-5476	1416	-11140	-19280	-5236	-2221	133	112	1
-7268	-6772	11992	-306	112	4765	-15504	-2136	788	-5684	7660	-3705	-15772	1240	972	368	9329	-6360	-18184	8628	23636	10582	-32768	32767	-19752	-236	-9524	-12620	-32768	-14256	-5416	44	-11752	-16447	-3039	-1974	126	116	1
-7108	-7592	12584	-1064	-212	4925	-16108	-2348	-476	-4411	8309	-3864	-15384	-2808	396	-6601	5691	-5351	-24492	13052	29572	9662	-32768	32767	-25152	-96	-10684	-8048	-32768	-17409	-7100	-820	-9912	-9591	-1226	-2443	117	130	1
-7176	-7228	12928	-1475	396	5189	-17332	-2084	-416	-5414	9008	-3509	-16572	-6156	-1272	-7325	8517	-3772	-31276	7488	30892	6533	-32768	32767	-28188	688	-12908	317	-32768	-18997	-7704	144	-5180	-5819	-1124	-1426	120	134	1
-7392	-8292	12584	-1358	2549	5455	-18604	-2348	612	-5396	9859	-3337	-18156	-4720	1240	-3772	11063	-3310	-32568	5268	30712	6772	-32768	32767	-30936	14604	-14188	4333	-32768	-19346	-11840	3328	2532	-4196	-3987	941	117	136	1
-7604	-6940	13660	699	6674	7597	-18508	148	756	-3973	11841	-3703	-18992	-2360	4428	-2868	9262	-3706	-32768	-11864	12228	6795	-32768	18569	-31400	16728	-18556	-10843	-32768	-13120	-23948	976	13688	10445	-14476	4471	117	145	1
-7644	-7268	13612	718	7050	7685	-18188	112	1104	-3776	12174	-3818	-18844	1568	8640	-3737	8395	-2516	-32768	-22296	-16856	14979	-32767	4974	-16324	8016	-30076	751	-25649	-5596	-29032	3344	32124	-1489	594	2354	118	129	1
-7232	-7868	14676	741	14961	9760	-20900	1140	1268	-539	17265	-4974	-19548	4472	8544	-3781	7590	-1911	-32768	-32228	-19676	20713	-9961	425	-2796	10688	-28860	13318	-6921	867	-16124	-21184	32767	-29025	7184	337	125	129	1
-7956	-6920	15416	2250	19398	11600	-21024	748	808	253	20380	-5501	-19392	940	8348	-4862	7532	380	-32768	-22560	-17556	-4903	7113	-3923	-5656	20820	-29864	-4980	12862	7786	-20532	-29144	15208	-17850	9517	-1003	127	114	1
-9016	-8904	15088	4974	24642	15342	-24280	1556	3468	116	23284	-6437	-20512	-1468	11460	-6744	5179	2644	-19616	-10708	-1608	-24048	32767	218	-22240	-4752	3884	-32768	25776	7175	-20732	-7696	6732	15926	-4256	-7582	125	115	1
-9160	-10976	16832	4545	32767	23254	-32180	3340	5420	-5164	26170	-7254	-25060	724	20968	-10234	-4890	5183	-32768	-4424	32767	-10753	32767	-32768	-32768	22608	-18372	-29021	24145	22367	-23916	-12904	9164	-18843	-4672	-4790	132	126	1
-11564	-25616	19704	10640	32767	32767	-32768	4144	21760	-18995	29825	-2395	-32768	5060	23268	10844	-15403	11332	4272	22712	17200	-7807	32767	-2	-14504	-3460	-2716	-10008	25537	7220	-11844	13384	-21704	7572	9607	14097	130	128	1
-20940	-30084	15632	8776	32767	32767	-32768	1404	11644	-10087	25669	-6900	-30396	9452	9708	-3584	-14310	9052	-27436	12032	16184	-24230	13402	-19980	-7584	23148	-12900	-373	14273	18339	-10856	14624	-21928	12198	13636	19308	136	140	1
-32768	-22604	32767	-18025	32767	32767	-29020	-4548	6592	-29503	28376	1059	-21288	-12	-1924	-30983	-16159	6293	-16092	524	18888	-11638	682	-10627	-22168	3928	-13832	20425	13153	8455	-14100	21704	-8004	29131	13931	10834	125	155	1
-29260	-30772	27948	-6326	16556	32767	-30252	-8532	5972	-29839	27144	3368	-28912	-9884	-14340	-32540	-15751	2252	-12052	5572	15576	-1347	-703	-4592	-22760	3756	-9028	25261	10148	6048	-24516	26952	-18432	-1389	13226	6611	119	138	1
-23144	-32768	29612	1040	409	32767	-17132	-6968	-8952	14606	9807	-6293	-30212	-3960	-9196	-14570	-17769	-2693	-8856	6392	13944	-1803	1564	-1138	-15284	16256	-6552	-3018	9499	3499	-21504	2200	-8896	-13777	14032	3223	120	161	1
-25584	-32768	32767	-7203	-27860	8634	-18104	-3692	-1724	-15871	7027	-728	-29020	924	-11156	505	-21281	-3389	-9456	5076	13272	-884	2101	-925	-16784	-2560	-5684	-4195	7243	2149	-12160	-5028	-7240	-7334	15163	1951	120	176	1
8060	-31576	-3904	69	-31460	-13025	-11912	1768	6904	-7780	-1283	-1719	-27776	4012	-6244	4404	-24289	-1998	-7732	6352	13888	1376	3186	-1248	-18404	2616	-1152	9878	5124	1934	-16784	1140	-4148	-2566	17246	784	133	144	1
8832	-10148	-4072	-434	-17492	-14582	-9696	5160	3316	-5442	-11095	757	-24228	-1248	-7468	537	-28339	-4613	-9172	8172	12192	1394	2864	-3054	-16264	5512	-892	18222	3955	3030	-18840	5928	-3296	-696	16626	3081	118	160	1
7188	-7488	-132	-16443	-5544	-17691	-9384	360	-56	-2714	-18414	1199	-17320	296	-8196	3753	-20828	-4040	-8264	6684	12884	688	3079	-3317	-17080	7588	-2348	8115	3321	1867	-15688	4208	-2308	2649	17224	5639	121	144	1
-5052	-20544	10016	-19675	-6467	-25099	-8308	-1624	-2432	3459	-24304	1227	-14892	1328	-8876	4497	-18996	-1640	-8984	6304	12680	542	3155	-2837	-16508	2476	-2404	3123	3277	391	-15828	-532	556	6406	17796	6396	160	101	1
-9016	-19680	15832	-12591	-14263	-32768	-8988	-1640	-2092	7145	-28464	666	-11764	-596	-8016	4613	-18188	-2401	-9356	6532	12352	511	3083	-2853	-16472	3328	-1460	7738	2854	783	-14332	-164	1896	10935	17355	5892	146	39	1
-5068	-7012	15564	-13750	-18653	-32768	-12680	2628	-1052	14022	-32768	2195	-11260	-3488	-8736	5817	-16779	-3598	-9068	6556	12196	992	2532	-3661	-15968	2328	-620	9678	3191	1304	-15568	-92	3412	12602	17417	5864	142	104	1
-6256	-7064	17268	-19081	-20000	-32768	-13236	4420	-1552	16316	-32768	5668	-10964	-3520	-9088	6578	-16494	-3641	-9300	6532	12204	1049	1491	-3885	-14168	2440	708	12138	4411	2029	-15660	-840	3816	12772	17804	5876	128	113	1
-9932	-11316	21244	-17506	-22459	-32768	-14388	5208	-3328	16205	-32768	8981	-8080	-1208	-10496	14104	-12826	-788	-8968	5912	12144	435	1099	-4000	-13020	4604	624	7412	6084	1833	-13992	-4580	2540	5750	14288	4258	109	124	1
-11040	-10168	23196	-15104	-24171	-32768	-17040	5572	-5116	13565	-32768	12951	-7640	-1064	-10956	14894	-12623	-598	-8916	5576	12496	-321	1732	-4255	-15496	2548	-360	1865	7730	1563	-17300	3204	-1320	5520	7709	3624	119	132	1
-14192	-12436	26604	-15401	-25536	-32768	-19856	2828	-5716	11168	-32768	17062	-4260	-3796	-14472	19692	-8568	1109	-9512	6372	13440	-505	3035	-4575	-17812	1996	-2840	2154	8520	1748	-18852	7344	-4364	4544	5956	2787	139	118	1
-14772	-13180	26828	-15148	-25754	-32768	-25928	1496	-5564	11359	-32768	19604	-3960	-1712	-14792	17813	-3382	1871	-10184	6160	14104	-904	4246	-4353	-17884	-416	-2560	4805	8980	2327	-16420	7628	-4172	3490	9834	2013	155	119	1
-25928	-20528	32416	-10276	-27943	-32768	-32768	588	-6440	10633	-32768	23927	-4820	-1228	-12108	17188	-39	3612	-9992	6480	13124	-608	6872	-4932	-17860	3060	-1712	1779	9652	1397	-18696	5644	-1800	824	10953	1575	146	126	1
-32768	-17216	32767	-11115	-26550	-32768	-32768	-9604	-10280	4565	-32768	26747	-5532	-712	-404	19383	-2950	2046	-9848	6916	13528	-1537	9129	-5492	-18100	2768	432	634	11619	1851	-20916	2576	3036	-1988	8574	1814	129	126	1
-32768	-10156	20652	-3610	-27745	-32768	-32768	-20712	-17600	13262	-32768	21594	-24016	676	20656	8906	-20410	-2563	-10336	6124	13916	-2288	11622	-6604	-18252	2376	1168	-1222	14231	2080	-20292	-1420	7472	-219	7586	1987	129	127	1
-32768	21364	-7496	-10943	-18502	-28995	-19348	-11188	-28900	668	-24206	8334	-32768	1308	24840	14125	-6439	-11710	-10952	7484	14360	-3632	15382	-8271	-21076	1356	-212	-795	16500	2566	-20140	-5416	6620	3005	7563	1935	166	121	1
-32768	30432	-9820	-12449	-420	-8541	-11408	-14280	-27108	-6359	-8762	548	-8448	24232	32767	24788	13115	7976	-10176	5244	15240	-4184	19686	-9893	-19976	796	-312	-751	18874	2833	-17776	-4052	4740	5099	6907	1321	126	117	1
-32768	29332	-7268	1487	3956	6908	-9748	-25652	-30452	439	10257	-8198	-18872	31192	25576	22722	14834	6124	-10596	6216	14580	-4285	25230	-11688	-21976	544	840	-2062	21080	2480	-20780	1600	4452	8170	7585	-927	117	120	1
-32768	14000	-9996	32767	26171	27272	-17644	-10636	-20044	22355	22812	-15750	-22624	9676	4592	-16217	-1080	6822	-11764	7672	13680	-2395	31334	-16178	-24064	-736	3076	986	22746	3761	-23068	3360	8496	10889	4600	-2355	110	124	1
32767	-32768	28928	19153	32767	28788	-32768	32767	32767	26470	11093	-4199	-5284	2164	-14580	-20812	9949	-1214	-11296	10992	14968	-1056	32767	-22502	-29964	832	5720	3503	23669	3557	-27188	2564	12612	8945	-1312	-4775	131	128	1
-32768	13596	10832	18195	32767	21214	-15056	-21936	-30068	7234	18839	-18568	-30716	-968	9976	6674	1150	-8769	-21080	12820	16924	1346	32767	-32013	-32768	-6020	13528	22846	23769	2546	-28696	-96	13068	8164	-14474	-8701	153	130	1
6624	-10700	4368	2093	12825	14059	-25340	612	-2944	7388	17757	-19798	-14048	-5980	-15436	-10149	9411	-7895	-32768	20564	19148	-1916	32767	-32768	-27812	18288	-892	10533	24733	5768	-22956	-9356	18028	-13830	-20458	-11510	135	139	1
-21388	-11864	16916	11080	4204	5434	-12200	-12344	-7116	-965	14561	-14190	-3600	-10632	-15564	-25733	8149	-12678	-27300	14764	20060	14823	32767	-32768	-26984	11180	3232	12653	26422	1706	-21224	4884	-5840	17464	-16926	-3496	153	133	1
-7120	-9476	13516	7527	544	2714	-23172	-6108	-4272	-3285	12884	-9323	-19980	-28288	-12144	-11517	6992	2206	-30768	19976	18340	9048	21361	-32768	-24496	18024	-3468	-8002	21550	4922	-28648	14784	-12740	27666	-14386	262	145	134	1
-7404	-7860	14136	4619	97	1213	-18120	-3888	-1432	-2847	9871	-4812	-22268	-17388	-10656	20331	15914	-7252	-32768	21408	12868	-5809	19310	-32768	-20420	4820	-12980	-11652	17617	1677	-31252	6452	-18176	10411	-21257	6421	113	166	1
-6472	-7076	14168	3006	249	736	-18620	-2196	-1660	-1569	7685	-5145	-20620	6624	-5216	17989	13367	-11253	-15784	32767	15540	-8000	-5117	-2153	-17044	4056	-9608	4971	10915	1572	-28504	-1600	-13516	-6270	-29236	6295	96	135	1
-6212	-6104	13696	1502	893	493	-18372	1964	-1856	-1534	6120	-4498	-13956	9580	-3092	7001	12699	-5415	-7220	20064	10728	-10961	-11030	14151	-11052	2992	-3892	8329	3021	617	-26632	-3076	-7484	-6515	-32532	1866	91	143	1
-5724	-7016	12892	284	1410	751	-17720	776	-100	-3989	4595	-3335	-15152	5000	-3376	-1082	13511	659	-1852	8004	7116	-5480	-13553	18001	-6844	3956	-1908	5061	-3339	359	-21140	-1380	-7940	-4173	-29363	3426	97	119	1
-5648	-7216	12976	-782	1544	1147	-17232	432	812	-7951	3998	-3399	-17020	-1156	-2708	-5145	13398	422	-1916	6116	6316	4471	-16124	17493	-5368	6028	-2812	-2971	-9629	386	-18144	-1828	-7748	-7287	-24451	5028	153	97	1
-6096	-8756	12252	-1435	1400	1532	-16916	-1580	3352	-10637	4160	-2544	-17732	-4256	-352	-4053	16077	-4205	-5052	9232	7876	9154	-22263	17514	-4676	2924	-3660	-8918	-16039	829	-14152	-3536	-8008	-7236	-20548	2885	173	120	1
-6500	-8800	11896	-967	1046	2390	-16656	-3068	2340	-12185	4202	-2550	-15612	-2868	348	-7118	16067	-5251	-5040	9580	8228	9372	-23279	17683	-5840	-432	-3576	-8087	-21759	739	-12384	-3204	-8120	-7397	-19621	406	148	126	1
-6268	-7312	12592	-78	778	2677	-16688	-2588	656	-6093	3510	-2301	-14752	-888	1280	-10158	16181	-5447	-3700	5884	10332	11305	-27254	24269	-7132	-2748	-4256	-6310	-26366	-447	-13196	-2192	-6892	-5331	-19574	-1200	147	121	1
-6412	-7348	12132	-948	726	2646	-16556	900	2144	-6318	3777	-1776	-14896	800	3104	-12067	16024	-5196	-5516	5720	12504	12851	-26787	30187	-7848	-3244	-4676	-3724	-30223	-2389	-8356	-924	-8104	-5453	-17116	-1769	122	131	1
-6972	-7876	12588	-1148	7	3375	-15588	-1304	2916	-9173	4733	-2137	-15024	3000	3964	-13429	14907	-4832	-8272	6144	15156	11272	-27897	32767	-9088	-1444	-4740	-4934	-32768	-3532	-8676	-488	-8472	-7181	-14165	-2116	80	125	1
-6536	-7820	12152	-475	-450	4212	-15044	-1652	3104	-7340	5780	-2600	-15336	984	2100	-9220	13167	-3178	-13164	5404	18824	8821	-31859	32767	-10388	1268	-6240	-10069	-32768	-5510	-8148	1484	-9184	-10403	-10557	-2280	135	121	1
-6336	-7436	12412	-440	-594	4480	-15560	-804	2400	-5059	7313	-2959	-16556	-5544	7400	1885	13442	-2832	-13704	3552	20108	10135	-32768	32767	-13716	-924	-6976	-12623	-32768	-8972	-7112	2392	-11296	-13246	-6807	-2294	132	113	1
-6388	-7044	12552	123	-554	4461	-15888	-1716	1376	-2425	8564	-3325	-17860	-5636	916	-1730	8504	-5374	-14560	3972	22320	12398	-32768	32767	-16860	-1256	-8888	-12476	-32768	-12066	-6880	2296	-13604	-13946	-3150	-2305	131	120	1
-6376	-7888	12692	-781	-283	4752	-17388	-416	604	-2046	9676	-3832	-17496	-1304	-1292	-1249	4595	-6027	-21240	10980	28420	13139	-32768	32767	-21412	-356	-11544	-10589	-32768	-15752	-5980	332	-13928	-9436	1255	-1965	123	131	1
-6604	-7732	12832	-2063	828	5162	-18252	-996	-516	-1999	10236	-3819	-16740	-2892	1476	-852	9341	-3403	-28216	11660	32312	10461	-32768	32767	-27972	-1444	-13644	-5889	-32768	-18739	-5776	-636	-11032	-1750	4024	-1718	123	137	1
-7188	-7516	13136	-2870	2570	5569	-18508	-1044	628	-2455	11393	-3808	-17444	-600	196	-124	9241	-2676	-32768	2812	32767	10966	-32768	32767	-32768	6860	-14968	5845	-32768	-20342	-8168	4244	-3344	-1914	3012	1175	116	141	1
-6648	-7576	14556	1758	8167	7742	-19160	220	468	-1061	12720	-4175	-18908	456	1480	-438	7527	-3127	-32768	412	26148	7261	-32768	27999	-32768	16880	-17352	-1446	-32768	-18157	-18108	5712	16488	3106	-12521	5191	113	136	1
-7444	-6780	14492	1430	11937	8678	-19036	880	320	421	14984	-4496	-18776	-532	7456	-2447	8664	-1696	-32768	-18644	-3936	4646	-32768	10239	-22424	9984	-27940	281	-31239	-9856	-30644	5240	28260	2370	-12452	5302	123	126	1
-7696	-7860	14432	1706	16919	9837	-21444	1452	928	996	17265	-4781	-19232	3964	6984	-3083	7993	-855	-32768	-32768	-21880	18214	-19571	-2828	-2344	7060	-32004	10788	-11585	-909	-23084	-12168	32767	-24759	6356	5502	125	108	1
-7288	-7956	14788	2608	20835	12027	-20360	1084	668	693	19661	-6020	-19064	4404	6740	-3120	7873	-837	-32768	-21908	-20716	2544	1845	-5381	652	17408	-30532	2969	11895	5410	-22952	-32768	19320	-27581	14115	2890	125	101	1
-9292	-7216	14616	5362	25074	14477	-22132	1224	1996	1634	22318	-5987	-18644	328	8060	-5684	5696	2618	-32768	-16112	-4820	-16972	20155	-10897	-13460	11392	-19800	-14312	28013	11614	-14968	-18848	9200	13949	1353	-11993	123	108	1
-9296	-10816	14856	7612	29731	21252	-28008	2744	4128	-2894	23964	-7420	-22032	736	15560	-10839	-261	4983	32767	32767	32767	-7377	23809	-6930	-32768	-19852	32767	-23174	11281	4624	-4320	-6544	-4308	2364	-1049	-10222	124	122	1
-9336	-15376	16616	7999	32767	30591	-32768	5120	17600	-19015	28794	-5361	-32260	2732	26756	7800	-19801	8381	-32768	1984	26684	-18007	32767	-27723	-7820	3736	-27936	-32768	24985	12288	-32768	16868	10656	-12819	-5995	8604	138	134	1
-11016	-6980	16648	6849	32767	32767	-32768	-3348	15184	-13553	26259	-3009	-32768	5356	9192	-8634	-11117	8640	7548	9336	14932	-20498	13259	-14201	-27664	7688	-7848	-7237	20325	17997	-28064	14528	-7628	-1686	13399	19499	143	144	1
-32768	5080	30208	-10745	32767	32767	-28828	2772	6144	-22517	28845	-5147	-25492	-5364	5308	-22688	-13798	8119	-28596	2956	20064	-12639	3408	-13557	-9748	6088	-17112	10219	16397	10536	-3364	-13436	-18312	11614	5409	18389	134	139	1
-32768	-32768	28188	-8934	26444	32767	-31320	-20328	7000	-15796	24041	2063	-28788	-12496	-13620	-23646	-12227	3259	-7448	5844	14348	-3814	563	-6090	-17596	7444	-6584	25693	12823	8303	-10008	17096	-9724	26119	9736	4921	118	118	1
-20780	-28988	24916	-6892	9372	32767	-21384	-7620	848	11871	13169	-3868	-26152	-5716	-12412	-11523	-16856	-2127	-10368	6692	14812	-2150	833	-4841	-20528	8904	-6412	10021	10778	6873	-26164	25596	-9300	-4118	11274	4232	126	145	1
-20804	-32768	1184	-3728	-9365	26873	-16568	-5016	-10212	-354	9718	-1104	-28372	-1156	-9500	1645	-20990	-2516	-9736	6376	13108	-681	1470	-2048	-16024	7280	-6184	-1002	9774	3101	-18508	2056	-5564	-13542	12230	4015	135	164	1
-2312	-32768	11080	-1223	-32768	-11089	-13092	-2248	2740	-5532	5697	464	-27248	5780	-7380	4689	-20911	-2109	-8452	7236	13176	33	1810	-1720	-17304	3612	-3716	2074	8046	2485	-13648	-1868	-4728	-4855	13667	1606	135	141	1
7796	-15736	-6104	9509	-25278	-16937	-9920	2352	4300	-2091	-4142	1897	-25968	1244	-5132	-1074	-22570	-2115	-8584	6988	12884	634	2002	-1978	-16788	6272	-2064	7089	6482	1927	-17288	6160	-3000	242	14795	1428	117	146	1
6368	-4680	-2044	-3717	-16073	-17082	-8144	1076	460	-2667	-12349	3774	-21048	-3432	-7004	24	-21704	-6704	-8536	8312	12376	145	1925	-3155	-15968	4532	-1092	9265	5470	1797	-17520	7140	-1988	-3130	14538	4905	93	159	1
-900	-13924	4988	-17956	-13113	-21111	-9320	-3432	-1316	3581	-19556	4467	-17772	-2352	-9592	5375	-19241	-4854	-8476	6240	13032	-26	2257	-3362	-16508	4520	-2884	6892	5221	1799	-17152	-748	-1900	-2832	14493	6307	129	137	1
-6396	-21092	9124	-13990	-16139	-29882	-8272	-2160	-632	7300	-24813	4690	-15320	-1900	-8808	9340	-17472	-3479	-8128	6268	13328	211	2777	-2722	-16724	2748	-2300	3735	4837	1143	-15908	-4828	32	5399	14147	5533	153	89	1
-4720	-12688	9596	-9164	-18697	-32768	-10248	-176	-612	11401	-29421	4870	-12548	-1604	-9284	9971	-17235	-3501	-8568	6412	13044	461	3117	-2559	-16200	3984	-2492	5115	4559	1243	-14896	-388	216	13905	15702	4233	148	50	1
-4944	-8004	11364	-14240	-19133	-32768	-10980	1392	-1704	14245	-32768	6605	-10204	-1692	-10572	11394	-15623	-3818	-9244	6528	12212	473	2680	-3016	-15252	3496	-2824	6173	4150	1683	-15144	2888	604	16082	17969	5222	131	117	1
-8100	-12384	15352	-17644	-20137	-32768	-12176	1892	-3224	15588	-32768	9504	-7968	-844	-11632	14185	-13458	-2244	-9008	6164	12004	958	1707	-3527	-14708	3316	-2200	9561	4279	1743	-13248	-572	980	18258	17373	4484	142	116	1
-10892	-13560	17476	-15252	-22246	-32768	-14312	2996	-3484	12779	-32768	11433	-6280	-1912	-13448	19504	-10865	-332	-8812	6728	12320	855	1808	-3852	-15116	4968	-1176	9010	4753	1797	-13692	-224	32	14698	16529	3398	123	110	1
-12848	-12420	20164	-14372	-22534	-32768	-17316	1752	-4400	12644	-32768	14633	-2504	-1420	-15592	25356	-8132	936	-8792	6744	12744	539	2171	-4278	-16116	4364	-1596	5882	5584	1806	-16852	2908	-404	6722	16644	5242	128	112	1
-16640	-16392	23840	-14968	-22801	-32768	-22252	332	-4796	12399	-32768	17301	-3056	660	-16528	23342	-2814	1375	-9304	6476	12752	-377	3186	-4763	-15872	2852	-2156	5614	6627	2060	-17124	2768	-1620	1810	12179	3829	125	118	1
-22412	-22224	29488	-13544	-24117	-32768	-30540	-820	-4784	11466	-32768	18797	-4540	2384	-14060	14303	1890	3946	-9092	5780	12800	-292	4032	-4622	-15348	3856	-2980	3209	7392	2072	-14780	3012	-3344	4040	6591	3017	139	125	1
-32768	-26436	32767	-12284	-25191	-32768	-32768	-1932	-6936	13430	-32768	22340	-4576	1936	-6884	11613	2052	3052	-8368	4644	13132	392	5362	-4732	-16368	3748	-2816	2214	8135	1528	-17216	5524	-2728	1548	6644	1672	131	136	1
