#Activity	walking 
#ActivityID	1 
#Date 10-21-15-52
acc_rf_x	acc_rf_y	acc_rf_z	gyro_rf_x	gyro_rf_y	gyro_rf_z	acc_rs_x	acc_rs_y	acc_rs_z	gyro_rs_x	gyro_rs_y	gyro_rs_z	acc_rt_x	acc_rt_y	acc_rt_z	gyro_rt_x	gyro_rt_y	gyro_rt_z	acc_lf_x	acc_lf_y	acc_lf_z	gyro_lf_x	gyro_lf_y	gyro_lf_z	acc_ls_x	acc_ls_y	acc_ls_z	gyro_ls_x	gyro_ls_y	gyro_ls_z	acc_lt_x	acc_lt_y	acc_lt_z	gyro_lt_x	gyro_lt_y	gyro_lt_z	EMG_r	EMG_l	act
-19656	-17108	19876	-18437	32767	22609	-17940	-128	-12924	-15443	15885	3777	-28504	-2376	-9344	-1342	-1679	-111	-8020	5164	13524	-460	-667	-300	-17680	1560	-3764	13115	8060	185	-21924	8416	-5832	11277	6575	1963	140	121	1
-9160	-11268	21280	-13361	32767	24840	-13536	-1820	-11116	-10221	12739	3639	-26672	400	-6272	-795	-1726	-507	-7580	5224	13364	-95	-111	-416	-17540	5720	-2300	6539	7214	-396	-14804	5896	-1464	2785	8116	-244	149	122	1
-30096	-25188	32767	-13148	5933	16597	-6852	500	-20984	-4118	9136	1214	-21608	-1144	-6704	-737	-1967	-634	-7568	4728	13492	299	399	-258	-16868	4896	-2164	-2284	7047	-1847	-15292	5220	-1528	-2543	9653	-11	136	118	1
-4796	-16972	25484	262	-20082	8076	-2860	84	-8268	-6117	4581	-713	-19720	-2416	-4960	-267	-2175	-637	-7788	4572	13428	624	595	-32	-16060	2064	-3712	-4839	6231	-2162	-15724	4532	-2016	-6167	9022	-277	154	124	1
1680	-8924	9188	7887	-24885	4794	-8320	464	-4160	-8375	-2829	-3845	-20864	-3392	-7224	-10	-1932	-633	-7632	5132	13240	553	573	-132	-16696	1640	-3776	-2088	4960	-1372	-15472	3320	-1924	-4530	9332	41	136	112	1
4160	-4632	3344	6697	-23315	1899	-4924	-224	-2964	-3197	-7423	-5344	-19248	-1472	-7744	255	-1799	-655	-7776	4776	13220	339	463	-293	-17064	1040	-3488	2192	3787	-818	-15636	1356	-1252	-1999	9366	1340	125	124	1
2252	-6284	5544	3154	-22018	-2422	-4032	-364	-4008	5047	-11876	-5427	-16608	-2288	-7624	294	-1763	-735	-7560	4728	13264	426	530	-250	-17076	1096	-2420	5053	3152	-404	-16320	-108	-720	2845	9653	2701	127	119	1
536	-9604	8848	4286	-22458	-7195	-3900	1472	-5372	9993	-16392	-6155	-13632	-1520	-7592	527	-1766	-715	-7524	4412	13308	590	526	-150	-16140	2032	-2272	5007	3061	-161	-16040	-260	-504	7058	9638	2906	120	110	1
108	-9988	9488	4752	-22695	-8047	-3904	2000	-5700	10513	-20344	-6743	-12704	-2128	-7912	626	-1625	-771	-7560	4472	13340	845	618	5	-15724	2376	-2484	3620	3086	-260	-15548	252	-620	10981	9919	2336	125	130	1
-5820	-9528	14764	8080	-31341	-19394	-5180	2168	-6504	9357	-24796	-6693	-11232	-2512	-7344	820	-1356	-841	-7596	4984	13320	1249	764	75	-16744	2208	-1956	4103	2441	-362	-14720	2196	-152	14267	10257	1170	127	132	1
-6440	-7828	12844	8302	-32768	-23168	-6940	296	-4920	9709	-29141	-6897	-11648	-1440	-8720	1026	-1300	-840	-7680	5036	13204	1319	721	56	-16932	3196	-2840	4387	3587	-821	-16608	3932	-584	12898	10502	1213	125	136	1
-7868	-6116	11784	7343	-32768	-23934	-9540	-896	-5216	11831	-32768	-8145	-10936	-2464	-9584	1692	-1335	-706	-7812	4980	13192	1170	705	-85	-15992	3348	-2912	4419	3793	-1002	-15268	5408	236	9296	10801	1740	123	131	1
-9772	-5656	10740	5212	-32768	-22685	-12184	-448	-7396	17404	-32768	-8075	-8680	608	-9104	2377	-1014	-617	-7656	5272	13024	1068	654	-112	-16216	3240	-1868	4552	4109	-1694	-15728	5268	-588	6738	10211	1622	125	124	1
-14440	-7624	16140	2983	-32768	-22244	-12304	2420	-7960	20858	-32768	-5430	-8312	2992	-8080	2583	-1036	-506	-7168	5304	13092	1020	855	-428	-16596	3412	-1916	2456	4737	-1933	-16552	4408	-940	4098	10672	625	128	119	1
-15092	-10652	19892	2367	-32768	-21990	-18940	4900	-11512	14398	-32768	-4485	-8536	2512	-5464	2243	-1256	-271	-7544	4948	13312	1023	1237	-652	-17168	1760	-3324	638	5077	-2124	-16464	4328	-1500	3619	10963	418	123	119	1
-21452	-14412	25144	2487	-31543	-22456	-20308	4972	-11700	12829	-32768	-4853	-8368	2168	-5280	2178	-1217	-239	-8096	4668	13276	1378	1538	-434	-16692	836	-3928	1256	5198	-2220	-14424	2912	-2436	645	13114	-283	143	118	1
-28960	-16920	30492	3466	-32768	-22283	-24636	2552	-14472	-844	-32768	-9761	-12304	2728	3168	1393	-710	-129	-8264	5080	13068	1506	1700	-317	-15592	2000	-3336	2266	5572	-2329	-14744	3204	-1108	144	13254	23	135	119	1
-30144	-19308	28232	6126	-32768	-22096	-25836	-816	-12600	3841	-32768	-10399	-15976	3552	7552	1041	-1014	-282	-7712	5840	12908	1091	1757	-551	-15392	3964	-2076	2328	6531	-2801	-15240	2812	380	241	11924	320	138	121	1
-27640	-15416	21272	7707	-32768	-21640	-26404	1748	-9976	8426	-32768	-9713	-17424	560	13344	555	-756	-261	-7496	5572	12900	424	2098	-1286	-16408	3468	-2152	1307	7569	-3575	-16440	2108	488	1028	11374	759	130	124	1
-29552	-6308	16452	254	-32768	-20953	-22904	3896	-9744	405	-32768	-7490	-14808	56	14104	-132	-195	-523	-8068	5316	13032	-33	2792	-1739	-16884	2552	-2664	1122	8632	-4207	-17636	2476	-416	2317	10680	1369	122	123	1
-29980	-6688	6340	2539	-30775	-14287	-18716	2052	-8652	-5887	-28218	-9739	-13984	1856	16720	60	50	-986	-7468	5640	13176	213	4123	-2036	-16892	2436	-2572	1425	9736	-5068	-17984	4288	36	3227	8233	827	116	123	1
-32320	3428	-6884	-1883	-22036	-5896	-11732	2620	-8156	-6320	-19424	-7490	-14944	3056	24704	261	-171	-883	-7204	5748	13272	567	5903	-2615	-17716	2836	-3092	1439	10969	-5820	-18192	3888	-788	4410	6494	111	117	122	1
-32768	1132	-13248	-8447	-11864	1542	-6540	1456	-7300	-10632	-6463	-5049	-15864	2592	25440	-140	-338	-203	-6876	7088	13444	143	8594	-3543	-18500	2900	-3504	1689	11893	-6378	-18172	3104	-964	4424	5350	248	121	121	1
-32368	-4864	-11672	-447	1620	4219	-3728	-992	-8068	-3423	6224	-1453	-14712	-1336	20888	-486	-368	-19	-8476	5324	13332	-128	11699	-4174	-18420	1636	-4212	1915	13015	-7023	-18136	3228	-660	4456	3175	266	114	117	1
-27944	-4796	-4592	4044	11779	3552	-10020	1644	-9272	3808	16389	3005	-16528	-664	18072	-168	-812	226	-8188	5492	13560	-14	15488	-5802	-18716	1856	-5172	3411	14182	-7312	-17280	2536	-148	5392	781	-358	127	118	1
-22464	-6344	2760	2645	18232	3384	-10900	1588	-9412	4535	17694	3515	-13064	-104	5152	-31	-449	391	-8840	5028	12540	19	20086	-7244	-19480	180	-4920	5318	15312	-7534	-17516	2260	272	5546	128	-464	121	119	1
27300	-3536	12572	5790	19615	4879	-32768	-4136	32124	1209	10661	2477	-12848	-3400	-4480	-176	1175	338	-8676	5344	13100	-177	24870	-9561	-21940	1288	-3640	7856	15819	-7622	-20316	2364	5392	5189	-6571	-1422	128	122	1
-9476	6832	11672	-1096	32767	17331	-17656	-208	-5064	16065	15310	-1067	-24584	-9112	23328	505	397	-499	-9128	5796	12840	-174	32299	-12755	-25764	1580	-1564	9228	17017	-8116	-22212	756	13104	-421	-12421	-3310	122	111	1
-16640	-2288	21188	-4550	32321	7758	-16740	12760	828	14220	17884	7110	-10320	4320	11568	2998	1970	-269	-11312	6268	13016	-537	32767	-16585	-28576	2588	2640	11853	18104	-8385	-18888	-5700	9888	6477	-9093	-6360	122	123	1
-22172	-15836	29472	-3102	27288	9749	-24132	2080	-6272	8092	17842	5593	-20296	5808	3056	1650	1409	-182	-11664	7304	13256	-756	32767	-16913	-28752	2324	2876	14628	18029	-8829	-24144	-5776	4436	13641	-6653	-5781	111	126	1
-20236	-2768	22520	12331	11180	3846	-18968	-7380	-18396	5029	21425	-979	-20208	-3560	-9080	-511	1132	-282	-24264	5820	18692	-1271	32767	-21300	-25520	2596	-3008	15972	17081	-9643	-21940	4716	-4188	17665	-9032	-4382	132	119	1
-4232	-14044	15228	5641	2214	2911	-18232	7280	-11340	17548	16376	3640	-14872	-688	-14056	-1200	1045	-352	-32768	5156	21672	-939	32767	-21053	-22604	2192	-11164	11726	15555	-11109	-21300	10508	-9700	16235	-14407	-4466	102	128	1
-7232	-1552	15656	3938	-531	1363	-10268	1184	-10284	2524	13368	-471	-11288	-2208	-7664	-1116	1012	-281	-25464	7584	13204	-481	32767	-19075	-21396	2740	-7308	8736	13274	-12825	-20768	9736	-14616	10177	-17371	-2023	102	141	1
-5704	-5184	15324	1554	-724	152	-15288	3776	-8092	-6325	9413	-2108	-16432	-6432	-7640	-1555	987	-602	-26548	7680	22496	457	32767	-19896	-15748	-544	-15756	133	12819	-12902	-24136	8960	-9464	-281	-18716	4034	139	139	1
-5908	-6088	14996	1152	-671	66	-19612	-1020	-6844	-15204	7809	-3407	-20712	-11848	-4640	-1378	1046	-533	-24760	13076	32767	-1758	6391	-18143	-11524	924	-17224	-4258	10446	-10218	-25508	9128	-11104	-6248	-16867	5925	117	132	1
-5644	-5848	15144	1281	-314	162	-18124	-8612	-5416	-2016	6090	-758	-19560	-6840	72	85	1299	-57	496	10636	23368	-1386	-30415	-10321	-11852	4384	-4072	-590	3541	-7283	-25332	6064	-7872	-11209	-17004	5511	124	123	1
-5444	-4404	15232	443	-5	-31	-16472	-1924	-2952	10259	5166	2630	-14536	-2840	224	1153	1623	112	2468	9484	19616	-2092	-30895	-10704	-7444	1624	1248	1847	-5598	-2157	-22212	1808	-9120	-10259	-14813	4195	115	123	1
-5576	-4932	14940	-49	231	-60	-15448	892	-4836	9739	4426	1620	-14856	112	24	1094	1558	56	0	8220	8484	-1670	-32768	-11386	-5792	1800	-680	-953	-10058	536	-19596	-748	-8696	-9401	-13461	3970	139	130	1
-5612	-5412	14804	-275	299	-43	-15596	2204	-4616	3105	3654	46	-16008	824	288	498	1459	-61	-1152	9404	7376	-539	-32768	-9181	-5720	1032	-1732	-3797	-14505	3249	-17212	-816	-8660	-10082	-13029	4563	119	138	1
-5696	-5080	15088	-395	234	-31	-16248	1644	-3880	-4513	3342	-1294	-17088	2616	744	-401	1384	-206	-3140	11008	7752	908	-32768	-4721	-7316	-1396	-2888	-3009	-19839	6671	-15436	140	-8968	-11076	-14189	4623	133	127	1
-5608	-4860	14812	-364	52	34	-16252	-268	-3464	-7991	3468	-2228	-16064	336	1272	-1442	1257	-93	-6980	11508	10476	3888	-32768	2301	-7880	-2184	-3948	-1191	-24136	9624	-13852	500	-9580	-10472	-14044	2659	139	132	1
-5212	-5244	14804	-543	63	-44	-15464	-2396	-2528	-7858	3057	-1613	-15736	-3280	1192	-1684	1144	-46	-10300	11156	11892	7606	-32768	10743	-9268	-1748	-4596	-1368	-26228	13746	-12432	828	-9772	-10760	-13991	2025	144	140	1
-5604	-5280	14836	-453	185	118	-16196	-2820	-3000	-3570	3168	-1114	-15888	-3904	1320	-1392	1093	50	-10524	8816	10536	8895	-32768	16124	-11104	1624	-3596	-1207	-30677	16572	-10604	-236	-8468	-14616	-13815	1041	132	143	1
-5592	-5424	14740	-250	107	208	-16056	-808	-3268	-3272	3951	-666	-16520	-3968	1632	-1178	1221	52	-13584	6656	13024	9992	-32768	18234	-12872	2872	-4580	-6609	-31969	20510	-9064	-784	-8004	-14571	-12282	730	129	144	1
-5800	-5368	14836	-180	19	167	-15764	-788	-2992	-4248	4047	-522	-14880	-2696	2968	-875	1415	-154	-17056	5952	14652	10876	-32768	19734	-17944	2388	-5828	-13508	-32768	21013	-9812	-20	-7588	-13786	-10951	727	138	141	1
-5492	-5232	14840	-327	-41	69	-15436	-1112	-1916	-4299	4740	-480	-14920	-2680	3840	-559	1544	-250	-18888	6268	16520	9292	-31301	21765	-21584	96	-6580	-19397	-32768	20025	-9964	404	-7416	-13783	-10734	1282	135	136	1
-4648	-5292	14872	-400	377	391	-16176	-2020	-1840	-2550	5576	-13	-15672	-4064	3552	-276	1670	-211	-22164	6268	21668	8013	-28284	24474	-25824	-1488	-8300	-17552	-32768	19383	-9164	-1620	-4672	-11379	-9559	1427	129	136	1
-5484	-5212	14940	-574	812	561	-16464	-828	-3748	-1183	6214	440	-16400	-5056	616	-102	1791	-98	-26780	6096	27572	5340	-29574	25718	-27288	-416	-11340	-14280	-32768	19203	-9472	-616	-2468	-6415	-5664	1523	128	131	1
-5924	-5504	14916	-713	1114	606	-16080	-408	-4420	-1686	6472	410	-15752	-4864	-2416	-89	1787	5	-28092	2156	27496	5279	-32768	22888	-27016	-204	-10576	-11218	-32768	19787	-11016	44	-412	-5789	-5662	3597	128	133	1
-5896	-5340	14780	-686	1133	481	-15016	-1048	-4024	-1831	6981	525	-15072	-3944	-1400	-13	1520	59	-28692	2676	24056	7184	-32768	18881	-28076	664	-9908	-9799	-32768	20281	-13348	-1012	2332	-5833	-5462	3949	128	128	1
-5408	-5436	14544	-592	1299	699	-14948	-1924	-3572	-890	7538	764	-14976	-2624	1080	-63	1311	31	-30596	-3132	20848	11197	-31922	17117	-26644	-3932	-11200	-5693	-32768	19143	-14500	1432	6396	-7264	-4252	3400	127	127	1
-5496	-5212	14808	-1086	1917	937	-16100	-684	-3372	-852	8519	1074	-16456	-704	2192	-158	1303	-76	-32768	-4892	13584	14335	-31416	14667	-24492	-3848	-13960	1091	-30771	18120	-14776	-252	12792	-3945	-6058	5583	130	126	1
-5660	-4536	15032	-2139	2877	749	-16364	552	-3112	-2248	9766	1251	-17048	-656	2248	-243	1231	-155	-32768	-11628	-4108	15072	-25776	9071	-17036	-4040	-13488	4542	-21995	16166	-16012	-4552	18040	-3584	-3748	4779	126	124	1
-5356	-4416	15344	-3666	4346	641	-16960	-388	-1988	-2320	11371	1793	-17992	-2216	2736	-612	969	-99	-32768	-15512	-13568	18744	-14048	4617	-10640	-5764	-14900	7271	-10775	10806	-16860	-1444	23416	1019	-4855	703	123	116	1
-5044	-5016	15216	-4426	6827	837	-17492	-1836	-3288	-1500	13080	2233	-18584	-2960	2944	-744	771	-85	-32768	-11668	-16264	9194	-4418	2393	-6736	-4300	-15148	4460	2113	2616	-16636	3884	19368	2632	-2391	451	117	114	1
-5180	-5240	15012	-4572	7151	957	-18052	-1204	-3824	-1773	14730	2818	-17384	-3344	2144	-832	574	-54	-32736	-10396	-12412	-3477	5823	177	-10744	-3508	-13628	-276	11847	-4709	-16024	3676	14852	3421	-1202	328	127	118	1
-5212	-6628	14676	-7661	13149	2583	-18136	-416	-5416	-2937	16415	2882	-17784	-2080	1272	-1013	375	83	22780	-1948	328	-1295	14735	1904	-17308	936	-7480	-2877	18392	-9252	-12352	1484	2828	-1075	2524	23	116	122	1
-4732	-5564	14776	-8584	17731	4526	-19532	1100	-5328	-4549	17558	2507	-18784	-880	3464	-1088	-49	210	11280	3548	26508	-9158	25248	-8278	-32768	14684	32767	4866	7065	-5614	-15432	64	-6996	-4140	10921	322	120	130	1
-6476	-6192	15568	-10206	24234	6169	-22384	1344	-4808	-6692	18663	2999	-22128	-2088	6688	-917	-556	199	-31828	3116	27984	-6388	32767	-9759	-19740	-11900	-9016	-18090	14186	-7562	-32768	2768	10300	-5217	-7319	1948	125	133	1
-7088	-8552	15036	-12385	32767	8022	-26276	1688	-1940	-6732	20115	2624	-22224	-904	12856	-619	-1259	489	-14724	-5148	27656	-1049	24348	-8068	-27792	2304	516	-2582	17600	-8552	-24516	-2560	18644	-32768	3123	-3582	113	157	1
-7636	-6844	14192	-15341	32767	9714	-29600	1424	2964	-8260	21435	3192	-22816	2640	10616	-778	-1425	865	-18112	17988	16700	-840	16996	-5044	-28716	3676	-576	-1999	17919	-7521	-4860	-7964	-2632	-6121	17602	118	128	116	1
-10652	-9920	16988	-18468	32767	14093	-32180	1052	3256	-12799	21939	3012	-25048	3392	13376	-764	-1867	1049	-22184	4496	26072	-8168	13516	-6817	-13992	9376	-3952	-6934	16657	-4838	-12820	5424	-10324	14283	13747	4517	122	133	1
-25760	-18116	30088	-23331	32767	17342	-27320	-296	-3812	-20708	22610	3557	-21760	-3272	3952	-1493	-1882	960	-17316	4760	19104	-6984	4570	-4974	-11952	-704	-10492	-5907	15366	-4771	-10960	9120	-9748	12351	2831	4024	137	151	1
-29452	-18624	28116	-23146	32767	19248	-23624	-5588	-10264	-21634	22589	3941	-20264	-8560	-5664	-1872	-2002	476	-9320	6856	15556	-5580	-66	-3074	-19248	-2612	-7752	1635	12356	-4718	-13452	644	-7784	7753	5407	6271	129	140	1
-28016	-18232	22492	-21191	32767	20591	-21616	-1204	-13268	-14032	17356	3859	-27640	-6904	-9344	-1206	-2015	-148	-9008	1344	15604	-2586	-486	-1919	-20068	-4420	-4260	8865	8913	-2166	-13416	-684	-5940	8674	6224	7644	145	112	1
-10548	-11000	22252	-24312	32767	19810	-16388	84	-12104	-1854	12555	6545	-29544	992	-5464	-386	-2222	-633	-7420	4952	14340	-1271	-336	-819	-18428	2580	-3252	10557	7533	-890	-22480	6332	-7260	8562	7751	349	154	117	1
-29968	-15008	24264	-13436	16725	16450	-8600	-292	-17232	-2700	9777	3564	-25192	-1864	-5936	-439	-2344	-690	-7160	4320	14068	-722	5	-629	-17004	5440	-1948	1334	6993	-1433	-14736	4812	-3068	-363	9161	-475	141	127	1
-6472	-19264	30508	5942	-18478	5928	-3072	0	-12420	-4407	3786	777	-23104	-2888	-4768	68	-2320	-578	-7092	4244	13832	-183	364	-402	-16380	3204	-2072	-6523	6584	-2307	-14108	4308	-1472	-5524	11768	306	169	124	1
88	-9200	15360	14991	-28511	3048	-8680	-1452	-3792	-7560	-2856	-2971	-22496	-4912	-7232	249	-2078	-558	-6944	4804	13576	-215	559	-386	-16076	1716	-2960	-6450	5765	-1832	-15700	2488	-1048	-6458	10868	312	148	119	1
2204	-2852	7004	13091	-31425	1904	-5732	4	-4316	-2473	-9518	-4541	-19184	-1304	-7952	662	-2051	-667	-6844	4944	13536	-781	523	-576	-17176	1012	-3192	-2056	4553	-1256	-15656	736	-1076	-1860	11156	778	122	125	1
1808	-2868	5628	6889	-31348	472	-3948	-452	-2996	4111	-14650	-4734	-17280	104	-7712	396	-1976	-571	-6928	4688	13620	-1128	427	-765	-17096	520	-2732	2995	3632	-500	-15412	308	-844	2096	11268	1768	125	125	1
-412	-7368	8528	5283	-31295	-1506	-4148	888	-5716	8263	-18866	-6158	-15104	-344	-8600	427	-1944	-603	-7244	4136	13828	-899	408	-655	-16200	540	-2344	6259	3331	129	-15704	-152	312	6376	11052	2724	118	122	1
-2388	-9492	11432	8100	-32626	-5183	-4092	2624	-5700	8629	-23932	-6831	-12360	-664	-8104	646	-1773	-611	-7376	3964	13808	-346	260	-348	-16460	1776	-1676	7533	3238	262	-15948	-44	560	10013	10775	2658	122	124	1
-2964	-9572	12128	8386	-32768	-6150	-5036	3040	-6616	6901	-28587	-6872	-12784	-2128	-9584	535	-2178	-599	-6968	3868	13820	346	190	-20	-16592	2804	-1884	5735	2826	-114	-13968	1680	568	14089	10369	1209	119	116	1
-7752	-9560	13492	7787	-32768	-17196	-6908	3392	-5472	2525	-32262	-7277	-9640	-1488	-8856	859	-1693	-476	-6676	4540	13508	624	388	62	-16772	4220	-1620	2346	4347	-1078	-16964	2764	-372	13359	10695	393	123	141	1
-8372	-7628	11636	6773	-32768	-19320	-9132	504	-4420	1867	-32768	-9528	-8056	-168	-8896	1405	-1113	-448	-7020	4684	13584	541	493	-191	-16220	3228	-2096	1193	4601	-1328	-15888	5804	-312	9457	12581	1252	126	119	1
-10088	-6908	11748	3532	-32768	-19039	-12016	-492	-6312	6015	-32768	-10854	-6528	1376	-9456	1843	-1128	-350	-7040	4476	13676	373	309	-370	-16800	2148	-2648	3040	4648	-1642	-15320	5184	-1440	6068	12866	1824	130	123	1
-14276	-9136	14864	1184	-32768	-19099	-13420	-824	-8764	14085	-32768	-10077	-6384	3152	-9016	1792	-1133	-254	-6788	4552	13800	332	271	-600	-16732	2496	-1632	3857	4784	-1663	-15488	3944	-1632	4203	12388	541	133	124	1
-15632	-11128	19448	271	-32768	-19663	-17592	4128	-9768	15350	-32768	-7408	-6752	2720	-6352	1656	-1166	-23	-6876	4256	13600	208	369	-848	-16560	2580	-2512	2088	5378	-1989	-15548	3504	-1956	2214	13627	146	144	123	1
-25368	-18152	30404	1842	-32768	-22039	-24644	5732	-14388	9070	-32768	-9096	-7936	1824	-3056	1282	-823	143	-6956	4364	13740	237	440	-971	-16620	2312	-2480	909	5842	-2296	-14396	2844	-764	50	14599	261	143	118	1
-26728	-19300	31584	2756	-32768	-22606	-26700	3784	-14800	733	-32768	-12036	-10840	2240	1816	1229	-690	60	-6788	4864	13664	246	803	-1124	-16216	3008	-1848	1400	6462	-2605	-15616	3440	1812	-323	15434	871	130	119	1
-31560	-18540	24416	10450	-32768	-25546	-26500	1480	-15632	8755	-32768	-13110	-15008	-2392	7048	1028	-856	-291	-6572	5528	13620	-467	941	-1696	-16052	4844	-428	1556	7883	-3288	-16524	3660	4500	-1291	14557	1669	134	122	1
-32768	-8804	17572	4056	-32768	-26637	-25492	2000	-13644	6365	-32768	-6035	-15480	-3400	8184	954	-775	-350	-7396	4788	13588	-1096	1564	-2440	-15588	4156	-836	162	9889	-4606	-18200	3900	3564	240	12310	1638	126	121	1
-32768	-5768	8224	12517	-28433	-17501	-24768	-624	-14096	3708	-32768	-4306	-14792	-5160	18136	583	-616	-1265	-6708	4884	13820	-1227	2438	-2706	-15460	3836	-728	14	10171	-4810	-17932	4872	3408	2406	8806	1099	120	122	1
-32768	1080	-13444	12301	-19397	-4515	-11312	2112	-14380	70	-19930	-4555	-16136	8944	29240	936	-176	-630	-7088	4828	13936	-1533	4181	-3545	-17540	3752	-3100	-12	13378	-7005	-18532	3828	732	3798	6490	855	127	120	1
-32768	7284	-20492	-9834	-14239	5498	-920	6776	-12020	-6670	-3234	-3252	-15360	8184	30792	-164	-30	492	-5900	3888	15312	-1165	6878	-3989	-19160	1244	-4044	1427	14346	-7911	-17004	2716	-2016	4550	4964	1604	130	119	1
-32768	-7736	-19768	-3757	2237	9717	-6572	-496	-11624	-10903	11340	-256	-15408	-168	23160	-711	-486	257	-4776	3388	15848	-1149	7430	-4087	-20588	364	-4860	3390	14933	-7851	-19284	2456	-3028	6987	2316	1385	122	121	1
-32192	-8464	-5392	7039	17484	9243	-12096	-304	-12404	-1735	21668	2751	-13976	-304	12720	-628	-507	244	-8112	4936	14552	-548	16053	-5781	-20620	168	-4948	5162	15992	-8125	-18308	2024	-968	7272	-889	-572	127	118	1
-31020	-29068	32767	660	16862	3206	-24580	-4140	26236	-8406	19399	6327	-10560	-2320	-5056	-266	1006	358	-8180	4548	15324	-1420	21642	-8009	-21296	848	-4764	6839	16940	-7997	-19072	2268	2168	7083	-3588	-1508	120	119	1
17500	7656	-14700	2517	32767	17890	-32768	-5120	14636	15187	13385	-2665	-28792	-4432	15024	407	1207	-205	-7852	4816	16472	-2570	29427	-10378	-25008	2508	-4068	8122	17444	-8715	-22960	4548	5972	4267	-8013	-1504	129	123	1
-32768	-18692	32767	-8753	32767	2835	-12876	15012	-10076	20451	17307	5736	-13968	560	12136	2236	1716	-594	-9068	6276	15644	-3717	32767	-15302	-27468	2800	-664	9343	19177	-8705	-23092	4344	8280	3302	-9755	-2033	120	121	1
-29008	-13516	32767	-2417	25133	9202	-21792	-1860	-11268	7348	19267	5885	-16016	1224	5616	2189	1348	-371	-10972	5688	15404	-5992	32767	-19732	-30344	4356	3052	12323	19880	-9430	-22388	-2056	10752	2358	-12432	-6685	110	126	1
-2732	-5928	17268	5440	5639	1846	-22444	-936	-10596	6209	21236	-322	-20888	3704	-17096	-493	1891	-261	-21492	6968	20164	-6712	32767	-24183	-32660	4312	1944	14702	19412	-9101	-26360	-1132	2416	8913	-11568	-7631	132	140	1
-6844	-12064	15308	3126	982	1677	-14472	4560	-14708	6231	16679	796	-14456	-592	-13096	-1720	1075	21	-32768	4128	28660	-5561	32767	-26930	-26724	3056	-6328	16402	17602	-10131	-20236	2280	-5484	13960	-13339	-5634	119	120	1
-4628	-5528	15244	2344	-501	832	-8564	2240	-8992	-6665	12640	-1166	-9288	-3440	-8784	-1742	939	-171	-32768	6736	22808	-4706	32767	-24192	-22380	3060	-8616	14777	15323	-11734	-21704	5908	-9332	18198	-14983	-2345	105	125	1
-5756	-4568	15320	1018	-806	-46	-15848	1620	-9116	-9774	8549	-2661	-9496	-2608	-7984	-1694	1001	-233	-20320	10212	23600	-8960	32767	-27801	-17540	2264	-10016	10723	14811	-10153	-24840	4572	-9604	12001	-16248	2371	113	128	1
-5300	-6208	14996	537	-696	-219	-20644	-684	-7040	-15415	6384	-3906	-22240	-10808	-5800	-1806	1245	-658	-13908	5268	32767	-10116	15315	-28539	-12704	4748	-11664	3858	11306	-6135	-26744	5216	-10392	7861	-16667	5816	119	129	1
-4904	-5868	15048	415	-427	-278	-18936	-7520	-4900	-2692	4820	-1563	-19528	-8536	-512	-433	1432	-51	-3120	14080	31108	14488	-22348	-13719	-12616	-1976	-5904	326	4239	-4870	-24420	7508	-8152	-2344	-19317	6910	100	114	1
-4924	-4872	15296	-311	42	-358	-15832	-3360	-3072	9590	3800	2099	-18152	-8728	0	-151	1520	44	2956	18028	12512	9349	-28944	-7599	-8428	1448	3372	10387	-5974	1790	-22472	3220	-9908	-6022	-17916	5012	102	125	1
-4880	-5420	14976	-932	368	-361	-15336	1056	-2972	7615	3431	1494	-14048	-2792	224	1274	1705	254	3404	15492	6224	1831	-26797	-1767	-5020	1532	2296	7016	-10916	5814	-18144	1556	-10176	-5687	-14194	4988	111	130	1
-4928	-6032	14736	-969	402	-175	-15776	1400	-3104	-1391	2961	-307	-16344	-24	984	617	1521	-44	-664	12600	7728	3695	-25978	7289	-4048	1964	-1292	-184	-14451	8050	-16204	2488	-10480	-8139	-14159	5627	124	137	1
-4936	-5748	14908	-906	383	-85	-16508	628	-2844	-8119	2963	-1822	-17040	2096	1328	-556	1372	-186	-6792	12520	12540	4953	-28841	14827	-5828	2680	-3664	-8778	-18808	10879	-14160	2520	-9844	-10758	-13501	4626	153	127	1
-5132	-5384	15048	-1023	364	-48	-16020	-1896	-2424	-8545	2848	-1100	-16512	-360	1256	-1407	1302	-107	-8624	9464	12664	3828	-32768	19613	-8048	2560	-3752	-15858	-21848	13960	-13080	4040	-10568	-9653	-11811	4913	145	142	1
-5236	-5728	14896	-1149	281	-142	-15816	-3148	-2112	-3721	2804	-305	-15408	-3512	1704	-1502	1310	-18	-9336	6720	11088	5034	-32768	23132	-11624	1520	-4556	-15864	-27861	14387	-11712	4016	-11060	-14334	-13982	4943	138	161	1
-4932	-5628	14716	-1064	262	-25	-15508	-528	-2084	-3789	3509	-181	-15648	-3432	2952	-1131	1449	17	-12144	5708	13140	5662	-32768	24561	-11608	1960	-4496	-18922	-30445	16710	-8352	1608	-10556	-19676	-12639	4000	136	143	1
-4944	-5752	14672	-989	131	39	-16268	-1216	-2344	-5596	3796	-156	-15008	-2576	3840	-806	1755	-98	-16104	5624	16252	5515	-32768	25644	-14640	996	-6092	-22586	-32768	17120	-7768	-504	-10248	-21733	-10903	2018	134	131	1
-5352	-5160	15036	-1097	137	150	-19932	1980	-3268	-7653	3808	1735	-15624	-2888	2040	-736	2048	-162	-16244	3532	16328	4883	-32768	27570	-18808	-920	-7840	-23181	-32768	17098	-7480	932	-10140	-21212	-10149	2202	119	131	1
-5196	-5032	14488	-966	365	179	-15188	-3072	-2532	-5233	4578	-705	-15368	-3768	736	-432	1806	-156	-19008	3076	19088	7766	-32768	26484	-23936	-48	-9184	-17803	-32768	16632	-8460	524	-9092	-19688	-8692	2550	124	132	1
-5532	-6072	14708	-1342	238	-104	-15376	-568	-1624	-3356	5750	1139	-15944	-6152	848	-158	1501	-35	-24248	2712	26808	6879	-32768	20823	-26804	156	-11420	-10998	-32768	19142	-9200	-1528	-5160	-12693	-4241	2691	130	132	1
-4364	-6268	14440	-1289	358	-72	-15156	-2220	-972	-1769	6957	1236	-16248	-6064	2296	-29	1385	88	-27944	2728	28332	8861	-32768	17024	-28032	-388	-11608	-7443	-32768	20016	-10544	-2284	-2896	-8342	-2699	2734	131	130	1
-4780	-5904	14684	-1222	1006	526	-16844	-1760	-2360	-164	7880	1761	-17328	-2568	2304	14	1548	44	-32768	2692	25204	10241	-32768	14278	-29260	-920	-12896	-4129	-32768	20776	-10340	-3116	-336	-4595	-2314	3503	128	130	1
-4968	-6028	14792	-1520	1674	785	-16792	48	-1660	-592	9114	1851	-17600	-88	2752	53	1480	-32	-32768	24	21324	11828	-32768	13078	-29596	-1520	-14764	-1595	-32768	20391	-15004	-2060	6632	774	-4148	5590	129	123	1
-5688	-5232	14896	-2352	2401	462	-15128	416	-1356	-754	10866	2116	-16272	-360	3992	-114	1161	-16	-32768	-1904	6384	12312	-30806	13248	-24988	-3012	-16552	-990	-29847	18555	-20892	-2680	16092	-2660	-9415	7658	127	123	1
-4824	-5376	15036	-4239	3711	139	-16688	-268	-1464	-84	12652	3084	-17720	456	4312	-349	982	-18	-32768	-14088	-7872	15920	-21703	11253	-15792	-5852	-17748	-1156	-19662	15123	-17612	-7848	23532	-3214	-6344	5916	127	123	1
-5088	-5956	15064	-5929	5452	116	-17864	352	-1836	165	14718	3422	-18120	-336	3984	-527	813	-19	-32768	-20296	-18300	14714	-11813	6523	-7632	-8596	-19016	2798	-6108	8883	-14864	-12	26320	4118	-2616	3593	124	125	1
-4124	-7136	14960	-7261	8184	388	-17652	-1724	-2556	-590	16443	3965	-17576	-3208	3208	-788	513	-4	-32768	-21936	-19944	3282	-275	779	-7100	-7664	-17492	4299	6767	-316	-16160	7024	18636	5082	2313	3666	121	116	1
-3672	-7308	14684	-9052	11840	1376	-19132	-568	-3856	-1124	17841	4471	-18416	-2704	2688	-932	173	137	-32768	-17492	-9644	-3756	8123	-4524	-11012	-6672	-16504	2892	17847	-7859	-14796	6028	12140	5933	1365	1297	119	117	1
-4064	-6896	14384	-10318	16882	3671	-20032	2224	-5064	-3515	19364	3533	-18576	96	4104	-911	-301	363	13904	804	32767	-1552	10583	-4698	-12112	-6288	-16020	2549	19388	-8756	-8640	676	-7540	1302	11573	-1718	122	131	1
-4684	-7516	15012	-12584	23203	5819	-22428	3416	-4128	-6620	20476	3556	-20960	1192	9192	-777	-881	511	5608	7124	-7232	-6191	32767	-17470	-25960	-5176	5684	-403	11970	-3908	-31968	-3008	3880	3632	2303	-3019	120	121	1
-5212	-9372	15108	-15848	32767	7007	-28428	3132	756	-8539	21672	3860	-21840	3528	11096	-438	-1225	643	-32768	5684	32767	128	27239	-5082	-20896	2316	-5788	-2653	17441	-8312	-32768	1716	16920	-15140	-8533	-5901	121	153	1
-4636	-9668	17412	-20851	32767	8748	-31024	1916	5096	-10757	23769	4669	-23256	4584	13496	-780	-1652	1008	-24308	13768	29552	-2864	20536	-7587	-27492	6416	-4260	-4969	19513	-6784	-2284	-916	-9024	-16955	16775	-4182	120	130	1
-10532	-13208	20860	-25946	32767	13086	-32768	-764	4532	-16171	23619	5569	-25648	-600	13280	-1041	-1745	1014	-25860	7152	28320	-8101	12690	-5636	-16732	9148	-7540	-15130	17682	-7419	-12332	4700	-6152	5614	15833	4811	120	136	1
-24708	-25084	30496	-25269	32767	19130	-28168	-4536	-6668	-17056	23684	6058	-22960	-9600	-696	-2173	-1739	942	-12868	6516	17404	-6978	3887	-3453	-12524	-2156	-9576	-9675	15208	-6143	-12312	8216	-14396	9606	9375	3519	122	157	1
-29036	-24580	26544	-20645	32767	24143	-23904	-6848	-13232	-13186	23361	6363	-21144	-13976	-8464	-1918	-1786	329	-10224	3480	14512	-3254	27	-2574	-17384	-5424	-8052	4962	11953	-3955	-14044	-1368	-9200	4798	3130	4171	148	115	1
-22516	-18924	27148	-26204	32767	22017	-20612	-1064	-12284	-592	15665	8389	-30448	-7904	-8528	-639	-2066	-467	-7656	3368	14880	-964	40	-874	-19468	-3340	-5440	13853	8569	-1305	-13820	2260	-6712	12898	10091	7035	154	111	1
-8272	-16600	21680	-21337	32767	21373	-14716	-1236	-15512	7050	12708	10336	-29472	-2784	-6280	155	-2189	-744	-7292	5120	13512	513	285	-201	-18840	3084	-3992	13581	6632	-21	-21052	6188	-8564	12702	9526	1027	157	111	1
-28648	-32768	32767	-10805	17485	16148	-14108	-2796	-15352	5083	12116	10278	-24384	-6872	-5224	550	-2437	-721	-6924	5020	13776	1042	498	0	-17368	6848	-1940	3073	5944	-1075	-16116	6068	-2696	4435	10694	-253	140	120	1
-4328	-20904	30176	15146	-17527	3477	-2172	-1772	-9072	-1626	2339	5913	-20256	-6440	-7136	1183	-2142	-662	-6660	4644	13664	1927	1100	240	-16616	2804	-1960	-4755	5691	-1875	-14232	3652	-1216	-1581	12906	-242	150	127	1
2936	-7640	13728	23759	-25862	3217	-7932	-4476	-2752	-3356	-6903	1325	-20136	-1488	-7952	1261	-1981	-725	-7140	4940	13464	2324	1294	305	-16204	1156	-3916	-1835	4770	-1279	-15360	1676	-1216	-610	12436	-79	141	118	1
2920	-2816	8268	20612	-29231	5237	-4440	-2768	-3496	2643	-12599	409	-17608	-672	-7024	848	-1948	-733	-6860	5520	13444	2545	1314	232	-16944	992	-3028	5886	3537	-124	-14964	756	-1392	4996	11962	1100	121	132	1
1108	-5656	8108	13924	-31562	5638	-3216	-2392	-3744	8825	-17442	-584	-15544	-152	-7456	854	-1927	-675	-6368	6128	13168	2482	1589	-16	-16756	2160	-1272	11505	3045	491	-15144	812	-1492	13744	12289	1328	121	129	1
-1084	-11440	10036	12609	-32768	3660	-3632	80	-6164	9966	-22116	-2167	-11832	-672	-8032	1164	-1768	-687	-7636	3932	13908	2986	1381	241	-16352	1932	-1756	12049	3046	-90	-15968	2604	-1020	15101	11690	1095	116	132	1
-3676	-14636	11196	14422	-32768	-1204	-4024	-496	-6332	8136	-26985	-2719	-10856	-1416	-8080	1216	-1861	-661	-6792	5412	13216	3080	1372	421	-16132	4208	-672	10528	2983	-257	-15028	2712	-320	17107	10955	-482	121	126	1
-5524	-15020	10220	15967	-32768	-7856	-7060	3616	-5592	6029	-31263	-3819	-10312	-72	-7488	1398	-1622	-574	-6484	5724	12940	2538	1576	47	-16256	6324	-800	6203	5300	-826	-17840	1824	832	12004	11811	1395	127	135	1
-6792	-12716	9412	13359	-32768	-14015	-8536	1868	-5056	1039	-32768	-5288	-9024	272	-7728	1437	-1340	-498	-6888	6048	12892	1871	1456	-473	-15596	4140	-1656	5054	4255	-1582	-15956	6684	2308	9645	13783	750	126	133	1
-8176	-11892	10272	9054	-32768	-17441	-10800	-492	-5432	814	-32768	-7205	-7880	1360	-8912	1669	-1146	-452	-7056	6560	13060	408	1291	-1217	-17020	3992	-1336	6547	4854	-2196	-16512	7640	-740	5534	14337	2692	125	126	1
-11536	-11636	12252	4980	-32768	-18352	-14368	-2196	-8428	5194	-32768	-9973	-7608	2368	-8768	1975	-1055	-207	-7544	5924	13112	-4	1321	-1334	-16752	4000	-1276	6526	5081	-2333	-16148	5108	-556	2761	11424	1055	135	117	1
-14516	-12728	15700	2400	-32768	-19049	-13856	-376	-9072	11933	-32768	-9025	-7616	3096	-8840	1551	-945	-116	-7500	5932	13364	-73	1674	-1310	-16680	3440	-1912	1885	6721	-3771	-15988	4756	-260	2436	11991	-734	145	120	1
-18768	-18260	25100	3986	-32768	-19484	-21184	2760	-13284	10490	-32768	-9366	-8568	3024	-7016	1072	-792	123	-7808	6096	13240	-66	1814	-1183	-16820	3168	-2476	853	7355	-4494	-15372	4540	-376	2066	13201	-1191	144	121	1
-26220	-24224	32164	9363	-32768	-23267	-26472	2896	-15372	8531	-32768	-11614	-10040	2736	-2840	1048	-453	159	-7204	6804	13072	-881	1799	-1790	-16152	4908	-1432	784	8270	-4984	-15764	4804	-1764	1462	13316	-963	141	116	1
-28492	-24260	26548	14179	-32768	-26268	-28836	3528	-15188	12546	-32768	-13087	-12384	-2656	4224	818	-804	-26	-7184	7392	13184	-2750	2043	-3477	-15712	6468	-2268	-1719	9168	-5154	-16080	4532	-684	991	11493	-43	137	117	1
-32768	-9716	23084	3359	-32768	-30207	-25988	3956	-13344	4357	-32768	-8298	-18352	-5128	8904	328	-676	-533	-7356	3228	13740	-816	4002	-3204	-17736	-1184	-2660	-2501	10037	-6834	-17172	2368	1072	296	11567	1005	126	119	1
-32768	-8768	13984	8004	-32768	-22281	-26788	-232	-17272	-3531	-32768	-6563	-18224	-8456	21344	174	-1303	-1519	-7420	4272	13548	425	6383	-2493	-17404	-196	-1200	1674	11466	-6884	-16548	1020	1364	2521	11075	-417	120	116	1
-32768	-7544	-9180	14100	-25956	-11284	-18908	2676	-16180	-4459	-22923	-7599	-15048	7288	26016	1062	-32	-1378	-5928	8596	13340	-54	9867	-2986	-17884	6004	-1320	1145	13407	-7442	-18980	3660	856	3413	8331	-1183	127	120	1
-32768	13992	-24524	-5979	-18492	7892	2488	2928	-12632	-2151	-7511	-4542	-15592	9344	30408	1118	-88	-1205	-8048	5152	13368	-558	13412	-4477	-18556	3296	-3780	-363	15123	-8483	-19960	5188	312	2194	4940	-183	118	116	1
-32768	-9048	-29248	-17476	-5458	12003	-3120	5456	-13296	-10928	12261	-2044	-17432	960	28120	-623	-485	448	-7992	6080	13572	380	17785	-5343	-20528	2088	-4604	1009	16441	-9654	-18156	3900	-504	3163	3791	695	121	115	1
-11820	1620	-1460	12485	30702	21294	-16488	-2872	-2716	-10754	21059	1339	-13176	-2776	8952	-909	12	156	-7476	5396	12520	-35	23374	-7704	-20940	1468	-4164	3959	17371	-9274	-18968	3092	740	5560	-858	-1357	118	120	1
22868	-12772	21184	4682	32767	15133	-32768	-4244	32767	7553	8727	265	-20688	-1624	5064	-393	808	-70	-9268	5452	15168	-223	29889	-10631	-23912	2012	-4008	7155	18023	-9616	-23108	4500	4748	4618	-7382	-2532	114	123	1
-28164	-10944	25668	-9797	32767	2961	-16744	10800	-7104	27391	19685	4804	-30016	-288	27632	2128	-748	-1008	-11004	8152	13036	-260	32767	-14925	-28020	2780	84	9349	19002	-9500	-23652	1304	16396	-4168	-18917	-4347	122	119	1
-27540	96	30552	-3360	26390	10835	-22268	2332	-12124	14314	23603	6902	-5272	1672	2632	3049	3481	-129	-10644	7984	13144	-315	32767	-15973	-32072	5152	5628	12749	19382	-9459	-20896	-4784	8200	-1905	-14848	-6433	113	126	1
-17512	-6388	18812	8223	7486	2165	-24552	-5600	-15212	9911	24722	1235	-18008	-2064	-18640	143	1915	-872	-23956	11516	21380	-4291	32767	-24603	-31180	7088	1536	13360	19697	-9769	-25508	-2684	3920	9369	-12995	-7828	127	136	1
-2944	-9748	13556	4838	3318	3038	-16052	-300	-12312	15736	18445	645	-17664	-6320	-15808	-1157	928	225	-32152	7620	23472	-3500	32767	-26421	-27200	3412	-4352	11148	19154	-11539	-22284	4576	-7300	20663	-13001	-5750	124	142	1
-7156	-5600	15484	4383	-838	1618	-4232	588	-10216	2561	15613	144	-3864	-5096	-11920	-1166	500	121	-31628	8400	22712	-633	32767	-23266	-26472	3924	-5356	10490	16254	-14555	-20696	9040	-10300	17834	-16461	-1902	116	121	1
-7704	-4648	15888	2887	-997	798	-15304	6144	-11148	-6786	11050	-1243	-15120	928	-7320	-345	1145	-768	-21456	10796	19356	1887	32767	-22859	-17076	1240	-8056	8732	14478	-11303	-24432	9236	-11492	5131	-19719	1377	112	131	1
-5316	-5176	15404	1376	-994	31	-22572	5860	-6764	-19183	8856	-4594	-17744	856	-7160	-554	1226	-833	-460	9672	32767	-4623	20470	-20726	-14336	1836	-14156	-720	10648	-10183	-26140	5992	-8984	929	-18306	5997	118	133	1
-5196	-5048	15564	1031	-861	14	-20948	-3876	-5556	-18630	7270	-4665	-22272	-5216	-1768	-2145	1152	-289	-7828	17644	32767	1152	-29095	-6990	-11956	2192	-8304	-2863	8148	-7967	-25516	6540	-9036	-7821	-19333	6978	118	131	1
-4656	-4800	15176	399	-312	-96	-16112	-9452	-2644	1853	6102	-111	-13792	-10456	440	-837	1754	249	4164	11064	15080	-1540	-32768	-6205	-10088	2332	4280	3785	-6137	-1315	-25772	3152	-10100	-8879	-18829	5515	103	114	1
-4604	-5296	15084	75	90	-5	-14500	-4932	-3700	16831	4990	2292	-12032	-7776	144	809	1821	164	3296	8692	9704	-2416	-32768	-6770	-5940	2392	1828	891	-10776	2459	-20048	1128	-10972	-8245	-16744	4350	111	130	1
-5120	-5280	15064	52	3	83	-14008	980	-5092	14266	4443	2009	-15136	-1264	832	1126	1716	-109	-996	8928	10412	449	-32768	-4428	-4232	2096	-1920	-3449	-15663	4992	-15448	60	-10220	-10006	-15107	3876	122	146	1
-4580	-5268	14808	341	-15	431	-16728	5796	-2648	-1273	4340	-347	-17568	1624	1552	45	1567	-260	-4700	10584	11132	3729	-32768	309	-6116	-228	-3576	-7040	-21785	8063	-14272	788	-10552	-14014	-14123	3113	148	123	1
-4076	-3688	15980	545	-103	1066	-16576	2492	-2212	-11896	4193	-3096	-17000	1192	1808	-1407	1441	-55	-6768	11356	10392	5679	-32768	6705	-7968	-744	-3076	-8222	-25981	11417	-13972	2524	-11844	-11950	-14822	2887	148	152	1
-4796	-4652	14852	31	433	576	-16936	-4028	-1680	-8906	3839	-2335	-15704	-2536	1560	-1819	1399	122	-10812	10828	11456	6893	-32768	13328	-10388	-776	-4664	-3598	-29488	15289	-11896	1588	-11852	-12646	-14845	2001	132	158	1
-4884	-5176	14996	-934	1006	472	-15264	-3916	-2088	-347	4093	-183	-15752	-4256	3296	-1263	1485	66	-13940	8900	13192	7921	-32768	18793	-12736	832	-4628	-5309	-32768	16425	-8784	984	-10576	-16416	-13321	1740	136	149	1
-4896	-4964	15316	-1030	723	823	-15912	-1292	-2260	-96	5133	354	-15352	-3832	4200	-672	1740	-142	-15168	6620	13032	9627	-32768	21647	-15036	2372	-5440	-9609	-32768	19683	-7556	-200	-10176	-17983	-11256	495	133	145	1
-4864	-6612	15084	-852	1169	1015	-15928	-628	-1588	-3500	5536	-436	-14944	-3704	4632	-303	2048	-406	-18312	6212	14116	9647	-32768	22429	-19128	1680	-7296	-14158	-32768	20853	-7960	-404	-9764	-17806	-11528	27	135	140	1
-5444	-4908	15112	-820	1266	1191	-15996	-888	-3008	-4764	5996	-354	-16152	-3792	2200	-425	1986	-246	-21768	5668	19060	9134	-31807	22646	-24272	688	-9348	-16228	-32768	20724	-7696	132	-7196	-14212	-10193	1537	130	128	1
-5092	-3632	15424	-986	1305	1245	-16332	-1240	-3252	-3818	6695	246	-16064	-5176	-1840	-427	1659	42	-29608	6332	27476	9830	-32396	22936	-27244	-1008	-12588	-14768	-32768	20203	-8468	-1508	-4004	-10158	-6550	1149	137	131	1
-5660	-4804	15184	-1455	2070	943	-16068	-1092	-4204	-1886	7100	437	-16408	-5488	-600	-144	1624	120	-31432	7044	26056	7665	-32768	22236	-27696	-528	-13384	-9856	-32768	20866	-8848	-2004	-2460	-6120	-4992	1305	137	134	1
-5372	-4812	15008	-2070	2667	790	-16448	-556	-3704	-2074	7701	682	-16096	-3472	624	57	1714	104	-32768	3716	22172	10098	-32768	20576	-25732	-820	-13540	-6497	-32768	21925	-10792	-1764	-768	-3153	-4659	2467	127	135	1
-4848	-4452	15396	-2723	3288	1184	-16200	-652	-2084	-2745	8710	725	-16368	-1320	2664	-155	1570	41	-32768	-884	21024	14656	-32768	19557	-26052	-1996	-14416	-2498	-32768	20851	-14788	32	4364	931	-5409	3104	127	133	1
-5600	-4992	15196	-3057	4732	1044	-16136	-340	-852	-2379	10409	871	-17584	24	5328	-353	1238	-34	-32768	-6100	11296	14341	-32768	16888	-27156	-4184	-15492	779	-30707	18773	-18228	2204	16180	-1995	-11090	5877	124	130	1
-5308	-5044	14976	-4193	6262	803	-16096	-612	-1368	-1631	12550	1565	-17144	-192	6016	-398	1092	-79	-32768	-13672	-4928	13420	-26055	9066	-16912	-4936	-15548	2562	-21480	15410	-15256	-1828	19244	-2562	-3758	8462	130	128	1
-5296	-5392	15180	-5621	8380	926	-17448	-724	-1696	-1566	14688	2066	-18136	-2376	4496	-642	962	-10	-32768	-18508	-16064	15757	-13614	1916	-7784	-8388	-17764	5197	-8059	10545	-16048	-1016	23708	2291	-2063	3909	125	120	1
-5536	-6256	14828	-7018	11456	1548	-17984	-1456	-3532	-2001	16769	2170	-17880	-3704	3000	-897	699	70	-32768	-12828	-17704	5148	-2305	829	-7304	-7240	-17496	2031	4974	730	-15424	4180	18052	1054	-1002	794	123	113	1
-5340	-6344	14556	-8121	15703	2929	-18612	-1560	-3668	-3016	18264	2291	-17072	-2768	2928	-877	437	84	-32768	-12760	-9628	-7153	7406	1119	-10968	-6924	-16476	-2934	15173	-7360	-15372	4728	13848	3142	-772	38	115	117	1
-5580	-6652	14272	-8537	20740	5688	-19520	-372	-5488	-3363	19643	2304	-18440	-1152	3776	-847	15	227	-6500	-21768	9644	-7868	21788	-1252	-22024	6148	9768	3464	17602	-10947	-10472	1668	-1072	-668	6831	-1248	122	119	1
-6632	-6560	14892	-10695	26381	7356	-21700	3168	-4212	-5002	20884	1747	-19864	1040	8664	-788	-780	416	15256	940	8728	-11756	28158	-21657	-26740	9160	21404	6881	16656	-9607	-25324	-1592	-2304	874	9644	-1460	124	132	1
-6564	-6016	15052	-14036	32767	7364	-27128	2992	-1436	-7634	21951	2101	-23792	1264	12592	-714	-1257	527	-32768	7792	32767	-1913	32767	-6253	-19712	-12980	-9208	-14198	15356	-10075	-32768	4504	26128	-8360	-10075	573	114	143	1
-8052	-6300	15452	-19396	32767	9428	-32692	4148	4812	-10133	23226	1992	-24120	6080	13528	-576	-1596	1052	-15196	-2936	27076	-974	24644	-9568	-30252	2448	-1552	364	17094	-6532	-1932	-5108	-4252	-20862	15255	-5072	115	140	1
-15144	-10088	19168	-24988	32767	12091	-32768	2708	4536	-20724	23100	2090	-25112	1488	13344	-1260	-1896	1271	-14016	14188	13576	-458	19388	-4483	-16752	6388	-5668	-3889	18180	-6047	-7920	-5664	-9372	4186	10025	1722	109	111	1
-31508	-22116	27644	-29355	32767	15408	-28064	-2232	-5212	-27639	23624	3574	-22288	-5544	2072	-2062	-1831	1040	-18592	10876	22876	-5636	11658	-6261	-16144	7424	-4948	-3237	17246	-5423	-14264	7428	-9316	19394	10634	2491	129	147	1
-27056	-20396	20564	-24813	32767	19747	-25672	-8180	-10812	-23536	23089	3082	-22432	-12384	-7504	-2307	-1853	463	-11900	1896	17292	-5139	4338	-3881	-18208	324	-9636	2336	14423	-3760	-14616	7084	-9100	11294	3021	4518	137	121	1
-22388	-18620	24516	-27128	32767	18966	-19408	-1832	-10500	-9463	16719	6165	-30136	-8224	-9864	-1112	-2031	-275	-11036	5256	15380	-3257	1898	-2656	-20132	-1836	-6224	7744	10477	-2973	-14748	5124	-6960	11142	9301	6345	148	118	1
-6740	-13852	26616	-24741	30959	15812	-15300	-2564	-14488	-1533	11844	8719	-31592	-3280	-8376	-109	-2288	-695	-7608	6020	13744	-1844	611	-1480	-17968	1164	-4560	11821	8486	-1441	-21744	9000	-9004	10922	9200	914	155	103	1
-18316	-32768	32767	-11323	-727	11489	-9124	940	-26788	2097	6651	4692	-25560	-4224	-6960	381	-2575	-766	-6840	5564	13436	-1869	466	-1443	-16992	6340	-2488	5659	6954	-1587	-19940	8924	-8948	10211	8870	-163	163	116	1
-4900	-18736	27556	12683	-23774	5086	-4432	-672	-7520	-4554	1912	1196	-22504	-3688	-7160	400	-2372	-621	-6820	5000	13568	-1532	754	-1289	-17360	4172	-1596	-2680	6995	-2513	-15692	4560	-1880	-2909	12433	-849	170	126	1
572	-7160	12296	20057	-30338	3986	-6600	-2036	-4348	-5012	-7256	-1978	-21112	-1880	-8528	791	-2097	-686	-7348	5280	13480	-2074	745	-1322	-16760	2520	-3528	-4817	6208	-2543	-15112	3280	-2088	-5123	12539	-970	146	127	1
2104	-2308	5296	15130	-32294	3322	-3644	-468	-3052	1830	-13015	-2833	-17632	640	-7376	565	-2149	-613	-7332	5236	13468	-2363	470	-1358	-16640	1272	-3680	-1809	5080	-1778	-15204	2124	-2980	-3768	13590	131	116	123	1
964	-3744	5548	8569	-32662	1881	-2348	372	-3748	6014	-17534	-3533	-14408	456	-8992	487	-2050	-620	-7632	4576	13836	-1543	280	-974	-16784	1088	-3668	-1007	4975	-1671	-15088	-752	-1632	856	12888	2940	118	111	1
-1104	-9116	8904	7476	-32768	-651	-2328	1896	-5852	6917	-22041	-4933	-11520	-144	-8024	725	-1890	-650	-7368	4260	13536	-607	204	-578	-15872	1168	-2392	4930	4047	-547	-15580	-908	-1312	6455	12517	4277	123	112	1
-4072	-11440	11472	10005	-32768	-5274	-2396	1460	-6400	6730	-27044	-5889	-11864	128	-8936	711	-1996	-437	-6660	4952	13476	-9	195	-449	-16180	3052	-1136	5098	3325	-140	-16172	-96	-1560	14018	12066	2103	123	132	1
-7784	-11328	13580	10694	-32768	-11842	-6456	4960	-6156	4845	-30992	-6389	-10384	-1072	-8608	1095	-1702	-414	-6572	4840	13500	669	530	-477	-15940	3636	-524	2955	6219	-417	-17280	1072	84	13421	12647	2994	122	139	1
-7864	-9220	11324	9362	-32768	-16927	-7800	2528	-4388	199	-32768	-7738	-8088	-1024	-8824	1392	-1386	-385	-7236	4736	13324	1058	809	-385	-16232	3368	-2200	2009	4447	-1187	-14304	4600	840	12549	14683	1409	124	129	1
-8132	-7744	10372	6844	-32768	-17886	-9756	-132	-3612	1013	-32768	-9839	-6480	328	-9472	1721	-1108	-343	-7396	5592	13096	1210	1104	-584	-17296	3496	-2028	3793	4650	-1574	-15472	5300	1252	6417	15963	4126	125	129	1
-12924	-8836	14284	1859	-32768	-18163	-13308	-2080	-8120	7479	-32768	-11110	-6000	1344	-10040	1875	-958	-291	-7480	4908	13640	1031	1277	-891	-15972	3960	-1672	3949	5835	-2302	-17248	5552	-400	4315	14450	3058	140	125	1
-15884	-12404	17048	982	-32768	-19939	-14044	-92	-9048	16817	-32768	-9033	-6912	1888	-9984	1846	-899	-218	-7336	4772	13324	1031	1606	-1082	-16124	3368	-1884	2606	6699	-2942	-16324	4380	-1552	2723	11295	1470	140	119	1
-18280	-16752	23844	3129	-32768	-21447	-22112	4320	-12608	14521	-32768	-7632	-7648	872	-8088	1459	-885	-72	-7712	4444	13624	1061	2096	-1067	-16404	3036	-2720	1745	7399	-3362	-15256	4324	376	2596	11156	519	137	116	1
-28768	-24052	32767	6681	-32768	-25494	-29148	4340	-16756	7534	-32768	-9826	-10584	528	-3504	1199	-539	-26	-7724	5172	13168	605	2339	-1329	-16356	3044	-2896	1697	7568	-3487	-15024	4920	408	2846	12353	226	136	116	1
-32768	-26940	31264	12760	-32768	-28511	-30416	308	-15136	3115	-32768	-11946	-14784	1960	2880	1189	-849	-189	-7512	5640	13416	135	3039	-1900	-16252	4660	-1836	2245	9376	-4469	-16416	5180	28	2468	11814	625	132	113	1
-32768	-17468	21216	10962	-32768	-30345	-28448	-40	-16908	11832	-32768	-11835	-19672	-6152	12392	766	-930	-573	-6520	4912	13824	-352	4477	-2789	-18152	2840	-1808	1653	10471	-5447	-18516	3696	-1488	2576	10021	590	125	118	1
-32768	-13296	15132	1623	-32768	-28947	-27640	1568	-15720	-758	-32768	-6247	-17048	-288	18856	122	-955	-1094	-6992	4428	14000	522	6795	-2887	-18172	700	-2496	1847	11708	-6111	-17232	2368	340	2186	9525	178	120	117	1
-32768	-6484	-8992	7413	-29173	-14771	-19100	-2100	-14736	-969	-26818	-11025	-15624	4776	30360	1090	-56	-1226	-7352	5432	13292	276	9915	-2746	-18332	3116	-3272	1141	12760	-6779	-17236	2972	-84	2670	9711	-152	122	115	1
-32768	5492	-24668	-13556	-20954	-5100	-1592	5228	-14164	-6545	-10222	-6812	-16624	7088	32767	212	89	-394	-7728	5012	13820	30	13060	-3195	-18488	3008	-3796	944	13940	-7871	-17936	5304	-1348	2300	7411	-34	112	117	1
-32768	-6324	-31476	-15825	-4434	1155	1096	-1392	-12276	-14905	9556	-2941	-15632	1504	27832	-699	-312	69	-8520	5792	13840	-284	16925	-4490	-19360	3280	-4296	1748	14909	-8592	-17944	5748	-1376	3030	5075	-92	127	125	1
-32768	-11116	-13396	4662	17691	5014	-7660	-3680	-13136	-3571	23195	318	-13744	-1624	19424	-951	-641	-28	-9196	5388	12504	-741	21918	-6916	-19584	2172	-5428	3586	16257	-8711	-18648	3824	-372	3569	957	-1391	121	122	1
-32768	-10552	-10100	5877	19619	4975	-16672	-100	-16548	10534	31093	5062	-9696	-2648	56	-643	-103	141	-9084	6296	12476	-1304	26418	-10040	-20796	652	-4348	6699	17242	-8157	-19260	8	3548	4313	-4207	-2206	127	118	1
26640	9096	-4596	7688	24014	-1104	-32768	-5384	32767	16213	7855	-105	-14256	-7912	-5360	440	2188	-404	-8892	4324	12592	-1167	32767	-12407	-24748	484	-2084	9851	17398	-8260	-22348	-564	9116	2475	-10281	-1796	121	114	1
-32768	7640	29848	-8260	32767	10659	-13460	6748	-18164	32767	20060	1658	-17816	-8952	11024	1638	1570	-1672	-11992	5436	12384	-1068	32767	-15469	-29376	2844	3092	12155	18024	-8322	-22476	-4300	11604	1915	-13234	-4488	124	115	1
-21392	12028	20976	-6497	28200	12595	-12840	11348	-4296	18461	22467	9227	-13352	4480	6464	4565	892	-261	-14352	6740	14680	-521	32767	-19118	-29940	3228	7072	15683	18749	-9044	-21572	-8200	13232	12789	-10195	-7549	101	118	1
-32768	-32768	32767	16911	23682	11408	-26764	-3536	-23036	9119	20979	2496	-27184	8568	2504	1840	1273	78	-25432	7660	18276	-1463	32767	-21875	-28824	3340	76	18174	18025	-9535	-23056	-2780	-612	22076	-11080	-4246	137	110	1
-14168	20404	29264	8773	4678	3854	-25780	5188	-6604	20597	18608	-3039	-21688	-696	-18280	-464	1634	-428	-32540	4372	16416	-3112	32767	-22993	-26884	5300	-7860	13742	17885	-12029	-20572	10668	-8824	21456	-16729	-3698	134	114	1
-8440	-16536	14864	4964	1408	1100	-11516	1136	-11092	2062	17251	576	-10992	-976	-12968	-1202	848	-246	-32768	9152	24188	952	32767	-20069	-23792	4284	-5924	9401	14844	-13264	-32768	20580	-2808	8102	-15698	358	125	133	1
-8108	-5716	15960	2325	-510	642	-9432	8012	-11316	-4331	11277	-2852	-7512	2472	-7744	-1874	1207	-485	-22504	7444	26784	953	32767	-20794	-21464	3700	-5368	8755	14635	-12954	-25364	9384	-8304	-602	-21158	2692	110	128	1
-5264	-6188	14956	599	-431	-176	-18212	2524	-8484	-18670	8343	-5327	-22104	-9984	-8064	-2629	1091	-712	-25920	12160	32767	1017	11963	-16333	-12480	72	-18008	-3562	10465	-9336	-27524	8444	-11592	-3660	-17420	6053	103	137	1
-5012	-5360	15200	184	-542	-290	-20420	-5796	-5488	-17425	6428	-5995	-22048	-10504	-3024	-1693	1182	-505	-1128	15268	26444	-1463	-32768	-4628	-11992	6220	-3152	-2364	3157	-6334	-27108	5428	-8384	-8876	-17685	5459	108	119	1
-5164	-4924	15236	-159	50	-193	-18276	-9456	-4724	5237	5536	174	-16896	-6184	712	97	1805	120	2748	8164	12048	-4830	-32768	-5376	-7596	2400	1744	848	-7371	-162	-24892	1960	-11684	-7681	-16843	3887	96	131	1
-5252	-5260	15052	-844	404	-362	-15260	-1360	-3916	13156	4652	2315	-12632	-3592	144	973	1860	202	564	7360	9112	-2055	-32768	-4516	-5860	1316	-552	-2520	-12123	2498	-19476	336	-10160	-8014	-13962	3577	115	133	1
-4820	-5412	14648	-1134	389	-245	-14480	2632	-3336	5717	4108	65	-15288	-96	288	640	1696	2	-3624	9192	9944	1109	-32768	-2017	-4696	1384	-2872	-5392	-16776	5460	-16344	196	-10536	-10392	-14994	4180	124	139	1
-5240	-5672	14844	-1237	427	-75	-15396	3192	-3044	-5958	3787	-1797	-16720	928	1664	-495	1516	-192	-6772	10624	10344	2420	-32768	2351	-6572	-32	-3748	-6847	-22036	8559	-14384	352	-9944	-12569	-13830	4156	149	129	1
-4988	-5492	14768	-1297	475	49	-16540	-1236	-2484	-11361	3979	-2957	-15824	-2032	1536	-1443	1339	-99	-7948	10328	9024	3532	-32768	7739	-8280	-396	-3420	-7272	-26710	11184	-13376	2188	-11644	-11451	-15209	3288	137	127	1
-5124	-5576	14856	-1240	516	313	-16308	-4268	-2228	-7446	3645	-1738	-16400	-3784	1632	-1496	1254	-28	-10960	9948	10136	5600	-32768	13798	-10824	-1016	-4584	-4489	-30147	14641	-10976	1404	-11512	-12352	-14581	2240	137	150	1
-5500	-5336	14820	-1200	594	393	-14600	-1708	-2756	-3694	4294	-455	-15624	-2992	2160	-1197	1309	-19	-13532	8656	12108	7558	-32768	18448	-11580	196	-4112	-4735	-32768	17619	-7884	540	-10124	-15907	-13370	362	130	144	1
-5208	-5452	14828	-1199	592	421	-16360	-784	-2248	-4359	5079	-938	-14728	-2704	4184	-885	1568	-118	-16120	7588	13000	9350	-32768	20825	-15704	2788	-5584	-8374	-32768	19707	-7420	-480	-9096	-18042	-12170	-449	138	144	1
-5996	-7280	14220	-1212	845	502	-15648	-972	-2668	-5672	5618	-683	-15256	-3784	5416	-889	1953	-265	-20800	6352	16132	10709	-32768	22455	-19880	1920	-8240	-13999	-32768	21101	-8732	320	-8084	-17459	-11678	897	133	137	1
-5040	-5748	14772	-1003	779	806	-15384	-1632	-2776	-4894	6103	-497	-15408	-4008	-592	-1050	2036	-157	-22356	6336	17776	9739	-32768	22790	-24544	1676	-8220	-16493	-32768	19229	-7804	-388	-6232	-15752	-10660	1429	133	131	1
-5792	-5284	15040	-1520	1125	789	-16380	-504	-4072	-3153	6656	-84	-15968	-3736	-1728	-485	1526	-79	-27200	7344	24108	6770	-31128	22494	-26888	-848	-12004	-14741	-32768	18808	-9136	-1456	-2816	-9172	-7300	1506	134	131	1
-5804	-5520	14864	-1932	1617	463	-16376	-316	-4480	-2717	6948	21	-15432	-4832	-496	-165	1661	38	-30828	5468	28972	7077	-32768	21525	-27048	-1952	-13888	-9242	-32768	19079	-9780	-340	-504	-5977	-7480	2171	137	135	1
-5744	-5428	14988	-2545	1894	190	-15504	-700	-3584	-3042	7536	168	-14672	-3600	968	-52	1724	90	-30620	2964	24192	9728	-32768	18409	-27676	-1512	-12524	-4106	-32768	21419	-11800	-1272	572	-4351	-6840	2365	133	139	1
-4840	-4800	14868	-3385	2533	94	-15912	-1404	-1368	-2915	8522	581	-15928	-3400	2464	-50	1506	-6	-32264	-1864	20956	14661	-32768	15557	-25108	-2836	-13216	631	-32768	21058	-13172	-8	1824	-1716	-5064	2547	128	133	1
-5164	-5824	14580	-4329	3744	396	-16756	-1004	-2268	-1273	9992	1077	-18088	-2048	3232	-142	1422	-78	-32768	-3932	15412	16399	-32768	12557	-25960	-3756	-14712	4921	-32768	19973	-15664	552	10352	2163	-7872	4941	128	127	1
-5188	-6352	14660	-5789	5344	15	-17312	124	-2376	-1655	11727	1689	-18000	-1632	4264	-280	1313	-61	-32768	-9436	1484	15245	-30081	6640	-20580	-3696	-15380	7496	-25203	17655	-15820	8	11840	2039	-8226	5568	127	125	1
-5156	-6236	14632	-7503	7775	-18	-17768	-576	-2188	-2249	13563	2092	-18920	-1992	3968	-611	1130	-19	-32768	-16964	-14020	18763	-19404	590	-10912	-6720	-16500	9077	-12708	13139	-16384	-1748	25136	3506	-3223	4968	126	115	1
-5412	-6064	14688	-9244	10997	50	-18296	-292	-2392	-2129	15614	2628	-18328	-1912	4520	-805	815	18	-32768	-13172	-18748	12457	-6254	-1002	-6448	-6832	-17372	6839	814	4313	-15672	2580	21044	4295	-604	2173	122	115	1
-4732	-7172	13916	-11186	15059	917	-19048	-380	-2596	-2146	17523	3059	-18224	-1416	4008	-994	569	114	-32768	-11740	-14692	-3266	5139	-1093	-8840	-6348	-16048	1869	12237	-4566	-16372	4108	16416	6212	-769	1132	116	127	1
-4832	-8000	13612	-12479	19825	3172	-19740	720	-4120	-3722	19502	2836	-19000	-568	4480	-1088	141	256	-27720	-6012	-3120	-7057	13202	-724	-13752	-5340	-15960	-4511	22564	-10972	-12156	1896	6032	2405	1787	361	117	110	1
-5684	-8668	12556	-15147	26408	4205	-21688	4344	-4412	-6323	20927	2185	-20776	2280	9344	-1160	-649	503	28144	13840	10540	-12212	20024	-7265	-32768	26364	32767	7166	6705	-5272	-10104	388	-9864	-1371	16421	191	123	130	1
-6836	-6728	13428	-20146	32767	3653	-27076	6128	952	-11840	21531	1984	-23000	4680	16976	-812	-1535	695	-24692	-304	21468	-10075	32767	-12131	-20656	-16292	-11560	-20622	14160	-7159	-32768	8436	8392	-1604	-2693	5250	123	143	1
-8880	-10328	15968	-26673	32767	4736	-32572	3312	8800	-17997	22722	2072	-24208	9112	15544	-982	-1667	1216	-12012	-13188	30484	-3245	29722	-9974	-29656	276	2288	-6306	16234	-10294	-23460	-5324	8032	-32768	12855	-5241	154	155	1
-13976	-17012	18596	-32768	32767	8008	-30972	-3000	4328	-25121	23657	3259	-22432	40	13328	-2064	-1922	1298	-20180	19508	17404	-1521	22197	-7337	-21368	-1744	-7704	-5992	19436	-7729	-8440	-13644	-3660	-2213	14837	-2238	97	114	1
-25088	-26680	27252	-32768	32767	17565	-27012	-8848	-9276	-22488	25658	4752	-21936	-14992	-1744	-3115	-1621	807	-19092	15332	23544	-8607	13574	-7201	-14116	8416	-11140	-5896	17412	-2957	-16996	6244	-10416	20345	12428	1475	143	153	1
-25952	-27128	24796	-29667	32767	22145	-29508	-8440	-11584	-12222	24942	4786	-26152	-18632	-10000	-1777	-1716	54	-14856	4244	20464	-7588	4328	-4788	-17496	396	-13484	-2779	15861	-5316	-9420	14192	-12152	12849	1208	4603	145	138	1
-13520	-20500	23812	-32768	32767	19431	-22876	-808	-8200	-460	15874	10071	-32768	-9984	-9744	98	-2222	-586	-9488	5860	16528	-5213	1250	-3195	-19212	-2336	-8384	5318	10356	-4070	-13376	3864	-9108	7571	9421	7758	150	114	1
-3592	-12276	29268	-32768	31276	19020	-16168	-2980	-15592	4322	11417	11189	-31736	-3144	-9248	798	-2455	-698	-8344	3220	14824	-2480	-109	-1793	-18104	-1876	-4232	12376	7658	-1697	-19748	6872	-8624	9434	9146	4177	171	127	1
-13116	-32768	32767	-9424	5528	14521	-9156	224	-29424	3798	4593	7571	-27016	-5568	-7040	1436	-2713	-684	-7124	5444	13940	-1853	-89	-1364	-18044	4864	-2728	10635	5864	-1170	-18900	3680	-3892	6717	9989	-86	155	125	1
-4732	-25208	31212	24721	-19288	2518	-4844	-1892	-11564	1431	103	4135	-23696	-3728	-9168	1105	-2342	-691	-6436	4480	13592	-1469	511	-1355	-17652	4788	-660	1529	6210	-1829	-14320	3052	-1440	4103	12135	-43	157	107	1
-1808	-7108	14764	32767	-28265	2151	-6444	-2340	-5288	1248	-9786	1721	-23264	-1976	-9880	1503	-2184	-919	-7020	4588	13556	-1572	889	-1363	-16392	3748	-1800	-3495	6273	-2318	-15052	3432	-1044	2438	13162	235	134	107	1
-1072	-228	8480	27183	-32768	3057	-3368	-808	-4936	5727	-14371	1300	-17328	2240	-8088	1155	-2171	-869	-7600	4644	13704	-1953	784	-1500	-15940	1692	-3240	-2699	5215	-2083	-14028	2756	1220	222	13234	1132	121	111	1
-1848	-1608	7400	17320	-32768	4655	-1972	500	-4372	7350	-19499	373	-15872	1576	-9744	890	-2122	-832	-7400	4860	13624	-1598	499	-1273	-16056	1176	-2860	2218	4053	-1402	-14608	1768	-1892	5178	13332	1792	121	132	1
-2724	-8120	8452	15001	-32768	5004	-2308	2152	-6040	7510	-24953	-1647	-12536	1672	-9688	1034	-2094	-676	-7916	4192	13824	-1083	112	-1044	-16112	500	-2792	6988	3625	-846	-12868	3564	-2668	8897	12770	1570	113	126	1
-5108	-11188	10368	16961	-32768	2416	-3164	3720	-5820	4354	-29362	-3244	-10416	928	-9528	1177	-1905	-457	-6796	4692	13248	-569	72	-915	-16988	2284	-896	9634	3479	170	-15448	4792	-1260	13124	11554	-57	118	130	1
-8188	-12068	11872	16937	-32768	-2627	-4052	4704	-5524	2247	-32768	-3735	-12704	-280	-11520	1133	-1791	-277	-7088	4324	13764	-398	230	-1075	-15360	4724	-268	5548	4795	-597	-14928	3320	912	10356	13228	2619	122	135	1
-8568	-10396	10788	12297	-32768	-8490	-7324	4540	-4272	-4288	-32768	-5403	-6960	432	-8424	1723	-1137	-161	-7212	4320	13756	-275	176	-1060	-16088	4848	-1380	704	4745	-1970	-16308	3920	1468	7559	14864	625	125	121	1
-9028	-10516	10096	5729	-32768	-12356	-10508	2896	-3592	-6473	-32768	-8386	-5664	2568	-10216	2102	-1114	-54	-7012	4944	13488	-317	315	-1352	-16896	3428	-1876	96	5392	-2671	-16916	5128	440	4846	15715	2913	126	122	1
-13552	-12988	12160	2081	-32768	-14575	-14268	-1524	-8564	86	-32768	-11109	-5512	5528	-9656	1899	-1084	92	-7024	4576	13400	-434	384	-1649	-16484	2476	-1760	2452	6111	-2567	-16304	4476	-1272	3530	13634	2182	133	115	1
-15232	-16272	15492	2389	-32768	-18840	-15128	1784	-7700	12260	-32768	-9289	-6344	3696	-7376	1691	-1150	183	-7176	4288	13728	-110	852	-1705	-16572	3268	-1916	2287	6564	-2662	-15368	4296	-128	2822	12902	1124	141	118	1
-20500	-21220	24264	4453	-32768	-23919	-24344	4912	-12184	13009	-32768	-9372	-7824	1960	-4664	1198	-1055	217	-7356	4600	13720	-51	1143	-1744	-16316	3460	-1920	1889	7177	-3313	-15148	5120	1024	2611	13170	154	142	117	1
-30016	-26292	32104	8650	-32768	-29901	-29496	4588	-16136	7506	-32768	-10011	-10864	1104	-488	968	-705	196	-6924	4684	13676	-274	1352	-1999	-15660	4596	-1256	1491	8295	-4184	-15136	5132	1720	1301	12861	427	145	118	1
-32444	-26588	28664	16992	-32768	-32095	-27888	-1352	-14524	10004	-32768	-10929	-15368	-56	6712	1131	-1035	-78	-7268	5024	13420	-644	2043	-2667	-15924	4004	-1660	936	9661	-4779	-16672	4720	1368	1455	12380	930	139	121	1
-32768	-12480	21584	14505	-32768	-32768	-27328	1028	-13960	17090	-32768	-6429	-18552	-6544	11696	1035	-715	-559	-7416	4412	13732	-686	3266	-2903	-17452	2064	-1640	1378	10714	-5521	-18136	3440	448	1640	10912	621	129	121	1
-32768	-13636	12140	11572	-32768	-26208	-27960	2480	-13268	4411	-32768	-4070	-13904	-1480	14256	910	-471	-1233	-5064	4060	14784	-104	5373	-3103	-18152	2440	-1776	1614	12091	-6254	-17184	3572	300	1904	10240	72	120	122	1
-32768	-1096	-10320	10811	-26303	-10187	-15072	-728	-15304	171	-26334	-7215	-17024	5544	32480	1430	-479	-827	-7052	3496	14620	-372	8729	-3179	-19472	1800	-2324	1746	13472	-7186	-19276	3104	-876	2777	8675	-400	127	123	1
-32768	5004	-24016	-12048	-19461	2452	-1048	5968	-12348	-10878	-7924	-5099	-17000	7272	32767	1290	-500	-736	-6876	4736	14564	-287	12450	-3379	-18780	2896	-2300	2044	14907	-8106	-18080	4396	196	3065	5517	-83	122	121	1
-32768	-6180	-25788	-3972	-1085	11673	-1556	-3536	-13952	-17285	10268	-2300	-14288	1232	26392	-1153	-447	217	-7928	5772	14328	-1021	17065	-4693	-19812	4128	-4440	1536	16192	-9038	-18204	5360	-228	4498	3966	-385	120	120	1
-32768	-7268	-10348	6446	15785	15433	-8716	-1620	-13288	-6189	23809	2384	-13864	1160	17168	-1492	-903	151	-8752	5016	13416	-1840	22774	-7577	-21012	1956	-5132	3990	17353	-9260	-18712	4412	-228	5644	749	-1941	132	118	1
32767	27248	32767	-5732	21135	17287	-19456	-3236	-4188	-8767	28987	5394	-10048	1120	-4800	-1279	126	626	-8400	4384	13536	-3009	28367	-10628	-21360	856	-4132	7757	18291	-8567	-18888	1412	3636	5574	-4273	-2579	123	119	1
24008	-932	-14644	2641	24432	18233	-32768	-444	28732	9948	11290	-1472	-20168	-984	1896	-685	1357	127	-8620	4732	14036	-4521	32767	-13572	-24608	2208	-2532	9157	18938	-8549	-22460	1136	9616	3609	-10850	-2167	112	119	1
-32768	-22432	29080	-14282	32767	7467	-12264	7884	-11928	10440	19731	2895	-11880	-5176	9608	1027	1926	-1121	-9636	5504	12400	-5427	32767	-17441	-28684	4108	2084	9429	19910	-8716	-20284	-3004	9696	1147	-11748	-4895	112	117	1
-14044	10136	20192	-6689	32767	9961	-16612	-5224	-2796	5580	21531	5195	-12280	-2768	1816	2400	1594	-700	-14816	4428	13464	-5109	32767	-21270	-29580	3456	5256	12294	20440	-9305	-19100	-3936	10204	3677	-11914	-5800	125	116	1
-32768	-32768	32767	18006	19154	11079	-20996	-4140	-27592	17260	20670	2944	-26000	-240	4728	1017	549	-552	-27512	6132	20908	-3525	32767	-24118	-29432	776	-1072	18180	19203	-9218	-23152	-3280	-2016	16056	-11481	-5965	108	127	1
-32768	-32768	31996	12466	10532	4185	-26108	7220	-5044	27441	18231	965	-21104	192	-18528	-166	1700	-186	-32768	2472	22520	-2970	32767	-23097	-27556	2128	-8544	20504	16852	-11060	-21836	9756	-9752	21139	-15206	-5599	130	133	1
-9556	-4996	16840	4397	41	907	-12012	3564	-11472	4307	16943	-826	-14264	1488	-10344	-803	1036	-487	-32768	8400	25592	-4563	32767	-21809	-23240	6056	-4608	17824	14340	-11535	-24484	6360	-8456	16764	-25661	-3637	102	133	1
-7428	-6972	15604	1666	-493	14	-11448	8032	-9768	-7110	11367	-3517	-9408	-544	-7864	-1895	1049	-443	-23232	10488	27216	-8714	32767	-26274	-16680	3096	-14904	6682	12737	-11214	-26684	8372	-6928	1965	-20538	3703	120	122	1
-4336	-4148	16564	376	-1132	344	-17200	1204	-8360	-19456	8727	-5333	-21320	-9112	-7152	-2214	1092	-549	-32768	18656	32767	6499	-9033	-14968	-11212	1472	-16200	-2147	12295	-9042	-27452	5884	-9264	-5588	-18815	6817	92	139	1
-5128	-5392	15116	480	-618	-153	-19764	-6724	-6468	-15710	6646	-4383	-20520	-11048	-2440	-1283	1318	-433	-840	15968	22720	2691	-32768	-10276	-13316	6688	3640	3184	-2481	-2152	-29428	4108	-9868	-7356	-18234	6480	122	129	1
-5048	-5004	15140	219	-33	-8	-18420	-7608	-4624	3587	5407	370	-16696	-7488	-728	178	1755	75	1972	11216	11288	1709	-32768	-6095	-11988	5488	4372	3740	-3948	-1081	-22400	1284	-10508	-6270	-16580	5397	107	122	1
-5324	-4620	14984	-136	36	-86	-15196	-1660	-4480	12480	4474	2156	-13376	-3584	-200	1193	1854	119	-1080	12136	10052	4527	-32768	833	-5860	-908	-1412	-757	-14799	5122	-18900	432	-10568	-7469	-14863	5357	119	126	1
-5220	-5144	14920	-245	48	-88	-14984	2056	-4492	8636	3524	968	-14840	-1112	-48	867	1816	7	-1708	12372	9796	4795	-32768	2066	-5440	-760	-1692	-900	-15517	5638	-16660	-424	-10608	-8801	-14119	5394	121	134	1
-5132	-5032	14936	-383	211	80	-15520	3332	-3880	-2300	2753	-828	-17752	1888	888	-152	1680	-233	-7368	9684	10944	6789	-32768	13651	-6776	520	-3044	-5109	-23445	12216	-14860	-88	-11840	-10440	-15587	4811	146	131	1
-5320	-4892	14996	-330	94	94	-16672	1016	-2660	-9343	3170	-2753	-16104	368	1824	-1380	1518	-131	-9672	7840	11824	8235	-32768	17652	-8324	840	-3876	-8712	-27275	15024	-12372	1480	-11580	-11163	-15251	3605	141	140	1
-3488	-3744	16240	-923	-472	814	-16908	-3656	-2108	-7758	2773	-1968	-15512	-3072	2168	-1766	1475	-3	-10760	5392	11944	9822	-32768	19590	-10960	136	-4152	-7989	-31571	18258	-9068	744	-11244	-14717	-15043	2585	135	142	1
-5956	-6340	12988	-183	369	151	-14384	-1664	-1744	-3676	3438	-451	-15024	-3344	2680	-1274	1441	106	-13764	3840	14620	12910	-32768	20202	-11896	412	-3792	-10479	-32768	21479	-7068	-1012	-10896	-18821	-13344	253	129	155	1
-5168	-4980	15016	-462	323	277	-15904	-960	-1640	-2504	4244	-342	-14976	-2496	3096	-939	1553	21	-16500	3760	14696	15352	-32768	21095	-16280	-124	-4944	-13028	-32768	23009	-5552	-2588	-11068	-18990	-11960	-993	133	148	1
-5184	-5340	14960	-114	370	608	-15824	-1240	-2344	-2786	5164	-352	-14544	-1984	5792	-502	2081	-264	-18696	3824	16732	14729	-32768	23118	-20900	-1228	-6024	-16405	-32768	22978	-6020	-2404	-9844	-17233	-11070	-564	136	141	1
-6564	-7392	12520	-69	785	683	-16048	-468	-2304	-3339	5613	-44	-14808	-2160	5240	-260	2585	-316	-21448	4072	21888	12015	-30376	23686	-27236	-1940	-8504	-12931	-32768	22029	-6816	-1792	-6044	-12907	-10818	208	136	136	1
-5312	-5068	15144	-603	649	864	-15960	84	-2684	-3885	6631	25	-16032	-3832	-504	-505	2204	-88	-29344	2772	31492	9781	-32591	23348	-29932	-2152	-12200	-10288	-32768	22493	-8976	-1048	-2356	-5603	-5598	349	129	133	1
-5448	-4828	15128	-692	788	821	-15384	-1164	-2372	-2870	7639	213	-16928	-5488	-768	-250	1504	-28	-28768	116	27132	9549	-32768	19243	-30772	-2476	-10820	-6387	-32768	23088	-10508	772	1096	-3082	-5953	2917	130	135	1
-5088	-5352	15080	-800	1279	943	-15448	-2372	-2360	-1144	8702	726	-15328	-5368	3168	-108	1424	6	-32768	-2532	25660	11022	-31662	15450	-30104	-2824	-13232	-4348	-32768	22672	-14004	1548	4572	-1852	-6524	4531	131	133	1
-5984	-6836	13484	-447	1653	1768	-16516	-2236	-2008	-419	10046	1214	-16952	-3216	4144	-105	1573	-49	-32768	-3564	23108	12965	-32768	14644	-26608	-5180	-16020	-863	-32768	19350	-16988	1448	7912	1886	-8082	5803	128	130	1
-4748	-4344	15104	-1506	2911	2131	-16528	-572	-2020	-749	11757	1533	-18064	-1216	3672	-250	1391	-65	-32768	-7900	1852	10868	-32768	12078	-21644	-5964	-16320	632	-28172	17691	-17056	-5336	13804	303	-8274	6788	129	121	1
-3360	-4112	15456	-3518	5410	1781	-18084	840	-904	-1798	13661	2045	-19120	32	4648	-506	1065	-64	-32768	-19040	-15564	17407	-21391	8665	-13132	-7760	-18444	3870	-15959	13247	-16360	-3828	27700	-689	-4732	2201	125	120	1
-5064	-4396	15572	-5153	8706	1471	-18828	488	-1972	-1473	16061	2490	-19344	-256	5192	-572	724	-85	-32768	-17396	-23156	9186	-8659	5202	-6900	-6792	-18952	1851	-1228	4940	-16516	4652	22540	-1087	31	-44	121	111	1
-5244	-5292	15484	-7696	12473	1649	-18924	-896	-3832	-219	17963	3412	-18112	-2768	3664	-759	584	6	-32768	-17704	-19840	-7178	4830	2390	-8472	-6352	-17764	-2955	11428	-5385	-16384	4968	17464	1402	1714	966	116	116	1
-5404	-6776	15104	-9525	17736	3232	-19436	-964	-4664	-2064	19705	3360	-18072	-3928	2656	-983	285	201	-18204	-32768	-14048	-3507	22291	-3868	-17392	480	-5712	-2920	19538	-11755	-13484	424	6160	-2266	3115	302	119	117	1
-5728	-6724	14604	-10242	23613	6559	-20756	928	-4708	-4910	21036	2723	-18976	-2016	6712	-886	-490	338	11648	9684	32767	-7144	26546	-18201	-32768	17524	32767	5148	8739	-5129	-21016	-3752	-2760	-2130	10922	-1709	128	124	1
-6128	-7128	17412	-11876	32314	8957	-25908	768	-2328	-6620	22042	2991	-22432	-1552	10816	-682	-1050	388	-32768	13896	27632	-2738	32767	-7839	-19392	-16360	-9756	-11705	16771	-9287	-32768	-300	10776	2500	-9794	-567	122	135	1
-7088	-6988	13664	-15223	32767	10747	-30768	2480	1624	-6190	23526	2829	-22088	2008	11504	-499	-1415	782	-14712	-5044	26204	-1585	24511	-9011	-28064	8032	-1024	4705	19935	-7061	-12948	-3284	11528	-32768	14402	-5648	103	149	1
-9936	-7552	15536	-18930	32767	14072	-32768	2484	4160	-12312	23834	3391	-26016	2608	14008	-779	-1798	1042	-12120	13036	11852	-775	19145	-5023	-17244	4828	-5372	-4648	20219	-7784	-1976	-4040	-6452	6049	13457	2395	112	109	1
-22772	-15876	20456	-24913	32767	17577	-31972	752	-416	-22176	23027	3452	-22672	-920	4880	-1158	-1746	1054	-23316	13260	20156	-9548	9671	-7254	-9784	7800	-12700	-8733	18036	-4923	-13460	9036	-9788	14603	9228	3574	132	141	1
-29048	-19548	26652	-24998	32767	20394	-22928	-5436	-10124	-25438	23992	4157	-19848	-8368	-5448	-1880	-1943	618	-9416	-688	18432	-7011	2038	-4510	-16996	-4548	-10888	-4568	16286	-5623	-13272	7520	-11748	8867	2164	3350	149	126	1
-20668	-20704	18816	-23188	32767	20930	-22456	-3068	-12652	-17616	19384	3884	-27208	-8376	-7456	-1453	-2147	-21	-9680	4940	15644	-4598	-221	-2296	-21184	-1388	-7396	4181	11581	-3978	-13096	3836	-6128	8559	8720	7223	141	116	1
-10904	-18248	24472	-26814	32767	20106	-19132	-328	-7820	-2387	11620	7634	-32456	-1968	-6088	-573	-2267	-559	-7776	5980	13752	-2283	-663	-1173	-18956	-1636	-4784	10444	9732	-2173	-20460	8204	-8540	9610	8643	3532	153	110	1
-27328	-11560	29572	-20241	23923	18020	-10612	-2908	-11416	-1254	8897	4416	-25952	88	-8712	13	-2281	-758	-7020	4692	13916	-1725	-498	-931	-16960	4932	-3708	8174	7571	-1919	-17448	4912	-3760	3519	9465	-212	149	123	1
-8472	-24548	32767	1061	-13211	6782	-4212	1104	-19144	-1535	2099	1245	-22568	-2624	-3536	272	-2505	-678	-6852	4196	14080	-1077	104	-729	-16752	4660	-1588	-1796	7422	-2713	-13700	3656	-1480	-622	11751	49	161	128	1
-1860	-14120	20416	16425	-28167	-391	-7988	184	-3980	-4702	-3027	-1511	-22936	-5328	-7736	388	-2089	-660	-6796	4444	13668	-790	618	-602	-16724	2052	-3220	-5938	6682	-2559	-16380	2828	-2828	-3167	11940	331	141	122	1
432	-6152	10296	17789	-32768	-2838	-5876	-296	-3800	-589	-11052	-3959	-20672	-640	-8032	924	-2047	-750	-7736	4512	13880	-817	743	-557	-16972	524	-4776	-4046	5131	-1913	-15392	1356	-2116	-1518	12342	581	122	116	1
1252	-2960	6128	11389	-32768	-4565	-3896	112	-2692	4535	-16139	-4484	-16888	1624	-7224	562	-2025	-607	-7316	4412	13828	-72	482	-371	-17248	-112	-3636	1469	4049	-1129	-14876	52	-744	2032	12803	2190	120	118	1
-1148	-5664	7888	7525	-32768	-5840	-3892	1192	-4240	7691	-20658	-5858	-13488	360	-8344	469	-1929	-627	-7504	4136	13740	294	480	-382	-16104	156	-2520	5889	3313	-6	-15764	-704	-288	7442	12349	2795	119	127	1
-3580	-9172	11068	8963	-32768	-7824	-4300	780	-6064	8873	-25123	-6859	-11624	-696	-8072	717	-1876	-663	-7496	4300	13656	731	467	-167	-15860	1540	-912	8668	3889	609	-16952	804	380	11798	10907	487	120	123	1
-6664	-9684	13024	11003	-32768	-11887	-5160	940	-6508	10190	-30336	-6837	-9016	424	-8216	792	-1926	-607	-6760	4820	13444	827	500	-188	-16568	3896	-1056	8516	2605	355	-11760	4988	1524	13815	11432	1328	123	124	1
-8572	-9108	13152	10692	-32768	-16460	-7208	3480	-5576	6748	-32768	-7134	-8928	-1512	-8368	864	-1595	-516	-7088	4784	13644	665	667	-419	-16964	4988	-1508	3697	4495	-1262	-12320	5260	1176	12588	12459	2662	131	127	1
-9544	-8184	12804	9008	-32768	-19063	-9540	1700	-4696	3772	-32768	-8578	-7112	-808	-9600	1546	-1293	-336	-6960	4636	13476	338	379	-788	-15816	3464	-2412	906	5795	-1789	-15440	5252	1604	9094	13660	2167	120	121	1
-11680	-7732	13452	5305	-32768	-19365	-12340	584	-5848	5063	-32768	-9823	-5480	1048	-9712	1955	-1036	-293	-6868	5100	13428	188	461	-1082	-16896	2996	-2432	1766	5892	-2074	-16288	5248	116	7006	14735	2880	127	127	1
-15280	-9976	15720	2477	-32768	-19562	-14628	-900	-8880	10213	-32768	-9636	-5192	1808	-10072	2028	-1010	-187	-7024	4656	13724	31	692	-1357	-16920	2284	-2016	2945	6187	-2103	-16072	4544	-964	5871	14195	1363	130	126	1
-16776	-12284	19764	2534	-32768	-19664	-17576	2268	-9352	13748	-32768	-7151	-7016	1208	-7888	1896	-995	-31	-7280	4448	13784	-122	870	-1592	-16456	2412	-2584	2339	6981	-2586	-15408	3916	-1416	3238	13836	397	129	120	1
-25484	-19956	30504	4222	-32768	-21180	-26132	3656	-13536	9517	-32768	-8219	-8664	1032	-3632	1564	-832	46	-7260	4756	13596	16	1377	-1657	-16224	2512	-2764	1779	7341	-2845	-14536	4116	-172	1392	14277	142	143	121	1
-30884	-24660	30532	9290	-32768	-23912	-30580	2272	-15376	4440	-32768	-10510	-12552	1984	2560	1365	-966	-53	-7260	4924	13568	143	1847	-1762	-16216	3244	-2496	1655	8107	-3390	-14756	4552	1004	366	14968	94	142	120	1
-32768	-23748	24272	12603	-32768	-25992	-27420	2016	-16992	9040	-32768	-12254	-16744	-1920	9576	1322	-1392	-293	-7156	5200	13476	-323	2734	-2232	-16692	3436	-2192	1410	9158	-4053	-16736	4540	1716	432	14133	216	137	119	1
-32768	-11092	17560	3499	-32768	-28910	-25356	1268	-15744	5585	-32768	-6039	-18232	-2488	16192	281	-830	-617	-7124	4376	13784	-560	4008	-2562	-16748	3056	-2084	756	10750	-5086	-17312	4260	1716	-81	12456	537	135	120	1
-32768	-10224	-348	12272	-31614	-18030	-21884	4012	-14892	-1999	-30056	-9470	-14824	2904	21360	593	-448	-947	-5176	4724	14916	-308	6539	-2862	-17584	4192	-1744	702	12174	-6338	-18164	4476	1764	72	10214	351	123	120	1
-32768	-7900	-4532	13185	-29717	-15610	-7772	1988	-14904	-1159	-17573	-6122	-16592	6816	31872	767	49	-630	-6944	4812	14352	-402	10066	-3341	-20076	1892	-2700	1700	13542	-7347	-20676	3484	436	1992	7674	-175	124	120	1
-32768	876	-27268	-14093	-13221	3028	-812	4192	-12924	-10967	1374	-4156	-16864	5400	29360	-172	-87	157	-7904	4732	14000	-631	13966	-4133	-20320	2024	-2880	2180	13751	-7400	-18664	2860	-24	3529	5740	234	123	121	1
-32768	-7828	-21528	642	8133	8434	-6188	-3096	-13768	-8632	16382	-1208	-14320	-472	22832	-755	-592	-72	-8712	4880	14280	-974	18515	-5866	-19972	2880	-5448	3770	15963	-8522	-18416	3048	44	5936	2931	-207	126	120	1
32767	-6880	3928	5774	21367	7535	-13092	360	-16688	1978	26793	3528	-12920	856	6448	-652	-430	108	-8044	4932	13076	-1092	24147	-8177	-20636	376	-5496	6023	17056	-8645	-19064	2508	1504	7295	-900	-1617	122	120	1
28336	-1940	5712	6272	25676	6151	-32768	-4096	32767	5241	8926	1079	-18032	-3272	-2568	-581	1257	-31	-7860	4460	13372	-1924	31093	-10961	-24084	960	-3944	9783	17452	-8308	-22348	3228	5360	6565	-6341	-1665	118	117	1
-23284	652	18824	-9601	32767	8039	-18416	5420	-16332	28077	20180	1535	-31216	-5736	31080	1268	-238	-1199	-9196	5636	13468	-2792	32767	-14989	-28864	4308	728	11141	18467	-8344	-23616	1304	12500	1199	-13589	-3737	132	113	1
-20316	10192	26188	-7607	30910	7047	-16900	11096	-2868	14294	23136	8154	-2656	2696	2048	3427	3062	-36	-8660	6156	13216	-4750	32767	-19725	-30284	6236	5572	11871	19636	-9215	-20880	-3692	12420	3820	-12776	-6234	115	120	1
-16872	-23732	22840	-6294	24258	9377	-23560	1168	-7428	8748	20745	4734	-21632	9080	-8528	1069	1503	-292	-20272	7952	15648	-4833	32767	-24402	-30636	3884	3536	14911	19590	-9543	-24060	-3948	6292	9166	-12510	-7280	120	131	1
-23488	-6272	23248	11720	12471	4009	-15968	-10528	-20232	4402	20611	-3949	-19480	-10824	-12600	-1362	899	-50	-32768	7304	25992	-6259	32767	-27468	-27952	3872	-6088	17186	18370	-10488	-21540	4252	-4252	17488	-15993	-5326	140	121	1
-6340	-18168	15992	5464	725	3195	-16740	4312	-16368	16008	15484	2893	-13328	-3800	-12072	-744	1013	-487	-32504	7644	22900	-3984	32767	-24887	-27100	4528	-5600	14681	15869	-12494	-22432	9812	-9840	18913	-17870	-2865	108	121	1
-8556	984	16564	3919	-518	1507	-14432	6912	-10416	2288	11757	-1208	-14648	-552	-9520	-796	1342	-699	-24792	9712	23696	-6515	32767	-26580	-17776	4040	-9376	11571	15396	-10347	-32768	1764	12284	21979	-20662	1730	107	123	1
-5936	-5724	15264	1615	-543	116	-17652	5108	-8304	-16098	8407	-3653	-20456	-4080	-7688	-1463	1236	-780	-4056	-4664	32767	-1334	17620	-23753	-14808	2316	-16016	931	11991	-7249	-29244	6148	-9188	5233	-18250	6092	149	140	1
-5936	-5584	14928	772	-722	-163	-18796	-2240	-5724	-21600	6348	-5024	-19600	-7376	-3144	-1363	1372	-365	-4628	17572	32767	14621	-29220	-10979	-14768	632	-5248	-47	5371	-5940	-28700	6504	-9564	-6348	-19748	7107	117	118	1
-5448	-4812	15116	256	-201	-181	-18224	-8860	-3440	-2683	4641	-1630	-16928	-8016	-1232	24	1741	125	2736	16776	14696	7246	-32768	-7687	-8752	1908	3196	8410	-6950	1950	-26760	2788	-11492	-6352	-19453	6253	87	117	1
-5668	-5440	15028	-15	183	-250	-14872	-4976	-4132	12910	3693	2117	-13520	-5560	-24	1261	1881	36	3200	13256	7696	3493	-32768	-2834	-5696	460	1480	5086	-12366	5842	-20204	500	-11644	-5045	-17243	5097	118	120	1
-5956	-5176	14880	-308	42	-254	-14628	-624	-4412	14211	2935	1724	-15688	-912	-248	1214	1875	-163	-728	12012	7820	6252	-32768	4948	-4040	1376	-1532	1035	-17253	8677	-15524	-1004	-10856	-5924	-14888	5099	122	132	1
-5380	-5628	14744	-414	-30	-139	-16332	5044	-2764	2639	2751	-201	-17264	2872	496	297	1707	-416	-5380	12028	9608	7260	-32768	11942	-5388	1664	-2872	-5428	-22598	12273	-13712	1584	-12132	-10486	-15557	5235	146	127	1
-5552	-5184	14804	-423	-62	-66	-16160	3032	-2268	-10728	3076	-2637	-16840	1704	2136	-1033	1392	-342	-8260	10292	10472	6727	-32768	16784	-6540	2244	-3092	-12071	-24797	15637	-11524	3980	-12112	-9387	-13385	5009	142	152	1
-5588	-5084	14808	-539	-54	-39	-16220	-2360	-1140	-12598	2712	-2851	-16552	1072	2432	-1153	1358	-322	-11164	8272	12644	7935	-32768	20821	-10356	1688	-5272	-11687	-30563	17297	-9812	3880	-12504	-13710	-14597	3820	141	160	1
-5532	-4968	14736	-716	-67	-92	-14620	-2768	-512	-9498	3748	-1486	-15184	-2712	4192	-1881	1332	51	-13444	6416	13940	9536	-32768	23474	-11480	1928	-4024	-13427	-32768	20274	-5980	2048	-11652	-20296	-12326	2283	127	145	1
-5652	-5176	14652	-727	-42	-185	-20400	3348	1008	-8188	3713	1998	-15432	-4024	4832	-1328	1643	-193	-17200	6724	19472	11731	-32768	25878	-14284	1752	-5788	-18567	-32768	20900	-5092	-892	-12724	-24897	-11107	971	130	140	1
-7484	-4168	16096	-1331	-170	210	-18228	8708	-3952	-9739	6162	7862	-15648	-3376	2112	-886	1687	-356	-19600	3812	15276	8146	-32768	28918	-19516	-1528	-6180	-21361	-32768	20962	-5044	-896	-11744	-23826	-10337	634	132	132	1
-6076	-2940	15624	-423	-142	-14	-17084	-808	-816	-3129	5521	1468	-14688	-3888	1216	-817	1468	-236	-21868	2656	20776	12481	-32768	29337	-24296	-36	-8680	-20488	-32768	18588	-5188	-540	-9148	-22768	-8834	1953	137	135	1
-5100	-6040	14292	-852	-125	95	-16568	2192	-3212	-4311	8107	1189	-14912	-4368	824	-479	1725	-114	-31248	6260	30644	6329	-32768	24012	-31532	-408	-14056	-15150	-32768	20672	-7724	-1832	-3872	-14936	-4733	983	137	133	1
-5860	-5424	14432	-1256	-18	22	-16272	-836	-3488	-3141	7301	-68	-14800	-3336	2856	-405	1917	49	-32768	3300	31280	7895	-32768	22699	-31900	-3624	-16820	-10560	-32768	20309	-10556	-2072	-388	-11282	-3435	1960	134	133	1
-5368	-6244	14700	-1521	163	84	-15640	-1868	-584	-4526	8653	288	-15088	-2568	5928	-337	1930	-5	-32768	-552	22308	11704	-32768	21462	-28556	-2188	-16256	-5151	-32768	20358	-15820	-1332	3320	-1541	-7420	4034	130	135	1
-4444	-5896	14484	-1369	738	458	-15256	-2956	952	-1709	10242	941	-16736	-2112	6792	-178	1812	-178	-32768	-5072	11476	10636	-32768	16908	-27612	-3064	-17928	-2921	-32768	18624	-21092	-2440	12356	6856	-10869	3467	126	132	1
-4712	-5404	15228	-1813	1759	1146	-16256	-2908	520	743	12723	1891	-18512	-3800	6368	-324	1335	-257	-32768	-13396	-1892	11772	-29867	8991	-19728	-6308	-21624	1638	-25247	15872	-17064	-11312	21584	1993	-8996	3552	127	114	1
-4984	-5412	15320	-2462	3559	1442	-16896	-1400	-1040	161	15192	2461	-18392	-3264	5768	-589	1013	-273	-32768	-21496	-21288	17964	-16643	1727	-9788	-8640	-19940	8825	-10443	11057	-15368	-1304	28460	4445	-1119	5198	123	112	1
-5908	-4076	15864	-4565	5669	1043	-17228	348	-2408	-1551	17584	3089	-16864	-3920	3672	-716	655	-165	-32768	-16448	-20340	6612	-1955	-2750	-7496	-7092	-19672	8868	3870	2087	-17740	4184	19796	5242	1341	4102	124	114	1
-4460	-5436	15896	-8754	9117	1388	-19776	1220	-4436	-2584	19026	4070	-18688	-1912	1232	-846	353	66	-32768	-1708	-21512	-20605	18149	-5514	-15872	-4748	-9976	4923	15564	-5819	-16136	4680	13108	5576	87	2072	121	125	1
-5656	-5472	15836	-11736	14210	1611	-21160	2936	-6404	-3766	20099	3713	-19576	-1256	3904	-777	-208	319	1952	-4592	32767	-8981	30273	-8630	-32768	8272	32767	9921	7471	-10544	-19616	628	-3596	1009	9002	904	118	134	1
-3724	-6040	15704	-17083	21083	2522	-24160	3124	-3992	-6622	21705	4624	-22176	-272	7064	-823	-714	478	-30296	916	24504	-4902	32767	-9571	-22804	-16248	-7912	-16071	17046	-11010	-32768	-556	15388	-566	-9869	-1907	115	126	1
-4900	-5072	15472	-18896	31933	5817	-28472	2652	1336	-8426	23308	3877	-22160	2104	10120	-678	-1232	670	-20832	-308	29944	105	23152	-8221	-27308	500	-3256	1239	20823	-9725	-19704	-3020	19992	-32768	12321	-9028	105	148	1
-5104	-7580	15492	-23098	32767	7416	-31752	1380	3920	-10241	24835	4719	-26120	3248	15176	-611	-1872	919	-13052	15740	13584	-903	15239	-3418	-19460	7768	-7868	-4197	21895	-6777	32	868	-11152	1828	14629	-1428	109	105	1
-9956	-12544	20384	-28583	32767	13467	-32768	1756	5996	-17750	24635	4749	-27664	2552	14064	-458	-1941	1112	-20640	13844	22340	-10036	8138	-7387	-7632	11856	-9660	-11110	17089	-6542	-11688	12444	-12428	12234	10384	1826	131	136	1
-25992	-23096	31252	-30020	32767	18031	-28424	-4032	-4760	-22392	24242	5228	-21416	-4632	-928	-1928	-1928	1047	-12340	-1136	19460	-6437	95	-3948	-13052	-4664	-12528	-7169	14160	-7317	-8988	8308	-11176	4563	1485	1689	132	141	1
-29820	-23920	26912	-23224	32767	22045	-23880	-5740	-13172	-16695	23600	5310	-20448	-12072	-7792	-2000	-2087	310	-8776	3112	14624	-3854	-1220	-1755	-22228	-5696	-6900	5339	10339	-5449	-14744	-4148	-5236	2693	8814	8455	131	119	1
-21780	-21224	27864	-26315	32767	21453	-17948	-1828	-9056	-3567	16938	6827	-30864	-5712	-8104	-880	-2139	-446	-7368	5008	14096	-1161	-786	-702	-22696	-5952	-3712	14816	8248	-2038	-23100	4548	-7716	12942	10793	5698	171	122	1
-14072	-20492	32767	-17898	32767	18955	-14492	-1984	-15816	6774	13975	8743	-28832	-2328	-3784	-275	-2415	-766	-7232	4132	14400	-515	-494	-288	-17440	5376	-3524	12402	6468	-1088	-20248	3392	-4360	10096	9631	-1059	150	117	1
-32768	-32768	32767	3457	2112	9276	-10596	3788	-25892	8749	6066	4156	-25056	-3752	-6232	262	-2241	-744	-6400	3848	14036	368	51	21	-15832	6152	-868	-1969	6821	-2920	-11712	6832	-1668	2338	13088	-1106	143	121	1
3084	-10104	27552	19210	-25927	1377	-8316	4048	-23612	8393	4645	3842	-23400	-5272	-5608	644	-2346	-563	-6676	5292	13736	333	404	-20	-15388	3920	-3196	-9464	5854	-3486	-15180	6608	-2656	-6362	12596	-1320	162	114	1
6196	700	11512	16528	-31056	4337	-7808	-780	-700	-6073	-8462	-1734	-21480	-664	-7768	947	-2178	-496	-6884	4840	13524	-362	140	-273	-16412	2108	-4572	-7127	4332	-3206	-16964	7620	-4484	-8085	14180	1033	145	118	1
5456	320	8104	9680	-31066	6992	-4040	-1492	-260	340	-14876	-3360	-18072	1504	-6328	614	-2154	-342	-6512	5376	13136	-1220	95	-700	-17976	-260	-3516	-377	2494	-2396	-15056	-532	-1076	-1350	13190	1555	125	123	1
868	-5728	12096	5722	-32230	6645	-3684	-152	-4180	7304	-20191	-5268	-15224	912	-7976	423	-2166	-275	-6948	4356	14000	-1311	47	-748	-16792	-1204	-2464	6506	1933	-1388	-16732	-1300	-604	6854	12919	1979	120	131	1
-2732	-10152	14908	8177	-32768	2882	-4944	3876	-5568	5959	-25506	-5829	-11232	-496	-8096	326	-2051	-299	-6800	3816	13872	-873	178	-741	-16528	468	-1392	10309	2068	-421	-16324	-828	72	10300	12438	629	121	120	1
-5172	-10700	14908	10323	-32768	-3367	-5356	3552	-5252	733	-30777	-5997	-9472	-800	-7952	599	-1830	-280	-6640	3896	13976	-178	216	-488	-16648	1396	-548	9554	2338	37	-14004	1536	144	13020	13469	203	119	126	1
-6704	-8948	13020	9427	-32768	-9631	-6864	5356	-4352	-4328	-32768	-6387	-10144	-968	-7568	631	-1767	-273	-6572	4016	13584	236	118	-275	-16264	4360	-364	3613	3889	-1015	-16016	1788	492	11886	13238	-1019	126	123	1
-8456	-8000	12904	7063	-32768	-13678	-9292	2912	-3716	-5582	-32768	-8768	-7448	216	-8104	1050	-1470	-191	-6664	4804	13588	-20	259	-545	-15620	4120	-1276	-1256	5261	-2230	-15388	4008	484	9298	14266	525	128	126	1
-11488	-9068	15764	5830	-32768	-14895	-12604	296	-5480	-2814	-32768	-10894	-5288	768	-7928	1200	-1247	-116	-7128	4660	13664	-449	62	-915	-16348	1524	-3156	249	5427	-2535	-15556	4780	-40	7399	14714	1493	125	133	1
-13712	-10164	16740	5148	-32768	-15640	-15720	-1888	-6992	5584	-32768	-11777	-5856	1104	-8344	1340	-1169	-118	-6112	4840	13640	-829	-372	-1313	-17220	2088	-1356	4289	5643	-2006	-15340	5080	-1236	6361	15749	979	128	127	1
-15624	-11880	18720	3989	-32768	-17379	-17276	2096	-7868	16131	-32768	-8915	-5928	2104	-7504	1733	-1158	70	-6640	4912	13956	-990	36	-1777	-16828	3904	-1108	2985	6413	-2570	-15160	5736	-236	2134	16196	127	135	124	1
-22212	-21076	29588	5759	-32768	-20902	-24332	6056	-12428	17379	-32768	-7686	-8208	3088	-2416	1967	-1100	273	-6084	3848	13732	-730	227	-1720	-15896	2796	-1172	-76	7407	-3976	-15260	3920	516	-2010	15824	-636	147	124	1
-27744	-25972	31348	13845	-32768	-27795	-25700	6408	-12840	16605	-32768	-7872	-10464	-856	5120	1727	-1102	210	-6068	5264	13232	-830	726	-1910	-15476	4104	-416	-575	8572	-4549	-15416	2932	3264	-2383	14010	-73	140	121	1
-32768	-12500	21808	13416	-32768	-32768	-27192	2796	-13020	9046	-32768	-6935	-14984	-4344	7272	1354	-865	-174	-6168	4624	13648	-1077	1644	-2700	-17060	3580	-2028	-751	9854	-5317	-18360	3708	2472	-350	13492	887	134	125	1
-32768	-11288	12928	17115	-31129	-30874	-22848	-3224	-16360	9446	-32768	-1031	-16808	-7512	16688	978	-1012	-715	-6708	4720	13828	-1166	2780	-3313	-17296	3164	-1660	-696	10030	-5496	-18640	5584	3616	2226	11595	780	127	120	1
-32768	-8364	-1200	24135	-22801	-17829	-24952	-3232	-17512	13044	-30412	3354	-12248	3432	19704	1681	-500	-1115	-6480	4508	14084	-1633	4876	-4278	-17040	5600	-2672	657	13314	-8112	-19472	5224	2896	2828	7793	399	141	121	1
-32768	2292	-19120	9827	-19008	2807	-5208	1092	-17448	4791	-13845	-1590	-17256	14008	31504	1342	6	269	-4332	5540	15472	-1934	7740	-5148	-19016	2508	-2312	1679	14922	-9635	-18960	3424	1804	4483	5424	504	131	120	1
-32768	-4416	-27452	-16567	-13074	9881	-1676	6600	-15968	-10987	5006	-3293	-18200	9496	30872	166	119	828	-6460	3256	16184	-1827	13185	-5985	-22732	-1244	-3684	3988	15863	-10290	-20768	1860	-988	7641	3496	675	125	121	1
-28928	-12400	-32768	113	23721	13297	-12976	-2400	-12136	-15291	17489	-1318	-17864	1696	19056	-1255	-684	159	-9708	4244	16380	-2584	19365	-7902	-23352	1164	-5160	5888	17120	-10147	-20920	2948	232	8265	468	-1123	121	113	1
2568	-8068	32767	-13257	32767	15562	-32768	-404	32767	-7867	10867	1927	-24352	3912	10536	-886	132	208	-7264	4992	15636	-4717	27117	-10580	-23048	1108	-5036	5830	17398	-10351	-22624	5216	2224	6867	-2333	-2412	113	116	1
-18264	-28420	12060	-13802	32767	7236	-22028	-3676	-8472	11298	23099	2643	-25096	4280	32767	1847	323	61	-6944	4608	14368	-7272	32767	-14556	-26648	2108	-3032	5123	18972	-10889	-23508	5484	9824	2895	-11848	-3831	125	119	1
-24624	-1036	30132	-6895	25717	5363	-22220	3852	-8764	11872	24941	3838	-3880	-1152	-6240	872	3773	-524	-11584	5380	17792	-10466	32767	-19808	-30952	6148	2476	6718	19993	-10318	-22080	360	5420	-4904	-12299	-6181	104	121	1
-32768	-20028	32767	3511	19627	9863	-16000	1896	-12040	10496	23209	1949	-17544	1888	-10144	-719	603	-1209	-12808	8992	14872	-12913	32767	-27357	-31764	9232	4548	8171	20823	-10052	-25620	-4540	10744	-5187	-16939	-8398	131	130	1
-3668	-6344	17936	6108	5057	2454	-13640	-1120	-14144	9419	18495	-2203	-16768	-10336	-18000	-1483	1147	210	-29604	9292	26676	-12877	32767	-32768	-28436	4384	-5312	13217	19740	-9176	-23140	-1744	-3552	11165	-14559	-7327	115	141	1
-6380	-84	17792	6308	4275	2749	-15660	4028	-12508	1009	14273	-1799	-13392	-2152	-10432	-570	1003	-548	-27708	-236	18000	-6048	32767	-30213	-26296	468	-8804	17455	16459	-12014	-20360	4032	-8476	19466	-16057	-3693	118	128	1
-7300	-12760	10384	1498	-249	100	-16884	4932	-9340	-5527	10506	-2553	-20560	-4600	-8576	-1196	1440	-616	-22172	10188	27744	-4879	32767	-31671	-19540	3816	-7288	20471	14591	-8106	-27528	444	720	16457	-24373	1237	96	136	1
-5580	-5716	15144	913	-486	-7	-18172	1960	-7480	-14823	8413	-3636	-18736	-4968	-3408	-1190	1261	-566	-3132	8160	32767	-10003	24216	-29781	-14828	1808	-11704	12580	10519	-4456	-27652	828	-9132	9729	-18371	4761	105	128	1
-4892	-5500	15004	326	-509	-199	-18308	1476	-7352	-15546	8112	-3659	-18240	-6344	-1432	-491	1626	-183	-12584	25960	32767	15127	-15595	-2368	-11808	-2204	-8656	3943	5956	-3409	-24424	420	-9148	2756	-19194	6692	122	127	1
-5636	-4708	15224	-292	-137	-348	-17072	-4396	-3796	2939	4905	-591	-15248	-4576	-856	458	1769	120	-424	20000	16224	5504	-28344	8438	-9660	4268	4444	10569	-3231	3815	-22936	2332	-8120	869	-19124	6968	119	127	1
-5484	-5192	14944	-758	-6	-494	-14808	-2492	-4496	10308	3873	1233	-14776	-4800	-712	1066	1851	45	4412	9072	7308	-30	-27281	10594	-6096	4404	2260	4284	-7351	7380	-18680	2516	-9500	1220	-15943	7492	121	117	1
-5352	-5396	14828	-796	-50	-439	-15276	-152	-4252	10711	2874	1216	-15976	-1864	768	1091	1826	-180	1200	4748	8044	4419	-26738	11680	-4028	5628	-1288	-4829	-10976	10490	-16012	2392	-10144	-1667	-14635	8097	123	123	1
-5296	-5668	14800	-669	-108	-231	-16476	3692	-3200	990	2912	-673	-16360	2312	2200	364	1706	-264	-3384	5224	11728	7297	-28204	11987	-5936	2740	-2920	-14149	-15125	13324	-15436	2612	-10212	-3897	-13936	8116	132	125	1
-5312	-5040	14836	-727	-257	-113	-16460	3124	-1928	-9604	3328	-2523	-16376	3552	2912	-1080	1504	-308	-7556	5308	14572	8543	-32768	13394	-8284	-1528	-3960	-15633	-20142	15610	-13032	3232	-11224	-7365	-13126	7679	129	131	1
-5332	-5220	14860	-1017	-127	-251	-16144	-116	-1272	-12038	3505	-2774	-16456	584	3144	-1995	1342	-120	-9364	5060	13976	11262	-32768	17997	-10772	-3192	-3256	-12908	-24946	17259	-11544	3132	-11296	-12707	-14571	6054	134	150	1
-5184	-5240	14800	-1232	-207	-413	-15252	-2932	-1144	-7624	4224	-1392	-15200	-3840	3520	-2102	1314	92	-9436	3864	12032	11947	-32768	21909	-12476	-1180	-2092	-11607	-29481	19069	-9196	1792	-11268	-18259	-13673	3835	133	145	1
-5228	-5916	14744	-1119	-180	-301	-15824	-3516	-1076	-2279	4938	-314	-14856	-5600	3968	-1546	1420	47	-11860	1700	12876	11666	-32768	23279	-14428	-1020	-4492	-13852	-32768	20200	-7820	144	-12292	-23066	-13463	2666	131	140	1
-5176	-5928	14576	-793	-248	-93	-15644	-888	-1084	-2600	5906	197	-15312	-4272	5184	-925	1699	-145	-16724	364	17412	12152	-32768	22641	-17792	-1364	-7140	-14507	-32768	20857	-7800	-1052	-11084	-23463	-12672	1767	144	143	1
-4892	-5568	14868	-355	-149	217	-15840	-204	-1676	-3869	6579	202	-14928	-2728	2984	-507	1945	-195	-19736	1592	21096	12589	-32768	20697	-21520	-1092	-8484	-12382	-32768	21029	-6588	-1604	-9112	-21877	-11934	1724	140	137	1
-5556	-6256	14964	-431	57	337	-16052	-760	-2196	-2442	7319	548	-15400	-3312	1736	-103	1843	-67	-25092	2616	25800	11860	-32768	20556	-26596	-2452	-10360	-12896	-32768	22105	-8116	-2308	-5348	-15405	-8795	432	133	134	1
-5112	-5504	14692	-799	239	382	-15532	-1128	-2184	-121	8197	1134	-15024	-3736	3048	389	1711	-8	-28664	1372	27912	12807	-32768	20815	-28096	-3832	-11268	-10701	-32768	21874	-8776	-3132	-1148	-7870	-4009	1185	133	131	1
-4896	-5944	14528	-835	602	603	-15456	-776	-1676	101	9332	1280	-15544	-3416	4104	265	1633	26	-30824	-1136	25844	12501	-32768	20124	-29304	-3836	-12380	-7248	-32768	22078	-12432	-1496	3412	-3914	-3780	3309	130	126	1
-4476	-6124	14428	-751	1155	1366	-16180	-1524	-1464	-131	10623	1382	-16352	-2304	3632	-52	1676	-55	-32768	-5628	16132	8947	-28124	17586	-30760	-1960	-11856	-2769	-32768	20130	-16988	36	7828	1946	-5873	4809	127	135	1
-5336	-5844	14864	-1512	2673	1785	-16900	-280	-3364	224	12016	1974	-17472	-920	2992	-200	1485	-127	-32768	-5784	17720	5503	-28427	10548	-21772	-3988	-21908	-5790	-27990	17618	-19768	-3212	13188	4737	-8302	6714	124	120	1
-5888	-3668	15688	-4212	3923	1100	-16948	2972	-2912	-1912	13691	2552	-17688	264	3912	-419	1232	-61	-32768	-14796	-10396	22357	-28299	10297	-17020	-8016	-15176	2267	-18549	12740	-14964	-8028	18316	-1838	-3226	5042	122	115	1
-4512	-4816	15424	-8211	6581	521	-18780	3684	-2860	-4582	15333	3097	-18952	1240	4400	-770	840	92	-32768	-15164	-13668	22950	-25160	8907	-8852	-5924	-16932	8101	-6680	10564	-15340	-2540	28432	5141	-2875	3693	124	112	1
-4252	-5444	15580	-11032	10591	227	-20212	2028	-1320	-4486	17074	3379	-19344	488	5144	-767	458	189	-32768	-14900	-14744	2940	-874	1106	-8308	-5868	-17440	5799	6813	501	-18864	3460	19912	5171	1929	4728	118	115	1
-5696	-6336	14720	-13887	15574	522	-19852	1632	-3664	-3107	19120	3978	-19808	-1520	7112	-759	100	321	-16780	-15440	-32768	-19427	24480	-4970	-16520	-5316	-10276	248	15908	-5866	-17092	4552	11628	4747	2715	4482	109	120	1
-3832	-6744	14532	-17644	22159	2143	-22340	2492	-2680	-4416	21100	4739	-20008	-424	11160	-700	-614	609	268	-3972	32176	-15607	31920	-10897	-32768	7788	32767	-4244	9842	-7466	-24060	832	-1264	1747	10398	2898	120	125	1
-3484	-7500	13752	-18987	32767	5224	-29664	1592	996	-8015	22530	4508	-24696	200	14584	-587	-1207	774	-27420	-11140	30848	-1885	32767	-4727	-20840	-18720	-2068	-16567	17808	-13518	-32768	-416	19356	-13554	-4803	-2281	109	151	1
-2996	-9428	15328	-24251	32767	8841	-32768	-48	6152	-11305	24927	4794	-25352	3312	15240	-513	-1766	1080	-21972	8208	23020	1393	21807	-8459	-26068	-1352	-8456	-102	22075	-8769	-6764	-3284	-7116	-16756	11455	-8235	114	112	1
-10332	-15428	19788	-28538	32767	16026	-32768	-2448	6176	-17047	24921	6436	-25512	3336	16888	-594	-1815	1097	-9700	13608	11780	-2021	16627	-4083	-15068	17840	-7512	-933	18354	-3838	-8084	1584	-10504	9992	13985	-477	119	116	1
-25856	-23104	25784	-27719	32767	22432	-29288	-7064	-5396	-16321	24838	7668	-26240	-3488	12088	-987	-1811	1037	-20472	9112	23304	-8726	6817	-5246	-9180	3004	-12688	-7971	16089	-5981	-11936	16024	-12552	18886	5717	3184	157	142	1
-27884	-24036	23644	-18853	32767	27876	-25528	-8336	-11564	-9707	24545	6946	-22552	-13832	-7560	-1527	-1934	49	-9120	2664	14080	-4906	757	-3617	-17500	-3136	-8424	1942	12991	-6796	-10724	5324	-10204	4865	1193	4434	141	133	1
-17020	-19260	23352	-21016	32767	25827	-19240	-760	-9856	4177	15304	9322	-32368	-5896	-8040	-419	-2207	-600	-8768	3720	15108	-2916	-276	-1878	-20548	-3728	-6072	10527	9407	-3648	-15504	6288	-6164	11772	10700	8508	157	119	1
-2692	-16492	23732	-17254	32767	26533	-14596	-2184	-12072	9311	10620	8607	-30488	-584	-5432	97	-2369	-795	-7772	5216	13564	-1730	-298	-1146	-19128	1032	-3788	14435	7922	-1737	-24660	7724	-9300	11232	8587	557	158	111	1
-32768	-32768	32767	-7083	13882	16620	-7884	2812	-28148	7333	2756	5145	-24568	-5128	-7016	491	-2392	-821	-7304	4708	13988	-1304	30	-945	-16544	6928	-2216	4696	6803	-1840	-14476	5704	-2912	3374	10356	-1765	154	131	1
-4828	-21420	32767	14775	-24271	-833	-2204	96	-8152	-739	537	4766	-21120	-4152	-7000	1115	-2215	-795	-7128	3556	14140	-406	681	-518	-16228	3868	-1848	-6796	6973	-3237	-12912	3584	-1224	-1797	13179	-448	161	117	1
2384	-8732	13752	24157	-31774	-1230	-7900	-3008	-3388	-5642	-9701	627	-21840	-440	-8696	1384	-1966	-803	-7224	5400	13268	-700	1002	-495	-16008	2332	-4088	-7741	5677	-2797	-18812	2480	-4004	-3635	11452	-710	135	118	1
1828	-2076	6416	22383	-32768	1478	-3380	-1820	-2848	223	-14731	-1800	-17264	1656	-7576	848	-2084	-617	-7764	5192	13456	-657	626	-460	-17260	788	-5060	-1011	4186	-1898	-18684	316	-4588	1796	10721	1412	125	110	1
364	-2316	6172	14858	-32768	2501	-2296	-1460	-3216	6647	-20133	-2773	-14080	1744	-8832	590	-1948	-589	-7048	4876	13196	-508	387	-564	-16888	956	-3288	6004	2831	-1073	-14536	184	-708	6587	13756	2330	123	128	1
-3036	-8220	9804	10284	-32768	988	-2788	1500	-6324	7923	-24276	-4365	-11944	40	-9192	719	-1808	-605	-7504	4204	13560	-168	402	-544	-15788	1308	-1464	8768	2602	-473	-16636	-992	560	11961	13052	257	112	125	1
-4864	-12156	11148	12187	-32768	-2442	-2624	1564	-6516	6415	-29605	-4659	-9288	-192	-9448	935	-1668	-479	-6980	4528	13644	376	458	-381	-15940	2748	20	9170	2972	-206	-17368	908	-296	11677	13064	92	120	128	1
-6732	-12460	10864	13987	-32768	-7257	-5884	3700	-5536	3603	-32768	-5807	-8448	-688	-9120	1084	-1441	-387	-7244	4548	13400	713	643	-244	-16828	6080	-1184	4504	4835	-1288	-17296	1120	1684	12528	12031	-229	131	130	1
-8528	-10512	10716	10899	-32768	-12820	-8204	2728	-4760	688	-32768	-7510	-6472	-144	-9592	1444	-1173	-306	-6948	4724	13328	808	695	-355	-15188	4876	-480	-122	5302	-2166	-14956	4664	2488	10200	15208	826	125	130	1
-9584	-10468	10676	5897	-32768	-16172	-11480	1892	-4996	-756	-32768	-9377	-5528	1552	-9888	1888	-933	-219	-7260	5140	13624	882	717	-659	-16620	3120	-1728	755	5542	-2965	-16732	5260	2076	5267	15545	2996	116	127	1
-12788	-11388	12016	2867	-32768	-17659	-14200	-1632	-8792	4351	-32768	-10920	-6400	3688	-10128	1800	-866	-101	-7212	4816	13452	648	678	-939	-16380	2300	-1408	3807	6419	-2859	-16356	4872	164	4294	13552	1413	128	126	1
-16824	-13972	18256	2218	-32768	-19109	-15128	1060	-8792	12150	-32768	-9238	-6496	3464	-8368	1593	-774	3	-6916	5024	13492	522	829	-1171	-15808	3464	-408	3344	7451	-3142	-15476	4764	1136	2585	11880	-16	132	118	1
-22816	-20984	28068	3871	-32768	-21454	-24196	3724	-13528	11423	-32768	-9815	-7944	2472	-3600	1238	-773	77	-7244	5268	13452	-27	922	-1543	-15388	4764	-1364	497	9045	-4184	-15320	5528	1560	757	11528	-1093	135	127	1
-31480	-27804	32692	9573	-32768	-26933	-31688	3384	-16048	8578	-32768	-11223	-11832	1240	2816	1050	-887	61	-7480	5204	13224	-529	1169	-2017	-15772	4136	-1980	-1105	10062	-4949	-15176	4732	1856	-436	11287	-768	146	118	1
-32768	-16548	23864	13088	-32768	-31144	-28212	3044	-15784	11328	-32768	-11290	-16960	-5408	8920	925	-1223	-316	-6800	5060	13604	-782	2227	-2689	-17104	3276	-2852	-530	10925	-5243	-16448	3468	1616	75	12114	72	138	112	1
-32768	-11440	18316	6332	-32768	-30332	-24936	2172	-15616	5129	-32768	-5644	-19248	-3792	14104	339	-735	-931	-7424	4668	13644	-919	3682	-2920	-17840	1376	-2500	627	12232	-5983	-16872	2520	1404	774	12250	307	132	128	1
-32768	-7064	6244	13542	-31613	-19884	-24460	2768	-13348	-3057	-31655	-6468	-16008	704	19064	544	-334	-1257	-6140	4648	13976	-868	6212	-3191	-17056	3360	-2440	1240	13345	-6545	-15996	3584	604	2360	10410	-557	121	121	1
-32768	5484	-16588	6478	-23874	-2182	-24484	1740	-15260	-3262	-29900	-8143	-16760	9840	32767	785	-200	-457	-4556	6344	13924	-1024	9821	-3566	-18904	3324	-2852	1200	14540	-7325	-19324	3484	-676	2205	5951	-479	129	125	1
-32768	2608	-27024	-18656	-16804	8394	348	5768	-11660	-11777	-608	-4904	-17400	5568	31784	-257	-270	604	-8248	3920	14536	-538	13339	-4262	-20008	1108	-4956	2177	15666	-8319	-19332	3596	-564	2004	5141	-401	123	125	1
-32768	-11424	-20564	-1182	5112	13420	-5840	-3252	-12700	-16424	15224	-1567	-14536	-736	25744	-1031	-661	79	-7904	5940	13460	-574	18514	-5718	-20696	2180	-6224	3604	16599	-8319	-19020	3272	-432	5301	420	-1060	132	118	1
-27260	7708	840	8097	29897	13824	-15328	-6192	6652	-12461	23381	3368	-13584	1096	5872	-945	-272	288	-8900	3772	13712	-992	24899	-8683	-21208	-124	-5844	6536	17452	-7894	-19972	2352	5836	3877	-7560	-3006	123	121	1
20904	-5756	16688	2716	32767	14309	-32768	-2060	30736	11229	11676	1663	-13392	424	3200	-986	-67	347	-8336	4700	14920	-1910	32767	-11800	-25872	1912	-1688	10628	17924	-7694	-21888	204	8060	2241	-9611	-3074	115	126	1
9412	820	7368	2324	32767	15076	-17060	9336	-11680	25794	21441	5397	-26736	1976	30512	2488	-291	-869	-8612	6396	13936	-2676	32767	-15980	-29776	4444	1952	11336	19259	-8071	-23152	-2624	13592	2585	-9440	-4410	112	116	1
-22836	11312	29820	-5928	26989	8881	-18668	4100	-6740	11283	24155	6658	-248	1688	-2760	2583	3283	-122	-10708	6392	13916	-4788	32767	-20179	-32380	4372	2508	13167	19222	-8210	-26748	-4588	8480	11743	-10022	-5949	113	108	1
-32768	-27656	27580	4451	22363	10800	-19788	-1736	-11808	9156	21957	3263	-23096	5072	-11208	-422	1002	-334	-22064	5696	14576	-4064	32767	-24219	-31756	3124	1088	17075	17326	-8709	-24012	-2492	768	14512	-13035	-5667	138	123	1
-15084	1900	27468	8677	8567	3896	-18168	-4184	-17212	7746	21983	1398	-15824	-12640	-14160	-1743	694	149	-32768	6112	24368	-4902	32767	-25187	-25144	2440	-7388	19030	15615	-8964	-20156	5328	-6832	19799	-17231	-5946	118	131	1
-4752	-18208	13848	6300	1081	2308	-14664	3652	-9900	2184	15529	991	-11728	-1680	-9488	-575	935	-542	-32768	5576	24116	-1112	32767	-21866	-22060	3888	-7116	16796	13460	-9800	-19548	18760	-32768	-5498	-9171	-4469	101	138	1
-8112	-2068	16584	3665	-230	1357	-16164	7008	-10460	-5277	11479	-1361	-18264	-1792	-9168	-1166	1274	-625	-25672	5948	22868	1346	32767	-22673	-15536	2308	-11560	10886	12238	-10063	-24628	8972	-6948	6378	-17598	1576	110	131	1
-6080	-5056	15264	1768	-362	272	-18256	3248	-8420	-19174	8842	-3101	-20848	-5104	-5248	-1377	989	-393	-21136	3916	32767	7973	5864	-16799	-10648	108	-22136	-1510	10603	-7433	-25248	6568	-9576	-1569	-16529	6726	127	131	1
-5292	-5328	15260	792	-539	-121	-18516	2656	-8488	-20523	8558	-3373	-19392	-6896	-2456	-1036	1343	-115	5524	16924	24244	6882	-32768	-7455	-13812	9616	3332	3066	2137	-4165	-27372	4808	-8556	-5131	-16428	7160	107	119	1
-5392	-4972	15108	-84	-220	-243	-16764	-7496	-4156	2949	5095	528	-15320	-6216	-672	163	1709	217	5652	10748	9448	236	-32768	-9103	-7012	3688	5008	2658	-7395	2587	-23120	952	-10024	-3291	-15105	6445	109	126	1
-5572	-5388	15016	-518	-43	-387	-15180	-2368	-4768	14349	3862	3220	-15480	-4200	-536	1198	1851	138	2880	10400	6812	3085	-32768	-6385	-6308	3460	4044	936	-7944	3156	-17712	740	-8836	-3937	-14642	5882	115	120	1
-5164	-5212	14684	-410	-8	-403	-15448	1832	-4388	12946	2977	2172	-15448	-448	904	1287	1831	-63	-2140	13220	8560	6514	-32768	98	-5432	780	-2344	-4420	-16647	8317	-14576	464	-8396	-6701	-13588	5297	123	120	1
-5076	-5392	14768	-165	36	-183	-15688	2428	-4248	11806	2911	1800	-16520	3080	1560	230	1729	-170	-6492	14272	9948	6297	-32768	7846	-7184	-892	-2864	-3891	-21481	12014	-13140	1428	-9720	-8786	-13877	5318	119	139	1
-5452	-5028	14968	-95	-2	-37	-16240	3456	-3384	-12173	3175	-2505	-16160	3088	2952	-1241	1554	-101	-9908	11600	11124	7453	-32768	15691	-8324	968	-3756	-5098	-25118	14687	-11788	2108	-9732	-9560	-13258	3543	131	148	1
-5264	-4668	15044	-494	-145	-138	-16468	-396	-1136	-14390	3376	-2582	-16040	-296	3072	-2017	1518	24	-11132	8880	11344	8635	-32768	21126	-10812	1944	-3708	-6748	-27355	18242	-9748	2712	-9548	-11380	-12017	2593	144	156	1
-5316	-5248	14744	-910	-69	-331	-14836	-3924	-1108	-7518	3701	-997	-15704	-3352	3664	-1908	1489	159	-13060	5868	13720	8417	-32768	22401	-12760	2728	-4056	-9518	-31647	20666	-7456	656	-9024	-17099	-11821	1648	136	150	1
-6216	-6576	13432	-932	50	-383	-15420	-3324	-1188	-749	5146	445	-14872	-5088	3512	-1280	1452	91	-16096	3652	16124	10397	-32768	22651	-15984	2184	-5416	-14649	-32768	21616	-7724	536	-9092	-18597	-11011	933	139	155	1
-4948	-5744	14828	-642	107	-34	-15988	-880	-1100	-402	5615	866	-15928	-3944	4240	-688	1437	-20	-17352	2372	16068	12092	-32768	22697	-20072	268	-6036	-17717	-32768	21882	-8084	804	-8920	-17569	-10606	1540	133	125	1
-4528	-5396	14996	-460	157	239	-15956	168	-1268	-3622	6608	520	-15536	-2464	6352	-306	1711	-161	-18700	2592	19476	10108	-31410	21119	-24140	-1048	-7380	-16818	-32768	20538	-7368	-172	-6280	-14778	-8823	1974	134	127	1
-3636	-3360	15560	-946	-133	870	-16404	-628	-1572	-4181	7587	631	-15464	-2640	5464	-112	2251	-105	-26448	2368	29552	9682	-32190	20092	-27412	-3324	-10328	-11198	-32768	20646	-8392	-532	-4020	-9157	-6362	2020	135	127	1
-4764	-5152	14816	-858	512	655	-16180	-1400	-1492	-1494	8551	1323	-15400	-4056	2504	-1	2313	82	-28448	1192	29068	9110	-32768	19268	-27908	-1488	-10576	-6358	-32768	20776	-8496	-692	-2912	-7690	-5570	2056	136	129	1
-5408	-5300	15080	-1194	1160	835	-15568	-1508	-1972	1083	9667	1959	-16256	-4128	1240	233	1746	101	-30324	-2400	24352	10241	-32768	16278	-27748	-2508	-10980	-3501	-32768	20812	-11544	440	2500	-1965	-5039	4749	134	134	1
-5028	-5540	14996	-1064	1719	1292	-15644	-936	-1196	1171	11076	2050	-15776	-3600	3160	159	1440	61	-32768	-7644	11792	9132	-26932	12139	-28736	-1028	-14820	-2422	-32768	18965	-17784	1152	8664	-58	-9811	5849	129	129	1
-6136	-7920	13552	-534	2998	2119	-16056	-1752	-2332	1242	12554	2256	-16032	-1472	4448	-124	1611	-25	-32516	-5876	11700	6496	-28601	10976	-22260	-6368	-19116	-6880	-26251	15322	-20644	-3364	14128	-2070	-9009	5487	130	130	1
-5452	-4116	15356	-2202	4786	2102	-16904	1288	-3196	594	14300	2817	-17624	1192	2840	-299	1422	-104	-32768	-12384	-7492	14730	-24218	10475	-12640	-8432	-16888	-1846	-15449	12086	-12384	-6140	22408	-3036	-1634	2029	130	120	1
-3572	-4860	15968	-4938	8095	2018	-18856	2664	-2348	-1257	15706	2958	-18800	936	2192	-579	949	-31	-28228	-18400	-26996	11337	-8894	7325	-10364	-7580	-15392	2384	-4134	6622	-15568	1004	21592	-763	1083	291	123	123	1
-5280	-4552	15792	-7196	11902	1852	-18804	856	-3900	-995	17575	3491	-19208	-1400	3568	-596	551	36	-32768	-19944	-26680	-7886	11915	691	-11020	-5628	-13672	2882	-2127	5486	-18660	4740	15612	-2592	2028	2214	112	119	1
-5332	-6032	15264	-11390	16687	1883	-19476	948	-5320	-1989	19316	4321	-19032	-3152	5384	-802	152	216	4820	-23064	-11348	-7825	32767	-4498	-22948	76	4528	-1870	15436	-10291	-22180	1380	7328	-3124	2525	2181	106	109	1
-4564	-5152	16184	-13068	24082	4568	-23396	628	-3260	-4869	20437	4494	-21752	-3768	8728	-782	-426	353	-12596	-9536	12352	-1874	32393	-14457	-32768	-9440	-2052	-12582	16770	-8828	-32768	-6348	11484	-5699	-890	-1365	121	132	1
-4808	-9280	15664	-14362	32767	8751	-29688	-176	-636	-6701	22101	4218	-25952	-2728	15656	-304	-1391	532	-31592	11228	32767	2983	26708	-6257	-26964	-3164	-732	2829	20891	-8359	-31852	-5908	19864	-15620	315	-6941	111	136	1
-5484	-9036	14944	-17368	32767	12369	-32768	564	4988	-7234	23947	4404	-24136	3136	11896	-372	-1650	908	-18936	13188	20928	-530	17777	-4091	-26404	184	-3760	3758	21223	-6911	4304	4088	-8876	6397	19424	-4774	112	104	1
-13832	-10928	19920	-21580	32767	17635	-32768	928	3644	-11718	24131	5056	-25912	800	13776	-748	-1888	1011	-14564	9772	12572	-6296	4405	-4600	-11712	12120	-11112	-5247	20077	-7016	-7360	9432	-11088	12897	8873	5430	110	116	1
-31228	-20104	32767	-26111	32767	20593	-28188	-3652	-4792	-21440	24061	6673	-23208	-6512	904	-1348	-1731	779	-10944	4524	17504	-5123	1794	-4029	-13136	-2944	-8560	-4149	15982	-7421	-10376	7556	-13588	12806	894	3191	131	142	1
-23508	-16612	18032	-19322	32767	23017	-25044	-5240	-10628	-17138	23147	6062	-19536	-9704	-9544	-1412	-1913	200	-9132	5648	14432	-3788	-799	-2481	-15860	-1928	-6904	5298	13229	-5094	-11848	1328	-5128	7986	2228	4889	163	121	1
-14340	-19660	19124	-17064	32767	25104	-17476	-1836	-8708	-6654	15623	7577	-28944	-2800	-7688	-413	-2145	-530	-7420	3996	14224	-2104	-1196	-1327	-21320	-2236	-3608	11193	10996	-3549	-17532	8356	-8276	7475	9169	5031	151	105	1
-5112	-14044	26432	-12434	32767	24420	-13288	-1496	-12096	3355	12897	6962	-28104	904	-3784	-262	-2332	-710	-7340	3848	14192	-1144	-314	-747	-19396	2524	-3728	8669	9961	-2498	-25132	4004	-6520	5927	7419	37	157	121	1
-28152	-32768	32767	-2167	4938	11974	-7652	3124	-27120	5509	7303	3060	-24064	-2880	-3216	-11	-2361	-658	-6920	4400	13576	-451	235	-541	-16820	6040	-2020	-1415	9582	-3331	-13676	4464	-948	1338	10553	-1288	165	129	1
-776	-16700	29960	12972	-24546	127	-5180	524	-2664	-2032	1977	687	-21032	-4192	-4544	247	-2154	-579	-7320	4560	13724	165	640	-325	-14740	2988	-5064	-8298	8822	-3900	-13320	3780	-2032	-3510	12118	-519	159	147	1
4928	-5684	12864	16204	-28991	-319	-9124	-788	-1908	-6603	-8310	-2549	-23616	-4120	-6768	467	-1965	-629	-7516	4584	13548	400	638	-296	-16172	-284	-5180	-5172	7135	-3094	-16220	2280	-2424	-3537	11446	-94	146	134	1
4408	-1396	7652	10499	-29684	-581	-5352	-640	-1308	-868	-13080	-4247	-19192	744	-7232	785	-1968	-536	-6928	4876	13532	542	614	-482	-18480	-400	-3688	2896	5710	-1746	-15260	692	-912	2858	11929	784	127	115	1
1352	-4496	9568	5035	-30654	-1875	-4580	-940	-3684	6336	-18167	-4835	-16176	184	-6840	353	-1964	-509	-7304	4940	13644	393	674	-778	-17172	2132	-3508	6627	4772	-846	-15864	512	-704	7556	12341	1961	119	123	1
-1556	-9480	12592	6191	-32768	-4280	-4840	1748	-5528	8699	-23112	-6276	-13728	160	-7912	370	-1959	-468	-7248	4220	13532	568	751	-768	-16208	2164	-2668	6131	4536	-1099	-16332	2064	-576	10640	12505	1689	115	115	1
-5736	-10772	15160	9708	-32768	-8955	-5180	3100	-6436	6178	-27854	-7233	-10872	-1056	-8384	545	-1876	-419	-7220	4860	13572	608	978	-832	-16460	3900	-2272	3531	4758	-1265	-16524	3228	524	11315	11765	0	123	126	1
-7480	-9228	14112	10116	-32768	-14203	-6644	3872	-5828	3091	-32467	-7356	-9168	-1480	-8384	631	-1669	-329	-7292	4816	13464	323	1057	-1228	-16564	3572	-3480	1270	5887	-2067	-15564	3280	1036	9696	12522	-461	130	134	1
-8304	-7296	12124	7687	-32768	-17401	-8968	1568	-4216	960	-32768	-8636	-7528	-1224	-9120	910	-1264	-308	-7236	5280	13364	-27	1144	-1731	-16420	2520	-3612	2177	5379	-2216	-15392	5412	-304	9912	14178	48	129	122	1
-9792	-6976	12292	4817	-32768	-17350	-11764	460	-5136	2224	-32768	-10247	-6184	-128	-9600	1371	-1078	-262	-7484	4812	13500	-342	1275	-2064	-17128	1764	-3484	3901	5455	-2169	-16372	4840	-600	8479	15236	1519	128	125	1
-13548	-8284	14160	1893	-32768	-17016	-13732	-1208	-8232	8885	-32768	-10606	-6352	912	-9040	1564	-957	-174	-7348	4604	13456	-314	1719	-2116	-16896	2260	-3212	3118	5730	-2416	-15688	3780	-2188	6608	15475	612	132	122	1
-14236	-11172	17644	1072	-32768	-17203	-16420	2772	-7992	11694	-32768	-7561	-6432	968	-7800	1733	-1008	-81	-7780	4128	13596	-73	2192	-2184	-16668	1280	-3828	1493	6309	-2747	-15800	3192	-2312	2578	15141	-395	133	123	1
-23712	-20676	31764	3125	-32768	-19731	-24152	3608	-15408	9074	-32768	-9113	-7088	840	-3928	1530	-899	59	-7708	3772	13616	14	2942	-2071	-16508	728	-3520	1607	6657	-2724	-15496	3232	-1680	-124	15807	-847	140	122	1
-28592	-25144	32452	10011	-32768	-24372	-27628	2480	-14880	4732	-32768	-11348	-9864	1920	-936	1342	-653	41	-6344	4724	14056	54	4179	-2127	-16632	1900	-3072	2119	7107	-2965	-15068	3364	-132	-2018	15800	-586	141	124	1
-29056	-24628	23768	13642	-32768	-26973	-27404	-192	-12140	8487	-32768	-12679	-14320	-1808	5248	1264	-1060	-235	-7548	4476	13440	92	5785	-2224	-17624	2180	-2808	1792	8044	-3595	-17636	2800	1164	-1963	14442	40	140	124	1
-32768	-9788	19036	4498	-32768	-31646	-24904	844	-11424	8704	-32768	-6684	-19984	-6368	14312	903	-837	-724	-7856	4440	13372	298	7493	-2276	-17768	2020	-3084	991	9316	-4602	-18336	2704	1648	383	14416	242	138	124	1
-32768	-14556	7252	9692	-30709	-24637	-29460	-1152	-12760	578	-32768	-6224	-14248	-3536	18520	854	-850	-1505	-7820	4064	13520	340	9425	-2233	-16596	2620	-2668	1416	10843	-5652	-16944	3400	3600	1088	12746	268	126	120	1
-32768	-2716	-15744	8825	-21650	-10118	-11280	-2028	-18032	4474	-21016	-8027	-16512	8320	32767	1272	-314	-888	-7980	5916	14416	-328	12544	-3188	-18560	3692	-2288	1842	12483	-6535	-19784	3780	2580	1632	10202	20	123	121	1
-32768	3108	-25892	-17650	-16550	-393	1288	6076	-14288	-5126	-1730	-5314	-17232	4544	30784	184	-23	272	-8368	4688	13840	-1133	16919	-4499	-20628	2804	-2892	2881	14019	-7778	-20416	4172	2028	3444	6808	27	116	117	1
-32768	-11576	-27136	-5700	4031	5127	-4320	-3480	-15144	-10343	14811	-1757	-15256	-2840	26192	-780	-294	-117	-7796	5152	13368	-1124	22882	-6769	-21512	3024	-2660	3742	15724	-8507	-20956	3288	2948	5466	2731	-310	127	118	1
-3556	14668	-2844	7836	31184	6616	-12484	-6908	-1756	-7666	25194	2160	-11912	-872	3808	-673	200	-2	-8576	4996	12716	-1443	28733	-9742	-21028	1500	-2152	5650	17597	-8548	-20020	1856	6080	5624	-3788	-2225	120	114	1
-23772	-20044	30824	7921	27279	4532	-32768	-4364	31500	16492	9676	351	-21928	-4896	496	48	1199	-510	-9100	5976	14204	-2666	32767	-12664	-25368	3872	-1736	7835	18221	-8633	-23632	3168	10580	4081	-10673	-2305	118	119	1
-32768	-6480	30188	-9238	32767	3727	-16040	14852	-12896	32767	20998	4861	-30624	-1944	28360	2529	-731	-1617	-12380	7184	13012	-4539	32767	-18156	-32072	6316	2704	8284	19048	-8500	-23912	-1608	13176	-3462	-14713	-4455	124	124	1
-24568	13848	32148	-8415	29886	11585	-20696	9084	-9372	13754	21977	7081	-4368	5544	5288	3817	3179	659	-17224	8428	16356	-4354	32767	-23733	-32768	5188	6048	12998	19242	-8959	-23600	-5912	10820	4197	-14002	-7085	100	125	1
-32768	-32768	32767	9301	23533	10279	-22216	-3320	-13652	823	22346	895	-21616	8400	-5112	-275	1516	47	-32768	3308	21568	-6082	32767	-28158	-28296	3892	-5620	16987	19757	-8683	-20708	432	-3396	21533	-13453	-5417	137	124	1
-6052	2536	23948	10037	8589	3970	-16960	-8100	-10836	13301	20257	-3575	-19280	-10024	-15664	-2018	561	46	-32768	7776	19952	-1317	32767	-24069	-28496	3564	-8120	17208	17909	-12552	-21640	10292	-9784	23755	-15669	-2352	109	135	1
-4372	-18072	8052	8062	891	2583	-9860	2876	-11220	5287	18015	2593	-3136	-3264	-12544	-1789	552	-393	-32068	11020	29400	35	32767	-23809	-22056	5492	-7064	15973	16300	-10459	-24912	8612	-10160	12431	-17172	-506	109	122	1
-7308	-4536	15248	3824	-591	1565	-12732	9956	-12128	-9671	12607	-2017	-15328	-1136	-9344	-1250	1201	-768	-17904	16020	32767	-7058	26211	-27507	-15432	3924	-12264	5877	13892	-8359	-27676	3608	-10284	4224	-21179	4874	85	125	1
-6312	-4272	15460	1335	-546	252	-20592	6404	-9032	-28639	9806	-5233	-24704	-6368	-7456	-1804	909	-478	-18576	20080	32767	11383	-24327	-14365	-11020	-336	-11780	-1018	9968	-6086	-27044	3428	-8316	-3473	-20283	6902	125	128	1
-5152	-4968	15252	223	-304	-179	-20392	-13136	-4744	-9879	8030	-3119	-21664	-5448	-1000	-1056	1230	116	2388	16348	15988	8874	-32768	-8447	-11548	2072	4720	7742	-4312	1756	-27140	2140	-10420	-4188	-19744	7745	123	116	1
-5172	-4520	15276	-564	446	-201	-16124	-6248	-5360	15319	6865	3587	-14024	-5248	-144	268	1768	334	4408	13948	7208	4329	-32613	-3462	-6600	76	2500	6162	-10112	5900	-20660	280	-10680	-2815	-16958	6455	93	114	1
-5508	-5000	15072	-1241	347	-369	-15004	3168	-5172	15066	5724	3081	-13696	-4192	-872	930	1833	291	-884	11676	9112	5156	-31506	3410	-3976	440	-576	3721	-14439	9229	-16480	-572	-10152	-3723	-15609	6001	111	131	1
-5588	-5792	14916	-1072	424	-55	-15440	4640	-4568	-176	4887	395	-15816	-2416	-496	395	1681	27	-4588	10060	11068	7521	-32768	10294	-5188	1088	-2296	-2556	-18924	12396	-14152	-172	-10300	-5257	-14972	5958	120	136	1
-5488	-4932	15012	-483	221	203	-15488	4280	-4524	-2438	4738	-104	-16488	1000	1824	-438	1516	-56	-7012	7536	12072	8077	-32768	14421	-7520	1376	-2696	-6900	-23998	16148	-13612	1816	-11100	-6514	-14632	4408	140	134	1
-5368	-5112	14880	-297	293	311	-16404	-2016	-2788	-10821	4681	-1720	-16456	-1160	1608	-1272	1457	44	-9360	4056	13768	9686	-32768	16522	-10348	-416	-2980	-10541	-26571	19310	-11548	2476	-11564	-7448	-12256	4477	137	153	1
-5200	-5036	15008	-419	491	375	-15876	-4836	-3120	-831	4157	-184	-16352	-2424	1008	-1075	1506	89	-11032	1992	15920	12821	-32768	17722	-12436	-1892	-3524	-8223	-32364	20351	-10084	1788	-11192	-13660	-14285	2545	141	151	1
-5368	-4940	15428	-223	414	649	-15952	968	-3008	1664	5027	1121	-16120	-2184	896	-858	1608	161	-13388	856	18048	14925	-32768	18183	-14656	-1624	-2992	-9698	-32768	23384	-6988	-1176	-11192	-17566	-11751	143	132	157	1
-5960	-5208	14876	6	388	644	-15620	760	-4348	-1863	4943	-50	-15848	-2512	2080	-900	1828	78	-15408	284	19076	15950	-32768	18708	-17416	-2020	-2904	-10955	-32768	24410	-5472	-1556	-11980	-17790	-10348	-179	132	146	1
-6392	-6788	13504	-36	281	529	-15360	124	-3296	-5172	5393	-533	-14416	-936	3504	-712	2192	-56	-16056	700	19216	15243	-32768	19169	-22816	-2896	-4528	-10807	-32768	25052	-4800	-536	-10964	-15244	-7799	5	127	130	1
-4476	-5176	14880	-419	201	1481	-15872	-1080	-2816	-4679	5554	-280	-14544	-2560	2080	-482	2552	-88	-23884	824	28212	14979	-31742	19128	-27000	-2908	-6432	-8188	-32768	25468	-4136	-1792	-9184	-11841	-5809	-262	129	119	1
-5684	-4968	14456	-92	973	1576	-16852	-540	-4784	-2411	5773	165	-15896	-3264	-552	-195	2658	-82	-32768	5032	32767	13488	-32768	20970	-32768	-2464	-11648	-10380	-32768	26003	-6896	-2684	-3492	-9586	-4238	-511	132	128	1
-5480	-4716	15228	-1574	1396	1423	-16816	1020	-3648	-2370	6032	593	-16168	-3424	-1112	-151	2631	-63	-32768	-420	27576	13010	-32768	25497	-32768	-4332	-12232	-10794	-32768	23859	-11452	1040	1836	-8933	-6752	730	132	134	1
-5876	-4740	14936	-1464	1968	1079	-15164	-228	-1796	-2897	7212	560	-16904	-5464	-2384	-103	2012	102	-32768	-1960	26876	13060	-32768	26013	-29716	-2992	-13660	-12730	-32768	19535	-18868	4300	10172	-5416	-12259	3950	132	131	1
-5684	-4780	14844	-1549	2077	1014	-15272	-2396	-528	-551	9075	1717	-17224	-1432	8096	7	1631	-21	-32768	-7460	216	-1527	-32768	20442	-26780	-4136	-20164	-18313	-30537	14649	-19488	-4408	14004	-10102	-11480	7394	132	120	1
-4220	-6236	15036	-2567	4615	1367	-17328	-1304	-92	993	11473	2555	-19328	1328	6896	-50	1534	-94	-32768	-25656	-21176	11793	-20280	12655	-10504	-11304	-24368	-9216	-16710	10709	-13700	-9892	32268	-9122	-858	265	128	114	1
-5500	-4508	15428	-4110	6900	1811	-17560	1164	-284	289	14395	2735	-19720	1600	6680	-94	1471	-99	-32768	-20248	-24188	10380	-7006	6402	-4372	-7812	-22804	-107	-251	4157	-20840	-3304	26816	-3571	2911	-4503	120	112	1
-5588	-4496	15260	-4385	7413	1752	-17952	-828	-1440	-944	16946	3769	-18184	-3016	5416	-768	631	-67	-32768	-19768	-20108	-9848	6111	2133	-10224	-7524	-20204	341	13178	-6858	-18228	3984	16572	409	-659	-56	111	122	1
-4232	-6300	14928	-7511	15487	3478	-19652	-2164	-3456	-1195	19001	4155	-18936	-4264	4488	-900	332	112	-32768	-15124	-988	-8702	12535	-1532	-15016	-5288	-20192	-3453	23911	-13259	-13484	-728	7196	390	-650	211	118	122	1
-5272	-6600	14980	-7788	21404	7061	-21324	-512	-3484	-3595	21057	3794	-19584	-2112	7144	-968	-237	300	27944	-6536	32652	8566	7481	-6945	-32768	11428	32767	16872	8649	-11792	-8268	-2940	-12652	2395	17770	-2098	116	134	1
-6540	-7424	15900	-9340	29165	9923	-23840	1380	-2304	-6186	22690	3312	-21360	272	12216	-813	-1042	399	-976	18596	-3152	-4201	32767	-22748	-21180	-7440	4976	5335	13056	-5078	-32768	-4360	15124	3802	-223	-4121	118	117	1
-3900	-7052	14960	-11763	32767	12682	-29152	1248	248	-5817	24213	2631	-23960	3360	13816	-452	-1459	600	-21632	14940	22464	3194	31049	-4228	-24792	8992	-7348	8488	17320	-6601	-15552	4100	-4264	3798	-2648	-6182	123	138	1
-8416	-4892	16248	-14699	32767	16773	-32516	3176	4576	-8332	25126	2261	-23536	6960	10184	-796	-1492	1105	-23324	8260	23976	-366	25272	-8506	-22400	6588	-5836	-1988	18096	-5160	-18592	1276	2536	-2774	5851	4493	140	140	1
-15916	-11456	18168	-20444	32767	20838	-32768	1924	1360	-17989	24599	2001	-24824	1848	7840	-1780	-1840	1227	-32768	20580	32767	-8339	8140	-6309	-16864	2700	-16856	-12976	19375	-6323	-15092	1496	-1348	8075	10384	8100	139	170	1
-27384	-17760	22604	-26585	32767	25070	-24948	-2960	-11892	-26479	25051	1671	-23032	-5040	-2808	-2464	-1907	995	-7308	3384	18532	-5225	2144	-3975	-24052	-8936	-2648	-4309	15632	-6375	-15504	2100	-13576	10424	10228	1101	149	147	1
-31028	-27288	22336	-32090	32767	21861	-26704	-1352	-14472	-28525	23341	390	-27352	-9832	-10456	-2234	-1919	326	-8464	5380	14380	-2171	746	-1718	-14668	-452	-6712	6180	12611	-2153	-13160	1756	-10340	14682	8268	3741	134	125	1
-7928	-10924	14540	-19232	32767	30325	-19116	-2064	-14164	-17358	15870	3128	-31312	-1416	-7536	-1045	-2252	-420	-9648	5372	14008	-1129	343	-1180	-15100	-352	-7324	14602	10216	-492	-14584	12212	-8124	12800	8951	3028	154	106	1
-23236	-17308	22656	-18595	21236	28589	-11696	-5084	-9252	-9449	10636	2937	-28632	-2624	-8544	-864	-2311	-818	-7704	4148	14000	-616	223	-837	-18096	6312	-3936	8678	7821	-1399	-17092	9748	-4768	-774	9063	518	147	111	1
-5888	-24108	30784	-10004	-11657	17168	-3752	-400	-15996	-5410	5553	-601	-22672	-816	-4936	-79	-2471	-815	-6856	5024	13548	-366	530	-864	-18252	6744	-2444	-2604	7261	-3181	-16744	4376	-2652	-6049	10856	129	148	135	1
-108	-19540	18336	4109	-25601	4485	-5656	2064	-5128	-7366	65	-4330	-21264	-2280	-8104	-199	-2124	-827	-6836	4364	13684	-563	845	-950	-17468	1000	-2940	-6613	6295	-3608	-16720	1120	-1168	-6127	11385	65	148	128	1
4532	-10948	6344	9970	-27570	-2805	-5208	784	-3576	-7298	-7464	-6040	-18464	-2200	-8240	24	-1942	-978	-7324	4444	13736	-54	1233	-619	-17492	-1276	-3084	-1376	5438	-2329	-16144	-196	-1040	-2889	11761	972	153	121	1
5000	-5776	2352	7610	-25021	-8268	-2540	-1700	-2268	614	-12649	-6307	-16048	-1832	-8304	256	-1800	-988	-7452	4368	13648	420	1307	-658	-16744	256	-2356	4715	4587	-1169	-15352	-12	-212	2771	11394	1179	120	119	1
808	-7068	6208	4361	-24101	-12448	-1864	-752	-4584	11063	-16276	-7492	-13136	-544	-8416	470	-1732	-1008	-7620	4868	13436	568	1393	-757	-16336	2892	-2312	6409	4330	-959	-16392	-316	-732	7432	11365	1992	118	123	1
-2428	-9280	10436	7154	-25971	-15944	-2844	752	-5972	15677	-20990	-8348	-11760	-144	-8104	665	-1729	-943	-7684	4308	13572	670	1327	-800	-15984	2964	-2140	4435	4448	-1304	-15344	1052	452	9523	11295	2660	121	128	1
-6432	-8884	14060	9667	-30082	-19733	-4624	1972	-5740	15742	-25196	-9051	-10464	-664	-8304	752	-1613	-884	-7560	4300	13316	804	1263	-775	-15060	2196	-2100	3116	5595	-1721	-15224	1236	12	13702	11101	1642	123	119	1
-9004	-7428	15032	9863	-32768	-23498	-6928	3780	-6392	15656	-29887	-8166	-9648	-888	-8072	785	-1583	-878	-7304	5024	13552	861	1408	-877	-15916	2348	-2100	3801	6382	-1692	-16972	1880	1320	14233	11869	1283	121	120	1
-8968	-5236	12568	8934	-32768	-24804	-9444	2384	-4508	12937	-32768	-9189	-8720	-288	-8952	1372	-1238	-885	-7688	4736	13468	831	1478	-1162	-16488	2384	-2468	4352	5806	-1963	-16428	5336	-444	10892	13589	-441	120	117	1
-11324	-5280	13872	7570	-32768	-23220	-11648	928	-5412	13161	-32768	-9878	-6872	264	-9688	1830	-1042	-733	-7772	4780	13428	655	1661	-1245	-17216	2496	-3348	4039	6302	-2533	-15392	4220	-1604	7161	14183	2157	124	120	1
-14352	-5464	15916	4777	-32768	-21403	-13264	1124	-8480	16789	-32768	-9548	-7344	1368	-10296	2107	-958	-606	-7748	4628	13308	575	1888	-1334	-16380	2288	-3072	2318	6755	-3179	-14988	2944	-2008	4760	13691	1618	124	122	1
-15812	-6256	18200	1843	-32768	-20429	-15532	4108	-7704	13719	-32768	-6559	-7424	2576	-9520	2087	-875	-476	-7660	3692	13520	880	2340	-1304	-16196	252	-3224	2114	6965	-3377	-14828	3308	-1996	3333	13652	729	126	111	1
-19740	-13932	26940	2573	-32768	-18852	-23800	3880	-13372	7182	-32768	-7861	-8160	1584	-6120	1763	-814	-190	-7508	4160	13188	1456	3178	-935	-16928	844	-2408	2432	7477	-3672	-15464	3688	-1156	1305	14293	-295	136	114	1
-30464	-21692	32767	7819	-32768	-20570	-29428	2324	-15960	4361	-32768	-10302	-11272	1336	-640	1381	-687	-156	-7616	5120	13376	1130	3936	-1261	-16500	3124	-3016	1294	8494	-4121	-15432	3256	-408	-184	15081	-743	148	118	1
-32768	-22432	30092	11254	-32768	-23296	-32016	1320	-13024	5075	-32768	-11752	-16104	-1016	7568	1382	-1044	-355	-7568	5320	13268	482	5483	-1786	-17220	2832	-3160	174	9031	-4861	-16664	3140	-608	-1282	14174	-332	140	121	1
-32768	-10320	20948	4495	-32768	-26136	-27372	796	-11100	3565	-32768	-9172	-20608	-4216	16072	764	-889	-788	-7548	5536	13216	-104	7366	-2595	-18104	1808	-3312	535	9998	-5365	-18616	2884	-1176	-1079	13203	605	133	123	1
-32768	-12836	8580	6345	-32768	-19698	-22852	-2920	-13000	-544	-32768	-6939	-17056	5864	22416	504	-523	-1227	-8084	4144	13500	71	9444	-2568	-17876	852	-3112	1353	11079	-6385	-17588	2976	916	-242	11898	219	129	119	1
-32768	840	-16456	1982	-26197	-8233	-12348	-652	-15972	-311	-22135	-8621	-15552	10008	32767	995	-145	-1226	-8140	4020	13524	41	9840	-2536	-18644	2196	-3040	1587	12238	-7231	-18208	2868	816	1668	10655	-486	130	117	1
-32768	92	-30560	-15664	-15698	-1442	1300	5176	-12432	-8085	-1957	-6173	-17304	4464	32767	-58	95	-303	-9212	4460	12968	-34	17391	-3855	-20384	1720	-3812	933	13289	-8355	-20244	2784	648	1596	7802	-306	119	108	1
-32768	-10760	-27304	-4226	6636	841	-2328	-3472	-14076	-5502	15105	-1772	-14640	-2224	26000	-893	-330	-231	-8344	5444	13108	-69	22816	-5553	-20916	1964	-2936	2505	14879	-9307	-20840	3560	2888	2909	2641	-1276	115	114	1
