#Activity	walking 
#ActivityID	1 
#Date 10-06-18-22
acc_rf_x	acc_rf_y	acc_rf_z	gyro_rf_x	gyro_rf_y	gyro_rf_z	acc_rs_x	acc_rs_y	acc_rs_z	gyro_rs_x	gyro_rs_y	gyro_rs_z	acc_rt_x	acc_rt_y	acc_rt_z	gyro_rt_x	gyro_rt_y	gyro_rt_z	acc_lf_x	acc_lf_y	acc_lf_z	gyro_lf_x	gyro_lf_y	gyro_lf_z	acc_ls_x	acc_ls_y	acc_ls_z	gyro_ls_x	gyro_ls_y	gyro_ls_z	acc_lt_x	acc_lt_y	acc_lt_z	gyro_lt_x	gyro_lt_y	gyro_lt_z	EMG_r	EMG_l	act
-24164	14192	13816	8927	28629	490	-5740	18244	-7212	31418	7602	4443	-16008	-2516	10956	20765	3126	-78	-8688	3128	16936	-8043	29035	-11256	-25408	-6620	3200	-2410	20548	-612	-20220	-4804	12960	-2784	-11463	-3069	128	134	1
-15844	5608	19220	2614	25438	4431	-11252	16784	-4676	27412	9131	6783	-12928	7572	5724	28368	11883	590	-7264	8068	19220	-10354	32767	-17604	-29024	-15976	10772	5113	24269	793	-18840	-17652	12528	1042	-12558	-8551	123	132	1
-24532	-1604	15416	-1892	14828	14330	-22656	4708	-5588	2446	17993	-26	-20128	15704	2932	14344	10986	4822	-13344	7468	19120	-13227	32767	-24298	-32164	-11932	12264	13464	27899	2573	-21328	-15744	12956	10461	-17532	-15315	119	128	1
-26552	-24856	40	8228	6950	7647	-26016	-11052	-10336	2878	17708	-2873	-23072	-3984	-364	-11657	9293	1827	-32768	-2736	8780	-9031	32767	-32209	-26656	4312	-12104	7989	29331	3083	-19212	-2892	5988	17514	-15220	-13368	134	130	1
-12956	-4168	11088	6135	668	7490	-14228	5720	-5636	12846	10256	1549	-13980	-12256	-7264	-13151	12649	-6584	-32768	5852	8452	-8490	32767	-32768	-29424	4840	-9120	-2033	27161	430	-25904	4640	-9844	32767	-6522	-9557	133	130	1
-12136	-1480	13404	6635	-1304	6800	-14072	3552	-6228	5517	9820	488	-13364	-10092	-7144	-10753	12409	-7595	-32248	13448	21900	-5578	32767	-32768	-21496	-232	-3184	-6134	17088	3950	-32136	-1576	-15432	25002	-14134	618	132	133	1
-11460	-2652	12888	3759	-412	4114	-17740	6956	-4608	-568	9130	28	-17076	-2680	-3252	-2068	9405	-2690	-120	12448	19028	-2658	25068	-24978	-14776	912	-9412	-9025	11613	4210	-28860	-836	-12152	12715	-27687	3341	134	134	1
-10928	-3580	12160	2664	-368	2280	-17284	5456	-2692	-3924	9188	-323	-16880	-2600	-2644	-1716	9611	-2743	-27444	10064	18280	4452	-10346	-3318	-9928	-1552	-10260	3602	6938	3140	-24592	-864	-3056	7901	-30298	-80	127	130	1
-10408	-4028	11948	1711	29	1295	-17000	2276	-1272	-1063	7779	-465	-15376	-4620	1516	2902	10860	538	-4512	13428	16024	9292	-25311	9018	-10112	-2368	568	11419	-1156	3086	-25900	772	-5476	10442	-23840	1267	127	123	1
-9640	-4836	11612	1531	106	1126	-16212	1444	-1200	5583	5555	-548	-15488	-3916	1120	4944	11442	636	4056	8992	10672	8219	-24019	11923	-5644	-52	152	9067	-9788	3409	-20848	2412	-9128	10555	-19358	2215	131	120	1
-9788	-4604	11784	1546	-313	1132	-16128	3748	-1544	7361	4469	-365	-15776	-2700	1012	7235	12165	-1061	-2000	5396	9100	8640	-22547	14028	-5176	2068	-2060	2137	-18446	1872	-15788	2052	-10140	5126	-17586	3057	125	116	1
-9612	-4412	11580	1318	-147	806	-15660	3860	-2016	3545	5967	-44	-16452	-444	1716	4999	13256	-2272	-4716	2868	9924	10029	-24890	16375	-4860	-604	-3260	-486	-25537	439	-13488	2972	-9652	-1550	-18387	1760	127	118	1
-9632	-5108	11416	1249	-79	1026	-15536	3048	-1400	-1622	8303	23	-15260	-188	2016	174	14174	-3147	-9432	2552	11100	11594	-28764	18168	-6940	-1520	-4080	2598	-30792	-568	-12160	3268	-8460	-3692	-16489	1301	123	124	1
-9896	-4140	11724	1383	-173	1300	-15852	2464	-1536	-1470	8624	-272	-14620	-208	1428	-4152	14525	-2266	-13040	-844	12256	15392	-32768	20730	-8720	-2484	-5300	6217	-32768	-944	-10228	3852	-8664	-8049	-14606	217	127	126	1
-9772	-3792	12028	1031	-158	1035	-16308	3652	-724	562	7501	438	-15868	-676	1528	-5013	15185	-773	-13364	-1636	12200	20869	-32768	23799	-10648	-2948	-4772	7957	-32768	-1762	-8356	4392	-10144	-14725	-12324	-1143	129	122	1
-9792	-3900	12236	678	197	818	-16172	3268	-1292	1021	7114	494	-15912	-1252	2064	-4006	15843	-919	-14172	-1380	12680	25241	-32768	24849	-13380	-3468	-4668	6233	-32768	-1406	-7180	4184	-11032	-21282	-11059	-2263	130	124	1
-9916	-4224	11840	542	314	1138	-15980	2900	-2048	588	7303	551	-15348	-1448	1672	-1037	18061	-2855	-10984	-2144	12792	27640	-32768	24719	-18872	-6700	-7672	4130	-32768	-1583	-7112	3412	-10256	-22573	-9818	-2376	127	126	1
-9888	-4664	11848	525	534	1751	-16680	2896	-2632	-415	7492	529	-15572	-1876	804	2930	19076	-4808	-24356	468	17556	23991	-20099	24018	-19116	-3224	-11260	8296	-32768	-4036	-8516	-1724	-6724	-17658	-9512	-3192	129	120	1
-10148	-3556	12236	179	992	1800	-15732	3728	-3364	-262	7425	585	-15396	-1900	-1168	2920	18071	-4534	-32768	-2228	21968	19378	-26881	25531	-29824	-7296	-16016	9328	-32768	-3937	-11424	-6672	1440	-10432	-13949	-4429	132	118	1
-10376	-3680	12012	259	1317	1636	-15676	2988	-2204	312	8107	658	-16252	-2856	-1436	-722	14628	-2434	-32768	-9704	16716	18374	-27481	32621	-26756	-4996	-16016	16125	-32768	-4697	-10724	-3472	5216	-3926	-9379	-161	132	120	1
-10160	-4248	12096	239	1649	1991	-16220	860	-1916	1605	8783	1211	-17856	-4260	1360	-311	10337	-3038	-32768	-7328	10752	11717	-32360	32057	-23960	6700	-17748	13752	-32768	-4705	-11768	-792	9560	13188	-1110	5341	132	127	1
-10188	-4996	12460	617	2553	2889	-17364	1548	-1928	2024	9914	2024	-17424	-2964	3996	-1144	9195	-3782	-32768	-14108	-212	4511	-32768	26807	-24820	-1624	-16992	565	-32768	-6151	-13872	-2072	11000	7392	706	4559	130	127	1
-10384	-4592	13120	887	4158	3986	-17720	2548	-1772	714	11901	2794	-18388	-2512	3752	-5540	8404	-2860	-32768	-18684	-14236	5549	-25785	22654	-16552	948	-19252	2326	-22833	-1323	-14820	-7800	14152	-3306	961	4968	127	121	1
-10216	-4376	14968	1710	7788	4903	-19332	3520	-556	1796	13808	3768	-20688	-2180	4308	-7098	5973	-2741	-31696	-26580	-21636	9148	-9916	15606	-11092	400	-21728	5527	-9130	3702	-16156	-12036	25120	-4343	330	2640	128	114	1
-10108	-3692	15232	2456	11185	6352	-18804	4500	-1568	4802	15501	4571	-19476	-3168	5516	-7672	3372	-2096	-30516	-28472	-19424	10285	5096	7267	-9360	3520	-19684	4329	5559	4585	-13356	-7564	22188	4633	-2471	534	129	112	1
-10656	-4780	15992	3253	15728	7673	-20468	4920	-2780	6901	16600	5266	-20092	-4712	2984	-6588	2730	-626	-21384	-8856	-9784	-18222	10292	-9831	-16436	-2200	-7912	-7642	12001	2287	-14284	3080	14176	4389	42	2463	129	119	1
-10304	-5956	16080	4321	20829	9934	-22220	5288	-3420	5735	17868	5090	-20740	-5396	2664	-7256	1054	823	3448	32767	32767	-8342	16044	-11992	-31348	-14140	28444	-15143	1830	814	-18308	-1660	52	-15003	10586	2948	126	112	1
-9136	-4764	16536	4641	26004	13151	-23680	5216	-1612	4638	19036	5650	-22644	-4176	6692	-6639	-4126	1637	-13200	-19628	-160	-16048	14632	-15157	-7028	-16056	-12316	-30335	5375	1865	-17032	-7800	8812	-18521	13953	656	134	129	1
-6680	-2688	16924	5010	32767	18564	-24108	10332	-180	2444	20419	5487	-22868	-216	24204	-1866	-21042	4431	-21284	-3192	21820	-3609	25346	-2623	-24864	-13132	-1508	-12577	12601	1961	-17872	-14364	2988	-24218	9777	-1901	127	124	1
-5948	-8096	17604	7675	32767	17971	-30448	12104	10932	-9645	24121	7631	-20192	12060	18496	-6134	-12991	5136	-22824	-3144	14456	869	14735	-13661	-22112	692	-4632	-9211	15235	4615	-16372	-10084	4100	-4930	9060	-1587	127	116	1
-14868	-9924	14708	9295	32767	20433	-26380	6328	7604	-16055	27310	3840	-23216	14104	9900	-15554	-15754	8781	-12052	15856	1896	-13516	2385	-11269	-23024	15504	-5368	-13480	11942	8197	-19544	13652	-3876	11478	12410	3955	119	123	1
-32768	-5520	6356	4672	32767	28856	-21248	-1784	-13232	-13513	30491	3709	-22192	12384	9348	-18385	-16190	8132	-14244	4236	10248	-8421	551	-12005	-15720	504	-4432	-17229	7886	3453	-15084	14832	-9752	-8707	9276	10302	122	145	1
-32768	-11648	12516	3922	32767	27990	-23484	4136	-13504	-1289	24173	5402	-22284	1164	-15348	-32768	-14313	9611	-14064	-3636	14664	-8149	-1698	-7904	-16592	-5832	-6532	-9981	7744	3056	-18316	-5520	-3624	-13252	6683	7432	131	139	1
-32768	-6000	18280	-8415	32767	20165	-16456	3688	-10788	-3608	19726	6058	-24780	-12972	-16220	-4685	-21039	-3907	-12660	-1288	13996	-3993	-899	-3041	-18556	-7324	-3980	4105	10805	4053	-16856	-3484	-1124	456	7245	5909	133	131	1
-30780	-6212	20132	-8235	3058	14133	-12064	-1000	-12556	-7766	12905	3003	-24284	-4380	-5148	9467	-22852	-3121	-12092	2544	12456	-1560	-28	-2056	-17432	-888	-2364	9296	11155	4350	-16880	2308	-2152	5966	9461	6563	126	132	1
-8176	-11444	18024	-12104	-28881	128	-6148	-3280	300	-12802	3750	121	-22112	-1944	-4384	4857	-20612	-4013	-11416	2744	12288	-1085	-45	-1704	-17760	908	-2348	5133	8692	3104	-17428	4180	-1896	2468	10542	4371	124	124	1
920	-12676	11656	-12766	-29444	-1807	-10388	-500	4068	-11827	-4720	-6029	-19580	-3648	-6684	1637	-17946	-5731	-11144	2588	12008	-1091	-129	-1248	-17824	280	-2232	-2584	5339	1460	-15192	4436	-1684	-4016	10723	2497	122	129	1
1084	-10396	7916	-11079	-27409	-5656	-7948	-688	744	-6145	-12551	-7133	-17176	-3060	-6708	5048	-17076	-6175	-11244	2196	12228	-1020	-312	-1062	-16712	-3200	-2196	-4234	3938	1133	-16876	368	-1808	-9085	10153	2453	127	130	1
-5832	-9856	7832	-8226	-27817	-11618	-5720	356	-3344	1655	-20656	-8133	-14856	-1004	-7008	8717	-15418	-5618	-10948	2192	12496	-589	-13	-389	-15760	-4552	-1036	-185	4510	1737	-15596	-4300	-288	-6776	10075	4471	122	126	1
-7068	-8048	9404	-5648	-31340	-19110	-8516	4524	-4156	-436	-27241	-9436	-13744	-2332	-6424	10859	-14179	-4486	-10932	2892	12032	-344	111	-285	-15496	-3576	-132	4529	5733	2474	-14908	-4324	748	985	10482	5251	124	131	1
-9608	-3376	11052	-7736	-32768	-25304	-11692	4788	-3748	-4463	-31081	-10210	-13144	-4772	-6492	14135	-13202	-4053	-10932	2888	12064	-384	113	-339	-16276	-1648	-124	6856	6463	3002	-14432	-1232	1636	7018	11473	4835	124	131	1
-12752	-3396	11356	-11017	-32768	-27315	-12092	3776	-3392	-3161	-32768	-11788	-12624	-1888	-7516	20670	-13003	-3861	-11120	2920	11944	-939	-200	-583	-16532	-1156	-812	5593	6629	3043	-15752	732	576	8479	12748	5688	122	130	1
-15764	-4804	12620	-10207	-32768	-25679	-13380	4204	-4724	-355	-32768	-13848	-11388	1916	-8096	22794	-12729	-3425	-10916	2048	12372	-925	62	-553	-16712	-1912	-640	3120	6548	2813	-15640	932	124	8500	13022	5857	125	132	1
-17020	-5136	13888	-7680	-32768	-24760	-16884	6816	-5712	566	-32768	-14042	-9416	2476	-8116	16086	-10806	-3317	-10940	3192	12236	-1637	62	-890	-16860	-784	-1384	852	6305	3086	-16388	1080	-596	5863	15250	5820	123	132	1
-19008	-4212	16508	-7623	-32343	-26269	-19456	8464	-6344	-699	-32768	-13989	-8424	1196	-6652	7958	-7464	-2451	-11264	2208	11944	-1170	71	-692	-16632	-2048	-1384	2166	6988	2789	-14828	604	84	3353	15593	6424	122	132	1
-23736	-3764	20544	-9613	-28912	-29212	-23664	11148	-7724	-2759	-32768	-13697	-8240	2404	-3904	5181	-2699	-1345	-10916	3388	12236	-1206	346	-807	-16448	-1392	-276	4577	7583	3148	-14720	-604	408	-831	16474	8693	123	132	1
-30792	-3576	23824	-10634	-27363	-29316	-30424	11720	-11728	-5291	-32768	-13503	-9740	3400	724	4048	-2661	-1603	-10912	2908	12092	-1089	274	-1141	-16408	-164	-360	3048	8076	2729	-17404	-28	2496	-2869	14716	8525	124	129	1
-32768	4108	21544	-12654	-25444	-27784	-28936	12256	-14936	-9303	-32768	-10517	-13112	596	3960	3581	-2838	-3436	-11236	2964	12040	-1270	-24	-1748	-15704	340	3100	994	9704	1629	-20844	388	5412	-423	9333	6638	121	132	1
-32768	-280	9128	-12058	-30709	-25963	-23416	6180	-19392	-12908	-32768	-9526	-13980	-4732	7200	-2750	-2140	-6395	-11340	3456	12600	-1884	231	-3201	-16668	696	1476	-1012	11246	1129	-19392	96	6520	1031	6586	5364	123	134	1
-32768	5348	-7052	-6239	-32768	-21160	-20592	7868	-21240	-8838	-30284	-11154	-18812	2024	18476	4492	-2718	-5923	-11688	2012	13192	-1973	1519	-3931	-17572	-1700	-360	284	13990	616	-17504	-988	4520	3900	7495	5116	127	133	1
-32768	7100	-8908	-6143	-32768	-20437	-11288	10260	-22664	-8869	-16967	-10520	-16184	5444	32767	2190	-3137	-2670	-11392	3520	13096	-1875	3238	-4854	-17496	-388	-584	268	16139	490	-16840	-924	2240	5181	6259	5028	122	132	1
-32768	30556	-31508	-18320	-6693	-15693	-1412	3500	-21564	-3845	3752	-3374	-14872	2640	29184	-8315	-7943	1641	-12068	3328	14476	-4035	5759	-7622	-18896	-1196	-3060	-3480	16861	-94	-17388	1172	-44	5984	3419	3640	121	130	1
-31332	8336	-21900	4638	11465	-4545	-7980	3428	-18720	10760	13309	3288	-12448	-5036	16072	-5385	-7250	1366	-12024	912	16652	-4979	10038	-7499	-20536	-5260	-4556	-3722	18302	-941	-19560	2656	-648	5646	2176	2165	115	128	1
10416	-1952	32767	22911	16842	9541	-32768	4972	26212	27	13410	6338	-12908	-9024	-1336	-939	2873	-1404	-12152	2168	16220	-5675	10791	-7365	-22944	-3144	-5128	-4449	18791	-487	-21452	2500	704	6529	-22	394	123	127	1
-11232	8448	8748	14232	23253	14495	-15172	2584	-708	30492	5533	-1978	-25592	-5612	8820	4345	794	-927	-10432	3040	17536	-8442	19702	-9965	-23520	-5188	-3124	-5855	18810	-485	-22932	-288	6684	6394	-4550	-857	125	128	1
-19392	9968	17356	9881	24858	5616	-12292	16420	-1852	22872	10787	8273	-13640	-1572	6348	24006	1797	1175	-10092	2956	17748	-8122	25889	-11054	-26000	-7116	1596	-1848	21057	421	-20948	-4968	10428	-585	-10822	-2760	129	130	1
-20216	9064	19036	5026	22551	8770	-24336	18708	-5220	13076	14417	4159	-15456	10384	2348	21740	10783	129	-7780	4620	17992	-10554	32767	-19054	-27780	-8812	5564	-57	22457	1888	-20496	-13468	12576	2641	-10966	-6895	124	132	1
-24204	-352	16204	1769	11844	15107	-19184	8996	-6844	5843	16498	983	-19312	10616	396	9942	10585	2648	-7752	6220	20776	-14364	32767	-24292	-32612	-16672	13228	8981	25940	2380	-21540	-14676	12900	9274	-14468	-13872	127	129	1
-31384	-23444	9224	8215	6465	7943	-22152	-5652	-11352	1887	16254	-1118	-19728	-4196	-3188	-5441	11421	498	-22996	6272	16480	-16949	32767	-31496	-26812	-3148	152	10080	26980	4064	-18720	-8036	5076	15697	-15336	-14684	124	131	1
-11352	-776	12548	6000	475	7949	-14672	4440	-5876	15292	7647	52	-15008	-9920	-5564	-4311	13321	-4889	-32768	1176	4024	-6684	32767	-29303	-27172	5748	-13992	5220	29345	3129	-21276	1352	-5376	32767	-9445	-11654	139	129	1
-12288	-696	13864	4999	-530	5681	-15160	6924	-4948	8447	7776	-790	-17404	-1324	-3768	-335	10995	-4933	-32768	10188	19524	-5260	32767	-32768	-24212	3196	-8956	-2096	19780	5253	-29788	992	-12428	32767	-11424	-2969	129	133	1
-11228	-2908	12284	2728	-111	2491	-17364	7456	-3620	1109	8508	-566	-17344	56	-2736	-2086	10087	-3603	-13964	13620	24352	165	24398	-26823	-17224	44	-6880	-3680	14547	4535	-32768	-176	-13744	19133	-20979	5173	131	135	1
-10964	-3332	12620	1386	466	875	-16500	5008	-2444	-2901	8555	-1118	-16164	-2876	440	-3167	11697	-2427	-32768	4072	16280	1745	7831	-9944	-11236	-2512	-10848	2150	8558	5024	-26352	2944	-6888	9665	-28678	1992	128	131	1
-10400	-4468	11724	809	448	112	-16956	1544	-1116	-2836	8068	-1066	-15928	-5256	1316	-415	11729	437	-12076	10880	16796	11809	-17295	8804	-6992	-1260	-1320	11072	2352	2215	-22780	1836	-3948	9246	-24466	1165	125	125	1
-10144	-3860	11940	558	396	52	-16804	2264	-1572	2026	5798	-575	-15424	-4692	692	3063	11783	1102	224	14944	11276	8956	-22152	14586	-7596	1988	868	11320	-5949	3792	-23200	2408	-4712	9279	-22991	1665	121	124	1
-9984	-4224	11616	395	305	-129	-16520	3136	-2140	3157	4703	-200	-15760	-3620	404	4789	12673	-155	-1212	8716	8520	5501	-21400	16585	-6188	4064	-316	1212	-15487	3471	-15256	2996	-8268	5527	-16032	3696	124	112	1
-9828	-4044	11628	359	223	-175	-16040	3488	-1636	1429	4696	-119	-15600	-2056	976	4178	13533	-1639	-5668	4884	9728	4876	-22780	17626	-6100	1804	-2312	-4964	-22953	1585	-14108	3260	-8184	-1179	-17053	3298	127	116	1
-9348	-4376	11480	371	317	24	-15616	3008	-896	-1104	5546	-295	-15556	-932	1404	849	14763	-2710	-6212	2720	10608	8347	-26184	19510	-7492	-1488	-2676	-4428	-28734	24	-13168	4164	-7644	-5155	-16390	2765	127	124	1
-9600	-4356	11268	632	139	668	-15880	1924	-908	-2192	6668	-327	-14408	-1292	2124	-3036	14972	-2460	-9016	864	11656	11829	-27649	21677	-7804	-3420	-4560	-1705	-32768	-1091	-11120	4144	-7872	-9268	-15030	1176	123	120	1
-9964	-3952	11512	857	-293	1035	-15580	1664	-652	-690	7397	386	-15260	-916	1436	-4963	15552	-1908	-13664	-1300	13268	15112	-32768	25036	-7756	-3212	-5072	-1016	-32768	-1181	-8704	3812	-8800	-14633	-13348	-393	124	125	1
-9792	-4184	11392	852	-523	1343	-15916	3408	-644	11	7318	851	-15268	-20	1092	-4647	16436	-2130	-10184	-2012	13504	17401	-32768	28543	-11572	-5956	-3640	4353	-32768	-4290	-7832	3644	-8856	-20498	-11586	-1364	126	126	1
-10036	-3064	12316	523	-166	1314	-16300	4848	-1596	-949	7216	442	-14900	1044	2464	-1585	18864	-3110	-12468	-2364	15572	19809	-32768	29620	-14516	-4868	-5764	1115	-32768	-5497	-7180	4580	-9740	-24034	-9488	-963	125	121	1
-10020	-3576	11928	395	293	1004	-16680	2568	-1416	-976	7200	609	-15852	-1252	1596	1893	19317	-3975	-20732	-732	16768	18830	-30932	30094	-19192	-3928	-9580	1647	-32768	-8334	-7680	2476	-9000	-23019	-8047	-716	126	118	1
-9848	-4224	11496	562	130	1407	-15112	1588	-652	237	7300	968	-17816	-3920	-504	1988	15342	-4666	-27824	3004	19432	13679	-30542	27164	-23596	-4708	-10180	5010	-32768	-9093	-10200	-2140	-5252	-17855	-9019	-1355	129	118	1
-10164	-4020	11836	731	261	1876	-15784	1840	-1164	1310	8065	1291	-18108	-4808	1000	1189	10432	-3370	-32768	-840	20756	10896	-32033	26264	-29428	-4264	-17008	4926	-32768	-8912	-11296	-3644	-4976	-17088	-9165	-1489	132	120	1
-10256	-3636	12532	554	777	2113	-17060	2312	-2048	1889	8740	1900	-16932	-3128	2128	-163	10137	-2661	-32768	-5468	14496	10641	-32768	32549	-27656	-2136	-15420	9604	-32768	-10305	-11732	-4736	7188	570	-3068	1202	130	123	1
-10276	-3292	12548	160	1828	2207	-16904	2428	-1944	938	10098	2822	-17176	-2440	2460	-1666	10215	-2761	-32768	-2928	4316	4567	-32768	28034	-27312	4196	-14960	5400	-32768	-7479	-14976	-4428	9624	6746	2438	5636	127	124	1
-9776	-4264	13184	401	2908	2568	-16336	1776	-896	548	11886	3620	-17636	-2132	4512	-3820	8211	-2813	-32768	-15388	-8812	3476	-28763	21956	-20808	-292	-18592	3380	-29040	-3419	-17208	-12016	14700	-8518	1475	3692	125	128	1
-10496	-4564	13716	1231	4987	4275	-18344	2268	-1184	2673	13495	4244	-19088	-1588	4232	-6365	5945	-2556	-32768	-24780	-20128	12463	-14005	16222	-12048	616	-20492	9647	-14330	2593	-16948	-16252	26048	-2839	-2493	2923	126	111	1
-10512	-3932	15096	2252	9361	5381	-19736	5444	-1800	4434	14908	5291	-20004	-3100	2732	-7185	4597	-2162	-31808	-29396	-21588	18698	913	7964	-9048	4716	-19620	13080	2125	6077	-14360	-15336	23988	8438	-3900	2432	127	109	1
-10968	-3552	15472	3053	13244	6206	-19612	5088	-3096	5688	16397	5957	-19208	-4652	2000	-6835	3153	-373	-28944	-6952	-10244	5911	7170	-1106	-10372	6660	-11980	7447	14350	4733	-13920	-180	15824	14934	-5248	2833	126	121	1
-10872	-5160	15832	3827	18438	8027	-19468	5056	-3340	5783	16710	6085	-19496	-3428	1888	-7189	1690	1135	-6624	14352	32767	-10633	14027	-21796	-29848	-12508	32767	-4028	9677	-391	-14724	3912	-124	9691	5297	5943	125	120	1
-8444	-4380	16192	4742	22725	10411	-21552	5492	-2404	5296	18614	6673	-20936	-3760	4244	-6741	-1831	1835	-13036	-10952	8360	-17145	10584	-20039	-11564	-6880	-4624	-26134	4061	6708	-16968	4	4896	-8353	13165	5288	121	138	1
-9336	-4560	15896	4309	28652	14357	-22836	6848	500	4687	20273	7004	-21688	-452	12820	-7401	-9763	3288	-11196	-13432	19000	-6049	22369	-4255	-14732	-20472	-5396	-23566	10104	-2960	-10908	-4800	7932	-27228	14320	-617	125	122	1
-5276	-2768	19688	5474	32767	17071	-26872	12976	3264	-2332	22131	7551	-18152	4840	16628	-8416	-21089	3563	-22936	-2084	17376	-5455	22802	-12240	-27132	-6212	-5100	-5507	14577	5984	-21952	-20092	-1704	-12099	7312	-3849	128	118	1
-8540	-9500	15916	7962	32767	16963	-30408	12156	16232	-15624	26035	7595	-17696	8412	17456	-7627	-19326	3989	-32768	32767	1852	-7840	8790	-4855	-25488	15552	-5472	-3589	14837	8597	-21456	7232	-1988	10029	10228	-1656	118	121	1
-32768	-10492	9440	7036	32767	24518	-23588	-752	-4912	-14445	28713	4316	-20888	6984	3400	-20976	-14814	7403	-15400	-7056	13168	-8058	4265	-8486	-17292	1912	-5800	-15550	9575	5752	-16656	26488	-9072	-855	13371	9090	124	131	1
-32768	-4548	4740	7831	32767	32356	-26528	-3324	-10964	-4685	27953	7061	-25128	-4812	-16412	-32768	-12256	7746	-13148	-352	13508	-8111	-266	-7911	-15540	1128	-6424	-11179	7524	3427	-17016	1980	-7576	-18993	7297	6510	118	139	1
-32768	-14360	19228	5696	32767	28776	-22196	4440	-19016	4074	21598	5686	-28304	-13240	-18440	-21462	-18823	-1928	-13384	1060	13560	-4369	-844	-4143	-18024	-8428	-5060	-1577	7988	3433	-17024	-8812	-3480	-8835	7229	6778	116	140	1
-14256	-12936	21132	75	17817	17697	-16020	4416	-15136	3396	15589	6580	-23816	-8744	-12000	5522	-21172	-4633	-12608	1016	13292	-1012	428	-1053	-17848	-4224	-2328	9674	10183	4411	-17168	-1676	656	4360	8289	6642	126	136	1
-22520	-20764	23760	-3738	-12501	6803	-11340	-260	-5204	-4042	7454	2402	-24572	-1568	-4388	8045	-22926	-4055	-11956	3232	12000	58	431	-391	-17608	924	-560	10114	9775	4420	-15580	1864	1748	7649	9176	5914	122	128	1
-11236	-16200	21476	-3983	-13984	6338	-7808	-908	788	-10848	1906	-589	-20852	-2348	-4872	-493	-19676	-5134	-11128	3788	11828	-254	454	-454	-17764	2100	-844	2448	7291	2531	-15260	1788	1436	8269	9603	5182	123	132	1
3680	-9164	8532	-11978	-23544	-2170	-8608	524	1704	-8877	-6730	-4652	-17236	-4396	-5920	648	-17555	-6078	-11592	3724	11364	-921	98	-644	-16948	36	-944	-2972	5495	934	-16728	5364	-1016	1420	9605	3248	116	130	1
-720	-9756	6416	-9543	-19836	-5502	-6196	-1252	-372	-4711	-12845	-5669	-14612	-3776	-6400	6350	-15921	-5936	-11124	3492	11700	-1002	0	-845	-16184	-3200	-1248	-1007	5235	1342	-15888	1676	-1272	-2818	9905	3961	126	129	1
-5012	-10580	6920	-6523	-21943	-11122	-5288	-276	-3236	-46	-19137	-6556	-13716	-2696	-6952	10960	-14325	-5903	-10896	3112	11948	-205	167	-819	-15872	-4280	-696	4076	5788	1838	-15344	-3624	-40	-936	9913	4511	126	130	1
-8320	-8800	8704	-3803	-25808	-18183	-7620	2220	-5528	-452	-24806	-7738	-13292	-3092	-6496	13122	-13723	-5322	-11028	3340	11768	508	302	-1020	-16288	-1656	368	7815	6547	2625	-14328	-2480	1744	6065	10171	5015	133	126	1
-10600	-5532	10260	-4929	-30130	-24505	-11980	2912	-5104	-3092	-30087	-8873	-13560	-6064	-5540	16152	-13620	-4660	-11288	3360	11476	331	456	-1603	-16688	-32	-252	3901	5642	2594	-15232	448	528	8760	10844	4829	122	129	1
-13604	-3664	10032	-8961	-32768	-27201	-12796	1788	-3828	-1764	-32768	-9559	-14408	-4380	-7460	25380	-13481	-4757	-11580	2964	12240	-122	992	-1582	-17160	-1020	-1896	-1173	4438	1828	-16108	1520	-1268	7877	12743	5015	120	128	1
-15916	-5260	9876	-9577	-32768	-24425	-12560	2040	-5820	1077	-32768	-11970	-12532	596	-7940	30582	-13732	-5229	-11648	2792	11972	211	1649	-1054	-16952	-3052	-2016	-217	4939	1580	-16284	540	-1336	6366	14685	5962	119	129	1
-17996	-7168	10376	-7228	-32768	-22009	-14948	4324	-7420	1042	-32768	-12685	-10668	4036	-7344	22154	-12019	-5116	-11824	2948	11420	889	1705	-1016	-16588	-1504	-1112	4091	6456	2485	-15992	-592	960	1929	14846	7257	119	131	1
-19212	-7340	12624	-5281	-32768	-23526	-17064	6412	-6992	126	-32768	-13846	-8524	4068	-6352	9898	-7188	-3361	-11348	4152	11432	196	1259	-1558	-16596	-352	188	4791	7401	2857	-14332	-488	3336	-2759	14524	8082	119	130	1
-22372	-6156	16360	-7007	-30336	-28489	-21464	9348	-8300	-1360	-32768	-14554	-7748	4604	-5780	349	-2033	-2813	-11056	4196	11792	-757	752	-2543	-16368	312	-336	1736	7346	2451	-16564	1660	464	-1688	14949	6280	121	130	1
-29548	-5412	20952	-11125	-27524	-32768	-26444	10156	-10404	-4396	-32768	-14754	-9208	6216	-3192	-3962	529	-2712	-11968	2464	11832	-889	429	-2253	-16188	44	-780	1267	7339	2341	-18208	2732	-56	711	12042	4526	125	130	1
-32768	-2780	21172	-12384	-28929	-32768	-30568	9464	-13560	-7176	-32768	-14959	-10976	2676	884	-5822	623	-3197	-11976	2708	11828	-739	491	-1518	-16648	-1648	-292	2797	10373	1923	-19056	1336	2480	464	8803	4815	122	131	1
-32768	-13944	18780	-12514	-29986	-30010	-31784	6976	-13268	-12386	-32768	-12631	-15472	-7448	8080	-7935	-4263	-6459	-11512	4768	11740	-1303	409	-1856	-16164	-56	1400	3659	12353	2028	-16924	448	5688	2358	7995	3811	126	131	1
-32768	9872	-1512	-1850	-26536	-19113	-16724	6920	-24712	-1294	-32768	-11555	-23020	-11980	15180	8371	-7700	-13822	-12348	3504	12212	-1582	958	-2542	-16980	40	-164	38	13397	1122	-17176	-1084	5176	3964	8477	3952	128	130	1
-32768	13332	-12952	-8607	-28792	-19367	-15208	8896	-23352	-6954	-20185	-9681	-15776	2700	23728	12149	1475	-11143	-12528	3052	12792	-2127	2895	-2802	-17408	-2176	-1600	-625	15179	827	-17040	-2180	2196	4226	7613	4805	119	130	1
-32768	30672	-27188	-20746	-13904	-12677	-5180	9424	-20280	-9068	-2300	-9092	-12428	7216	29492	-1956	-1182	1970	-10972	2044	15084	-2475	5456	-4077	-18712	-2364	-2704	-598	16824	333	-17472	2480	288	4978	5584	3564	125	129	1
-32768	712	-16956	-2736	5311	-7412	-12532	1984	-11600	-1635	11456	-1123	-13080	-3400	19236	-2315	-5545	3317	-11756	4088	14660	-3525	9813	-4669	-20496	-1176	-3452	-4428	17348	-532	-19576	5120	-468	5472	4292	1716	122	128	1
-784	4780	29348	30933	27967	10113	-13012	4648	-11684	1861	12066	-315	-15444	-8228	3736	-3001	4279	-2545	-12124	4776	15588	-5480	14352	-7367	-21956	-1516	-4120	-7678	16990	-1061	-21056	4612	924	4287	2302	313	122	129	1
-20536	15556	16792	8871	21426	9392	-13288	15348	-772	28170	4822	1130	-19584	-864	5044	-292	6808	-3349	-10436	4276	16648	-5216	20273	-9073	-22880	-4652	-2880	-6388	17912	-912	-23088	744	6012	4323	-2861	-516	127	128	1
-19920	18624	7244	9436	21805	7800	-14476	20156	3608	17120	13274	8555	-21024	4208	12144	18608	-2825	2254	-8800	1928	17724	-5536	26911	-9443	-25988	-7316	1140	-1058	20557	-336	-21680	-3688	11796	-1609	-12315	-2379	126	132	1
-22852	10276	20688	-2524	22748	10316	-21744	19568	-5772	6616	17301	1066	-10760	15972	5596	17610	9177	5795	-10376	12444	17472	-7495	32767	-14890	-28692	-10336	8072	1221	23416	1145	-21440	-5876	10436	-1916	-12104	-3083	123	133	1
-21252	-18664	9940	-4984	17520	6241	-22136	-1052	-5632	-3675	20216	317	-18012	4016	-3772	-4475	9586	5990	-7716	6212	18780	-13635	32767	-20983	-31624	-13304	10544	3568	24697	2878	-21592	-18076	12644	7832	-16359	-14772	126	131	1
-11068	-488	12648	9929	5332	8319	-21056	-8952	-9380	8805	13732	-1431	-17884	-21496	-10596	-18240	12087	449	-23228	5776	14844	-11185	32767	-30564	-24552	-4776	-2484	4903	24995	3241	-20724	-5660	5852	16865	-13924	-12561	132	131	1
-13192	-13216	9676	5835	878	4894	-14312	4404	-6076	9898	8545	1460	-14640	-8904	-11504	489	14066	-6465	-32768	4552	-2508	-2841	32767	-26484	-25104	1120	-14720	1787	27195	2946	-21720	3732	-5700	32104	-6264	-9626	135	132	1
-13216	-2764	12368	2856	-334	3923	-15832	6720	-5660	1364	7515	1434	-16912	1188	-6584	498	11814	-3142	-32768	3188	15028	924	32767	-27926	-23308	4884	-12884	-3049	21810	5770	-29072	1700	-15516	31262	-9856	-2424	129	135	1
-11680	-2260	13008	429	777	995	-18028	9180	-3588	-5179	8256	-242	-17512	152	-1972	-841	11168	-1079	-26032	12768	20940	6823	27112	-21808	-17860	-1452	-11244	-2286	18403	2812	-30048	276	-13276	14801	-23105	1918	137	135	1
-10300	-4248	11736	-1533	977	-519	-17392	2712	-1344	-7783	8679	-1449	-16904	-3088	1028	13	12726	-321	-26324	12204	17616	548	-659	-3345	-12764	-656	-4196	5256	12302	3157	-26204	2472	-3436	8611	-30213	-853	129	138	1
-10276	-5668	10944	-971	679	-608	-17000	-1076	-168	83	5604	-1128	-15556	-3364	1532	182	12118	898	-6480	8620	16044	-2037	-16123	3371	-8900	1340	-964	4129	3265	2554	-24344	3240	-2540	9326	-23834	-90	128	127	1
-10476	-4816	11416	-792	500	-719	-16004	2796	-1304	6153	2878	-767	-15724	-3112	1120	3273	11461	1315	2316	8232	13048	2260	-17663	7384	-7572	1604	1424	1735	-5397	1140	-19976	4024	-7128	8487	-18025	2144	124	125	1
-10080	-4888	11288	-1248	778	-1403	-16952	3648	-1108	2220	3870	-515	-16188	-5152	2260	4297	11989	140	116	6768	9464	4410	-17487	7137	-5524	2752	-632	-3109	-13330	-537	-16332	4712	-8232	3547	-16976	3122	130	112	1
-8976	-6180	10620	-820	938	-1203	-15680	584	620	-3154	6023	364	-16208	-4908	6712	4424	11518	-1586	-4316	6468	9360	4191	-21005	7480	-4192	2372	-2544	-4098	-19579	-1844	-14004	4812	-8576	-3048	-17310	2378	127	118	1
-9580	-6456	10012	162	608	-82	-15588	-1188	-100	-5571	6948	1061	-14644	-3548	4364	-1618	12937	-2306	-6828	4864	9056	4876	-27701	8984	-4920	712	-3012	-1047	-24149	-3416	-13456	4276	-7996	-6279	-16838	1695	127	122	1
-9540	-6440	10260	1296	249	1048	-16568	-528	-572	-2907	6150	2060	-13424	-2520	2840	-5748	13259	-2052	-8368	4196	9320	6063	-32397	10957	-6916	-372	-3380	1867	-28715	-4499	-12100	4380	-8188	-9255	-15078	1207	129	125	1
-9868	-7032	10180	2045	44	1844	-15564	2220	-20	-741	6076	2021	-15744	1072	780	-5683	13232	-2010	-10404	3420	9832	7848	-32768	13786	-9184	-1136	-4200	3645	-32768	-6081	-10420	4452	-8432	-14214	-13428	264	129	128	1
-10304	-2808	12252	1666	268	1518	-15948	6732	-1568	-1437	7759	994	-16012	1880	620	-5413	13015	-1600	-14220	3316	10832	10397	-32768	18111	-10980	12	-4664	2985	-32768	-7602	-8348	3624	-8988	-20666	-12111	-191	127	127	1
-10348	-4444	11616	873	880	376	-16196	3156	-1272	-198	8823	586	-14928	-644	792	-6016	15870	-710	-17236	4660	11268	12487	-32768	21858	-13976	-844	-4528	2678	-32768	-8232	-7904	3044	-9556	-24806	-10752	-1053	127	122	1
-10040	-5552	11180	437	940	91	-16580	2048	-1600	767	8173	1095	-15228	-2812	568	621	19301	-3371	-15692	996	12048	16959	-32768	26466	-18992	-3156	-6224	2418	-32768	-7808	-9052	2112	-8688	-23022	-9642	-1052	124	121	1
-10352	-5164	11396	114	908	400	-16336	2788	-2684	-100	7711	1394	-15724	-3896	-888	4333	18996	-5023	-23544	3612	13508	19816	-30548	25461	-21732	-1180	-8428	9685	-32768	-7881	-10192	-2452	-6052	-15219	-8378	-1366	131	123	1
-10436	-4888	11160	-182	1066	390	-15644	2936	-1824	-1199	7886	1453	-17216	-3752	-2784	3022	14587	-3527	-32768	4644	19132	18192	-29445	21510	-28716	-700	-12996	9389	-32768	-4726	-11848	-8592	-1716	-8272	-7423	-2342	131	126	1
-10376	-4980	11348	-257	1362	618	-16016	1664	-1200	-187	8287	1444	-17860	-3440	248	1472	9985	-1151	-32768	-3140	17840	19763	-32768	24044	-29080	-3068	-15784	13444	-32768	-4154	-10948	-5896	6632	1483	-7475	-1473	132	123	1
-10224	-5372	11640	-269	1990	1000	-16912	1348	-1612	2432	8639	2089	-17256	-2476	2664	278	9258	-1204	-32768	-9084	11704	21283	-32768	28341	-27540	-1416	-16608	20391	-32768	-3737	-12432	568	9344	10139	-939	4422	127	127	1
-10688	-5372	11488	-246	2792	1260	-16672	1732	-1480	1965	10361	2948	-16844	-1400	4088	-2056	9625	-2249	-32768	-14488	2196	16958	-30029	23990	-23100	-312	-17136	16545	-31793	-1831	-20024	-576	13744	2217	-2190	8773	124	123	1
-10660	-5924	11976	-271	4347	1981	-17016	692	-1036	1630	12405	3706	-17448	-1420	4508	-5227	8306	-2929	-32768	-18540	-10620	10471	-22268	14965	-17988	3388	-19232	10793	-21728	567	-16724	-8120	19904	3406	-3303	9485	129	124	1
-9212	-7708	14324	-367	6612	3414	-18376	3408	920	2474	13921	4443	-19528	-1416	4160	-8055	6137	-2592	-32768	-19872	-13344	9501	-20578	13061	-8876	1264	-20936	7918	-8621	4547	-10788	-9380	23904	2645	1927	6987	131	118	1
-11264	-4192	13652	-82	10335	4364	-18504	5312	-1356	4919	15603	5344	-19776	-3828	2472	-7353	3647	-1248	-29572	-29644	-20632	13761	2605	-852	-8308	2276	-20320	5733	6930	5695	-12556	-5080	21068	5584	-2971	-236	131	113	1
-11204	-4872	14652	27	15792	3951	-19468	5556	-2824	6955	16954	6087	-19428	-4320	2040	-6587	1830	408	-23392	12252	-3760	-23476	9986	-10040	-15128	-5704	-8264	-8610	12389	2607	-15780	2644	12984	4767	-2391	1303	128	131	1
-10520	-6160	14764	132	21752	5897	-20776	4948	-2648	6588	18390	6532	-20112	-3432	4268	-7137	-1002	1542	1804	19720	32767	-9659	11084	-8783	-29756	-13896	24516	-18969	2433	183	-19296	716	2944	-6825	8675	5741	126	121	1
-8452	-7564	15072	-141	28059	9679	-23484	4888	-1376	5602	19453	7110	-22504	-3112	9004	-5634	-7007	1995	-7076	-20476	3720	-17281	16346	-10479	-8864	-15600	-9640	-32768	6386	-401	-20080	-3800	10288	-26510	12021	2596	131	127	1
-6740	-7788	15432	-26	32767	14233	-26368	8280	3748	1283	21366	6793	-20728	-248	22952	-167	-20622	2947	-23788	-7960	22420	-4668	23416	-5488	-23628	-17944	-5256	-16891	11890	896	-17772	-16236	908	-29117	13307	-6148	122	117	1
-9172	-7584	16396	1233	32767	19711	-29580	8256	9368	-6267	24246	7612	-19984	10244	19512	-3589	-15789	4606	-24524	-4024	16248	2941	15039	-7004	-23384	-708	-5276	-4616	17240	5442	-16232	-11968	1756	-5656	8249	-3980	121	110	1
-11908	-13716	12852	2010	32767	28033	-29104	4132	8528	-9040	25746	6210	-22892	9440	6240	-17550	-12260	6818	-3992	5860	8708	-10626	4326	-8100	-20616	12624	-5664	-9936	13262	8010	-18308	17560	-9316	18256	13476	2151	122	122	1
-32768	-7764	4624	1723	32767	32226	-22712	832	-16236	-2826	27457	6067	-22280	-1364	-7712	-32768	-16008	8352	-14944	6904	10264	-5713	2135	-7857	-14872	1248	-2676	-9902	9658	3337	-14484	13316	-6972	-4212	7372	9287	122	137	1
-32768	-9748	9728	1356	32767	30620	-27396	4300	-11156	2241	24479	8517	-25828	-8700	-14696	-30327	-18406	954	-12604	-324	12908	-5819	279	-7780	-16912	-2176	-5552	-7336	8288	2376	-19004	-1924	-3544	-7556	7872	7161	129	145	1
-28800	-10388	18812	-5291	32767	24647	-18036	4356	-9648	-2241	21314	6501	-25728	-11388	-13624	-3818	-23142	-3973	-12760	156	13172	-3962	-40	-4479	-18784	-4932	-3720	2436	9732	2978	-16300	-324	-2384	2532	9215	6176	132	140	1
17508	-18240	25408	-4710	14617	16664	-13292	472	-11656	-655	14669	5374	-24804	-4644	-5388	7634	-23308	-3278	-12444	1920	12356	-2334	-181	-3223	-16896	-872	-2704	6367	9215	3193	-16416	2188	-2000	5580	9809	5599	120	137	1
-12460	-20500	20028	-3203	-12756	3886	-11576	-5092	-6488	-4780	5349	1295	-23616	-1412	-2076	7684	-22908	-3717	-11824	2676	12088	-1288	-548	-2778	-17932	452	-2292	2149	6943	2309	-15564	2768	-676	2084	9580	3061	126	129	1
-2052	-12428	15924	-5202	-31333	-5381	-7380	-596	2584	-8930	-2916	-654	-21568	-3596	-5872	2919	-19406	-5562	-11596	3016	11904	-1461	-551	-2125	-17912	264	-1680	-5020	4494	1125	-17828	4324	-436	-4566	9106	1407	118	131	1
3588	-9188	10436	-6651	-32078	-5075	-9096	-972	2844	-5395	-11961	-4785	-18800	-3956	-6924	5746	-17285	-5778	-11328	2868	12064	-1254	-484	-1659	-16680	-2532	-796	-4786	4389	798	-16424	1412	520	-9582	8887	2290	127	132	1
-2160	-9000	8292	-5585	-32730	-6001	-5112	-1196	-1336	-54	-19773	-6617	-15604	-2972	-7296	9552	-16066	-4766	-11040	2964	12084	-1030	-393	-1298	-15692	-2968	-584	-591	5206	1128	-16096	-2500	1012	-7758	8712	3100	126	129	1
-3008	-8704	8356	-5400	-32768	-6440	-5980	2128	-2712	628	-27089	-7252	-13696	-1944	-8028	12588	-14388	-4167	-10640	3336	11940	-1283	-540	-1385	-15808	-3032	-376	4205	6532	1566	-14088	-4968	1864	-479	9842	4722	126	133	1
-7360	-6036	10156	-6012	-32768	-16756	-9044	4948	-4300	-4866	-32289	-7783	-12504	-3516	-7252	14938	-13579	-2953	-10932	3772	11944	-1851	-455	-1370	-16348	-2316	-644	7604	7297	2282	-14636	-2096	736	7675	10496	4314	125	128	1
-12928	-5652	11200	-9018	-32768	-22252	-11800	3748	-4836	-8083	-32768	-8917	-12284	-3648	-7548	17943	-12208	-2869	-11956	2492	11972	-2255	-604	-1228	-16384	-1644	-2312	7503	7436	2378	-16140	1192	-644	9146	12154	4787	120	127	1
-15048	-6392	10996	-9327	-32768	-23539	-11860	3988	-3992	-8450	-32768	-11240	-10464	64	-8580	21448	-11028	-2247	-11112	2232	12164	-1480	-278	-1023	-17128	-1648	-1768	3675	6707	1938	-16232	324	-1092	7286	13550	5352	121	132	1
-16100	-6680	11924	-8365	-32768	-22018	-15004	4976	-4736	-8887	-32768	-13418	-8776	2592	-9168	17587	-9267	-1861	-11040	2784	12096	-1441	-91	-859	-16976	-1380	-1460	159	5999	2330	-15932	-168	-1088	6902	13714	5320	126	134	1
-20368	-7864	14464	-8474	-32768	-23402	-19072	5288	-6648	-7507	-32768	-14633	-7940	2992	-8408	7270	-6404	-2023	-11288	2412	12240	-1320	232	-981	-15956	-2444	-1928	29	6006	2343	-14916	-892	-344	7322	16181	4948	123	135	1
-25336	-8200	17860	-10118	-32768	-27312	-24496	9052	-7740	-5337	-32768	-14892	-7692	2500	-5368	348	-3199	-1683	-11608	2384	12040	-989	236	-1374	-16152	-1644	-1148	4233	7397	2889	-16804	-56	1252	3290	16060	6004	123	130	1
-32768	-9184	22116	-12866	-31126	-30308	-30988	10576	-12184	-6193	-32768	-16255	-9820	4640	1064	-338	-3987	-581	-11552	4224	11888	-2317	-496	-1591	-16552	764	80	3716	8205	2609	-15508	1612	4244	-3820	14464	8162	124	132	1
-32768	-1656	19264	-12286	-31598	-30792	-30496	11504	-14892	-4799	-32768	-14860	-12732	268	4688	2004	-4238	-1495	-11344	2812	12100	-1832	-138	-1883	-16212	120	1484	316	9087	1526	-15020	1424	4796	-5000	13669	8746	123	133	1
-32768	1224	9584	-8399	-31176	-27841	-24572	8248	-18332	-7782	-32768	-10751	-14644	-9784	9180	-2426	-3470	-6528	-11368	3120	12468	-2060	234	-2703	-15536	-608	1972	-456	11320	1011	-19100	1604	6256	267	7224	3991	120	135	1
-32768	5248	-4348	-1477	-31489	-22445	-20248	8404	-22848	-6432	-31215	-9686	-18740	-1616	18884	7269	-3943	-9450	-11156	3168	13068	-2137	1580	-3609	-17688	-24	-152	-1004	13768	502	-17524	-88	6236	1621	8207	3396	124	132	1
-32768	18088	-19672	-4203	-26082	-15594	-10904	7636	-23488	-7096	-18021	-9804	-14032	4688	29208	3561	939	-5297	-11932	3520	13336	-2539	3210	-6034	-17780	-504	-1724	-1191	15283	208	-16552	-1584	2512	2337	9498	4326	125	130	1
-32768	32767	-29024	-17067	-8957	-8847	-4652	6432	-21108	-4236	968	-4472	-14224	3756	28888	-5598	-5316	4033	-11632	2124	13728	-3888	5523	-7916	-18756	-848	-3804	-1995	16323	59	-17412	1248	-1236	4767	6695	3833	122	129	1
-32768	11208	-20500	-989	9735	-233	-6804	4288	-20404	6472	13395	2624	-13156	-4880	18712	-3797	-7522	2637	-12192	596	16468	-5123	9633	-8153	-20848	-4792	-4824	-3320	17287	-1172	-20188	2492	-1772	5293	3490	2691	121	127	1
10496	-2256	32724	20211	9256	14119	-32768	3632	23676	-2123	12445	7650	-14356	-5164	884	-5324	3605	937	-11072	1436	17776	-6698	13921	-9541	-22512	-4316	-5112	-4122	17785	-620	-21996	2004	520	6491	1122	88	118	128	1
-6608	2236	11940	10499	19034	18955	-15832	7764	1760	22514	5703	-2183	-22416	-212	6348	1240	5778	2670	-10680	2424	17496	-8046	19165	-10059	-23432	-4920	-3428	-5526	18142	-701	-23872	228	7056	6075	-3646	-1369	124	131	1
-12692	13348	15228	4160	26387	4076	-8816	22316	128	12997	12658	8520	-13864	3016	1832	17025	2349	2724	-8180	3828	19256	-8849	24777	-10905	-26164	-7020	2220	-1143	20663	323	-21264	-4908	11496	-1543	-9622	-2805	125	133	1
-21532	2680	17848	275	24381	5888	-25416	10456	-4112	2507	17469	2089	-17956	8660	7676	13384	6219	816	-6952	3300	17468	-11009	32018	-19314	-28136	-8328	5256	249	22412	1874	-20392	-14472	13536	-252	-11367	-7236	121	134	1
-22528	-1932	15368	-2835	14812	11511	-22136	5872	-5680	2169	16833	2165	-18868	2792	-604	1303	9183	3128	-7472	7156	22012	-15302	32767	-23772	-32600	-17760	12292	8286	25484	2022	-21416	-14960	12632	9019	-14004	-14038	120	129	1
-25108	-32768	17524	5498	12735	3400	-21768	-5808	-8048	2893	15206	-410	-19180	-6172	-5536	-8504	11613	749	-20004	4900	15800	-18108	32767	-28304	-24832	-5084	1140	11702	26386	3740	-19184	-8408	3836	13053	-13939	-14606	128	133	1
-14808	-980	14128	7005	3901	6789	-16408	1864	-5144	13025	7988	1147	-14584	-12632	-9072	-5556	13040	-4566	-32768	-1352	2068	-6743	32767	-29376	-25212	6584	-13948	6564	28515	3905	-21208	1312	-6360	32767	-7066	-12232	137	134	1
-12576	-4276	12716	5893	86	6037	-14020	5988	-5068	7738	6777	111	-16588	-2640	-5660	1754	12144	-3920	-32768	6880	19456	-4828	32767	-32638	-24788	4144	-9084	-1213	19927	4689	-29304	1976	-12284	32767	-11912	-4699	129	133	1
-11952	-4020	12880	2800	500	3274	-17520	8264	-3900	-1216	7410	86	-18128	-780	-3496	2071	11128	-2417	-21700	12092	23772	2455	25387	-23767	-17164	-268	-8660	-3403	15054	3534	-31036	1048	-12896	15907	-21985	2219	135	133	1
-11220	-4220	12332	331	832	1115	-17524	4920	-1840	-4427	7659	-824	-17120	-992	580	636	11904	-2248	-32768	4284	14276	1188	4518	-13102	-11492	-1328	-9864	2420	8975	4573	-26148	2200	-5572	8578	-27974	1432	136	124	1
-10320	-5288	11452	-20	519	65	-16976	1732	-568	-1490	6326	-690	-15772	-2980	2372	-448	11608	-630	-12672	9604	15864	12783	-25786	10933	-7804	-1672	-844	11154	3584	1166	-23300	2832	-3532	9635	-23409	1541	129	128	1
-10244	-5408	11260	-225	539	-277	-16632	1688	-532	3212	4309	-566	-15744	-4388	2544	2045	10695	413	4468	14512	10212	10239	-24482	16040	-8284	1496	2012	11036	-5114	1554	-22176	4780	-7644	9256	-18556	3132	124	124	1
-9892	-5424	11216	-145	557	-386	-16436	3100	-688	3547	3837	-194	-15948	-3836	1588	5421	11354	-6	2312	10892	6268	4568	-19260	16149	-5644	4196	180	-417	-15163	738	-16288	4968	-9320	4188	-15935	3736	122	124	1
-9932	-5552	10904	-70	642	-441	-15896	2816	-964	539	4472	142	-15624	-2404	2192	4778	12277	-1297	-2776	6580	7304	670	-18891	16100	-4672	2656	-2100	-7542	-22751	-1147	-13848	4076	-9412	-1413	-15883	4173	129	117	1
-9416	-6060	10800	444	526	-4	-15828	1668	-444	-3168	5603	534	-15540	-1272	2952	175	13014	-1933	-6508	3160	9128	2687	-22715	17711	-5952	148	-3400	-6093	-27427	-2578	-12288	3764	-8656	-5553	-15977	3000	127	125	1
-9012	-6140	10296	1322	414	808	-16032	964	-324	-4384	5852	714	-14372	-1052	2692	-5684	14064	-2748	-10504	2800	10792	5744	-26926	18921	-8052	-544	-4380	-2306	-31808	-3161	-11028	3988	-8192	-9229	-14557	2139	128	125	1
-9664	-6264	10316	2634	97	2047	-15816	1660	-436	-2550	5729	443	-14484	272	1416	-7651	14684	-2411	-14692	796	11588	10923	-32768	21012	-9144	-468	-5520	2222	-32768	-4014	-8868	4588	-8356	-14204	-12596	604	131	128	1
-10512	-3432	12228	2359	43	1965	-15336	4880	-1152	599	5630	198	-15784	1544	1132	-8277	14676	-459	-13412	572	12212	15664	-32768	23402	-12304	-1648	-4480	4100	-32768	-5042	-8616	4728	-9264	-21051	-11698	-548	133	128	1
-10264	-4836	11492	1388	438	1001	-16440	3768	-1384	-1913	7931	262	-14816	-896	1272	-8028	15720	-1168	-12700	244	12180	20575	-32768	23162	-16296	-3632	-4428	3697	-32768	-4686	-8652	4148	-10288	-26339	-10183	-524	128	124	1
-9896	-4996	11456	746	496	558	-16296	1960	-612	-1604	7895	710	-14912	-3268	1064	-1340	19093	-4205	-17356	-508	13436	23475	-29496	22308	-19940	-3976	-7872	7185	-32768	-4991	-9640	768	-8668	-25261	-9328	-1135	128	123	1
-10244	-5108	11212	252	662	368	-15820	2140	-148	-1452	7897	1352	-16908	-3868	1832	2807	17417	-5512	-31468	3412	17816	22523	-25319	21859	-22728	-2072	-10696	9948	-32768	-4744	-10700	-4664	-3344	-17979	-10110	-987	131	122	1
-9984	-4792	11512	-16	704	389	-15528	1980	496	-1316	8666	1383	-18520	-3480	2000	1628	12787	-3796	-32768	1324	19420	19596	-28647	22459	-30484	-4104	-15096	12580	-32768	-3059	-10996	-10928	2996	-11223	-11195	-2889	133	123	1
-10420	-4924	11524	-72	717	468	-15820	1144	-220	1112	9391	2000	-17840	-3588	3456	-323	9153	-1158	-32768	-6328	14028	18740	-30071	28914	-30392	-4032	-15088	13052	-32768	-2742	-10732	-7632	7144	2093	-3502	1169	129	124	1
-10136	-5856	11500	57	861	957	-16912	492	-952	2613	10131	2850	-16996	-3936	3668	92	9088	-2161	-32768	-8856	8932	16638	-29591	29376	-24652	3284	-14680	12946	-32768	-927	-13296	-2680	10332	18084	2394	5739	128	127	1
-9904	-5720	11932	-43	1540	1935	-17148	1496	-1924	2397	11129	3524	-15892	-2556	2676	-1315	9719	-2961	-32768	-15572	-192	14851	-25296	26338	-22456	-2756	-15952	8565	-29881	-711	-17792	-3796	14724	13347	-249	6520	128	128	1
-10308	-5004	12220	-471	2492	2409	-17088	1680	-2332	2206	11277	3646	-16436	-940	1756	-5046	8316	-2419	-32768	-16972	-12044	10047	-17655	19145	-14768	1628	-18284	8353	-18727	3637	-16560	-2916	19012	1489	-2974	9530	127	121	1
-10516	-5000	12476	-777	4285	2831	-16532	2924	-1804	2423	14531	4625	-18196	-508	2144	-7516	4487	-1849	-28684	-30064	-20032	11628	-5245	7498	-9516	1080	-18324	7714	-4999	6524	-11360	-6192	22960	-213	8	7001	127	120	1
-10084	-4788	14172	-751	7669	2698	-17564	3456	-2256	3540	16644	4921	-18320	-2968	2292	-8201	1657	-1228	-27496	-31212	-20068	12460	-2581	6018	-7864	3324	-18060	411	7849	5435	-13464	-3296	21336	1768	-4207	2521	127	120	1
-11648	-5888	13684	-360	12098	4712	-19748	4612	-3404	5469	18283	5752	-19332	-4472	452	-8608	962	-291	-23468	8828	12260	-23172	5582	-5584	-18668	-7104	3596	-13010	11033	1112	-16072	2064	9468	1698	-635	3541	124	126	1
-10944	-5708	15244	-259	17613	6198	-20752	5764	-4964	6139	18298	6324	-19864	-3736	2176	-7678	-754	1105	8248	5744	32767	-18817	9134	-6647	-27740	-13968	20148	-22600	853	2032	-20676	196	988	-7558	9701	5460	131	125	1
-9728	-7032	15936	-248	24716	8476	-23632	6280	-2672	4927	18976	7108	-21992	-3836	7240	-6183	-5473	1654	-9216	-20632	4092	-22329	18192	-4544	-9236	-20008	-8716	-32768	5221	-1087	-19968	-4248	8324	-28301	8904	1849	130	115	1
-7332	-6728	16664	-115	32307	12944	-23820	6516	-2388	4574	18969	6949	-19748	-2816	17004	-3423	-14751	2258	-24536	-15988	23456	-8133	25062	-4089	-20652	-15368	-4820	-22987	9993	661	-15348	-14092	3060	-32768	10683	-6961	123	122	1
-7400	-7552	15960	2104	32767	17653	-28152	6832	7164	-1954	22963	8552	-19172	4792	14380	-3960	-11367	4275	-26336	-7428	16576	2944	14187	-15682	-24740	-976	-6560	-8778	15836	4406	-16848	-15380	1740	-13105	6202	-5203	122	138	1
-8508	-12264	15340	4592	32767	25860	-29272	6372	8984	-3865	24036	6789	-23236	10344	9060	-11231	-13411	6647	-2908	11936	5156	-16641	1522	-11087	-23668	16144	-6712	-14065	12014	9573	-21452	16956	-7088	14612	12349	1794	126	117	1
-32316	-10184	9260	3462	32767	29801	-22900	2944	-7048	-3892	24247	5089	-22352	4276	-3664	-27876	-15066	7588	-17648	6624	9668	-6313	1749	-9115	-13408	-1140	-3716	-12881	9174	3238	-14776	15008	-7776	-5890	8576	10559	123	141	1
-32768	-3296	2980	2877	32767	30632	-21588	2188	-12468	-1055	24477	7311	-23316	-6184	-12440	-32768	-15892	4233	-14808	-3696	14220	-7249	50	-6748	-17112	-2636	-5828	-7797	8608	2242	-17892	-4440	-2720	-9845	6982	8165	131	144	1
-32768	-7832	14412	-3645	32767	24491	-19396	4668	-14164	-2267	21951	7007	-24696	-12448	-15888	-12687	-21980	-3348	-12308	128	14044	-3889	37	-3217	-18864	-7212	-4128	4091	10584	3564	-15756	-3228	-2200	3437	8081	6401	137	132	1
-10208	-14848	19540	-5646	15744	15385	-14924	2224	-15424	-1351	17757	6651	-25020	-7752	-7816	7527	-22449	-3742	-12084	2064	12692	-1399	252	-1859	-16976	-1688	-2328	9540	10795	3923	-16564	2204	-1704	8074	9026	5594	127	140	1
-16192	-27496	22796	-5034	-18856	5964	-12444	-784	-1544	-7879	8319	3026	-24368	-2716	-1224	8946	-22347	-2615	-11768	2604	12176	-991	65	-1651	-18012	1640	-1800	3894	8199	3016	-15360	4672	-884	5119	9071	3186	125	129	1
-1308	-11672	14972	-5698	-24354	-1077	-5984	-2984	1568	-8046	-178	-1465	-21808	-2700	-5076	2452	-18339	-4971	-11540	2940	11864	-1166	-65	-1435	-17824	1460	-1436	-5702	4831	1258	-16804	5932	-836	-4580	8207	1558	124	127	1
4784	-9724	10932	-7883	-23490	-324	-8812	-808	3080	-5474	-8982	-4519	-17956	-3048	-5792	2171	-16457	-5701	-11496	2756	11724	-1286	-110	-1282	-16804	-1832	-1164	-7414	3780	694	-16228	3936	-312	-11910	9368	1833	124	129	1
-2172	-9948	8716	-7193	-24685	-2689	-4972	-1540	-1948	-189	-16108	-6080	-15564	-2496	-6216	5696	-14868	-5457	-11236	2516	12076	-1396	-413	-1281	-15868	-3108	-904	-3256	4366	1012	-16188	-2324	-20	-12856	8618	2467	120	124	1
-5460	-9400	9092	-5521	-29960	-8985	-6300	2328	-2824	-419	-22827	-6656	-13664	-2696	-6780	10159	-13597	-4452	-10980	2624	12200	-1208	-332	-966	-15548	-4040	-672	2889	5792	1481	-15272	-5644	1268	-6385	9381	4527	123	130	1
-6612	-7720	9448	-5082	-32768	-15478	-8700	4084	-3644	-3952	-28226	-8505	-13400	-3064	-6256	14272	-12665	-3150	-10976	2668	12036	-1002	-249	-714	-16176	-3140	-176	7507	7079	2312	-13940	-5268	2164	3610	9550	5022	125	127	1
-10156	-5028	10720	-7565	-32768	-21291	-11720	4304	-3848	-7310	-32076	-9862	-12664	-3476	-5464	16339	-12199	-3098	-10900	2584	11916	-1238	-409	-1023	-16332	-1452	-712	8313	7569	2830	-15236	-576	1568	8734	10320	4306	127	126	1
-12260	-5088	10968	-9947	-32768	-23974	-13224	3632	-3460	-5694	-32768	-10909	-12392	-2076	-6156	19918	-11564	-3455	-11252	2272	12360	-1374	-167	-1162	-16636	-1068	-708	3886	6797	2599	-16104	412	844	7385	11315	4522	126	131	1
-16124	-6836	11836	-9099	-32768	-22737	-14940	4444	-5104	-4988	-32768	-12389	-10404	684	-6508	20060	-10644	-3816	-10888	4136	12212	-1929	24	-1028	-17348	-160	-1228	-694	5848	2667	-15164	1544	-440	6000	14155	4895	122	131	1
-19232	-7948	13544	-6881	-32768	-22269	-17748	4844	-6400	-3964	-32768	-13505	-8872	3096	-5800	11007	-8622	-3135	-11244	1836	12224	-1771	103	-1142	-16492	-2576	-2456	-1032	6087	2205	-12988	420	-1148	4454	15854	4624	122	134	1
-22252	-6920	16728	-7283	-31769	-24905	-21500	7416	-7684	-2580	-32768	-14026	-8360	2976	-3892	1935	-6126	-2380	-11512	1312	12124	-928	307	-959	-16088	-2780	-2680	4065	7532	2634	-16652	-80	-1844	4133	15099	5095	123	135	1
-27288	-6524	19496	-10603	-29481	-28784	-24844	10332	-9568	-4905	-32768	-14180	-9932	4240	-1976	-1957	-3985	-1294	-11300	2468	12216	-761	417	-782	-17144	-512	-1188	6184	8275	2893	-18524	2440	-932	1776	12883	5574	124	134	1
-28712	-6336	19968	-11119	-29259	-29402	-27136	8944	-12700	-7437	-32768	-14753	-11096	2112	808	-1841	-2325	-1435	-11104	2256	12336	-1034	454	-1573	-16964	52	-500	1607	7453	1899	-17144	1496	1372	-3111	9775	6398	125	132	1
-32768	112	14200	-10864	-31162	-26183	-27120	9176	-13240	-7814	-32768	-14599	-11592	-6172	3548	-4055	-2103	-4473	-11444	2172	12064	-1117	531	-1762	-16844	448	-524	963	7385	1759	-16140	-1604	5696	-1950	7233	5886	126	134	1
-32768	3844	5480	-9508	-31122	-20650	-23608	8644	-18444	-9931	-32768	-11876	-14964	-7628	12644	3479	-2693	-8227	-11664	2864	12076	-1489	261	-2923	-16328	628	1376	1470	11179	1137	-15832	-1956	7312	3659	8900	5986	127	133	1
-32768	8340	-7504	-6864	-28635	-15974	-18372	7152	-21156	-7788	-24410	-11391	-19572	440	18412	9410	-3044	-9045	-11580	2672	13068	-2072	1479	-3907	-17688	-516	84	900	13317	450	-17504	-1864	5028	6430	10496	6944	124	132	1
-32768	19260	-19948	-8409	-17642	-9573	-9104	8316	-21120	-3269	-12943	-9193	-13620	4228	27148	-1749	2625	-3732	-11304	2776	13596	-2708	3569	-5109	-18052	-980	-1940	-8	14866	346	-17024	-696	2540	7986	10617	5497	120	129	1
-32768	24468	-23080	-9790	-1353	-5389	-5640	6504	-19304	369	3096	-3788	-12352	120	24224	-3625	-6013	2771	-11928	1816	14624	-4550	5808	-7120	-18460	-2060	-4356	-1707	15815	-24	-18812	1328	-1260	7359	8097	3834	123	129	1
-29284	4964	-11868	6928	12415	-187	-9564	5628	-18344	8719	13389	2407	-14760	-6036	14292	2318	-4931	40	-11868	1448	15844	-5123	9459	-7163	-20372	-4048	-5076	-2241	16718	-720	-20572	2256	-2556	5437	4035	2436	123	127	1
824	1448	32767	21673	18934	5886	-30004	5160	32767	-2214	12550	7618	-15500	-3292	-856	-773	6603	-953	-11788	1092	16816	-6816	13199	-8304	-22164	-2704	-4416	-3280	17270	-815	-21616	3772	776	6410	66	-19	120	128	1
-11340	11364	8404	10180	19840	12638	-9388	8776	-2492	27359	4347	-1869	-20900	356	7484	3022	5790	2125	-11688	2036	16640	-6899	14005	-8545	-22616	-3468	-3292	-5343	17491	-1057	-22488	1088	6364	5011	-4104	-840	124	131	1
-17392	10344	17412	1890	25175	135	-15564	18848	1132	14144	12013	8947	-13784	1252	4884	20538	2131	3187	-10152	2948	17536	-8663	23037	-10774	-25744	-6204	1588	-1828	19945	-597	-20932	-4824	10308	-2036	-11367	-1928	118	133	1
-17468	9848	19012	-2158	20953	9769	-22636	17072	-4272	3248	15833	240	-19764	12128	4828	15807	7732	2357	-9120	7784	18312	-10436	32048	-17359	-27884	-10044	5204	729	21761	1277	-20100	-15520	11128	-2518	-11995	-7402	121	133	1
-21412	-11916	11820	-3610	15144	5658	-21848	1212	-6304	-1661	17308	1312	-19244	964	-2792	-4675	9916	4056	-5932	5500	21532	-14009	32767	-22445	-31784	-20024	11300	8542	24813	2101	-22592	-17284	11092	9373	-14865	-15003	131	131	1
-30612	-18772	6732	5363	7079	4632	-21204	-9632	-12212	3052	13761	-1358	-17104	-11496	-5000	-11606	11547	-997	-18212	6308	15412	-18129	32767	-25607	-24416	-5508	2536	11911	25106	3182	-20468	-8124	5852	14643	-13620	-15340	133	133	1
-14100	-3856	12076	5220	1767	5324	-15300	5112	-5768	10132	6819	1028	-15776	-7460	-8252	-4463	13005	-4412	-32768	-3148	3108	-8268	32767	-27619	-23236	7432	-15204	6649	26584	3878	-20672	1916	-3544	31029	-7145	-12521	133	131	1
-13328	-1920	13412	3498	829	3818	-15432	7412	-5304	753	7492	60	-18264	-192	-5164	-2160	10947	-2215	-32768	7344	14816	-8401	32767	-31744	-25432	6144	-13720	-2600	19964	4267	-26964	2448	-13640	32767	-9698	-5359	130	128	1
-11624	-3648	12508	689	939	950	-18192	7584	-2568	-5990	8331	-559	-16848	-404	-1836	-2191	10819	-1730	-28096	6820	19680	-2640	23999	-23523	-16960	1032	-11092	-5168	16896	2710	-30196	1292	-13368	17747	-20602	3195	135	133	1
-10544	-4700	11532	-428	984	-416	-16764	2316	-1372	-5772	7595	-1503	-16412	-3348	1416	-2236	11400	-635	-22800	3920	18284	2796	-1349	-6015	-12280	-1700	-7392	3512	11126	2744	-25928	2128	-5180	9835	-29778	1856	134	123	1
-10404	-5936	10916	-379	953	-764	-16952	-384	-508	420	4974	-1027	-15788	-5092	1228	-1002	11200	905	-3368	8500	16112	8155	-16331	1541	-8216	-1640	-604	6925	3120	1952	-23672	2584	-2732	9966	-24395	1222	125	124	1
-10276	-5832	11056	-19	773	-642	-16716	1852	-936	4409	2867	-776	-17224	-5276	872	3832	11987	593	2364	11792	10764	8064	-15751	6710	-7288	-504	1392	7422	-4977	1009	-20608	4288	-7152	9777	-18156	2005	126	124	1
-10440	-5384	11124	-358	723	-1024	-16536	2832	-820	2065	3437	-150	-16432	-4096	1760	5959	12700	-942	-4036	9684	9476	5204	-16438	9150	-5792	4384	-1660	539	-12929	402	-16488	4820	-8440	4438	-16306	2215	123	125	1
-9640	-6200	10768	-77	725	-769	-15912	1456	-204	-1189	4536	320	-15408	-1836	3152	4428	12677	-2163	-6472	6364	9156	3711	-22675	12581	-5176	2000	-2764	-2618	-19847	-1263	-15648	6136	-8240	-3490	-17096	2393	126	126	1
-9312	-6284	10456	562	597	-11	-16000	144	-96	-2719	4942	736	-14624	-1344	3464	-1102	12841	-2914	-6584	4140	9432	5596	-26721	16543	-6728	-148	-2992	-1877	-25505	-2943	-13964	5296	-7492	-7644	-16638	1813	124	123	1
-9688	-6560	10084	1395	275	933	-15880	832	8	-2308	5157	764	-14716	-760	3028	-3711	12218	-2484	-8832	3464	10012	8064	-28589	20191	-8008	-616	-3924	-533	-30420	-4021	-12528	5240	-7852	-10970	-14870	1085	127	122	1
-9924	-5068	10956	2079	-107	1555	-15604	3356	116	348	4666	335	-15760	124	548	-5213	11477	-1227	-12688	1288	11616	10486	-32768	23718	-9728	-464	-4408	433	-32768	-5688	-10216	4948	-8872	-15817	-13559	-25	127	124	1
-9940	-5020	11108	2032	-183	1581	-15932	2248	-496	1301	5496	28	-15904	-752	1296	-4825	10414	-919	-13124	868	11976	13233	-32768	26870	-11988	-1984	-4100	-18	-32768	-7822	-9144	4564	-8768	-21650	-12332	-328	129	128	1
-10120	-5016	10964	2258	-352	1732	-15896	1016	-800	3513	5956	334	-15460	-3288	1684	-2612	11923	-2709	-16064	-324	12216	16734	-32768	30197	-15184	-2664	-5820	-3616	-32768	-8588	-8472	4896	-9096	-25646	-10519	501	129	122	1
-10544	-4432	11480	1715	-177	1357	-15716	3076	-2120	2702	6574	761	-16168	-2988	932	226	13214	-3731	-19192	2372	12856	15933	-31759	32038	-19464	-2532	-8980	-3334	-32768	-11458	-9912	3224	-8640	-26967	-9417	411	130	123	1
-10396	-4748	11424	1057	-116	1008	-16148	3192	-1500	-569	7641	754	-15812	-2224	148	-421	13304	-3236	-30376	7924	15452	9071	-29010	29729	-24692	-1572	-9956	853	-32768	-10246	-10424	-4080	-6856	-22507	-8769	-374	131	119	1
-10000	-5032	11264	1047	-55	1084	-16040	916	124	-326	8060	732	-16800	-3060	1404	663	11601	-2781	-32768	1692	17336	3872	-30736	29814	-28808	-1680	-16384	-2855	-32768	-11200	-11512	-5896	-5036	-22076	-9388	-980	130	124	1
-9872	-5764	11044	1628	-558	1812	-16128	-1100	692	3829	7696	1444	-16692	-4104	4184	2265	9753	-3346	-32768	-2860	12116	3907	-32768	32767	-26096	-648	-15076	1822	-32768	-12398	-10460	-4268	8360	-7103	-6971	1298	131	124	1
-9604	-5952	10768	2654	-1419	3373	-16208	-1412	-372	6148	8240	1912	-16000	-4536	4360	2187	8652	-4478	-32768	-2788	10716	3836	-32768	32767	-26408	4412	-13632	-1699	-32768	-10766	-14192	-2012	6060	-2922	1575	7414	127	123	1
-10396	-4304	11392	2838	-1556	4487	-16136	-1244	-664	6318	8374	1974	-16984	-3408	4276	348	7008	-4615	-32768	-1616	-8824	-6685	-26653	31043	-22932	3048	-15452	-9471	-32151	-6537	-17880	-9588	10188	-16441	-632	4922	132	122	1
-10408	-3804	12080	2077	17	3786	-15776	2364	-376	3515	12442	3239	-17876	-2020	5528	-4380	4392	-3598	-32768	-10976	-19028	-5602	-14355	27572	-14156	2928	-18136	-11178	-22526	-1064	-17980	-14648	20244	-22243	-6477	1981	133	116	1
-9916	-3840	13260	1338	2137	3704	-16196	3136	-2476	6347	13828	3732	-17332	-1672	3184	-6382	1635	-3173	-31016	-23984	-20996	4115	1482	26551	-10200	1804	-17780	-5135	-7099	3191	-12116	-15968	23248	-12176	-2901	2519	131	115	1
-10568	-3008	13904	-177	5156	3160	-18188	7016	-5128	2944	16254	4063	-16412	-1928	-996	-8403	1197	-2051	-32768	-12808	-14840	-2325	13026	23048	-14584	5944	-12472	-7312	5245	4122	-11084	-6184	19600	3263	-2749	3111	131	111	1
-11640	-3168	15076	288	9731	3739	-19472	6828	-5516	-1023	17903	3556	-18924	-2668	-860	-10825	330	-92	-4612	-9132	-660	-12757	24772	-2861	-16988	4500	3908	-22813	8724	3263	-17480	-700	13148	-5763	-5097	5019	128	121	1
-11528	-4344	14496	-596	14960	3414	-20712	5404	-2480	869	18713	4254	-21220	-3612	3136	-11897	-2517	1181	-16144	1960	28568	-12361	18884	1430	-25704	-16680	4264	-26898	3280	4685	-11716	-1356	4728	-11212	18078	11902	127	134	1
-10080	-7396	16312	401	21043	7021	-23812	3788	-2380	3801	19438	5152	-22344	-2548	7712	-10706	-6376	1446	-6640	-10748	11108	-10711	27662	3649	-12928	-18716	-7060	-21868	8646	2458	-20284	-6880	-8284	-5633	10911	2520	134	112	1
-7628	-6336	17164	591	27894	11974	-23396	7088	-828	2830	20704	4417	-22124	2612	17708	-9684	-15912	2971	-20216	-11996	21496	-3806	24453	-6485	-15476	-17912	-5628	-19780	9382	2582	-14588	-8664	-856	-15019	3163	-872	123	128	1
-7360	-8696	16260	1175	32767	16189	-26056	10420	40	-3192	23150	2659	-19192	13372	18660	-6890	-17402	4178	-20452	3192	13344	4370	17028	-9231	-19812	-9908	-5524	-3682	11534	7503	-16660	-13468	400	-15418	4064	-496	122	133	1
-6872	-7784	15816	3955	32767	20427	-27248	9712	5032	-10817	24582	285	-23344	12300	3280	-23476	-11745	6984	-10760	5424	10248	-9900	5023	-10946	-20820	7876	-6000	-1059	11055	11315	-19284	5984	-3208	5797	10406	1966	117	130	1
-13304	-6680	12828	5158	32767	22387	-22296	7988	956	-16293	23677	-911	-22524	4212	-5332	-32768	-14276	7467	-19104	10080	8820	-6775	-1439	-9006	-18664	2316	-4152	-9131	7487	8235	-16044	12360	-3852	-1550	8163	8253	119	147	1
-32768	-532	2660	-6334	32767	20105	-15268	3168	-12088	-17144	22175	636	-19920	300	-15720	-32768	-14434	5794	-12508	4708	12444	-8465	-3486	-8037	-15952	-496	-856	-11149	5412	6072	-15928	5528	-144	-9397	6209	8534	124	135	1
-32768	-6824	5928	-16679	32767	13049	-15004	2148	-28532	-10237	26178	2793	-21764	-6500	-15632	-20436	-19453	-671	-12240	3464	13804	-10011	-5660	-7946	-16852	964	-1308	-8741	6113	5288	-17912	5692	2320	-6156	5024	8665	132	129	1
-21188	-10800	13288	-26143	16639	8877	-14980	3752	-16080	-11963	21695	2838	-23732	-4884	-9636	-5244	-19921	-2156	-12076	-1912	12976	-6348	-2610	-4221	-17852	-5760	-3068	-3346	8177	2930	-16472	3848	2372	-8046	6582	8019	131	127	1
-10888	-17760	17072	-23195	-13156	10984	-10524	-3296	-1344	-18642	12929	-5166	-24356	88	-4472	-1768	-19201	-1932	-11644	-460	13008	-2860	-713	-2859	-17360	-2188	-3604	-5288	7637	2538	-15948	-2112	-344	-10306	7044	4869	117	129	1
164	-14468	12028	-18860	-20381	9470	-5276	-5928	560	-14562	4690	-10439	-19936	1500	-5240	-4538	-16998	-2813	-9956	600	12800	-1861	-488	-2063	-16172	-5192	-2844	-7455	5878	2195	-14772	-3132	-2116	-8555	5749	1721	116	124	1
2488	-10956	9452	-16751	-24336	8591	-7608	180	2540	-10399	-4297	-13260	-15576	412	-5808	-4441	-15170	-3527	-11004	-756	12584	-121	783	-1726	-15936	-4288	-5224	-5957	3698	2094	-15232	-2248	-2332	-8372	5898	1313	124	130	1
-2524	-7416	8712	-17340	-24064	2968	-5136	2472	-1644	-7252	-10447	-15330	-14704	-596	-4796	-2132	-13897	-3343	-11160	412	12804	1377	2469	158	-15916	-3524	-7400	-4489	2420	1189	-17364	-1196	-5884	-10619	9689	3323	126	125	1
-3780	-5040	8908	-19416	-26485	-6115	-7408	6752	-1608	-11656	-15865	-15456	-15200	-1200	-4640	2133	-13112	-2732	-11696	-980	13064	3009	2955	2822	-15712	-7464	-6024	3056	3125	1778	-15088	-7040	-3248	-8929	9784	4891	122	127	1
-3568	-1824	8652	-20651	-23438	-13185	-10020	6660	-524	-10817	-18661	-17363	-15040	-796	-4656	9206	-12772	-2262	-11624	24	12332	4263	2438	4497	-16288	-2764	-2612	6157	4134	2548	-15372	-5232	1036	-1031	9560	3775	124	129	1
-8940	-2012	11200	-20471	-20200	-16209	-10092	7260	-3988	-8182	-21734	-19166	-13256	2564	-3352	11662	-12733	-1536	-10180	8636	10944	2490	1456	1587	-17924	1584	4364	1950	3050	3071	-16680	232	2056	2666	10366	3095	122	129	1
-14312	-188	13796	-20181	-22471	-17512	-11664	7864	-5724	-9590	-23692	-20554	-12020	3864	-4012	6312	-12584	-824	-10684	5340	11288	-220	733	-2269	-16120	768	1516	414	2783	2561	-16392	4736	3496	795	9590	3606	126	124	1
-14464	-200	14912	-21405	-25713	-18990	-12436	7684	-5940	-9850	-26377	-21806	-11744	2344	-4256	1393	-11322	-1008	-11496	2516	11940	-1118	330	-3322	-17308	-1960	-992	1223	4266	1715	-17736	3692	3252	-4161	8772	4474	121	126	1
-14928	1420	16188	-23451	-27364	-20280	-15748	10312	-7988	-10846	-30037	-23422	-11320	1860	-4260	-5474	-10106	27	-11464	3244	12140	-1524	-689	-3996	-17948	-1524	1624	2005	6155	1942	-17400	2776	3272	-4558	8626	4814	119	127	1
-14828	2792	16456	-24170	-27614	-20391	-17492	13036	-9908	-16670	-29630	-23391	-13420	2444	-3340	-9241	-8475	439	-11448	2904	12384	-2830	-1458	-5327	-16368	-1096	1136	-355	7805	1768	-15696	-3112	7516	-3028	7653	4647	118	133	1
-24360	7416	14596	-32555	-23766	-13704	-16504	9360	-14420	-21462	-27175	-22556	-13972	-1168	-716	-21410	-7240	-857	-11752	1772	12528	-4068	-1047	-5309	-16912	-2532	-1888	-3772	8766	1087	-15856	-1216	2180	-2855	11539	4706	122	128	1
-32556	9436	11984	-30914	-26293	-9006	-16952	12868	-17696	-27216	-23215	-21108	-13572	-6336	3736	-28026	-5294	-2324	-11452	264	13084	-4292	655	-3925	-16276	-4264	-2764	-3140	9984	1251	-16196	-1624	972	-4157	7769	3480	123	127	1
-27572	18872	2332	-32768	-21539	-1132	-17648	13876	-15500	-32768	-14578	-20141	-14092	-3588	5992	-19519	-8132	-4107	-11512	-1700	13152	-4025	2235	-3840	-14892	-4252	-2308	-4197	11628	1097	-16436	-3480	5492	-6334	3987	3534	119	123	1
-25900	22596	-696	-31808	-6138	16142	-15376	12584	-16740	-30647	-7032	-18768	-13624	-3484	10396	-13006	-8870	-1730	-10788	1000	14560	-3650	4491	-2244	-16512	-5696	-1388	-4929	13963	138	-14216	-5652	7028	-12310	4738	3389	116	130	1
-32768	17232	6224	-6095	-6034	32767	-13748	10764	-17264	-25838	-1943	-14358	-10392	-2412	19520	-16294	-3582	113	-10792	-128	15136	-4322	7134	-3311	-19224	-4452	-6508	-5962	14188	105	-16936	-1500	-2296	1921	5559	1137	110	132	1
-26468	32767	17096	7712	-10676	32767	-7676	28412	-14992	-22838	4269	-4147	-7856	-7240	13012	-20044	7392	1199	-11236	-1736	15376	-4133	10790	-2477	-18596	-7824	-5660	-4331	14622	-225	-20640	348	-760	-3942	-1048	188	116	127	1
-32768	31312	15700	5250	-12739	31047	-15008	14092	-5556	-18133	13025	4116	-11652	-6740	-416	-16111	13074	3922	-10184	-2208	15472	-2559	15642	-74	-18436	-6812	-5576	640	17297	-214	-19300	-4844	8088	-11510	-4864	-709	130	128	1
-11564	4380	18040	6183	-20432	-9309	-15788	5148	-3164	6175	7772	6053	-15452	-1844	-6852	-2122	12667	5739	-11268	4064	16264	920	23127	4178	-23252	-10404	5140	6257	21644	240	-15980	-11068	8024	-6204	-8654	-5655	130	140	1
-8508	-26420	14592	-19	-2857	1434	-32768	-15372	13148	30148	-9182	402	-32768	-2224	13120	17733	359	9646	-8824	11260	20972	-6785	32437	-4805	-30436	1292	9440	104	24585	-2296	-21144	-9000	19236	-1953	-15363	-11042	130	130	1
-11668	-996	11968	590	664	901	-17960	18712	-8732	9409	1713	8205	-21008	-11056	9548	16772	12028	-3237	-9692	11784	18320	-10926	32767	-14047	-32752	-7036	6212	-10622	21206	-5765	-23316	-7032	10768	-2194	-8483	-11863	119	141	1
-10472	-7196	10980	13	-375	1406	-9648	512	-356	-13183	9012	2085	-9128	7128	3196	7610	16710	-2507	-16168	13448	15024	-19216	32767	-27790	-23660	-3184	2212	-10743	17095	-4727	-22472	980	792	16963	-2614	-9617	119	137	1
-11524	-3436	12044	-1581	-420	778	-16256	76	-2000	-15171	9265	2256	-13308	12144	1132	-10286	3973	3063	-32768	2264	10544	-28987	32767	-32768	-14724	5332	-17228	-18199	13530	-2085	-24188	7820	-8952	27320	-7160	-6325	118	130	1
-10676	-3228	11828	-1409	-14	-386	-18544	3072	-3964	-375	4557	2315	-20980	872	-212	-23574	1953	1801	-32768	-4792	17608	-31854	13706	-26197	-14360	6500	-19188	-22822	13958	-6611	-21736	15056	-9332	19091	-13714	-32	119	133	1
-10488	-4976	10852	-973	-292	-766	-16768	1360	-4804	3935	2879	1590	-15412	-9696	316	-21014	3688	-306	-4328	2852	31036	-18791	-13161	-7946	-14092	-4804	1636	-12605	9996	-11855	-22520	15480	-6572	3033	-15988	2597	107	123	1
-10064	-6260	10128	-62	-522	186	-16816	-356	-4832	2763	2052	1013	-15680	-15140	-884	-9568	5717	710	-2076	8984	21272	-14571	-21616	-6198	-9692	-3392	4924	-9747	1354	-14813	-21928	11556	-4756	-9287	-16881	1157	128	134	1
-10488	-5148	10328	1139	-350	1032	-15400	3236	-6076	298	1215	928	-16316	-8368	-1372	590	8540	2100	1364	8676	16400	-14434	-25288	-7651	-10948	-456	1796	-11594	-4698	-18057	-17756	8132	-3216	-10715	-13546	250	122	128	1
-10352	-4588	11024	989	89	426	-16748	4752	-5004	-5438	2180	72	-17100	-1512	-632	1895	9113	-193	-4700	12476	13388	-15025	-26755	-4536	-13208	1084	84	-9760	-10632	-21710	-17328	9508	-4080	-16902	-12692	185	124	125	1
-10696	-4476	11088	1376	112	248	-16480	1680	-4688	-4434	1364	-1252	-16832	956	-1920	-4794	9737	-1113	-11304	10408	11632	-13432	-27953	2276	-13492	1940	-3444	-7056	-14508	-23148	-17100	9616	-5620	-25735	-13284	-126	128	125	1
-11468	-3460	12032	489	-41	-425	-16168	1112	-2748	-778	-1190	-1169	-15216	-772	-712	-9626	9023	318	-17360	13704	9724	-11122	-31323	12877	-16320	5432	-3948	-7039	-18408	-24749	-16776	7996	-5784	-32768	-14405	-361	126	122	1
-10472	-4660	10868	-513	503	-1163	-15880	1048	-3196	1055	-2028	-770	-15672	-5076	496	-10578	8041	461	-20472	15892	7036	-13037	-32768	20990	-18764	7348	-3776	-10246	-22646	-24691	-15524	2704	-5312	-32768	-14175	-813	127	120	1
-10604	-5444	10420	-529	314	-1132	-15784	1104	-2932	-2341	-501	-569	-16120	-6648	1572	-7223	8024	-515	-21152	16276	6504	-13638	-32768	21797	-19868	8556	-3860	-15116	-27042	-23433	-14812	-4300	-3860	-32768	-13975	-2090	128	120	1
-10652	-5268	10424	-284	137	-863	-15936	-12	-2488	-5701	1640	-459	-15500	-4816	2592	-6724	7186	-697	-23400	14556	2616	-10574	-28851	23681	-21112	8328	-4344	-14795	-29010	-19911	-14948	-7564	-1944	-29034	-13927	-2766	128	118	1
-10336	-5180	11028	273	-139	-473	-15772	-472	-2732	-2975	2111	-42	-15312	-4044	1944	-6592	7039	-338	-24332	15960	1948	-5193	-23358	21930	-21460	8120	-4228	-10497	-29764	-14524	-14628	-7948	-900	-21895	-12432	-2508	134	123	1
-10560	-4616	11088	246	-237	-764	-16400	1780	-3540	-2131	2114	598	-14720	-3968	-492	-8434	7524	158	-23656	16940	3660	-3658	-18779	22339	-21944	7540	-4520	-9114	-31344	-10640	-13992	-7244	288	-14509	-10758	-1582	132	124	1
-10556	-4628	10808	-167	-32	-1151	-15980	2468	-3584	-3392	2275	514	-15148	-5888	-1412	-6468	9149	232	-24612	14668	5832	-2552	-15124	25104	-21860	5924	-5508	-7607	-32601	-8146	-13452	-6444	912	-7669	-10890	-1044	131	123	1
-10436	-4632	10992	-567	118	-1480	-16408	992	-2608	-3867	2208	327	-15936	-4876	976	-4567	10730	-37	-29132	12188	6788	-474	-14480	28793	-22008	5312	-6800	-5000	-32678	-6006	-13368	-2916	1612	-4617	-13257	708	140	122	1
-10132	-5104	10864	-686	249	-1530	-16096	-404	-1204	-2773	2250	896	-16676	-4064	4608	-2814	9381	-225	-28500	7152	5724	1442	-14535	31485	-21696	5848	-7520	-1358	-31139	-4083	-14120	1068	4400	-3088	-14519	3713	134	123	1
-10292	-5280	10924	-680	267	-1456	-15280	-1368	-876	-2568	3381	1706	-16068	-4560	4600	-2491	6725	-504	-30548	4988	3344	2144	-14534	29512	-21044	5816	-9620	702	-29024	-1767	-13048	428	5712	-1550	-12462	6166	132	124	1
-10272	-5800	10808	-424	-13	-217	-15476	-812	-892	-1784	4554	2299	-16136	-4420	4608	-2380	6228	-572	-30944	-2528	1596	4462	-14940	24290	-18956	4352	-12524	2246	-26439	565	-12604	-1820	8372	-550	-10790	6612	129	123	1
-10424	-5020	11404	-492	199	128	-16604	916	-1652	-2022	6148	2865	-15332	-1372	3452	-5847	6839	-1163	-27928	-9684	-2316	11992	-13650	21873	-16704	1288	-13964	7402	-20645	2590	-13904	-3288	8036	-1085	-10452	7423	126	121	1
-10344	-5128	11392	-871	921	158	-16308	1044	-2192	-2454	7632	3333	-16568	-800	3772	-10065	8443	-1768	-27340	-8712	-5472	15283	-9878	16725	-16404	1328	-14236	8242	-19573	2992	-12764	-3108	7964	672	-9515	8182	123	121	1
-10352	-5768	11384	-1081	1973	482	-16616	912	-2248	-3156	9128	3821	-17956	-1276	2504	-10076	6990	-2409	-27836	-10048	-6244	12648	-9042	11264	-11832	3212	-15996	6606	-9677	6670	-8692	2160	8396	-1085	-7425	8327	124	125	1
-10196	-5728	11920	-1286	3130	934	-16160	1328	-2104	-2577	10518	3869	-17852	-1980	988	-9918	3191	-2753	-21780	-10528	-6384	7987	-5924	8361	-12104	876	-14936	1105	-4887	6128	-5972	4992	7408	-7391	-2221	8120	126	125	1
-10968	-4964	12124	-1937	5042	774	-16252	1484	-2356	-2275	10674	3925	-17220	-2224	12	-10785	2408	-2527	-23540	-9628	-3924	4442	-368	7411	-10120	2080	-15748	-7493	-2443	5572	-7648	4752	5004	-14958	3766	8029	124	126	1
-10792	-5276	12380	-2854	7773	323	-17252	5452	-5544	-1106	12269	3695	-17244	-1564	-2020	-11893	2773	-1178	-30236	2008	5044	-10565	-4389	13220	-15348	-2296	-12996	-15816	-762	3589	-10764	3592	2432	-20295	13017	6282	124	127	1
-10616	-4820	12504	-3299	10545	82	-17632	5028	-4720	-2933	13239	3352	-18672	-2388	-2152	-11348	1315	-19	4372	-15684	24952	-19884	13720	4785	-21952	-21444	12504	-27225	-1715	-3688	-21376	4336	2860	-13775	8437	6941	124	118	1
-11556	-4960	12488	-3584	14353	80	-18920	4124	-3172	-1258	14173	3791	-19388	-4528	1964	-10477	-1173	122	-13080	-6972	14320	-8489	30167	10740	-16524	-15280	-2504	-31163	-2510	-2879	-28016	-15260	2152	-26870	6227	4376	126	133	1
-10468	-7644	12580	-3858	18820	2659	-20416	2668	-2520	1839	14659	4366	-20236	-2452	4724	-10185	-2514	364	-28268	-20376	22024	-5735	18853	-7068	-19848	-14840	-7244	-25970	2784	-1018	-16180	-31612	11432	-32768	4965	2939	120	108	1
-8740	-7916	13648	-4421	23912	5893	-20476	4644	-1188	394	16668	3864	-21208	-656	8328	-10997	-9213	2323	-16092	3160	14288	2225	7880	-6735	-19100	-21672	-9484	-5392	9723	7490	-17676	-22052	460	-10539	12531	2900	128	103	1
-7576	-7684	13896	-4091	31456	9035	-22700	7236	44	-814	18010	3351	-20908	2408	12348	-10895	-18714	1789	-10716	-5268	13752	-3767	4324	-3642	-18092	3728	-3772	10057	13006	9635	-14212	-1684	2276	15501	11118	3465	121	115	1
-9776	-7168	12720	-5546	32767	10896	-23924	8508	840	-6434	19443	3060	-18684	9384	8280	-12432	-15650	3284	-15704	15608	5944	-1174	2409	-3149	-19080	10740	-2856	-485	8497	7118	-15116	16416	-4188	17265	8618	4940	121	128	1
-13732	-12336	10620	-7980	32767	15567	-21068	6424	96	-10840	20427	237	-19820	9384	-544	-24808	-11227	6071	-12192	1812	12348	-5077	-1440	-6162	-17792	1928	-2644	-14429	3340	2760	-21460	11648	-2384	-5129	8820	10142	118	145	1
-28692	-6180	9064	-12208	32767	16689	-18164	5068	-8984	-10830	20260	-717	-19204	3876	-3772	-31350	-15570	7057	-12168	3760	12428	-7504	-1900	-5091	-15656	-6332	-2456	-9113	3677	1776	-18316	-1136	-2544	-13868	8302	7412	124	140	1
-32768	-7000	4128	-22775	32767	10097	-16256	2688	-17452	-8919	24484	1285	-20336	-2236	-11344	-31384	-18229	4789	-12536	724	12464	-5591	-1992	-3486	-15536	-6924	-3048	1945	6202	3368	-17620	-3152	-1684	-13544	8003	6619	126	129	1
-29580	-6420	4100	-32768	27194	7458	-18116	5924	-16916	-8026	23773	2434	-22096	-5056	-9060	-15928	-20161	49	-11584	612	12504	-2972	-479	-1320	-16588	-4456	-3520	7530	7628	4117	-15404	-1584	308	-5310	5702	4020	122	121	1
-10932	-16428	11156	-31527	10103	9762	-13052	3760	-14560	-15717	21851	-1070	-21580	-1604	-6560	-7094	-19231	-1015	-11820	1052	12340	-1639	-113	-389	-16840	-2172	-3320	6314	6989	3637	-17244	-2128	-24	-6629	5707	2952	119	117	1
-16180	-19700	14492	-21845	-12610	17809	-11612	-2656	-5024	-19690	14921	-5683	-23392	-40	-3916	-6917	-18026	-1230	-11300	2576	12112	-1440	261	120	-17376	684	-2380	-1912	4472	2454	-16772	2608	-1416	-7419	5322	2627	119	127	1
-3492	-10628	10436	-16170	-21075	13506	-8080	-3360	-1136	-18394	7783	-7828	-20912	-2992	-5324	-9306	-16458	-3393	-11592	2780	11928	-2254	-175	90	-17120	-1396	-4384	-6898	2436	1555	-17184	3316	-3240	-10852	6245	3346	120	128	1
748	-7632	8188	-15695	-23392	13114	-8400	-332	668	-15326	527	-8822	-17840	-5300	-6608	-7214	-14161	-4855	-11652	1572	12640	-1568	-263	80	-16744	-4420	-4912	-3288	1640	1338	-16908	-48	-3344	-12840	7053	4241	121	127	1
-516	-9772	7104	-14137	-23893	10353	-6708	532	-588	-10601	-5983	-10533	-16236	-4296	-6144	534	-13050	-4460	-11392	1464	12724	236	250	81	-16388	-5176	-3932	2723	1150	1512	-16668	-5484	-2108	-10122	7484	4908	124	125	1
-5440	-10616	8352	-11419	-26739	4692	-6788	1872	-3084	-9272	-11570	-12209	-15248	-1868	-5436	6529	-12750	-3356	-10960	2128	12516	1246	492	608	-16344	-4960	-2964	7726	2083	2428	-15744	-6084	-292	1029	9579	5389	126	126	1
-5584	-8000	9408	-9857	-30297	-2655	-8960	4304	-2856	-9364	-17111	-14318	-14208	-2432	-4480	8392	-13114	-1575	-11044	1948	12176	1192	421	708	-16448	-2100	-2452	6907	1597	3025	-14928	-1224	-1068	11247	11619	5084	123	130	1
-7484	-5312	10496	-12274	-30947	-9742	-11736	5204	-2624	-10435	-21489	-15823	-14516	-3320	-3728	10928	-12996	-656	-11124	2172	12192	993	561	952	-16812	-2440	-1608	2187	1032	2560	-15412	1064	-276	10386	11429	4202	122	129	1
-9444	-3380	10736	-14736	-30058	-14135	-12852	4828	-2932	-5935	-25565	-17174	-14236	-1064	-3136	17154	-13142	-1533	-11428	3296	11784	783	854	706	-16104	-1300	-1468	1193	1231	1869	-16288	1240	604	9115	12554	3499	124	132	1
-12104	-4220	11600	-14487	-27111	-15033	-14240	6244	-4128	-2619	-28801	-17404	-12876	2356	-2780	16972	-12851	-2505	-11128	3044	11716	681	268	110	-16676	-2376	-928	3063	1963	1877	-15596	1244	520	11364	14689	4162	118	132	1
-15036	-5096	12732	-11133	-25970	-13618	-15040	6056	-5388	-1964	-30997	-18001	-10896	3272	-2096	6768	-11978	-3265	-11360	2588	12056	848	33	-206	-16184	-3448	-608	5404	3419	2481	-15664	508	300	10909	14991	4253	115	129	1
-16900	-992	14988	-11479	-25742	-15114	-16140	10976	-6932	-3900	-31853	-18305	-9852	3644	-604	-5191	-9667	-2199	-11464	2512	12004	601	-187	-455	-14784	-2036	160	4379	4596	3347	-16704	-2112	2600	1532	9717	5398	124	131	1
-18228	2892	17892	-16833	-24195	-17929	-18760	12164	-8016	-11672	-31493	-18147	-10204	3224	760	-13558	-6873	-1025	-11040	2952	12224	-63	-236	-433	-16752	472	348	-1103	4246	2251	-17108	1576	2208	-7800	7734	5353	127	132	1
-23568	2988	19792	-22443	-24488	-16331	-22000	10232	-10328	-18043	-30860	-18507	-12804	-1848	3548	-13106	-6008	-2545	-11256	2580	12532	-391	762	-219	-17048	-2472	-432	-4109	4314	598	-18392	984	2320	-11605	8340	6414	126	135	1
-29540	6268	16724	-25104	-27459	-8706	-21236	8820	-12088	-21970	-28046	-18475	-14052	-5800	5188	-9353	-4366	-5175	-11812	3100	12084	-232	1280	-878	-16364	-1912	-876	-578	6594	807	-20968	-40	584	-7593	7071	3226	123	132	1
-29752	8936	11432	-25244	-28458	-485	-18008	9720	-12476	-24098	-23179	-17704	-13900	-4756	6544	-7705	-4296	-6472	-11636	2624	12140	-90	1356	-1075	-16152	-2056	-728	-124	6907	813	-16364	-2840	2008	-3395	5921	2519	122	130	1
-28664	8832	6832	-22078	-24828	1861	-15720	12160	-13028	-22615	-18523	-15099	-12944	-2536	8548	-8585	-5064	-6081	-11364	1904	12356	-471	1920	-473	-15388	-1520	-328	-2364	10072	370	-15136	-4968	4688	-784	5728	2404	120	129	1
-25928	11672	3244	-17564	-19409	-1841	-14876	11864	-12212	-19648	-12114	-11886	-11960	-2488	12592	-9085	-5038	-3471	-11312	3740	13292	-760	2988	-1045	-17628	-1816	-528	-4614	11324	-570	-16956	-3512	4084	813	6133	3018	123	128	1
-23612	12768	484	-9708	-11919	-5009	-12304	9204	-11452	-7997	-7817	-7106	-11664	-5340	14520	-10044	-4302	-2514	-12080	1860	13592	-554	5362	-1534	-18220	-4528	-3940	-3523	12624	-741	-18440	-1988	-388	-5	5811	3520	117	128	1
-19380	3552	-3188	7039	-4722	-5366	-13680	10144	-11108	5884	-4445	-1832	-10928	-5992	14856	-7785	-2218	-850	-11904	988	14460	726	9236	-723	-18108	-6784	-6176	614	14266	-591	-18040	-1960	-2960	1464	4681	2141	118	126	1
-24888	17604	-3824	18575	2066	-4600	-8944	9840	-14096	17280	534	2419	-12876	-5792	18540	3447	-2405	2015	-11736	708	14404	968	12694	746	-17912	-5812	-4820	3229	15742	-566	-18816	-1672	-156	3927	-831	-694	117	126	1
-8744	-736	23320	16598	2956	-6243	-23132	5084	13616	11543	3927	6703	-6808	-6700	7504	14729	15461	1845	-11888	2920	14556	1004	16555	1971	-19496	-3144	-1004	3185	17974	-1591	-18132	484	6676	99	-6095	-2889	126	128	1
1028	3964	18836	8065	10745	3770	-17164	8804	8796	21075	-1635	393	-20604	-1096	-1976	9040	15168	4396	-11064	6236	15056	362	21003	184	-22720	-2740	1612	1006	19658	-3364	-18084	-616	9848	-3864	-11350	-3596	117	131	1
-8228	4408	12596	5561	14893	7721	-17464	5788	-608	15354	4617	7096	-22652	2236	12012	29040	5399	1604	-10112	9992	16392	-1008	27897	-4848	-26140	-6748	3132	1533	21820	-4208	-19684	-5128	10816	-6741	-11732	-6574	123	133	1
-23524	-4580	14152	6277	8577	13343	-22364	5808	-6904	9767	7803	1777	-19436	8112	8240	19098	9614	3691	-8372	9120	18000	-4261	32767	-11492	-29228	-8432	6396	764	23514	-5476	-21624	-5796	9460	-2177	-12273	-9042	120	131	1
-32768	-4240	16112	10313	4806	8097	-20096	-1712	-9228	5732	9502	641	-20944	3984	1756	-6747	10564	1436	-12496	11912	17660	-6378	32767	-19714	-29604	-6064	6456	-1987	23318	-6808	-22276	-3244	8072	1603	-13683	-12665	124	124	1
-14780	-3248	13972	4733	1350	6084	-16448	6060	-5796	3153	7962	2226	-16896	-2184	-6108	-11892	9263	-5959	-25340	10724	10708	-11760	32767	-32768	-24064	4936	-2308	-11896	17966	-7465	-21296	1148	3756	1675	-11557	-10110	132	130	1
-11732	-836	13404	2926	628	3409	-16192	5188	-4288	1806	6340	827	-16080	-2544	-3444	-8895	10495	-3546	-32768	8552	5724	-16427	32767	-32768	-22492	8384	-14536	-30876	15492	-6024	-21932	7564	-4076	18925	-5207	-5116	126	133	1
-11568	-2792	12612	994	408	1053	-17456	5084	-3380	858	5110	-188	-18372	-1684	-3036	-6470	8221	-246	-32768	6996	9628	-25209	22979	-32768	-19412	2604	-22232	-32768	14704	-6894	-26200	7200	-7048	16304	-11465	1874	124	142	1
-11400	-2588	12520	837	386	810	-16756	2684	-2320	863	4272	-1302	-16176	-3424	-1100	-5775	8614	-1068	-6768	9524	24364	-24638	1580	-20233	-15948	-4484	-4640	-23485	12331	-9157	-26644	9880	-9564	6465	-20496	4328	126	140	1
-10520	-4624	11508	-154	468	-640	-16628	668	-2308	2339	2599	-1423	-15412	-7832	-272	-1476	9508	-975	-9512	11036	18324	-16653	-11292	-6713	-10304	-4472	1164	-11612	7738	-9384	-24200	7072	-5296	349	-25174	798	134	133	1
-10312	-5000	11176	54	465	-604	-16716	516	-1820	2416	1481	-996	-16236	-6844	856	1606	8939	271	-228	10184	13528	-13361	-11868	-4195	-9312	1264	788	-7399	1769	-9779	-20644	4472	-4312	-1090	-21821	-82	126	124	1
-9972	-4912	11388	239	370	-454	-16180	1332	-1092	734	1551	-820	-16260	-4424	2428	3523	8664	-424	-1488	10660	11452	-11922	-15436	-3054	-7616	2620	84	-4972	-4490	-11354	-17592	5696	-5720	-3676	-17389	836	127	114	1
-9644	-4564	11344	262	386	-170	-16176	1104	-528	-1351	2008	-922	-15728	-2048	3308	1830	8748	-1446	-4496	11596	9956	-11223	-20387	-683	-7684	4828	-1536	-4007	-10818	-13339	-16680	6560	-6352	-9172	-14994	1237	130	114	1
-9540	-4580	11368	526	376	156	-16180	416	-184	-623	2082	-799	-15652	-392	3860	-4448	9249	-1682	-9140	10796	7948	-9635	-26454	3048	-8332	4296	-2500	-3250	-16225	-14974	-16632	7820	-7116	-15132	-15703	1796	135	117	1
-9900	-4480	11416	721	240	511	-15928	524	-644	685	1760	-688	-15128	-412	3520	-10128	9053	-1629	-11284	11876	6780	-8089	-32346	7658	-9904	4916	-2832	-2164	-21289	-16195	-14688	6276	-6864	-19027	-14909	1711	132	120	1
-10648	-3680	11676	212	200	101	-16124	1940	-456	-1237	2561	-287	-15576	-1688	2972	-11879	8418	-1262	-13904	11924	5692	-7576	-32768	12695	-10976	4944	-3420	-3627	-26391	-17480	-12760	3836	-7556	-22588	-13527	964	131	121	1
-10132	-4748	11364	-20	234	135	-15748	108	-340	-2988	3481	-299	-16084	-4388	3000	-9339	6916	-2129	-14964	10988	4824	-5519	-32768	17878	-12384	3604	-2700	-5293	-31401	-17500	-12028	2692	-8560	-26238	-12021	679	133	117	1
-10108	-4676	11236	7	186	171	-16104	268	-700	-4058	4252	-126	-16500	-5900	1992	-8360	6004	-2285	-11932	8812	4680	799	-32768	23495	-16648	1820	-4748	-7618	-32768	-16197	-11812	2968	-7708	-28363	-12466	-133	133	122	1
-10048	-4376	11580	190	118	611	-16320	1028	-1236	-4580	4957	67	-15744	-4580	972	-6659	5854	-1969	-26244	10880	6224	5442	-28875	28561	-17368	6436	-9232	-3884	-32768	-15919	-12224	-292	-5368	-28683	-11778	-1305	134	123	1
-10200	-4208	11568	-34	81	391	-16408	1064	-1164	-4369	5027	83	-15616	-3412	1172	-4980	6461	-1782	-28188	16352	7960	-2376	-32768	29117	-23260	6452	-6912	-7244	-32768	-14498	-12204	-4304	-3884	-22825	-10967	-1987	135	128	1
-10360	-4128	11564	-8	78	181	-16264	1008	-1792	-2166	5370	168	-14888	-3284	1412	-4102	7635	-1772	-32168	8856	10616	-8716	-32768	28059	-22208	3972	-10744	-13003	-32768	-15963	-11392	-3004	-448	-14900	-8745	-607	134	127	1
-10248	-4496	11564	-66	267	-59	-15764	1192	-1140	-2491	6053	306	-15484	-3828	1532	-3590	8726	-2489	-29600	3108	13392	-7684	-32768	29683	-22728	128	-8864	-10107	-32768	-17816	-11604	752	-164	-11600	-5044	4946	136	126	1
-10044	-4376	11292	-15	218	-49	-15532	812	-1296	-3448	6991	347	-16348	-4300	532	-3400	6541	-2137	-28892	3988	14164	-5599	-32768	27351	-26788	-64	-8340	-5024	-32768	-17952	-11272	-128	1292	-13820	-1516	7900	133	122	1
-10288	-3992	11480	250	112	40	-16120	44	-1816	-2505	7367	494	-17008	-4128	1272	-3221	4563	-1963	-32768	6292	6524	-5564	-32768	23089	-28000	2124	-10492	-5032	-32768	-16100	-13600	-2848	1948	-15174	-1465	8499	132	121	1
-10228	-4684	11344	442	65	232	-15620	-464	-840	-2719	8362	1169	-16684	-4476	3996	-5031	2933	-2304	-32768	2008	-4888	-2524	-25893	20735	-19668	4876	-15296	-8899	-32768	-9512	-18536	-9920	6056	-22945	-1782	5842	127	126	1
-9992	-4808	11724	343	286	752	-15448	348	-56	-2554	9870	1505	-16664	-3152	6120	-7865	1982	-2737	-32768	-9644	-12508	11691	-13535	26190	-16408	896	-18064	429	-24695	-829	-13344	-17968	14492	-29077	-5025	-4358	127	102	1
-10104	-4024	12148	-166	875	613	-15836	2712	-1172	-2157	11539	1885	-15996	144	5376	-10536	788	-2812	-29956	-13932	-13484	18422	3000	31864	-13080	1056	-17356	5844	-12042	4124	-12956	-15308	21492	-18348	-7601	-1837	128	110	1
-9980	-4424	12384	-715	1878	260	-16676	1056	-1612	-1441	13237	2055	-15296	-1980	4008	-12041	-586	-2200	-32768	-5508	-13420	6934	14291	32767	-9852	8820	-14172	1346	164	5234	-13568	-5128	19900	-3955	-5254	1026	128	125	1
-10504	-4512	12236	-1328	3117	930	-17228	864	-4268	-114	13549	2564	-15472	-4364	784	-13725	-50	-1891	-32768	-2660	-7424	-15729	12765	19026	-16356	10020	-7720	-15254	5307	4331	-13732	3020	15288	-6695	-4417	3522	127	118	1
-10160	-4712	12372	-1316	3369	897	-17932	3272	-5828	-2627	14483	2511	-15660	-4616	-2796	-14316	885	-1062	-11636	3216	32056	-12156	20264	5788	-17260	7692	-14724	-19704	5492	4457	-3516	10296	4728	-14674	18821	13776	125	124	1
-10668	-6028	14188	-1759	8324	1596	-20640	3364	-6424	-5631	15153	2437	-19136	-4512	-3748	-13408	-417	-313	-2796	-4492	15360	-8350	28105	4513	-13616	-16588	1152	-25220	837	3062	-29320	-5408	-3592	-13097	8562	5818	123	129	1
-11168	-5568	14368	-1664	12730	3701	-21416	3020	-5204	-5898	14914	2438	-21716	-3104	-436	-13331	-2561	21	-25124	-6028	14912	-6493	25793	1447	-13916	-9432	-6336	-21980	5587	2532	-16392	-14300	2980	-22197	698	-80	122	117	1
-10508	-3592	14636	-3032	17106	3748	-19208	8076	-5496	-2982	13674	1303	-19484	1084	3208	-13390	-2664	1293	-13316	-5092	16740	-2531	20166	-2472	-17616	-13488	-6328	-14358	7342	5848	-15028	-17092	2628	-17833	2040	2733	122	118	1
-9184	-2968	14540	-5152	22393	2146	-19716	8512	-4772	-5481	14804	967	-20328	3116	4596	-13287	-4037	2362	-24312	96	16156	1430	17753	-5506	-18352	-9864	-6960	-2123	10833	7674	-16940	-9188	-1408	-3040	4332	2716	123	122	1
-8860	-4056	14028	-5883	28780	1261	-19968	8768	-3068	-8180	16488	285	-20364	4064	6332	-15257	-8408	4083	-32768	22180	16740	359	9969	-2645	-19756	-52	-5840	3064	10305	9263	-18516	-1144	-2984	3413	5436	3303	123	115	1
-8336	-4172	15000	-7624	32767	-199	-20560	11356	-1492	-10367	17376	-224	-20260	6508	10432	-15946	-13832	6801	-14000	6020	12916	-2817	2628	-4864	-20228	3232	-4912	-2283	8180	8010	-17884	11708	-4872	8942	8256	6574	121	126	1
-11280	-5008	14600	-13422	32767	-558	-23784	12860	1504	-19399	18513	-1173	-18684	8648	5700	-16855	-13819	10331	-13644	7760	9960	-4974	381	-5132	-16368	200	-4260	-8623	4777	5715	-17160	9600	-4420	-2720	7929	10205	119	140	1
-17764	-7020	8624	-17694	32767	5132	-19756	2204	1496	-24575	18877	-2107	-19008	4436	6640	-20522	-17810	8897	-12652	1180	13080	-4399	-1472	-4412	-15648	-7384	-3904	-7439	3812	4377	-16404	-1712	-616	-13781	6508	7596	127	133	1
-31468	-8004	1888	-26865	32767	3609	-16528	-988	-17756	-8691	23633	-432	-19556	3256	-10548	-32768	-12931	8573	-12240	2184	12652	-3446	-1040	-2178	-16864	-5460	-3172	5	5457	4920	-16680	-6372	1060	-5796	6185	5274	126	135	1
-30204	-8776	7432	-32768	28960	-219	-21404	6040	-12596	-8167	20967	1677	-26276	-572	-9616	-32768	-14974	4898	-11816	3388	11892	-2845	-913	-1518	-16648	-2444	-756	2244	6730	5246	-17588	-1536	2064	1143	5135	5287	122	143	1
-18940	-13032	5592	-32768	17611	1459	-13968	5624	-15548	-16183	21909	-2184	-24804	-1804	-7540	-14787	-18956	793	-10160	5904	11668	-3550	-1029	-2145	-16472	-48	-896	1285	6057	5128	-15948	7092	-1240	1441	6288	4163	119	124	1
-16796	-15468	7148	-32768	13235	2781	-13300	3452	-14252	-18641	21773	-3279	-21368	-1288	-3832	-11010	-18877	2410	-12536	2048	11760	-4566	-1670	-3449	-17060	68	-4148	-5551	3596	2901	-17028	6780	-2296	-10091	4539	3579	124	126	1
-2300	-10560	16124	-17867	-26409	15992	-6632	-6056	-744	-24611	9176	-11991	-20220	-564	-4572	-15181	-16434	567	-11772	2252	12576	-3884	-1742	-2708	-16416	-4272	-5264	-5547	2447	1586	-17276	1764	-2292	-17300	4767	3646	124	125	1
2916	-5576	14476	-18088	-32768	17380	-9824	208	4688	-21676	-33	-13090	-17316	-3472	-6544	-12956	-14157	-1565	-11256	-48	13252	-962	-26	-1033	-15948	-8508	-5224	-1699	2723	1671	-16316	-6048	-1936	-17292	5017	3507	127	128	1
2988	-4552	13844	-18926	-32768	17432	-7196	4140	3404	-18032	-6898	-14615	-15504	-3120	-6200	-4886	-12906	-1064	-11132	1368	12560	593	1152	324	-16196	-4772	-3324	2739	3465	2391	-15624	-7672	-12	-6516	6106	4143	118	128	1
-3572	-6388	11108	-21880	-32768	8406	-6940	6944	1096	-18225	-12090	-15513	-13332	-880	-5552	1030	-13142	-446	-10788	2108	12168	399	1264	329	-16520	-2960	-1564	1254	3291	2602	-15400	-4468	1380	4770	6564	4510	118	138	1
-6476	-9616	12896	-16269	-32768	-638	-9236	7248	-972	-19047	-16705	-16584	-13528	-452	-4200	3438	-13040	452	-10920	4140	12272	-142	1444	-58	-16532	-1512	-1736	156	3609	2252	-15924	360	940	8214	9263	3837	118	129	1
-7932	-6060	13968	-11377	-32768	-7318	-12384	7852	-132	-17214	-20598	-18057	-13120	-1432	-3668	6514	-12922	996	-11436	2512	11700	-365	988	-707	-15592	-4440	-3656	329	3754	2043	-15588	1756	-1720	6206	11042	4841	118	130	1
-8804	-2896	15368	-11157	-32768	-11124	-14036	8104	-488	-13755	-24838	-19710	-13332	-540	-4692	11312	-11386	236	-11156	2164	12432	55	1088	-289	-16360	-3200	-3464	2079	4532	2403	-16240	692	-1992	2791	10124	4136	122	131	1
-12892	-1728	17276	-12329	-32473	-11287	-15816	6836	-2192	-7065	-29771	-20640	-12536	704	-4896	10481	-10515	-265	-11516	2776	11768	208	1226	-396	-16356	-1864	-2700	972	4584	2112	-16784	312	-620	2311	9248	2823	126	132	1
-13024	-1620	17432	-12904	-32013	-10489	-18336	9560	-2856	-2015	-32768	-20156	-10548	536	-3348	3990	-8817	-697	-11396	3824	12036	-741	785	-877	-16444	-1708	-2120	-1243	3888	1712	-16508	1244	-1616	2169	10806	3824	125	133	1
-17980	-1164	19436	-13234	-28082	-10361	-18396	12860	-5100	-3853	-32768	-18595	-10212	820	-1204	-4406	-4677	-152	-11500	3256	11852	-1833	260	-1943	-16592	-2076	-2968	-4066	3019	1352	-16524	1584	-2464	1100	12807	4566	127	136	1
-22232	220	21652	-13354	-28153	-13688	-22236	14656	-5736	-8961	-32768	-17002	-10384	1404	1856	-9419	-1858	-1	-11724	2044	12016	-2553	-323	-2783	-16204	-2072	-3612	-6105	2608	1318	-16492	568	-2360	-2970	13668	5072	127	134	1
-22384	2720	20960	-13721	-23126	-16306	-27748	15284	-7668	-12104	-32768	-14801	-13680	-2272	8212	-3417	-4472	-1593	-11788	1720	12780	-2124	240	-2344	-16264	-2156	-3804	-6037	2648	1192	-16712	-1140	1120	-9524	12771	6755	126	132	1
-29608	5484	15176	-11091	-18140	-13365	-22352	8904	-10204	-10486	-31219	-11595	-16016	-5572	11824	829	-5015	-4711	-11588	2100	12436	-1743	1175	-2841	-16628	-3452	-2436	-4004	4528	524	-16692	-1748	3036	-14169	12278	6977	127	133	1
-32768	8872	7692	-5811	-19717	-6641	-16644	6824	-14292	-4547	-26971	-7806	-12112	-4236	14820	-552	-3757	-6926	-11540	2408	12820	-1835	2113	-3361	-16704	-3112	-1348	-3265	5880	586	-18208	-1680	1128	-7959	12267	4274	128	133	1
-31892	13160	-976	-4642	-20783	-6232	-13156	10316	-14504	-6558	-18513	-3469	-10908	648	17648	-1899	-4559	-6238	-11632	1884	13248	-2054	3687	-4398	-17024	-5344	-2284	-3146	7480	883	-19920	-3476	452	-361	10552	2161	122	134	1
-27412	11172	-8116	-4175	-15871	-6946	-10176	7816	-13940	-5790	-9494	-2085	-13392	5492	15936	-2583	-2489	-2949	-11420	-196	14152	-2682	5847	-3799	-17036	-4624	-2892	-3888	9333	341	-18000	-3756	288	1879	8759	1140	122	130	1
-25364	11780	-10408	-2791	-8774	-4658	-8852	7408	-13228	-2708	-808	-1590	-11904	7028	14104	-8124	-302	1185	-11764	1924	13604	-3565	7969	-4157	-17920	-2780	-2076	-5652	10433	-194	-17664	-3504	1116	-706	6794	1286	118	129	1
-25568	8160	-6220	6001	411	243	-14168	6184	-6880	-466	6109	651	-13036	1228	11744	-8238	-3984	3391	-12056	2408	13632	-4347	9872	-5064	-18136	-1752	-1440	-5358	12422	-552	-18508	-1852	2156	504	2784	1601	127	129	1
-10912	19212	9680	12097	1671	10555	-12544	5568	-1768	2355	10009	4440	-14536	-4440	8384	-4881	-2978	790	-11660	3704	13988	-5525	11958	-7165	-19452	-2736	-1716	-4832	14212	-765	-19372	464	4108	1830	608	1209	125	130	1
2948	-5768	26172	-3230	8351	10106	-27596	12008	20616	6973	3841	3882	-21904	1784	9648	1484	4150	1021	-12092	3940	14992	-7061	15551	-9208	-22108	-3048	-1248	-4664	15949	-1582	-20880	1744	3404	2698	-1298	41	118	131	1
-3872	5180	6560	-4621	18174	7559	-10064	18608	-2112	3026	9842	3709	-18872	12444	10244	5889	6818	8959	-11252	3300	15012	-8904	20432	-12614	-21260	-5984	-1252	-3956	17138	-1120	-20988	-1380	6300	726	-5424	-1926	117	131	1
-24268	-8344	16116	-7875	18623	5333	-23204	3280	-3140	-7778	14942	1993	-15076	7876	6732	-632	8746	8772	-8452	1804	16768	-11162	29505	-15610	-22496	-10892	-368	-531	18844	-1434	-20068	-5112	10060	-3784	-14368	-5168	122	132	1
-19984	-16440	12128	-5002	11896	3685	-24452	-2428	-6348	-4643	14181	1564	-20480	-9004	-1820	-18789	9437	3594	-11120	4844	16744	-14311	32767	-16899	-26240	-9396	7308	4795	21435	-3472	-19068	-5348	10076	1869	-14190	-9004	121	135	1
-9192	-1124	14680	5633	4018	3943	-17792	-972	-5408	5892	9257	679	-16416	-15988	-10032	-23499	15273	-2895	-20296	12660	12084	-18017	32767	-27781	-25788	768	6676	2603	22192	-1955	-19588	-5072	2768	7696	-12605	-11086	133	135	1
-12596	-8424	10768	3382	1863	2685	-14888	3976	-4304	3956	6429	1983	-14516	-16124	-11328	-21585	15901	-4461	-32768	-1436	6216	-14863	32767	-32561	-24616	3652	-12004	-4740	23292	-1	-18140	-920	2640	8945	-15907	-10314	130	132	1
-11720	-3736	12500	1729	211	2612	-16232	6716	-3048	219	5265	782	-17448	-2276	-3204	905	10733	1028	-32768	3628	9056	-13906	30880	-31801	-26168	2192	-9864	-11029	21753	-2140	-22936	3200	-5328	12950	-14303	-5200	134	134	1
-10588	-4384	12256	165	932	389	-17600	5932	-1840	-2870	5852	-525	-17652	-868	-900	462	11119	1936	-25708	10100	16480	-11472	21131	-29911	-20260	-252	-7516	-12871	16644	-146	-25848	-8	-10936	13127	-15755	566	130	136	1
-9524	-5740	11216	-346	1127	-232	-16284	1844	-788	-862	4696	-1105	-15880	-2740	452	3571	11456	851	-1620	13000	12740	-17977	17016	-25342	-14456	-1164	-6392	-11084	11109	693	-26004	-892	-7752	11174	-21255	2909	127	137	1
-9964	-5860	11080	-47	768	-175	-16444	1548	-1268	2850	2325	-1064	-15976	-2972	-452	4503	11030	1264	-22956	6780	14544	-8859	-8730	-848	-10156	228	-7360	-2426	8316	-392	-23580	332	-5412	9392	-24415	2851	131	134	1
-11008	-5192	11788	-216	359	-351	-16584	3376	-1724	2736	1516	-765	-16736	-2788	-368	4451	12198	835	-4776	9416	13056	-1649	-17679	11754	-11212	-2156	-20	2220	1575	-1799	-22992	2784	-4820	8383	-22236	4100	128	127	1
-9876	-5620	11372	-731	160	-1169	-16908	2928	-744	47	2415	-244	-16656	-2912	1600	3016	12780	-712	-656	10140	10988	-1686	-16432	12272	-7476	1124	48	421	-6495	-1005	-19540	2988	-6448	4207	-19134	3461	125	123	1
-9344	-6256	10852	-576	199	-910	-16244	788	28	-1699	3130	10	-15776	-2696	3444	1157	12913	-2411	-4784	7208	9380	-782	-18300	12104	-7516	2076	-188	-337	-7821	-642	-17900	3780	-7360	-424	-17922	3508	127	117	1
-8884	-6856	10568	264	350	-122	-16340	112	624	-790	2990	671	-14220	-1704	4428	-1751	13839	-3255	-7528	5072	10036	3157	-21636	12483	-8992	1732	-3000	-3711	-20613	-2122	-17800	3704	-7344	-1418	-17944	3515	130	117	1
-9164	-6412	10740	1225	504	573	-15560	1556	684	98	3128	925	-13584	532	5012	-1543	16654	-3707	-10916	3912	10288	8412	-26421	13872	-9272	500	-4328	-1202	-25682	-2699	-15668	3476	-6840	-8353	-18642	1668	126	125	1
-9004	-5944	10704	2215	576	1363	-15540	2880	336	-1201	4285	678	-16280	572	3552	-1259	16182	-2643	-12688	3448	9836	13129	-30877	17027	-10584	-292	-4704	1574	-30274	-3013	-13280	2964	-7404	-11190	-16732	684	126	123	1
-9076	-5968	10920	3184	1091	2202	-16060	1408	456	-2289	5547	250	-18408	-4096	572	-1252	12647	-2402	-15652	2548	10664	17100	-32768	21450	-10700	-292	-5092	3094	-32768	-3437	-11160	2348	-8172	-14547	-15256	-786	127	127	1
-10328	-4768	11676	2932	776	2350	-15724	1936	-424	-443	6118	758	-18448	-3624	-784	1167	8839	-2886	-13508	2524	9724	21028	-32768	25920	-13188	-2580	-3876	4390	-32768	-3352	-9540	2524	-8540	-15895	-13080	-697	128	124	1
-10140	-4652	11664	2053	490	1560	-15900	2696	-976	-442	7481	1175	-16576	-2400	464	341	7476	-2155	-12364	1568	10612	23799	-31318	28051	-17772	-3076	-6488	5330	-32768	-2310	-9820	2376	-7384	-17076	-11455	-550	129	124	1
-10144	-4884	11276	1479	355	1192	-15908	2312	-836	-896	8519	1271	-15304	-2456	688	-723	8888	-1935	-22128	2364	13896	22674	-24003	26498	-19544	-504	-8960	7020	-32768	-2645	-10216	-492	-5208	-14511	-10997	-654	128	124	1
-9800	-4932	11296	1180	260	1015	-15532	2264	-156	308	8568	1531	-15680	-2132	-236	469	9470	-1704	-32436	3860	18652	17979	-23929	25556	-26220	-1336	-12824	4284	-32768	-2395	-11520	-4888	-1648	-10626	-11600	-2083	128	124	1
-9372	-5336	11352	902	206	1165	-16196	2080	-212	861	8520	1547	-16116	-2444	512	541	8403	-1402	-32768	-4008	17528	15582	-27091	31020	-24872	-3824	-13332	6138	-32768	-3122	-10716	-3132	2124	-8751	-10582	-1309	127	125	1
-10000	-4872	11748	579	484	1103	-16420	1448	-1520	2551	8420	1915	-16924	-2952	1292	545	7367	-1760	-32768	-4368	11056	12679	-26802	32767	-24180	708	-15244	8859	-32768	-3733	-11288	-1800	8148	3987	-4470	4995	127	127	1
-10116	-5284	11464	282	670	987	-15888	2136	-1552	1035	9531	2777	-15972	-2592	2584	-1279	7017	-2606	-32768	-10736	4604	2124	-26903	31502	-24244	944	-16404	-328	-32768	-4554	-15428	776	12632	3462	-1272	7619	127	127	1
-10156	-4980	11744	32	1050	1470	-16148	1800	-1596	720	10801	3200	-16236	-1260	3248	-4065	6950	-2709	-32768	-19660	-5360	116	-20341	24867	-18964	624	-16796	-2323	-25853	-4135	-14996	192	15600	-7215	-426	8948	128	121	1
-9960	-4788	12340	-500	1813	1550	-16332	2356	-960	799	12423	3880	-17496	-924	3660	-6262	5394	-2596	-32768	-19040	-16828	-1927	-12346	13597	-12748	3480	-19556	-7624	-16528	-402	-13144	-3696	21248	-15472	-2694	5977	131	122	1
-9856	-5448	12780	-1009	3307	1824	-16952	1856	-2176	2323	13812	4389	-17648	-2208	2016	-8109	3166	-2293	-31084	-21088	-18676	-2459	-3669	7796	-10496	2128	-18944	-8214	-4135	3081	-12516	-11128	19220	-15029	-3225	581	131	120	1
-11016	-4572	13272	-1672	5781	2560	-18000	4612	-4452	2506	15106	4917	-17772	-3028	-848	-9292	1595	-1847	-30764	-24984	-20200	-19426	10030	-3119	-10432	1264	-17948	-16188	8510	3962	-13364	-10676	24636	-16920	-8896	-1357	128	127	1
-7552	-6472	16644	-981	10175	4446	-20964	5732	-2284	1550	17050	4730	-19532	-3372	-1188	-10262	678	-1073	-2972	9656	32767	-10295	21348	-6024	-28316	-23372	17472	-22152	6150	-2360	-7372	-2320	2500	-19606	24487	3877	127	121	1
-11164	-4912	15136	-785	15844	5272	-21980	5540	-3740	3500	17340	5718	-21880	-4040	1164	-9524	-1901	-499	-13712	-14448	5400	-7128	16578	-11791	-9724	-9284	-11108	-18849	8546	2501	-24744	-9080	-10716	3401	9013	2412	125	124	1
-10624	-7180	15480	-1069	22664	7823	-21612	7132	-3624	3958	17430	5820	-21732	-812	6372	-9689	-5496	1221	-32768	7320	18640	-5719	20702	-8373	-26300	-9716	-7176	-4912	12598	3381	-20828	-9360	2424	-5906	1498	-687	125	140	1
-6728	-6896	16492	-889	30857	11610	-24092	9228	-1172	591	18640	5464	-22000	1332	13156	-9426	-13015	2620	-31740	9256	20892	-7780	8963	-1064	-21280	-3028	-6808	2743	13617	6891	-20288	-5276	2772	3145	7401	988	126	129	1
-6248	-6376	17008	815	32767	15494	-27980	7772	4620	-4090	20509	6412	-20972	4312	11196	-10122	-14838	3569	-17476	-1420	15268	-3644	5304	-4142	-20080	3664	-6740	1060	11961	6601	-17820	11064	-6516	10696	14516	7350	124	132	1
-8944	-12296	14440	2313	32767	22236	-26752	5608	8680	-6129	22487	4430	-22892	5272	7668	-16214	-15344	6325	-15576	4168	12044	-3077	617	-3196	-17400	2084	-4552	-3092	8071	4172	-15536	9948	-6104	-652	13133	8911	121	135	1
-16192	-8436	13368	1769	32767	27999	-24816	6548	2880	-9081	22230	3033	-18092	3572	5244	-15571	-18900	6805	-12060	2528	12644	-1867	-203	-1700	-16496	-4668	-2776	-3818	6099	2957	-16596	560	-4268	-6789	10768	6221	128	136	1
-32768	-3128	3324	-5514	32767	24129	-16556	2928	-16784	-4309	23172	4014	-18136	2224	-4952	-23049	-16062	5354	-11888	1008	13200	-1335	61	-978	-16748	-4660	-2728	387	5619	3292	-16840	-1384	-2492	-4925	10401	4971	124	131	1
-32768	-7920	9724	-15672	32767	14998	-20140	8384	-17116	-2303	26552	7682	-23292	-1724	-9500	-28562	-16164	2577	-11976	2852	12100	-702	276	-112	-17096	-2632	-1788	5206	6120	4210	-16512	-968	-2020	-2450	10804	4941	127	130	1
-15440	-11760	18140	-17123	22429	12182	-17556	8392	-10432	-9903	22438	4346	-26804	-5196	-11028	-8078	-20380	-1591	-11356	3128	11904	-896	16	-154	-16556	-1704	-1032	4581	5153	4544	-15436	-2156	-1024	-3619	9708	2932	130	130	1
-13720	-30612	18168	-9021	-899	-243	-14240	-512	-1116	-15808	15490	90	-25104	-2512	-5380	2572	-23348	-908	-11552	1448	12560	-1021	-21	256	-17708	-788	-1476	928	3923	3717	-16908	1940	-324	-2983	8683	2055	120	130	1
2740	-18428	16184	-1302	-4807	-5296	-8404	-7440	3732	-8687	5445	-3877	-21016	-1768	-2624	-1245	-22643	-2333	-11652	3008	12024	-736	7	642	-17644	1008	-736	-1402	3246	2738	-18436	4720	356	-3756	8192	3747	122	130	1
3136	-10328	14804	2124	-8525	-6958	-8564	-5272	3172	1609	-6013	-5945	-16844	-6948	-5236	-7776	-19456	-4705	-11340	2724	12180	-247	150	758	-16588	-1080	32	-2292	2541	1649	-17256	1980	1292	-6897	7326	5701	126	127	1
-160	-9688	12684	2163	-12616	-8813	-8164	-3620	-88	8087	-14617	-6249	-15812	-8740	-7412	-2069	-16133	-5980	-10952	2936	12392	-109	258	384	-16424	-1980	-860	868	3183	1523	-15968	-1492	1124	-1683	9012	5796	117	127	1
-6596	-10240	12700	3599	-23206	-10564	-6640	-1848	-4796	10104	-22562	-6411	-14544	-7476	-7628	6614	-13455	-6036	-11356	2288	12380	601	387	357	-16628	-2332	-1136	4767	3876	1507	-14872	-1424	880	7437	9920	5551	122	128	1
-10348	-5640	13140	2661	-32768	-13059	-8224	1944	-5888	5352	-29800	-6976	-13956	-6260	-7092	13142	-12862	-5209	-11184	3144	12056	679	192	305	-16900	-972	-1032	6203	4074	1503	-15448	1616	56	11919	11876	6278	126	129	1
-9996	-2224	10836	-3699	-32768	-15222	-11260	3320	-3388	-1015	-32768	-6405	-13428	-5500	-6892	20525	-11671	-4436	-11112	3036	11956	515	111	179	-17172	-444	-928	3190	3182	1052	-15376	1024	-1016	11109	14214	6480	131	132	1
-10796	-3100	8740	-10407	-32768	-15779	-9564	5388	-2392	-4913	-32768	-7607	-11752	-2288	-7368	23486	-9437	-3722	-10744	3084	12364	152	-88	-100	-16280	-3880	-512	1800	3476	1434	-15392	-2320	-536	6332	13982	5399	127	134	1
-15896	-8492	10452	-11463	-32768	-15910	-12316	6388	-6552	-16724	-32768	-8744	-11128	108	-7760	23344	-8175	-2619	-11136	2188	12328	183	-53	485	-15768	-2884	8	5033	5474	2237	-14376	-3644	3240	5752	13820	4797	127	137	1
-20580	-11220	11392	-8319	-32768	-17205	-13736	6240	-6892	-18416	-32768	-9104	-10172	1208	-7472	16845	-7108	-2949	-10308	3708	11896	129	-361	202	-16320	-668	2204	5017	6836	2610	-16944	-1492	3932	2597	15518	7580	127	132	1
-20344	-8124	12076	-10925	-32768	-20154	-21848	5360	-3232	-22675	-32768	-15140	-9216	1148	-5632	8835	-4677	-3653	-10880	3480	12016	-331	-586	-673	-15024	-1384	2148	3492	8100	2764	-19756	1008	2128	-871	10816	7246	132	133	1
-21572	-9540	15640	-17876	-32768	-20724	-29036	6892	-7748	-15575	-32768	-18753	-11316	5848	320	6914	-6673	-2813	-11380	3256	12332	-546	-110	-999	-16316	-1292	964	1351	9306	2771	-17848	1424	1572	-2100	6003	4337	128	131	1
-32768	-19812	14500	-13536	-26152	-25531	-30036	9036	-11816	2573	-32768	-18431	-13868	7872	8852	8347	-9421	-1409	-11272	2936	12608	-699	377	-1204	-16976	-476	-876	-2268	8972	1784	-16164	1940	1232	-2921	6782	2728	127	130	1
-32768	-5804	12404	-6336	-20323	-32768	-24424	13504	-11944	3410	-32768	-16578	-15220	3872	14116	3786	-6457	-2207	-11604	2816	12180	-925	709	-1596	-16420	-404	-800	-3133	9653	1453	-16868	2280	1196	-4300	8216	3368	123	129	1
-32768	-5000	7200	-1381	-16099	-32768	-21576	4780	-14208	4098	-32768	-11857	-12868	-1752	11664	-1722	-2746	-6280	-10864	4536	12280	-1311	1053	-2611	-16684	1072	48	-3060	10536	1261	-16480	2004	1208	-4146	8261	3829	120	130	1
-32768	1220	540	12297	-17802	-26384	-19456	5340	-15324	11168	-28998	-8830	-14344	-484	18676	-3090	-5171	-9490	-11392	4552	12380	-2188	1263	-4113	-17056	1124	-1636	-4773	11017	804	-16548	1356	892	-2708	7165	4285	121	130	1
-32768	19416	-5104	9049	-14394	-10857	-14692	8676	-16164	7878	-18449	-5824	-12156	-6648	17952	655	-2878	-11282	-11668	1276	13096	-2418	2595	-4247	-16900	-684	-2636	-4134	12511	-153	-16500	1436	356	111	5563	4202	123	129	1
-30580	19004	-11636	1057	-7125	1587	-7040	7832	-17012	4583	-6673	-2677	-12336	-888	16160	5047	1341	-7162	-12232	3576	13424	-2471	4000	-5870	-18480	-880	-3376	-2567	14185	-690	-17084	1140	-1008	3539	4313	3404	127	130	1
-31848	13472	-10948	1179	-601	9945	-5440	8524	-18092	-1532	5813	-666	-13428	2812	16620	-1944	-4744	17	-9960	6324	15532	-4103	6303	-7072	-19928	-1876	-3440	-2192	14850	-432	-17980	772	-2456	6589	4137	3095	131	129	1
-30508	11540	-7440	3554	3078	13581	-10196	7932	-17312	-1924	15404	913	-14256	1696	10100	-3683	-6571	4020	-12000	920	14888	-4609	10049	-9321	-18816	-4740	-5576	-3099	15015	243	-20000	-1140	-2844	8150	3324	2240	133	128	1
1668	-12432	28828	15619	-4057	8717	-22704	6168	15308	-13649	18778	5108	-11844	460	8888	-6	-2107	1625	-11696	-660	15692	-5789	13882	-9085	-19832	-4432	-5132	-3594	15643	301	-18884	-1592	-200	8114	943	1492	131	129	1
19104	-19468	29168	7989	8604	14147	-22968	2336	26884	7824	5616	1082	-12564	-404	-4324	-3204	13222	1904	-10420	1452	16776	-6807	18909	-8988	-23096	-4184	-3556	-5434	16205	-428	-21080	-1048	3800	6597	-2893	1091	121	130	1
-7860	4948	6840	5594	22708	12178	-6432	12288	-6296	19831	3903	367	-22492	-1436	3988	2587	6919	3352	-9268	3544	16424	-7457	24059	-9569	-22608	-6448	-2180	-3802	17305	245	-21040	-2532	11928	1345	-9265	-1624	120	133	1
-18268	-6932	14132	-2872	23740	-94	-22288	9840	220	6767	9231	7255	-16924	-1560	9480	18652	4957	1422	-9284	4988	17720	-9194	31862	-11330	-25552	-8136	4532	627	20363	478	-19152	-5456	11260	1142	-10395	-5269	107	134	1
-26848	-1216	19160	-2867	16322	7328	-22472	8252	-7144	2227	11851	-1001	-20596	10564	7968	11836	12170	2913	-8748	6924	18628	-11905	32767	-16415	-29160	-12000	10812	4742	23234	1274	-20624	-11652	11772	4109	-12166	-9987	125	134	1
-17496	-15784	12880	-2542	10228	1225	-22876	4504	-6940	-2707	13472	758	-22364	2784	-3948	-14207	16488	1421	-15180	7536	17512	-15265	32767	-25239	-30204	-9680	9940	8001	24974	1987	-22396	-9596	11088	9455	-17001	-15482	127	132	1
-9708	-1696	14568	3545	4953	2981	-15848	1524	-2228	2391	9749	-929	-14420	-9060	-7324	-17839	16205	-5318	-32768	-5052	5428	-10354	32767	-29962	-23656	4216	-15000	3196	25841	2632	-19936	-488	5848	15980	-13620	-12723	135	135	1
-12512	-7848	11244	2762	3317	2364	-14764	3092	-3740	-241	8198	-667	-13588	-7996	-3472	-6370	12402	-1683	-32768	1704	5180	-10652	32767	-30308	-25656	3820	-13132	-2499	24763	805	-26032	6140	-8524	28449	-7546	-7583	125	135	1
-12300	-4748	12188	1068	1591	1225	-17636	4776	-3648	-1437	6472	-685	-21056	-3632	-1776	426	10335	1728	-30628	7644	18688	-1747	32767	-27142	-20176	1084	-5440	-7004	17033	512	-30860	2136	-14888	19825	-15397	982	134	136	1
-10812	-5292	11928	58	1425	-72	-17312	3904	-2292	-2443	5799	-1232	-15616	-2900	-2468	2454	13874	-1842	-6252	14420	16856	-3692	22196	-22477	-15316	548	-9168	-6018	11641	550	-28360	1684	-9432	7888	-27240	2702	130	134	1
-10364	-5532	11592	-639	1045	-910	-16492	2156	-1380	-935	4192	-1396	-15252	-4772	-316	4181	14197	620	-23892	8792	15756	-788	-8071	-4830	-8672	1448	-8444	668	6479	421	-23188	400	-2748	6320	-29288	-269	130	135	1
-10108	-6128	11408	-896	864	-1505	-16744	1900	-1276	454	2885	-1321	-15328	-4316	-740	5166	13764	2075	-6812	8780	13832	3593	-21349	5855	-8588	-1768	-1180	6885	-354	-1283	-23400	3544	-4144	8065	-22396	1345	126	123	1
-9936	-6112	11224	-864	726	-1832	-16780	2476	-996	313	2309	-902	-16296	-3532	300	4405	15520	25	1028	8916	9556	4273	-23371	8589	-6524	1628	-240	6300	-7219	-1851	-19636	5080	-8080	5902	-18281	2688	128	122	1
-9436	-6516	11060	-584	625	-1855	-16580	1900	-596	27	2115	-562	-15348	-1464	1504	2256	16754	-2720	-2092	7352	7564	3574	-22214	8833	-5072	3568	-1640	455	-15198	-2516	-17500	6932	-8752	318	-16506	2021	130	114	1
-8976	-6868	10484	103	796	-1439	-16152	1152	376	-1559	2753	-71	-14940	-392	4420	-1610	16974	-3590	-5700	6076	7408	4177	-24970	8881	-4832	2624	-2748	-1629	-21927	-3238	-13620	4044	-8720	-4739	-17832	1958	128	123	1
-8924	-7144	10236	1312	960	-376	-15720	200	1464	-2532	3682	307	-14496	-508	4820	-1940	16882	-3731	-8108	3912	7952	6976	-28085	10820	-6168	572	-3572	202	-27050	-3963	-12864	3528	-8096	-6503	-16586	1665	126	125	1
-8800	-7064	10044	2777	1254	818	-15348	36	1844	-1983	4597	450	-14612	568	6128	-1570	18379	-4073	-12128	3896	8592	10448	-31978	14261	-7884	528	-4684	3276	-31301	-4351	-11444	4324	-8624	-9505	-14583	578	124	127	1
-9056	-6648	10440	4104	1353	2106	-15160	544	1980	-1277	5946	789	-20484	-3448	3392	-2336	14409	-3449	-14892	3016	8812	13882	-32768	19074	-9756	148	-5032	5070	-32768	-4740	-9232	3680	-8932	-14566	-12487	-442	131	130	1
-9760	-5368	11592	4045	979	2713	-15968	1700	1120	-278	7543	1105	-20116	-3536	1248	-402	9686	-3995	-15900	3060	9336	17295	-32768	23990	-11420	-676	-4484	5079	-32768	-5014	-7292	3088	-9724	-20744	-10607	-1567	129	123	1
-10040	-4672	11744	2197	871	1753	-16196	3364	-376	76	9211	1466	-19828	-3256	1276	11	9227	-4038	-16984	2560	10176	21375	-32768	27854	-16668	-968	-4620	4794	-32768	-3987	-7520	3872	-10104	-22399	-9113	-1430	126	122	1
-9800	-5096	11668	915	1120	950	-16064	3568	-280	-1004	9948	1738	-14584	-1948	1048	-3642	10588	-2641	-20296	616	12584	24979	-32504	28696	-22876	-1908	-9600	6540	-32768	-3401	-11500	2584	-7620	-20155	-9292	-802	131	126	1
-9948	-5440	11220	390	1055	480	-16084	1680	68	-1520	10973	1768	-15992	-2556	764	-2448	10137	-1756	-32768	5392	14552	22664	-25605	26602	-25552	2228	-12200	5088	-32768	-3937	-13576	-2996	-6456	-20105	-9437	-712	130	124	1
-10084	-5420	11508	223	997	594	-15616	1364	-144	1465	10649	2113	-17168	-2732	1316	176	7993	-2286	-32768	-472	12888	15612	-28567	28028	-28500	-308	-17628	5325	-32768	-3335	-11568	-7528	4140	-3238	-8310	244	129	119	1
-9352	-6068	11456	93	1165	812	-16860	1320	-508	3713	10710	2556	-16304	-4348	1940	1220	7452	-2389	-32768	-7784	7488	11235	-32338	32767	-28228	2696	-18824	9043	-32768	-3392	-10924	-3140	11680	12367	-3786	3427	126	129	1
-9720	-5848	11500	211	1555	1465	-16456	1568	-2768	4057	11151	2955	-15248	-3420	644	-316	8468	-2290	-32768	-14296	-1772	8670	-30854	31651	-23732	1008	-17920	5454	-32768	-1971	-14324	-724	12684	2028	3977	9529	128	132	1
-10264	-5460	11892	-114	2305	1955	-16268	1836	-3424	1837	12377	3642	-15124	-1300	240	-3862	7159	-2424	-32768	-20672	-10832	9196	-22637	25213	-18900	3628	-17296	3870	-24299	1330	-19276	-4808	17056	244	-943	9549	126	123	1
-10356	-5856	11716	-705	3727	2582	-16348	2776	-2648	-68	13959	4143	-17240	-728	1028	-8537	4086	-2576	-32588	-25712	-18632	6516	-12031	12727	-12204	2488	-20284	-121	-13287	4664	-15528	-5600	23364	-4271	-593	8666	130	119	1
-10960	-4880	12604	-1321	6252	2069	-16720	3172	-2212	1077	15752	4398	-17400	-2276	1604	-10472	1606	-2046	-28136	-31740	-18100	7490	-1067	1896	-8096	672	-20176	19	1096	6137	-9980	-4688	20440	-811	-2066	5033	128	121	1
-10536	-5708	12652	-1283	6875	2025	-19800	3208	-2744	3555	17202	4559	-18404	-2896	-984	-11269	1151	-756	-19800	1992	-404	-6216	2937	539	-13128	684	-8836	-781	12466	5432	-12172	-924	13668	215	-1827	3027	125	132	1
-10732	-6792	14088	-1676	13816	5003	-20320	6444	-4808	3278	17228	4601	-20100	-3748	-328	-10509	40	-74	-1876	-5516	32767	-11617	2985	-12433	-28728	-25128	29388	-8772	7760	-3328	-11288	-212	3744	-16572	13443	3381	126	132	1
-11092	-5192	15212	-2479	20214	5430	-22052	7176	-4448	974	17873	5139	-21872	-3072	3816	-8365	-3183	421	-3580	-11132	4532	-13524	13079	-9677	-10000	-14364	-6916	-23640	4136	3289	-23528	-11544	724	-8071	15289	-3336	126	120	1
-8364	-7536	15720	-4054	27626	7875	-23524	8420	-476	-858	19285	5419	-21352	908	12024	-9076	-10164	2527	-18928	-8076	19612	-3447	26372	-2320	-19868	-11552	-2760	-12792	11084	-322	-17208	-9780	4132	-23655	4120	-8235	131	127	1
-5308	-7196	16864	-3181	32767	11503	-25776	7332	5728	-3591	21876	6444	-19084	4964	12736	-9770	-14335	2779	-25008	-4412	14852	-497	14812	-13108	-24752	-1508	-5900	-5310	13698	5061	-17100	-13648	9136	-14974	6541	-2448	125	116	1
-5856	-11116	16352	-3696	32767	17250	-27852	7652	10112	-5197	24219	5635	-22660	8080	14676	-12074	-15633	6741	-1948	10992	5344	-12285	937	-8186	-25632	18100	-7672	-9985	12097	8192	-20752	14376	-5316	16142	15618	2579	121	116	1
-9344	-11552	13404	-6422	32767	24588	-29844	5148	8256	-9167	24334	4597	-21616	4976	9284	-16318	-16893	7064	-16224	1376	9964	-4169	-76	-7168	-14868	752	-6280	-13318	8146	2811	-17208	15552	-10520	-6055	12443	12025	121	132	1
-32768	-9616	5256	-3098	32767	27216	-19580	1456	-11220	-2328	23594	5764	-20488	-3380	-9260	-32768	-13697	7803	-12392	-1992	14020	-4236	-1302	-5666	-16208	-6132	-5884	-5002	7630	2529	-16456	-6908	-5308	-9898	8889	8562	125	139	1
-32768	-3004	6696	-6069	32767	27208	-22332	2664	-18024	6151	25059	8345	-27612	-10116	-12568	-30424	-17354	1344	-11976	-644	14248	-1395	219	-1722	-18512	-8260	-4380	8108	9743	4369	-15544	-4992	-2476	3522	8560	4937	131	131	1
-29276	-9644	14908	-13103	31403	16778	-18788	8736	-15256	4294	20010	9480	-25332	-12724	-13044	1663	-22245	-4361	-11964	3468	11932	-7	713	-465	-17084	96	-720	12967	10033	5313	-17200	2236	440	7150	9442	5247	135	131	1
-21600	-14472	19828	-4658	969	16548	-13596	1220	-4420	-4982	13560	6396	-24708	-6004	-4008	11477	-23089	-1607	-11744	3612	11672	-450	277	-802	-18008	3900	-456	3510	7205	4178	-15752	4756	584	4239	9349	4007	116	139	1
-2184	-13584	18752	-5549	-15738	9784	-9700	-5560	-744	-11037	6814	-15	-23368	-2272	-1148	6124	-21227	-2928	-11352	3744	11764	-1141	130	-1070	-17996	2960	-1404	-8007	3873	1573	-17056	8004	-1572	-1924	9068	2537	116	129	1
-536	-12148	14068	-4029	-23913	3204	-7108	-4092	648	-8464	-2458	-994	-18696	-5656	-4636	-901	-17683	-5687	-11508	3044	11908	-1128	-256	-840	-16992	-2388	-1748	-7636	3266	930	-17028	4052	-1264	-8465	8437	3182	128	131	1
2180	-10656	9936	-3436	-26376	3436	-9460	-2400	2524	-4921	-11323	-2327	-16876	-6568	-6296	4455	-15164	-6014	-11296	2844	12124	-769	-338	-673	-15800	-3536	-1184	1195	4978	1421	-16312	-1264	-92	-6976	8420	4677	124	130	1
-2364	-10972	8196	-1621	-28449	850	-6160	-1968	-1752	1010	-18950	-3484	-15016	-5068	-6808	11855	-14111	-5128	-10884	828	11576	-546	-233	-709	-16220	-2124	164	8339	6818	1922	-15260	-2908	1436	2412	9323	5545	122	127	1
-6268	-9996	8396	-1263	-32768	-5544	-6732	1240	-3564	709	-25007	-4126	-14100	-3268	-6656	16673	-13714	-4382	-10544	3800	11548	-855	-392	-755	-16572	-1480	384	11343	7807	2763	-15384	-700	2040	10246	9782	5241	130	124	1
-6912	-10144	8260	-1518	-32768	-12925	-9884	2732	-3616	-3621	-30028	-5257	-13312	-4464	-5952	19034	-12937	-3642	-11292	2596	12344	-1236	-242	-1187	-17056	12	-1272	4888	6450	2280	-15208	-1672	196	11593	11366	5508	130	131	1
-9664	-8992	9656	-2737	-32768	-18946	-11820	3024	-4152	-6097	-32768	-6513	-12896	-4004	-6312	20608	-11070	-3976	-11276	1940	12548	-988	351	-471	-16824	-2356	-1552	-1014	5438	1621	-15088	-2652	268	12961	12712	5558	126	133	1
-15112	-8536	10144	-4215	-32768	-23511	-12316	2692	-5304	-6264	-32768	-7919	-11136	-732	-7592	23960	-8996	-3673	-10968	2880	12116	-360	592	-116	-16416	-2572	-460	1486	6731	2169	-15476	-1800	1872	8962	13498	6739	126	135	1
-17976	-9168	11204	-4834	-32768	-24225	-14628	2752	-5404	-7010	-32768	-10409	-10132	2372	-7848	22062	-8073	-3008	-11340	4300	11784	-353	793	-773	-16468	-612	-992	5772	7763	2804	-15728	2244	1152	-134	14484	9078	126	132	1
-18704	-9312	11984	-5502	-32768	-22912	-18760	3072	-5356	-6884	-32768	-12949	-9044	3376	-7448	11448	-6639	-2712	-11372	2932	12036	-604	633	-1137	-16904	-976	-2448	5013	7523	2934	-16736	4188	-3696	-461	14835	8413	123	129	1
-22100	-7844	15720	-9622	-32768	-23721	-23828	7328	-7720	-4435	-32768	-14025	-9252	2596	-4988	2350	-4418	-3443	-11360	1988	12344	-245	952	-694	-16656	-2072	-2292	2042	6852	2369	-17816	3716	-2272	1858	11632	4138	125	130	1
-30592	-10628	18324	-14091	-31892	-25539	-29480	9568	-10760	-6744	-32768	-15512	-11196	5248	192	1840	-4645	-2263	-11480	2632	12172	-186	1372	-543	-16272	-916	-868	-188	6888	1988	-17368	2420	808	-747	9373	2706	129	130	1
-32768	-8376	15684	-12680	-29384	-28433	-29232	8972	-16092	-3690	-32768	-15432	-13712	2300	6460	7045	-6078	-2389	-11508	3164	12420	-286	1996	-851	-17460	-80	-784	117	8017	1798	-17248	976	3228	-2374	8568	3260	125	129	1
-32768	-2000	8676	-8797	-27441	-27527	-24680	7000	-19340	-5242	-32768	-13476	-15948	-5168	9552	1563	-4038	-4821	-11448	2896	12512	-483	2513	-1472	-16992	-236	-312	721	9843	1396	-17836	316	4452	-1534	8592	4453	123	129	1
-32768	4088	-492	-6158	-24554	-22911	-21556	8152	-20500	-4032	-30616	-11621	-18220	2496	13640	2899	-1320	-7323	-12244	2416	12852	-867	3609	-2228	-17108	-20	-72	12	11871	1114	-18340	-948	4992	1643	7863	4858	123	128	1
-32768	9700	-9880	-4225	-18284	-16803	-17180	6292	-21776	-6077	-19484	-10360	-16660	368	20944	-726	-3573	-8557	-11684	2940	13864	-1131	5773	-2305	-18552	-1532	-744	-1042	13730	505	-18168	-2124	3468	5112	7109	4687	120	127	1
-32768	18568	-16796	-6382	-10289	-10209	-7816	7096	-21724	-3536	-7840	-7876	-11140	-2400	19848	-7650	1983	-4396	-12188	2752	14424	-1717	9467	-4535	-19944	-3068	-3328	-1975	14751	567	-18792	-712	-468	6239	6764	3362	122	127	1
-32576	19040	-17028	-8194	875	-5339	-8192	7172	-18824	-743	5321	-3417	-10940	-4364	16868	-4353	-2509	-1554	-11988	1928	14336	-2405	12770	-4404	-19096	-2980	-3876	-2049	16097	364	-18060	2980	-1500	7372	5131	1420	128	127	1
-29952	11776	-11580	1483	11839	582	-9268	6660	-17500	6003	14145	1103	-14132	-5904	12600	-1181	-4021	-1764	-11992	3260	14284	-2440	16837	-4601	-19032	-2748	-3816	-2192	16181	311	-17760	1672	-540	6929	3188	213	122	127	1
15136	-6160	28348	25786	12492	7457	-30220	7768	24408	-1219	11363	6342	-13616	-2376	172	-1646	5188	-1131	-10844	4036	15224	-3997	20246	-5474	-21288	-3376	-3728	-3629	16806	416	-19868	740	716	6488	580	-341	123	126	1
3436	3648	10812	11734	20614	6988	-15356	3544	9476	26790	2472	-1996	-19864	-608	2144	1494	9640	564	-9960	3236	14144	-3790	25303	-6490	-21152	-5856	-2380	-2044	17826	571	-20996	-2012	5892	5566	-4207	-1217	125	128	1
-22416	16136	17964	6020	22337	3275	-8956	16024	-2304	23960	6532	4723	-14368	-2776	10268	19685	3114	919	-9144	1284	15944	-3916	32767	-7336	-24060	-9008	3064	3757	20926	510	-17088	-8120	13424	-914	-13742	-4352	121	131	1
-20324	13640	19176	3905	22478	1688	-21320	18300	-1460	7985	12498	4213	-15564	10000	13388	24223	8368	1149	-11364	11160	15452	-4747	32767	-10822	-27360	-10372	11768	9377	24316	1347	-17848	-14688	11560	6045	-13453	-9495	123	134	1
-26504	-6456	12528	-3170	14955	14959	-21160	18624	-1496	6071	13205	2353	-20960	17592	7700	4017	8637	8172	-17352	9696	13492	-7697	32767	-23235	-29344	-3572	7336	9223	25798	3196	-20976	-9252	11708	11502	-16227	-13573	131	134	1
-32768	-28732	7944	9252	8626	7448	-25140	-8236	-10556	4022	16498	-1244	-21724	-10812	-584	-21155	8643	1893	-32768	-400	7500	-6320	32767	-29609	-26860	3480	-11672	377	26451	2488	-19676	2752	5784	20269	-12000	-9998	122	135	1
-13524	-2368	12252	6650	1565	8309	-14276	3116	-5504	12468	10501	2509	-15048	-14340	-7120	-10977	14015	-9641	-32768	6024	5864	-5811	32767	-28559	-27448	636	-11208	-6938	23643	-46	-29184	8492	-8124	25731	-6451	-4734	126	137	1
-13176	-948	13640	6468	-256	7260	-14572	5036	-7016	4527	10098	1014	-13980	-4936	-5940	-1277	10975	-3071	-32768	9260	16544	71	32767	-26450	-21916	-696	-8760	-10326	18829	1486	-31204	2596	-15448	18468	-12213	324	134	138	1
-11820	-2920	12852	3182	491	3654	-17852	8336	-4976	-2064	9386	568	-17524	-1056	-5720	1092	9549	8	-6556	13896	22572	4472	25306	-22509	-16732	-124	-7500	-7299	14615	802	-25960	-80	-10548	9189	-27028	-1488	130	138	1
-11160	-3852	11988	1961	343	1636	-17296	5200	-3544	-3018	8161	-487	-17244	-2148	-3392	3386	11872	-1166	-32768	7028	16448	5448	2589	-10588	-11956	-3212	-7968	2330	9376	1301	-23016	-660	-2596	6691	-29284	-2912	135	132	1
-10420	-4040	12056	939	376	594	-16864	3032	-2288	1249	5523	-786	-16072	-3612	-1724	5330	12995	152	-9020	11420	16756	7986	-22982	-337	-8092	972	-1264	9414	2877	732	-23276	1192	-2676	8344	-23536	-1484	129	125	1
-10168	-4372	11760	429	543	-113	-16640	3104	-2432	5079	3310	-976	-16328	-1964	-948	5411	13051	799	1748	11912	11796	7629	-27724	2477	-7292	1552	1208	10831	-4361	711	-20984	2232	-7408	7933	-17732	1160	131	123	1
-10336	-4828	11536	-182	566	-707	-16548	3636	-1664	4117	2729	-840	-16780	-1456	388	4067	14462	-951	316	10600	8460	5756	-24603	1352	-5828	2264	-52	4964	-13417	213	-17344	2692	-9056	4262	-16922	2259	126	121	1
-9636	-4892	11304	-596	694	-782	-15696	3524	-1228	549	3503	-579	-15592	-744	2068	1877	15350	-1881	-5444	8136	8324	3659	-25466	2121	-5780	2948	-2740	416	-20837	-1191	-15684	2144	-9016	-730	-17929	1853	126	120	1
-9508	-5100	11192	-492	656	-462	-15500	1896	-192	-4182	5376	-457	-14452	-1464	3944	-3119	14506	-1705	-8728	5184	9584	5875	-30871	4971	-7612	-276	-3864	1746	-26550	-1737	-13348	2092	-7808	-3470	-17241	757	126	121	1
-9600	-5508	10568	52	536	313	-16244	-420	376	-5102	6815	-322	-14252	-4128	5264	-4316	13484	-1847	-11072	1004	10024	13191	-32768	11363	-8312	-2300	-5064	6116	-30621	-2279	-13216	3624	-7736	-6349	-15688	197	125	127	1
-9760	-4992	11180	830	255	1037	-15672	668	820	409	6289	651	-15068	-2036	5784	-471	15070	-2785	-15260	2960	10224	19617	-32768	18579	-9696	-784	-5424	9777	-32768	-2282	-10232	3112	-8776	-11113	-14119	-398	127	127	1
-9908	-4332	11656	958	122	859	-15396	3112	-144	2245	7444	1218	-16912	-1848	6996	510	14729	-2526	-14452	3984	10496	20631	-32768	23005	-12300	-940	-3680	9468	-32768	-1797	-8616	3176	-8784	-15895	-12779	-1909	128	126	1
-9820	-4608	11416	794	506	510	-15964	2976	-860	694	9310	1433	-17476	-3940	1392	-1673	13030	-1866	-12224	1352	10328	23536	-32768	25704	-16348	-2636	-3604	5126	-32768	-1383	-7436	4344	-9616	-19476	-11405	-1399	127	120	1
-9828	-4620	11776	380	726	349	-16536	3144	-2364	292	9628	1641	-17720	-2044	-2304	-880	10822	-1529	-17124	556	13044	25680	-27814	26974	-19776	-2044	-9276	6028	-32768	-1700	-8548	1280	-7780	-18519	-9646	-1627	129	120	1
-10380	-4196	11776	74	905	333	-16592	3812	-3296	-65	9451	1752	-13776	-1904	-1240	-632	13032	-2129	-32768	6052	17600	21140	-26289	25489	-22656	980	-11360	4661	-32768	-2135	-9372	-4544	-5160	-9370	-8022	-2771	127	122	1
-10300	-4116	11844	-232	1159	217	-15828	3716	-2904	-548	8904	1661	-14108	-256	-1468	-2239	15342	-1229	-32768	-4920	20936	17656	-32768	23568	-28356	-6140	-15688	7441	-32768	-2275	-10808	-6096	2404	-4865	-11222	-2899	128	121	1
-10300	-4660	11968	-472	1392	263	-16064	2756	-2172	430	8881	1664	-16404	-1916	-1300	134	12625	-1763	-32768	-12260	16864	23914	-32768	30558	-26316	-3912	-16692	19695	-32768	-3058	-9892	192	8068	4814	-5700	1713	131	126	1
-10288	-4392	11884	-718	2226	390	-16376	2688	-2528	1534	9182	2064	-17016	-3552	372	2571	10345	-3391	-32768	-11880	9728	21185	-31732	28783	-24168	580	-16884	20503	-32768	-1716	-14372	2520	10384	14480	-189	8282	127	129	1
-10400	-5120	11856	-716	3219	761	-16620	2052	-3092	1528	10258	2662	-16280	-3252	1604	-1389	9844	-2835	-32768	-16472	-332	14451	-27389	22623	-23368	-780	-17084	13042	-29011	-545	-16056	-1292	13680	3514	1393	9417	128	129	1
-10488	-5000	12944	-722	5033	1163	-17552	2552	-2676	-368	11992	3340	-18716	-1184	3060	-5021	8132	-2481	-32768	-20204	-15512	7821	-17318	15278	-13464	1848	-20024	5794	-17816	3544	-15312	-3864	20588	-1288	1177	7222	131	121	1
-10280	-4684	13908	-1765	8430	1664	-18496	3820	-1704	-1040	14538	3989	-19812	-644	4108	-8877	5144	-2015	-31048	-29848	-20496	7605	-1937	9721	-9076	1084	-21688	-249	-5215	4300	-12536	-8744	24956	-2477	-971	1037	128	119	1
-10728	-5588	14488	-1259	11938	3963	-19208	4884	-1808	2248	15700	4269	-20236	-2764	3084	-10065	2971	-1094	-32416	-25752	-14948	1594	8417	7320	-8364	1428	-21584	-7821	8768	2718	-14224	-1924	19508	-2759	-4912	-43	127	110	1
