#Activity	walking 
#ActivityID	1 
#Date 10-07-18-03
acc_rf_x	acc_rf_y	acc_rf_z	gyro_rf_x	gyro_rf_y	gyro_rf_z	acc_rs_x	acc_rs_y	acc_rs_z	gyro_rs_x	gyro_rs_y	gyro_rs_z	acc_rt_x	acc_rt_y	acc_rt_z	gyro_rt_x	gyro_rt_y	gyro_rt_z	acc_lf_x	acc_lf_y	acc_lf_z	gyro_lf_x	gyro_lf_y	gyro_lf_z	acc_ls_x	acc_ls_y	acc_ls_z	gyro_ls_x	gyro_ls_y	gyro_ls_z	acc_lt_x	acc_lt_y	acc_lt_z	gyro_lt_x	gyro_lt_y	gyro_lt_z	EMG_r	EMG_l	act
-16628	-17216	2716	7382	3323	7999	-16020	-11716	-14196	24199	12568	4050	-13080	-6052	-17076	-24224	15537	-2101	-27748	20956	24440	4545	32767	-32768	-25292	2656	-5800	9647	27061	6293	-27832	6404	-6244	2334	-26171	5092	113	108	1
-10592	-10724	7132	5459	1398	5313	-14688	13640	-8732	19352	6208	7573	-12848	-20188	-10516	-8607	13818	-1903	-26268	-7688	27452	6915	31352	-32768	-27336	8072	-13860	5811	13342	6953	-31080	512	-6116	-9520	-27850	6560	156	132	1
-10880	-8576	9560	5591	726	4930	-15116	7900	-6812	-14058	10591	308	-19912	-2276	-4372	14073	6773	899	-32140	15392	32767	16318	-15486	-31888	-30196	13988	-14708	6490	4446	11816	-29972	-2984	-4440	-11733	-29166	3673	113	108	1
-10332	-8112	10508	2933	810	2925	-18428	244	-3516	-11054	11279	563	-17508	7144	-24	14727	6312	6858	-7412	11148	13024	25292	-26863	-22289	-11064	-4088	-10628	12212	2510	-313	-26532	-2472	-3676	-566	-27621	2505	134	121	1
-9800	-9396	8896	1544	995	1943	-17404	-3172	-3936	5488	6394	2949	-14812	7052	136	1	8064	7217	-6040	20636	5336	15733	-26868	-15614	-8544	1808	-12536	11825	-6975	-2294	-24440	-728	-4768	2916	-26990	2972	154	129	1
-9632	-9768	8296	1422	493	1446	-17940	568	-3796	11386	4095	5125	-14792	-48	-1076	-5493	11626	6098	-3568	15876	4620	-603	-26076	-2987	-8136	1900	-12728	10430	-8013	-2118	-23592	-584	-4760	3522	-26473	3348	156	131	1
-9396	-10584	7692	1760	-144	1738	-15824	4844	-2772	3	4907	4057	-16344	-3096	-1544	-5363	13036	3282	696	6724	5772	2487	-18730	13908	-5500	288	-13212	1213	-19157	-4196	-18228	2780	-5240	4270	-22637	6020	131	118	1
-9552	-9880	8248	1659	-409	2100	-14928	3100	-3444	-10361	7183	1616	-15960	-1792	-1776	-1128	12900	3095	-3172	5000	6832	12745	-9679	27303	-5432	-2244	-12620	-5739	-23167	-3856	-16820	-544	-5892	-2425	-21418	5826	120	111	1
-9868	-9024	8992	833	-95	1715	-16504	1088	-3168	-8247	7320	1363	-16564	972	-1276	65	12408	5981	-9832	4808	10556	12907	-10296	32657	-3504	-4324	-11920	-4425	-28830	-3741	-13708	-4696	-6992	-6372	-20026	3278	119	111	1
-9820	-9244	8496	188	2	1231	-16936	-20	-3408	-1821	5404	2297	-15860	3360	-2012	-4475	14647	5547	-11468	-2284	14472	12702	-16516	32473	-3096	-4636	-11600	1753	-32768	-2640	-11204	-4356	-5660	-6515	-18114	-1900	129	116	1
-9536	-9952	7960	407	-362	1414	-16068	152	-4312	2054	4178	3231	-14712	1204	-1240	-8919	19121	5129	-12256	-8956	16500	20910	-22200	27620	-4856	-1316	-11200	6517	-32768	-2552	-9904	-1836	-5280	-5680	-15732	-4763	129	116	1
-9540	-9968	8148	938	-835	1988	-16140	1648	-5076	1453	4091	2587	-14452	-1432	208	-7964	22892	5661	-13852	-7620	16676	27189	-27565	20789	-5052	-972	-11044	6720	-32768	-2592	-9176	-408	-6480	-5911	-12094	-5450	127	115	1
-9896	-9316	8444	1030	-1045	2306	-16684	3360	-4332	-1822	3845	2265	-16788	-1920	-3372	-4058	20951	5302	-14664	-5284	16300	26193	-31075	15425	-6524	-904	-12368	9602	-32768	-4007	-7416	1072	-7716	-6280	-8689	-5155	127	115	1
-9908	-9060	8904	391	-693	2265	-16336	3044	-2368	-3220	4187	1796	-16804	-2328	-9004	4179	13635	6297	-16080	-3476	17156	24538	-30486	15082	-8100	240	-13996	9537	-32768	-5823	-6828	1688	-8108	-3968	-4386	-3502	135	119	1
-10032	-8344	9288	-709	-49	1984	-16736	1556	-808	-798	4549	2457	-16548	-3388	-6392	9069	7660	8432	-21452	-748	18500	20986	-28605	20353	-11656	1756	-15008	6418	-32768	-8500	-6712	2428	-7040	-984	-913	-816	134	119	1
-9844	-8900	9148	-1331	673	1538	-15824	-800	52	3043	5679	4101	-16120	-2920	1376	11533	6525	9142	-28516	-2020	18448	15052	-26435	28301	-15300	5160	-16312	494	-32768	-11281	-7220	6700	-3188	3486	499	1434	130	117	1
-9620	-9832	8952	-637	1135	2280	-16688	-2076	152	6304	6937	4983	-17376	744	5224	13428	6232	6258	-32768	-8064	17560	9887	-25151	32767	-19268	8748	-15664	-7279	-32768	-13774	-9796	8296	2364	7815	1872	3633	123	113	1
-9660	-10756	8704	833	2556	3984	-17784	-1076	-8	6467	8882	6097	-19244	3344	5572	11180	6030	4129	-32768	-14568	11876	7163	-25787	32767	-22304	5372	-14692	-16735	-32768	-18148	-15152	5604	9572	7535	7259	5609	124	113	1
-9772	-10420	9808	1254	3538	5935	-18152	-500	-396	5183	11701	6971	-17980	4384	4336	409	6557	1831	-32768	-14936	10064	6345	-26002	32767	-19280	-1512	-12060	-14434	-27956	-15959	-19796	-44	19520	-4301	16638	7909	128	115	1
-9856	-9944	10800	1224	5922	7436	-18736	2436	-1024	2195	13799	8241	-18828	4260	2328	-8687	5290	2032	-32768	-32768	-17284	9176	-10816	12754	-12252	-3036	-5120	10006	-14618	-1111	-22396	7280	32767	-16818	9535	3961	124	111	1
-10288	-9240	11688	1448	8924	8453	-17836	1804	-1648	-899	15803	9629	-18004	612	856	-16560	3786	2504	-32768	-32768	-17080	20379	2662	-1784	-9392	11248	-4348	11980	6557	10296	-18140	-2608	26120	-13900	7251	-2558	154	130	1
-11112	-9512	11172	1573	12280	9894	-19064	716	-2020	-445	17160	10936	-18780	-4252	-1912	-16339	938	3128	2464	9536	14964	-10865	-1481	-27598	-16604	2868	3808	-2694	16804	10420	-14220	-7284	10380	-531	9360	-6527	147	125	1
-10424	-13844	10780	2455	14766	15348	-22132	296	-1136	-4262	18609	11429	-22144	-7536	2544	-12248	-4305	3277	7052	9244	-3592	-10939	4221	-27222	-30456	-2140	10320	-3530	5076	7520	-15296	-7416	3644	13791	14040	-2253	115	108	1
-11500	-17804	8968	3766	16934	21795	-24028	1372	5024	-10313	20873	11230	-18748	-5212	6132	-9163	-7512	2632	9736	10028	-3196	-14256	6499	-29330	-18740	-17848	776	-17771	-1823	3853	-28328	1952	17640	9426	-3788	2796	84	92	1
-14372	-17428	12064	5387	19146	31711	-23608	-272	3272	-10700	24311	12194	-21120	-728	20024	-4552	-11803	63	-21004	-9636	25224	-4648	20298	-8919	-20944	-8700	-3724	-6919	15271	9887	-25696	11524	10508	-14550	-8873	4710	108	104	1
-15776	-16332	15340	4186	25980	32767	-29212	-6996	-1064	-4956	24507	16521	-23516	-8784	-104	-2324	-8101	-1975	-32768	32767	29972	-11759	7584	-10580	-17748	7808	-1844	1886	18058	9907	-14836	-20588	-2724	-14430	13825	7752	117	108	1
-26120	-32768	13200	11827	19697	32767	-27940	-7460	-2192	-3118	24178	17031	-22692	-12332	-6024	458	-19276	-9704	-11184	-12756	21876	-10158	1868	-10554	-17764	12876	-7908	-7110	12807	9008	-8796	11480	-18484	32767	15112	2606	123	112	1
-30068	-26528	13924	12130	18266	32767	-27804	-5004	-6380	8240	18852	16811	-27292	-5612	-6008	18353	-25294	-11530	-12040	2124	15220	-2469	-259	-3146	-16136	-2088	-7944	-3201	11116	2348	-11032	27364	-10300	25442	-105	1142	124	112	1
11908	-30948	15260	29019	19589	32767	-22276	-1232	-8636	22554	11255	16853	-28652	2264	-8576	24344	-25106	-11441	-11124	1456	14304	-1790	-641	-2230	-17068	2036	-6668	3750	5879	4335	-23844	12152	-4712	-16519	12525	10399	121	112	1
-20560	-18736	22096	25339	6118	19901	-15548	11728	-27340	22624	7722	18100	-27108	6720	-4684	22155	-24168	-9476	-10436	2564	13540	-297	39	-903	-17552	2736	-4264	1032	7529	5480	-16316	-4716	-1364	-15691	13546	2194	123	112	1
-5960	-14580	11616	8777	-4394	-4998	-14072	11328	-9812	10750	2991	9345	-27060	5100	-4816	13632	-23788	-8888	-10256	3472	13044	413	585	-108	-17588	2688	-1996	-3543	6250	3777	-12868	-2452	1692	-2002	10991	-6655	131	115	1
-716	-14060	5320	11157	-5069	-9047	-9868	4740	-8768	-5076	-6407	8281	-24252	3260	-5864	5163	-21596	-10908	-10352	4164	12480	536	785	-105	-16164	348	352	-2647	5468	2494	-15336	3452	2872	4036	12121	-1811	138	120	1
-1796	-10116	4132	15410	-4506	-11320	-7936	1200	-9888	-1382	-10735	4361	-19180	2544	-6172	1355	-17661	-13618	-10180	4220	12588	154	474	-645	-14644	-812	1176	4007	4510	2539	-16320	6092	2716	2271	13259	3343	97	97	1
-3248	-8268	4828	14681	-6622	-16413	-6240	-604	-10700	4612	-18150	3178	-17380	452	-7648	-1052	-16035	-13948	-9948	4576	12360	-628	13	-1266	-15300	-204	600	9352	6165	3691	-16124	3376	2760	2756	13262	3817	116	108	1
-5156	-8736	5020	11389	-10646	-20736	-4936	52	-11356	10120	-24655	3078	-15360	-1384	-7740	1375	-13094	-13741	-10300	3396	12964	-1031	-197	-1553	-17548	3620	-1544	4478	6578	3524	-15456	-372	2468	7245	14450	3204	133	117	1
-8052	-9344	4620	8128	-16491	-24295	-5084	1656	-10572	11490	-29668	2114	-12844	-708	-7604	4663	-11004	-12741	-10140	3016	13064	-365	-8	-1010	-16888	424	-1648	-2644	4937	2311	-14000	-1452	2900	13656	15741	993	129	115	1
-10136	-9648	3924	5719	-22409	-27396	-3800	2284	-10756	11250	-32768	-621	-12544	508	-8512	11377	-10997	-9881	-10440	3752	12484	30	286	-905	-15168	-944	-636	916	4837	2006	-12660	3304	5128	15989	18156	-1291	127	115	1
-11924	-9760	3544	2861	-26743	-29930	-4192	3196	-9572	10401	-32768	-2832	-10560	1732	-7744	16976	-10624	-4536	-10464	2940	12708	80	469	-796	-14536	784	-372	5460	6561	3040	-17820	5820	1284	9081	17279	159	127	114	1
-14092	-10012	3444	-1003	-29184	-31812	-5756	5608	-9996	9403	-32768	-4714	-9256	5680	-7692	21140	-11339	-140	-10324	3760	12784	-94	214	-1296	-16312	84	-88	4943	7477	4210	-17252	8108	-3496	8446	12264	-325	121	112	1
-15152	-9564	4844	-6953	-29544	-32768	-6792	8232	-9600	3350	-32768	-8140	-7476	8380	-7292	22968	-9304	4531	-10460	3836	12628	98	563	-1343	-16756	2176	-560	1185	7172	3558	-16308	8032	-892	3305	8411	-424	123	113	1
-16584	-10492	7316	-13374	-27925	-32768	-8556	9084	-10752	-4003	-32768	-12339	-7240	8724	-7480	22871	-8860	5259	-10416	3972	12528	41	633	-1684	-15804	992	-1708	524	7469	3481	-15788	3368	1660	813	8666	1243	125	115	1
-20704	-12824	11928	-18935	-25475	-32768	-12144	8304	-13176	-10803	-32768	-16496	-6308	11644	-7564	13314	-1651	8727	-10640	4284	12624	-288	659	-2584	-16876	1188	-2296	2214	7463	4311	-15116	-384	920	1525	9937	1553	124	113	1
-32056	-16492	15180	-22345	-25515	-32768	-17516	6924	-14292	-13336	-32768	-20509	-6576	11504	-4920	5963	1034	8199	-10864	3956	13036	835	1016	-3370	-16532	-116	-1992	2747	7856	5058	-18424	1260	44	735	8648	650	115	108	1
-32768	-7972	17700	-25248	-24401	-32768	-20728	5632	-16776	-13512	-32768	-21322	-9168	3304	-1944	4954	3117	5087	-10812	3764	12972	2074	2819	-4249	-17424	-288	-1144	3706	8410	5207	-17944	2940	2188	1541	8062	848	133	118	1
-32768	2344	16416	-29894	-19903	-32768	-23176	5976	-16132	-18994	-32768	-15082	-16464	-3116	3988	2328	3152	-37	-9696	1748	14696	-212	6203	-3762	-17160	-2756	-288	2930	10567	5219	-16648	3316	5996	2634	6929	1284	134	120	1
-32768	6136	6924	-22498	-15319	-32768	-21668	2948	-14424	-19678	-28842	-12753	-24832	-1848	21264	-8905	-1771	-7740	-10364	1736	14296	-346	9800	-2809	-17240	-900	-128	1535	13832	5319	-16892	644	6604	7455	5433	235	119	110	1
-32768	24584	-8104	-5130	-13059	-21603	-11808	48	-13080	-7980	-12461	-10648	-28092	-5336	32767	-16501	6583	-9003	-10796	3864	13888	-1164	13815	-3025	-17716	884	556	1288	16080	6403	-16208	2080	5324	9184	5407	-2332	117	110	1
-32768	32767	-12084	-13379	-9301	-879	-6732	-3948	-7372	-6674	9663	-1029	-21692	-5232	24972	-20536	9338	-4002	-11476	4620	14020	-1945	18087	-4320	-18032	124	372	1685	18420	6631	-17760	6976	2924	9968	5712	-1669	127	118	1
-13280	-9840	18476	24467	-5628	12214	-9720	-412	-14504	5593	23355	7134	-13840	-7076	6716	-12717	10485	-5072	-11720	4712	13536	-2738	23119	-7180	-19364	-2480	232	6787	20382	7935	-18748	3460	4428	11634	4130	-1405	134	116	1
13184	-31716	3716	9188	-2332	18587	-32768	13500	24716	-5804	5635	1050	-6688	-516	-9092	-20499	18814	-3439	-12228	5060	14484	-4244	30188	-10492	-23204	-4244	628	11237	23130	8930	-20968	816	9456	10021	2508	-895	119	112	1
-4760	-6356	15784	13809	22802	32767	-17768	5668	4656	3023	4957	-4051	-22216	4572	1168	-1584	9031	8175	-13304	8592	15324	-7523	32767	-16506	-23908	-5584	3488	13214	24458	10056	-23692	-2496	20464	14581	-15855	-3055	156	129	1
-12720	3260	20388	-1722	20514	14189	-16820	9304	-4216	5216	15402	8328	-31312	-8760	3092	29240	-13234	3308	-17052	9360	17004	-11956	32767	-23666	-24532	-2852	3084	10126	26723	10865	-17936	-4908	10668	10567	-10118	-5756	113	112	1
-14560	-9920	9780	-7371	13231	15953	-22084	7920	-6588	-478	15210	4360	-15844	8172	6012	10744	3215	2863	-32080	10744	24828	-9060	32767	-27532	-25420	660	-880	8881	28866	10684	-24056	8620	1184	21717	-15767	-3994	123	113	1
-6752	-11136	12736	5567	7608	8175	-22544	-15076	-10776	-7442	17676	643	-10492	3676	-13352	-10861	19854	6972	-26740	868	18848	-3690	32767	-28866	-29604	1676	-6872	7810	29051	9248	-25284	15688	924	9782	-20301	877	87	93	1
-11596	-14996	3844	7332	2937	5827	-15808	-5532	-8744	26766	9480	6163	-12248	-5560	-16764	-15041	21016	-1988	-20724	14892	22824	-5464	32767	-31898	-28156	2592	-7468	5671	23914	4677	-29632	8792	-6176	-5918	-25817	3728	131	118	1
-11476	-10280	8108	6852	414	5159	-15080	11660	-7552	9752	6672	4389	-12668	-9752	-7176	4431	9180	-6310	-16768	-13080	20100	-3902	32767	-32768	-29156	7408	-10584	53	7407	3686	-29148	2100	-6016	-15424	-26569	3787	156	131	1
-10500	-8356	10276	5583	-174	4035	-15492	6872	-5404	-9918	9996	-499	-19632	532	-3664	6064	8837	569	-32768	15812	32767	-149	-5397	-27946	-10564	13288	-22968	1978	13707	-1872	-26660	-3820	-3584	-14476	-26964	1831	119	113	1
-9980	-7760	10792	2391	162	1594	-18456	-184	-4072	-7160	9657	232	-18132	6880	-288	-436	10579	5573	-8312	8036	18588	12261	-27374	-16361	-11444	-7528	-8032	4104	7085	-3843	-25512	-1976	-1436	-1029	-27197	2415	117	110	1
-9308	-9656	8904	807	561	550	-18108	-3988	-2376	5840	6086	3169	-14884	1828	-904	-3253	12411	6452	-848	11264	6284	13513	-23524	-9531	-9716	12	-11652	7651	-5457	-8434	-24436	1628	-2664	3160	-24680	4955	158	132	1
-8992	-10636	7812	1075	231	851	-16756	-928	-2160	11410	3495	4237	-13580	-4344	-1116	-5783	13616	5203	-2616	14296	5756	682	-21466	-1391	-6908	2024	-12184	2477	-13321	-6380	-20788	1432	-4136	1776	-24752	5513	149	127	1
-8976	-10600	7836	1979	-337	1718	-15452	4244	-1456	-2053	6535	3140	-15444	-5644	-1144	-2245	11720	4388	-2228	7988	8452	-3253	-18972	11842	-4848	-336	-12028	-30	-18943	-9117	-16148	1300	-4668	96	-20540	5034	131	118	1
-9048	-10012	8236	2304	-456	2337	-15252	2672	-1824	-13207	8669	577	-17952	-1364	-2176	634	10849	3920	-4700	3896	10460	4098	-16230	24118	-5292	-544	-11744	-4720	-21713	-10959	-14664	2048	-4316	-2961	-17880	4335	133	118	1
-9216	-9624	8796	2212	-425	2463	-17756	-3604	-2048	-9546	7873	1254	-16708	2264	-1180	-3503	11559	3666	-7892	3212	10872	7336	-16297	29993	-5068	-3216	-10192	-2832	-25825	-11724	-14320	-268	-4964	-9522	-16771	2727	127	116	1
-9316	-9608	8720	1807	-396	2457	-17204	-3840	-1968	5538	4947	3803	-14312	1616	-148	-6926	13626	3076	-9860	-792	12836	9107	-18485	30270	-5384	-1300	-10508	-1286	-30695	-10850	-11816	-1940	-5676	-12181	-14368	-1215	129	116	1
-9292	-9808	8552	1748	-472	2659	-15668	2976	-3692	7385	4877	4041	-14092	48	856	-7488	15429	3513	-13716	-2596	14964	13979	-22658	28210	-5672	-900	-10968	618	-32768	-9951	-9476	-1808	-6444	-13337	-12296	-6375	128	116	1
-9384	-9236	8980	1738	-473	2788	-15140	4576	-3620	-226	6228	2750	-16316	168	-4132	-1390	13895	3261	-16336	-2736	16004	18874	-28339	25269	-6156	312	-10952	3407	-32768	-10950	-8292	-2068	-7444	-14578	-9150	-7612	131	117	1
-9284	-9232	8996	1699	-447	2763	-16800	2576	-2976	-3077	7293	1372	-16208	-2232	-7648	1954	11293	3987	-18868	-776	16768	20336	-32768	22735	-7444	1924	-12112	4291	-32768	-12921	-7140	-544	-8308	-13431	-5323	-7501	128	116	1
-9936	-8592	9480	324	260	2840	-17268	976	-2612	851	6703	1962	-15552	-2008	-6132	2303	8062	4935	-23228	1696	17716	19149	-32768	23763	-9836	3004	-13716	3637	-32768	-14452	-7144	596	-8556	-10368	-2173	-6532	130	117	1
-9676	-9008	9184	-258	531	2657	-16232	820	-2336	4794	6479	3189	-14356	36	-1724	5394	8373	6126	-28824	-64	17796	17552	-32768	28499	-13268	4560	-13388	3285	-32768	-17459	-7540	1312	-8608	-9181	1088	-3667	133	118	1
-9564	-9304	9200	-296	548	3395	-16196	164	-1696	5366	7323	3138	-16580	368	740	7784	7892	5239	-32768	-2416	15716	14302	-32768	32767	-19452	7812	-15768	-832	-32768	-19453	-9608	5980	-2972	-4102	2300	-260	129	116	1
-9588	-9116	9376	-231	693	4156	-16428	-56	-324	3560	9720	3687	-17756	-480	1940	7777	6232	3603	-32768	-10464	10100	9891	-32768	32767	-22212	7872	-14968	-3126	-32768	-20874	-13564	10284	7516	3382	958	4868	119	110	1
-8944	-8612	11668	1288	2060	5197	-17016	-1276	68	2727	11879	4803	-17236	-424	3744	2821	5568	2078	-32768	-13288	-2420	4514	-31189	31855	-22520	8044	-12244	-6472	-31634	-20846	-19212	604	19064	1936	3420	8226	124	112	1
-10012	-9604	11144	1407	5087	6001	-19128	384	-800	1105	13990	6804	-18796	3044	3960	-4842	5784	1314	-32768	-20408	-23124	2622	-26633	16965	-17544	-332	-12616	-3382	-21220	-9367	-26552	-7276	27608	-6658	14272	10214	119	110	1
-10364	-10360	11016	2004	7391	7743	-18896	-640	-380	-1116	15633	7563	-19752	-244	3408	-12894	3340	2118	-32768	-32768	-26592	21496	-6924	5116	-6204	4652	-4592	14018	-1704	2744	-18116	-612	32767	-4015	3567	-277	132	117	1
-11224	-9648	11396	3293	9606	10637	-18556	-2472	-968	-2405	18474	9449	-18644	-5308	596	-15821	1966	1911	-32768	-13756	-25856	-7027	13801	-7622	-11576	13652	-11188	5896	15624	12067	-12516	-8292	20080	3123	2144	-8009	111	106	1
-10748	-13688	11676	3579	11661	13424	-21764	988	-412	-4805	20744	10315	-21664	-8408	-8	-17192	-1277	1284	-10156	28732	32767	-1178	8447	-13914	-26732	-18496	15260	1531	11626	5499	-16448	-2168	5384	14134	6364	466	166	135	1
-11072	-15236	13184	4675	15150	20664	-25120	2984	1620	-10643	22568	9568	-21172	-5200	4936	-8966	-6630	1183	-13900	22708	12396	-11449	27383	-19211	-24748	-5048	564	-23049	2749	10811	-19296	-816	14104	19861	668	3747	126	116	1
-12352	-14740	11116	4222	19360	30426	-25796	1412	1800	-10686	24103	9956	-20488	1960	10732	-4916	-9429	937	-15888	-9400	22916	-4015	21672	-7526	-14700	-7800	-6372	-8338	11427	9053	-20200	1920	13020	15975	654	4121	114	107	1
-13380	-17756	14420	3404	25632	32767	-28844	-308	300	-8053	25549	10543	-22504	4264	7996	294	-10509	-295	-17852	3064	15292	1951	16040	-10032	-18928	-1836	-8436	-755	16406	8212	-17452	-7324	-6232	-24103	8438	7301	120	111	1
-32768	-29160	14316	5856	26830	32767	-25832	-4456	-8332	-5912	25381	11725	-21252	-8356	-2132	-11030	-19169	-6819	-13484	5168	19720	-11074	5369	-8774	-20424	17576	-7312	-3062	14531	12981	-12240	272	-8232	14417	10627	939	120	110	1
-19480	-28928	14316	9607	22730	32767	-30260	-716	-9016	-6895	22391	11096	-26068	-6380	-5144	2250	-22006	-11794	-13432	5656	11948	-5156	329	-4210	-16324	3192	-5864	-9409	11680	3593	-14744	14376	-9800	24058	5805	-437	122	112	1
-6464	-30584	13432	15882	20128	32767	-23388	-228	-5924	2916	13780	11874	-29692	2476	-8300	11533	-24145	-12095	-12536	2760	13652	-3617	-696	-3336	-15904	328	-4984	-917	6782	3141	-16124	19536	116	-3673	10170	10767	112	106	1
-27892	-20860	23808	13402	2959	32767	-16644	7816	-21180	10398	7789	9058	-25672	7296	-5496	14555	-23504	-9546	-10752	3472	13668	-1589	-457	-1959	-16740	-148	-4128	248	7540	4491	-20368	1148	960	-18738	11259	6360	116	109	1
-6772	-14584	12980	-7149	-13189	8382	-15592	13976	-8468	-1491	6974	3689	-26144	6404	-3136	9462	-24127	-8277	-10124	4428	12928	-724	124	-1093	-16360	252	-2188	-314	9107	5276	-14320	-6300	4032	-8419	11675	-3354	147	123	1
620	-19192	3104	-1687	-11585	-2057	-8724	8736	-6128	-12077	-1215	648	-22624	7468	-4140	2673	-20767	-9909	-10024	4904	12468	-819	172	-1310	-16752	296	-1112	-2244	7994	4053	-13268	316	3660	1227	11540	-4486	137	121	1
2804	-10156	3160	7747	-2782	-9910	-7336	5520	-6384	-8304	-4897	-4140	-19176	7544	-4112	-3764	-19255	-10503	-9876	5232	12104	-1515	-642	-2294	-15428	1144	-108	-2116	6209	2880	-14376	6200	2924	521	13042	931	140	118	1
-216	-6736	5548	2598	2517	-20730	-5704	4852	-7008	981	-11074	-4861	-16252	6388	-4308	-8345	-17866	-11555	-9864	5428	11768	-2787	-1540	-3375	-14928	1816	112	-627	6404	2945	-15188	6192	2992	-1055	13016	2846	127	114	1
-3928	-8464	7840	-259	315	-26496	-4472	4372	-6824	7515	-18075	-6781	-13544	5848	-3936	-8265	-16410	-11107	-10112	5008	12148	-3900	-2677	-4168	-16296	1956	-2100	-3054	6834	2718	-15520	2992	2020	-1674	13510	4067	150	127	1
-5920	-5292	9528	-2422	-6731	-28673	-4944	6476	-7532	11554	-22500	-10543	-12692	5772	-3876	-8531	-13961	-10057	-10740	2808	13224	-3198	-2533	-3071	-15620	-1932	-3960	-6550	6340	2544	-15944	1836	2184	-1787	13384	4041	125	115	1
-7084	-2836	11312	-9673	-14025	-29434	-5732	7220	-7580	11117	-27439	-13843	-13564	3576	-5048	-7487	-11850	-6396	-10100	3208	13308	-1949	-1422	-1970	-15676	-1832	-3360	-4301	6468	2426	-14964	-1600	2512	3812	14746	1301	123	113	1
-8472	-3348	12728	-17001	-20506	-29656	-6380	8360	-7884	8341	-31896	-15731	-11896	1832	-5596	-1933	-9273	-3096	-9968	4448	12912	-1497	-1230	-2213	-16196	1292	-3064	-1958	6824	2956	-15124	3856	920	7309	17425	-281	113	107	1
-10232	-4408	14156	-21362	-24632	-29176	-7620	10296	-7988	3249	-32768	-16876	-9976	1596	-6724	5421	-7552	198	-10288	3752	13116	-1181	-1128	-2708	-16300	1656	-4780	-1553	6686	3821	-16608	6640	-1788	6659	20271	-338	117	109	1
-12564	-5520	15752	-24505	-27286	-29083	-7944	10840	-8672	-7111	-32768	-17553	-7652	3440	-7964	9738	-5750	1770	-10232	3104	13420	-884	-630	-2748	-17500	1840	-6208	-1541	5560	3210	-16512	5012	-5340	3023	19399	-399	115	108	1
-14812	-8184	17288	-24876	-27922	-30456	-9104	9076	-9428	-11758	-32768	-19356	-5448	5932	-9420	11487	-2216	2547	-9900	3608	13552	-727	817	-2474	-16248	-12	-6084	-274	4482	2612	-16924	2448	-4964	-1249	17425	-300	124	113	1
-18300	-10028	19620	-24072	-26121	-32768	-12980	8752	-12060	-12279	-32768	-20857	-4496	8192	-9628	8374	1585	3983	-10112	3140	13520	-222	1519	-3090	-15952	-1232	-4480	3327	4551	3554	-16372	-608	-2308	-2110	14502	104	124	112	1
-27952	-12820	22020	-23830	-24188	-32768	-18472	8468	-12244	-14131	-32768	-21700	-6468	7028	-6260	188	2746	4731	-10252	3328	12956	453	2538	-3452	-15576	-372	-1600	5179	5403	4001	-16576	880	2868	-1577	12626	-23	124	112	1
-32768	-5928	23884	-23871	-21348	-32768	-23212	6680	-16080	-14601	-32768	-22306	-12120	-948	-2520	-3421	1467	2347	-8928	2732	14628	-668	4303	-3563	-16792	-1776	1364	3115	7451	4239	-19344	4168	8292	-2214	10882	1475	103	102	1
-32768	3868	17800	-26296	-19773	-32768	-25572	3184	-15420	-15292	-32768	-15607	-21372	-5896	9224	-3504	-3617	-4305	-9708	2968	14240	-1332	6045	-3839	-17264	-896	2516	433	10571	3791	-17988	1688	10088	1918	6297	1108	108	105	1
-32768	17488	4664	-18224	-14576	-32768	-19180	2308	-11692	-3784	-26032	-11468	-26400	-11068	28208	-3617	1157	-4811	-10468	4188	14820	-2807	9378	-4692	-17520	-1868	608	12	13812	4378	-18412	-2288	6524	4218	6093	-105	142	121	1
-32768	32767	-5204	-11556	-4397	-13658	-5032	3616	-8652	-13049	-4511	-5966	-24616	-10712	32767	-1522	6497	1120	-10660	3344	14876	-4553	12957	-6345	-18652	128	-736	-676	15963	4375	-17912	3384	2752	8054	5065	-2165	112	106	1
-32768	32767	-5148	-4327	-5146	11329	-4892	-2544	-10808	-6143	17627	2367	-17720	-3444	19724	-1205	2174	1794	-10836	3464	14720	-5872	17406	-7514	-19048	-716	-1448	-278	18107	4510	-18380	8564	32	9559	4281	-2193	117	105	1
2700	-15360	32116	16022	-5615	25504	-25968	3096	22252	-18818	23680	3898	-13808	592	2068	-7963	4075	2551	-12084	4204	15392	-7668	21939	-9941	-21200	200	-432	2469	20042	5224	-20224	6796	4056	6393	3799	-1387	113	105	1
7192	-8064	4076	17361	9472	32767	-29716	-2012	4204	-3789	9902	-3168	-17188	12728	-1292	-25221	10373	6326	-13180	7252	14356	-9898	26259	-13683	-23200	-3956	2328	4317	21656	6193	-20240	5460	8304	6735	1582	-1696	132	115	1
-22448	-1468	17088	2719	23218	13366	-14932	13308	-4524	9145	8641	7345	-22160	-912	11480	10178	-451	3357	-12756	5788	15472	-13898	30960	-20199	-23084	-3448	3380	4269	23588	7381	-21244	-3488	16236	2532	-12931	-2867	133	120	1
-17156	-3760	18224	-1381	14748	17963	-20884	5168	-5348	634	18892	8768	-20956	-1540	892	25521	-1551	-4309	-18956	6360	17900	-17003	32767	-26653	-24020	-2800	1736	3736	25541	7737	-20500	-2240	11556	3350	-9714	-5409	104	99	1
-5172	-11504	9344	7392	8515	7152	-22480	-10532	-10660	-634	18999	2101	-13992	5968	-6512	-3328	13983	-4511	-26552	3412	23436	-15398	32767	-29173	-24384	1484	-1088	4583	27685	7240	-21140	9000	2416	14016	-14022	-2753	117	107	1
-13332	-10392	5112	6379	2494	5665	-14952	-4000	-11400	27123	10149	7204	-11484	-2156	-18896	-25564	22436	-351	-28556	3440	24964	-19109	32767	-32721	-26008	4044	-5028	818	25787	7157	-22028	11064	-2704	4124	-18069	260	90	94	1
-12896	-9152	9536	5857	224	4306	-14932	10888	-10044	11498	6879	5841	-12572	-15588	-10444	-6545	12152	-666	-8612	14040	18536	-19961	32767	-31375	-23804	-596	-4220	-3082	21328	246	-25332	8568	-4484	-8556	-22084	2884	148	127	1
-9752	-9148	9380	3840	-131	2103	-15592	8312	-6544	-10579	10690	1512	-19428	-3476	-5956	11363	7567	39	-32140	-3336	27504	-32379	32767	-32768	-17604	-264	-4984	-2554	-11185	5805	-25936	3292	-5852	-15842	-23390	4500	98	100	1
-9632	-8464	9744	1912	206	910	-17512	1044	-4708	-14887	10085	54	-17780	8308	-2240	11599	9723	6166	-32768	6964	32767	-14580	-7255	-16121	-11908	16824	-18504	-678	11459	-5596	-24856	-920	-2872	-15212	-24768	2126	123	112	1
-9664	-9088	9316	476	608	222	-17852	-6872	-3024	4731	6186	1875	-15376	6620	-1540	-618	10610	7348	-8508	5940	20436	11325	-23487	-14	-12520	-3512	-7900	-1576	13325	-9952	-25656	3516	-1988	-7487	-24344	4137	146	125	1
-9548	-9176	9092	389	653	184	-17748	-320	-3796	11739	3195	2444	-14512	-360	-2568	-9621	14483	4836	-7024	10824	11524	9502	-25865	3122	-11072	2188	-9920	2368	279	-14309	-24972	2868	-3608	-4852	-24710	5541	156	131	1
-9372	-10144	8040	916	55	656	-15512	5464	-4744	-3926	4383	2936	-17332	-7024	-2144	-7891	14564	3687	-7988	11280	9552	-718	-31248	5184	-10216	5140	-11116	640	-11889	-12164	-20844	1784	-4548	-5028	-24413	5404	144	125	1
-9384	-10084	8420	1001	-99	982	-14868	2584	-4300	-17494	6954	232	-16036	-3316	-3212	-5501	15333	2105	-4136	5224	7964	-1928	-32115	8853	-7436	1716	-10628	-906	-18133	-13943	-18892	3744	-5388	-6152	-20702	5477	127	115	1
-9592	-9324	8788	787	6	908	-18236	-3436	-2924	-14327	6144	74	-17144	48	-4272	-7523	14953	4001	-5828	2304	8776	10050	-27715	14056	-7928	2792	-11196	-1447	-21847	-14673	-16972	3916	-5780	-9605	-17525	5355	121	112	1
-9580	-9192	8808	297	350	750	-17848	-3960	-3060	-580	2932	2304	-15376	-456	-2132	-10220	16747	5083	-11264	5544	9116	17544	-27332	17437	-6940	2068	-10208	802	-25822	-13810	-14496	2732	-7092	-14570	-16465	5046	130	117	1
-9580	-9408	8600	70	418	644	-16692	1024	-3156	2051	2153	3429	-14916	-2596	-116	-10623	16385	6215	-13344	5816	9080	17531	-29722	17891	-7032	2656	-10224	1092	-31705	-12578	-11548	-52	-7856	-16036	-14283	1722	120	112	1
-9476	-9512	8360	260	84	925	-15016	2944	-1928	-5770	3741	2664	-16996	-2668	-1720	-6998	15164	5442	-15024	3316	9792	20432	-29908	19084	-7160	2676	-10304	924	-32760	-12330	-9820	-1708	-7564	-16008	-11776	-1634	121	111	1
-9512	-9484	8632	225	3	1195	-15808	-800	872	-8747	6282	1703	-17928	-2436	-4232	349	9569	4526	-17316	4364	10184	23257	-28196	21885	-7676	1896	-11360	-561	-32768	-13128	-9532	-1772	-7800	-15755	-11282	-2338	133	118	1
-9472	-9292	8688	161	224	1145	-16800	-3756	1368	-2305	6970	3066	-17672	-3688	-776	3183	4916	4762	-20664	5124	12796	22076	-26351	25476	-9548	1428	-13272	2649	-32768	-12181	-7812	-3372	-8736	-13971	-4257	-4458	141	123	1
-8996	-10280	8200	114	281	1561	-16372	-1872	-492	3280	7366	4848	-15784	-3144	2020	2245	5732	4517	-26184	3264	16704	22702	-24689	29595	-12568	2532	-13744	4144	-32768	-10394	-7788	-4604	-8372	-9955	-1358	-5613	135	120	1
-9268	-10116	8364	276	-116	2964	-16436	1048	-2720	3022	8597	4590	-15688	2196	1264	-2303	7996	3292	-32768	2300	18288	22663	-24366	32767	-17320	4328	-15044	1684	-32768	-9089	-9496	-4884	-5536	-8235	-711	-5084	125	114	1
-9408	-10208	8500	116	-723	4420	-16600	484	-1540	1070	9478	4401	-15672	4092	-728	-2824	7199	2746	-32624	-11080	18388	23278	-21925	32767	-18576	5284	-14396	4405	-32768	-8359	-10364	3164	596	-2977	-1493	-2115	119	111	1
-9388	-10720	8700	-1101	-1520	6494	-16920	-2604	-1384	2582	10233	4506	-16304	1172	-1032	-320	6107	2299	-32768	-24296	19744	27402	-17959	32767	-19696	6736	-13020	4281	-32768	-11051	-13480	8428	10924	7649	-3109	3333	121	111	1
-9856	-9028	9640	982	532	7505	-16404	40	-2284	4244	11374	5700	-16560	-4292	104	-2362	7571	2350	-32768	-24164	10964	14213	-23043	23531	-21460	8940	-13336	-668	-28779	-12320	-19184	2400	24848	12833	-5659	9797	112	105	1
-10564	-8668	11108	2122	5162	7516	-18376	3528	-1676	1187	13304	7849	-19892	-1740	-2204	-11507	3036	1746	-32768	-32768	-16420	2753	-22089	7287	-11532	-3908	-8236	2408	-16767	-4302	-19844	1588	25956	11354	-3758	11833	118	109	1
-10044	-9756	11600	1141	7795	8117	-18744	476	-1036	409	14843	7937	-18584	96	80	-7488	2700	4552	-32768	-32768	-23596	16583	-3614	-6598	-6848	9008	-7700	6734	2965	8198	-17060	-1080	25880	9322	4613	5398	142	123	1
-10852	-8712	12052	1660	10587	10043	-19516	292	-2828	1021	16276	9308	-18884	140	2376	-5576	1433	3636	-32768	-26308	-10324	1240	8527	-7568	-10292	7756	-15232	-6840	18322	10352	-9720	-5964	14064	8761	2329	-5586	147	126	1
-10408	-10772	12076	536	13599	11918	-20436	3760	-1584	-1697	17851	10435	-20620	-572	4028	-11545	-1619	2535	-32768	-24232	-8892	-3103	9054	-7287	-28492	-25924	10548	690	12877	8612	-10216	956	-1432	8155	8085	-1181	118	111	1
-11084	-13928	12256	1360	17857	18362	-25012	2656	2528	-11610	21068	9768	-21716	-1232	7632	-8218	-4881	1664	-9820	10100	12300	-12367	19495	-16869	-24816	-6956	-416	-13822	2847	4871	-19060	2296	-2632	13328	9935	4474	113	107	1
-12040	-16984	11792	2423	21759	27372	-26140	1384	6200	-13996	23585	9212	-21896	-1708	10756	-9922	-8786	2134	-19596	-7992	23012	-6863	21061	-8495	-15736	-580	-2960	-3947	8785	9181	-31544	9852	14008	-5870	-9298	-4011	106	103	1
-11836	-18028	15584	2384	27358	32767	-29132	-4452	2368	-9211	24950	11819	-21696	-1632	7620	-4478	-8864	865	-12440	-1212	17432	1506	17911	-9503	-18436	-5064	-4952	-2003	16600	7535	-18732	-9932	944	-21970	7347	2280	106	103	1
-30328	-23876	13112	2775	30287	32767	-30144	-5512	848	-7334	24900	12729	-21052	-14080	-4668	-12558	-17705	-4825	-32768	32767	18956	-6466	12658	-4254	-15776	8376	-1580	774	14700	8256	-9492	-8456	-4912	5324	17670	1590	132	117	1
-23008	-26744	14444	10306	21495	32767	-29188	-4160	-7336	-3302	23766	13591	-22104	-8144	-2548	7808	-22070	-9424	-11472	-8416	20852	-7864	2115	-7273	-18772	9732	-6080	-3562	10439	7523	-13472	15712	-10800	30467	5334	-3198	125	112	1
-11016	-32096	15864	15318	20215	32767	-26016	-4988	-4832	11957	15817	16266	-27840	-4916	-10448	16393	-23964	-13794	-11908	-704	16336	-4144	-61	-4112	-15280	3408	-6308	-3213	10887	3636	-15444	22136	-2368	5541	11329	11495	119	110	1
-32768	-24472	19072	27997	11302	32767	-17008	4536	-24284	21293	8133	14683	-28396	3712	-6140	19178	-24567	-11829	-10444	3924	13184	-2179	-1270	-2469	-16840	1156	-5016	-2026	6444	3660	-19840	1988	-1712	-12135	13346	9553	123	112	1
-29708	-28084	24128	23336	3260	32584	-15916	8196	-8888	12199	3818	11454	-27940	3288	-4368	15566	-24867	-8782	-10228	2840	13784	-1090	-526	-1390	-16816	-1328	-3424	-2981	7937	4591	-17160	-8252	2680	-3305	10748	-2686	136	118	1
768	-16548	6092	5630	-13449	-3314	-10368	8164	-6948	688	-4022	8719	-26512	2472	-6376	8209	-25028	-9077	-10504	4024	12948	-582	-77	-1102	-15040	216	-1308	-1040	8094	4862	-14020	1688	3312	4913	12345	-3604	137	121	1
832	-12724	4080	10575	-10392	-7507	-7124	5376	-9216	-6101	-9164	3243	-22392	3916	-6112	2069	-20517	-10019	-10368	4508	12408	-1155	-598	-1465	-16000	2868	64	-512	7323	4042	-14472	7600	2672	4342	12873	966	124	111	1
-1160	-8892	4412	9179	-9386	-15372	-6056	2948	-9228	-4549	-14999	696	-17764	2640	-5820	-1381	-16888	-10092	-10204	4828	12208	-1840	-1333	-2288	-15076	1868	836	1345	7333	3244	-14532	8256	2356	541	10709	1390	126	114	1
-3404	-9328	4816	4854	-10907	-21971	-5064	940	-9836	-2503	-21640	-864	-14276	1720	-6372	-1419	-13823	-10401	-9880	4500	12364	-2855	-1903	-3041	-15736	1192	-476	2212	8059	3197	-15300	5028	2920	-3805	9916	1320	122	112	1
-6560	-8784	5900	1790	-15083	-25769	-5012	1340	-10192	3482	-27445	-2515	-12836	1164	-6460	1322	-11485	-8237	-10148	3416	12956	-2937	-1880	-2809	-16484	540	-2920	-1418	7723	2951	-16856	-960	3264	-4187	10738	2287	131	117	1
-8960	-7596	6624	-2234	-20183	-28359	-4972	2052	-8828	6153	-31701	-5311	-11776	1352	-6832	4686	-9700	-6494	-10000	3328	13044	-1916	-1077	-2256	-16056	-972	-3328	-3562	7101	2978	-15112	-4444	3048	4220	12736	2225	119	110	1
-10312	-7736	7200	-6806	-24597	-29640	-5912	2680	-9368	7692	-32768	-7802	-10416	1020	-6708	9736	-7600	-3451	-9852	3356	13084	-1225	-687	-2035	-15268	-968	-3016	-1073	7475	3333	-13080	-1032	2480	13861	15550	628	125	113	1
-12884	-8660	7632	-10753	-27723	-29792	-6844	5016	-8800	7923	-32768	-9436	-10248	1244	-6712	10879	-7502	-2901	-10320	3348	13080	-984	-565	-2188	-16076	1892	-3548	1187	7907	4475	-16216	5488	-452	18262	18477	-688	121	111	1
-15208	-9868	8348	-14246	-29320	-30072	-7848	8224	-8456	3862	-32768	-11121	-7016	6836	-8232	17932	-5326	2966	-9932	3360	13332	-864	-595	-2595	-16920	496	-4692	1546	7447	4434	-17520	6592	-3916	12353	18687	-328	120	111	1
-16916	-11416	10340	-17738	-27991	-31509	-9596	10600	-10392	-2741	-32768	-14373	-5508	9332	-8744	16097	-3084	6364	-10000	4068	13656	-1018	603	-3109	-17860	936	-4564	2452	6286	4779	-16156	1944	-4200	3865	15174	-612	117	109	1
-20524	-13668	15032	-21819	-23941	-32768	-15300	10048	-12520	-10623	-32768	-18376	-6512	11632	-7952	11311	-762	9008	-10640	3140	13880	-1305	1293	-4254	-16156	1300	-4172	3122	5883	5146	-16500	204	760	3231	13728	-56	113	107	1
-32500	-18420	19652	-24130	-20615	-32768	-21960	8560	-13932	-15479	-32768	-21229	-9900	10176	-3940	4177	-886	9011	-10860	2664	13200	920	2066	-5636	-16180	672	-3836	6011	6737	5382	-15776	3068	1420	3888	10985	393	114	107	1
-32768	-7156	22884	-24668	-16647	-32768	-24512	3524	-14252	-17196	-32768	-21691	-15072	1244	364	1502	-2572	3937	-9800	2332	14444	-705	5436	-5332	-17384	-1844	-2832	5498	7842	5819	-18416	7052	1112	559	9831	376	146	126	1
-32768	3812	16164	-26574	-15346	-32768	-24600	5060	-15072	-18387	-32768	-13936	-22848	-4748	9684	136	-4494	-1936	-9716	1392	15464	-1557	8412	-4373	-17492	-84	-1152	1868	10113	4403	-17064	4236	6708	213	8187	1487	121	113	1
-32768	11900	1848	-17329	-11242	-32768	-17944	1272	-12464	-7686	-25570	-10949	-23516	-8696	27744	-4336	1311	-9682	-10436	3348	14800	-3279	12821	-4129	-19332	-1584	-228	1718	12618	5083	-17236	3012	7272	183	7858	1338	145	127	1
-32768	32767	-12852	-11341	-5502	-20402	-4016	1980	-9092	-15808	-4321	-7408	-23152	-3192	32767	-10576	5765	-4703	-10908	2712	14716	-4580	17230	-5324	-18892	172	1112	2252	15680	5498	-18480	3960	5448	6493	5917	-2442	130	116	1
-32768	31436	-13140	-9468	-290	-486	-6300	-6064	-10600	-6947	17462	1536	-16372	-2152	18264	-17591	4818	841	-11372	3608	14300	-5213	22025	-7281	-20312	-1368	1796	4343	18766	6226	-19492	5060	6884	10954	4657	-1774	112	108	1
13340	-22848	13740	17977	5433	21223	-23216	5908	2588	2304	22864	6304	-13056	-5264	-1576	-13141	8874	-2008	-11692	4904	15584	-6883	27574	-10510	-21864	-4036	2092	9003	21979	7936	-20660	3060	10540	13184	2518	-2630	126	112	1
8976	-9048	3900	16138	16573	21553	-32768	-1896	9488	-306	12340	219	-14012	576	800	-13086	15007	-3557	-12796	7656	15292	-9329	32767	-15968	-25068	-7276	5256	12351	24400	9726	-21796	1004	14984	17837	-4893	-2639	146	127	1
-19844	848	19476	9692	28330	20502	-15968	8720	1076	24693	7829	4489	-19460	56	-10376	18093	6959	3500	-16104	7108	15408	-14271	32767	-24653	-23896	-5456	4768	12578	26801	10804	-16920	-10364	12608	7025	-11101	-5590	133	120	1
-20528	972	23220	-5302	17185	16614	-17828	15756	-6056	19111	14839	12482	-25396	3624	6504	29448	-11483	3637	-23448	6060	20272	-13867	32767	-30152	-26732	1356	1400	9458	28875	13101	-23236	3528	6872	21378	-16355	-6500	111	105	1
-8264	-18948	1360	4220	8828	5477	-26116	464	-12496	-10242	21205	-202	-16528	8208	-3268	10130	9766	2059	-32656	14520	25424	-12576	32767	-32768	-28868	8764	-3520	6932	29784	10976	-23600	15324	-1560	19836	-19908	208	109	103	1
-14512	-13820	4040	5491	3512	5953	-14460	-9576	-12488	11254	14944	1097	-13280	-36	-21416	-19151	25763	1258	-22060	18132	25376	-11761	32767	-32768	-27124	4340	-5864	4134	23144	6592	-30152	12480	-7276	1163	-24895	5971	104	104	1
-11352	-10656	7788	4264	1486	3679	-16332	6808	-9860	14054	6170	6412	-8160	-8472	-8572	-7448	12855	-4886	-32768	-14504	30736	-15292	32767	-32768	-26968	8820	-7660	144	-2484	9200	-30556	2712	-6588	-15487	-27457	6832	156	130	1
-9408	-10340	8548	4289	528	3418	-15584	5944	-6196	-6553	8441	1469	-18284	-6624	-6172	-674	10169	482	-32768	12124	32767	5836	-12236	-28620	-13108	9748	-15176	1127	13119	-3770	-28332	-3128	-2996	-17028	-27845	4483	129	114	1
-9812	-8588	10124	2955	406	2521	-17568	2104	-3576	-9852	9878	-299	-20876	4804	-1728	5027	10100	3754	-7104	11888	14532	18860	-22436	-15339	-11840	-5060	-10208	6860	2118	-3560	-27192	-1572	-2460	-3349	-27024	4117	99	100	1
-9512	-9644	8856	1157	922	1448	-18368	-2012	-2552	943	6939	872	-15972	4140	264	688	11611	8001	-3612	19432	6476	9042	-20663	-3011	-10760	-3652	-11280	7339	1203	-3987	-24616	120	-3796	795	-26438	4853	138	121	1
-9264	-10256	8180	1228	802	1346	-16612	164	-3244	5443	4264	3812	-13752	-1340	-1300	-5982	14201	6179	-3016	14980	5264	-1917	-17575	14707	-6880	964	-12204	6016	-13827	-5959	-20548	1964	-4648	1985	-25190	5404	163	134	1
-9004	-11320	7252	1729	212	1790	-16704	432	-3056	4996	4019	3863	-14864	-5552	-1916	-5440	13689	5656	-3216	6700	8544	496	-14267	29674	-5444	5136	-11520	-2607	-17336	-7292	-16252	3328	-5536	850	-21069	6660	149	127	1
-9160	-10736	7700	2543	-205	2825	-15576	1072	-2412	-9667	6143	1389	-16844	-3484	-2288	-718	14258	4924	-6972	3300	11060	4514	-15260	32767	-4996	3836	-10768	-11088	-23111	-10487	-15016	1456	-5812	-3748	-17758	8032	124	114	1
-9684	-9180	8572	2200	-573	2781	-16804	-992	-2296	-5843	5790	1453	-16992	668	-2732	-1296	14997	4809	-8368	-1444	12848	9011	-19550	32478	-5464	196	-10252	-13235	-30071	-11043	-13220	296	-6704	-7512	-16644	6676	131	118	1
-9540	-9660	8376	1658	-955	2409	-17128	-1324	-2356	1723	4318	3193	-14812	1352	-716	-2857	16396	4393	-10404	-3912	14216	15271	-25155	25324	-5060	-2636	-11080	-9425	-32768	-9546	-11244	-2624	-7576	-10594	-13663	3011	136	120	1
-9668	-9236	8572	1542	-951	2382	-15928	2148	-2564	3861	4073	3659	-14400	1140	32	-4794	16531	4959	-10960	-4112	14356	16494	-26225	24020	-3888	-3836	-11216	-689	-32768	-10138	-10496	-2980	-7604	-11157	-13045	2008	129	116	1
-9660	-8908	8980	1086	-830	2044	-14596	5044	-1924	-1287	5454	2950	-16128	1652	-3020	-2152	12811	4896	-13192	-3108	15184	27236	-31463	14970	-5100	-3504	-12076	9037	-32768	-10563	-7308	-3848	-8668	-11551	-8160	-5173	123	113	1
-9328	-9332	9036	533	-385	1866	-16236	2128	-200	-3104	7235	2043	-16968	380	-3884	305	8391	5070	-15504	-1796	17732	28547	-30227	16008	-7768	-780	-13892	15221	-32768	-10349	-6488	-2608	-9480	-9494	-4226	-6277	127	115	1
-9208	-9872	8596	281	-189	2377	-17536	-1896	-1320	475	7379	2392	-15808	-1076	-808	2400	8017	4935	-22180	792	22304	27161	-29238	20641	-13348	1684	-15852	14109	-32768	-10356	-6932	-1476	-8896	-5619	-438	-5930	129	116	1
-9356	-10780	8264	-74	-403	3414	-17320	-1052	-1300	6712	6765	3752	-15996	200	-328	3162	8717	3947	-30336	-3352	25116	24257	-28249	28190	-18416	5072	-14748	11141	-32768	-12225	-9164	1348	-6144	-3356	1834	-3487	127	114	1
-9808	-10012	8524	-1139	-966	5169	-16980	244	-1740	5544	8027	3927	-17536	-272	204	4203	7926	3575	-32768	-12968	23416	20329	-29122	32524	-21596	10768	-15536	2668	-32768	-13745	-12764	10972	-712	894	317	2846	125	114	1
-9524	-9192	10140	-684	30	5605	-16224	1200	-160	1419	10403	4667	-17880	-2736	1260	3368	6288	3129	-32768	-22180	16960	15997	-31541	31324	-25844	8856	-15016	-10313	-32768	-19320	-19080	9972	13268	5890	-3053	10806	123	112	1
-8584	-9256	12036	1322	3538	6093	-18332	-1116	528	1036	12919	6676	-18648	-1188	2404	-550	5575	2314	-32768	-26128	-6432	8343	-32116	21206	-19740	-2584	-15676	-11508	-28988	-18024	-22024	-2068	27244	-1162	10637	14669	119	110	1
-9368	-10592	10712	613	6177	7112	-20336	-200	980	2404	13964	8318	-19332	3844	4588	-8164	3375	1649	-32768	-32768	-26268	18502	-14675	5946	-6272	-1388	-4712	13753	-10429	-5099	-21796	916	32767	-6563	5684	4968	117	109	1
-9984	-11540	11492	1348	9093	9452	-18492	-968	8	1758	16551	9953	-18740	356	3972	-8623	1575	2739	-32768	-32768	-22444	18872	3265	-9705	-9504	14448	-9224	12695	9934	11453	-14560	-5408	24912	-229	3543	-10284	107	103	1
-12072	-9140	11732	1883	13107	12152	-20088	2268	-2612	1014	18470	10986	-20544	-5412	-12	-12821	-509	2598	-21700	28908	32767	-22419	-1759	-22988	-12204	216	4888	-280	22613	12063	-13888	-2280	3244	7695	6571	-4924	159	133	1
-9904	-12648	12908	1192	16574	16476	-24048	5904	-1048	-6302	20492	11418	-21876	-3616	5140	-9915	-7319	2687	14204	19856	-4936	-8313	3476	-24485	-32768	952	20	-652	5918	7640	-11024	-5996	1388	16977	6961	-299	130	116	1
-10152	-17580	11728	3096	20691	24280	-24664	2440	5260	-12170	23450	11148	-19176	284	10404	-4463	-9561	2675	-17744	7652	19240	-14063	20451	-12518	-14144	-20944	1464	-15255	671	4729	-24228	4552	3732	10805	2753	-1385	109	104	1
-11356	-17464	13560	4146	25957	32767	-26308	-472	3940	-8849	25438	12805	-20488	2012	12860	-2440	-10221	1602	-15876	-13512	25180	-6029	15624	-9334	-21372	-2704	-5168	-10065	11460	5607	-24568	15460	5556	-20119	-2122	8578	119	110	1
-21892	-22600	14928	1660	31967	32767	-28276	-7328	-1052	-926	23675	16251	-21676	-13856	-2336	-12055	-12689	-3270	-14780	9904	12260	-2032	12516	-10745	-17100	-180	-5144	-4477	13593	6961	-14080	-16112	-676	-21058	11400	11103	129	115	1
-30676	-30084	11696	10768	23544	32767	-28304	-3856	-8288	3302	24460	15185	-22724	-12860	-4360	4860	-20973	-8920	-6732	868	14056	-12847	2769	-7579	-19988	15324	-3156	-4634	9940	8807	-10116	7912	-6660	29206	13356	-1912	127	114	1
-17976	-29652	16180	15682	19274	32767	-26796	-6172	-5784	9994	17999	17490	-26924	-8596	-9084	17476	-24578	-12614	-11812	2692	13480	-3788	-1582	-3520	-16472	2812	-6564	-6115	10208	2171	-13632	24820	-8052	20559	3969	1432	122	110	1
-24724	-12360	14848	32457	19299	32767	-20876	-236	-18784	22534	10427	17269	-30840	204	-9140	25409	-25759	-13149	-11024	2628	14060	-2789	-1444	-2887	-17916	-492	-5268	932	3505	3664	-22860	7648	-1932	-18059	11033	11632	112	106	1
-12760	-18380	18352	19829	-4736	10996	-16160	5640	-17280	18511	5841	18318	-29588	3068	-6172	24311	-25515	-8854	-9556	1640	14548	-945	-275	-1218	-17816	-700	-5192	-1427	6277	4216	-17664	-9484	-416	-7460	13362	1584	135	119	1
-3216	-15248	7624	10177	-8458	-1948	-11956	7640	-9224	7851	-1186	13034	-26416	2332	-5756	15729	-22874	-8582	-9712	3008	13736	298	768	-238	-16568	-588	-2180	583	5810	4958	-14132	-4100	964	7211	9704	-6139	122	112	1
-1332	-13500	4652	14473	-7405	-5205	-7892	2184	-11324	-2133	-7865	8942	-22568	684	-6492	9759	-18992	-11708	-9992	3716	13204	627	975	-42	-16048	1504	80	3306	5210	4652	-14924	5152	2240	12806	11504	-464	111	105	1
-3176	-11184	4024	18192	-8172	-10416	-8184	-432	-10784	-7	-13402	7476	-19484	-752	-7092	5910	-16515	-12841	-9812	4468	12872	363	736	-394	-15496	2028	1088	5526	5217	2883	-16156	7468	2100	11190	12216	3661	120	109	1
-5084	-10148	3976	17333	-11381	-16936	-6032	-2376	-11804	3517	-20319	6678	-15884	-1484	-7444	5345	-13460	-13742	-9664	4108	12804	-167	432	-961	-15832	412	1068	8295	5678	3594	-15276	5868	2800	9765	11907	2596	113	107	1
-7316	-10664	2968	13952	-16526	-22872	-4564	-1632	-12128	10507	-26411	6816	-13524	-972	-7696	7231	-12707	-13289	-9428	3692	13100	-114	636	-1115	-16584	1352	-540	5678	6414	3323	-15596	2420	2968	9036	12269	1319	127	114	1
-8696	-11308	1496	11583	-21606	-25833	-4788	-424	-10212	13431	-31500	4714	-12824	464	-7804	10771	-12057	-10986	-9396	3452	13088	-47	650	-1097	-16748	700	-520	1177	5497	2770	-14648	-376	3568	12709	15603	541	129	115	1
-10932	-10624	1192	8007	-25638	-27948	-4428	460	-11116	14306	-32768	1581	-12340	1088	-7716	14148	-12027	-7848	-9940	3576	13056	770	997	-685	-15356	32	260	2437	5689	2318	-13452	3124	5412	15141	16846	-1477	120	111	1
-12116	-10796	940	2616	-28392	-30286	-4760	2080	-10124	13226	-32768	-283	-10092	2296	-7440	20411	-10389	-4100	-9976	3912	12920	384	827	-1025	-15428	1056	688	5515	6883	3091	-17128	6824	3176	7755	13819	88	120	111	1
-13484	-11492	1152	-2520	-29372	-31282	-5452	4408	-9440	8888	-32768	-3307	-8224	5100	-8088	25140	-9567	-2	-10188	3652	13040	-134	443	-1685	-16460	1556	-40	3726	7255	3873	-17052	9204	-1056	5294	12715	180	120	111	1
-14940	-11628	2460	-7830	-28940	-31904	-6468	7096	-10008	2567	-32768	-7181	-7020	9040	-7932	25275	-7328	3723	-10036	3312	13540	32	642	-1409	-16136	36	-420	1046	7367	3666	-16908	6144	696	3674	8732	325	120	112	1
-15788	-11088	6048	-14462	-26508	-32768	-8264	8964	-12004	-5577	-32768	-12134	-5920	11480	-8092	19839	-4334	6507	-9796	3956	13140	-152	737	-1844	-15716	-68	-904	1339	7916	3796	-15484	712	2428	2873	8253	392	122	112	1
-20676	-12160	10648	-22885	-23322	-32768	-11736	8328	-13212	-14162	-32768	-16466	-5804	13396	-7756	11160	-965	7826	-10076	4480	13124	-535	248	-3012	-16480	796	-1120	3262	8271	5629	-15736	-424	2372	3029	9075	425	127	115	1
-32764	-16348	12692	-25711	-22692	-32768	-15744	7592	-15648	-15778	-32768	-21584	-7624	11276	-4456	4521	1670	7454	-10128	4144	13440	-303	395	-4411	-16972	1664	-1408	3481	8544	5916	-16768	2840	1820	3666	8538	807	124	113	1
-32768	-5980	16456	-24121	-18846	-32768	-19024	2884	-17704	-13417	-32768	-22284	-11532	816	-1420	4442	4206	2724	-10568	3308	13684	1175	1568	-6293	-16984	132	-1272	4771	9087	6181	-17536	4372	2112	4632	7192	1289	125	113	1
-32768	3772	15316	-22268	-12873	-32768	-23288	4844	-15832	-13051	-32768	-14665	-17524	-2020	6784	316	3951	-2537	-9612	1812	14932	-935	5505	-5450	-17784	-2636	-1388	4694	11436	6376	-15292	3848	4892	5694	6790	1641	115	107	1
-32768	10240	2276	-11831	-10433	-32768	-21012	-408	-13484	-6933	-24973	-8957	-23632	-5960	25020	-6231	1562	-9362	-10072	2120	15196	-1487	9781	-4978	-18176	-72	340	2755	14154	6669	-17532	-272	7132	7404	6457	-196	129	114	1
-32768	29944	-11552	-1932	-7319	-19574	-8676	3820	-12872	6601	-8046	-5902	-27500	-1848	30352	-6137	7134	-5934	-10552	3468	14868	-3359	13828	-5454	-18772	-184	1052	1562	16438	6884	-17296	4796	6184	9274	6293	-1484	130	118	1
-32768	32767	-9608	-9869	-718	-22	-8272	584	-11420	3859	11825	1673	-20236	-1960	20620	-14906	4637	-2189	-10908	2916	14716	-2953	19475	-6585	-18812	-2504	56	4431	19712	8268	-18304	5912	5248	10200	5383	-679	186	146	1
20448	-18364	32767	32767	1826	8789	-8648	5220	-19432	-1717	26452	6387	-10876	-1468	1708	-13330	11980	-3570	-9964	1332	15164	-130	29027	-5213	-18184	-11108	-2500	15704	23632	10446	-17428	-552	7472	15753	3865	-2987	125	116	1
26724	-23628	-1072	-264	3053	22123	-32768	12920	32767	-14947	1256	-3010	-6116	5136	-10408	-29016	24091	-2248	-10380	6236	16356	-1727	32767	-5699	-22768	-12812	748	26872	27766	11970	-23044	-8040	17552	19814	-6789	-4878	113	111	1
-32620	-10060	16188	3865	28560	27819	-15312	6316	3492	-4606	6983	-4796	-27360	7952	7588	-2741	-1003	10858	-12708	5640	16216	-8023	32767	-13439	-25516	-2464	3920	20449	29113	11890	-15504	-16324	12288	9643	-10311	-8760	143	124	1
-20220	1420	24596	-10383	19947	15705	-19448	5484	-2680	978	17398	7029	-30508	-14912	6868	32767	-10100	1030	-30072	10536	21532	-8752	32767	-18956	-26936	4804	3900	10265	30803	10389	-24048	12396	4720	32767	-13201	-9331	110	107	1
-17728	-28928	-9684	2617	9019	3140	-30012	-7568	-15372	-12643	22812	1860	-17044	4780	1324	7508	11771	-1686	-29428	3616	21964	-10464	32767	-29082	-32768	12552	-3048	2922	32334	9879	-27816	27516	2032	16805	-21087	92	110	108	1
-11916	-14052	2428	5345	2909	6044	-12612	-16244	-10956	26149	11882	1598	-11420	3572	-20032	-21277	29423	511	-27292	10900	18096	3656	32767	-28282	-28064	2728	-9728	4374	28866	1652	-32312	18968	-8204	-9618	-26999	6815	79	83	1
-12160	-8528	9684	5075	1266	4511	-15468	11980	-8024	32526	3460	9444	-6568	-7136	-10648	-9536	13000	-950	-11684	13560	21856	-1047	32767	-32768	-23028	5568	-7340	1263	19034	-1236	-30840	1532	-8216	-29781	-29465	4499	148	126	1
-8956	-10732	8224	5148	162	4204	-13516	8680	-4740	-10299	10277	922	-20296	-10456	-5548	9478	4573	-4689	-32768	11224	32767	-43	5350	-32768	-14492	9472	-19180	6051	-7204	4462	-29388	-6068	-4148	-25571	-29142	-242	142	121	1
-9428	-9260	9204	3931	183	3343	-17840	1924	-4252	-20870	12812	-3364	-21152	3588	-856	9134	8956	1537	-16804	7048	24940	10257	-26463	-32768	-8968	-4476	-11388	2587	5902	-5195	-26316	-6244	-2356	-4914	-30171	-635	122	110	1
-9620	-9688	9000	2119	750	2380	-19928	-6360	-3100	-2156	7478	1162	-13500	8636	1064	-4306	13509	8551	-6268	9520	8200	20909	-30971	-30899	-4048	-6676	-10516	14036	-5209	-8055	-23556	1052	-3352	5729	-24635	2332	131	118	1
-9440	-10316	8004	2166	542	2404	-17068	-2096	-4484	14530	3010	3994	-12808	-1064	-3464	-9336	15047	5192	-3576	20160	1360	14052	-28667	-18086	-5328	428	-12676	18012	-10179	-8094	-20948	3184	-4204	5346	-25477	5150	166	135	1
-9144	-10844	7352	2675	-170	2697	-16680	3812	-4464	10174	1884	3591	-15176	-4576	-4384	-7018	16055	3080	-1860	17764	-784	2369	-22325	4110	-4024	420	-11520	12579	-16983	-6946	-15540	1976	-5308	2926	-21908	5101	127	116	1
-9372	-10856	7500	3755	-1160	3648	-14680	4900	-4580	-5721	4756	-342	-16084	-2228	-4708	-182	18720	3339	-2576	12224	1848	2954	-13000	27499	-2568	5556	-11196	-2473	-20175	-6665	-13512	-712	-5496	1883	-17874	5104	132	119	1
-9884	-8856	8756	3644	-1829	3466	-14960	4144	-5076	-7194	4915	-851	-14476	612	-4744	691	19532	3783	-6684	7320	6520	3870	-9563	32767	-3440	2488	-10300	-10819	-26285	-8383	-12820	-732	-5300	-145	-15638	2998	117	110	1
-10416	-7740	9720	1896	-1149	1845	-17452	828	-4628	1768	1446	1013	-15184	3104	-6104	-3153	15635	4385	-11132	1852	11036	4732	-13575	32767	-2484	308	-10044	-12300	-30503	-7435	-11800	-356	-6100	-4943	-12803	1736	122	112	1
-10276	-7756	10000	-50	77	189	-16536	6424	-364	1784	1270	1767	-14332	4228	-5016	1515	11513	5258	-13216	-5700	14308	14262	-19625	32767	-4580	-3068	-10476	-6487	-32768	-7168	-9996	-296	-6536	-9896	-10415	-1949	136	120	1
-9580	-8504	9088	-1353	1145	-1159	-13180	2580	3076	-5405	5319	543	-18064	-1588	1764	8471	7448	7343	-14724	-8516	15144	29060	-25958	24555	-4308	-1560	-10360	5105	-32768	-6429	-8804	-2492	-8044	-12916	-7741	-4539	125	113	1
-8816	-11032	7536	-978	1532	-537	-17460	-6940	3852	-1813	7709	505	-19688	-6020	5856	8579	5501	4660	-17440	-4004	13964	32767	-30410	17555	-6176	268	-12188	10413	-32768	-5697	-8648	-2652	-9788	-16270	-3231	-5353	131	117	1
-9024	-11248	7432	209	1288	1201	-17924	-5608	1348	3603	7846	2595	-17328	-1336	3424	3266	6491	59	-20884	448	14692	31264	-31663	16423	-8996	2204	-14992	11502	-32768	-5942	-8780	-1456	-10672	-12134	-1148	-6384	130	116	1
-9172	-10768	8348	703	1103	2797	-16160	500	-1068	3526	8695	3387	-15760	2336	-632	361	7833	-369	-26520	-124	15708	26692	-29148	23501	-12400	2872	-16176	7927	-32768	-7276	-9948	-968	-9480	-4141	2514	-4385	129	116	1
-9776	-8848	9440	-18	1478	3022	-16360	2344	-2000	1853	10175	3028	-16252	1792	-2248	210	7448	849	-32768	-2264	16628	22349	-25042	32767	-16800	6136	-17768	6558	-32768	-8965	-10900	4408	-5476	1929	3871	-1236	124	113	1
-10212	-8308	9636	-1524	2049	2783	-16976	936	-1820	829	10824	3950	-17020	-1104	-1024	-422	5844	1681	-32768	-10996	14868	17830	-22855	32767	-21948	7924	-17856	6997	-32768	-9895	-13396	10632	3076	7384	750	4388	120	110	1
-9664	-9484	9532	-3686	2126	3507	-17192	-1424	-988	2784	12149	5435	-17100	-3076	-1328	-2993	4207	2215	-32768	-22352	7388	17866	-18653	32767	-24620	8840	-14320	-615	-32768	-10779	-17996	7760	15300	18442	794	6624	121	110	1
-9464	-10768	10432	-1501	5814	5039	-19608	636	-2684	2302	13205	6301	-18632	-1444	-2596	-6842	3915	2216	-32768	-18472	-8332	11429	-15804	32767	-21588	13492	-14728	-15759	-25737	-12022	-19640	2360	27796	10095	17258	11055	112	105	1
-10416	-10412	9440	-1071	8037	8106	-18284	-56	-2424	-927	14167	6367	-16492	296	764	-8699	5470	3557	-32768	-32768	-26564	1308	-14573	18113	-10600	-4848	-3188	-4432	-12397	-240	-18652	11932	32767	-7873	16398	8328	125	112	1
-10700	-9604	9768	-782	9855	8487	-17364	-1076	-2196	-1778	15673	8151	-15444	-804	1660	-10369	5233	2286	-32768	-32768	-26940	12268	5869	6596	-5704	10344	-5836	2313	13848	14459	-16640	3036	21700	-20118	11126	-73	120	112	1
-10660	-10496	9652	-280	12371	10656	-19068	-184	-2580	-852	16225	9182	-19812	-2080	-1080	-13393	3874	2197	-32768	32767	32767	-27351	963	-7874	-18612	-1920	10732	-17811	19909	11489	-12468	-2476	3756	-11929	14344	1477	162	134	1
-10788	-12736	10444	-886	16243	14392	-21732	3236	624	-6848	18392	9745	-22644	-1808	5324	-11221	-2548	1931	26736	-804	-12728	-16244	8856	-5498	-28976	13204	1676	-23721	2143	6662	-9876	-7428	612	4356	22919	1162	154	129	1
-11536	-14532	9132	21	19750	20398	-23244	1520	4860	-13155	21738	9231	-18728	-1540	9208	-6433	-6718	1022	-15628	-12704	27052	-15753	15043	-9423	-9412	-27560	-520	-32768	2671	-1342	-17484	8436	3344	-10603	4214	6475	116	110	1
-15144	-17664	12460	843	21293	28114	-20876	780	4756	-13137	25486	10255	-17052	1304	17292	-11708	-10129	546	-10812	-14840	26812	-6544	17437	-12003	-21704	-14672	-5968	-14101	7831	6488	-32768	-880	9856	-32768	-12197	6937	106	103	1
-17528	-18500	13000	1006	25963	32767	-27052	-2452	-660	-6727	25787	11231	-20740	1432	2832	-10234	-7601	-979	-15668	3332	16464	2787	14770	-12506	-15044	-5740	-4764	2270	12869	10688	-16636	-31552	5204	-11630	12011	2244	109	103	1
-23696	-20804	15112	201	25028	32767	-26412	-4124	-2820	-2290	26006	14145	-21204	-9948	-4068	-12878	-17603	-8107	-9412	15300	4164	-10734	4978	-5324	-22232	19620	-584	401	13934	12301	-9140	4792	-3212	30022	16953	-6149	128	115	1
-31132	-26380	17636	2291	20309	32767	-29804	-1276	-7036	2511	24462	12937	-26524	-10784	-6020	3231	-22319	-12812	-10176	8140	16352	-12231	4601	-7746	-17732	8996	-4524	-10384	9720	3946	-14300	32767	-18660	32767	13324	5864	136	120	1
-316	-30084	16444	10183	19396	32767	-23880	-544	-8152	9783	16948	14513	-29072	232	-7624	11119	-24420	-15203	-12664	2672	14020	-7177	-788	-5673	-15448	-252	-5316	-7750	2878	2587	-18768	14048	-3588	-17382	11133	13311	111	105	1
-32476	-28712	18984	11468	2396	28910	-18120	11144	-23888	14208	9820	12834	-28584	6116	-3596	18415	-24866	-10257	-9884	312	15688	-3736	-561	-3229	-17128	-3468	-6520	-4667	5624	4759	-18200	-4532	-2336	-17168	18137	4709	116	109	1
-4728	-15756	11560	6140	-12018	4848	-14728	8628	-8396	8391	4317	6631	-26756	6448	-1616	12824	-24880	-7298	-10076	3328	13620	-905	998	-1219	-17372	656	-2896	-1889	5518	5127	-13088	-3456	-1800	-4377	18208	-5624	85	90	1
384	-13268	5528	5016	-11021	1585	-10952	7236	-7224	-5272	-1459	3899	-22804	4344	-3448	1983	-20938	-8992	-9736	4988	12128	-768	1270	-1428	-15900	2016	1524	-1058	4135	2842	-14580	5488	928	-3489	17621	-3022	163	131	1
-608	-10204	5056	6986	-8653	-1691	-8140	4484	-8472	-9128	-5977	-92	-18804	1868	-3720	-1981	-17351	-10865	-10012	5716	11856	-1626	961	-2691	-15088	208	3036	3119	4053	3161	-17264	7772	4456	-5938	15859	1611	149	127	1
-1988	-8980	5716	6743	-8710	-8721	-6864	2276	-9136	-3942	-12164	-1670	-17352	2264	-4804	-3028	-16343	-11803	-10724	2756	13392	-2160	100	-3569	-16968	952	1852	1635	5761	3688	-19104	1908	4004	-1734	13666	5399	124	114	1
-3432	-8640	6048	4131	-10661	-15914	-5668	2732	-9312	1930	-19005	-2232	-15248	2372	-4376	-2191	-14135	-12306	-10644	3008	13304	-1689	17	-2880	-15264	-3072	2108	1270	7342	3408	-16580	-4472	5688	6626	11950	4525	128	115	1
-5184	-8632	6264	1373	-14346	-21958	-5208	4084	-9044	6037	-24024	-4059	-15424	2364	-4580	-1859	-13817	-12427	-10464	3876	13008	-1508	225	-2327	-14828	884	2008	2054	9746	3708	-13576	-1492	6268	12869	10238	1378	122	112	1
-7240	-8732	6916	-701	-18393	-26828	-4580	4712	-9776	7074	-28502	-6844	-14904	1268	-7180	4084	-12332	-7528	-10820	4080	13048	-1557	46	-2731	-15608	932	256	1869	10146	5508	-16444	5372	-692	9321	8032	1476	119	110	1
-8064	-7768	7500	-3090	-23253	-30204	-4672	4440	-9672	7380	-32768	-9365	-13308	1828	-7788	8161	-11436	-3918	-10360	4304	13120	-2175	-263	-3351	-17384	2164	-1696	1676	9666	5101	-16516	11340	-4528	7526	6568	1883	118	110	1
-9516	-7060	8164	-7987	-26326	-31585	-5120	5596	-8900	7325	-32768	-11249	-10112	3880	-8644	12947	-9782	91	-10520	4384	13064	-2315	-167	-4494	-17732	2380	-3932	1074	8513	4452	-16516	5756	-5492	5979	7680	2402	129	116	1
-11812	-8272	9624	-13362	-28745	-31885	-5628	7588	-10508	5046	-32768	-13720	-7164	6884	-9740	13407	-6646	3922	-10440	3536	13144	-1163	1063	-5621	-17636	476	-5624	2758	7408	4592	-15176	664	-4888	3394	8109	2358	119	110	1
-15056	-10028	12588	-18172	-30523	-32340	-7768	10084	-12540	-3122	-32768	-15659	-5600	8500	-10392	9776	-1699	7107	-9864	1104	14512	-1302	4356	-5761	-18156	-1972	-6396	3421	6960	4948	-17096	48	-4084	1520	8318	1559	132	117	1
-20852	-12296	15940	-24064	-31498	-32768	-11304	10552	-15152	-12898	-32768	-18331	-4120	10400	-11108	5835	3738	8944	-10108	1180	14168	-890	7005	-4233	-16936	-784	-5216	2238	7107	4685	-17796	824	-1996	476	8140	851	114	107	1
-32768	-12548	18400	-28028	-29768	-32768	-16200	7152	-16544	-18686	-32768	-21080	-5156	7772	-10692	2489	6295	8312	-10484	1768	13520	-780	9849	-2927	-16956	-2112	-2492	1877	7855	4981	-17768	1056	2644	-142	8086	858	113	106	1
-32768	-5508	19472	-26255	-25174	-32768	-21952	7560	-21492	-17909	-32768	-20919	-11592	-884	-6664	10680	5761	2473	-10816	1808	12812	-1325	11978	-2274	-15404	-264	476	2296	10146	5880	-15296	1964	7452	2177	7025	989	110	104	1
-32768	4100	13720	-22522	-19375	-32768	-26160	4468	-18928	-22155	-32768	-15749	-22820	-3808	13548	8830	-1653	-6448	-11432	2412	13024	-575	15018	-1947	-17780	-276	1168	2345	12552	6971	-16640	-160	7716	5175	6743	1540	117	107	1
-32768	21868	-6368	-16738	-12998	-32768	-16492	-5056	-15428	-12350	-19307	-11874	-32768	-10476	32767	-9823	4316	-8602	-11304	3968	13084	-696	19015	-2725	-17008	-660	2280	4413	15828	6970	-17692	1516	5436	11235	5820	-177	138	121	1
-32768	32767	-12428	-16748	-1697	-13722	-2988	-4352	-10440	-4298	1937	-4216	-23692	-2252	32767	-16360	10647	1810	-11580	2420	13008	-1979	23406	-4650	-17352	-1016	1052	4829	18920	7265	-16912	7024	4132	12471	4635	-990	110	105	1
-32768	-17576	6812	32767	6463	1439	-4548	1244	-14092	-4147	23275	6419	-12740	-7032	9656	-12194	12520	-1015	-11864	3676	13004	-3601	29050	-6369	-19820	-4292	2140	8827	21812	7597	-19172	5456	6240	15651	3989	-2429	125	116	1
13412	-32768	4740	11863	3090	15496	-32768	1836	30576	-10977	8512	-423	-10696	-5008	-9612	-19726	23149	-2427	-14356	8188	13768	-6836	32767	-11966	-23800	-6336	5932	12166	24246	9012	-21580	300	11164	12436	1568	-2295	154	131	1
-11632	-3196	16188	14031	26098	29330	-18940	6488	4284	21529	4665	-997	-23100	-2076	5212	4460	9230	7542	-14984	6952	13136	-10223	32767	-20367	-22520	-5060	6848	12404	26534	10569	-22024	-7984	25348	6767	-22780	-3899	175	139	1
-15440	6064	23088	-2134	18712	14675	-14156	12708	-4172	20470	14271	14294	-27252	-3284	-248	32767	-16563	3360	-21524	3228	14320	-12138	32767	-25627	-26176	444	1668	7379	29122	12409	-19892	-3260	11900	18274	-13543	-6195	114	111	1
-17736	704	23112	-4431	16421	15402	-20692	2660	-17776	627	15441	2376	-16220	14084	3712	13546	6210	1747	-22468	1000	19824	-9927	32767	-29557	-30484	2908	-1632	6559	30826	11763	-24084	13284	-5568	23126	-19527	-967	115	108	1
-15236	-3256	14060	7974	3588	10561	-16048	-18452	-11664	10184	13332	-597	-11164	3212	-14920	-18523	27461	4915	-32768	12684	27096	-5154	32767	-30108	-30128	4492	-6044	6639	27282	8541	-30184	13872	-4048	5395	-24416	3407	93	96	1
-9828	-6484	11964	8235	765	6631	-15528	6736	-6892	21296	7536	7427	-8800	-6296	-18664	-15650	18912	-2491	-2168	11904	20260	-5160	32767	-32768	-28684	5044	-7952	3922	12235	7995	-30440	5728	-7044	-12819	-28792	5488	151	128	1
-9820	-10464	8616	7356	-348	5205	-14948	8604	-5376	-6949	8991	242	-15984	-9292	-7900	6980	7255	-4090	-32768	15380	32767	13642	5399	-31497	-14248	8800	-21644	8071	12432	-1936	-29676	-2176	-4032	-21573	-28780	4284	125	114	1
-10476	-7552	10808	5115	-736	3826	-17356	80	-4680	-9969	10928	-507	-19980	1408	-2456	9163	9548	3524	-15604	12868	22752	17369	-25906	-23769	-14912	-2016	-10144	7374	7481	828	-28104	-4272	-792	-8674	-29679	375	80	89	1
-9448	-8916	9736	2309	-62	1916	-19568	-3376	-3716	5946	6516	2553	-15900	3640	-556	-2949	11739	6603	-2236	11764	8416	17608	-25538	-16907	-10872	-2324	-10412	8651	-4887	-5688	-25052	-292	-3200	3091	-27212	1371	161	136	1
-8964	-10164	8420	1664	304	1626	-16536	-1132	-1672	15634	3841	5357	-13968	-908	-1220	-4041	14171	7406	-2796	15368	7736	2746	-23102	-4617	-7200	-1172	-13180	5305	-12934	-5782	-21272	1072	-4400	5138	-27077	2933	158	131	1
-9000	-10256	8100	2682	-386	2510	-14704	4972	-720	2485	5669	3984	-14640	-3156	-224	-286	11221	4985	-1460	8196	9660	-3112	-20392	11979	-4128	-5032	-13268	4208	-18028	-8309	-20364	408	-3960	5001	-26430	3647	147	127	1
-8944	-9928	8532	3167	-873	3115	-14584	2596	80	-12782	10087	523	-17824	-1272	92	2208	10839	2699	-2840	1948	12240	5082	-16934	26087	-4808	-2600	-12876	725	-20446	-9347	-15288	-20	-4596	679	-20947	3135	134	120	1
-9256	-9112	9316	2637	-662	3219	-17576	-3292	-568	-6349	9571	1177	-16344	2732	252	-5497	12114	2413	-7728	96	13984	9650	-17873	32314	-4208	-2804	-11408	-383	-22196	-10486	-15100	-1192	-5112	-3532	-19871	2649	128	116	1
-9276	-9664	8944	1865	-269	3161	-16548	-2592	-2220	4957	7363	3384	-13416	1768	1312	-9551	11906	2677	-9876	-3204	15488	13118	-22502	32544	-4692	-1528	-11296	126	-28705	-9370	-12732	-1032	-6776	-6475	-17302	-1190	126	115	1
-9476	-9524	8720	2005	-508	3688	-15864	1188	-3288	6680	7011	4016	-14888	-464	-2188	-5868	11872	2783	-12164	-4892	15852	17062	-28819	29077	-5304	-1136	-11688	-875	-32768	-8294	-10952	-852	-7460	-9619	-13599	-5223	124	113	1
-9620	-9060	9452	1697	-607	3982	-15868	3680	-4648	1549	8560	2587	-15856	-2304	-8588	287	10254	2327	-13660	-3548	15192	20210	-32768	24945	-5072	-220	-12156	-1817	-32768	-11547	-9544	-1484	-8944	-12291	-10399	-7431	127	115	1
-9724	-9636	9564	1566	-248	4619	-17552	2124	-5568	-1180	8450	1771	-14732	-648	-9176	-2412	8093	2573	-17040	28	15796	18742	-32768	23135	-5448	1180	-13532	-1084	-32768	-14599	-9172	-1636	-9260	-12446	-9982	-7463	133	119	1
-9776	-8564	10120	1721	487	5040	-17052	1800	-5708	619	7182	1839	-14572	-32	-8880	-2227	7838	2800	-23240	2164	16404	14019	-32768	26501	-8696	2480	-13964	-2469	-32768	-17399	-6708	2600	-11036	-15363	-2212	-5843	137	121	1
-10216	-8112	9612	-426	641	5064	-16860	2360	-3940	1303	6641	2986	-15532	1728	-3584	2957	8032	4785	-32768	316	15856	8791	-32768	32767	-12664	8300	-16056	-5729	-32768	-21717	-6296	5800	-10628	-17329	1405	-1985	139	122	1
-9204	-7096	11624	1221	3622	5328	-16908	3736	-1820	568	7539	2902	-18348	-220	-40	3667	6953	4783	-32768	-3916	12096	717	-32768	32767	-18752	10112	-19764	-11666	-32768	-25578	-9752	10280	-2700	-14794	2888	3525	124	113	1
-9900	-7636	11084	787	5074	5128	-17536	-384	380	-1002	9784	4469	-17744	-272	3268	1856	6142	3369	-32768	-13556	3900	-2508	-32768	32767	-22360	8168	-16456	-11877	-32768	-25382	-14336	5384	9888	-10091	3689	7071	115	108	1
-10376	-8664	10308	428	6731	4954	-17608	-1720	-1592	325	12354	6321	-17860	1252	5440	-3481	5701	2262	-32768	-16860	-12100	1426	-30948	29486	-22700	8712	-15272	-12425	-27586	-20332	-21716	-9364	17276	-11263	16135	5897	119	110	1
-10928	-10092	9800	45	7558	6800	-19300	908	-2208	-5355	14318	6945	-18564	1800	1324	-14738	4574	1836	-32768	-25224	-24472	10736	-20800	8357	-15160	-4320	-10460	4001	-17348	-5446	-25072	-14808	30096	-16500	12630	2121	129	115	1
-10760	-10400	11032	912	8745	9716	-17960	540	-1016	-12558	16935	7530	-16556	-3188	-352	-20382	4849	2983	-32768	-32768	-14460	20614	1108	-2083	-5348	9304	-4016	19658	5489	9127	-15964	-2572	25480	-7556	8821	-1778	127	114	1
-10972	-9884	11188	1680	10769	12439	-19612	-1388	-1568	-11644	17836	9054	-17372	-6348	-56	-19338	6021	3856	-3544	-4676	8464	-5631	16395	-9138	-11804	10888	568	-501	19548	14550	-19452	-11788	23576	4791	25	-3586	114	107	1
-11860	-12352	10288	1979	13731	16284	-21356	20	832	-7787	17964	10900	-20628	-4540	2108	-18885	1928	3718	14924	12340	2772	7151	15657	-11671	-32768	-11948	7340	1335	8962	6575	-11504	-14980	4976	19047	11002	170	141	125	1
-13088	-14620	8640	3275	16144	24071	-22140	-2040	1676	-6136	20674	11341	-21792	-6864	7048	-8526	-5870	3159	-32768	10028	21864	-4905	27938	-12865	-16864	-9236	4204	-7378	2720	11503	-24616	-7052	9380	23594	2508	243	163	134	1
-15060	-16828	7724	3176	16685	32767	-24884	-3960	5128	-6516	22742	10209	-17496	-5932	7328	-6641	-5774	-539	-20628	-1640	23276	-740	22781	-9945	-15624	-3924	-7756	-1469	16697	10276	-17492	19076	-1104	7656	4050	6466	133	118	1
-15100	-20800	11244	3453	17413	32767	-26100	-4964	920	-6372	24698	10099	-22280	-1524	8728	-3577	-12812	-4516	-16928	12808	7488	-11381	8226	-6830	-23564	17604	-11716	41	18505	13723	-18280	6772	-15988	5288	13973	15848	109	105	1
-17180	-21860	15900	6358	16278	32767	-28332	-1220	-3092	-7386	26992	10092	-21676	-9300	-3252	1858	-19283	-9385	-15012	5448	11876	-4702	1689	-3123	-16600	8676	-11284	-8836	11183	6710	-13624	13736	-16292	23021	11830	-463	114	107	1
-21780	-32768	15968	13544	10626	32767	-28728	856	-5432	-4334	22234	9944	-25828	2824	-5828	5389	-23856	-13414	-11428	4724	12492	-3314	-1	-2826	-16584	6764	-8024	-5639	5595	254	-14280	26936	-11068	-3240	18154	1208	118	110	1
-18876	-29352	17596	14732	9993	32767	-20496	3660	-7744	1481	14872	6242	-28904	9732	-6612	9039	-23642	-12187	-11264	2460	14156	-2418	-855	-2534	-18256	592	-6768	-10551	2352	2369	-21356	5476	-6936	-32768	20225	9749	108	103	1
-19692	-18820	17244	-3419	-2834	18675	-14780	13204	-24472	961	14712	7990	-27836	11572	-3508	7458	-23321	-10077	-9828	3100	13924	-1007	-208	-1319	-17312	-4940	-5772	-8769	1895	2608	-17764	-15636	-3296	-30695	19708	1431	112	106	1
-3764	-21552	4888	-7562	-5258	534	-14620	13132	-3852	-14108	8044	-1796	-24364	10172	-3860	-107	-22005	-10474	-9864	3996	13196	-263	648	-910	-14856	-4696	-2912	-1833	1479	2653	-14232	-9512	-772	-11316	17148	-5705	105	104	1
604	-13888	3856	3082	828	-5811	-8084	5276	-5156	-16012	1617	-7063	-16996	10260	-1516	-6201	-16808	-11662	-10196	5004	12096	-350	816	-1207	-16360	980	-1456	5392	1871	3634	-16308	3368	-540	389	20350	165	134	117	1
-632	-6708	7220	-1888	6502	-16352	-7360	4360	-6300	-3495	-2384	-8509	-17348	7340	-2524	-10617	-16529	-12498	-10008	5048	12060	-1411	-323	-2581	-18828	3704	-2140	3445	264	1436	-16732	4640	1180	2123	25526	10231	185	148	1
-3184	-8240	10024	-5836	4108	-23003	-7292	5332	-5920	6783	-10144	-9862	-16040	6636	-2472	-13114	-14914	-14220	-10668	2304	13144	-824	193	-1607	-14512	-6304	2848	2776	1714	1041	-16464	-2152	7004	9317	19299	3479	153	131	1
-5396	-5336	12716	-8411	-2647	-26496	-7520	7920	-6412	13732	-15144	-13282	-16396	5948	-3084	-14097	-14306	-13751	-10140	4052	12780	-295	811	-800	-12484	-5352	9740	8111	5938	3712	-18724	-5436	12696	8960	13578	1811	141	123	1
-5784	-4700	13352	-9315	-3767	-26954	-8768	10792	-7360	16023	-20063	-16247	-17872	2832	-3260	-9106	-12969	-11634	-10420	6240	11704	-1371	-494	-2353	-13972	3116	9272	2861	10671	6091	-17760	-116	15528	13763	7708	762	126	114	1
-6672	-3800	17816	-19080	-14619	-31128	-10808	13200	-7576	12354	-26119	-17907	-18012	1060	-4200	43	-12800	-7716	-10496	5540	12284	-2393	-2452	-3943	-16032	1448	3060	-1845	12518	6188	-16960	7748	4636	12729	7440	-97	119	111	1
-8064	-4468	19944	-19504	-17960	-32149	-10708	13384	-7996	7791	-32359	-18096	-16024	1592	-5052	8305	-13703	-4017	-10556	5064	12796	-3166	-2968	-4994	-17444	2076	-2652	-4546	12622	4097	-14808	12300	-5624	5907	6885	2309	123	113	1
-10260	-4580	20752	-19197	-21023	-32417	-9676	13388	-7276	270	-32768	-17749	-12220	3640	-6456	15485	-13375	-1517	-10560	4120	13448	-3170	-2133	-6013	-19136	1044	-6892	-6149	10022	4378	-15524	5952	-8916	486	9298	2655	131	116	1
-11816	-5272	21020	-19405	-23079	-32466	-10064	12376	-7992	-4917	-32768	-18310	-8024	6880	-7272	16600	-11912	528	-10356	4884	13816	-3366	-292	-7872	-18884	80	-8020	-2921	8956	3261	-16188	-232	-9152	513	9709	298	116	109	1
-13884	-6832	21856	-20085	-24250	-32768	-12048	11364	-10008	-7193	-32768	-18905	-5892	7960	-7176	12127	-7220	2424	-10508	2932	13464	-1184	1756	-8374	-16360	-316	-7916	683	7786	2682	-15004	-3080	-8060	-3667	9407	804	92	95	1
-18088	-9840	23552	-21609	-25039	-32768	-14684	10940	-12416	-9792	-32768	-20139	-6032	7092	-5984	5590	-3858	4467	-11532	1044	13492	-2593	5904	-6219	-17380	-2880	-7432	265	7552	2184	-17304	-812	-3948	-4436	10015	863	127	113	1
-19276	-10264	23776	-21718	-25064	-32768	-17128	9040	-14644	-8035	-32768	-19692	-6652	2728	-3584	1192	-921	5585	-9732	776	14736	-3386	8676	-4447	-16908	-1960	-3272	-1673	8741	2340	-18532	3728	1800	-1607	9666	-1005	121	111	1
-32768	572	25172	-21347	-20908	-32768	-21704	3684	-17836	-7617	-32768	-13426	-11364	-4288	1216	1605	828	1068	-10412	1920	13804	-3661	11339	-3939	-16496	-828	556	-2571	10470	3027	-17944	6080	5032	-4065	8369	-1074	122	112	1
-32768	6260	12208	-15707	-20837	-32768	-20424	9508	-17112	-5713	-32768	-7454	-14668	-6240	14568	-2747	5274	-4529	-11488	3268	13404	-4093	13782	-4774	-17284	-948	2076	-1957	13656	3270	-17156	1796	7288	-2629	8404	754	121	108	1
-32768	20552	-4928	-3582	-12165	-26334	-11932	3672	-12328	-3401	-19824	-7335	-21540	-3524	27608	1633	8342	-4537	-11640	3192	13324	-4992	16429	-7128	-17504	-1736	2756	311	16529	4558	-18716	-7608	10820	3302	6779	827	148	127	1
-32768	32767	-11804	-4273	-1379	-9889	-5304	-1288	-14936	380	734	-3502	-22660	1876	25992	-6233	2252	1329	-11276	1616	13804	-6292	20125	-8604	-17292	-5108	3424	1941	20632	5043	-18240	-5004	10604	8931	3141	-260	103	99	1
-32768	17220	23536	24711	11170	-1710	-4496	-3356	-18540	8547	16945	6103	-12388	-3260	11948	-8464	7219	3807	-11316	2852	14364	-6965	26491	-9879	-18828	-9104	4896	6893	25509	5794	-18936	2880	11332	17964	-558	-3315	100	100	1
-32768	-2948	-30808	13908	15157	11187	-32768	2048	32767	-13702	9244	3114	-7188	-7684	-1824	-7262	18081	-3317	-13700	7988	16332	-11720	32767	-16195	-25892	-3440	7644	7572	29399	7796	-24852	4912	21756	19513	-17920	-3620	101	106	1
-20164	-3824	17548	13913	25644	32767	-25592	7740	2156	1268	7179	-4617	-32768	5404	4	-12938	5811	5790	-17868	8716	17472	-18995	32767	-27184	-29080	492	5628	4623	30754	7597	-17780	980	11440	5359	-12541	-5262	118	112	1
-22632	-260	22060	-3616	16110	16123	-14496	14916	-9244	722	20172	9790	-32768	-7996	5212	27691	-9029	6453	-29624	7980	27592	-21771	32767	-32768	-28844	8140	640	1724	32767	6528	-23432	19736	-1804	21543	-16497	-3916	142	117	1
-14200	-25072	-7528	2432	11176	4422	-21088	-4044	-16828	-26128	28014	-1166	-7156	1532	-12680	6173	15261	129	-32768	7844	32736	-25631	32550	-32768	-32768	10680	-5396	-2286	31782	3747	-27604	19676	-4168	-2969	-23268	4601	106	102	1
-16428	-12476	4376	6492	3283	7576	-14320	-17352	-14800	18121	12190	3138	-5332	6724	-19576	-20584	20290	-3286	-10560	29216	21160	-27922	32767	-32768	-26276	2696	-8376	-8233	22876	-4058	-32012	9164	-8108	-22082	-27382	10689	79	88	1
-11984	-9708	8836	4550	984	4246	-18412	10776	-10592	32767	2898	10539	-16764	-13452	-11272	-12287	14288	-3585	-32768	6368	32767	-20478	8507	-32768	-15564	7092	-22984	-617	-11043	1215	-32220	-2116	-8320	-30184	-29191	7662	137	121	1
-10148	-8748	9756	3669	253	2893	-13232	13684	-6564	-4086	8123	2772	-23048	-4768	-5400	9537	10549	157	-15876	8056	27644	6465	-19964	-19414	-16784	-4628	-13024	-5689	14626	-7654	-31032	-4200	-3124	-19888	-31008	2518	148	125	1
-10104	-8156	10540	1061	692	997	-16948	4736	-4988	-19356	10505	-2510	-16996	12560	-304	4766	11081	2802	-13184	8480	24084	9525	-21455	-17573	-8980	-2464	-12008	5917	11	-10706	-27028	-1112	-3548	-4932	-27862	3251	127	115	1
-9184	-10136	8696	-19	974	352	-18540	-7004	-2956	-7651	8182	785	-13848	3424	540	-4302	11697	11980	-4236	17152	4380	463	-22288	-808	-6476	568	-12868	7549	-8932	-9067	-24276	92	-4592	-2144	-27677	4897	142	123	1
-9148	-10064	8296	405	608	584	-16648	-2632	-3480	4501	4379	2572	-14200	-2764	-1448	-7980	13792	7243	-2184	11920	3552	-4437	-19868	13334	-5244	1532	-11444	5212	-15094	-8648	-18228	1480	-5704	402	-23508	4853	142	123	1
-8800	-11036	7464	808	365	885	-17520	116	-3016	1628	2364	2730	-15996	-5268	-1756	-9008	15262	2355	-3556	7508	5944	607	-15664	25198	-4688	5876	-11956	-3000	-18996	-10284	-15008	1124	-5928	1774	-18954	5775	145	125	1
-9028	-10540	7828	1859	32	1933	-14892	1064	-2524	-6707	4963	1611	-16584	-2268	-2248	-5909	17029	2100	-7772	5316	8636	4337	-16064	29954	-4004	3548	-11760	-9173	-23728	-11374	-13020	812	-6172	694	-18208	6581	117	110	1
-9452	-9320	8756	1458	106	1747	-14976	1348	-2552	-7607	5419	1194	-15892	1152	-1036	-7964	17900	3688	-11556	1832	11184	8265	-20682	30495	-3252	2308	-10572	-10787	-30046	-11925	-11672	1196	-6776	-4027	-14555	5057	127	115	1
-9376	-9672	8588	926	104	1592	-17604	-1384	-2216	-5655	4527	2069	-15104	-456	1340	-9043	18344	4954	-13400	-1188	12056	15678	-26238	28531	-4272	-312	-10220	-8804	-32768	-11085	-9944	100	-7684	-8726	-12487	2918	132	118	1
-9388	-9788	8240	872	-142	1790	-16388	-1328	-1392	-1104	4463	2722	-15264	-1908	1564	-8282	16809	5421	-15280	-1772	11728	22528	-30687	25743	-3480	-756	-9976	-2034	-32768	-11411	-8500	-1092	-8712	-13940	-9183	158	133	118	1
-9220	-9472	8620	639	-84	1893	-15428	2312	100	-2545	5755	2834	-18296	-4168	-3132	1919	14608	5155	-16316	432	11284	24758	-32745	23581	-4700	84	-11084	2308	-32768	-12380	-7708	-1668	-9808	-18252	-5851	-1682	139	122	1
-9156	-9820	8716	-65	322	2230	-16852	-288	476	-2978	7790	2012	-17880	-4192	-4380	5122	8230	5561	-18084	2424	12916	23334	-32054	24258	-7296	1288	-12988	5104	-32768	-11819	-6480	-2084	-10852	-17534	-1982	-3488	138	121	1
-9420	-10100	8632	-767	577	2924	-17248	-2048	-964	1582	8238	2582	-16224	-3012	-1300	4027	7174	5865	-23876	4012	16068	21813	-29069	29052	-11648	2528	-14320	3269	-32768	-11547	-6476	-2524	-10876	-12321	3039	-5383	135	119	1
-10084	-10192	8312	-2018	13	4284	-16864	-344	-2500	4239	8440	3915	-14956	1520	164	3171	8680	3980	-32768	3656	20148	19271	-26205	32767	-17856	5768	-14204	1051	-32768	-12743	-8168	-800	-8616	-9608	5442	-5574	130	117	1
-9372	-10068	9796	-827	273	5528	-16664	572	-2596	5366	9142	3216	-15660	4640	660	4925	8329	2776	-32768	-3716	19072	16197	-24707	32767	-24416	8704	-14972	-2518	-32768	-13643	-10720	5408	-2492	-6197	3327	-1564	127	114	1
-10012	-7820	11108	711	4375	5710	-17472	4768	-408	2849	10897	4744	-18236	1856	340	3713	7773	2067	-32768	-14368	13892	14851	-20271	32767	-29300	7948	-13888	-4529	-32768	-17783	-19976	8724	17860	6989	-3362	4859	121	111	1
-10088	-8184	11464	-208	7127	5173	-17788	216	-976	4467	13091	5978	-17216	-496	992	-1711	6835	3011	-32768	-28348	1032	12083	-18126	32767	-18876	9124	-10768	-3074	-30019	-18348	-27972	4888	29016	5744	2546	16631	130	117	1
-10208	-9912	10636	-1351	10073	5832	-20532	-228	-2100	3326	13939	7479	-21536	-1420	60	-6896	2729	3833	-32768	-32768	-30964	11682	-24205	10480	-9704	-5004	-1836	11679	-11447	-211	-24320	-4140	32767	-2999	9477	17061	110	105	1
-9816	-11532	9848	-1306	12554	7537	-18572	-2984	44	-698	15575	9066	-19668	-5400	-240	-9923	4093	3875	-32768	-32768	-30052	29991	-5022	-8896	-5344	18100	-4164	17399	13132	15454	-16236	-3572	29688	9519	1849	-4024	96	98	1
-11040	-11616	9992	-295	15053	11372	-20132	-5452	372	-1936	18690	10024	-19020	-5724	1912	-9332	4768	3800	-17976	32767	28012	-28698	-9092	-30349	-16300	3644	-396	-11947	22468	13260	-8384	-664	12	6481	9024	-2880	128	115	1
-10636	-16712	9668	543	16646	18349	-24340	1552	4392	-7568	21006	9639	-25288	-1188	8740	-14804	-5244	846	21988	11892	-16264	-24357	4297	-25039	-31716	-4720	1708	-9509	4428	8930	-3664	-312	-4328	18703	19079	6587	110	105	1
-11204	-16872	11052	3292	19999	27708	-23036	4548	8660	-16802	26738	9371	-17492	752	13124	-9483	-10760	1506	-13540	-13372	27600	-19141	21791	-11249	-13728	-18732	-7840	-25215	-5954	4111	-28480	19144	11084	-1166	-2799	6049	114	108	1
-12724	-18008	11948	2155	25044	32767	-25404	116	1356	-12591	29873	9824	-20964	4544	21728	-15558	-12533	-745	-18544	-22220	32576	-3627	20830	-9874	-23788	-14844	-6780	-6788	14021	8487	-32768	-3296	12464	-32768	-15072	4801	126	114	1
-30700	-26576	17876	1253	30976	32767	-28632	-3900	-3156	-8770	30338	13416	-23208	-9128	-5008	-18831	-9212	-3972	-12328	5808	13244	4622	18506	-10634	-12508	-1508	-4648	5143	16677	12015	-6852	-24052	-1024	-25380	19755	-1978	132	118	1
-27776	-29144	16560	8318	26134	32767	-28800	-2608	-6660	-2041	28909	15153	-22132	-13388	-8276	-4003	-20544	-11296	-32768	22656	-1432	-4802	8548	-2658	-20460	20072	-264	4992	16359	11153	-6500	2612	-5392	29184	14543	-7090	130	117	1
-8904	-29184	20772	10286	24104	32767	-29288	-2608	-3636	5638	21741	15975	-28432	-7036	-7824	15514	-27938	-14931	-13184	-2680	13956	-7464	1922	-5861	-17136	10988	-6208	-3769	9806	4257	-16000	29376	-11132	32767	-454	2993	122	111	1
-32300	-20568	18120	22542	24550	32767	-18720	1492	-22956	19868	11158	15684	-31292	3084	-8144	22845	-27407	-14360	-11280	3560	13284	-1790	497	-2380	-16032	-3584	-5936	-402	7452	3008	-20704	17240	-1404	-11759	13527	20858	130	115	1
-14520	-19944	21148	15131	-7460	12105	-14788	7012	-15756	12681	5923	15629	-32088	7132	-5024	19289	-27943	-8803	-10624	728	14616	-142	783	-1363	-17756	-692	-6116	2301	9103	4169	-18824	-6812	-1420	-8671	14045	1959	133	119	1
-1460	-12780	8336	5889	-13788	1604	-15148	7100	-12656	13637	3677	12878	-28252	6896	-4424	9790	-26158	-7105	-10244	3160	13220	1502	1948	-149	-17304	804	-4036	439	11636	6057	-14620	-6484	744	2114	10496	-8051	139	122	1
472	-10860	4572	6354	-12644	-1661	-6224	7460	-10716	-8665	-8045	3418	-22764	6368	-5368	4069	-22984	-8213	-10528	4068	12556	1543	2140	-179	-17252	1524	-2008	1036	7571	4755	-15276	4980	640	10988	14214	-4860	118	108	1
-928	-9088	3284	6301	-11913	-7779	-4964	4564	-9372	-8441	-12068	245	-18220	5092	-5284	-329	-19416	-9321	-10712	4376	12264	1392	2069	-559	-15292	1564	-896	5442	6026	2407	-14944	9460	-272	6139	15801	819	122	111	1
-2068	-8756	3412	4152	-12868	-14891	-4184	1592	-10200	-6287	-18859	-2558	-15284	4124	-5920	-3414	-17322	-10015	-10820	4456	11920	750	1010	-1207	-16184	3112	-1892	6814	6225	2715	-16060	8560	-1388	-873	16798	4037	115	108	1
-4024	-8476	3660	784	-15245	-21086	-3188	1064	-9664	-656	-24607	-4007	-11716	2932	-6172	-5070	-14186	-10458	-10784	4352	12184	642	923	-1309	-17020	2108	-3348	2633	6158	3152	-17720	1728	-1944	1508	15563	112	117	108	1
-6552	-8708	4140	-1900	-18539	-25762	-3224	1868	-9464	3394	-29531	-6436	-11004	2476	-6864	-4341	-10703	-8289	-10912	3212	12724	638	872	-827	-16448	72	-3412	1629	4743	2065	-14828	-1188	200	6207	18349	30	115	108	1
-8840	-8012	5020	-4582	-22352	-28691	-3348	1492	-9232	6041	-32768	-9064	-10528	1192	-7212	-616	-7780	-4271	-10876	3588	12504	645	1110	-648	-16684	1336	-2860	3223	4511	1558	-13624	20	2472	14620	21720	606	118	109	1
-10836	-7084	6236	-9066	-25856	-30274	-4708	2352	-10204	7584	-32768	-11112	-9308	692	-7948	4836	-6347	-1609	-10808	3484	12420	644	1220	-705	-14972	-1600	-1452	6449	5177	2118	-14536	2344	2036	16273	18690	-333	119	110	1
-13356	-6952	7752	-16214	-28596	-30722	-6148	5208	-10588	5656	-32768	-11984	-8004	2760	-8992	11543	-5552	431	-10480	3716	12576	622	1582	-746	-15068	-1148	616	8076	6937	3690	-17628	6536	492	9485	13685	-2111	119	110	1
-16964	-9272	9296	-22041	-31321	-30623	-7608	8820	-10900	-2776	-32768	-14149	-7032	5516	-9824	15070	-4535	3247	-10540	4308	12848	1036	2322	-1318	-17464	280	1420	4850	8267	3706	-17188	6264	928	3498	10017	-302	128	115	1
-19876	-10940	11528	-26302	-31938	-31024	-8512	10812	-13080	-11283	-32768	-18404	-5452	9680	-10916	15384	-1239	6681	-11168	4816	12368	1750	2716	-3343	-16376	1044	992	5027	8860	3988	-16696	1908	3984	2567	10133	2085	119	111	1
-27760	-13984	15164	-29928	-29346	-32768	-14248	9892	-14252	-19849	-32768	-24442	-5260	12252	-8924	9048	471	9219	-11176	4604	12000	1602	2317	-5362	-15732	660	-836	4584	9522	4985	-16196	1880	3564	4982	9502	963	128	117	1
-32768	-8448	18636	-30996	-22928	-32768	-19388	6204	-16620	-21279	-32768	-26242	-8576	6028	-4336	3910	-1565	7668	-10688	4072	13228	-424	4613	-6236	-17056	-2288	-1608	2531	10435	4674	-18272	3876	1392	3233	7663	670	117	108	1
-32768	2820	21000	-30625	-15601	-32768	-23284	4152	-19564	-23233	-32768	-20780	-19356	-8376	2284	-475	-2594	-626	-11240	1840	13308	-2088	7158	-4779	-15996	132	-852	-3480	12193	3444	-15608	3180	5056	-483	7326	462	125	112	1
-32768	10756	12056	-21772	-15525	-32768	-23312	-224	-15832	-18691	-27932	-12858	-23296	-8728	20904	-20563	337	-9263	-11512	3436	13584	-2181	11160	-4529	-19252	16	-336	-4798	14487	4799	-17232	-1136	6976	2499	6949	-796	123	113	1
-32768	24780	-5300	-2798	-13510	-22562	-12992	-2128	-11852	4701	-15034	-8215	-23256	-10796	31152	-5990	11695	-4356	-12036	4488	13344	-2710	15209	-6416	-18360	832	1756	-1150	17147	4447	-17516	4944	3380	7779	6199	-2651	104	104	1
-32768	32767	-10916	-6712	-7883	1000	-3572	864	-9432	9008	5976	898	-21204	-6192	23612	-3177	6945	-2395	-11968	3644	13128	-4769	18676	-8743	-18244	-340	1768	-1029	19681	5601	-17712	8720	4512	5749	5748	-1005	114	110	1
-8084	9244	22168	29286	2699	28390	-13276	6508	-2920	-2322	20908	3995	-15276	-3056	9180	1713	5346	-931	-12388	4212	14372	-6492	23854	-11638	-20424	-1760	2616	1547	22548	6321	-19216	8060	8912	7514	4108	-1545	119	115	1
2340	-6140	1216	5415	14991	21519	-32768	11016	9648	4169	9664	1735	-22672	7544	9308	-7293	9759	-1269	-14004	8836	16372	-10390	28827	-16393	-26248	-5544	5880	2899	24974	7700	-22968	4216	12248	7091	-2022	-1087	133	120	1
-26484	-6136	22264	2478	21886	19668	-17788	8960	-492	4094	12184	3784	-19684	5932	4036	4884	10364	7268	-14380	8064	16580	-13153	32767	-24982	-26052	-5352	6608	4617	27639	9215	-24300	3452	13924	8873	-6624	-1292	132	115	1
-28936	-23844	21276	-1928	13431	15057	-15668	11584	-3420	2473	13991	4401	-17612	-1772	-7220	11248	4597	5545	-25972	4516	15744	-13124	32767	-28628	-26280	-3264	1768	6795	30377	10087	-23168	-1920	14284	8852	-16462	-6202	117	113	1
-11920	-6668	16780	6422	6958	9050	-23452	-12432	-15312	-4262	19576	1293	-12664	-2724	-17332	-3482	14975	-6778	-25488	10128	18260	-13001	32767	-31596	-30128	1820	-4440	4095	31448	9129	-24416	9672	-3972	17135	-19611	-1006	83	90	1
-11396	-8992	8564	7513	1901	4608	-16484	-5132	-11720	27528	8678	6150	-10248	-3156	-17960	-16826	18974	-2860	-23060	16432	27644	-14970	32767	-32768	-29296	2084	-5976	2882	25584	5949	-27812	7452	-4360	265	-24967	2198	111	106	1
-12000	-7516	9464	5006	49	2903	-15176	12672	-7876	18341	4443	6891	-14948	-10184	-9820	-2518	12049	2759	-11544	-11548	15404	-20602	32767	-32768	-29364	1764	-10068	-4188	12732	2165	-30312	1924	-6032	-11087	-28010	4800	130	112	1
-10088	-8824	9228	2960	23	1776	-15628	9732	-5280	-10394	10642	963	-20284	864	-4764	15683	10697	2672	-32768	9248	32767	-7355	-4478	-27395	-12984	10152	-23016	2089	11931	-3481	-27868	-2780	-4288	-11909	-28411	2422	135	120	1
-10028	-8560	9500	1186	432	505	-17316	-276	-5236	-12222	8893	-1405	-20124	3620	-3976	15212	11160	2384	-7076	7400	18976	17114	-22554	-13482	-12704	-6696	-8588	5738	8229	-4309	-27836	-664	-1236	-958	-28899	1924	128	117	1
-9548	-9656	8536	344	694	147	-18376	-7964	-3160	5811	4959	2439	-15392	1396	-592	-181	12820	9114	-3032	14136	8876	14336	-22034	-6392	-10664	1072	-11792	7822	-1149	-7505	-25528	1656	-3344	1492	-26776	3787	166	136	1
-9476	-10100	8108	449	771	529	-17432	812	-1908	10505	2786	3068	-14792	-2812	-1632	-8452	14148	4306	-2720	14516	6384	372	-21650	2935	-7764	1708	-12260	3787	-12743	-6022	-21544	2580	-4504	584	-26061	3192	154	130	1
-9340	-10416	7776	749	723	1122	-15340	3060	-1956	-5018	5126	3284	-16476	-5828	-852	-5515	14170	2523	-1092	7088	8480	-1955	-19037	15307	-5804	2352	-12060	231	-18589	-9367	-18588	2060	-5752	-517	-23968	4593	133	119	1
-9460	-10116	7944	1543	394	1871	-15264	1272	-2236	-14156	7625	310	-16152	-2256	-976	-3183	15776	2578	-4880	3928	10636	5875	-16748	25618	-5268	2028	-11332	-5830	-22167	-11064	-14948	3516	-5100	-3627	-19603	3919	124	114	1
-9756	-9176	8672	1487	52	1968	-17468	-2280	-1604	-9734	7403	1240	-16620	108	-420	-6655	16725	5524	-7464	2900	11396	8170	-18579	29555	-4440	140	-9604	-6702	-24783	-13621	-13212	1832	-5936	-8984	-17426	4287	131	117	1
-9580	-9500	8416	1325	-231	2025	-17568	-3652	-1840	2053	5123	3126	-17020	-1432	1116	-11282	16308	5153	-8396	-348	12288	10761	-20739	28568	-5044	-792	-10248	-5629	-32264	-12605	-10648	-764	-7320	-12589	-14403	-165	124	114	1
-9684	-9328	8292	1586	-650	2296	-16096	792	-1448	6010	4674	3969	-13912	-1892	-336	-9434	13686	4287	-11916	-1108	14492	15591	-23535	26425	-4636	-416	-11068	-1833	-32768	-12723	-9104	-1672	-8184	-14515	-10934	-4329	127	115	1
-9216	-9696	8288	1756	-1152	2641	-14196	3252	-968	763	6835	3210	-15880	-1312	-6016	215	8325	4600	-15640	304	16340	19186	-27440	25459	-5288	240	-11848	2769	-32768	-13912	-8188	-1892	-9960	-14207	-8578	-6705	131	117	1
-9708	-9312	8672	1894	-1163	3308	-15812	-4	-1108	-1401	8912	2105	-15276	-3228	-4024	4728	5843	4483	-20036	2288	18352	20146	-31447	26143	-7592	2648	-13420	5665	-32768	-15669	-8000	-1696	-10736	-12810	-3940	-6766	148	127	1
-10028	-8944	8968	1633	-869	3444	-17540	-1624	-3336	5053	8578	3052	-14788	-852	-1396	4721	7718	4139	-26844	3928	19880	18974	-32768	29151	-11620	4892	-14044	3462	-32768	-17464	-8344	12	-11240	-12550	-1011	-5272	133	119	1
-10068	-9068	9400	1598	-313	3997	-16904	1784	-4496	8995	7436	4207	-15460	3160	-2440	7191	7494	3966	-32768	-296	18928	17602	-32768	32767	-16104	6872	-15400	2278	-32768	-20345	-8756	936	-10016	-14045	1613	-3225	42	70	1
-10144	-8340	9908	675	402	4030	-16548	3376	-3056	5687	8668	3983	-16360	3208	-2400	8321	6773	4229	-32768	-6180	14532	15916	-32768	32767	-20500	7828	-17964	644	-32768	-21128	-10176	8156	-3868	-9436	1850	3056	45	68	1
-10716	-8660	9412	-58	1018	5242	-16432	692	-1624	2179	11144	3744	-17048	468	1428	4541	7447	2223	-32768	-14044	8100	13156	-32768	32767	-25104	6908	-16408	2043	-32768	-21966	-15908	6568	11408	54	-74	9527	44	69	1
-9116	-9016	12760	1156	2564	5742	-18196	-1860	-1888	655	12836	4665	-18284	92	3176	-2388	6138	1464	-32768	-18424	-7480	8891	-31183	29376	-22556	8164	-13688	1797	-30253	-17688	-20480	-6416	25684	3204	6018	9783	44	67	1
-10452	-10408	10624	1015	6282	6755	-20504	1000	-1400	-2970	14390	7182	-19628	528	588	-11605	6294	2208	-32768	-32768	-28664	12977	-23561	10731	-11584	344	-8568	10749	-17702	597	-21184	-7784	32767	-3870	9171	5898	253	179	1
-10664	-9808	11460	2737	8998	9125	-18888	-228	-1336	-4550	16098	7407	-18604	-2820	1072	-14977	5499	3236	-32768	-32768	-32700	27605	-1182	278	-6296	10696	-4864	14677	6618	10435	-16416	-4388	30428	4069	4495	-4841	253	185	1
-10528	-10620	12144	3409	11692	10596	-20044	-1604	-1564	-6106	17950	9157	-20224	-5580	-724	-14781	3641	2433	-32768	-16428	-22136	-1153	9898	-13971	-9012	12148	-13784	-2818	23928	12313	-10972	-4332	11912	9888	5661	-3428	253	186	1
-10484	-11888	12520	3406	11868	11173	-22352	3032	60	-5247	18916	9573	-22072	-2776	3152	-14736	174	2831	21848	32767	32767	-89	-1173	-6705	-32768	-32768	22468	2263	9565	6778	-3496	156	-3964	14827	9844	3091	253	187	1
-11568	-13560	12664	4081	18909	22894	-23908	2960	4700	-13306	22262	10092	-19724	-2100	9360	-6086	-4773	2500	-2892	15360	5444	-23161	31868	-20804	-17328	5844	516	-32768	2452	3061	-20504	5516	440	25475	14927	5291	253	186	1
-16296	-20248	12788	2691	22971	30352	-25288	28	4792	-11244	24318	9513	-20820	-116	10788	-7865	-7051	1647	-16604	-18784	27656	-11133	23637	-4633	-16128	-12424	-7652	-16758	7459	8089	-32768	28396	16192	-31515	-18606	9273	253	186	1
-15668	-20864	14908	5161	27417	32767	-28300	-5368	1760	-8215	25945	10887	-20844	-3640	6320	-2816	-8401	-805	-16776	-1756	20304	3128	16740	-10231	-17072	-11736	-7780	-2094	21056	7801	-19320	-23352	6324	-32768	12397	5826	253	186	1
-26320	-27116	17848	9087	23243	32767	-26908	-5092	-7532	-3120	25650	12153	-21924	-12436	-3972	-6364	-21160	-8566	-32768	28124	-2704	-3732	9174	-2579	-17428	15680	-3508	2513	15768	11792	-1456	-12180	-7220	12964	24169	-3659	245	181	1
-25028	-28612	18412	11298	19503	32767	-30096	-1204	-4196	-1724	22580	11891	-25160	-2496	-5504	10853	-25966	-11850	-12452	724	11768	-8060	2484	-6069	-17260	11760	-4572	-7231	10967	4864	-13152	21540	-13444	32767	-48	-7713	203	157	1
10256	-29120	16168	23636	20645	32767	-22660	-28	-8536	10461	14502	10968	-30844	7032	-6352	12594	-26513	-12882	-11692	3468	13088	-6532	-67	-5217	-15200	2516	-4560	-5324	7905	3008	-18960	29256	360	-8153	11681	18242	156	132	1
-21620	-19924	23716	6826	-3852	21745	-15692	11208	-25836	9511	13493	12560	-31084	8160	-6268	12614	-26787	-12564	-11120	1496	14660	-4476	-921	-3918	-16920	-1488	-3736	-3878	7174	3745	-21604	-740	-172	-19971	14004	10582	163	133	1
-4044	-17324	8356	-7348	-11418	3214	-14060	14604	-5220	-6028	4711	2678	-27048	8372	-3784	1810	-25348	-8424	-10296	3220	13664	-1846	-81	-2358	-15252	-3060	-2092	-353	10747	5900	-14252	-11428	3580	-7976	10354	-4642	179	144	1
972	-15812	3808	2079	-8014	-2205	-12204	13376	-4836	-8570	4238	2379	-20908	8588	-3056	-4468	-20827	-10185	-10456	3912	12632	-841	56	-2073	-16732	1468	-1148	-1196	10199	5344	-12544	992	3984	1638	12134	-4642	227	171	1
788	-7484	4632	4042	-2417	-11148	-6624	6584	-6908	-11107	-5752	-5485	-18140	6208	-4312	-9566	-19137	-10895	-10156	5148	11984	-1002	-382	-2950	-15332	1476	-336	-1678	8144	3675	-15204	6324	1876	2553	13610	321	148	127	1
-1932	-8048	6704	-2096	-1197	-20543	-4824	3424	-9036	-4776	-13008	-7338	-16528	4892	-4644	-10206	-17157	-12053	-10312	4968	11840	-2088	-1326	-4173	-14988	1632	-1064	-1433	7827	4398	-15080	5728	1224	-1963	13704	3011	159	132	1
-4812	-7968	8396	-3462	-6838	-25166	-5032	4036	-7284	4810	-19883	-9984	-15436	4888	-4412	-8362	-15831	-11939	-10928	3444	12768	-3095	-2062	-4261	-16108	76	-3628	-3444	8447	3728	-16896	2184	316	-5496	13669	4798	164	135	1
-5712	-4556	10332	-7761	-12282	-27913	-5352	7020	-7520	10340	-25218	-13113	-14428	4944	-4616	-6974	-14003	-9578	-10680	2784	13384	-2927	-1882	-3574	-15440	-1248	-4656	-4272	7651	2996	-16340	-3212	-104	-321	14109	3470	116	110	1
-7852	-3852	11916	-14789	-17732	-30563	-5704	8392	-7844	9980	-30033	-16140	-13464	3264	-4876	-3458	-12343	-5618	-10596	3032	13176	-2135	-1692	-3010	-16284	148	-5340	-3018	7092	3311	-14016	-2880	96	10259	17394	1468	118	110	1
-8684	-4076	13176	-19784	-22231	-31726	-6492	8624	-7228	8129	-32768	-17565	-10308	2544	-5588	2253	-10766	-1081	-10404	3312	12872	-1994	-1662	-2797	-15432	1080	-4464	-1336	6709	4330	-13852	-2120	68	12423	18483	1198	137	119	1
-10140	-3912	14708	-24105	-24407	-30867	-7324	11052	-6916	1005	-32768	-18669	-7752	2916	-6804	6525	-9084	2196	-10548	3492	13128	-1999	-909	-3096	-17060	3116	-4312	-992	6618	3725	-14252	4612	-1716	17642	22444	-240	131	117	1
-12992	-6448	17160	-26167	-26209	-30302	-8252	10728	-8744	-7007	-32768	-19979	-5912	4736	-8520	9814	-6790	3827	-10388	4212	13184	-2154	-309	-4173	-17700	896	-4032	-402	5342	3674	-17364	8828	-6168	-1135	14457	-1162	121	112	1
-14728	-8408	20952	-25037	-25847	-31687	-11108	10192	-11644	-10855	-32768	-21074	-4864	5868	-9904	10639	-2923	5092	-10612	3080	13192	-1831	814	-4986	-16000	-488	-4068	1683	5974	3991	-16464	4064	-2172	-5664	12543	1585	128	116	1
-22396	-10588	24624	-24870	-24009	-32768	-15388	9164	-12356	-14933	-32768	-20493	-5316	7116	-10340	8908	1098	4709	-9120	1320	15336	-1647	3656	-4704	-16860	-1244	-2920	2280	7369	4365	-17432	520	3508	-3176	13052	2257	123	112	1
-32768	-8912	24808	-20820	-24334	-32768	-18048	7700	-16460	-12530	-32768	-19647	-8368	2400	-6908	4302	1829	1277	-10272	2616	14284	-2024	6087	-4624	-17896	-1084	-784	968	8777	3612	-19928	-164	6780	-4542	10846	1456	131	116	1
-32768	492	19496	-16372	-23357	-32768	-23580	4052	-18416	-10563	-32768	-15555	-14732	-7160	1112	4969	899	-6626	-10292	2332	14508	-3746	8759	-4892	-17712	-1376	2016	-838	11196	4212	-18048	312	9220	-2175	8020	138	124	119	1
-32768	10772	3052	-11527	-19713	-32768	-22280	5152	-14400	-2820	-32669	-10131	-18460	-6488	22432	593	1773	-7255	-10896	3528	14472	-5077	11584	-6171	-18392	-1096	1932	-1033	14663	4948	-17096	-3576	9104	4040	6733	1547	130	116	1
-32768	31264	-9820	-8182	-7334	-24006	-12692	300	-12656	9941	-17294	-6912	-30040	-2768	32767	4381	5227	5623	-11080	3144	14472	-6491	14934	-8325	-17912	-324	2060	-383	17829	6162	-17356	-1048	7704	11361	5032	-493	109	105	1
-32768	32767	-5836	-7781	3960	-6269	-4244	300	-9972	5310	4769	3317	-20068	-6140	28028	417	3564	4850	-12048	2196	14728	-8887	18687	-10198	-18664	-112	1960	-173	21250	6237	-17096	10216	4764	14633	3473	-2606	139	122	1
12032	22504	3732	24032	8715	28431	-10152	4980	-4320	-7858	25318	4774	-16892	-5052	9096	5236	6799	1457	-12576	5352	16368	-11599	22918	-13101	-22212	-604	1888	2693	24084	7610	-19952	13892	6800	11335	2294	-1218	126	113	1
-6476	-4524	3944	4016	15813	30384	-32768	13616	916	451	10594	-578	-28592	12760	13772	-14021	3166	4058	-14112	7668	15624	-15066	29175	-19410	-27664	-4180	4244	4430	25358	9414	-24644	6132	13028	10377	-8285	-178	121	112	1
-22752	-10104	19532	-592	24649	18285	-20472	9428	2244	888	16085	7296	-16696	10124	6928	2327	5424	5201	-16996	7304	18108	-17932	32767	-28489	-25908	-3488	4020	5137	27343	9463	-17904	-10428	11604	-6181	-10181	-3949	126	117	1
-32768	-6104	3788	3997	15195	12994	-15668	-1012	-22960	-11124	28654	4916	-14704	-1888	-2716	8690	6393	2438	-22808	8096	23444	-16263	32767	-31223	-27072	-1800	1868	7813	29767	10663	-24804	2648	1904	14154	-15860	-2649	129	117	1
-14148	-3412	8988	8061	3736	9692	-18712	-9892	-18128	3266	23136	711	-10812	-2124	-24524	-20756	16835	-9650	-32128	12704	26080	-18984	32767	-32768	-27696	2324	-4744	5237	27438	9983	-25280	5532	-3784	13860	-21069	530	77	90	1
-13244	-4644	13100	5822	533	4146	-17808	-2876	-14100	32767	9773	10833	-9556	-5596	-15556	-13826	15426	-5218	-12524	21572	23796	-17511	32767	-32768	-26152	-2220	-6552	4999	19962	4876	-29296	3772	-6284	-77	-24496	4346	96	97	1
-10056	-9212	9452	3958	139	2305	-14408	13492	-8236	18764	4280	7415	-19320	-13108	-12004	-3879	11160	4252	-32768	12376	32767	-24930	20231	-32768	-16524	1048	-14888	10858	-20701	9839	-29964	-1652	-5952	-9234	-26776	4589	117	112	1
-10076	-8200	9764	2535	160	1362	-15372	8304	-6200	-11167	12213	2401	-20452	1060	-6120	20633	8486	2084	-18468	8104	32767	10002	-11856	-9622	-16672	-3776	-13008	2315	13541	-1521	-29716	-2340	-2768	-6699	-28334	2692	129	116	1
-9924	-8828	9472	961	551	640	-18088	672	-5028	-11556	9716	608	-15308	7292	12	14415	9726	8966	-3896	14464	12232	15205	-14589	1701	-12680	-684	-11428	10059	4462	-3541	-27216	920	-2752	1382	-27037	3385	144	126	1
-9816	-9308	8608	684	181	430	-17344	-3380	-3352	-190	6224	2249	-12852	5500	-992	462	10476	10704	-2944	13548	9696	3273	-14311	9822	-10232	2192	-12212	5383	-9339	-4086	-23916	608	-4948	3955	-27627	3024	160	133	1
-9500	-10032	8284	834	-295	793	-17804	-340	-3452	2342	4910	4086	-14608	-2556	-2268	-5216	12417	6689	-2624	6104	11940	-1720	-15825	18262	-6520	2584	-12540	-1541	-16514	-4901	-20404	1228	-6020	5652	-26740	4961	161	134	1
-9572	-10032	8040	1092	-514	1325	-15996	1276	-3328	-999	5258	3279	-16944	-1464	-1012	-3572	13742	1441	-2396	4696	12500	-1152	-16035	19559	-6652	852	-12020	-7127	-21619	-8061	-17424	1276	-5496	3703	-22079	6861	142	124	1
-9348	-10088	8052	1653	-1170	2149	-15712	1212	-2596	-3418	6025	2394	-15524	288	-1784	1409	15067	3059	-5968	-2100	13428	14819	-19093	24594	-5608	-1868	-10648	-6868	-24021	-10841	-15072	584	-6396	-1781	-20086	7348	121	112	1
-9520	-9708	8376	2125	-1652	3077	-16388	-1504	-2392	-72	5895	1831	-14936	2112	-1244	-3047	16493	4294	-7836	-1540	13544	20837	-22024	22318	-4896	-2408	-10712	-2016	-32391	-8493	-11892	-1312	-7600	-5571	-17442	4143	115	108	1
-10196	-8384	9236	2045	-1441	3104	-16316	300	-3828	5908	4341	2731	-15888	1912	-876	-8080	18937	4864	-10852	-776	13972	23555	-25198	20826	-4176	-2072	-11208	3191	-32768	-8684	-9412	-1796	-7612	-6936	-14765	-263	115	108	1
-10128	-8472	9248	1623	-1040	2628	-16152	3836	-5212	3134	4275	4008	-15420	-1312	544	-9306	21832	6050	-13620	-172	14828	25325	-27290	21945	-4908	-652	-11372	6492	-32768	-9516	-7680	-876	-8476	-8571	-12571	-3516	127	115	1
-10068	-8492	9304	1087	-719	2392	-15832	4696	-4016	-2279	5586	2267	-16024	-2040	-1108	-9912	20551	6492	-16152	880	16540	25544	-28666	24942	-6344	1436	-12388	7813	-32768	-10479	-5968	-484	-9528	-10535	-7737	-4623	127	115	1
-9736	-8484	9472	569	-263	2629	-16180	3392	-2308	-4074	6721	1354	-16264	1292	-7592	-3309	13045	6714	-20468	2372	19068	24292	-29778	28061	-9820	3156	-13904	5393	-32768	-11373	-4884	324	-10504	-11241	-2725	-5274	134	118	1
-9912	-8516	9788	112	476	2902	-17316	-460	-2212	63	6636	2000	-16576	-132	-8640	7415	7657	6636	-21460	2548	19412	23884	-29867	28699	-13812	4500	-13332	2814	-32768	-13893	-5556	1080	-10296	-12770	1615	-4263	139	122	1
-9800	-9916	9548	-764	815	3570	-17744	480	-2324	4293	6356	3638	-16600	-3408	-516	10100	8777	6881	-32768	-4096	22332	20541	-30859	32767	-18520	6160	-15576	-1791	-32768	-16466	-7388	4784	-6312	-10466	1901	-2104	127	115	1
-9932	-8880	9776	-1334	962	4221	-16584	184	-1192	3647	7670	4155	-17116	-1652	3944	10354	9013	5029	-32768	-15980	18716	18459	-29822	32767	-24068	8480	-13492	-3924	-32768	-19488	-13512	10136	6536	-1333	-1391	3254	128	115	1
-10396	-8228	10192	947	4265	4990	-17612	908	1552	344	10243	6027	-18488	2624	4972	6589	6349	2438	-32768	-19644	7600	9394	-28493	32767	-25752	7560	-15768	-6344	-32768	-21945	-21836	5048	29976	6836	-5536	10387	125	113	1
-9804	-10264	11272	1581	5986	5626	-18652	-2328	60	2707	12894	6990	-19288	4484	6088	-31	6880	2746	-32768	-32768	-21732	6681	-26973	14800	-10544	-9076	-9996	3738	-21958	-6507	-21384	-2496	29280	-10032	18911	15795	123	112	1
-11152	-9140	11036	2801	8173	8098	-20164	1072	-328	443	14681	8584	-20088	2952	4356	-11471	4967	2380	-32768	-32768	-32768	27851	-5552	-5497	-6576	9224	-3580	16854	1837	8512	-17680	-2228	32767	-4358	2122	-3027	127	115	1
-10480	-10268	12572	4205	10399	9894	-18844	-1576	832	-1875	17443	10559	-19500	-3352	-440	-14656	2399	1589	-32768	-25572	-18504	3912	11039	-11767	-8036	9868	-13192	422	21740	13138	-12220	-9800	13712	1552	3668	-10351	106	103	1
-11172	-12596	11624	3712	13266	14402	-21036	1476	-484	-1735	20149	11039	-23480	-9016	1316	-15089	-2323	2395	-1800	26732	12220	-13509	3520	-13851	-32768	-19168	12224	2118	8817	8069	-9356	-3388	-2000	11199	7514	-844	163	134	1
-11568	-16740	11540	5991	17135	22074	-25864	2108	5464	-11391	22530	11059	-19580	-2944	7384	-10600	-6640	1318	-22328	-2424	23796	-21384	22817	-18003	-31260	-3468	-4120	-30635	-7824	9773	-20012	5272	4800	23472	2663	6871	165	135	1
-16076	-20004	13332	6031	20311	31909	-25360	-552	5976	-12637	25301	10905	-22840	508	16964	-6233	-11202	1343	-17312	-18324	29760	-7487	20133	-8416	-17664	-13576	-10432	-11978	16742	11243	-31520	22000	5372	-22175	-6495	8236	122	112	1
-16580	-21624	16480	7375	26531	32767	-31904	-7752	1724	-7602	25397	13942	-22904	-5532	3568	-4170	-8479	-1087	-18680	9072	19848	-1328	14713	-12101	-15800	-2412	-8652	1509	15578	7189	-20276	-21496	-7440	-32348	12170	7131	117	110	1
-23296	-31988	13396	13803	20621	32767	-30876	-6232	1064	-6183	25446	13987	-20960	-11036	-3724	-6376	-20051	-9528	-13504	-5276	20636	-12267	5140	-8802	-20684	17624	-7580	274	13880	13241	-7156	1880	-9880	27510	14333	-5005	127	116	1
-24400	-32768	18728	17170	14937	32767	-29696	-4880	-5388	683	19926	12959	-25608	-4552	-5104	11854	-24391	-11685	-15136	5080	12924	-5259	587	-4751	-15508	5944	-6320	-5088	11978	3720	-13624	20972	-11816	32767	2558	-3428	122	112	1
-5712	-5024	14556	32767	18725	32767	-22344	-2852	-4920	17307	12210	12327	-29684	1880	-8952	16925	-25693	-13403	-11764	6264	11860	-1952	-672	-2576	-16428	868	-5672	71	5567	4279	-19472	23460	-1968	-5568	13116	16256	113	107	1
-17264	-16928	21088	11547	-3705	14387	-16884	11488	-26092	14207	11999	15408	-28456	5424	-3980	17327	-25074	-10345	-10564	2648	13760	-1264	-541	-1653	-18100	828	-5032	-1501	6940	3389	-20856	-4840	-748	-16913	13932	4040	104	102	1
-3324	-19268	7812	43	-7018	-4814	-13856	11364	-5368	272	2629	8066	-27452	4304	-5836	11429	-24626	-8261	-9936	2804	13688	15	542	-583	-16568	-1616	-3136	-1292	7273	5306	-14092	-8624	3552	-3051	11265	-6711	116	109	1
-172	-15840	4628	12090	-4044	-8795	-8164	4736	-10188	-6651	-4646	2728	-23692	4768	-5912	5377	-22610	-9319	-10108	3756	12832	591	1164	-252	-16276	168	-840	598	7967	4154	-13980	156	3628	7035	12267	-4336	184	147	1
-1324	-7856	5052	14287	-2496	-15910	-7744	3164	-9464	-2557	-9472	896	-20048	3308	-6796	222	-19312	-11607	-10016	4300	12528	540	1095	-416	-15724	780	-40	4359	6722	3446	-15444	5924	2800	7813	13036	1135	135	122	1
-3308	-7876	5952	8455	-4533	-22944	-5640	200	-11468	2632	-17759	134	-17480	2016	-6860	-2572	-16197	-13550	-9976	4820	12244	153	815	-1073	-15000	1360	124	8529	6878	3390	-14992	8040	1684	4487	13266	3432	124	114	1
-5492	-8464	5968	5545	-10510	-26209	-4776	916	-10176	10351	-24950	-1260	-14528	1788	-7128	-1785	-14499	-13550	-10048	4272	12660	-745	41	-1719	-16492	2604	-1316	6419	8143	3218	-15448	3492	1556	4319	12870	2119	137	121	1
-7324	-7460	6396	2661	-16690	-28155	-4776	1344	-9944	11468	-25943	-1556	-12856	2456	-7332	-275	-11702	-12217	-10104	3540	13184	-1134	-139	-1862	-16980	2492	-2480	-760	6502	2721	-16120	1244	1276	6423	14571	87	137	120	1
-9024	-6836	7372	-1710	-21405	-30050	-4992	5200	-9908	14537	-32768	-6175	-11964	2836	-7308	2330	-10977	-8951	-10340	3672	12784	-1097	-49	-1834	-16388	640	-2664	-2400	5493	1893	-14092	2000	1760	11437	19095	-292	136	120	1
-10548	-6892	7976	-7115	-24923	-31622	-5436	7708	-8464	10982	-32768	-7800	-11792	2832	-7340	3308	-10742	-8044	-10280	3792	13012	-914	55	-1945	-15568	-1104	-2904	2020	5791	2270	-13700	3464	2232	11749	23707	-824	127	115	1
-12704	-7056	8992	-12961	-26502	-32007	-6528	9768	-8948	3098	-32768	-10094	-7588	4712	-7044	13958	-8906	1073	-10352	3628	12932	-433	296	-1999	-16128	208	-2528	4315	6455	3523	-17480	4204	832	7262	21115	-1386	125	114	1
-15476	-7988	10768	-18153	-27162	-32315	-7168	9876	-9360	-6373	-32768	-12712	-6420	6516	-8220	16404	-6842	4212	-9852	4416	13328	-184	1020	-2155	-17444	392	-1080	2225	6455	3875	-17984	5736	-2028	5526	13476	-1878	130	117	1
-18948	-9636	13576	-22342	-27355	-32764	-9584	9340	-11196	-11879	-32768	-17680	-4788	9368	-8660	15258	-4261	6723	-10184	3588	13240	499	1556	-3430	-16748	268	-1544	1408	6935	3926	-17000	3760	-824	-3151	10824	1299	132	118	1
-25752	-12324	16564	-26299	-26804	-32768	-14808	8248	-13136	-15667	-32768	-21559	-4376	12596	-7488	10434	-2242	8536	-10700	4428	12924	1071	2708	-4531	-16680	-272	-2676	3314	7461	4780	-16936	1784	2348	-2920	11898	1624	133	119	1
-32768	-10608	18376	-26530	-24120	-32768	-19028	5316	-15076	-12571	-32768	-22871	-6916	7588	-4732	6833	-2405	6850	-8372	1084	15952	-369	5786	-4805	-17716	-3204	-2256	3971	8401	5048	-17976	1520	3420	-698	10119	668	135	119	1
-32768	1104	19348	-25850	-18290	-32768	-21860	5104	-19728	-11438	-32768	-19365	-15076	-4476	504	6783	-1214	26	-10500	1436	14276	-952	8574	-3449	-16484	-928	-800	764	10820	4168	-17560	668	5504	-1064	8132	-125	160	131	1
-32768	10592	11060	-22640	-15252	-32768	-23268	6484	-16656	-15802	-32747	-10894	-21812	-2936	18108	-6509	-1928	-7097	-11092	3068	14304	-1249	12937	-2613	-19140	-872	588	-1065	14226	4195	-17308	-1996	7612	1111	7643	-469	127	115	1
-32768	23056	-6136	-11221	-10596	-32768	-13216	-1872	-13860	-6064	-16306	-9126	-24676	-6440	31508	-8431	7083	-6950	-11248	4564	14408	-2289	17095	-3831	-18404	-196	1824	981	16152	5087	-18052	2640	4924	10153	6346	-2529	122	113	1
-32768	32767	-10744	-11394	-3039	-6131	-5868	-3156	-10072	-5160	3973	-3891	-22612	-3572	24880	-17444	8461	-1464	-11904	4388	13468	-4580	20383	-7090	-19108	2488	2456	970	18819	5446	-17348	10080	3244	10538	5752	-1994	131	118	1
2552	22344	-13524	27077	2204	29613	-12464	-392	-3596	1618	21429	3610	-16848	-5332	12900	-10165	5791	-1262	-12568	5172	13536	-6897	24250	-10575	-19408	176	2660	2846	21518	6188	-18576	9852	7360	10130	4499	-1969	140	120	1
2108	-16468	19704	11682	6976	27715	-32768	6776	26192	-818	10331	2411	-19400	-1680	2488	-15047	13477	-4734	-14340	8824	14992	-10477	27509	-15200	-24592	-2056	6144	3839	23827	7079	-21340	6900	10104	7465	3129	-1882	127	114	1
-17180	-4052	17824	5877	23284	19433	-19704	12520	6828	10952	13299	3575	-22168	-3208	13784	1358	1474	269	-15692	8900	15460	-13967	32152	-24340	-24564	-4696	6756	4388	25804	8673	-24580	-480	22984	7709	-16915	-1713	109	101	1
-15272	948	21320	-2072	18499	16437	-9772	9580	-5732	6360	20258	9012	-17648	-2160	-6556	28021	3605	11711	-26352	6660	18692	-15029	32767	-28654	-25076	-2440	1664	3127	28705	10036	-18356	-7972	13420	1285	-11576	-4242	123	113	1
-30456	-32768	-15424	1867	12184	4125	-21912	-6688	-16268	-9165	21728	1833	-11864	10812	-11072	8109	3389	1084	-25800	6652	16792	-11940	32767	-29986	-27956	2408	-996	3025	30137	10460	-22156	9072	-3416	21211	-17168	-1884	114	108	1
-14992	-3556	8808	8034	2229	10070	-18504	-14104	-16668	22121	13465	665	-14624	-484	-16024	-10724	16495	-4133	-30240	10476	23820	-14296	32767	-32571	-29720	3072	-5348	2153	25716	10021	-25144	8172	-3152	6606	-22159	1986	98	110	1
-12952	-8800	10176	6502	89	4425	-16172	10156	-12316	32767	3885	9171	-14324	-9944	-11140	-13293	19475	-3316	4844	18816	19440	-17203	32767	-32768	-25664	-3064	-5648	-1520	18221	1740	-29544	4644	-6592	-6487	-25805	4538	125	115	1
-10464	-7716	10792	4325	-601	2663	-12884	13052	-6248	-4908	8929	2701	-18784	-2200	-6528	5150	13078	-14	-32768	10956	32767	-16695	16585	-31439	-13732	7604	-25740	9462	-6295	4026	-27968	-2604	-6016	-13332	-27497	3164	115	111	1
-9844	-7768	10604	1748	23	802	-17632	7356	-4576	-20228	12262	-2845	-18144	6092	-680	10435	10903	5525	-17608	7732	30692	10506	-20738	-8814	-18360	-8476	-10724	588	14518	-1047	-29508	-2188	-1468	-6171	-29336	1991	131	118	1
-9672	-9004	9236	164	613	-151	-17712	-8444	-3552	-9915	9384	-1153	-15192	4116	-580	109	11877	8052	-4836	11708	11376	14477	-23114	395	-12612	-280	-10928	6902	2343	-7660	-26624	712	-2448	1163	-26211	4334	142	124	1
-9452	-9692	8324	150	506	-57	-18272	-8176	-2028	12605	4087	3327	-13736	-868	-2316	-8197	15077	6063	-3796	13108	8536	3816	-23489	6997	-9372	3920	-12528	3908	-9398	-6806	-23744	1188	-4368	2490	-28000	3800	145	125	1
-9344	-10552	7904	936	-120	623	-17328	3344	-1160	9798	1813	3292	-15560	-6012	-2344	-5443	15076	4045	-1432	6324	8772	-567	-22827	15101	-6620	2244	-11724	-1336	-17135	-7567	-19996	2200	-5564	2606	-25721	5320	145	125	1
-9200	-10336	7980	1564	-354	1389	-14088	4832	-3800	-10886	5976	1915	-16072	-5392	-2056	341	14730	2802	-3024	2308	10440	6360	-20188	22132	-6384	2876	-11536	-6536	-22846	-10233	-17600	1644	-5748	-499	-20054	6424	120	111	1
-9396	-9704	8484	2054	-746	1873	-15752	960	-2184	-17535	8589	-523	-16932	-200	-2816	-1937	15319	3865	-7292	612	12304	13533	-21288	24408	-5540	1356	-10784	-6318	-27081	-12149	-14080	3372	-6420	-5272	-18407	7487	119	111	1
-9400	-9548	8796	2021	-767	1958	-18960	-5708	-2256	-4849	6198	1405	-16012	1168	-20	-7177	17300	5498	-8788	8	12572	17699	-24467	23275	-5092	-452	-10172	-2711	-32525	-11947	-11004	1460	-7628	-10225	-15517	4786	116	109	1
-9652	-8840	9320	1019	46	1579	-17316	-1564	-2012	7063	3273	4020	-15308	-892	740	-10107	16761	5634	-10840	-376	12532	20759	-26548	21268	-5112	-248	-10392	1403	-32768	-12053	-8960	-268	-8352	-13591	-12454	42	120	111	1
-9480	-9004	9040	678	305	1556	-15320	5408	-1956	3420	4611	4300	-15856	-212	-2004	-2992	13904	5052	-14204	704	13416	22922	-27609	20345	-4920	-64	-10928	5208	-32768	-12991	-7060	-1096	-9296	-15486	-9767	-2764	127	115	1
-9204	-9632	8976	86	349	2059	-14680	3344	-1004	-6019	7801	1720	-17184	-32	-4944	2325	9078	4301	-17540	2440	14780	22878	-28698	21130	-6648	1452	-12332	8512	-32768	-13461	-6104	-1636	-9720	-15778	-6327	-4178	128	116	1
-9620	-9332	8964	-163	187	2863	-17868	-1968	-1164	-3171	8698	1159	-16716	-2272	-3048	516	8367	4950	-23244	4600	17648	21458	-28877	24784	-10508	4568	-14316	5384	-32768	-13000	-5476	-1804	-10444	-13294	-2401	-4878	127	115	1
-9808	-9480	9092	-385	173	3756	-17452	-2232	-2332	6124	7614	3592	-15464	140	-932	466	8679	4108	-32768	3644	19672	18663	-29252	32219	-15936	2624	-14112	2102	-32768	-15069	-6348	-1716	-8860	-12459	659	-4813	120	111	1
-9840	-9636	9212	-785	56	4962	-16616	756	-2068	7954	8041	4163	-17276	1764	504	3681	8489	3281	-32768	-5432	19032	16459	-30312	32767	-19432	8440	-16040	752	-32768	-16073	-9668	5236	-2348	-8458	-433	-2303	114	107	1
-9980	-10064	8848	-1134	-117	5274	-16808	1512	-488	2869	10506	3261	-17736	-128	1776	4365	6728	2834	-32768	-20288	12324	14814	-30208	32767	-23824	8388	-14556	-3187	-32768	-17484	-15616	10692	11048	2866	-3179	4975	107	103	1
-10532	-8216	10796	1743	5021	6423	-17436	1796	-340	-349	13525	5761	-17504	-1132	2680	-568	5958	1610	-32768	-23956	1956	9102	-27795	31045	-23144	13552	-15896	-8752	-30365	-19298	-21476	1168	23608	6883	1292	10853	99	99	1
-10096	-9560	11480	1064	7253	6587	-19948	-1608	-2092	2243	14200	6872	-18024	4288	4336	-8786	5116	1772	-32768	-31824	-21200	3454	-26529	11458	-12328	-4448	-10852	-1050	-19390	-5898	-18536	-3600	28280	-5495	13680	11738	112	106	1
-10764	-10068	11136	2122	9835	8651	-19664	-316	-1200	302	15573	8579	-19376	-1108	1012	-11085	4441	3999	-32768	-32768	-29328	21943	-9597	-7135	-5860	8352	-7076	16393	3517	10306	-14856	496	28160	-5197	6496	-1707	98	99	1
-10628	-10936	12488	2635	12091	10672	-19020	-432	-460	-3093	18681	9619	-19676	-4372	-588	-12999	3183	1495	-24996	-13000	-7412	2256	6677	-11855	-9060	10052	-10912	2834	19991	12204	-12692	-10244	11668	2738	5983	-7125	121	112	1
-10968	-12280	11252	2262	14730	16239	-21364	3380	28	-5677	20622	9334	-22164	-4108	4712	-13709	-1922	1699	2172	24120	13896	-5585	5164	-13257	-32768	-14780	9936	5594	9665	7118	-8840	-6148	540	12370	9339	-1645	141	121	1
-10944	-14760	11412	3691	19693	22696	-24836	3136	7064	-12198	23094	9748	-19084	-452	8904	-7817	-5606	1231	-9084	11800	15652	-14731	22113	-21084	-31336	-8292	-2024	-20563	1210	5320	-22712	712	-48	27636	5826	2746	111	106	1
-15976	-19988	12468	3469	23308	31420	-25632	-648	4076	-12326	25821	9835	-21668	432	14560	-8390	-8922	1058	-19676	-17364	28128	-6095	22491	-6337	-18460	-5244	-5128	-5585	10245	9731	-32768	14440	14828	-8259	-11537	1089	103	102	1
-19276	-23364	16264	2658	29262	32767	-29480	-5512	-316	-7853	26284	11208	-22344	-4336	4332	-5157	-8757	-863	-13636	-232	17688	3712	16867	-10068	-17088	-7068	-7996	4788	17992	7643	-19564	-14200	1512	-28181	11005	8986	110	105	1
-24944	-30132	17720	9579	23812	32767	-26868	-3672	-6376	-3666	26023	12524	-21424	-13172	-5168	-10431	-19534	-8828	-26172	27396	-856	-4517	9005	-629	-18520	16796	-3360	5964	17740	11897	-8376	-3568	-8272	24425	18416	-4102	130	116	1
-24720	-23376	20280	14097	19607	32767	-28504	-4192	-3828	1655	21204	12971	-24692	-4188	-6824	13751	-23195	-11709	-13920	4224	11504	-6002	2735	-3950	-17208	10124	-4836	-3287	11095	4836	-10916	22616	-9952	32767	3131	-4978	109	105	1
18044	-20540	22040	25977	20147	32767	-22768	-252	-8592	15459	13127	13038	-29916	2356	-9216	19602	-25818	-13565	-12048	3088	13256	-4222	871	-3430	-15844	1672	-3788	-1295	7809	2118	-18444	22280	-700	-7107	13102	14051	105	102	1
-16188	-22276	24264	9488	-4986	15081	-17380	10016	-22252	12645	10134	14137	-29436	6660	-4876	18442	-26385	-8400	-11016	664	15124	-2914	28	-2793	-17200	64	-4068	-1056	7614	3125	-20284	-2524	12	-18102	14065	7458	118	109	1
-1684	-18616	9712	-1690	-11323	-321	-13688	11852	-4236	1470	1420	5170	-26164	7140	-4560	9845	-25699	-5901	-10096	3468	13432	-645	792	-1240	-15964	-2340	-2088	484	9596	5275	-15144	-10048	2892	-3702	10099	-5897	115	107	1
1348	-15928	5024	5732	-8704	-5101	-7888	6104	-9216	-9506	-6161	352	-21944	6580	-4436	1317	-22242	-7379	-10440	4172	12696	-253	982	-1102	-15668	384	-1184	2406	10386	4901	-12820	848	3688	5984	11400	-5017	137	121	1
-624	-8984	5140	6908	-6524	-12837	-6800	5472	-7956	-7521	-10125	-2048	-17968	4924	-5136	-5892	-18651	-8846	-10324	5244	11892	-282	743	-1550	-15812	2248	636	4171	8227	3991	-13556	3180	3176	6820	11787	-3892	124	113	1
-3252	-8628	6080	1683	-7966	-21233	-5408	2000	-10596	-6117	-17043	-4423	-15348	3288	-6072	-8166	-15449	-9766	-10380	5072	11844	-849	-214	-2698	-15512	3328	-48	2769	8367	2996	-14932	8244	2148	4937	12736	152	125	114	1
-5648	-8584	6484	-1279	-13042	-25840	-5316	900	-9480	1349	-23810	-5964	-13396	2648	-7004	-8036	-13867	-10311	-10024	4564	12364	-1862	-906	-3489	-16868	2948	-1924	-2187	8307	2589	-15176	5008	548	-2982	13091	2089	120	112	1
-7600	-7316	7460	-4454	-18131	-28595	-5388	2560	-9196	7116	-29154	-8451	-11572	2248	-7088	-7009	-11332	-9496	-11644	3212	12932	-2350	-904	-3851	-16000	980	-3808	-5301	6985	2223	-16996	1304	956	-1780	14917	1337	128	115	1
-9876	-6624	8288	-9407	-23063	-30945	-5720	3660	-8908	9430	-32768	-10798	-10824	1364	-6856	-1792	-9409	-6621	-10668	3664	12800	-1770	-589	-2722	-15932	-188	-5328	-3539	6804	1726	-14816	-80	1188	4804	20117	2339	118	110	1
-11048	-7472	8808	-13848	-26838	-32204	-6832	4728	-9096	9032	-32768	-12484	-9516	808	-7104	5638	-7877	-3031	-10764	3312	12948	-452	257	-1793	-15496	-2144	-5948	1733	6950	2396	-13556	-524	-144	12281	24416	1445	114	107	1
-13232	-8720	9700	-16854	-28201	-31599	-8012	6912	-8884	5140	-32768	-12896	-7688	2624	-8336	12201	-6540	-444	-10584	3228	13140	381	1355	-1356	-17044	-52	-5388	4324	6811	2982	-16828	1196	-1112	13105	23329	-1382	117	109	1
-16456	-9868	11220	-19550	-28592	-31944	-8432	8756	-9804	-1698	-32768	-14737	-5992	5580	-9288	14787	-4907	2099	-10448	3424	13056	796	2471	-1145	-17564	1324	-3728	2057	6437	4408	-17736	5584	-4892	4224	15371	-3933	120	110	1
-18960	-11752	14420	-22426	-27319	-32768	-11868	9240	-11896	-8738	-32768	-17842	-4940	8948	-9812	13175	-2613	5069	-10648	4120	12900	1125	2967	-1816	-15940	452	-1028	2260	6622	4439	-15896	6544	-2508	-3926	13168	-196	122	111	1
-25576	-14860	19248	-26282	-24740	-32768	-17768	8784	-14364	-15117	-32768	-21028	-5324	10700	-7840	8760	-540	6550	-10620	3904	12880	813	3445	-3041	-14524	308	-452	4118	8994	4378	-16160	2736	4928	-2441	12722	1626	125	113	1
-32768	-12172	22020	-28194	-23224	-32768	-22136	8844	-15388	-21385	-32768	-24486	-9484	5080	-2968	1364	-1714	3918	-10884	4264	13072	-488	5173	-3911	-17464	460	448	2930	10648	4528	-18256	1288	6732	977	10531	552	124	113	1
-32768	1208	19840	-32768	-20115	-32768	-21440	656	-17796	-23483	-32768	-19845	-18636	-6820	5472	-251	-5478	-1577	-10680	3228	13484	-1302	7349	-4303	-16708	-228	876	211	12845	3889	-17584	1440	7120	-1000	7988	-295	132	119	1
-32768	10512	9408	-26993	-16908	-32768	-21452	1288	-13744	-15520	-28967	-16252	-22904	-7948	24104	-7832	-1467	-9639	-10944	3700	14020	-2010	11131	-4995	-18664	-572	636	-1152	15945	4186	-17368	-340	6968	3106	7149	148	114	107	1
-32768	32767	-5212	-12784	-7272	-21998	-10428	2284	-11940	-10615	-11564	-8596	-24304	-11064	32767	-7272	7160	-5285	-11280	3864	14000	-3123	15934	-6365	-18576	-1008	568	-1088	16387	4178	-18172	-1116	6884	9762	6169	-1163	129	114	1
-32768	32767	-12556	-8323	-1849	-1610	-1500	-5300	-8972	-981	14891	2672	-19984	-4972	23336	-8369	4125	-3973	-11800	5188	14172	-4991	21144	-8899	-21140	-2044	2180	1810	22146	5444	-20212	5548	4940	13224	3539	-3097	83	89	1
-9200	-3888	25012	30766	8350	25296	-21436	2116	8196	4838	25482	3784	-15324	-7132	3764	-5719	6081	-2616	-13108	5416	14736	-7315	28355	-12665	-22332	-4488	4696	6120	25567	6822	-20824	8952	12208	13417	-1025	-2812	130	111	1
9708	2684	7788	22593	25666	32527	-32768	6348	2300	22986	7425	-593	-21456	2092	-2400	-9875	16211	-1710	-13632	10092	16188	-11662	32767	-19055	-29300	-4904	4908	5773	28426	8577	-26032	-552	18584	8962	-18663	-2293	176	135	1
-30924	6356	28892	619	24377	15625	-16188	23588	-6028	29011	11347	12866	-32768	-3500	16604	30114	-16564	1621	-17500	8376	20672	-17202	32767	-28311	-28484	-5144	2872	4122	30710	8680	-22924	-5244	18192	2535	-14011	-6180	115	109	1
-32768	-32768	-5596	-12697	5488	12339	-15888	8308	-18632	-4931	23217	6472	-15336	14284	-4140	24682	2449	7329	-32768	12152	32767	-15083	32767	-30484	-29400	8404	-2872	3756	32767	6744	-25480	14588	-3828	20881	-16967	-3197	118	110	1
-13972	-632	17144	9013	5436	12763	-18564	-19116	-17896	-8487	21380	-3623	-5496	8608	-24136	-8986	17837	-1136	-32768	15424	31612	-16167	32767	-32768	-31168	7628	-5584	-1074	29978	5644	-27600	13588	-3964	1115	-22029	4232	87	94	1
-10168	-5048	13348	10178	544	7059	-19936	-5536	-12700	32767	3767	9170	-7508	-7972	-18352	-21470	18261	-6612	4512	28352	25932	-25701	32767	-32768	-27088	2412	-5700	-9813	19023	-3057	-31512	6436	-5888	-16655	-27662	6700	98	100	1
-9888	-7992	11092	7000	-956	4566	-14080	14408	-8524	11792	6308	7454	-20112	-17664	-8564	-6567	12962	-2734	-32768	10132	32767	-27576	13702	-32768	-17772	12624	-18348	-3065	-23293	5005	-29948	1500	-5724	-22015	-29490	4743	124	112	1
-10492	-6124	11976	3266	-201	2416	-17740	14556	-5876	-16825	11588	-3394	-23824	7848	-2800	17127	8057	2075	-15700	3928	30156	7114	-24087	-18319	-13784	-7312	-9964	-9248	15715	-7777	-30608	-1712	-1236	-12008	-31457	2678	119	111	1
-9548	-7880	10564	-177	1168	170	-16916	-2912	-4088	-15742	10943	-563	-12288	12576	-756	3760	10226	9654	-2668	12336	8136	16122	-24322	-9241	-9064	-432	-11560	3563	1914	-9740	-26472	-164	-3232	-4305	-27671	3681	140	122	1
-9328	-10228	8356	-459	1100	295	-19452	-9628	-5320	8678	5001	2324	-13152	444	-3472	-10353	13740	10352	-4284	16964	4004	2694	-23149	-1838	-7572	2724	-11916	6697	-9318	-9498	-22492	1228	-4316	-3843	-28599	4819	148	127	1
-9244	-10232	7980	226	615	588	-17736	-324	-3100	12611	1663	4877	-15104	-6760	-3024	-13768	18037	4112	-2748	10516	4868	-4812	-22365	9248	-4584	2588	-11160	5415	-17500	-10237	-16992	1364	-5848	-1959	-25857	3837	165	135	1
-9000	-11172	7348	1171	201	1748	-14324	6052	-3956	-12143	4917	1578	-17012	-7508	-2272	-5118	17174	50	-4108	5636	7616	3761	-19113	20756	-3816	5284	-11372	548	-20127	-11899	-14956	748	-5888	-332	-19805	3747	120	111	1
-9484	-9124	8904	1747	-229	2336	-15344	-1028	-836	-16729	7755	-328	-16252	-1264	-1116	-2517	16634	2038	-7704	5576	8876	9896	-19927	26722	-4144	4132	-9560	-2402	-25154	-13469	-12184	2428	-6728	-1246	-16628	5096	88	94	1
-9712	-8732	9320	985	39	2098	-18388	-5132	-1228	-3824	6420	860	-16504	1260	1596	-6402	15514	5762	-9176	3120	10068	10984	-23233	27139	-3584	3596	-9296	-3562	-30630	-13849	-11144	1260	-7708	-4410	-14503	4306	126	114	1
-9552	-9640	8624	831	8	2224	-16916	-1136	-616	4443	4748	3597	-15276	-2456	3848	-8214	15479	6093	-12196	-76	12208	15885	-26930	24959	-4332	2800	-9852	-3726	-32768	-12683	-8932	1776	-8096	-9157	-10945	746	128	115	1
-9416	-9516	8720	1302	-220	3009	-15208	1244	-936	2845	5749	3803	-15312	-4436	3388	-7065	16477	5541	-15136	-1372	13260	22581	-31278	21958	-4192	-136	-10404	875	-32768	-12819	-7804	36	-8800	-13548	-7283	-1635	131	117	1
-9460	-9708	8784	1698	-398	3870	-15300	1296	-1064	-213	8403	1541	-17500	-1860	-3348	-392	14004	4105	-17436	-692	13584	27538	-32768	19187	-4704	-644	-11040	6927	-32768	-13769	-6444	-2616	-10260	-15552	-5929	-3886	140	122	1
-9864	-8748	9448	1447	-110	4323	-17040	244	-1320	1108	9737	1448	-17444	-1436	-3988	134	13251	4018	-19728	1512	14800	28388	-32768	19694	-7028	872	-13056	10541	-32768	-13176	-5352	-3792	-11392	-14311	-2115	-5654	142	123	1
-9660	-9032	9516	180	94	4401	-16556	356	-2924	2270	9209	2877	-14376	824	-3668	1393	7559	3633	-25052	2528	17500	25034	-31756	25345	-13340	572	-13776	9142	-32768	-12220	-5384	-2956	-9956	-11594	1318	-7203	140	122	1
-10132	-8204	9468	-933	384	4724	-15876	1632	-4368	3442	9687	3151	-14044	2804	-516	2483	9308	2981	-32768	-1384	21292	21317	-28407	32767	-17912	5952	-15104	4779	-32768	-14265	-7604	2264	-4440	-9469	1807	-5868	119	111	1
-9572	-7036	11304	981	3008	4319	-15848	4288	-3056	1390	10889	2907	-15380	2552	204	2216	8476	2899	-32768	-12316	18588	16079	-27315	32767	-22760	11272	-14684	-78	-32768	-16322	-12216	12200	3512	-1076	-628	1217	119	110	1
-10056	-7160	10920	851	3359	4350	-17316	120	-1488	1151	12132	4076	-16672	-460	-804	1858	6297	3300	-32768	-19212	10100	7675	-24823	32767	-27472	10312	-13404	-12142	-32768	-20567	-19512	8960	20196	4279	-4079	9177	118	109	1
-10568	-9324	10592	780	7154	5285	-18232	-2668	-1836	4956	13472	5486	-16708	-1460	2428	-2230	6075	2477	-32768	-21340	-13944	-1869	-26495	27097	-16000	-864	-13572	-15952	-24933	-16665	-18840	-6484	26792	-8678	16699	15973	113	106	1
-10936	-9628	10736	1435	9012	7805	-19536	-80	-2048	1374	15361	6403	-20304	-1024	2064	-8320	4946	1863	-32768	-32768	-30560	13239	-14345	8520	-4224	-5092	-3580	8176	-4393	668	-21852	-3020	32767	-18532	6480	5921	93	95	1
-11368	-9424	11188	1438	11679	9884	-18440	-888	-2628	-4189	18470	7393	-17852	-2264	2088	-12392	3957	2218	-32768	-32220	-22360	15252	7691	2714	-9540	13700	-7516	3927	14570	14158	-14004	-10320	23816	-2638	4402	-8263	124	114	1
-11020	-10656	11328	1451	13901	12053	-21680	-1076	-1180	-5757	19806	8031	-21480	-3284	1412	-15839	1910	1868	736	10736	7864	-17553	9606	-8450	-11920	7508	-3100	-7548	27246	11559	-13524	-4700	9064	6536	5478	-3888	128	114	1
-10920	-13728	11636	778	17075	17904	-23044	3292	-140	-9139	21834	8362	-21464	-2032	8292	-15007	-4794	1595	29608	4736	-9440	6695	9701	-11353	-32768	-20556	3324	33	6739	4942	-2848	-7164	-7572	18373	13603	1025	129	117	1
