#Activity	walking 
#ActivityID	1 
#Date 10-06-18-13
acc_rf_x	acc_rf_y	acc_rf_z	gyro_rf_x	gyro_rf_y	gyro_rf_z	acc_rs_x	acc_rs_y	acc_rs_z	gyro_rs_x	gyro_rs_y	gyro_rs_z	acc_rt_x	acc_rt_y	acc_rt_z	gyro_rt_x	gyro_rt_y	gyro_rt_z	acc_lf_x	acc_lf_y	acc_lf_z	gyro_lf_x	gyro_lf_y	gyro_lf_z	acc_ls_x	acc_ls_y	acc_ls_z	gyro_ls_x	gyro_ls_y	gyro_ls_z	acc_lt_x	acc_lt_y	acc_lt_z	gyro_lt_x	gyro_lt_y	gyro_lt_z	EMG_r	EMG_l	act
-1708	-9192	9048	-7627	-29579	-4660	-5704	-516	-1328	-1852	-21120	-6966	-15072	-1748	-7452	9186	-16210	-5861	-11564	1144	12096	-407	694	-985	-16300	-4284	-2740	-2492	4225	1574	-14668	-2644	-1988	-4604	11798	4984	135	133	1
-6852	-10352	8644	-7105	-32220	-13005	-5848	2440	-3400	-932	-27537	-7549	-12612	-1320	-7932	13116	-14476	-4889	-11016	2576	12148	164	1061	-777	-16032	-3608	-820	4620	5630	2677	-16020	-3728	-592	674	12037	6381	126	132	1
-9876	-10272	9224	-4689	-32768	-20075	-8836	2956	-4564	-5776	-32759	-9181	-11920	-1860	-7608	13920	-12459	-3783	-11416	3100	11520	375	1193	-814	-15752	-1800	-28	7910	6737	2978	-14860	-1952	1860	5606	13679	5732	121	131	1
-12856	-6964	10332	-4129	-32768	-24875	-11824	3348	-4488	-6684	-32768	-11363	-11136	-3280	-8076	14840	-10423	-4007	-11228	3456	11644	-342	1046	-1008	-17380	160	656	6324	7035	3191	-15868	120	2524	10127	14138	5731	122	133	1
-17580	-5080	11892	-6769	-32768	-27771	-12572	3464	-5244	-4660	-32768	-12582	-9244	-1556	-9672	19724	-9378	-3405	-11828	2568	11780	-1699	701	-2070	-16000	476	-1244	1512	6653	2383	-15364	448	1848	10786	14577	5920	126	134	1
-21208	-6028	12976	-8866	-32768	-27690	-15632	3972	-6016	-4088	-32768	-14481	-7908	1300	-10764	21512	-8745	-2570	-11896	2012	11800	-1798	662	-1803	-16588	-2252	-1148	3478	8512	2189	-15680	-536	332	8625	14820	6385	125	130	1
-21528	-8112	14528	-8080	-32768	-27061	-21016	5044	-6628	-2203	-32768	-15581	-8492	1588	-10100	14720	-6727	-3193	-11964	3392	11712	-1538	98	-1520	-16388	-1444	-732	5566	10046	3430	-17060	304	2784	1202	14637	6019	128	134	1
-26024	-7780	19148	-7574	-32768	-27208	-26188	8944	-8876	-387	-32768	-15224	-9164	2012	-6448	6236	-3330	-3406	-12280	2756	12088	-2003	106	-1845	-16504	24	-2168	3383	9972	3010	-14860	2204	-2124	3481	15742	6789	127	130	1
-32768	-5596	23728	-11568	-32768	-29915	-31196	13524	-14096	-4536	-32768	-14427	-10096	4344	-1268	3680	-2422	-3121	-12072	1868	12396	-1063	625	-2009	-16720	-1064	-2580	1717	9610	2048	-15980	2920	-1892	2101	13959	4436	127	131	1
-32768	-1424	18080	-13683	-32768	-31257	-31024	10620	-19320	-10945	-32768	-13899	-13212	4060	2936	6433	-4922	-4229	-12264	2768	11968	-1143	1714	-2138	-17240	-476	-1432	2261	10415	1945	-18384	1780	1088	-586	12247	5130	124	133	1
-32768	1424	2560	-10013	-32768	-27733	-24752	9044	-21612	-10026	-32768	-13344	-18572	-4040	10324	-10	-1573	-6250	-11988	3272	12676	-1089	3094	-3283	-17252	-124	352	2415	12354	1617	-17688	-2336	6076	641	11765	6913	128	133	1
-32768	11448	-11072	-6032	-28586	-20999	-19848	9924	-25860	-8253	-27300	-13618	-19620	2632	23928	671	-4582	-5561	-10188	3132	14860	-2305	5342	-4846	-19148	-2056	352	707	14333	929	-19116	-4000	5680	5574	11215	6551	126	134	1
-32768	30680	-25400	-11633	-16830	-13418	-6264	8852	-27512	-4503	-11616	-9544	-16108	804	32708	-1971	-787	-2611	-12088	1468	14796	-3736	9074	-5716	-19060	-3020	-1440	-1939	16458	540	-19088	-1320	2744	5178	8919	4559	120	132	1
-32768	32767	-27636	-13181	-14147	-12018	-1768	5772	-23904	2276	8546	-791	-15428	-840	24940	-3915	-6246	-348	-12384	1864	15008	-5672	12916	-6531	-19664	-1264	-1948	-7016	17748	-524	-20048	2556	2352	3531	4444	1998	121	130	1
-16560	-3068	-5572	12860	15072	5821	-13416	6708	-16868	4118	19732	4275	-11828	-4528	10836	-3628	-3364	-1003	-11128	3628	15968	-7241	17058	-8680	-21620	-3116	-2636	-8258	18565	-481	-20540	2836	2880	5000	1654	408	119	127	1
7480	-21764	32767	9734	23759	9655	-32768	-2332	32767	-2756	9763	4430	-16248	-1648	-6540	-4533	11623	-286	-10808	3816	16660	-9260	22483	-10054	-21952	-3120	-2844	-7960	18801	-394	-24128	568	5848	7257	-3804	-733	119	124	1
-16768	18436	3208	12710	22148	19004	4064	22080	-11868	27590	6652	-127	-22452	-1200	5432	887	1687	2393	-8976	4224	17704	-9969	30748	-13949	-26684	-7476	4612	-1349	22682	1037	-22592	-4920	12592	3423	-13784	-2939	123	127	1
-16768	-4812	20460	-274	29946	3154	-25020	13440	300	6194	17480	8948	-11796	2936	7592	22961	3700	2761	-7708	8528	20208	-11934	32767	-18481	-30908	-15732	11448	5418	26200	2823	-18904	-21848	13668	4072	-14784	-10636	123	126	1
-27668	-2176	17664	-2089	18421	16500	-25456	3660	-8044	2731	18083	1445	-23228	11532	4556	9706	9894	2435	-15428	6788	19648	-14028	32767	-24014	-31124	-15668	12868	13286	28906	3833	-19916	-17840	12292	11276	-18073	-16492	128	129	1
-20104	-20496	10144	4138	13298	6913	-22532	1192	-6288	9022	16396	995	-21272	-5456	-7572	-9091	13606	1211	-32768	-5876	6472	-7433	32767	-29256	-25772	4488	-12188	9042	30095	5250	-18840	1696	0	28197	-12014	-13991	128	128	1
-11672	-2048	13124	8745	3893	8324	-14884	2380	-6824	13517	11054	250	-12760	-12624	-8320	-5469	14502	-6173	-32768	10988	11144	-10064	32767	-32768	-30788	6436	-10768	1258	25489	3546	-28632	7872	-11892	32767	-7864	-9348	127	129	1
-12436	-5076	12528	5687	1136	6332	-15992	4980	-5572	6258	10253	728	-15016	-3724	-7080	-205	10144	-3851	-32696	9520	24592	-1009	32767	-32521	-22228	3328	-4360	-9267	16432	2005	-32768	1072	-18400	17116	-19033	4848	128	136	1
-11996	-4700	12268	3789	1036	5013	-16952	4576	-4448	-1285	10429	448	-16364	-4428	-5064	-1630	10346	-3337	-22204	8460	15408	-2006	21089	-22526	-16420	1184	-11748	-6614	9913	1594	-29564	3188	-10156	4171	-31958	2967	137	134	1
-11088	-3980	12144	2833	395	2973	-17436	4036	-3852	-1571	8547	251	-16440	-5904	-3216	368	13358	-2181	-23392	13192	19040	6685	-17685	1973	-7876	1784	-5784	3651	4091	-370	-25620	-2056	-924	2611	-32768	-863	133	134	1
-10508	-4060	11972	1895	664	1618	-17412	3872	-2860	1218	6060	110	-15876	-3384	-1780	2245	14051	102	-4800	13864	14552	6211	-30595	10438	-9688	-72	1320	8319	-4523	838	-24296	1148	-5484	7868	-23602	1322	125	129	1
-10316	-3756	12196	810	949	118	-16536	5392	-2664	2841	4094	-373	-16868	-1080	-636	3376	14854	1077	2148	9084	10136	4771	-30350	12291	-6460	1284	576	3637	-13507	-214	-18864	2880	-8276	7649	-18640	3477	121	121	1
-10296	-3968	12080	-356	1174	-911	-16780	4684	-2108	1213	3397	-994	-15812	-624	-1036	2830	17196	244	-3964	5388	8416	5837	-28241	13291	-5504	2716	-2112	570	-20906	-1920	-15400	3000	-8980	2191	-17776	3958	122	120	1
-9832	-4600	11680	-1176	1198	-1409	-16060	3876	-992	-2070	4147	-1117	-15508	464	160	485	17865	-1318	-6076	4540	8300	9680	-30417	14747	-6108	1072	-2688	352	-27139	-3001	-13364	4668	-9640	-4021	-17467	3471	127	118	1
-9088	-5080	11084	-1416	1166	-1112	-15104	1716	208	-5443	5361	-1092	-14256	-876	2172	-2856	17352	-1441	-8996	3612	8772	12265	-31720	16429	-7072	-380	-3752	2784	-32292	-3877	-11132	3608	-9376	-7499	-16449	2193	126	124	1
-9176	-5840	10672	-720	963	166	-16124	-932	832	-5213	6045	-1057	-14452	-3356	3924	-3625	16541	-2157	-14364	1948	10300	15489	-32768	18995	-8892	112	-5340	6586	-32768	-3988	-8836	3636	-9596	-10895	-14408	1451	127	124	1
-9728	-5380	11164	601	632	1024	-15996	-832	664	-348	5472	-199	-15100	-2544	3688	-152	18569	-4185	-15456	1664	11048	19036	-32768	22705	-11352	-676	-4836	7380	-32768	-4823	-7696	3936	-10180	-15992	-12278	582	129	123	1
-9932	-4996	11244	1361	395	1525	-16092	2460	-1020	636	6309	843	-15648	-1484	4408	2247	20049	-4588	-15752	1864	11160	22456	-32768	25884	-14048	-1836	-4504	6609	-32768	-4330	-6784	4868	-11700	-22942	-10820	-327	124	123	1
-9888	-4948	11560	1527	261	1568	-16112	2664	-660	-2236	8478	727	-16612	-3872	-124	-63	17932	-3792	-18268	1668	13416	24047	-32768	27195	-18804	-2384	-8624	5372	-32768	-3372	-6680	2916	-11912	-23555	-9051	-106	123	119	1
-10268	-3940	11720	1417	470	1148	-15704	2256	-608	-1674	9208	1191	-18632	-3732	-2276	-818	12440	-3542	-30620	-1320	16976	25329	-31172	28114	-21504	-816	-12388	6044	-32768	-5179	-7740	-2076	-8220	-16002	-7542	-1178	124	121	1
-10296	-4012	11928	605	815	741	-16260	2964	-64	-1657	9958	1798	-17356	116	2628	-3015	9564	-2373	-32768	2076	20324	24149	-32768	30931	-30348	-5568	-15832	9148	-32768	-3912	-10192	-7968	-2920	-11041	-8999	-3063	125	122	1
-9956	-4964	12028	91	1284	851	-16440	1432	372	-2030	11072	2054	-17304	-676	4348	-6087	10151	-2483	-32768	-7772	19544	21950	-32768	32767	-29948	-4048	-16948	15624	-32768	-4002	-10820	-5700	6260	760	-6067	-1489	121	125	1
-10296	-4736	12240	-172	1903	1314	-17056	1000	-8	-979	12190	2915	-18288	-3532	2500	-4859	8802	-3487	-32768	-9316	11216	20674	-32768	32767	-26636	1288	-18016	16726	-32768	-3275	-17052	-320	8868	16488	1264	6204	119	124	1
-10368	-5168	12424	-130	2999	2155	-17156	804	-532	1024	13536	3933	-17264	-4380	3872	-5808	7040	-3797	-32768	-14124	-1128	11663	-31771	30042	-25792	488	-18936	8813	-32768	-1527	-20372	-2020	15568	2947	-1726	7727	122	124	1
-10684	-5764	12900	-382	4815	2770	-18236	972	-896	2337	15190	4854	-17712	-2760	4280	-8306	6564	-3003	-32768	-24520	-19572	6578	-19520	18788	-25212	1076	-19460	7906	-32274	-972	-15964	-6672	25544	-5752	286	8116	126	119	1
-9296	-4384	15752	664	9619	4771	-19664	3936	8	4167	16593	5345	-19504	-3572	2664	-8505	4805	-1683	-32768	-32768	-29584	13109	1286	8385	-4484	3584	-22392	4571	-914	7283	-13644	-14812	32767	-3448	335	930	126	111	1
-11132	-4068	14656	1254	12358	6281	-18252	4004	-1788	7870	17898	6183	-18720	-6868	2864	-7270	2089	-659	-32768	-21156	-18208	-598	13867	2918	-7408	6972	-22196	-9169	14361	3519	-16060	-4084	22400	272	-6929	1093	125	122	1
-11008	-6760	15776	2152	18535	8144	-21800	3668	-3900	9912	18655	6700	-19108	-5644	136	-4269	1588	216	-31472	-13756	-412	-22529	15221	-4568	-14772	568	-12012	-18849	23296	1886	-14448	3832	7768	-2227	-852	5004	122	121	1
-8424	-5144	15848	2830	24234	12439	-21728	7752	-4584	7929	18668	5809	-19956	-2108	1476	-6446	-584	1515	13836	32767	32767	-5550	-1427	-2582	-32768	-30276	32767	-7585	6241	1323	-9016	-1492	-7080	-19813	18766	4727	126	119	1
-9004	-5016	16588	2306	31335	15367	-25916	6700	-1736	3277	20339	6387	-24784	-2544	10120	-6516	-7807	1805	-17012	-27524	-4412	-28146	15838	-31541	5752	-5928	-20404	-32768	2414	5407	-20484	-7028	4008	-6422	12229	2065	129	127	1
-5700	-5864	18216	3660	32767	17653	-28632	8872	8736	-3083	22225	7383	-18412	3380	17712	-7833	-22107	870	-19692	-624	20624	-3123	22485	4858	-29640	-17248	-3868	-9957	14661	-3034	-19052	-6844	5028	-17429	-628	-2492	121	124	1
-7012	-7880	15804	5220	32767	21054	-26704	11260	13172	-10388	25949	5782	-22280	15044	10268	-12532	-12499	6939	-13368	-12180	18100	-832	21893	-8161	-16784	-9228	-6064	-10438	13914	3986	-13444	-18664	2880	-5865	10329	106	120	121	1
-30492	-5592	9436	-2357	32767	23585	-24380	6740	-16	-18423	29943	4803	-20040	7304	6352	-28456	-17425	10083	-18764	5900	13384	-422	14697	-8836	-20836	-3276	-4160	-826	16311	6673	-18332	832	-4568	8480	11363	-1204	119	123	1
-32768	-4872	4092	-1812	32767	27173	-24404	-3852	-12248	-8950	31144	7485	-19972	-6032	-12672	-32768	-17820	7347	-32768	15764	6212	-8680	7433	-6278	-20936	14624	-5096	-2474	14343	7478	-21052	14420	-2684	3017	8844	4693	116	136	1
-32768	-12108	17744	-1126	32767	27357	-25848	2220	-6328	-2641	22600	8937	-26644	-19308	-16720	-22112	-20529	-3040	-13168	3404	11408	-8398	5325	-7201	-18992	2720	-4116	-10465	10226	3987	-16548	11724	-4976	-2643	10543	7176	120	136	1
-31704	-16532	21544	-6862	31769	20845	-19448	-656	-10796	3418	19089	10071	-25512	-13500	-10904	7889	-23877	-5342	-13464	1408	11356	-8804	2946	-7163	-16232	-156	-4124	-7740	7978	2662	-14200	5504	-5280	-7994	11743	5334	130	131	1
-32768	-22812	22120	2876	-9592	9702	-13452	-8	-9176	4207	7193	6934	-25460	-6480	-3504	14601	-22932	-3501	-14484	1144	12948	-4874	454	-5937	-17604	-4180	-6036	213	8484	2221	-17744	-484	-4760	-7216	10373	4023	130	125	1
-6168	-12660	20460	1448	-32768	-2358	-8040	-2544	1360	-738	-1751	4089	-24344	-2204	-3568	11326	-21192	-4623	-12512	1616	12744	-2016	-48	-3440	-17796	-3132	-3980	5333	8919	2269	-17056	-1748	-2540	-4707	10128	3050	123	126	1
2528	-10928	12264	-2164	-32768	-3973	-9736	-696	2624	-2897	-10042	-2995	-20880	-3224	-6060	7308	-19327	-5540	-12324	1440	12632	-1280	421	-1452	-17172	-2716	-3952	4007	7798	2295	-16852	-2416	-1732	-3224	12077	3722	124	123	1
2028	-9452	9008	-5011	-32768	-5715	-7340	-132	112	-2792	-17965	-3977	-17908	-3340	-6120	8660	-17188	-5565	-11524	2856	11880	-37	874	-153	-17176	-1848	-2760	2229	6386	2254	-14640	-340	-2156	-2031	10660	3831	130	127	1
-3260	-8764	8396	-6066	-32604	-9788	-6492	-496	-2280	7	-25551	-5577	-15052	-2632	-7372	11228	-14852	-5444	-11064	4172	11480	-5	1142	-109	-16792	-876	-1240	-718	4816	1773	-16544	216	-2016	-4281	11810	4650	125	129	1
-8320	-10144	9324	-5706	-32768	-16391	-8288	2976	-4956	-2889	-31811	-6083	-13540	-2260	-7372	14031	-12847	-4682	-11724	3376	11144	-67	1080	-441	-15676	-2336	-1672	1179	4710	1858	-15168	-780	-1044	-1348	12610	5285	122	128	1
-12704	-7776	9988	-5437	-32768	-22711	-11348	2364	-5224	-6461	-32768	-7105	-11868	-2632	-7424	15542	-11336	-4548	-10972	4108	11232	291	1007	-874	-16268	-2144	-264	5821	5712	2419	-15816	-1396	328	3266	12112	4718	118	128	1
-17468	-5492	9804	-7702	-32768	-26567	-11584	3496	-5444	-5869	-32768	-8733	-10200	-2668	-8352	18837	-10070	-3772	-11252	3084	11400	603	1180	-1850	-16084	-2260	-712	7234	6211	2704	-15472	-2196	1648	9040	13209	5406	117	129	1
-17812	-6876	10440	-8921	-32768	-26046	-14044	3068	-4912	-8218	-32768	-11644	-8040	472	-8748	20880	-10162	-2855	-11124	4736	11476	478	1354	-2017	-17328	-228	268	5905	6794	2380	-17256	-1044	2400	12370	14510	6623	123	127	1
-18756	-8904	11828	-7468	-32768	-24275	-18336	3432	-5976	-6666	-32768	-14149	-8008	2760	-8840	15197	-8575	-2080	-11392	5780	10908	-873	1038	-3481	-17456	660	-140	2679	6515	2117	-18076	-1536	2656	11359	14854	6579	124	129	1
-21532	-9132	14920	-5511	-32768	-24793	-22436	4844	-6708	-977	-32768	-15190	-8748	1804	-7540	8790	-5201	-1860	-11848	4652	10932	-1986	-109	-5064	-16412	-152	-864	2037	7333	2088	-15408	640	-1048	8956	17079	7322	123	126	1
-29992	-6456	20988	-9005	-32024	-27685	-27452	11320	-11564	-807	-32768	-14656	-9964	3844	-3844	5721	-3000	-1948	-12924	3532	11412	-3303	-1488	-4777	-15328	-1504	-416	3126	8837	2658	-17856	1484	2428	4132	14264	6681	122	128	1
-32768	-1044	20888	-15803	-32503	-30429	-30412	13320	-15016	-7394	-32768	-15031	-10540	4284	1308	8557	-3750	-1875	-12312	2496	12032	-3544	-855	-3987	-17048	-776	368	1861	10328	2742	-17568	1924	3532	-702	12828	6943	121	126	1
-32768	2364	13240	-15155	-32326	-26637	-27348	8792	-19388	-10251	-32768	-13972	-14080	-1160	6756	6467	-5831	-3682	-12148	2276	12064	-2379	373	-4232	-17244	-668	1228	-1294	11890	1987	-19928	544	3800	-3061	10358	4459	124	131	1
-32768	6684	960	-6808	-29483	-21032	-22096	11088	-22236	-5117	-32768	-11043	-18952	-1096	13752	2360	-2512	-6103	-12104	3432	12168	-1879	1754	-5845	-17200	528	-956	-1718	13540	2048	-16384	-1396	2120	909	9942	5165	121	130	1
-32768	13624	-12288	-1113	-24649	-17167	-15772	8512	-26532	-5296	-22860	-9628	-18200	2720	22788	-1363	-3283	-4994	-12072	2864	13816	-3526	4309	-7395	-19092	-2628	-3756	-1735	14687	1469	-18108	100	508	5662	10574	6131	122	130	1
-32768	28272	-23612	-7178	-15538	-11196	-7328	8292	-24540	-2746	-7699	-6560	-15856	1556	23968	-4895	708	-288	-12408	120	14660	-3923	9306	-5921	-19460	-4004	-2984	-2800	16709	68	-19808	336	1172	3841	9166	5440	120	129	1
-32768	24280	-23324	-6566	473	-4309	-5896	6844	-21896	2254	7072	-786	-15492	-584	18760	-3436	-5298	988	-11912	2532	15364	-5072	13402	-7093	-20788	-2608	-2152	-7622	16960	-239	-19784	-444	452	2678	5791	1920	118	127	1
-32768	14720	-11572	8742	11920	4680	-9716	8340	-23260	5725	17376	3849	-13068	-4268	9516	-2566	-549	-1737	-10520	2728	16116	-7065	17738	-9179	-21588	-4044	-1812	-7930	18365	14	-21288	-616	2740	4236	1729	545	122	128	1
-6756	-14028	32767	7698	13672	9480	-32768	5704	32767	-10256	11710	8923	-13900	-4152	6888	-3256	1272	-1920	-9984	3260	17544	-8580	23457	-10683	-25516	-5308	-724	-6492	20059	666	-23336	-1168	6752	5584	-2506	-327	119	127	1
-15160	14372	1928	1945	19986	15561	-3772	17812	-8244	15252	7432	-1568	-24044	3972	3916	-6854	4805	6445	-8496	4776	17732	-9887	32767	-14167	-25788	-10300	2700	-2382	22127	2012	-23128	-5788	14060	6562	-10892	-2962	132	130	1
-15936	-7036	19192	-6634	27227	1800	-24932	8504	852	-3745	18556	9454	-14320	2528	10124	12149	2309	5600	-6000	2192	20160	-10607	32767	-14048	-30944	-20140	11996	8887	25986	3447	-19404	-19304	13908	4373	-17139	-12501	118	127	1
-24172	-7488	15424	-6240	17091	10107	-23620	4412	-5596	-1523	17762	1326	-21164	4716	5956	1375	11766	1371	-14200	6332	18016	-10560	32767	-19411	-27460	-12364	13952	20765	29827	5398	-22044	-17520	12892	10502	-17554	-17789	126	130	1
-16568	-17228	9228	1159	13004	5817	-21336	-316	-3532	6340	15907	1381	-18036	-6844	-6100	-12298	15470	-447	-32768	-2772	1220	-2539	32767	-26684	-26144	9488	-13412	12574	30837	6299	-17580	3584	648	30638	-10553	-15168	129	131	1
-13816	-6392	8852	8720	7158	7103	-16324	-3072	-8760	11985	11084	-429	-13340	-11164	-7800	-4377	14749	-4484	-32768	10088	12376	-4452	32767	-32768	-32680	6156	-12704	-2716	25292	2446	-28616	10188	-11848	32767	-8254	-8164	129	133	1
-13032	-6824	11592	7016	3388	6302	-16492	5668	-6824	8755	8148	700	-15320	-6096	-10500	-343	13753	-2703	-32768	10140	23092	3729	32767	-31869	-21960	5596	-4404	-10768	17660	756	-32768	1456	-16800	14613	-20393	5363	127	141	1
-12888	-3468	13020	4500	1418	4496	-17236	6424	-5304	-494	8394	-55	-16924	-3832	-7344	2020	12821	-1717	-17776	16188	19584	3165	15670	-23111	-16960	3368	-10524	-7013	11475	756	-28928	4064	-9068	2812	-31706	4065	145	134	1
-11140	-4416	12552	2300	973	2473	-17660	3616	-2484	-1925	7405	-455	-16152	-3168	-3276	3674	15728	-1516	-21116	17568	20184	6351	-23093	-1264	-9240	2392	-1888	1267	3540	-989	-25304	-2424	-1320	700	-32350	326	138	134	1
-10536	-5468	11608	1932	80	1998	-17112	1732	-1112	2665	5032	-656	-15968	-3384	-1028	3144	16245	954	-1596	15604	15892	5167	-32312	6236	-9444	-632	3320	4408	-5825	527	-23016	-484	-5904	6472	-22940	2840	126	132	1
-10156	-4272	11712	1420	76	1011	-16584	3548	-684	6179	3191	-547	-16412	-2460	1368	4870	16591	945	2592	10856	10944	5263	-31067	8741	-6128	-964	1632	3385	-13962	-330	-18040	1416	-8380	6877	-18746	4281	115	125	1
-9232	-5196	11052	854	686	187	-16556	3400	-160	4605	3611	-561	-16572	-1592	3020	5248	16703	-629	-3328	6532	8924	7252	-29998	11249	-5624	1688	-1660	3727	-20680	-1531	-15628	3040	-9140	1641	-17425	3966	119	117	1
-8592	-6112	10696	1122	935	898	-15196	892	1364	188	5292	-104	-14920	32	4640	2209	15930	-2648	-7708	5312	9040	11499	-32220	14680	-6668	1160	-2968	3722	-26776	-2272	-13228	2416	-9604	-4301	-17147	2843	126	120	1
-9136	-6464	10116	1902	1031	2472	-15004	-296	1044	-4856	7689	182	-14084	-212	6392	389	15951	-4827	-11856	5292	10296	13339	-32768	17548	-8612	608	-4592	6033	-32026	-2741	-11540	3400	-9240	-7141	-16169	2907	128	121	1
-9884	-5312	11336	2615	644	3845	-16176	524	364	-4850	8686	806	-14292	-224	6392	-145	17394	-5487	-14648	2988	10648	15375	-32768	20759	-10556	-368	-4928	7672	-32768	-3157	-10068	4532	-9800	-12006	-14072	2485	128	122	1
-9728	-4808	11948	2475	385	3282	-16072	3092	332	-1217	9241	1422	-17300	-3112	1012	-4649	16646	-3083	-12440	1096	10560	19267	-32768	23476	-13208	-1476	-3296	6320	-32768	-3353	-9268	5680	-10076	-18118	-12690	1626	126	122	1
-10184	-4312	12076	1555	663	2059	-16620	3488	-844	-928	10535	1760	-18504	-4116	-2820	-4546	12687	-1844	-13856	1780	11148	23630	-32768	24217	-17228	-3048	-5912	1818	-32768	-1885	-7332	4612	-12312	-24199	-11708	316	120	120	1
-10876	-4160	11952	930	1064	1583	-16328	3640	-2660	-1195	10720	1924	-16228	-1496	-3104	-1677	10247	-2310	-24552	1988	13572	23236	-28617	25550	-19612	-480	-11736	1331	-32768	-4687	-8200	208	-9444	-23460	-11219	-894	122	123	1
-10068	-4640	11712	433	1079	1345	-16388	3688	-1740	-1894	10561	2015	-14592	-992	-780	-3280	11738	-2804	-32768	2336	20156	19271	-26702	27839	-27832	-6596	-13968	4095	-32768	-4382	-9416	-5680	-4360	-13691	-11137	-2686	124	123	1
-10588	-4748	12100	128	1526	1425	-16952	2072	-2204	-1614	10170	2160	-15760	-3144	-1280	-3657	12312	-2167	-32768	-4244	19852	19305	-30722	32614	-28508	-5296	-18356	12345	-32768	-3630	-10972	-8852	2168	-8862	-11844	-3398	127	127	1
-10740	-4668	12028	-252	2052	1749	-17036	1960	-1752	-521	10205	2890	-17328	-5780	-824	-1774	10371	-2606	-32768	-10396	12964	20745	-32032	32767	-24896	-812	-17776	20715	-32768	-2793	-10680	-2464	6176	7883	-1128	4306	123	122	1
-10240	-5908	11724	-361	2818	2416	-17396	372	-920	1490	11363	3651	-17280	-3628	3392	-1636	9603	-3174	-32768	-10976	5908	14143	-32768	28464	-26476	3056	-17648	10544	-32768	-2151	-14144	592	9824	14404	2774	8589	121	123	1
-9736	-4772	13960	720	6346	4132	-18228	2064	496	1477	12797	4251	-18600	-1332	6232	-5240	9089	-2323	-32768	-18564	-8940	9039	-28027	21814	-20968	-348	-20708	6220	-28038	297	-17584	-2980	13612	-698	-977	6516	125	126	1
-10704	-5176	13448	1152	7847	5771	-17720	1992	800	3827	14784	5282	-19172	-688	5456	-8088	6322	-1912	-32768	-25856	-21964	8780	-13652	15367	-10932	1616	-24068	3698	-14764	5202	-17332	-7332	24924	-7075	543	5386	126	116	1
-11748	-4676	14016	1463	11772	6955	-18128	3916	-1272	7519	16467	6296	-19208	-2640	4520	-7626	3850	-1611	-32768	-32768	-23592	10297	-223	10601	-5956	3884	-23256	-1382	2209	5674	-13816	-10452	25984	-1310	-3061	1445	126	115	1
-10776	-4444	15292	2055	16714	8743	-19688	5888	-2764	7959	18272	6432	-18632	-5160	2264	-7136	2473	-401	-31856	-20908	-15520	-5242	10374	4580	-10024	2884	-21044	-10481	15181	2870	-15692	-1328	15228	-1593	-3759	2972	125	135	1
-8416	-5172	15544	2808	22542	10864	-20888	5880	-2308	7366	19881	6456	-20188	-3808	2848	-7963	418	1215	8892	11300	32767	-13126	9523	-13157	-32768	-15804	32767	-15301	8208	-2275	-15140	1956	-3060	-4256	9073	6997	120	122	1
-9660	-5976	16344	2606	28909	13503	-25156	6272	-28	5176	21325	6817	-23468	-2556	7764	-8900	-4279	2389	-3872	-18684	7584	-26902	10180	-20245	-9220	-9072	-9248	-32768	1172	6864	-20252	-808	4548	-14887	15260	5414	137	127	1
-6096	-5364	17556	4763	32767	17165	-28212	9100	4536	2251	22470	7328	-24360	112	31272	1726	-25522	2278	-13080	-18420	21372	-5791	28524	-701	-18388	-23260	-3596	-20090	12157	-3338	-15024	-8280	5980	-23959	8235	-3593	127	130	1
-8128	-10420	15176	7026	32767	21282	-29028	10164	13532	-9561	26803	7686	-19060	14280	13072	-9979	-13041	5074	-32768	-8784	19168	119	18070	-16792	-27680	-2632	-8416	-7797	17507	5587	-23368	-25864	1792	-12964	5062	-3123	113	129	1
-29060	-8476	12036	6530	32767	26511	-26156	3712	1532	-12958	29707	4698	-22764	6792	6620	-27044	-14677	8546	-32572	-2540	17616	774	17000	-16338	-22188	7416	-2812	-4769	16443	8721	-17152	8400	-6676	18220	13663	1024	118	132	1
-32768	-4968	6232	2619	32767	30963	-28384	-608	-11316	-6342	30893	6899	-23460	-7112	-16080	-32768	-17471	7309	-16588	-2696	13064	-8366	5340	-9381	-15624	5220	-4248	-11153	12553	6058	-13988	24856	-9936	4303	9587	8355	122	136	1
-32768	-13860	17616	1761	32767	29659	-27608	3652	-8820	-4249	21908	7316	-27708	-16568	-16504	-18141	-21001	-2018	-16928	1512	13508	-8658	2664	-9423	-17216	2536	-6144	-10514	10183	4311	-18352	1824	-3060	-11569	6231	7472	118	131	1
-30372	-14392	22064	-7246	32767	22037	-17928	188	-9480	-665	19034	8060	-24836	-11232	-11928	6041	-22925	-3948	-13920	1056	13248	-4662	860	-5739	-18472	-5900	-4292	-878	11476	3027	-16340	408	-3276	-3159	7944	5991	139	134	1
-32768	-18764	23192	-4965	-2593	7599	-11380	2252	-12748	266	8945	5461	-24372	-3752	-4000	10912	-23534	-4025	-12732	1868	12300	-2900	541	-4205	-16896	-2544	-3576	7740	12480	3999	-17476	492	-2752	1768	10084	5497	135	137	1
-9044	-15120	22068	-5697	-31147	-6677	-8868	-2620	1908	-8221	454	3818	-23136	-2572	-4228	7815	-22321	-5086	-11676	3284	12092	-2503	478	-3267	-17276	136	-3416	8449	11081	3871	-14916	1984	-2088	2304	11352	4938	130	127	1
1628	-14352	12376	-3696	-32768	-7081	-11200	-1516	4108	-7244	-7943	-3895	-19956	-4304	-6208	7278	-19471	-6532	-12116	668	12780	-1859	931	-2294	-18292	-392	-4024	1208	7867	2379	-17004	2092	-2468	208	11596	2814	126	129	1
2136	-12432	11420	-3292	-32768	-7213	-7904	-360	444	-104	-16886	-4844	-17864	-2344	-5996	9669	-18090	-6338	-11756	1604	12284	-702	1262	-1671	-16836	-2224	-3052	-3763	5503	1749	-17036	1192	-2932	-5435	11749	3823	134	131	1
-4496	-7292	8752	-1735	-31906	-13198	-6444	1212	-2304	5616	-25683	-5832	-14684	-1844	-7176	12983	-16192	-5459	-11296	2400	11956	-55	1318	-972	-16152	-3136	-1704	-225	5797	2238	-15952	-868	-604	-7044	11181	4234	136	133	1
-8952	-6872	9780	-2924	-32768	-19837	-7972	4184	-5008	729	-31224	-5889	-13512	-1924	-7312	15873	-14287	-4529	-10460	3672	11652	-13	1534	-1143	-15196	-2716	808	3505	6612	2283	-15316	-2340	1360	-2961	11422	4153	124	135	1
-12252	-5624	10164	-4064	-32768	-25323	-10512	3600	-4584	-3340	-32768	-6584	-12000	-3544	-7232	16744	-12903	-4218	-11504	4132	11492	-583	1709	-2194	-17208	424	-880	5693	6961	2986	-15904	416	312	1899	12652	4032	124	131	1
-14596	-6112	10504	-3869	-32768	-26984	-12192	3224	-4580	-2597	-32768	-8632	-11268	-2032	-8248	19772	-11943	-3628	-12092	1576	12008	-1057	1078	-2512	-16904	-1344	-3596	2621	6203	2406	-15428	1220	-1944	4930	15871	5250	129	133	1
-15916	-6388	11084	-2792	-32768	-26212	-14416	4108	-4928	-827	-32768	-10024	-9872	1352	-9284	19044	-10769	-2633	-11852	-132	12080	-1164	1203	-787	-16992	-1892	-3784	3169	6439	2357	-15572	164	-3444	6397	16823	6706	127	134	1
-17472	-6204	13060	-2026	-32768	-25370	-17672	5728	-6920	-9	-32768	-10643	-8620	2252	-8988	13359	-8555	-2332	-11840	2428	11788	-593	887	-541	-16672	-1228	-3300	4417	6997	2685	-15700	-312	-2388	7263	18054	7090	126	133	1
-21592	-4788	17468	-3833	-32768	-25376	-22052	7640	-9136	-1579	-32768	-10434	-8520	1552	-7668	5763	-5762	-2368	-11932	3492	11524	-665	504	-798	-17324	-580	-1220	5060	7522	3197	-16400	-592	752	3965	20059	7575	121	128	1
-32768	-4484	21720	-10173	-32768	-26107	-24580	8972	-14636	-7584	-32768	-10300	-8648	3300	-5468	2808	-2158	-2158	-11864	2748	11636	-1524	529	-1295	-16244	68	528	4279	8377	3325	-16568	924	2656	3522	17380	7542	126	133	1
-32768	-7464	19228	-12876	-32768	-25377	-28432	7820	-16304	-13756	-32768	-12978	-8940	3860	-4432	5699	-1178	-2759	-11968	2656	12368	-1281	1020	-2466	-16576	-236	968	3266	9469	2387	-17716	-188	3664	3157	11670	5492	128	133	1
-32768	-884	10004	-14952	-32768	-24451	-28600	10364	-18656	-15815	-32768	-14229	-12732	-2660	468	4241	-1514	-2804	-12344	2492	12300	-1401	2611	-3264	-17368	-656	508	1982	11384	1975	-17684	-828	5440	1988	9594	5339	129	132	1
-32768	12400	-1520	-12783	-32768	-21305	-19848	10408	-24908	-9959	-32768	-13856	-20912	-1004	14448	9405	-5248	-4367	-11532	2460	13600	-2600	4357	-4653	-17948	-736	512	784	13736	1317	-18868	-680	6276	2440	10376	6360	129	133	1
-32768	10036	-12028	-12613	-22829	-21103	-19916	7504	-25508	-8422	-23212	-11193	-20104	2012	26836	2328	-5017	-6020	-12000	2400	13976	-3228	7895	-5584	-19284	-2272	-908	-2028	15642	835	-20096	-1920	3640	3707	10210	5908	122	132	1
-32768	28308	-27168	-9817	-11948	-13279	-3068	8428	-28204	-1335	-7909	-6697	-14300	2400	29552	-10826	-1672	-517	-12268	1004	14712	-5043	11647	-6279	-18916	-2780	-2372	-5878	16990	510	-18412	-268	1332	3560	6997	3507	117	130	1
-32768	24948	-26472	-5855	4897	-6914	-4872	6068	-23688	3442	11294	647	-12216	-3992	20680	-3121	-6135	764	-10976	1800	15356	-7341	15183	-6968	-18912	-2748	-2456	-6334	17209	390	-19372	3808	2216	2746	2532	1243	119	127	1
6084	-5280	6176	19864	13219	10022	-25052	5452	1220	1843	17929	4519	-13956	-6764	7556	-3356	1404	-914	-11412	3232	16280	-8212	19887	-8753	-23476	-2560	-1644	-8605	19620	-112	-21908	3056	4384	4829	-1130	-482	129	126	1
988	40	20328	5517	23726	14498	-30396	5900	14780	21242	5444	-1992	-21040	-716	-44	-5176	12262	-1341	-10324	4856	16988	-9818	27046	-10412	-26756	-5712	600	-6449	20934	289	-24092	-1272	9292	5532	-7693	-1976	133	125	1
-20680	17500	15844	5113	25652	9884	-1844	19152	-5076	16619	13112	6173	-20392	-1760	12208	13347	-4121	2244	-7012	5376	19668	-9528	32767	-14633	-29236	-12160	7880	2351	24284	1987	-21728	-11188	15508	-310	-17912	-5819	128	127	1
-20868	1896	18600	-2352	20242	10466	-28608	15336	-5232	5491	18443	5731	-13008	9812	10636	21133	9389	1795	-10176	7940	21440	-12593	32767	-20658	-32668	-20164	14688	13791	27778	4661	-22024	-24396	14360	5370	-16606	-14321	131	122	1
-25144	-17568	10704	-883	13560	11202	-23376	-2208	-6740	3058	20932	1754	-19464	7788	-700	-1570	11065	3284	-32768	2304	13460	-10048	32767	-27679	-27980	-2688	-4852	14112	30635	5820	-19584	-11384	9752	14405	-17723	-15550	135	127	1
-10764	-4008	11456	4534	11068	8276	-15520	880	-3988	10937	15706	846	-13576	-11500	-8196	-11560	13327	-1109	-32768	5400	6956	-4317	32767	-28109	-31280	5704	-7952	5172	31243	3511	-22924	4944	-6080	32767	-8147	-13717	143	129	1
-11372	-11468	9064	11054	3834	9431	-16256	-2356	-6464	11347	12005	378	-13548	-12980	-9188	-3938	10001	-3898	-32768	9936	20972	-1737	32767	-32567	-24012	1612	-1392	-2739	18738	4250	-30668	2720	-14496	32767	-13400	-2547	133	133	1
-13016	-5476	11336	9664	399	10602	-15992	4376	-6644	9122	9339	1240	-17068	-5220	-7584	219	7998	-5442	-17944	16860	27852	7373	31844	-26999	-17744	1172	-7020	-8799	13657	3392	-32768	3024	-15248	12032	-24564	6002	129	133	1
-12684	-676	13904	6331	701	7087	-16408	9020	-6800	3813	8737	852	-16860	-4764	-3408	3447	10668	-4791	-32768	10176	20952	5285	691	-7196	-12176	-140	-11452	1210	7498	2972	-26968	1528	-4868	4042	-32768	394	139	129	1
-11228	-1736	13752	4323	697	3403	-17432	9244	-4728	-520	8414	71	-15216	-296	-1920	5802	15537	-1029	-12136	15596	19740	6146	-30577	7594	-10320	-692	1064	8515	-1291	840	-26244	612	-2620	5960	-28956	479	136	130	1
-10952	-2028	12904	1018	387	790	-17172	5348	-2396	-2637	8011	-342	-16460	-516	224	4687	14180	2208	2696	11384	13260	4854	-32768	12401	-7828	84	2184	6796	-10428	1536	-22380	2296	-7884	8866	-20657	2524	124	128	1
-10300	-3660	11904	-360	1187	-275	-16460	3212	-1896	599	6174	-1052	-15948	-1792	1000	6065	12971	336	-316	5688	10300	6497	-30126	15234	-6596	2004	-684	2528	-19314	-489	-17820	3360	-10032	5128	-17985	3422	121	122	1
-9440	-4412	11700	-911	1106	-420	-16144	2968	-912	1837	5196	-920	-15936	-136	444	4571	13875	-1687	-6144	4780	8708	9345	-30604	16811	-5008	1532	-3016	-127	-26598	-1920	-13912	3612	-10208	-972	-17156	2872	117	118	1
-9820	-4316	11460	-852	1016	-185	-15080	3292	-1008	597	5564	-178	-15308	1016	2652	616	13239	-1819	-8592	3108	9824	12065	-32768	18404	-7476	-20	-3556	2672	-32258	-3040	-12060	3204	-10096	-6050	-16249	2088	134	122	1
-10072	-5456	10996	-289	934	304	-16084	1676	-1400	-5525	7954	-78	-15056	-2208	2328	-6215	13086	-1207	-13376	920	10684	15667	-32768	19976	-8940	-1068	-4724	6552	-32768	-3437	-8852	4544	-9684	-8712	-14067	1507	127	123	1
-9508	-4992	11316	545	704	1026	-16448	1904	-2100	-3634	7505	102	-15196	-3440	-1320	-8863	16744	-1723	-18988	-516	11424	20570	-32768	22852	-10564	-268	-5608	8066	-32768	-3963	-7196	4908	-10076	-14146	-11171	854	129	122	1
-9968	-3812	12012	819	700	1185	-16356	4048	-3164	586	6335	57	-15264	-1352	-3296	-7139	18740	-1254	-13288	200	9940	24264	-32768	25656	-15148	-3788	-3440	6634	-32768	-4450	-6652	5632	-11356	-21078	-10547	-652	128	124	1
-10392	-3300	11996	811	736	823	-16260	5700	-3872	131	6907	-6	-15184	-244	-2512	-6217	18878	-403	-16064	1384	13616	23924	-32768	25074	-19176	-3404	-9084	5323	-32768	-4124	-6928	3812	-11056	-23157	-10040	-211	125	119	1
-10280	-4728	11332	702	894	992	-16232	2192	-1952	-2548	7651	-125	-14744	-2008	836	-7692	20728	-959	-31144	-1096	17476	22491	-29891	26145	-21264	-3040	-12444	6735	-32768	-5848	-8052	-2048	-7628	-18281	-10155	-1571	124	123	1
-10316	-5084	10740	889	481	2429	-15476	-452	-460	-1600	6995	237	-16496	-4992	3052	-3928	17918	-3018	-32768	-2048	21056	20887	-32045	27863	-28956	-7072	-16744	11143	-32768	-4609	-10792	-7440	-2340	-15432	-13628	-3710	121	127	1
-10232	-4740	11620	1066	101	3363	-15492	-944	1168	1285	7799	1384	-18356	-6016	6096	-419	10465	-3725	-32768	-4088	20832	20704	-32518	28583	-28668	-6016	-17196	12457	-32768	-4692	-10116	-3744	4552	-2579	-7209	180	133	122	1
-10104	-5676	11716	1761	243	4206	-16732	-1428	2752	3933	10291	2886	-17980	-1988	10744	2404	5875	-4642	-32768	-10452	6484	11782	-32768	31161	-26404	2744	-18952	8573	-32768	-4067	-10736	-2400	5352	1622	-5259	1239	125	124	1
-10012	-5272	13208	1927	2360	5738	-16992	1244	684	4899	13219	3596	-17216	-1336	9360	-2330	7124	-3172	-32768	-17540	-6052	5818	-28316	26806	-24188	-2368	-21740	2833	-31298	-2240	-18740	-8472	13508	303	206	3842	124	128	1
-10692	-4116	14264	1595	5132	6629	-19048	4368	-2148	4015	15543	4300	-18172	-1944	4560	-7405	9358	-2127	-32768	-23892	-19300	3084	-15214	22013	-14356	2416	-25168	-181	-18548	2145	-20928	-8348	21136	-3517	307	3790	126	119	1
-10224	-3320	16784	2948	10804	7796	-21312	6172	-2072	3288	17221	4906	-21516	-3468	1564	-7720	9211	-2795	-32768	-32768	-23144	3307	-695	13108	-9504	2896	-24656	-3210	-3781	3606	-13552	-10048	24304	-1768	733	2677	128	112	1
-10924	-3920	17160	3634	15574	9665	-21044	6284	-2116	6379	18026	5495	-21568	-4508	3444	-3601	6379	-2185	-32768	-29456	-17568	-2425	6804	3492	-8812	4124	-22804	-7809	11698	3211	-15556	-1148	17716	-1550	-4278	2154	123	128	1
-9976	-3976	17492	4960	21229	10937	-22196	7156	-2396	6682	19048	5214	-22128	-2812	2696	-3624	2212	226	19388	-6632	31924	-8787	10877	-18127	-28256	-12884	27536	-10783	12070	-1120	-12288	420	-500	-1240	7171	5371	122	113	1
-7548	-3660	17792	5667	27100	13680	-24052	5960	-548	6100	20457	5201	-23316	-3276	6452	-5978	-3205	2288	-3672	564	17180	-10692	11451	-21081	-16888	-9680	280	-19557	2838	7319	-20564	-8848	7736	-6682	11039	3142	121	126	1
-7960	-4764	17452	7547	32767	20492	-26524	7200	760	4855	21463	5722	-24316	468	22480	-827	-18467	2097	-12276	-18768	13296	-5336	22634	-7445	-13108	-21460	-5388	-13835	13097	-1346	-10824	-9684	8660	-18552	11245	-3192	120	127	1
-6924	-11020	16308	10033	32767	24892	-28828	11076	11612	-6286	24751	5176	-19472	9576	18840	-11357	-13872	4492	-24628	-3900	15616	588	19272	-8122	-23592	-1752	-2788	-5068	16249	4930	-18976	-17520	-2916	-8262	9042	-828	117	131	1
-14576	-4072	15592	10271	32767	21253	-25276	11328	4788	-15884	28590	2519	-21808	13008	11544	-19349	-17009	9653	-19708	13760	10596	-820	13491	-9011	-19920	1960	-3320	-10054	14143	6627	-14836	4636	-5696	13626	12619	-647	121	135	1
-32768	-4328	9216	2340	32767	25386	-28132	-1516	-10616	-18914	32767	3006	-22260	-2140	-7352	-32768	-20895	9263	-12932	2124	9408	-11588	3937	-9735	-19880	13536	-6604	-12624	11664	6729	-18508	23828	-4116	2604	9981	6148	123	134	1
-32768	-11296	17824	1781	32767	27193	-29484	-2624	-10332	-16768	32767	3522	-25244	-13888	-15752	-32768	-19670	1265	-14980	6784	10344	-7771	2648	-8374	-17940	-244	-5100	-13792	8986	3464	-18820	6148	-6872	-14843	8788	6539	128	138	1
-28008	-15752	24284	-5152	32767	22409	-20612	-1440	-3344	-5069	21585	5960	-27292	-15820	-12880	-2516	-23677	-6184	-15452	-1784	13716	-5467	607	-6838	-16712	-3636	-5636	-6310	9169	3176	-15516	-1764	-3208	-10955	8620	5713	138	133	1
-32768	-13776	27620	-5494	5418	10165	-12944	780	-14396	1065	10528	3836	-25972	-6152	-5512	14301	-25970	-4910	-12316	1996	13168	-3092	377	-4478	-18468	-3480	-3436	4065	10813	3862	-16684	-480	-2452	-1644	9775	5302	137	133	1
-8644	-20904	24104	-7880	-29960	-7413	-9652	-3332	4848	-8018	440	3060	-24404	-472	-2956	11140	-23661	-5904	-11476	2732	12304	-1782	154	-3531	-17540	-400	-2664	4825	10068	3613	-15628	2304	-2256	396	10264	4311	131	126	1
6136	-17120	14980	-3168	-32123	-9648	-10240	-1680	6404	-4849	-10773	-6011	-21988	-2548	-5536	3503	-21233	-7093	-11520	2756	12536	-2021	370	-2890	-17664	864	-2440	-1154	7308	2253	-16228	3640	-1708	-3774	10581	3543	128	128	1
2088	-10324	12816	-2623	-28726	-12504	-7508	-1016	2788	-126	-20562	-8425	-17528	-3040	-7632	3534	-18463	-6131	-11228	2372	12208	-1450	85	-2267	-16924	-2136	-2604	-5057	5188	1512	-16432	972	-2200	-8477	10625	3491	123	130	1
-7864	-7232	13236	-7937	-32724	-18032	-6868	188	-3912	3088	-29004	-9004	-13504	-2000	-8672	8079	-15313	-5593	-10400	2376	12248	-765	315	-1717	-15976	-4332	-1584	-1736	5239	1949	-15396	-4088	-1052	-8470	10729	5270	133	133	1
-11352	-7068	13612	-10631	-32768	-23006	-9936	3960	-5052	-2661	-32768	-10466	-11228	-2912	-7572	10887	-12909	-4487	-10472	2464	11784	-98	853	-1908	-15280	-4172	84	4744	6512	2934	-14920	-5004	716	-919	11715	5013	128	131	1
-13932	-2848	12448	-12316	-32768	-25276	-13072	4476	-3580	-5878	-32768	-11268	-11360	-5796	-8616	15712	-10257	-4504	-10572	6392	11224	-1652	724	-3036	-17148	572	832	6646	6765	3996	-13964	788	848	7165	13632	4904	124	131	1
-17924	-1952	12500	-13392	-32768	-27137	-13704	6252	-4644	-4119	-32768	-12182	-10064	-2296	-10312	22935	-8776	-4203	-11048	2216	12252	-3183	266	-3463	-16432	-656	-1776	3461	6252	3222	-16412	1916	-328	7321	14807	6260	127	131	1
-21344	-4848	14304	-11521	-32768	-27883	-17396	7520	-6536	-4847	-32768	-12946	-8616	1640	-11132	22823	-7922	-3932	-11412	424	12616	-2587	318	-2121	-16800	-3092	-2784	1095	6325	2549	-15636	-1088	-1140	5271	15380	6392	124	129	1
-23208	-4348	18080	-7926	-32768	-28727	-22028	8956	-8332	-3373	-32768	-13325	-8224	2608	-7660	15216	-7083	-2792	-11752	2920	12396	-2216	416	-1740	-16828	-1640	-1064	2548	7130	3330	-16448	-2048	364	4639	16707	5611	126	134	1
-29428	-348	22040	-9594	-32768	-30995	-25740	12176	-9552	-3518	-32768	-11616	-8332	2968	-4640	9139	-5130	-2358	-11220	2860	11624	-2059	287	-2204	-16560	96	-860	3972	8286	3376	-14672	1336	552	4521	16407	6203	125	133	1
-32768	-2496	21740	-10376	-32768	-31967	-27368	10276	-13760	-7102	-32768	-11326	-8220	4960	-2236	10241	-3558	-2867	-11620	1072	11984	-1799	124	-2720	-16092	-776	-740	4192	9725	2786	-18132	424	1908	2622	12846	7427	126	134	1
-32768	-1848	14648	-7739	-32768	-30742	-29980	7484	-16996	-6019	-32768	-10993	-11284	1248	3244	7133	-3774	-3982	-11516	1424	12576	-1815	460	-2874	-16144	-1192	924	4289	12115	2625	-16976	-1760	6084	389	10734	8151	129	134	1
-32768	3280	176	-5439	-32768	-29690	-24832	10292	-20608	1763	-32768	-10206	-20384	-328	12392	6275	-2208	-3858	-11456	3280	13148	-1996	1571	-3564	-17792	404	1992	2409	14297	1602	-17676	-3084	6884	4455	11212	7704	130	133	1
-32768	11680	-12836	-5113	-26653	-28210	-17788	9640	-26500	2359	-29238	-10002	-19064	5836	23996	10179	-2620	-2927	-12004	4416	13568	-3040	3421	-5576	-19308	-4	60	-295	15558	1571	-19028	-992	5172	5197	11175	7323	121	133	1
-32768	28972	-25116	-11502	-13043	-23699	-6304	9580	-26880	-989	-11680	-6258	-16888	5668	31076	-550	-4459	1492	-11176	-636	15124	-5225	6121	-7560	-18828	-2488	-2360	-1162	17535	959	-18188	1444	2328	4975	9046	6290	124	131	1
-32768	23484	-27272	-10507	4706	-14999	-4620	2492	-23844	-438	8523	50	-15244	-648	23084	-6657	-9869	3001	-12256	2096	15676	-5454	10900	-8061	-19324	-2816	-1996	-1270	17942	612	-20636	884	-300	4096	5865	3586	121	130	1
-32768	10916	-15788	9331	14740	2987	-9580	2024	-21360	9419	18609	3784	-13848	-7140	13836	-4467	-5753	99	-11956	1016	16448	-7426	15082	-9693	-20780	-4008	-3688	-6443	19215	187	-20256	1432	1008	5055	1863	644	123	127	1
28560	-21216	32767	4972	4434	10745	-32768	7780	32767	-6256	12517	13016	-14740	-4496	7348	2444	-2852	-1940	-10324	2120	18288	-9569	19879	-10007	-24664	-3732	-2384	-5976	20215	235	-22260	624	4708	7145	-2564	-1049	117	127	1
-6980	4684	-1176	7880	25205	18308	-8452	9124	-7496	32403	6635	-2595	-18028	3292	168	188	12733	2375	-9964	4488	18180	-10509	26036	-12709	-27276	-5416	1020	-3599	21467	897	-24816	-2880	11104	5926	-10185	-1619	121	127	1
-22384	5692	16320	1342	31045	1677	-14364	14340	-3928	10551	14839	8545	-14764	-152	1400	13828	4370	-319	-7176	7372	19268	-12604	32767	-22548	-30108	-9416	8524	2103	23934	4076	-18900	-14600	13904	4285	-13381	-7556	124	128	1
-21860	7584	20152	-1530	21814	8450	-24512	10128	-6780	5263	16334	1027	-19828	4652	6900	7798	9076	415	-10208	8332	21960	-17811	32767	-28498	-32768	-16504	14864	10723	26254	5083	-22828	-16700	15184	8450	-16861	-13481	123	135	1
-24488	-14140	11440	-1882	12808	11068	-23744	3304	-7744	6278	16885	2174	-21000	3772	288	-287	9860	1277	-32768	-1436	13768	-16657	32767	-31952	-27364	-3012	-5872	12897	28723	6437	-19604	-7308	5236	18196	-14930	-13317	133	133	1
-11820	-6476	10740	4235	11014	8163	-17072	2360	-4076	10026	13889	-446	-16668	-7092	-7060	-7923	13913	-2176	-32768	-252	6320	-8624	32767	-31956	-29392	4820	-9304	8640	30076	5697	-24396	1596	-4760	32767	-8175	-11673	121	129	1
-14664	-11184	6608	9722	4735	8762	-16780	-2572	-7144	10105	10705	-1345	-15032	-8912	-5456	-1167	8156	-4137	-32768	7156	20136	-2516	32767	-31205	-22936	1440	-1948	6409	21691	5513	-31268	2984	-15016	32430	-14804	-1890	125	138	1
-11936	-4592	11764	8314	-602	9184	-17228	6288	-5768	8333	7709	-670	-15844	-6244	-4024	3388	11702	-3380	-8008	18880	22592	3123	32767	-26087	-18076	-1692	-2216	-2505	11949	5103	-32064	2936	-15664	12395	-23491	5502	141	132	1
-12932	-848	13964	6067	-703	6274	-16056	8096	-5652	3151	7027	-884	-17528	-2948	-2508	6901	13767	-3530	-32768	9448	19324	-774	8995	-6969	-9064	5228	-16552	2001	6921	5493	-25096	240	-6204	5979	-30829	1075	139	130	1
-11296	-2100	13436	1588	624	1803	-17140	9204	-4160	-2721	7712	-406	-16036	-548	-1348	7779	12526	-452	-18084	13024	17544	2939	-23112	17104	-8908	-788	-2192	6778	-1457	278	-24696	-236	-3920	6903	-28061	1856	133	129	1
-10516	-4060	11952	-105	549	149	-17032	3968	-2648	-3748	6934	-1257	-16480	-140	432	4974	14513	-24	-5096	9296	11848	2111	-32746	26042	-6376	2368	-1220	3080	-11793	2801	-21600	1380	-8456	9845	-20810	4454	126	125	1
-9612	-4484	11772	-626	709	-265	-16416	3020	-1092	-783	5128	-1651	-15516	-2376	416	1717	15648	-748	-3936	3040	9320	6064	-32768	27867	-5280	4700	-2376	-2852	-20019	1768	-16312	1824	-10152	6879	-16881	4898	120	122	1
-9272	-4928	11324	-868	808	-107	-16652	2288	-488	2762	3395	-1284	-15792	-1660	400	1877	15122	-1628	-4992	-932	8064	11727	-32768	23623	-4660	1556	-2064	-4638	-27655	685	-12272	1936	-9748	1611	-15902	4282	133	121	1
-9348	-5188	11328	-527	987	625	-15516	3420	-1212	1243	3328	-793	-15620	-832	1252	1911	16261	-1666	-2224	-1172	7576	19004	-32768	20325	-5732	-3160	-1140	-1121	-32768	-457	-10304	3312	-10072	-3327	-14714	4409	134	126	1
-10276	-5092	11092	202	646	1246	-15856	3204	-1620	-5682	5318	-759	-14708	-616	984	-3140	16082	-1864	-7748	-40	9320	21487	-32768	17970	-7852	-3420	-4352	2045	-32768	-950	-8176	3348	-9608	-7156	-12738	2578	132	123	1
-10324	-3452	11868	-389	977	393	-15812	4400	-908	-7293	5757	-37	-15188	-144	1772	-5299	15504	-1696	-14708	-1536	12128	21739	-32768	19425	-10632	-2772	-7076	4009	-32768	-2060	-5836	3368	-9728	-14736	-12123	849	130	123	1
-9564	-4388	11856	-416	1131	-42	-16088	3272	472	-4985	6298	-114	-16072	-1200	2464	-6284	15722	-924	-13940	-3084	13088	24058	-32768	23624	-13816	-7372	-6228	8768	-32768	-3355	-7500	4616	-9304	-21486	-12108	-868	127	121	1
-9908	-4552	11648	-15	1147	10	-16208	1964	-640	-1416	6218	358	-16436	-1848	3204	-5018	16305	-1596	-17148	-1840	15180	25888	-31444	23295	-16344	-4604	-7908	14656	-32768	-1160	-8404	2824	-10008	-22380	-10679	-191	130	120	1
-10140	-5212	11340	156	1229	298	-15948	2228	-496	-1891	7774	1185	-15580	-1600	3360	-2847	14648	-3117	-24036	-2828	18760	24995	-30336	21248	-22644	-1472	-11444	14232	-32768	-1091	-9664	-2272	-6496	-15092	-9413	-707	133	127	1
-10352	-5236	10976	760	890	1219	-14636	1544	-684	-2574	9736	1242	-15432	-2744	2036	-3440	12823	-2839	-32768	-5204	22592	26787	-29728	21499	-27892	-5648	-14864	13254	-32768	-1851	-11788	-5916	-3528	-7553	-8553	-1884	129	126	1
-10180	-4460	12140	947	1103	1490	-16484	1856	-512	865	10073	1975	-16236	-2824	3300	-3336	12662	-2196	-32768	-8152	18232	27842	-31515	26859	-26556	-5124	-15844	18435	-32768	-1571	-10616	-4772	1836	2069	-2585	1916	127	125	1
-10204	-5200	12200	393	1717	1949	-17784	1936	792	2460	11638	2944	-17856	-736	4612	-4741	14878	-2995	-32768	-11476	11088	20916	-28099	26213	-27804	-3012	-16460	14920	-32768	-884	-16880	-1184	9684	18906	-364	5881	121	125	1
-10244	-6396	11876	676	2176	3738	-16860	280	496	4284	13329	3411	-17396	-1168	7548	-6473	16295	-3559	-32768	-17900	768	11171	-19037	20600	-24956	-2916	-18672	9271	-32203	76	-21804	-1744	14436	6721	-886	5555	120	128	1
-10448	-5364	13464	1192	4257	5200	-17932	2500	656	4705	15176	4258	-19384	-460	4188	-5607	13602	-3141	-32768	-25540	-13456	1075	-12114	13640	-15280	644	-23668	862	-21123	2902	-16588	-3708	24944	-5894	-463	6788	124	118	1
-9872	-3636	15636	2469	9315	6802	-19540	4580	-552	7941	16060	5190	-21892	-4376	1588	-3301	8445	-3305	-32768	-32768	-22724	7825	-3612	11280	-5864	260	-23516	-2235	-5563	3067	-12744	-13248	29140	-6333	1176	944	125	111	1
-10752	-3248	15584	2718	12569	7506	-18388	5816	-1932	11945	16982	5826	-19516	-4652	2252	-2239	3156	-1341	-30800	-29272	-16892	2260	3935	6354	-8312	1976	-21980	-9233	10919	1728	-14416	-6496	18636	373	-779	622	120	121	1
-11456	-5312	15212	4132	18204	8389	-20804	4564	-3492	11850	18651	6424	-19704	-6800	2812	-3575	536	551	-27576	-4272	14728	-17737	4481	-11248	-23536	-4684	2612	-13129	16609	-998	-16132	2288	6756	-615	5347	4747	119	122	1
-8096	-7380	16796	5695	23624	12394	-24768	5528	-3244	8168	19357	6363	-22748	-5392	3504	-4881	-994	781	-6068	32767	32767	-6358	3741	-21327	-30812	-4888	17176	-15454	3814	5814	-17952	-1564	-1076	-17660	14185	2985	121	133	1
-7952	-6244	17440	5891	32074	17648	-27632	9044	488	4194	20132	6235	-26216	-1448	10776	-4947	-7243	1680	-4964	-26316	6236	-14611	7946	-15493	-6604	-18284	-10160	-17208	10138	-496	-12560	2452	1412	-6709	10632	-1175	133	132	1
-5532	-3232	19944	7751	32767	20127	-29312	13264	11052	-3053	22556	7621	-19088	3600	16260	-4034	-19913	1992	-11824	2016	16940	-5942	20285	-5319	-25008	-12676	-1600	-7006	13189	2451	-20752	-17356	2980	-17272	10042	-3744	117	127	1
-8292	-7188	16392	10589	32767	20169	-27600	13760	17536	-8395	25849	7367	-21724	13220	9932	-8800	-13299	7476	-25976	-2996	16704	-2733	15327	-13099	-20920	1132	-5004	-6609	14928	4859	-16316	-12844	2660	1092	9603	-1011	119	131	1
-32768	-10444	11588	5217	32767	24751	-24460	1968	-5792	-10962	29868	5075	-17988	6752	10184	-21095	-19428	9054	-2060	-3168	14832	-13738	5324	-9123	-21452	7840	-4548	-12020	12989	6756	-18156	16732	-3980	9083	13449	4872	121	126	1
-32768	-4272	2108	6345	32767	28999	-29476	-1300	-7708	-1132	27634	9935	-24156	-8672	-16484	-32768	-18250	7403	-15544	7392	10428	-6473	3537	-6879	-15232	2064	-4988	-9966	11286	3437	-15244	9256	-8464	-4518	12362	8728	121	135	1
-32768	-10784	19720	2211	32767	24932	-22348	1512	-10764	477	23103	9410	-26852	-17696	-18292	-15689	-19838	-3019	-13624	-284	12960	-4325	675	-5898	-16840	-2664	-5208	-3074	10677	3366	-14468	5612	-8216	-4824	11045	7329	138	136	1
-10292	-17940	27896	3562	11378	20508	-18624	-920	-10480	5006	15087	8232	-23860	-12084	-9356	14396	-23704	-2924	-12004	1572	12516	-2336	502	-3640	-17880	-3012	-2712	7820	12089	3811	-16064	1904	-2176	4275	9794	5600	132	131	1
-7948	-15572	26632	457	-24105	4979	-9600	-6568	604	-1629	3351	5862	-24828	-4628	-3328	17140	-24422	-3178	-11676	2560	11884	-1808	211	-2913	-17320	288	-1336	11099	12030	3703	-15796	4148	-1464	6470	11736	4854	131	127	1
2884	-13512	18996	-5829	-31871	-493	-11756	-2100	5856	-5515	-4937	1933	-21516	-5812	-4072	8619	-20233	-6204	-12224	2544	11812	-1693	502	-2975	-17812	2688	-2100	5911	9268	2460	-16012	7088	-2528	2154	9838	2230	129	127	1
1056	-14208	12516	-6098	-32768	-1267	-9928	-2616	1896	-3206	-14039	-539	-19208	-6512	-6712	6305	-18587	-7201	-12184	1404	12372	-346	1317	-3203	-18100	912	-3796	-3981	5304	608	-16952	3516	-3768	-7135	10847	2028	127	129	1
-4196	-15700	8924	-1530	-32768	-5415	-9296	-3340	-1520	805	-23260	-1452	-17220	-4476	-8356	13153	-16837	-7093	-11676	1836	12216	521	1990	-1563	-17056	-4056	-2268	-3755	4592	533	-16308	-3032	-1872	-7088	10773	3681	132	124	1
-8176	-12444	8680	425	-32768	-12629	-8504	888	-5260	3367	-32135	-2017	-15180	-2236	-7876	18907	-15779	-6457	-11408	2904	11616	1057	2320	-1054	-15452	-2092	-168	1419	5937	1320	-15544	-3824	1396	-1454	10780	4873	125	140	1
-12400	-9096	8568	-2722	-32768	-22323	-10868	1948	-6532	-1576	-32768	-2338	-14828	-2476	-7816	19530	-15520	-6184	-11580	3928	11308	502	2048	-1774	-16804	584	144	3744	6601	1974	-14808	-244	2528	4644	12339	4172	128	133	1
-15068	-8580	6628	-5168	-32768	-27113	-10532	2560	-5360	-5389	-32768	-5077	-12548	-2180	-9456	21518	-12323	-5208	-11640	3628	11276	-160	1880	-2580	-16604	572	-1104	684	5973	1440	-14944	1668	-1240	5335	14088	5278	124	132	1
-16368	-8284	7936	-6778	-32768	-26770	-13272	1692	-6040	-9078	-32768	-9028	-10260	1048	-10092	22380	-11133	-3938	-12088	2212	11232	-469	1605	-3149	-16324	-1564	-1156	371	5701	1431	-16204	284	-1688	6749	14221	5591	129	132	1
-19740	-10140	10252	-6861	-32768	-26027	-17208	1720	-7764	-6119	-32768	-12187	-8452	4192	-10408	17995	-9250	-2350	-12080	2656	11084	-1095	714	-4616	-16356	256	-1072	1377	6591	2131	-15248	2040	152	4697	13925	6992	126	135	1
-22760	-8052	14396	-8949	-32768	-28606	-20760	5268	-10064	-2072	-32768	-13775	-8188	4396	-8264	10550	-6341	-1513	-11700	2668	11612	-1571	312	-4978	-16544	-1172	-1148	2811	7528	2203	-15692	-312	1324	6244	14371	7797	127	134	1
-29820	-4888	17924	-16336	-32768	-31963	-26260	11272	-11944	-5082	-32768	-14528	-8224	3784	-7040	6666	-4550	-1750	-12396	1384	12192	-1816	418	-4479	-17864	-2132	-2888	4155	8623	2520	-16704	-780	-1296	7736	15498	7070	128	134	1
-32768	-6232	17260	-18638	-32476	-31565	-27080	8684	-16204	-10531	-32768	-17389	-10640	4548	-1928	8720	-4372	-2542	-11952	1780	12276	-1042	1000	-1596	-17444	-2140	-2260	7056	10462	3224	-16520	904	-1304	6035	16314	7460	129	135	1
-32768	-2836	12816	-13954	-31789	-30882	-28384	8132	-19376	-7944	-32768	-15330	-13308	-3176	4020	4083	-5640	-4700	-13396	1096	12068	-2077	1051	-1206	-16372	452	-436	6079	12111	3460	-17324	532	1252	4674	12661	6330	127	135	1
-32768	1740	3220	-5025	-29628	-30558	-24484	10092	-21324	-2736	-32768	-11656	-16828	-3272	12032	2714	-5085	-7874	-12284	2116	12124	-3208	1787	-1524	-16772	408	-692	3122	13766	2003	-17624	800	3916	3619	10714	5753	127	135	1
-32768	5216	-10132	2117	-24383	-27583	-20256	6156	-24884	1438	-27643	-11228	-18156	3504	20028	5044	-2266	-8175	-12492	2768	13588	-3823	4237	-1804	-19320	-724	56	1392	16029	899	-19116	-640	4404	4550	9846	5439	124	134	1
-32768	21552	-20844	-1967	-16413	-21046	-18868	5928	-25476	2740	-26215	-11432	-15812	1592	24084	-328	2684	-3008	-12512	3168	14156	-4223	7289	-3713	-19216	448	-480	-1120	17237	327	-18656	560	3148	4724	7082	3967	123	133	1
-32768	28452	-24096	-11737	-315	-16685	-4660	8444	-23460	4137	1965	-3989	-13852	-908	22452	-58	-3653	332	-11924	2208	14896	-6251	10989	-5830	-20404	-760	-2696	-4751	17566	-266	-19228	2496	952	4182	4678	2848	119	130	1
-32768	11788	-16484	1087	14169	-6764	-9116	4988	-21144	3549	15688	939	-13044	-7092	14124	1163	-2818	-2402	-11268	2604	15764	-7218	15306	-8991	-22036	-2864	-3236	-5864	17859	-14	-20216	2452	-316	5929	3260	1701	123	129	1
-7368	-8248	32767	14346	26670	6073	-32768	-708	32767	-7077	13630	7310	-16856	-3960	-1888	-384	6241	-2478	-11416	2372	16288	-9273	20348	-10560	-24264	-3436	-1540	-4902	18975	382	-23904	1544	2460	9044	-1287	-48	115	125	1
-22460	9912	6660	10876	25381	16986	-7020	8628	-9508	32767	4848	-2437	-24736	124	10468	3909	4656	748	-11440	5348	16072	-11299	25893	-14508	-24232	-4880	2380	-4835	20303	1199	-23256	-1124	10944	8802	-9014	-1184	119	126	1
-16296	7064	21136	228	26663	1258	-15816	21380	-1648	14487	14152	9033	-8036	1960	6476	27859	8798	904	-9032	6508	19108	-12454	32767	-20017	-30460	-9872	9736	1650	23074	2737	-20184	-12448	14500	3538	-17008	-6444	121	126	1
-19792	4396	18540	-4314	22195	6957	-24316	16184	-4132	3338	17669	-538	-22732	16864	1484	12800	12982	186	-12364	3756	19340	-14924	32767	-28336	-30232	-15712	12028	9653	25475	5589	-20972	-20940	12732	7365	-16084	-13977	124	125	1
-20772	-16708	9460	-1383	14328	8299	-22040	-956	-4712	4466	17709	-754	-18828	864	-4012	-9093	10180	2210	-32768	-3076	9988	-7019	32767	-27621	-26808	-4648	-8156	15572	30404	8182	-20932	-11192	9320	17993	-18157	-15701	137	128	1
-13096	-6908	11244	2621	12286	5939	-16536	-1560	-4884	12584	12325	-750	-14004	-15044	-7820	-10300	12402	-3694	-32768	4744	9540	396	32767	-26252	-31300	4172	-8824	10148	31184	6231	-24188	2356	-2060	32767	-11450	-11702	131	127	1
-13932	-5920	12240	9356	4312	7564	-17832	1212	-5336	14444	8091	45	-16748	-9988	-7632	1417	10243	-5991	-32768	5448	20536	1864	32767	-30235	-24744	2896	-2832	476	20260	6339	-30688	2472	-14852	32767	-12226	-3016	131	131	1
-14056	-5488	12168	6992	917	6494	-14824	6972	-4936	6919	8084	-525	-16624	-120	-3900	2444	10512	-5211	-9500	30660	19308	-366	28946	-21735	-18396	3024	-9932	-6757	14534	5596	-32552	-124	-15448	17847	-24173	5714	130	131	1
-11980	-3316	12760	5235	-860	5517	-16868	4672	-2768	337	8523	-1413	-15464	-4180	-1112	999	11884	-4458	-32768	20988	20608	-2441	-7983	8863	-13352	840	-6972	1364	9404	3112	-27816	1288	-5632	9315	-32768	1885	141	132	1
-11108	-4456	11816	4259	-761	4381	-17432	2584	-1664	1252	7513	-1363	-15768	-4880	920	3219	11493	-1995	-7092	12672	19480	-4095	-24148	23214	-11476	1176	236	899	-1991	2558	-26748	1064	-2688	7715	-29898	2594	127	131	1
-10356	-4624	12300	3579	-163	3419	-17012	2756	-1228	6526	5305	-1033	-16080	-3268	1380	4852	12348	-1462	-2336	3056	16004	3262	-30801	30088	-5040	888	-436	-4419	-11643	1691	-20632	2600	-7776	9395	-21632	3522	123	127	1
-10328	-3500	12400	2643	-180	2498	-16680	4852	-2248	8856	3403	-1187	-16424	-832	624	4947	14607	-2468	-4568	4588	13432	6400	-32768	27627	-6248	2748	-592	-7847	-20747	-861	-17548	2528	-9228	4640	-19431	4320	126	126	1
-9816	-3928	12156	1373	77	1183	-15820	7196	-1592	4759	4007	-1222	-15904	1784	956	2385	15771	-2783	2812	872	10688	5620	-32768	22092	-5444	-2332	768	-10196	-28867	-3645	-15420	4092	-9832	-1671	-18967	3824	131	121	1
-9368	-4504	11628	927	249	783	-15368	4568	-1304	-1319	5609	-1842	-14936	1176	1324	-3748	16794	-2245	808	-2512	10088	7974	-32768	15956	-7344	-5832	-1372	-5862	-32768	-6486	-12916	4324	-9760	-6991	-17531	2864	132	120	1
-8792	-5136	11312	774	392	1190	-15740	1856	160	-5006	6783	-1979	-14300	-2204	2292	-5674	16150	-1426	-7120	-2160	12984	9949	-32768	14445	-9156	-5064	-5404	290	-32768	-10114	-9440	4652	-9624	-13242	-15372	878	141	121	1
-9780	-4576	11432	1128	449	1802	-15988	496	488	-2837	7431	-1687	-15996	-3464	2384	-3498	14674	-1850	-14732	-2548	15132	10843	-32768	16723	-11472	-4660	-8032	2508	-32768	-13670	-7664	5352	-9036	-21845	-14506	-806	132	123	1
-10160	-3440	11864	1103	-69	1713	-15432	2656	-800	1160	7411	-647	-16524	-1952	1868	-1489	13407	-2325	-16648	-1072	15748	10912	-32768	19731	-14444	-6464	-8376	8726	-32768	-15546	-8136	4376	-9000	-28859	-14930	-2251	131	123	1
-9868	-3872	11876	785	104	1218	-15900	3728	-932	-323	9074	-425	-15484	-1552	1140	-1552	12977	-2568	-17456	-1428	14784	13525	-32768	18696	-20124	-2056	-8464	14713	-32768	-13331	-8884	2212	-7744	-26017	-14485	-2164	129	122	1
-10000	-4164	11852	727	202	1237	-16124	1800	-1492	-1178	9669	-478	-15020	-2952	512	-1073	13726	-3561	-30340	988	19208	15104	-32768	16337	-21972	2600	-12836	9755	-32768	-13626	-9176	-2260	-5380	-18250	-11377	-3319	129	121	1
-10188	-4016	12008	695	509	1343	-16556	2364	-1696	-845	9488	170	-16256	-2372	1812	-740	14315	-3979	-32768	140	19476	15133	-32768	16255	-26004	-2744	-14660	7333	-32768	-13793	-8944	-5552	-1860	-11631	-8191	-4450	126	122	1
-10072	-4816	12004	787	694	1780	-16496	1776	-1104	1558	9416	693	-16732	-1300	1384	-2411	13845	-4116	-32768	-2268	16500	16067	-32768	18683	-25668	-2480	-16584	13251	-32768	-12681	-9132	-6392	1868	-4412	-4892	-2066	123	126	1
-10016	-3976	12352	541	1020	2052	-16084	2316	-392	1362	10632	981	-17124	-1100	3336	-2445	11830	-4381	-32768	-3204	10416	11503	-32768	22512	-26344	900	-17024	11763	-32768	-11481	-11412	-2472	6484	7911	393	3047	127	121	1
-9840	-4248	12280	651	1843	2300	-16176	12	164	2387	12461	1482	-16972	-3040	5864	-3463	10560	-4685	-32768	-4376	-1536	3649	-31725	23446	-24428	3656	-18136	1635	-32768	-9167	-15868	-348	5988	-880	4288	5283	126	123	1
-10032	-5216	12996	922	3159	3500	-17836	-284	-896	4229	13903	2656	-18248	-2552	5192	-1971	8952	-5673	-32768	-8164	-16268	-5368	-17650	23893	-18244	5240	-21732	-11385	-28237	-5675	-17728	-4232	14040	-22251	-3358	1473	125	116	1
-10324	-4244	14488	1806	6822	6247	-18804	4784	-2896	3526	15618	2670	-19056	-3720	1308	-3827	4431	-5166	-32768	-24908	-25504	-1836	230	27972	-11128	2052	-23668	-11748	-12735	-1299	-14468	-15724	25108	-21243	-3728	-2376	122	111	1
-11028	-2888	15060	2127	11680	6464	-18828	6940	-3524	3206	17310	3094	-18924	-5020	-956	-7948	2053	-2860	-32768	-18064	-22852	-5805	13142	27168	-9672	9308	-20036	-11376	5552	2476	-15460	-10524	22772	-7906	-1438	-276	127	114	1
-11384	-3956	15060	3127	15630	6649	-19200	4072	-3388	5257	18433	3568	-18828	-4252	2792	-6998	970	-1059	8944	-4104	-16000	-8362	22745	1261	-24268	12900	-2468	-20625	11840	2975	-18388	-168	16132	-5466	-2983	4390	124	113	1
-10372	-6504	15932	4347	20144	8960	-21536	2288	-2416	6815	19615	3808	-20556	-5352	6040	-7503	-1978	-663	-6212	15888	32767	-6836	16630	-15594	-32768	-20164	13456	-23375	734	6503	-16716	-72	5780	-23262	14923	8638	125	122	1
-8564	-6688	17008	5194	25483	13633	-27244	3200	-988	6432	20435	4183	-23928	-4980	8892	-9288	-6765	-691	-16256	-18240	11004	-6724	26111	-6430	-4572	-20116	-12724	-15453	9807	3387	-15876	-8696	2284	-10071	14598	1050	133	120	1
-7988	-6492	17892	6024	32767	22707	-26556	7796	-24	2316	22695	2584	-24908	1260	23008	-8822	-21390	2021	-25888	-3828	18736	4307	19959	3180	-23872	-10156	-6064	1381	16474	5555	-17580	-20816	-3280	-6458	8968	-1890	119	119	1
-7148	-11092	16884	9068	32767	28704	-31944	12848	12128	-9322	25644	884	-21300	16028	14752	-10344	-14898	3625	-19572	256	16604	5382	17761	-3165	-20164	-9224	-6748	2433	15725	7809	-14624	-13272	-904	11373	9620	2909	122	120	1
-11476	-4548	17140	10815	32767	27666	-26284	12092	7652	-17930	28129	-2227	-24592	15976	9200	-15325	-14783	5048	-15572	10736	10908	4448	13462	873	-18064	264	-3884	3865	15008	7635	-16276	9128	-7000	19982	12410	2724	120	131	1
-32768	-336	7564	-5498	32767	22263	-19876	4156	-12708	-22804	31998	-2381	-19620	8768	-5560	-32768	-22922	5812	-32768	21176	11232	345	9906	-1115	-20160	8220	-5256	-1195	10964	6773	-18492	11576	-276	2704	6990	5354	120	142	1
-32768	-7504	14332	-11583	32767	22181	-21744	2084	-17320	-18744	31320	-778	-26996	-3252	-15400	-32768	-21396	2582	-13188	3136	12044	-2005	3848	-2168	-20092	-240	-2868	-10267	7661	5456	-21224	10280	-1208	-9781	9338	4450	133	136	1
-32768	-11660	20844	-22443	30289	16189	-20328	1720	-12428	-17086	26102	-1485	-30000	-11096	-15392	-16021	-22120	-5378	-12332	7140	11404	-2695	2448	-2279	-16280	36	-44	-4886	8682	4425	-16624	5644	76	-16027	8347	2805	128	131	1
-28560	-14060	19348	-17135	139	8151	-12100	1940	-6348	-16938	16155	-5330	-27844	-5160	-4660	1584	-25296	-4514	-12172	7728	10568	-3923	1714	-3748	-17296	1176	-896	-2207	8567	2856	-16296	3556	-352	-11282	8788	3128	119	133	1
-2720	-16380	17588	-16972	-16616	-5410	-6236	-3164	2732	-14953	5835	-8074	-21656	92	-3944	222	-22621	-5416	-11616	6924	10564	-4829	322	-4467	-17708	200	-1900	-1002	8089	1521	-17200	1780	-928	-9812	6812	4522	121	126	1
3488	-12704	13208	-14554	-17789	-10779	-7084	-1084	4844	-8136	-4212	-13066	-17612	-1732	-5848	-4663	-19839	-5434	-11688	2944	12304	-4732	-383	-3998	-15884	-7216	-2988	-1297	7419	1107	-15860	-4356	-728	-12105	8508	5062	126	123	1
-1308	-8548	12828	-11394	-19390	-16007	-6468	32	744	2383	-13850	-14837	-16324	-452	-6772	-2562	-16779	-5927	-11776	2284	12824	-2843	-3	-2758	-16084	-4836	-3364	2147	7665	1812	-14584	-6896	-1072	-5762	9464	4775	129	126	1
-6124	-4296	13936	-9668	-26698	-22267	-6364	5340	-2124	7213	-22737	-16136	-13788	592	-6528	583	-15190	-5219	-8768	4940	12160	-1733	207	-2638	-16288	-3872	-1464	-212	5485	2369	-14764	-3216	-2028	-893	11703	4240	131	134	1
-4948	1852	14400	-10880	-31444	-27225	-7540	9572	-1948	1964	-29366	-16049	-11980	-1884	-6124	4277	-14352	-4166	-11984	2608	12160	-1607	419	-2885	-16112	-2956	-3500	-5651	3184	2105	-15328	-2008	-3128	-1491	13250	4346	127	126	1
-9668	6392	14412	-15647	-32768	-29611	-9152	8916	-2180	-2104	-31660	-15846	-11084	-2920	-5836	9921	-12807	-3488	-11612	4544	10892	-1443	232	-3484	-15380	-3956	-1808	-3701	2943	2129	-14832	-1272	-1084	-2653	13772	4575	126	126	1
-13972	5888	15724	-17905	-32768	-24957	-12332	7892	-3712	-2039	-32768	-16360	-11212	-1300	-5040	19058	-11927	-1908	-10904	5328	11876	-1169	-351	-4456	-16252	-1820	-128	913	4166	2593	-16716	1308	1304	-1665	13277	4819	127	128	1
-15972	5752	15904	-18618	-32768	-16512	-14392	11892	-4944	-6519	-32768	-16250	-10360	2148	-6372	17824	-12063	-1258	-9760	5996	11532	-2104	325	-4679	-16932	-2888	856	1879	5236	2265	-17948	584	2616	-5269	11350	4668	127	130	1
-16928	4016	16836	-18361	-32768	-11556	-15204	11480	-6876	-13440	-32768	-16319	-9032	1892	-4968	10621	-10688	-1249	-11228	2920	11644	-3451	341	-5754	-16292	-1948	-696	-200	5991	2382	-15936	-2512	3540	-3429	10988	5732	126	125	1
-19016	3872	18644	-19501	-32768	-11298	-17684	11936	-6984	-18122	-32768	-16073	-8708	1460	-3352	659	-7155	-158	-11576	3916	11828	-4750	419	-5771	-16624	-1964	-396	-2528	6686	2093	-15356	-1912	2508	-639	12927	5892	124	129	1
-23632	3220	21672	-23418	-32768	-12862	-21264	10364	-9036	-23136	-32768	-16929	-8472	1600	-3360	-788	-6436	-20	-12788	2356	11988	-6072	242	-5743	-15948	-2456	-3084	-1312	7742	2210	-15160	-1528	-672	992	16195	6643	122	130	1
-28500	3280	23548	-27286	-32768	-13816	-26464	10692	-10096	-24045	-32768	-18135	-9056	2116	-1748	-8036	-2977	-428	-12608	816	12716	-4382	-79	-4941	-16460	-4164	-4128	890	9531	2242	-15656	-1220	-1032	830	16993	8276	122	143	1
-31832	5528	21204	-27375	-32768	-13325	-27332	11072	-11252	-20944	-32768	-17607	-14604	-1372	3764	-15829	1183	-3132	-11756	712	13668	-2175	1383	-2731	-16808	-5408	-1288	3215	11911	2209	-18148	-5696	1140	-1105	16378	7846	123	114	1
-32768	5356	14780	-21585	-30961	-12320	-25356	9760	-13016	-15772	-32768	-13822	-15464	-8924	9584	-18313	-3235	-7441	-11840	2824	13060	-1987	2869	-2265	-16336	-2360	1108	-966	13302	2019	-17532	-3876	3956	-1267	14031	5121	124	133	1
-32768	10168	744	-9781	-23365	-12367	-17896	12640	-17488	-7944	-25647	-9934	-17324	-10004	16924	-2296	-2334	-12049	-12592	3104	11624	-3520	3659	-4413	-15172	1880	2280	-6563	15490	1536	-16856	648	5624	715	5595	3037	126	144	1
-32768	20460	-12828	-3504	-11609	-10403	-11672	11368	-18916	-2036	-14941	-8678	-13588	1508	26880	5251	2809	-5857	-11100	6452	14312	-6840	4617	-7955	-20384	1592	-2364	-10036	16704	129	-18060	3320	1064	-3755	2936	3513	122	137	1
-32768	32760	-18972	-4042	2431	-5375	-3604	5300	-18876	5745	-456	-2797	-14728	-300	28924	656	-1683	3582	-12224	-672	16100	-6868	8607	-10305	-20792	-7252	-7988	-9823	17041	-583	-20152	2548	-3192	-2850	4470	2750	119	135	1
-28396	10492	-5044	10518	7914	-1678	-11024	7612	-16380	10047	12307	5156	-16896	-4248	15008	4784	-4010	4369	-11640	256	17244	-7143	13628	-9210	-20828	-7076	-6468	-5712	17911	-34	-20144	-512	-1808	-928	3211	1485	119	133	1
-2852	-18012	32767	9913	5682	9203	-32768	-1588	32767	-3914	10546	6748	-19244	-1832	1036	3107	5096	2760	-9472	612	18852	-9094	20042	-9596	-25400	-4824	-3880	-6471	18330	-1273	-25112	-1972	5916	-812	-6390	-1740	122	124	1
-10324	20224	4868	10780	13398	20294	-1348	15664	-7736	9880	8795	44	-24132	-344	16248	988	-1416	3088	-10136	6756	17596	-10764	27547	-13130	-26252	-8872	2732	-5142	19885	-1198	-23928	-5436	7972	-2620	-6715	-3424	122	130	1
-19264	-4192	21320	-1376	20155	6328	-24812	5764	1608	-3460	18340	10231	-9152	3896	10236	17735	3453	5205	-7120	3492	19992	-13243	32767	-19253	-28996	-16700	8752	307	23469	-941	-21280	-14948	11776	-3431	-10088	-8008	114	131	1
-18760	-6532	13668	395	14801	12022	-24264	1940	-5848	-865	18101	3424	-21636	8976	264	-4304	9662	4904	-9888	7476	24104	-18721	32767	-22723	-32768	-16172	15468	3728	26507	-1910	-21748	-15692	15236	4499	-17876	-16776	120	130	1
-17704	-15360	10264	5841	10687	6505	-19516	-2324	-4100	6262	15935	2784	-19800	-8412	-6096	-20985	9275	-177	-32768	332	13376	-21416	32767	-32411	-26384	-256	-6736	270	27582	-433	-20420	-3068	11612	12066	-16553	-15976	125	132	1
-31616	-9620	13380	8996	6852	8127	-14940	-2792	-9416	10514	11687	2060	-9892	-11464	-6592	-8833	10176	-6667	-32768	8540	5744	-23161	32767	-32768	-28108	7460	-10520	-4904	26451	-3536	-22360	11020	-5856	29925	-9492	-12361	140	127	1
-13344	332	14708	6521	2593	7063	-17396	6160	-7424	8323	8750	1938	-18244	-6368	-7208	-816	8053	-2258	-32768	11020	19988	-19383	32767	-32768	-23188	6208	-4280	-16958	16346	-2219	-29972	8228	-14168	22166	-14840	-2965	132	135	1
-12604	-1924	13328	3047	1311	3727	-16920	7360	-5556	-2455	10456	704	-18828	424	-3432	-2363	7080	-2225	20868	20532	26532	-19507	14051	-17036	-18172	4332	-5224	-19781	10636	-4417	-30136	8780	-10440	3601	-27501	4422	142	129	1
-11384	-4152	11792	913	1211	1657	-17112	1784	-3300	-5623	9920	-298	-15212	-3888	-1028	-5083	11230	-2404	-23816	8748	26836	-9159	-17810	-2878	-11224	3204	-4264	-11162	4747	-8746	-25872	8580	-1648	-5602	-32768	932	136	132	1
-10424	-4572	11484	937	637	994	-16544	524	-2096	-1495	7320	-541	-14724	-5524	-128	-5707	11416	157	-2004	16408	22828	-722	-32628	7721	-12220	1296	4628	-8614	-5785	-11715	-25556	6352	-3608	-6007	-26243	1680	132	131	1
-10200	-4784	11248	721	609	679	-16708	700	-2196	2584	5168	-869	-15664	-5688	-700	-3176	12456	-217	-2016	17144	13820	-3706	-32768	6100	-8192	1700	3380	-6379	-13449	-13106	-21344	5812	-7184	-4152	-21377	1846	133	125	1
-10648	-4512	11200	670	382	501	-16532	964	-2832	4300	3712	-673	-15992	-4124	-588	-673	14541	-1855	-7004	13696	10788	-7220	-32768	5945	-9496	5036	344	-2773	-19784	-15302	-18604	6708	-9024	-7288	-20483	2733	139	114	1
-10376	-4500	11152	635	236	234	-15872	2252	-2560	969	4256	-1058	-15660	-2776	-264	-3011	15753	-2690	-11764	11216	8852	-4026	-32768	9387	-11056	6144	-1944	-1724	-26313	-17826	-16272	7208	-10048	-13795	-19613	3261	140	117	1
-10528	-4476	11092	488	307	25	-16196	932	-1668	-1883	5419	-1421	-14660	-1964	2220	-5861	14814	-2251	-17316	9628	8256	1219	-32768	15901	-12328	6608	-5552	210	-31808	-19800	-14116	7792	-8876	-19249	-18716	3232	138	117	1
-10432	-4740	11068	377	89	57	-16208	740	-1432	-1842	5599	-1421	-13928	-3048	2692	-5728	12794	-1127	-23452	10260	5468	6585	-32768	22830	-14016	6500	-4428	213	-32768	-20803	-12364	6632	-10452	-25277	-17600	3176	134	120	1
-10168	-4824	11260	342	-15	76	-16212	-44	-752	-501	5896	-978	-16032	-4728	3124	-5557	11880	-1784	-22788	12596	4216	6632	-32768	25497	-17896	4768	-5380	1822	-32768	-19449	-10728	2444	-10080	-31544	-16985	1543	133	121	1
-10408	-5000	11476	296	187	314	-16616	-144	-2056	-1786	6210	-531	-16392	-5132	3176	-5427	11642	-2112	-23748	12304	3800	7405	-32768	26294	-20620	4516	-6996	6566	-32768	-15471	-9076	-2536	-10184	-29136	-16401	-1080	130	123	1
-10608	-4068	11348	44	596	186	-16640	-40	-2220	-1912	6139	-489	-15468	-3956	-372	-5752	11516	-2729	-24628	10628	5356	13807	-31042	27132	-23332	6364	-8812	11965	-32768	-9272	-9024	-4492	-6932	-21376	-13862	-3251	127	122	1
-10516	-3960	11472	-280	877	-56	-16272	1268	-2440	-4410	6551	-76	-15208	-3112	988	-6199	11760	-2363	-32768	11936	8636	17772	-25096	29006	-25604	9248	-15820	5442	-32768	-5385	-8572	-7564	-6500	-13969	-8604	-3354	125	125	1
-10112	-4856	11128	-406	1142	-46	-16352	-48	-1012	-3934	7004	-13	-15344	-3152	2420	-6505	12108	-2895	-32768	5592	7332	17595	-27745	32767	-24796	3504	-18208	-113	-32768	-6129	-9456	-3700	1624	-4225	-7394	701	127	123	1
-10372	-4956	11280	-350	1600	455	-16652	-840	-944	-2619	7804	354	-15772	-3876	3048	-5860	11504	-4848	-32768	1856	4600	13819	-25633	32767	-24504	944	-17624	4938	-32768	-4770	-10424	152	3348	-492	-3490	5511	124	124	1
-10132	-4860	11416	-268	1922	1011	-15632	-420	-516	-2091	9158	822	-15552	-4836	5076	-5641	9728	-4864	-32768	1676	4212	12395	-25116	32767	-24412	4824	-17740	1627	-32768	-3975	-13288	1084	4896	-2327	-2463	9705	123	127	1
-10356	-4792	11832	-105	2529	1405	-15996	-1472	-272	-833	10913	1246	-17248	-5176	5296	-5150	7059	-3840	-32768	-4864	-7072	-8251	-21810	32767	-23072	7440	-17524	-6461	-31937	-3063	-18788	272	12360	-7842	-7340	9984	120	123	1
-10944	-5020	11884	-246	3593	2172	-16596	-300	-1656	-220	12942	1815	-16860	-5576	3756	-5080	3452	-3887	-32768	-12232	-19480	-6559	-16051	27705	-16572	5412	-21228	-12066	-23183	772	-17436	-5392	17048	-14921	-5841	9043	121	117	1
-11056	-5796	12764	-413	5833	2631	-18108	364	-3240	-1636	15204	2065	-16244	-4804	968	-9343	1156	-3514	-32768	-20660	-24268	7101	-985	21272	-11708	1112	-22324	-7402	-9497	6058	-12608	-9560	17972	-10877	-2500	6227	121	117	1
-11472	-3132	13888	-54	9468	4994	-19912	4184	-4996	-1456	15231	1756	-19208	-3124	-524	-11760	216	-2666	-32768	-10612	-19004	5874	12751	21702	-10700	3368	-20396	-7160	4205	8104	-12788	-3424	15468	-6848	-2918	4159	122	113	1
-11328	-3964	14320	-599	13216	4138	-19332	3200	-4684	-1781	15753	1806	-18560	-3068	-16	-12660	-354	-2063	-30352	13968	2236	-25881	18083	24057	-20788	-2508	-4712	-19405	9768	5688	-13200	4656	9940	-6048	-1582	7509	123	119	1
-10836	-4256	15256	-1545	17860	3676	-20536	5364	-5100	-1306	17316	1111	-19532	-1708	660	-15203	-533	-248	15100	16752	32767	-26975	32767	12559	-29240	-21644	18040	-32768	-1679	1900	-20132	7360	2144	-16606	7502	14527	125	126	1
-8764	-3732	15696	-2768	23888	4380	-23280	5408	-2456	-2060	18342	1408	-23144	-2340	4296	-17210	-2793	178	-30980	-3128	4452	-18475	32767	16440	-9652	-8496	-14380	-32768	683	504	-22732	1084	8192	-32768	7299	7671	145	116	1
-8584	-5596	15200	-4813	32086	4175	-21756	7360	1444	-3893	21645	885	-22136	2772	15792	-18198	-12890	2224	-25236	-15704	21612	-12653	30451	7321	-20268	-16572	-6684	-32768	5098	3737	-16004	-12176	8220	-32768	12294	852	116	114	1
-6464	-6260	17584	-5797	32767	2628	-28032	13212	4632	-9520	25173	86	-22172	17104	19736	-14121	-22123	4645	-25392	-16748	23484	-644	19178	-10568	-18556	-15744	-7592	-24688	10326	6087	-16036	-21720	-356	-30329	6484	1716	125	130	1
-5812	-10844	17312	-9346	32767	10051	-30400	11244	10500	-23191	27022	-5075	-25824	18004	10220	-26721	-17478	10071	-13336	17400	8468	-153	14083	-6582	-15496	-4808	-1656	-9277	11962	10383	-12924	-8480	-5404	-9392	9235	1150	116	132	1
-32768	-3444	6120	-15684	32767	14944	-21556	3656	-9564	-22871	28763	-5134	-20460	4688	-6640	-32768	-20065	9115	-15620	3192	12528	-5478	5111	-9656	-18016	5624	-6196	-8865	11274	10183	-15948	6416	-6676	5800	4150	4426	103	135	1
-32768	-6460	808	-26310	32767	8065	-21664	1548	-16368	-17086	27664	-1706	-24224	-6132	-16224	-32768	-21195	4432	-14360	8924	9556	-8113	1664	-9087	-18408	3012	-6272	-9589	10723	9694	-16308	7748	-7436	5458	3981	5932	115	140	1
-32768	-10736	11300	-32768	32767	7691	-20212	1600	-11532	-15018	26728	-894	-26644	-8284	-15332	-16521	-24994	-2418	-15164	-220	12752	-6043	-2107	-7547	-16668	-2720	-5572	-4959	8844	5992	-18808	6380	-2332	-4623	6588	8972	122	133	1
-18840	-13524	14076	-32768	20220	7889	-14908	376	-15252	-14909	22019	-2983	-26384	-4280	-7056	-5565	-26245	-2150	-12812	3460	12368	-4011	-2785	-5015	-17920	-1624	-4684	291	9078	4842	-16136	3432	-3600	-4760	8397	6747	129	129	1
-32768	-31020	27508	-29395	-22697	22649	-10832	236	-8508	-22378	14048	-9060	-25180	1164	-3600	-1450	-24468	-2083	-9928	3240	11744	-3649	-2764	-4038	-16372	-3136	-804	1709	8848	4407	-16424	1080	-924	-2799	8080	4982	123	130	1
-7392	-14664	16860	-23817	-32768	6470	-4908	-2828	3520	-23420	4350	-12991	-22796	2148	-5612	-8141	-22311	-3787	-10932	5580	12228	-5493	-2396	-6369	-18660	3404	-2140	-4043	6264	4485	-17196	5908	-1884	-5444	7336	4298	129	133	1
6924	-8248	11924	-23220	-32768	4603	-8440	3600	7520	-14766	-6819	-18174	-18424	1164	-6776	-8064	-19332	-2970	-12116	2664	12204	-7782	-3779	-7303	-17160	-596	-6480	-15254	2453	1905	-17088	4516	-2776	-16132	8352	4710	136	128	1
512	-5104	11992	-20818	-32768	-3279	-6740	7040	2200	-9496	-15178	-18766	-16880	456	-6636	-4818	-18023	-2237	-11500	-248	13384	-6327	-2874	-4612	-15176	-9736	-7448	-10188	2692	1214	-16848	-4656	-3500	-20156	9116	5373	129	124	1
-6672	-5620	14140	-13023	-32768	-15611	-6492	9612	-1672	-6596	-23657	-18076	-14604	-232	-6340	-375	-16735	-1877	-10992	-1020	13192	-3837	-883	-1577	-15172	-7724	-4984	-1205	4720	2614	-16052	-8240	-2336	-13820	10138	5728	126	127	1
-7216	4704	15400	-10380	-32768	-22993	-10064	10852	-332	-7741	-28607	-18996	-12976	-1648	-6432	5255	-15570	-1031	-11084	880	12320	-3101	-286	-2090	-15820	-2952	-3852	110	4550	3426	-15648	-5836	-444	-6080	12278	4463	124	125	1
-10328	11396	16328	-17813	-32768	-21055	-12308	8716	-2008	-6471	-32303	-20056	-12444	-40	-5752	10460	-14715	-460	-11296	844	12380	-1953	500	-1640	-16512	-2468	-4668	-3222	2952	2390	-14740	-712	-2296	26	15495	4751	117	132	1
-16156	8212	17924	-23730	-32768	-10081	-13388	9344	-4772	-5652	-32768	-20790	-10044	2832	-7056	7399	-13237	1162	-11560	1092	12284	-377	1395	-1641	-16272	-3764	-4880	-144	2841	2363	-16636	1080	-4276	-691	15784	4145	124	128	1
-16036	4908	18024	-24128	-32768	-5539	-13696	16356	-5588	-11169	-32768	-19934	-9332	2024	-6988	2553	-11347	1895	-11272	940	12844	575	2008	-1264	-16844	-3936	-3720	4451	3838	2499	-18044	-1868	-3544	-2009	13639	5198	122	130	1
-15092	6504	18464	-27188	-32768	-9552	-15416	16508	-7260	-24235	-32768	-18837	-8264	220	-7156	-4915	-8644	1977	-11264	664	12576	662	2198	-1337	-15916	-4164	-4696	4213	3678	3190	-15148	-2900	-1392	814	14142	6654	125	128	1
-19872	4828	21868	-30744	-32768	-11009	-20828	10828	-8492	-32768	-32768	-20982	-9372	1032	-4212	-11541	-6553	2704	-11264	1400	12960	686	2815	-390	-17276	-2556	-2452	4213	4613	2469	-14512	-2924	-756	1377	13984	6646	124	131	1
-28216	7680	26188	-32768	-32768	-4326	-26996	10616	-13032	-30012	-32768	-23249	-11136	-2224	-744	-14204	-7565	1291	-11932	3256	12216	873	3925	-733	-17092	-1572	620	5053	6315	2328	-17012	-4264	2468	2571	13618	5657	124	135	1
-32768	15716	23472	-32768	-32768	907	-24012	14604	-15012	-31668	-32768	-20714	-12668	-5696	4360	-18606	-6813	-1590	-11944	3304	11876	-154	3267	-3257	-15496	-1256	1028	3269	8442	2587	-16628	728	5764	1523	11521	5527	127	133	1
-32768	15296	16340	-32768	-32768	3810	-21064	14820	-15272	-32768	-28739	-16746	-13688	-9264	8760	-26073	-5807	-4740	-12116	-152	12864	-1309	4186	-3175	-15436	-4208	192	-1590	10923	1198	-17644	-4896	7124	-1882	9189	3696	125	142	1
-32352	15104	7004	-24891	-29137	1602	-19008	14796	-15452	-30446	-20327	-12780	-13040	-7924	13236	-19836	-4279	-8339	-11356	1320	13444	-2304	5177	-2685	-15776	-3124	-1524	-5515	12749	1102	-15248	-3252	4948	-3674	9334	1600	123	134	1
-29444	15148	-2640	-12229	-17843	-768	-13976	10496	-14032	-16332	-12320	-10336	-13712	-6416	19664	-13782	-899	-4641	-12332	2176	13724	-3660	8246	-3799	-20676	-3752	-3660	-10329	12766	145	-20040	-496	-5064	-2283	9531	1827	127	127	1
-29848	23824	-4672	-4770	-7743	-2633	-8528	11280	-15284	4145	-7546	-4102	-10088	-5880	22400	-5544	-497	2346	-11936	2708	14516	-5200	11232	-6222	-18944	-2076	-4388	-9007	13513	585	-19080	2912	-2172	-3394	5692	1479	117	127	1
-24468	22644	-4484	7872	579	-3896	-7088	13820	-13228	14021	1589	4397	-12144	-6552	19032	10117	-377	5014	-11904	1984	14092	-6160	14546	-7403	-19756	-3332	-4568	-8372	14145	3	-18504	1376	128	-5983	3873	138	118	129	1
-22952	23324	128	17483	8609	-745	-9168	12948	-12484	14034	11988	9110	-16272	-3264	15700	15333	-1570	4233	-11160	1240	14108	-6876	18344	-8266	-20420	-5484	-3004	-7178	15531	18	-18304	-2336	1752	-1454	-581	-1358	118	126	1
22648	-32768	32767	-5714	-4868	9850	-32768	-11580	32767	-10104	10024	6315	-15696	2424	5204	18177	7212	6551	-8928	1096	17716	-8304	25764	-9953	-24700	-7084	-2380	-3346	17450	-610	-22464	-5724	10876	70	-12178	-4447	110	128	1
-7148	15588	2760	5788	11073	22933	708	13432	-9464	2189	3861	294	-14484	13956	8120	11899	14644	14179	-8512	4372	16336	-9792	32767	-11754	-26388	-13152	8112	4686	21006	-542	-22104	-10608	11060	34	-13102	-7973	112	130	1
-14140	-17544	8692	-762	17992	10295	-22928	-2936	1368	-23936	17535	7870	-15256	-968	4916	-7922	6422	4172	-9360	6588	18572	-14787	32767	-19659	-28084	-10956	13384	7477	23794	-62	-22044	-14220	12480	3293	-13007	-13132	117	128	1
-15948	-9860	9244	-43	16857	6227	-18516	-3792	-3508	-10553	12794	4387	-19964	-36	5432	-20632	5850	2391	-23620	5424	12664	-16316	32767	-28938	-26956	-5044	4360	3341	23918	478	-18032	-10900	13632	2185	-13299	-14372	123	135	1
-22060	-3608	15968	1501	12447	7778	-24140	5140	-4688	2175	10811	6164	-23364	404	1036	-22442	4450	1105	-32768	-6828	9216	-15534	32767	-32331	-27768	-1452	-10616	-1766	26840	-1104	-19400	4652	8592	21550	-12576	-13674	102	131	1
-8980	3056	16964	7693	6238	4410	-18944	5700	-3072	5450	10986	4105	-18136	-8340	-2348	-14646	8092	-4990	-32768	-880	8396	-15630	32767	-30593	-26780	4292	-8268	-9160	20689	-4026	-31308	11756	-9968	24796	-9771	-8429	110	139	1
-11584	-8188	10692	3702	4379	3331	-14720	3780	-4996	-258	11332	1585	-12424	-4548	-4108	-8050	10793	-1079	-32596	10384	18876	-13760	27327	-29610	-22728	5328	-2256	-15128	15331	-5757	-32768	12092	-12236	10341	-21071	1843	127	138	1
-12428	-6824	11348	2497	2389	2815	-14688	2460	-5472	-1335	11510	1162	-16260	-11124	-7796	-9167	7383	4146	-7140	10540	10668	-15008	18369	-23154	-16788	5080	-9124	-17977	8232	-7373	-27168	11220	-7696	-3236	-28297	2759	137	132	1
-11028	-5196	11820	1357	1693	2124	-17132	1468	-4528	-3271	7710	2480	-17768	-6916	-2696	497	6569	-949	-27440	7768	17724	-4906	-23392	-2654	-7968	7620	-6104	-6675	4015	-13656	-25260	9548	-3400	-5915	-28260	1451	141	130	1
-11244	-4836	11252	678	1312	1185	-17608	2112	-5028	-3574	6476	1681	-16184	-6596	-4052	2275	7270	-526	-8848	15068	13528	-5261	-32768	3672	-10968	6856	-148	-9032	-7153	-15638	-26060	11824	-6512	-7179	-22691	3684	135	128	1
-11340	-3924	11716	-415	897	-159	-16824	2572	-4116	-1341	3762	1560	-16744	-2176	-1812	2279	8119	1514	-4004	12344	7980	-8934	-32768	6098	-9948	6332	-100	-9816	-8441	-16134	-19300	9016	-10316	-12162	-18641	4826	133	126	1
-10252	-4780	11416	-982	954	-970	-16352	3064	-2880	-1770	3098	580	-16004	-1020	-60	1066	10849	-135	-7352	12596	4460	-12120	-32768	7926	-7192	4468	-1608	-10376	-19414	-21158	-16656	8068	-10660	-16167	-18475	6171	122	119	1
-10388	-6056	10244	-978	1023	-1194	-16284	244	-2448	-2411	3170	-19	-16052	576	1868	-5477	10913	-1901	-13612	13076	3984	-12418	-32768	10208	-10060	8616	-3912	-7854	-24269	-22946	-14792	6432	-11336	-21274	-18338	5306	125	119	1
-10144	-6432	9952	-125	917	-293	-15384	-568	-2224	-1895	2952	-166	-14292	-1772	2024	-14036	10777	-2599	-21488	14344	2592	-10797	-32768	14593	-12428	10100	-5728	-7301	-29296	-23663	-14520	5488	-9776	-24151	-18197	4225	123	121	1
-10524	-6004	10452	192	746	205	-15940	-360	-1904	-3190	3355	-177	-14932	-3952	1572	-15777	9469	-1250	-23980	11808	464	-4838	-32768	18941	-14908	8880	-5016	-6011	-32768	-22537	-14304	3912	-10332	-31377	-17636	2624	132	122	1
-10564	-6008	10160	542	593	563	-16036	-216	-2500	-2999	3404	-130	-15040	-6568	172	-14141	8724	-1086	-21500	12084	-1408	3012	-32768	21653	-17264	6492	-6172	-2907	-32768	-19945	-13284	-800	-11164	-32768	-18129	662	127	120	1
-10696	-5240	10852	722	469	877	-15748	1328	-2188	-1593	2921	-44	-15220	-5668	2140	-9197	9071	-1256	-22376	12340	-404	8326	-32768	24780	-18380	4548	-7612	5816	-32768	-16781	-10952	-2832	-9540	-32321	-17564	-1097	126	119	1
-10408	-5308	10828	-165	658	-151	-16548	1068	-1236	-3715	4353	372	-15788	-4408	3508	-5502	9103	-1446	-30100	13652	2760	12182	-31701	26570	-21716	7880	-9584	13364	-32768	-9982	-10224	-5328	-6400	-21780	-13689	-1826	122	118	1
-10304	-5676	10556	-122	912	65	-15784	16	-1464	-2291	5178	457	-15024	-2916	3860	-6650	10518	-2877	-32768	16396	4260	12587	-32768	28954	-26452	12724	-13080	11836	-32768	-3001	-11400	-6184	-3308	-12765	-8873	-762	128	117	1
-10524	-5616	10880	-155	1287	209	-16480	1008	-2300	-499	5363	488	-16284	-4052	1076	-6801	11425	-2584	-32768	10596	4632	11391	-32768	32767	-28572	8780	-13008	522	-32768	-2251	-12836	-6244	-264	-3641	-4945	3388	132	124	1
-10772	-5744	10800	-250	1628	135	-16780	220	-1868	-506	6554	588	-16472	-5280	2280	-5546	11539	-2108	-32768	6840	3512	14742	-30451	32767	-26448	1432	-14644	-4486	-32768	-141	-13096	-4972	612	-766	-1173	8703	129	125	1
-10408	-5652	10856	-61	1895	381	-15700	-508	-1236	-493	8131	986	-17624	-4744	5924	-3529	9089	-1795	-32768	-3144	4152	16431	-21939	32767	-23164	-2476	-14184	2602	-32768	420	-11380	-580	1980	-3114	-1991	12500	128	122	1
-9912	-7320	10904	170	2092	778	-16416	-2400	-708	400	9810	1226	-15212	-1104	1096	-6168	5672	-2199	-32768	1672	1416	8741	-15714	32767	-23468	2380	-14664	-137	-32768	2248	-14276	-424	6624	-4624	-5566	13963	129	118	1
-10992	-5740	10868	119	2279	2133	-16396	-120	-5008	2181	9965	1675	-14856	-4524	-1340	-10079	5915	-2531	-32768	-4844	-4388	-5527	-14724	32767	-20668	2892	-15612	-11454	-29685	1431	-18752	-4188	15796	-7774	-10415	10657	124	121	1
-11148	-4632	11504	-919	3405	2222	-16912	3356	-5932	-1693	10773	2189	-16072	-3952	-3156	-12055	8190	-2820	-32472	-15052	-14024	-6263	-7487	32767	-15492	524	-17820	-14986	-20136	4417	-13792	-7232	19132	-10574	-6418	9270	121	117	1
-11140	-5068	11888	-1058	4851	1536	-15780	1704	-2284	-2785	12009	2176	-16684	-1676	2936	-10203	6210	-3350	-31152	-21932	-17264	1330	7600	27446	-10672	304	-18860	-16061	-8300	6100	-9700	-784	17000	-9989	-3510	6982	121	109	1
-10604	-5296	12000	-1363	6602	1079	-15888	-220	-176	435	13899	2510	-17716	-2148	7396	-8953	1684	-3317	-32768	-12364	-14536	-3220	16985	23790	-8696	1368	-18436	-19192	3294	6654	-12076	6532	14888	-13187	-3410	6283	120	117	1
-10836	-6648	12716	-2285	10008	2029	-19912	1320	-2680	2428	15241	2686	-19912	-3704	4480	-9784	-380	-2291	-30376	-8464	-8328	-17537	21507	17450	-13080	2348	-16212	-25150	11642	6314	-15276	6332	8900	-17330	-4089	6219	120	113	1
-10864	-7212	12876	-2802	15506	4574	-21472	4228	-4288	790	16691	1763	-20136	-4088	116	-12855	-1619	-892	-12852	26520	32767	-26975	18468	14208	-26256	-23832	11000	-29575	8512	2168	-16436	1296	8512	-27048	-2556	5765	113	129	1
-10184	-5000	13976	-3265	20829	6356	-19804	4720	-4792	54	17099	1187	-20428	-1816	2792	-13692	-4381	-333	18280	-4756	15080	-14260	32190	15392	-15916	-13952	3452	-32768	-1113	3150	-21428	-4500	-376	-28882	15914	4877	118	124	1
-8360	-6048	13980	-3715	28088	6847	-22352	5684	-2708	-15	17869	1315	-21072	224	10952	-13024	-12468	-226	-32648	-10544	9400	-12220	32573	10717	-11820	-8792	-11164	-30432	5439	1109	-19772	-7664	-1488	-24692	15886	2528	120	144	1
-9060	-6780	14372	-5516	32767	7694	-22920	6232	3004	-3203	20251	348	-20176	6488	10648	-12961	-14251	2284	-19072	-12576	24000	-4576	18416	-2297	-17844	-12976	-8188	-25946	6188	3693	-12200	-14392	2076	-27198	6232	3691	122	131	1
-10396	-10244	14256	-7445	32767	12111	-26268	9280	5240	-8863	23039	-2056	-21892	15172	12072	-21980	-17322	5045	-26504	-1076	14784	5188	11892	-7946	-19468	-13356	-11264	-10043	9530	4979	-19568	-18912	-368	-9533	4887	1562	114	123	1
-15148	-1924	10372	-14905	32767	13568	-22204	12972	-2664	-18982	25147	-4983	-21704	15972	-1784	-32768	-20305	6352	-30200	16188	9612	-2711	3943	-668	-21480	748	-8824	1111	12301	9671	-22324	-5348	-980	2001	8489	3563	113	132	1
-31600	-4604	2260	-21872	32767	6898	-16516	6940	-16084	-24008	27952	-4914	-22568	3944	-15376	-32768	-17932	5886	-15064	2620	11312	1698	3335	141	-17384	-1756	-4564	-4737	9966	8411	-13432	7524	-2688	7068	10417	6180	113	116	1
-32768	-6096	1720	-32768	32767	4578	-21188	1692	-16644	-24220	26229	-4349	-27452	-8540	-10620	-30025	-20955	1357	-11836	9532	10480	-1745	2594	-664	-17780	4144	-1960	-6589	8311	5744	-17848	10152	-320	-1298	6797	4403	118	124	1
-29836	-10428	8916	-32768	30545	6299	-17436	676	-12764	-22178	25840	-3105	-24644	-7428	-11720	-13289	-23560	-754	-10992	9672	9852	-3310	1241	-3485	-18652	3008	-716	-9407	6421	3917	-17792	11804	-848	-7988	5839	3908	127	128	1
-19228	-16424	13464	-32768	7931	10359	-13076	-2312	-9628	-18764	19789	-4599	-23516	-4492	-7160	-7998	-23978	-1024	-10612	7132	11140	-4282	-343	-4658	-17596	-644	-1416	-10181	6089	1930	-18656	6452	880	-15465	4206	4353	132	119	1
-32768	-29148	23668	-23689	-20480	15211	-12852	-5792	-10496	-16150	10140	-10399	-24560	-4956	-2752	-4480	-23627	-3421	-10220	6416	11348	-5373	-776	-6285	-16248	-2464	-2484	-7871	5654	889	-16688	1200	-1576	-15313	5329	5245	130	120	1
-2500	-11688	17336	-16303	-32768	948	-11488	-600	5572	-13745	-912	-11335	-22384	-1856	-5356	-2457	-20677	-4146	-10636	4220	11936	-4941	-1454	-7304	-16588	-3004	-3580	-7646	4706	662	-16528	-220	-808	-14182	5342	5097	121	120	1
9036	-4860	11792	-19497	-32768	77	-8672	6208	6792	-6524	-11166	-15650	-20048	236	-5252	1680	-19240	-4077	-10656	4472	11492	-5140	-1390	-7447	-16708	-2160	-4172	-10068	3229	579	-16684	492	-2384	-15559	6458	5105	134	122	1
344	-3588	12048	-18711	-32768	-4990	-6772	7276	1648	-7978	-16798	-15892	-16304	2132	-3984	2319	-18491	-3243	-12264	2716	12984	-6199	-1571	-6778	-15496	-3960	-5960	-15657	947	244	-15632	-3892	-2696	-19392	6532	5640	129	121	1
-7024	-4972	15944	-13865	-32768	-12195	-8740	10116	-1332	-8558	-23010	-16845	-15184	1080	-4684	2068	-17056	-1190	-10952	40	13512	-4638	-996	-4255	-14824	-8148	-5020	-11974	1709	814	-14892	-8316	-1452	-17494	6941	4920	125	130	1
-10956	1076	17304	-9943	-32768	-16715	-10156	11612	-1440	-9754	-27665	-18023	-13200	1616	-4704	2690	-16228	-1192	-10760	3308	12528	-3962	-555	-3431	-15432	-4716	-4736	-5933	2622	2019	-14516	-6360	-1556	-7806	8265	4472	121	125	1
-10500	9988	18320	-15279	-32768	-18475	-11424	13532	-732	-9897	-32131	-18483	-11104	736	-4232	6952	-15239	-145	-11116	1844	12384	-3411	-345	-2200	-15160	-4792	-3260	-2801	3572	2254	-15928	-4088	1048	-6072	7779	4562	118	127	1
-12648	8912	19832	-21517	-32768	-15136	-14604	14112	-1960	-12409	-32768	-18385	-9248	-24	-3576	8136	-14117	1802	-10152	4220	11744	-3963	-473	-3178	-15644	-2204	-1268	-2387	3871	2947	-15836	-3020	1856	-6910	8137	4834	123	119	1
-16536	7604	22496	-20207	-32768	-10079	-17828	16380	-4400	-14829	-32768	-17134	-8800	-2528	-1512	7489	-12485	1408	-10984	4192	12484	-4292	-520	-4396	-16256	-1900	-1568	-3694	4191	2802	-15920	-888	1784	-5150	8094	4522	123	132	1
-18604	8592	22024	-17795	-32768	-8996	-18768	17348	-5992	-16618	-32768	-13075	-9424	-888	468	3813	-10282	1406	-8976	2280	12372	-4179	-383	-5165	-15368	-3720	-2048	-4534	4500	2911	-15124	-636	560	-6403	8730	4799	126	127	1
-21192	4780	21792	-17242	-32768	-9488	-21668	16400	-9152	-19975	-32768	-13012	-10452	3908	4048	-1532	-9193	3196	-8172	3244	14004	-4085	60	-5841	-17256	-3816	-3556	-669	5030	3703	-17148	-2560	-1592	-7660	9500	4690	127	123	1
-29300	5624	18484	-19059	-30547	-9507	-21968	12972	-13140	-19415	-32768	-12527	-10824	2776	8356	-5104	-9123	5030	-11212	1944	13300	-3875	467	-5442	-17252	-2856	-4288	-475	5038	3763	-18464	-3160	-476	-3110	13167	6113	128	131	1
-32768	4396	13812	-16047	-30487	-8166	-21584	8292	-14416	-15915	-31150	-12288	-10932	-2364	12656	-10749	-5563	5739	-12072	-372	13124	-3047	704	-4686	-16116	-3628	-7220	3493	7192	3584	-16304	-400	-2664	5937	19225	9173	121	130	1
-32768	8536	8332	-11689	-28496	-7660	-20016	9604	-14136	-9742	-26761	-7431	-13280	-2560	14728	-11604	-3497	3640	-11712	108	13620	-2154	1439	-4044	-19012	-1764	-6268	1732	7157	2760	-17024	704	-4224	6258	18270	8175	121	130	1
-31024	10064	268	-5818	-22709	-3528	-15468	8992	-15136	-11573	-18490	-4592	-15204	-1344	14392	-5420	-6930	1489	-12244	1840	14824	-1788	3496	-4527	-19840	-2548	-3704	377	7576	799	-20488	-492	-712	5486	13048	6153	123	134	1
-30940	12568	-5676	-4168	-15068	1066	-12200	5912	-16804	-10307	-9752	-2919	-14280	792	15376	-3700	-9112	1272	-11980	2188	14896	-1887	3845	-4671	-19396	-4280	60	2478	9644	1614	-21720	-4548	6268	3425	8453	6580	122	132	1
-30120	11480	-8132	-4257	-7306	3619	-11476	5400	-17692	-5942	-1776	-1031	-10472	2852	14152	-6752	-7041	3246	-11684	1216	15932	-4595	9480	-7753	-18592	-7300	-36	2102	12527	1567	-20656	-6740	8020	6293	7494	4637	116	130	1
-30732	11004	-5456	-4609	-2239	5383	-10804	7304	-19140	-6032	5747	245	-10928	624	16000	-7113	-6981	4261	-11032	-612	16384	-6421	14255	-7511	-19116	-5628	-1852	-3227	13996	828	-18940	-5284	8024	6814	6997	763	128	130	1
-24720	8336	-2484	-5123	-160	4372	-10268	7540	-16364	-7162	11819	2167	-7644	-2840	8084	-4602	6478	4285	-10240	2340	16644	-7974	18216	-7494	-21460	-4268	-1804	-5611	15409	-120	-19916	-1276	4336	238	5054	-1183	120	130	1
-10604	-3084	11664	-185	-656	2426	-15364	3340	-1500	-12290	12891	3877	-6640	-4648	-14728	-14159	21652	3313	-10488	3900	15380	-11612	22922	-11614	-21440	-4760	-964	-4787	16487	-259	-20656	1160	4016	-3170	13	-1994	138	130	1
3056	-17488	17564	1322	2878	4896	-22136	-9772	14020	-6669	6444	1593	-19828	-7780	-11256	-11166	12092	3135	-8160	-272	15456	-14422	31646	-16128	-21916	-6220	348	-1430	18301	-892	-19740	-1020	11572	-3795	-8738	-4639	125	129	1
-868	2704	6260	1043	7642	14081	-12604	7496	-4656	11875	-2167	91	-20528	-10128	13596	826	5315	-2666	-10612	3352	15696	-17558	32767	-17637	-23432	-8280	9712	3151	22043	-2226	-15820	-5168	11860	353	-11743	-7961	120	132	1
-25492	-15296	18272	1023	14659	8100	-32768	3364	-2016	4807	7450	6601	-23088	-2992	22088	9732	13313	-4839	-18400	8764	15824	-19725	32767	-24133	-27708	-4172	9484	4274	24080	-1772	-17512	-7920	11908	2861	-15746	-12526	115	133	1
-17520	-8776	14472	6880	7381	8589	-18872	5000	-2604	5642	10266	758	-22148	8936	6324	6025	17548	-1551	-32768	-6172	10680	-18308	32767	-30019	-28368	-2084	-7252	1863	26492	-533	-20068	-1512	10436	6222	-18092	-12785	120	134	1
-7624	2852	13656	4633	8753	6602	-11852	5980	-1560	4174	9630	1303	-9560	4344	684	-10675	13509	-2435	-31084	-212	12296	-18079	32767	-29124	-28776	2696	-6032	-4574	25860	-4298	-25220	6820	556	12082	-14680	-9415	123	135	1
-13044	-6776	11460	1649	7599	6053	-17184	1788	-4104	-344	9796	358	-15044	-5412	-1160	-12882	4585	2185	-32768	10536	18052	-19135	30563	-29642	-23280	1704	-2984	-9512	19389	-4482	-28920	6476	-9204	14543	-10619	-2564	127	134	1
-10664	-1248	13228	6058	4283	4710	-18400	752	-4496	4948	6695	-458	-19980	-10152	-1608	-6925	7188	-4206	-10340	19152	17272	-19104	20873	-22468	-17296	4408	-5960	-18129	11735	-4648	-30420	5804	-9772	6635	-18039	3601	136	131	1
-11892	2144	14540	5275	3575	4835	-17244	2936	-3692	2595	6481	368	-16916	-4748	-248	-1451	10302	-4640	-32768	-2872	18612	-16353	-2122	-5365	-11928	5112	-13624	-11014	7968	-6966	-24816	5464	-7580	-471	-25169	3407	131	135	1
-10836	-4276	12040	2784	1960	2593	-15792	3656	-4012	475	5997	-131	-14988	-2504	1056	-1959	9839	-1098	-12008	11408	15716	-6393	-26968	10754	-13428	1664	-448	-6772	250	-10316	-25644	6900	-3736	-4116	-25471	2317	129	130	1
-10280	-4560	12036	1852	1382	1536	-17160	2860	-3012	-1353	5828	-481	-16656	-3128	1020	-5214	9873	1225	-3640	11208	10764	-6826	-31070	14172	-8860	3480	-392	-10004	-8500	-9885	-21592	6520	-5660	-6436	-21932	4044	125	127	1
-10388	-4264	11732	1329	1139	766	-16724	2812	-2872	-798	4972	-860	-15568	-4396	760	-5842	11595	-138	-4296	9656	8044	-9312	-31141	14247	-8828	4300	-1808	-10991	-15092	-12299	-18448	6996	-7472	-9116	-18738	5072	129	126	1
-9656	-4844	11152	1292	1230	568	-16368	1544	-2408	825	3824	-1533	-15292	-4028	372	-4283	12666	-1238	-7496	8424	6860	-8878	-32336	14309	-8780	3688	-2960	-10927	-21066	-14853	-17064	5472	-8360	-13663	-18257	4762	124	122	1
-10052	-4868	11400	1339	1259	769	-16136	2232	-2456	1312	2853	-1959	-15340	-2600	680	-4381	13204	-1588	-10604	8324	6348	-7366	-32768	15140	-9780	3772	-3880	-9491	-26349	-16534	-15128	4472	-7852	-17453	-18663	3787	135	121	1
-9788	-4768	11496	1032	1267	752	-16104	768	-1608	781	2887	-2105	-15248	-2196	2192	-6390	12474	-402	-15892	5940	6212	-3183	-32768	18068	-11600	3908	-5112	-6362	-29644	-17367	-13596	5188	-8412	-22854	-18395	2765	130	122	1
-10860	-4252	11256	839	829	812	-15988	1408	-2616	-1072	3620	-1266	-15628	-4312	1716	-6543	12169	-763	-19692	6968	5272	2276	-32768	20867	-13180	3808	-5292	-3568	-32518	-16629	-11244	2716	-7660	-27284	-17632	1009	135	120	1
-10836	-4160	11408	777	559	615	-15720	1656	-2292	-3994	5614	-1043	-15304	-4688	1892	-5416	12240	-1627	-19860	7808	4992	4672	-32768	21661	-14744	3232	-5520	-784	-32768	-15756	-10160	-528	-7608	-29882	-15799	-765	136	122	1
-10304	-4432	11468	760	307	479	-16236	572	-1280	-2872	6350	-865	-15576	-4356	2032	-4750	12398	-2380	-20308	8684	5612	6560	-32768	22637	-17272	3384	-5132	1846	-32768	-13981	-9984	-2260	-6568	-26193	-13095	-841	139	127	1
-10164	-4896	11412	737	259	409	-16428	92	-1388	-898	6133	-353	-14736	-3720	2284	-4695	13361	-2441	-21380	10016	6912	8640	-32086	23452	-21552	3308	-5776	3339	-32768	-10715	-11000	-2292	-5116	-19523	-10109	-109	132	128	1
-10004	-4116	11440	506	574	439	-16324	2628	-2832	-1337	5918	-61	-15688	-3484	168	-4282	15091	-2170	-22328	10368	7428	8730	-31040	23488	-23680	5248	-8796	1011	-32768	-8482	-11816	-5052	-4324	-12425	-6965	214	133	129	1
-10480	-4012	11924	-141	1156	-77	-16636	3048	-2540	-4320	6821	-280	-16028	-2604	756	-2046	14995	-3003	-32768	10648	11376	8270	-27182	29511	-24148	5592	-9516	-197	-32768	-8330	-11188	-6908	-1372	-6959	-7133	151	135	129	1
-10008	-4596	11808	-622	1792	63	-16516	860	-1228	-3759	7380	-649	-15920	-2072	1472	-1033	14746	-3766	-32768	8172	11552	3719	-28483	32767	-26176	980	-10640	-2823	-32768	-7353	-11056	-6836	-652	-6680	-7138	95	134	128	1
-10284	-4540	11900	-800	2362	398	-16100	-8	-1440	-947	7548	-414	-16148	-2956	2860	377	13296	-3751	-32768	444	8624	3735	-28691	32767	-25912	3608	-12536	-1208	-32768	-7296	-11024	832	4928	-2785	-5595	6229	129	129	1
-10324	-4804	11724	-1020	3147	880	-16832	948	-2224	-1173	8462	121	-17524	-4420	2072	9	11722	-3484	-32768	-3876	2696	1759	-31802	32767	-23536	2340	-14248	-3013	-32768	-5712	-15068	136	8604	-6791	-5179	8325	126	127	1
-11596	-5548	11340	-1239	4183	1329	-16880	-532	-1376	-2080	10497	760	-17700	-6452	2628	-2090	7921	-4306	-32768	-12500	-5380	4055	-26914	31919	-18872	416	-15784	2779	-28323	-2441	-15228	-8624	12396	-11938	-7004	6811	124	124	1
-9600	-7488	13312	-532	6068	3121	-18048	-992	360	-51	11686	1076	-18748	-3656	4124	-6063	4796	-4314	-32480	-20824	-14676	13642	-16017	20961	-14488	2984	-17992	9840	-16853	3251	-13124	-13568	20144	-2952	-6008	4677	124	124	1
-11504	-3200	13288	-484	9327	3797	-19180	3884	-2236	-905	13779	2382	-19524	-2908	2756	-10576	3445	-3817	-31220	-24144	-19164	23228	-2618	8884	-11360	3044	-18092	16297	-1801	8424	-13352	-10068	22036	9182	-3951	1970	125	113	1
-11104	-3876	14252	-1137	13166	3659	-18716	3560	-2556	-231	15687	2601	-18988	-2464	1388	-12188	2316	-2549	-31508	-15040	-15616	18384	7837	-2580	-11284	5968	-17476	12464	10235	9242	-14132	344	14608	12733	-4471	2818	126	116	1
-10948	-4560	14260	-1523	18069	3873	-19888	4216	-2780	892	16761	2413	-20184	-3056	2048	-13020	1159	-1661	-32048	-5292	-7624	4020	9558	-11821	-16104	5440	-8868	3585	17455	9115	-12028	6912	6184	9793	-511	6616	125	122	1
-8572	-3652	14692	-2623	23325	4206	-20080	5748	-2772	98	18044	2335	-20056	-2200	3680	-14973	-932	-1074	16908	10200	32767	-19785	5207	-20334	-32768	-22900	32767	-14127	5821	890	-17684	9620	740	-1412	5753	11470	133	132	1
-8184	-4076	15788	-4443	30048	4277	-23684	7020	-540	-2152	19834	2604	-22664	-2040	5748	-15240	-3940	-199	-2224	-6340	3612	-16414	27610	655	-8976	-4808	-12356	-32768	-37	2914	-23728	3280	9404	-22934	6261	12092	141	125	1
-7052	-4396	15428	-6057	32767	2802	-23924	10420	3184	-2139	21989	2863	-23160	3000	11516	-19588	-9276	2952	-23520	-9544	18424	-10013	28668	13099	-22012	-17996	-4916	-32768	5955	342	-12400	-12336	9316	-32768	13890	-2897	120	122	1
-7024	-4348	18004	-10898	32767	1920	-27624	17156	7284	-11602	23792	2314	-20664	12304	20724	-15798	-30280	5156	-16856	-23544	25460	-554	22638	-8797	-19424	-14972	-5740	-20009	10093	7610	-15524	-25848	-4040	-30493	13969	-2451	123	136	1
-20256	-7704	8152	-19551	32767	8335	-23372	5764	9372	-27308	29660	-894	-18132	16208	4208	-31409	-13931	10314	-16568	19496	7160	2524	15749	-7588	-17424	-1636	-960	-6338	13901	10076	-13456	-6440	-1724	-3653	7705	-1675	117	134	1
-32768	-11288	-676	-16579	32767	11338	-22900	-3660	-13540	-12620	30112	679	-22552	-5656	-7104	-32768	-15215	9584	-32768	15660	9340	-8821	9970	-11637	-20880	20040	-1924	-6297	11778	10054	-19708	14052	544	10849	3470	6174	119	130	1
-31740	-10876	14016	-22676	32767	13963	-32768	3188	-4544	-2253	23889	5553	-30616	-18908	-20824	-28064	-18841	170	-15780	2500	11576	-10085	2286	-10271	-20028	-488	-5128	-11865	9203	5802	-19708	14500	-340	9251	3298	7942	129	140	1
-25920	-16088	15448	-25252	32767	15460	-20112	1364	-2620	1016	18405	4849	-24856	-14608	-10908	9525	-24182	-3627	-15272	1296	12420	-5495	-1623	-6790	-16392	-5852	-6032	-622	10688	5549	-15280	-456	-4280	4217	8742	10435	121	137	1
-31616	-16444	18992	-18415	17576	19043	-11736	-1596	-18012	-1138	14103	3129	-22964	-3460	-5712	7601	-22777	-1080	-13320	1048	12236	-3141	-1401	-4678	-16452	-3092	-4736	7870	11190	5768	-15872	-364	-2584	5579	7618	6155	133	130	1
-17964	-17652	20560	-6955	-30855	5414	-12532	-332	-9888	-6861	4751	865	-24708	-768	-2280	8008	-24854	-1330	-12164	1948	12460	-1585	-185	-2975	-17656	-1312	-3344	4492	9459	5050	-16784	3580	-1304	-386	8814	4658	127	124	1
-4160	-9912	15976	-6354	-32768	-2766	-9004	1300	3892	-13860	-1704	-2269	-22848	-364	-5580	7214	-22615	-2940	-11304	2404	12288	-1470	450	-2085	-17408	48	-4096	-3163	6407	3803	-16268	3092	-2388	-6882	10119	3795	121	126	1
268	-7420	11360	-9755	-32768	-605	-9784	524	3684	-14586	-8309	-8158	-19604	692	-5056	5319	-19527	-2155	-11376	1876	12004	-1368	509	-1690	-16272	-1600	-4272	-8426	3360	3010	-15036	-36	-1744	-10314	9858	3408	137	125	1
-4504	-7624	10228	-9027	-32768	1585	-7048	724	-260	-10755	-18047	-10331	-18156	-464	-4376	2309	-18256	-2219	-11348	1968	12160	-1334	473	-1466	-16756	-3848	-2984	-5144	3349	3010	-17148	-1520	-1316	-9806	10159	4252	130	123	1
-4912	-4176	9348	-7180	-32768	-1820	-9688	5072	20	-8305	-26855	-9445	-15108	-3784	-5548	5766	-17510	-2161	-10984	3600	11780	-671	541	-657	-16024	-1996	-2120	281	4285	3386	-16296	-2132	-568	-3474	11190	6299	125	131	1
-7692	-2476	9252	-7426	-32768	-7200	-10716	9048	-1748	-8787	-30655	-9039	-13744	-4012	-6856	14069	-16125	-2364	-9988	4444	11664	-994	438	-1159	-16052	-3144	-632	5896	5120	3924	-14180	-2928	240	1237	11621	5836	120	129	1
-11612	-1700	9972	-8415	-32768	-14044	-10608	9304	-2068	-8986	-31077	-8901	-12364	-548	-6172	15405	-15990	-1018	-11224	2000	12036	-1411	624	-1680	-16312	-2824	-2576	10545	6191	4529	-15744	-1012	1536	5616	12158	4924	127	124	1
-12824	-3160	11072	-8277	-32768	-19369	-13000	7196	-4848	-10982	-32768	-10940	-10356	1748	-6156	11015	-15209	-820	-11688	2600	12204	-567	1048	-1452	-17180	-660	-1612	6484	5666	3901	-15976	-576	1008	5452	13883	5126	129	134	1
-16596	-4848	13428	-6954	-32768	-22425	-15236	5096	-7016	-6745	-32768	-11765	-8144	1992	-6188	7201	-13545	433	-11752	3308	11564	-1380	885	-1918	-16828	448	-1608	-794	4165	3571	-15872	2468	-928	3764	15378	5729	126	135	1
-22332	-2548	16300	-7765	-32768	-24187	-19336	6448	-8752	-2815	-32768	-11309	-8716	-280	-5616	3426	-11146	1147	-11876	888	12208	-1373	1405	-1066	-16428	-2912	-2940	-2000	4653	2715	-15808	840	-324	645	13569	5932	127	129	1
-22032	-656	16468	-12821	-32768	-22818	-20900	9872	-9544	-6682	-32768	-10464	-9940	-868	-4152	-337	-8215	-127	-11668	2400	12200	-1074	1609	-512	-16344	-3000	-2844	4363	6924	3672	-17436	-156	-336	1678	14665	7117	125	131	1
-30520	-5112	18424	-15926	-32768	-18952	-24452	7572	-13788	-13477	-32768	-11634	-11204	-188	-136	-460	-7423	-1330	-11604	2108	12348	-795	1214	-659	-17084	-1228	-3492	5847	7866	4350	-17132	-80	-752	1950	18629	9039	125	134	1
-32768	-3956	16456	-15122	-32768	-16416	-23780	9260	-15600	-17409	-32768	-12507	-10204	-908	3604	46	-6606	-1567	-11668	2712	12208	-425	1975	-210	-18200	-2436	-1640	4820	8475	3625	-16460	-900	484	283	17082	8842	128	134	1
-32768	-764	10616	-15482	-32768	-16935	-22048	8016	-15676	-19898	-32768	-12646	-9860	-1624	4124	-109	-6349	-1497	-11948	3580	12256	-834	2815	-873	-16664	-296	352	4362	9405	3769	-16000	-1032	3192	2822	13844	7733	130	135	1
-32768	1124	3892	-13549	-31087	-17352	-20380	7800	-16092	-13641	-30494	-12160	-12192	-1608	11932	1249	-199	-3651	-12436	2412	12020	-1232	3583	-1841	-16144	-64	-468	2180	10644	3265	-16832	-1020	3772	5325	10356	6071	127	137	1
-32768	5976	-4928	-7063	-22351	-16408	-18904	7732	-18996	-5714	-22399	-9565	-14344	-3120	17320	4120	-1515	-5731	-11980	2184	13508	-1135	5493	-2233	-18364	-692	-544	524	12646	2056	-18680	-656	4256	7115	10355	6615	127	136	1
-32768	11612	-14596	-355	-11610	-14354	-9520	6140	-21680	4041	-14146	-5954	-15472	-2048	18444	3146	2739	-4327	-12428	4012	13836	-2066	9220	-3587	-19508	-1340	64	-730	14480	2149	-20664	-340	4240	6755	9209	6150	130	134	1
-32768	19736	-18580	-1894	376	-11404	-7508	8852	-22228	6333	-1736	-1938	-12748	776	19320	1812	202	-268	-12120	3036	14488	-2995	12689	-5511	-19764	-2172	-1164	-2868	16304	1889	-20292	480	2532	5755	6148	4805	130	131	1
-32768	14724	-15320	-2662	12552	-7809	-8396	7264	-20500	6448	11653	1809	-15072	-1680	16660	3600	-4435	1913	-11240	3196	15428	-4719	16729	-6923	-20836	-3896	-2860	-5795	17182	1887	-19152	176	1540	4384	3720	2945	124	129	1
-1652	-14256	28168	17446	4837	-4837	-22052	2948	14324	-7735	18042	6164	-13424	-2928	4648	428	-927	1428	-10624	2496	16004	-5808	22177	-8172	-22560	-5064	-3548	-6113	17900	2408	-20288	-368	980	5681	2239	1071	125	128	1
25844	-8264	23564	6433	22388	-989	-26152	-1796	31868	8625	5490	3375	-16308	-796	-112	1087	9472	-686	-9876	4188	16452	-6337	29583	-9230	-23852	-7088	380	-6006	19219	2429	-22968	-740	5004	7185	-2782	-514	139	128	1
-16232	1952	10668	9711	24856	17307	-11108	5448	-6412	31761	1868	59	-22200	-1772	9404	3017	8409	-1439	-8368	3812	17116	-7628	32767	-11273	-25216	-12032	3600	-2721	20936	3673	-22304	-7380	13300	5873	-12583	-3907	131	127	1
-16816	-3800	13912	1779	18601	4192	-20056	13672	-60	10881	10818	7248	-11980	-4664	15264	22107	8137	-3570	-8688	7080	18496	-8248	32767	-13207	-29248	-16316	11832	12273	24459	5633	-18332	-22540	16160	2621	-18909	-14306	125	127	1
-22496	880	19504	-2773	21086	6046	-19160	15568	-3052	6929	14180	1428	-21624	17816	1720	9906	17248	2880	-23300	6992	11432	-8906	32767	-24360	-27876	-1536	7012	17024	28288	7705	-19812	-12368	12820	15728	-15814	-15038	126	128	1
-22208	-6212	15556	-410	10400	9890	-20160	3512	-4876	3814	16596	424	-20096	5340	3492	-7533	9717	1686	-32768	1980	5772	-7006	32767	-28196	-32432	5788	-11068	4792	30610	7089	-18996	6172	1776	29862	-12091	-13106	129	129	1
-12232	-8832	12172	1549	10185	5910	-18580	2040	-3804	4181	15747	-99	-15400	-12320	-4888	-12284	13476	-3131	-32768	3348	15532	-4613	32767	-28657	-27860	1968	-9764	-4435	23814	4291	-29276	6068	-14076	31032	-9598	-7050	145	130	1
-19056	-22084	6712	6672	6640	5772	-18308	-7704	-7720	5466	13038	-805	-13748	-12936	-4568	-5030	9689	-3183	-29512	8548	23964	7235	32767	-21765	-22256	-288	-1928	-8015	17216	2973	-32768	2272	-16172	16404	-22094	4097	127	135	1
-12032	-1632	12924	9455	1865	9149	-16040	2564	-5728	10839	7062	476	-16440	-9640	-5620	3024	8464	-3156	-31968	3752	11688	12339	27221	-23247	-17180	3312	-11172	-5153	11215	2025	-28796	1956	-8448	5978	-31205	3570	143	138	1
-11960	-4108	13260	7921	1461	7450	-17308	5852	-4472	5712	6618	607	-15228	-4376	-4516	5507	14617	-3386	-27704	14220	18904	14763	-21455	-4022	-8528	3628	-6428	8257	5741	-275	-26076	-2540	-2952	4694	-30578	131	135	129	1
-11484	-4092	13072	5739	1470	5896	-16580	6748	-3000	930	7317	247	-14492	-2528	-1728	6361	14525	-3365	-5432	16048	14592	7796	-32768	3663	-9260	-1656	1056	10104	-3994	1107	-25560	-60	-6644	7841	-23912	2341	137	124	1
-11672	-2796	13344	2910	757	3138	-16328	5592	-1940	-1170	7384	-225	-16700	20	1776	5507	12294	-88	1104	10384	10056	3679	-32768	6904	-6640	-60	-208	6023	-12890	233	-19264	856	-9132	6616	-19660	3596	128	122	1
-10052	-4412	12236	1317	705	1410	-16240	5324	-1932	-1223	7437	-160	-16196	952	1080	3579	13857	-1378	-2948	5636	8748	3757	-31855	11537	-6464	560	-2496	3395	-20132	-1961	-17132	1620	-8868	2584	-18878	3896	125	125	1
-9400	-4692	11716	870	606	1007	-16192	3052	-812	4573	4774	-553	-15112	528	1336	-155	14011	-2315	-8612	4540	8904	6359	-32768	15245	-6916	1084	-3988	967	-26930	-3557	-13472	2208	-8736	-2324	-18413	2766	123	123	1
-9024	-5024	11340	837	448	1099	-15380	3452	-744	3969	4463	-762	-15048	-1416	996	-2312	13673	-2477	-13080	2616	10036	8677	-32768	19309	-8428	-704	-5564	3148	-32113	-4205	-12700	2528	-8228	-6556	-18002	1812	128	123	1
-9148	-5000	11376	1004	721	1658	-15072	3268	-788	-677	6159	-1090	-15120	-2268	2512	-1646	13411	-1618	-13232	2252	10296	9159	-32768	19923	-10356	-2060	-5452	6392	-32768	-4266	-11484	3524	-9068	-13739	-16749	1130	123	122	1
-9044	-4960	11644	931	825	1595	-16136	2200	-680	-3645	7376	-1169	-15480	-2708	2100	-3333	14361	-1513	-13328	-4160	9828	18549	-32768	23794	-12028	-2752	-5232	3423	-32768	-5724	-8892	2712	-8864	-21449	-16471	-1169	129	120	1
-9752	-4528	11640	1960	955	2445	-16296	2404	-1160	-1451	7134	-774	-15308	-2848	660	-3571	16133	-2126	-13868	-1588	10940	20808	-32768	23304	-14712	-3116	-5596	1074	-32768	-6932	-6312	1692	-9452	-22701	-15610	-2688	130	120	1
-9964	-3828	12096	2066	761	2219	-15680	3592	-2056	973	7340	-227	-15968	-1668	352	-1338	17070	-2461	-24288	-1800	13472	20159	-32768	22670	-17160	-4812	-11276	3684	-32768	-7177	-6124	1932	-6332	-19428	-13573	-3102	132	125	1
-10212	-3456	12184	1668	684	1646	-16284	3616	-2452	402	8526	-195	-14780	-872	-680	-823	17800	-2814	-26780	-2636	15084	19964	-32768	23533	-18940	-4800	-10848	12300	-32768	-7596	-8208	-944	-3332	-13167	-11182	-3814	131	127	1
-10472	-4116	11952	1481	925	1709	-16112	2580	-1428	870	8980	-155	-15704	-696	168	-2100	16783	-3011	-32768	-560	17956	16144	-32768	22730	-26504	-2128	-15256	12467	-32768	-7011	-9772	-5668	36	-8810	-8950	-3758	129	129	1
-10296	-3908	11816	1445	956	1928	-15708	1304	-1156	-102	9666	339	-15488	-2188	3072	-2890	15566	-4047	-32768	-7312	15444	13470	-32768	25432	-25900	-528	-17152	12714	-32768	-7908	-11608	-2912	7156	3196	-6265	-602	128	129	1
-9992	-4708	12044	1226	1299	2242	-16808	40	-48	311	10395	1568	-17508	-1928	4380	-2345	14670	-5327	-32768	-7264	8160	11987	-32768	26788	-25020	2540	-15200	8940	-32768	-9369	-12368	-1132	6792	10700	1949	5376	128	126	1
-10236	-4368	12288	922	1837	3112	-16300	552	328	1015	11786	2609	-17928	-2800	5632	-3719	12134	-5325	-32768	-6776	-1736	4561	-32768	23039	-22880	392	-17448	1175	-32768	-7413	-13756	-1792	6672	1111	5603	6988	126	127	1
-9772	-5508	13064	967	3107	3898	-17600	112	-704	1662	13715	3536	-18684	-3540	4052	-5745	8207	-4541	-32768	-13812	-12708	2036	-25048	20876	-17388	1164	-18852	-490	-23643	-3317	-16984	-5308	14748	-7295	-1835	4163	126	125	1
-10360	-3920	14312	1582	5844	5560	-18292	2572	-1416	2918	15302	4251	-20016	-5436	2932	-6839	4380	-4138	-31560	-23596	-19996	6746	-9159	17492	-11872	1680	-20420	2115	-10159	1583	-14380	-12336	23112	-7612	-2092	639	128	116	1
-10872	-3460	15100	2487	10843	6437	-19796	4940	-2640	4598	16976	5062	-19832	-5044	1740	-8501	2634	-2615	-32768	-21752	-18344	7130	5362	10520	-10248	6116	-20316	226	4441	3851	-14524	-8144	21900	568	-3757	439	122	119	1
-10932	-4268	16060	3046	15081	8204	-20652	5492	-3728	6131	18257	5224	-20416	-3784	860	-9328	2310	-795	-32768	-15908	-12468	-4741	9999	159	-12068	6088	-19580	-6754	15122	4061	-15976	152	12888	2701	-4019	2029	123	140	1
-10872	-5200	16856	3630	20633	10317	-22236	7000	-3580	6018	19026	4904	-20572	-2068	3704	-9546	235	-22	764	20996	31792	-8155	5540	-10440	-26324	-14924	12984	-9937	14122	1169	-19588	2296	8656	-4484	60	5062	124	129	1
-6244	-3704	17484	4202	25659	11814	-22788	6476	-1752	4265	20314	4573	-20524	-1068	7444	-12514	-5638	849	19828	13872	23012	-9559	24146	-13182	-22592	-11532	8172	-20476	271	6268	-15600	-964	3516	-19775	19632	7469	124	131	1
-8224	-4436	17128	3797	32767	15981	-26044	8212	464	3078	21924	5391	-23140	2084	16896	-9363	-13837	1424	-27076	-18728	6880	-4476	29914	2017	-9684	-15756	-9952	-13710	10674	655	-12724	-5540	2024	-7406	13942	-2197	130	128	1
-5460	-7500	18600	4441	32767	17804	-26200	9136	1172	2460	22184	5335	-22896	2372	18492	-8475	-16085	1869	-15988	-2572	17456	-1297	21860	-2693	-26112	-3756	-3832	-11170	12291	5341	-19056	-17648	3076	-17472	8178	656	122	125	1
-8288	-6396	17516	6422	32767	18139	-26444	13904	10480	-17948	28332	1518	-22396	16600	10688	-17270	-16842	9260	-28320	7564	12948	4029	18966	-6819	-19992	-2596	-3652	-6457	14003	5767	-18076	-6552	1796	4575	9855	1908	111	114	1
-32768	-568	7672	-2193	32767	20248	-20996	208	-14568	-19584	32294	1238	-20096	4408	-6268	-32768	-18173	8946	-10912	11232	9884	186	14505	-5082	-19448	2508	-2364	-7528	13045	8071	-16456	9608	-6556	11560	10195	2578	122	131	1
-32768	-9968	9580	-495	32767	24699	-29284	-1532	-10972	-9543	27739	4392	-25896	-14496	-15988	-32768	-20230	3998	-16108	3672	11928	-9005	5500	-7473	-19308	6352	-6500	-10306	10161	7027	-18308	11172	-4072	2480	7347	7199	132	129	1
-32768	-12496	21020	-8356	32767	22696	-21300	-384	-7036	-6218	23616	5914	-26456	-18772	-14300	-5794	-22292	-3876	-14356	6440	10960	-6793	3153	-6054	-17512	596	-3952	-3704	10224	5173	-17612	8160	-4604	-1265	8113	7767	135	142	1
-22684	-6388	20104	-8644	10238	17602	-15900	-2360	-17168	-1309	14058	3976	-26912	-10100	-4764	11906	-24263	-3389	-16448	1820	12760	-5838	1021	-6460	-17112	1100	-5228	5	9075	3973	-17392	4576	-1896	-3522	8418	6318	131	136	1
-9364	-16876	21456	-10140	-26176	2295	-10816	-5192	1368	-7695	3378	1903	-26232	-3020	-3300	13624	-23148	-4015	-12600	2596	12832	-3049	241	-4010	-18672	-3492	-5140	4206	8973	2845	-17296	20	-2496	-3625	9916	5754	128	129	1
2984	-15404	15060	-9069	-29741	-139	-11496	-444	5112	-6960	-6502	-4729	-25972	-2776	-3464	11844	-22459	-4658	-12376	1940	12664	-1775	527	-1772	-17440	-2928	-4744	4011	8016	2565	-16540	-1864	-1948	-2972	10541	5176	132	129	1
968	-11904	10516	-6482	-28248	-3623	-8888	176	656	-3608	-14756	-5532	-19792	-1952	-5776	6259	-18916	-6392	-11116	3000	12312	-689	863	-444	-16700	-2964	-3180	2442	6498	2815	-16116	-1168	-1536	-2422	11139	4081	130	127	1
-6536	-10856	9820	-4719	-30136	-11317	-6596	364	-3384	1522	-23314	-6832	-15600	-800	-6228	8569	-16868	-5937	-10088	4036	11916	-773	1456	-70	-16836	-2124	-2432	-314	4329	2949	-15332	-512	-2940	-3396	12150	3594	139	125	1
-7568	-8600	9608	-3676	-32768	-20129	-8960	3868	-3880	-209	-29899	-7791	-13660	-2044	-6036	10295	-15613	-5407	-11460	3188	11828	-445	1414	86	-16148	-2916	-2756	-528	3383	2612	-15964	-1864	-1764	-4299	12448	4217	126	129	1
-10612	-5388	10048	-4523	-32768	-27172	-11552	3896	-4484	-2241	-32768	-8600	-12864	-4328	-6824	13842	-13847	-5475	-11984	3696	11704	305	1169	203	-16080	-2736	-1700	3836	3947	3012	-16196	-2032	448	-175	12903	5098	122	131	1
-16108	-4892	10756	-4751	-32768	-29362	-12660	3304	-5260	-597	-32768	-9924	-12832	-1800	-6736	18731	-13012	-5233	-10880	3812	11552	1284	1180	318	-16388	-2452	152	6911	5098	3196	-16408	-1400	2204	3234	12568	5258	119	130	1
-19036	-3256	12248	-5274	-32768	-28646	-13692	4000	-5864	900	-32768	-10929	-9444	2052	-7296	17769	-12653	-3644	-10748	5336	11140	642	1367	-455	-16712	116	836	5143	5168	3389	-15180	-608	1952	5590	12604	5471	123	128	1
-18992	-3616	13080	-5937	-32768	-27638	-15884	5984	-6924	1022	-32768	-11292	-7700	2132	-7292	13884	-11817	-3234	-11220	4688	11132	-460	1368	-1450	-16536	-552	-892	1728	4768	3083	-16228	360	540	6863	13391	5660	121	128	1
-20472	-3568	15868	-6917	-32768	-28076	-18540	7496	-7784	-634	-32768	-10975	-7516	1516	-7116	13273	-11485	-3237	-11408	5072	11132	-1094	1377	-2087	-17048	-1012	-844	952	4929	3107	-17236	1140	24	6351	15345	5861	123	131	1
-25896	-4060	18792	-8034	-32768	-29287	-20720	8712	-9828	-3283	-32768	-10294	-7460	912	-5808	6981	-5543	-2782	-11184	6112	10700	-2242	802	-3761	-16684	716	-1936	1694	5693	3608	-16292	2064	780	4500	18431	7875	125	133	1
-29752	-3728	21620	-8006	-32768	-28211	-26636	10392	-11236	-7101	-32768	-10220	-8820	1672	-3652	6442	-3789	-3194	-12560	1300	12312	-1809	663	-2616	-16856	-4640	-4172	4855	7300	2996	-16784	-1784	624	-1302	20198	8825	124	133	1
-32768	-1800	19376	-9601	-32768	-26519	-27120	8032	-15196	-11217	-32768	-8849	-9372	300	-148	3365	-1693	-3735	-11664	4436	11852	-881	1235	-1872	-17900	-2408	1008	8434	10108	4350	-15828	-2144	2160	539	19057	8779	124	132	1
-32768	-3864	9724	-7735	-32768	-23076	-26764	5480	-17724	-9285	-32768	-8740	-12892	-4028	7724	536	-646	-4988	-11948	4552	11348	-1161	1236	-3351	-14320	3012	3372	4668	11487	4512	-19028	368	6064	2408	12295	7090	130	133	1
-32768	3544	-4596	-6174	-32768	-17574	-21860	10244	-20816	-5941	-32722	-10874	-20188	884	20172	11482	-3740	-6167	-11828	4592	11792	-1539	1389	-3988	-17124	1880	3208	-2673	12426	2333	-17652	-1416	7476	1081	7192	5970	123	136	1
-32768	18956	-16956	-14365	-20521	-14101	-11364	9236	-25520	-7686	-18634	-10456	-16232	5912	27956	8372	208	-3291	-12000	4576	12104	-2145	2495	-5522	-17896	-16	-1704	-4647	14174	1950	-17120	960	4460	1938	8482	6060	115	135	1
-32768	23580	-23656	-17448	-4725	-11505	-5044	5412	-23520	-4956	-201	-4161	-14256	5732	28160	-7582	-5087	2627	-9280	3132	15648	-2589	5671	-5291	-19280	-3684	-3200	-2118	16516	1290	-19016	4076	-524	3087	9077	5775	119	131	1
-32768	11448	-18612	1990	10492	-2206	-8228	3252	-21680	1786	13944	1370	-15820	-4088	18012	-5250	-8097	981	-12008	3644	14668	-3119	10734	-5704	-19780	-1736	-3392	-5351	17157	1100	-20084	3008	-2840	3994	5065	3864	121	129	1
-32768	15012	-7324	12669	18607	8144	-12244	7116	-21068	13240	21272	5114	-13008	-7656	7368	-2624	-2370	-1220	-12224	2796	15176	-4061	15554	-7120	-20436	-4276	-4288	-8274	17554	702	-19016	-640	332	4266	1741	1475	124	127	1
-32768	-32768	32767	9119	-1275	-2368	-32768	21156	32767	-13981	17848	19085	-9828	-6596	-2624	4167	2602	-3489	-10756	3140	17028	-4686	20811	-8601	-23364	-5460	-3840	-6156	18669	1488	-20808	-1148	1992	6623	55	994	126	126	1
23084	9288	-9212	11115	20297	14291	-6996	-6884	-2440	32767	471	-8993	-26088	432	-5380	-253	11898	963	-9460	5152	16692	-5141	29037	-9320	-25568	-7660	-1188	-5134	19519	1677	-24444	-3896	5976	7106	-4660	-321	125	129	1
-32768	20732	17248	5219	30299	28	-8584	19448	-13540	21600	6971	10581	-10708	-5516	7552	17683	899	-3053	-7716	4692	18484	-5745	32767	-11737	-27768	-12452	6008	4430	22715	4029	-21116	-10920	14568	431	-16017	-6002	120	127	1
-14508	10016	18980	679	20828	7047	-27228	14496	-5728	5756	12230	1043	-21092	7632	10148	20859	14023	-1332	-10256	11080	19144	-8323	32767	-16285	-31400	-12948	13848	10738	25976	4911	-19760	-18876	14796	6424	-14609	-13091	123	130	1
-21480	-9252	16564	-3945	14434	11270	-23288	9356	-3124	2967	15043	2199	-22700	19388	7364	6563	12143	3491	-25944	6488	15224	-9067	32767	-27388	-29064	-2864	2236	7351	27563	5858	-21136	-7996	13152	12675	-17908	-14895	135	134	1
-14956	-9372	12564	862	10084	5267	-18520	3304	-3076	3407	15834	-1382	-17124	-608	-2896	-18064	14096	393	-32768	2312	6980	-3335	32767	-26520	-30028	2692	-9672	-743	29092	4150	-22408	5960	-2952	31121	-10553	-10748	129	137	1
-12812	-6332	12904	932	10075	5393	-14344	1356	-2200	3870	13113	-597	-15260	-3460	-4160	-19461	14305	-665	-32768	8756	16860	-1723	32767	-29303	-25396	24	-5896	-4235	21328	5016	-29308	4980	-13424	32067	-11155	-2335	123	136	1
-11752	-6844	12376	9062	4649	7065	-18944	-3784	-5140	6078	9663	-1940	-15840	-13000	-3376	-9012	7184	-1966	-25100	8584	25652	11710	32767	-22261	-20464	964	-2592	-7704	15560	1715	-32768	3112	-13288	14415	-23630	3984	134	135	1
-11796	-8140	11280	5471	1495	5942	-17212	4888	-4088	1941	8829	1026	-16840	-7240	-2624	482	11241	-4306	-32768	8516	12456	8928	22971	-20468	-14608	1528	-10684	-3040	10002	1419	-27372	2724	-6200	3647	-30134	-647	132	129	1
-11204	-3160	12632	4771	704	5320	-16056	5140	-2868	785	8064	640	-15988	-4536	556	4408	13921	-2922	-22992	17060	20540	7705	-24307	-38	-7076	5356	-4560	7177	4001	-509	-24828	-1512	-2040	2061	-31012	-1798	129	132	1
-10560	-3172	12480	2961	738	3382	-16284	4896	-1396	-324	8225	254	-15024	-2460	2912	6410	12170	133	-5480	15768	15884	690	-32768	6751	-10272	-1164	2040	7849	-6498	860	-23940	-1088	-5892	4871	-23426	941	137	127	1
-10216	-4240	11956	2827	416	2460	-16716	3396	-292	864	8405	-314	-15532	-1360	3824	5754	11864	718	1588	7876	11628	-311	-32768	8073	-8288	-180	1148	4343	-15226	-433	-19644	504	-7712	5544	-19673	2223	125	121	1
-9888	-4596	11380	2587	484	2280	-16628	1252	-1624	6362	6367	-635	-15336	-1276	1096	2223	13393	-792	-3628	2732	10576	3612	-32768	9732	-6476	280	-1716	2003	-22460	-2814	-15440	2132	-7984	725	-18756	1545	122	121	1
-9576	-4812	11616	2282	319	2345	-15944	3476	-2336	9230	4511	-443	-15532	-940	-1476	647	14876	-1855	-6236	1916	9792	10340	-32768	12436	-7504	-1532	-3240	2252	-28458	-4248	-13284	2504	-8372	-4141	-18686	730	119	122	1
-9916	-4064	11488	2085	-24	2394	-15104	5448	-3068	2192	6056	-141	-16020	408	-84	-1299	14554	-1761	-11136	1764	11280	14418	-32768	16292	-8652	-2372	-5972	7763	-32576	-4863	-11736	3236	-8656	-8204	-17255	-196	121	123	1
-9860	-3820	11976	1751	124	1886	-15792	4216	-1808	-3013	8305	-757	-15500	-248	1852	-5314	14241	-1040	-17652	-260	11288	17118	-32768	19142	-10528	-2304	-6136	13127	-32768	-4795	-9804	3556	-8888	-12713	-14633	-750	125	121	1
-10368	-3608	12124	1403	226	1382	-16136	2420	-960	-1610	9480	-326	-16112	-2440	3204	-6156	14112	-584	-13944	-3132	10624	21814	-32768	21524	-13316	-4220	-5088	9890	-32768	-6338	-8752	2668	-8632	-17745	-13858	-2165	122	124	1
-9912	-3936	11900	1186	293	1251	-16028	2024	-820	2349	9020	411	-15848	-3016	3024	-3236	14216	-1109	-14668	-648	11240	24407	-32768	22193	-15832	-3632	-5664	9302	-32768	-5897	-6688	2684	-9544	-18218	-12508	-2144	124	122	1
-10096	-4204	11876	1084	444	1758	-15944	3340	-3092	2654	8666	591	-15292	-2452	-1280	-1248	16365	-1780	-24124	3088	13408	21465	-32768	22224	-19168	-2052	-10768	9927	-32768	-5538	-6620	1668	-7416	-14466	-10912	-1745	124	122	1
-10672	-3124	12284	507	1062	1764	-16464	4864	-4904	-238	8452	284	-15560	-1280	-3216	105	17664	-2288	-28956	3912	15456	17244	-32474	23096	-22880	-2532	-12084	8444	-32768	-5225	-7872	-2384	-5752	-10031	-9081	-3257	123	125	1
-10380	-3484	12144	-49	1812	1554	-17088	4024	-4752	-1937	8189	182	-15480	-1904	-2260	-1464	19132	-2305	-32768	732	18144	13910	-31005	29567	-27384	-3596	-17240	6796	-32768	-6465	-11024	-6332	840	-5596	-9504	-3125	123	124	1
-10396	-3700	12512	-355	2382	1457	-16936	2644	-2564	-1139	8140	684	-16452	-3108	1660	-1486	18332	-2790	-32768	-5824	12868	12934	-32768	32767	-25516	500	-16836	11390	-32768	-7314	-9552	-1072	5096	6994	-2938	878	123	123	1
-10064	-5020	12972	227	3445	2184	-17556	724	-96	390	9275	1517	-18308	-864	6112	261	15421	-4752	-32768	-5940	4280	7553	-32768	32767	-25860	3292	-17360	6146	-32768	-6312	-14236	1632	8120	10338	2821	5624	124	127	1
-9968	-4268	13860	976	5329	3980	-16972	1732	1056	933	11423	2242	-19104	-1420	9524	-4017	11523	-4384	-32768	-14868	-6520	3893	-30462	25971	-21508	-856	-19544	3491	-30597	-4262	-17840	-3896	12640	-3021	1112	5370	123	119	1
-11020	-5456	13332	1694	8270	5343	-18428	1232	808	2000	14633	3261	-20464	-4580	7864	-9163	7508	-2697	-32768	-21080	-19760	3703	-19506	18001	-14040	3024	-22152	2553	-17344	1160	-16784	-4572	24988	-7645	-2395	3684	127	120	1
-11268	-5032	14396	2793	11873	7729	-19092	2380	-996	4776	16700	4030	-19600	-5784	6192	-7513	4315	-2588	-32768	-30692	-25968	7439	-4997	8807	-7088	5348	-23224	-972	-1455	3908	-14088	-12300	28060	-3941	-2263	618	122	107	1
-10908	-5260	15340	3835	16373	10149	-21060	4676	-2672	6312	18221	4043	-19752	-4224	3800	-6974	3618	-1180	-32768	-21140	-20108	-481	7287	2122	-9316	4972	-22092	-7619	14479	3926	-14448	-4880	18144	-199	-4213	-161	124	117	1
-8552	-3336	16084	4803	20588	11733	-20620	6648	-2876	5627	19635	3863	-20256	-3288	2824	-7464	2483	533	25380	8204	32767	-8796	11008	-14528	-29200	-16372	28704	-10121	13551	456	-13704	-1556	7404	-2472	393	3863	117	115	1
-9044	-3228	18048	4276	26729	14740	-24336	6920	-796	4478	21173	4170	-23588	-4116	8180	-8566	-3359	1508	2212	7256	7336	-13231	23251	-26156	-16592	-9732	-1716	-21163	1787	9312	-20156	-8192	11324	-21310	15995	2078	109	122	1
-7052	-4916	17600	5541	32767	20026	-27544	10068	1116	2317	22353	4635	-23052	1584	17720	-4588	-18680	531	-19748	-15948	16600	390	32767	2962	-17204	-23800	-5056	-8556	16206	-1826	-16272	-4436	592	-3615	13699	-1900	119	120	1
-4524	-4004	17980	6332	32767	18053	-28832	17104	11828	-10908	24676	4947	-18804	11764	11936	-9997	-13420	6184	-23044	-3736	17288	702	23161	-8444	-24388	-1952	-9216	-6286	18225	6876	-20748	-21484	5104	-4285	6401	-1221	117	132	1
-17848	-6112	13092	3622	32767	13102	-25352	10152	7432	-24250	29625	3009	-22292	13216	6244	-24308	-15513	11192	-18636	3828	12628	2270	15810	-3459	-18480	-4200	-6096	-837	18075	6841	-15980	2252	-9184	17899	12363	1798	115	132	1
