#Activity	walking 
#ActivityID	1 
#Date 10-06-18-18
acc_rf_x	acc_rf_y	acc_rf_z	gyro_rf_x	gyro_rf_y	gyro_rf_z	acc_rs_x	acc_rs_y	acc_rs_z	gyro_rs_x	gyro_rs_y	gyro_rs_z	acc_rt_x	acc_rt_y	acc_rt_z	gyro_rt_x	gyro_rt_y	gyro_rt_z	acc_lf_x	acc_lf_y	acc_lf_z	gyro_lf_x	gyro_lf_y	gyro_lf_z	acc_ls_x	acc_ls_y	acc_ls_z	gyro_ls_x	gyro_ls_y	gyro_ls_z	acc_lt_x	acc_lt_y	acc_lt_z	gyro_lt_x	gyro_lt_y	gyro_lt_z	EMG_r	EMG_l	act
-13644	3244	17056	-1725	25565	7412	-23152	19012	-2160	4213	13341	388	-15444	10428	10764	21790	13814	-1034	-11716	8528	16884	-8940	32767	-12073	-27684	-10944	8276	3850	22745	1701	-19308	-16696	13540	2298	-13971	-11324	117	131	1
-22860	-9024	13304	-446	16054	10996	-23200	-1164	-4932	2238	15389	507	-19564	9412	2960	893	10541	5938	-17612	8684	15232	-13556	32767	-17417	-28468	-7484	10408	7046	24519	3552	-20772	-10368	11540	12635	-13073	-14084	122	131	1
-15432	-12996	10608	3540	11815	6544	-20620	488	-2952	10214	12309	429	-19120	-10260	-5396	-9853	13698	-1079	-32768	948	7832	-10168	32767	-28831	-24652	4644	-11072	2042	25757	5024	-19856	1664	5344	20086	-11207	-12129	125	132	1
-28380	-16528	10828	8553	6936	6850	-16512	-4732	-8048	9931	10429	347	-13964	-7920	-1212	-2066	11360	-6333	-32768	5620	4632	-9372	32767	-29315	-29408	3012	-9676	-4567	23490	2269	-23956	8980	-4476	25748	-9476	-7798	130	134	1
-13340	-2188	13100	8115	1929	7247	-16832	-4832	-7316	10154	9957	112	-15780	-6748	-4696	1015	11300	-2899	-32768	2444	16844	-1787	32767	-25922	-21952	2904	-10996	-9089	20889	2888	-28856	6424	-16448	19768	-12260	2446	130	135	1
-11428	-4016	13004	6046	322	5776	-16608	5196	-2652	2566	8102	-144	-17864	108	-2876	801	9804	-3842	-8704	13188	25652	5629	19502	-16986	-18592	1856	-10356	-8625	16428	-100	-29580	1764	-10912	8708	-27118	4974	139	135	1
-11384	-4676	11860	4186	-376	4631	-16592	2340	-1928	1861	7152	-315	-15420	-3784	-864	9	10861	-3374	-28604	11392	17224	4129	-4970	-4568	-14404	-892	-4204	-1716	9941	45	-25708	1160	-3152	5062	-31719	1177	137	133	1
-10924	-4104	11844	3698	-706	3462	-16580	3176	-972	4102	5685	-242	-15804	-5016	1512	4017	10599	-1227	-24140	15044	17300	4074	-8719	-3188	-8960	980	-624	4256	2699	-555	-24628	2124	-3596	3992	-24384	1149	135	127	1
-10228	-4420	11748	2895	-41	2661	-17020	2688	-1004	5565	4837	-486	-16408	-3756	1444	5439	11386	52	3092	10964	10752	2009	-24427	3422	-7252	-1156	992	5439	-4722	-2023	-21136	2408	-6648	3775	-19363	2818	126	124	1
-9912	-4460	11612	2311	376	1979	-16220	3460	-1060	6434	3659	-623	-15556	-1456	796	5624	12370	-1397	-1752	7812	8960	993	-22391	4805	-5948	2452	-2048	2694	-12407	-2900	-17652	2180	-8240	12	-17824	3152	125	119	1
-9804	-4452	11820	2004	652	1591	-15384	4700	-848	2892	4460	-617	-16700	900	1656	3721	12391	-2620	-5024	6420	9116	2528	-25172	8353	-6540	1744	-3192	916	-18909	-4575	-16528	2956	-7920	-4149	-18308	2406	126	117	1
-9816	-4468	11892	1715	833	1232	-15368	4576	-560	2046	4735	-584	-16076	1332	3624	-2647	12065	-2922	-8368	6056	9408	4511	-29174	12013	-7392	500	-3588	2031	-24615	-5552	-15264	2260	-7552	-7638	-18771	1887	124	122	1
-9560	-4408	11556	1262	610	1060	-16228	1476	64	-2385	6684	-584	-15256	-344	4868	-5912	10888	-2506	-10456	4640	9592	6222	-32768	15451	-8424	-284	-4160	3320	-29516	-5863	-13484	2676	-7860	-9720	-16676	908	127	126	1
-10120	-4312	11624	1000	347	1258	-15560	1964	-324	-709	6606	-507	-15340	-1988	1760	-7250	11136	-1864	-11516	2752	9404	9234	-32768	20056	-10176	-772	-5144	2439	-32768	-7025	-11160	2624	-9112	-15098	-15220	160	127	128	1
-10316	-3800	11656	847	80	1044	-16028	2676	-1660	-1640	7805	-128	-15788	-2072	932	-6769	9864	-1684	-12948	1348	11132	12150	-32768	24465	-11476	-1184	-6224	870	-32768	-8301	-9040	2732	-8344	-21912	-14973	-1351	128	126	1
-10100	-4192	11600	785	124	710	-16056	2540	-976	-2503	8985	186	-15920	-2332	636	-6548	9861	-1741	-16464	332	11920	14511	-32768	27057	-15796	-2232	-6724	-1299	-32768	-9628	-7612	2424	-7924	-23529	-14150	-2006	127	124	1
-9768	-4480	11696	904	38	942	-16528	1744	-1424	-674	8602	155	-14792	-2784	-712	-3594	12645	-3354	-19564	1348	11824	15897	-31407	25817	-18008	-2172	-9452	495	-32768	-9207	-8672	1516	-5388	-21250	-12177	-3039	127	124	1
-10044	-3708	11888	837	84	870	-16500	3040	-2660	-509	7837	571	-14732	-1932	-1216	-2061	15218	-3629	-28664	1288	15720	15114	-28508	21912	-21396	-1792	-11636	4747	-32768	-8447	-10704	-2508	-2588	-14990	-9918	-2790	128	123	1
-10124	-3584	12040	483	560	620	-16204	4176	-2496	-1724	7532	425	-15164	-1224	-756	-714	16328	-3636	-32768	648	17232	14545	-31800	20726	-26300	-2948	-12772	9616	-32768	-9255	-11536	-5512	1948	-8487	-8611	-3636	125	123	1
-10148	-3872	12104	206	1059	490	-16020	2096	-2084	-1912	7866	219	-16624	-3176	-1148	578	13858	-3756	-32768	2676	14044	11514	-32768	21824	-25812	-448	-14412	14250	-32768	-6970	-10560	-5124	4204	-5216	-5690	-1028	126	123	1
-10136	-4676	11796	122	1408	818	-16616	724	-1656	59	7883	662	-17648	-4948	-660	1377	9978	-4126	-32768	-2860	12296	8805	-32768	25265	-25440	1140	-13584	10855	-32768	-7531	-11412	-3352	9088	5590	-1596	1732	126	121	1
-10280	-4408	11836	170	1764	1544	-16796	688	-1784	809	8765	1345	-17236	-4456	2060	-1475	8329	-3603	-32768	-5616	7336	7742	-32768	26015	-23316	-1744	-11848	6407	-32768	-8568	-14000	-984	8316	3707	1256	4652	125	122	1
-10564	-4592	12116	146	1832	1577	-16492	1396	-1084	-85	10400	1980	-16536	-2568	3064	-4503	8105	-3704	-32768	-6236	-1756	3791	-28415	21641	-19556	868	-12464	2849	-28114	-5430	-15380	-3316	8812	-7321	331	6976	125	121	1
-10460	-5304	12688	299	3587	2988	-17368	948	-1484	475	11569	2420	-17208	-1204	2156	-6246	6900	-3500	-32628	-6736	-3684	3009	-26702	20539	-15560	616	-14372	-1602	-20031	-1998	-14620	-6804	18308	-10643	-2034	4438	126	119	1
-9816	-3384	14148	1078	6020	4501	-17648	3196	-1656	1416	12769	3037	-17652	-1324	2148	-6558	6618	-3396	-28192	-18168	-15012	2846	-3281	10762	-10844	1524	-15152	-1569	-7630	1936	-13668	-11408	22256	-8523	-3502	-143	125	117	1
-10912	-4092	14028	1392	9122	5220	-18492	3776	-2680	3237	13585	3470	-18552	-5304	-536	-7348	4269	-2687	-28244	-16420	-11240	-1190	6581	6280	-10696	3068	-15368	-6359	3574	2526	-14212	-6388	17164	-2594	-4359	-441	125	122	1
-11116	-4368	13832	1836	12590	6023	-18656	4172	-4112	4335	14061	3642	-17844	-5096	-976	-6443	3812	-1412	-26808	-13340	-5624	-9861	10985	1437	-11980	1168	-14944	-11631	12106	2240	-14052	-872	9960	-1614	-1214	1876	124	121	1
-10948	-4656	13804	2362	15879	7554	-18744	3804	-4188	4134	14599	3650	-18100	-3488	-260	-7240	2662	-531	2764	-2220	13232	-10578	13311	-828	-17820	-2256	1300	-10714	16747	2224	-7168	-360	3400	-11655	1843	3351	124	134	1
-9828	-4624	13896	2740	18528	9371	-19168	3816	-3872	3593	15347	3553	-19116	-2244	1704	-9778	458	-143	-2512	28592	32767	1465	8552	-7272	-30132	-24520	27148	-8623	4334	717	-13284	-2508	-6120	-9837	22869	5361	122	127	1
-10552	-4196	14388	3426	22560	11935	-21816	3428	-2168	2402	16674	4019	-20624	-2976	3968	-10645	-2875	-1058	-18696	-11676	1708	-8214	17636	-18541	-7468	-1644	-12812	-17009	4294	5573	-27216	-9064	1924	328	8512	-87	125	127	1
-10360	-4844	13148	4398	28880	16157	-20236	5920	28	892	18551	3641	-19156	-404	9956	-13270	-7019	628	-18836	4928	17588	2467	24235	3953	-24588	-17468	500	-4340	11890	1045	-18476	-8260	7776	-17490	5946	-1501	124	130	1
-9544	-2792	14884	6127	32767	18121	-21712	8684	1596	-2543	20409	3332	-19808	1532	16032	-9881	-16618	3213	-17844	-6044	18460	330	19664	-4754	-19500	-4260	-2616	-4064	12812	6765	-16616	-12712	10340	-10505	9944	2350	123	128	1
-9936	-2488	14728	7489	32767	14406	-24632	13000	3808	-10853	22215	4342	-18932	9624	8880	-13869	-15446	5863	-20500	11480	10960	2407	11692	-5923	-21636	1360	-1776	-3667	14026	6210	-18868	3324	-1404	6182	14619	3141	123	121	1
-30260	-3356	9836	2277	32767	14988	-19776	5476	-3988	-11889	27070	685	-20060	10612	3316	-23858	-13133	7861	-28168	25888	13464	-4004	11826	-2932	-18448	8208	-148	-11841	9880	6153	-15952	11144	-2240	3875	10240	7269	122	128	1
-32768	-648	7672	-2190	32767	19238	-25856	2260	-10648	-7540	28045	1653	-22472	892	1748	-26114	-16552	6448	-14352	4040	12100	-7208	5995	-6055	-17764	464	-2952	-18447	6352	4010	-16524	10880	-3140	-7721	8422	8024	125	135	1
-32768	-6676	12912	-5743	32767	16957	-25036	3160	-7864	-7366	26045	3724	-25796	-8504	-11644	-30309	-15094	1758	-12956	4504	10800	-8928	2679	-7100	-16504	-2404	-3180	-12983	5969	3964	-18092	2532	-4200	-11835	7516	6675	131	137	1
-26852	-12628	19496	-11277	30309	16904	-21072	820	-7556	-5592	23332	3224	-26620	-8988	-13980	-10353	-19525	-3966	-15916	-92	13128	-6194	432	-6893	-16508	-3896	-3496	-3656	7392	4085	-15636	-760	-604	-7764	7381	5738	137	131	1
-32768	-6516	16140	-5078	11352	18669	-13784	2164	-10348	-3300	14887	1005	-32664	-560	-5604	3383	-24033	-4216	-12268	3952	12300	-4276	-1194	-6307	-16560	-4092	-2968	-2231	7696	4024	-16404	812	-636	-1377	7662	5170	141	131	1
-11532	-10432	19336	-10280	-23314	4025	-11100	-1164	-2196	-8498	6306	-1429	-22640	428	-3272	1136	-26682	-6758	-11988	3980	12080	-3584	-1894	-6185	-17396	28	-2168	-1662	6646	2966	-16128	4232	-1616	-2322	7373	4966	131	128	1
3856	-11008	13440	-11841	-24339	2765	-10492	920	2852	-11860	-1157	-5827	-23448	-1980	-5144	-4800	-23244	-7839	-12008	2276	12324	-3659	-2020	-5218	-17020	-1356	-3272	-6689	4768	1734	-17288	3020	-304	-9688	7145	5483	127	131	1
428	-8232	11000	-12511	-24884	778	-5172	332	-540	-10302	-8741	-8298	-11660	-6552	-6376	2199	-14061	-3931	-11268	1252	12500	-3677	-1382	-3623	-16944	-3788	-3464	-7902	3888	1759	-15884	-3140	-1520	-13094	8224	5111	113	132	1
-4184	-7216	10608	-13447	-28723	-6226	-5784	3464	-1768	-7508	-16658	-9837	-17536	-964	-5728	10139	-11089	-2938	-10724	1320	12944	-2466	-454	-2640	-15852	-6444	-3860	-4999	3817	2548	-15496	-6356	-1936	-8965	9260	4118	115	125	1
-4120	-5828	11108	-12816	-31896	-15093	-8044	6468	-1592	-9297	-23322	-10820	-14752	140	-6040	8497	-15479	-4741	-11084	2080	12544	-1397	354	-1601	-15672	-4908	-2160	512	4882	3472	-15452	-3596	-812	-1948	9702	3994	126	124	1
-7092	-1564	12416	-12773	-32089	-22958	-9240	6884	-2396	-9874	-27996	-12054	-13640	-2196	-5996	8492	-15641	-2655	-10504	3380	12360	-1332	607	-1712	-16396	-2104	48	3743	5523	3928	-14600	-1300	1260	321	9468	3784	123	127	1
-12816	504	13532	-13098	-32768	-27220	-10876	6088	-3580	-6504	-31856	-13106	-11828	-2320	-6732	14970	-14543	-2474	-10724	2908	12076	-2130	403	-2545	-16360	-420	-1008	1429	5267	3274	-16252	240	1572	1802	9721	4465	124	128	1
-13252	2084	14384	-12680	-32768	-26412	-13808	6420	-3284	-742	-32768	-13640	-11048	116	-6688	20646	-14343	-2450	-11676	912	12288	-1846	603	-2257	-15924	-3612	-1404	1321	6127	3082	-16344	352	1316	1926	9725	4621	127	121	1
-14164	384	16036	-11196	-32768	-24391	-14756	8400	-5164	4714	-32768	-12804	-10200	1252	-6596	19393	-11664	-2645	-11144	2700	12464	-1647	709	-2384	-16708	-1216	-992	2938	7366	3425	-16080	-1300	1520	2574	9943	5003	129	131	1
-18240	2136	18108	-10623	-32768	-25799	-17176	13292	-7264	1450	-32768	-10763	-8744	1092	-5716	13113	-7947	-1490	-11484	1864	12492	-1850	813	-2778	-17168	-1596	-3564	2234	7197	3080	-14840	976	-1880	6728	13247	5147	129	127	1
-18460	2524	18160	-10995	-32768	-26079	-18968	14100	-8524	-8420	-32768	-9626	-9000	1964	-4292	6585	-3926	-388	-11916	808	12508	-1286	1082	-2324	-17196	-2196	-5000	2616	7073	2620	-17952	1776	-4408	4854	14625	5779	129	132	1
-26016	-712	23048	-12985	-30750	-22948	-25868	11608	-11168	-13226	-32768	-10659	-9304	2968	-424	3902	-2335	-87	-11760	1120	12448	-1318	1077	-1946	-16928	-2432	-4236	3484	6975	2771	-17876	-220	-3680	1205	15182	7377	129	135	1
-32768	-840	22416	-14292	-32768	-19626	-26552	9700	-14896	-14473	-32768	-10467	-12520	1844	3640	1914	-2095	-118	-11968	1772	12340	-1447	1332	-1293	-17144	-1024	-3204	3807	7405	2685	-15668	-792	-1328	4871	15050	8752	126	136	1
-32768	-3052	15316	-11127	-32768	-19528	-24928	7392	-12504	-14312	-32768	-9783	-14428	-1652	8392	-2026	-1717	-1174	-11684	2420	12672	-1039	2056	-1888	-17276	-872	-1332	4355	8229	2384	-16960	-1224	144	4142	10462	7987	130	139	1
-32768	-3096	13456	-10107	-32768	-19406	-20820	7020	-12304	-5399	-32768	-9065	-14868	-720	12632	-1503	-1589	-3026	-11944	2708	12648	-1607	3011	-3216	-17056	-1108	-1080	3331	9324	2053	-17056	288	3296	5340	9240	6589	123	141	1
-32768	4512	-5856	-3767	-23492	-20171	-17040	7728	-16140	-1257	-25462	-8102	-15324	2180	15544	7954	-1945	-5470	-11488	1728	13776	-1752	4794	-3775	-17976	-2644	-724	1908	11000	891	-18000	-1884	3168	6926	9355	5568	118	139	1
-32768	13800	-12708	-5439	-11277	-17832	-11544	7132	-18528	2424	-15246	-6797	-16596	3520	23560	5056	-2821	-1986	-11688	1740	14136	-2887	7241	-4607	-17984	-2984	-1156	233	12935	939	-19224	-2220	4060	7710	9492	4990	120	136	1
-32768	17808	-16592	-6307	1331	-14198	-6500	5596	-18276	4462	-1692	-1933	-15336	1160	22580	-1486	-7640	2428	-12164	2176	14032	-4228	9906	-5543	-18044	-2800	-1212	-183	13138	862	-19800	-256	1888	7167	8100	3740	120	132	1
-31592	10828	-12712	2822	12860	-7818	-7660	4328	-16800	7162	9931	2478	-12764	-3424	14784	643	-4188	1907	-12008	1996	14556	-5986	12371	-7277	-19240	-2992	-2880	-4320	15370	491	-19972	1112	-476	4486	6425	2278	116	132	1
-4628	5788	17144	10898	9923	1581	-18828	2924	2692	1028	16129	5381	-11492	-4036	5944	-1781	619	1235	-11716	2216	14492	-6229	12916	-7429	-19840	-3372	-3496	-3985	16300	630	-18232	1924	408	3672	3654	1046	118	129	1
18468	-25296	31092	3132	21994	6316	-32768	-2076	31468	8691	5535	2060	-10420	2088	-4192	4765	13349	4145	-11648	2172	14392	-9146	18821	-10167	-22404	-1944	-1912	-4080	17137	-105	-20908	2644	1548	5525	-277	109	124	126	1
-23060	7092	10852	5444	23120	18537	-1016	11740	-14708	19412	6170	-2672	-19740	332	1356	695	10150	3334	-11612	2360	14300	-9197	19571	-10691	-20848	-3852	-412	-2852	18320	370	-19640	-1256	9172	5771	-6863	-967	121	126	1
-5568	-7512	14164	-1560	22990	6966	-23552	12768	1816	-54	13321	7664	-17860	-2944	5244	16201	6333	-2934	-9156	1796	15752	-11479	32767	-17304	-23896	-9156	1604	4331	20665	351	-18148	-7748	9356	3628	-11534	-5331	117	127	1
-20052	-2600	15960	-3568	21422	8545	-20308	10044	-3948	1988	13940	71	-20212	9244	7492	6370	10021	-86	-12464	5200	14652	-13075	32767	-16680	-24696	-12816	8352	11448	23413	928	-18100	-14152	5980	10183	-11356	-10023	127	128	1
-23320	-9988	15116	-1040	12440	7956	-23648	4720	-5180	3207	14187	-168	-22876	1400	712	-5116	10687	-189	-22044	1452	11592	-13189	32767	-25332	-24076	-2476	-1080	11099	24387	3625	-19716	-9072	4128	16956	-13481	-12481	131	131	1
-19968	-24740	18480	5533	10157	3491	-18880	-1980	-5204	4794	13094	-1204	-15412	-7448	-3628	-9035	12652	-3925	-32768	-1652	7492	-8907	32767	-27416	-28524	4612	-10136	4788	26770	2224	-19360	2468	1540	22747	-13173	-10159	126	131	1
-13088	-632	14072	7115	3842	6119	-16720	1464	-4928	12065	7189	-1123	-14700	-13112	-7588	-3054	12729	-4143	-32768	6152	11256	-9741	32767	-29402	-24320	3836	-9020	-6377	20483	2322	-25544	7120	-8380	20545	-12251	-3988	127	131	1
-12492	-4492	12408	4954	630	3806	-15860	5872	-4120	8531	5680	-1075	-16820	-3448	-4700	7395	11425	-2500	-29748	7740	18444	-2801	22934	-24724	-19468	1856	-8896	-10578	17783	1429	-27964	1172	-14148	12240	-15134	3049	145	132	1
-11008	-4596	12496	2535	1136	1928	-16972	6128	-2280	777	6693	-1023	-18020	-16	-2680	5406	11529	-2756	-32768	-3536	12788	-8459	10046	-13503	-15064	-1972	-9908	-6374	11420	1721	-26424	-1984	-8308	8103	-24679	4153	133	130	1
-10300	-5028	11936	1186	1244	785	-16740	3544	-876	-1058	6490	-1230	-15700	-2108	1508	2998	10477	-2214	-13148	6820	16120	1197	-15107	4072	-11028	-1536	-3552	3101	6853	572	-25492	-2608	-5544	7496	-26507	2383	130	127	1
-9880	-5032	11920	823	1019	240	-16180	2684	140	-1007	5933	-1012	-16548	-3296	3096	3251	9691	-612	-1320	10772	11392	3948	-16965	10581	-8660	-1100	-644	5247	-224	1429	-23668	1144	-5728	7387	-22885	3524	128	127	1
-10176	-5240	11516	169	975	-15	-16624	2012	-608	502	5174	-718	-17020	-3388	1896	3507	10889	-163	-1204	7380	9016	2608	-16115	10051	-6704	2692	-1408	1899	-8217	1774	-18520	2676	-7088	5185	-19177	3975	132	120	1
-9788	-5116	11316	39	778	-205	-16276	3704	-1040	1487	4067	-371	-15140	-1608	-160	5402	12096	-1929	-5204	3756	8896	3805	-19568	10952	-5420	2488	-3212	-884	-14714	249	-16328	3292	-7972	745	-17420	4541	128	117	1
-9836	-5008	11412	-286	706	-215	-15740	4588	-1264	-793	4186	-661	-15432	888	-576	5140	12770	-3333	-6456	3956	9292	7231	-23723	12451	-6908	640	-3200	-1166	-20854	-997	-15776	3312	-7976	-3059	-17655	3926	129	115	1
-10088	-4676	11500	-1026	586	-521	-15912	4068	-596	-4001	4990	-915	-15052	2076	1264	-23	12443	-2716	-7928	4124	9260	9176	-26857	14407	-7620	-584	-3940	397	-26026	-1820	-14016	1812	-7680	-5851	-17380	2973	129	124	1
-9504	-5324	11196	-850	748	-631	-15948	2380	116	-3752	5338	-1130	-15104	416	2784	-6809	11485	-1751	-10460	2396	10076	11465	-30385	17078	-8956	-884	-4712	1873	-30788	-2209	-12204	2188	-8336	-9084	-16377	1892	128	126	1
-9184	-5668	10908	-279	666	-309	-15528	1320	1004	-1555	5204	-787	-14604	-1848	2804	-9264	12387	-1885	-12372	780	11144	15518	-32768	21834	-10856	-924	-5340	2011	-32768	-4015	-10868	3232	-7992	-14060	-15493	1237	128	127	1
-9416	-5824	10856	585	664	425	-16004	1364	312	-667	5714	-491	-15328	-1364	3732	-5960	13669	-4143	-16008	1524	11564	18679	-32768	26112	-13744	-1120	-5884	1438	-32768	-4641	-9556	4136	-7808	-21240	-14907	900	126	127	1
-9196	-5512	10960	1361	765	1239	-16860	1464	-216	-942	6512	-134	-15112	-144	4508	-1524	16429	-6375	-17188	308	11680	20229	-32768	26653	-18016	-1444	-7368	389	-32768	-4703	-9532	4224	-7828	-22351	-14760	736	126	124	1
-9436	-5400	11308	2121	807	1748	-15356	2364	-636	-639	7299	288	-17924	-2708	3308	-2048	16310	-6159	-21688	-136	13300	20116	-30113	22579	-17752	-2552	-9116	6088	-32768	-4177	-9908	-1404	-3696	-19416	-12455	-1164	129	124	1
-10376	-5564	11488	2224	790	1675	-15312	2508	-684	-387	9051	483	-21064	-5888	-4300	-3970	10118	-2317	-26564	-1244	17612	21310	-27288	21513	-24056	-4268	-9976	8757	-32768	-3864	-10916	-5368	56	-9192	-9665	-1591	126	124	1
-9864	-4396	11908	1345	1014	863	-16708	3544	-1192	-169	10218	787	-14340	-1816	252	-3422	7855	-1077	-32768	184	19476	20635	-28501	23120	-25268	-4264	-11584	13868	-32768	-3488	-10040	-6364	3004	-2144	-5525	-1191	124	124	1
-9996	-4748	11864	727	1028	518	-16172	1580	-1820	608	10110	1047	-13904	-1416	612	-3272	11599	-1641	-31696	-2188	18780	19818	-29629	25158	-27268	-4056	-11404	17800	-32768	-2379	-11720	-3972	4860	3160	-1234	2122	124	126	1
-9944	-6056	11180	318	1072	1147	-16736	1716	-2352	-1390	10599	1891	-15448	-2644	-1084	-3791	13060	-3273	-31264	-4936	16856	18366	-28266	24430	-24800	-3108	-9944	17019	-32768	-2184	-13780	-1936	6716	6010	942	4742	124	125	1
-9956	-5828	11892	280	1535	2090	-16668	1292	-1396	-1122	10992	2112	-16752	-2824	-736	-3540	10397	-4631	-32768	-8572	11968	15824	-27296	19505	-23952	-2144	-10244	14496	-32768	-1485	-14700	-1828	9920	7588	-819	7153	123	123	1
-10264	-4792	12552	-258	2524	2144	-16984	3208	-1708	367	11219	3048	-18056	-384	1572	-5632	7822	-4356	-32768	-12980	312	13777	-23318	13445	-18248	-1812	-13736	8743	-27404	507	-15192	-4868	13508	643	-738	8593	120	126	1
-10404	-5204	12716	-1137	4470	2412	-16972	3708	-1152	-61	12921	3114	-18840	-968	1624	-7663	5800	-3342	-29248	-22132	-10268	16046	-14864	10455	-11784	-3076	-15420	10480	-15192	4123	-13004	-7944	22556	-2051	-2656	2719	123	118	1
-9704	-5192	13860	-1262	7412	2464	-17876	2752	-2000	2509	14190	3348	-18384	-4724	716	-7634	4422	-2558	-24620	-25352	-13556	14550	-4139	5919	-8900	248	-14888	8929	-363	4917	-14288	-8460	23932	2238	-3914	-80	123	114	1
-11584	-4720	13412	-894	10819	4312	-18764	5296	-3356	4705	14655	4059	-19192	-4700	-20	-6809	3652	-1661	-26444	-16464	-9596	-2325	5039	-80	-9504	3036	-15148	-4393	8950	1755	-15448	-1268	17316	2612	-3633	2000	124	120	1
-11092	-5084	13728	-882	14832	4240	-18332	5496	-3160	4710	14960	4192	-18528	-3168	464	-6679	2585	-377	-26456	-18332	-3216	-14886	8069	-5869	-12676	-516	-15152	-14675	16764	14	-17316	2316	11500	-452	-4041	1728	123	121	1
-10636	-5388	14136	-869	20055	5550	-19696	6472	-3868	5756	16647	4633	-19140	-1252	1020	-6834	714	604	-32768	32767	32767	-9855	5915	-3376	-28160	-14400	15672	-13434	15133	-2960	-12036	-96	908	-16618	1989	1802	124	123	1
-8240	-4588	14880	-1212	25757	7075	-21896	6936	-2540	3038	17575	4717	-21008	-1816	2880	-7979	-1956	1472	6172	22564	16252	-15099	3786	-21262	-15992	-2416	4584	-21052	982	7973	-16344	-4924	-6772	-11710	20407	2549	135	123	1
-7808	-6784	14544	-1023	32767	10053	-24356	6148	56	2680	17988	5513	-23544	-2172	10316	-8278	-9385	1716	-12344	-19300	8236	-11636	21393	2827	-11452	-18952	-8732	-15557	9606	-2359	-16496	-756	3516	-9984	4140	-2271	115	122	1
-7720	-6944	14280	-1010	32767	10511	-25296	8352	6812	-2350	20085	5339	-18872	6120	16544	-6709	-17088	1969	-18460	-3440	19620	-8656	19157	-2604	-23820	-3148	-3456	-10879	11350	3114	-19752	-11500	3996	-17760	8537	-1046	118	133	1
-10492	-8224	12892	-24	32767	17807	-25056	6024	10988	-7166	22925	6071	-19380	6604	7864	-12070	-10631	5310	-26316	4296	17032	804	15287	-10843	-24212	-3204	-6452	-6986	13106	3177	-19372	-10312	668	-688	12883	-184	119	119	1
-28696	-7988	10564	-1099	32767	23006	-23540	2948	-3660	-3236	24734	5178	-19656	1860	4236	-24458	-14485	7414	-15504	13340	11144	-3766	10559	-3510	-19328	2448	-3108	-6943	12309	5662	-18332	7692	-5536	10160	13154	3579	125	123	1
-32768	-8308	5944	-54	32767	24648	-26480	3552	-12196	1421	25627	6814	-22868	-4040	-5108	-30257	-16766	5527	-16464	3524	9640	-6574	4876	-4251	-17168	4884	-4204	-9564	9361	3867	-15452	8636	-3812	-4	9994	7458	125	125	1
-32768	-9488	14140	-2326	32767	23020	-23628	6324	-9064	2239	22454	6867	-25064	-10184	-13636	-22982	-16381	249	-11692	3196	11888	-6490	4632	-4509	-17556	-772	-2732	-6582	8078	3676	-16444	4244	-3580	-2713	9626	6333	127	130	1
-32768	-10056	14696	-2919	32767	22568	-21188	220	-8176	-2703	21750	8009	-25028	-13320	-10740	-2229	-20592	-3173	-13844	3620	12212	-6430	3138	-5228	-17444	56	-2740	-651	7905	3268	-20176	1348	-876	-3307	6966	4902	146	135	1
-32768	-12728	16728	-1228	9235	20450	-14136	1260	-7384	845	11807	6845	-23356	-8588	-6980	8577	-22003	-4245	-12464	2848	12832	-3667	1225	-4058	-17888	-1408	-3276	2445	7634	2427	-15792	3064	-3292	-1266	10650	4559	128	129	1
-12448	-9776	20568	-2293	-21612	8776	-8616	-1924	-5488	-3078	3361	4689	-22948	-7772	-6484	9125	-22149	-4076	-12376	2244	12580	-2424	422	-2865	-17312	-2208	-2808	2911	6649	2184	-16532	728	-2292	-1480	9888	2870	122	133	1
1112	-10540	15344	-7116	-28977	5499	-10720	-448	2152	-8300	-3243	2014	-21556	-4444	-4896	10055	-20549	-4770	-11896	3032	12376	-1080	81	-2098	-17320	-1268	-2092	1910	5470	2124	-16168	1568	-908	-4022	9476	2026	124	125	1
284	-9712	10348	-10068	-31960	2532	-7240	276	-340	-7990	-10094	-639	-18424	-4632	-5884	10203	-18398	-5666	-11644	3100	12076	-435	17	-1480	-17136	-612	-1340	-2108	3850	1715	-17260	-480	-364	-5776	9583	2833	121	125	1
-3640	-12116	7788	-8104	-32768	-2944	-6120	-1244	-1972	-7648	-16748	-1830	-16428	-3624	-6972	12049	-16417	-5379	-11588	3080	11976	-372	25	-1460	-16100	-2448	-272	-3252	3352	1644	-14372	-2764	992	-4153	9582	5444	117	110	1
-7248	-14668	6916	-1908	-32768	-9126	-7396	-1528	-3808	-4817	-23809	-3501	-14860	-2360	-7056	14336	-15124	-4176	-10196	4676	11692	-28	518	-1384	-15792	-2892	596	506	4487	2056	-13848	-2360	1104	594	10516	5187	122	127	1
-9204	-12700	6752	3456	-32768	-15465	-9368	296	-4604	-3061	-30355	-4984	-13376	-3044	-6652	15239	-14545	-4171	-11580	3008	11916	-90	853	-1695	-15964	-2076	-1064	4190	5362	2543	-15012	-1376	1268	4992	10946	4715	121	125	1
-10876	-8216	7900	2153	-32768	-22088	-12304	1548	-4984	-2545	-32768	-5961	-12740	-4028	-7324	16187	-13661	-3906	-11032	3396	12084	337	959	-1565	-16712	-1416	-228	5949	6077	2519	-15400	-480	828	8466	11087	5361	119	128	1
-15832	-6848	8588	-3757	-32768	-25211	-12680	1048	-6588	-2097	-32768	-7629	-11060	-1852	-8056	21221	-12645	-4005	-10620	3808	11608	-65	1319	-1569	-17100	-460	1056	3504	6057	2157	-16292	460	1764	11141	10985	6086	126	129	1
-18564	-8848	9556	-7179	-32768	-23740	-15216	1320	-6356	-3563	-32768	-10459	-9756	1168	-7240	21708	-12682	-3017	-9552	5404	11320	-1101	1772	-2807	-16136	-1140	3032	364	6170	1871	-17272	-492	2772	9031	11437	6930	124	130	1
-19592	-9984	10764	-7860	-32768	-23034	-18480	3892	-6536	-3794	-32768	-12748	-9312	2484	-6188	13417	-10087	-2684	-12064	4548	11708	-2350	1911	-4883	-17100	-484	-264	2083	6858	2652	-16056	24	2776	5127	15363	7420	128	131	1
-20700	-8288	14256	-8614	-32768	-25080	-22160	7784	-8148	-2588	-32768	-13347	-9948	3096	-4684	6176	-6608	-2674	-13572	2160	11476	-3150	688	-5066	-17164	-448	-2800	4504	8669	3115	-15408	1068	-356	4435	16724	8052	131	130	1
-27192	-5852	19024	-12467	-30818	-27780	-25128	10364	-10400	-7898	-32768	-14282	-9888	3884	-1324	2107	-4770	-2864	-12280	1876	11716	-2800	10	-3464	-15544	-1416	-1232	4607	10086	2702	-15552	1024	-1064	2883	13484	7485	131	133	1
-32768	-5644	20516	-14330	-30971	-28434	-28572	9036	-14992	-9666	-32768	-14747	-10716	2796	2396	3057	-4737	-2385	-12740	2640	12020	-2510	500	-2400	-16280	40	-736	2859	11147	2417	-16940	1676	40	188	10695	6545	127	133	1
-32768	-1444	15444	-13466	-32768	-27254	-24392	8500	-17828	-12662	-32768	-13927	-12444	-2548	4764	1034	-2891	-3904	-12168	2004	12368	-2774	1025	-1913	-16400	-988	-1172	2209	12414	2440	-16684	236	920	223	8465	5683	122	131	1
-32768	3208	5800	-10789	-32768	-25735	-22164	10544	-16404	-8631	-32768	-12423	-15428	-1912	9584	2901	-1168	-5936	-12812	3920	12364	-2597	1870	-2608	-17432	568	-1364	1451	13796	2174	-16728	308	768	830	8257	5730	122	130	1
-32768	7180	-4064	-6949	-26131	-22120	-20600	9944	-18536	-7373	-25129	-10911	-17408	1840	17108	5528	-2368	-5740	-11776	2168	13324	-2066	3953	-3814	-19552	-824	-2660	483	14365	1758	-18764	-692	-232	6166	6882	6451	114	131	1
-32768	16508	-14108	-5278	-14954	-16431	-11568	8976	-22112	87	-15193	-8377	-15152	736	22912	72	1998	-3235	-12608	2304	14540	-2993	7787	-4920	-20136	-1408	-2700	659	14468	1702	-19260	-16	-444	9031	6829	5430	118	131	1
-32768	23016	-19496	-6098	-1958	-11123	-6220	9192	-22484	4190	-1630	-3341	-13864	-1044	25088	-3858	-3802	1050	-12212	4824	14948	-4561	11313	-4497	-19956	-1612	-2812	-1595	15310	1469	-19532	2544	200	8908	5249	2642	115	130	1
-32768	15944	-15664	3012	11139	-3613	-7132	7348	-21588	7543	11979	2238	-15672	-5888	16688	433	-4039	1821	-11244	2980	15152	-4658	15504	-7271	-20932	-2108	-2448	-5391	15514	1026	-19928	3472	1704	8217	3364	906	120	129	1
22280	-2964	32767	12198	9604	9143	-32768	6960	24676	-7217	13508	7792	-13432	-4256	868	1433	4837	715	-11428	3780	15808	-5998	19744	-8723	-23624	-2216	-1984	-4605	16476	1300	-21712	3776	2808	5983	1433	637	121	129	1
2372	2320	7376	6572	24226	18009	-21256	5780	6572	23846	3609	-3719	-28548	2700	10308	4222	4492	4112	-10608	4628	15008	-7796	24368	-11253	-23064	-4524	384	-4276	17618	1339	-23436	1204	5860	6437	-1687	243	122	129	1
-25536	6268	16448	901	25094	4444	-10132	16856	-2512	9338	12358	6830	-12608	4552	10184	24825	5272	4329	-9032	2908	16536	-10269	32767	-15234	-23928	-8092	2612	-398	19857	2317	-21468	-4408	13804	3110	-11405	-2373	114	128	1
-16944	-2152	15236	-2104	24327	4398	-25300	10652	-3792	1132	17185	2329	-14504	8408	3172	9563	13834	267	-9096	3448	17536	-11501	32767	-14814	-27756	-14780	8576	7191	22736	2420	-18404	-18460	11568	540	-14852	-10315	114	131	1
-17120	-5536	14548	-3811	16932	8103	-19752	4408	-3092	2648	15205	2560	-16904	3720	-640	-8125	11009	763	-17656	5264	16200	-10739	32767	-21970	-25728	-9084	6540	14112	25951	5875	-19228	-16332	9940	12934	-12510	-14678	120	128	1
-17884	-13268	11384	-811	11154	5764	-20116	464	-4376	6724	13565	1454	-18344	-8140	-2844	-8931	10072	-260	-32768	140	7776	-3332	32767	-22898	-28100	2944	-9456	9411	29857	6091	-19908	-3320	7568	19038	-15160	-12593	125	133	1
-12484	-6988	12088	1597	9086	5329	-19720	272	-4072	7508	13057	1448	-16256	-7580	-4144	-2006	11338	-2611	-32768	7936	12016	-4278	32767	-26777	-27936	1100	-8084	-1423	24916	4606	-25652	4628	-9848	32767	-7174	-7047	125	130	1
-12876	-4996	13260	7321	3851	5932	-17568	2784	-4208	9577	8092	703	-16176	-5220	-4632	138	11473	-4056	-31012	6216	20588	3796	32767	-26053	-22488	-1040	-2364	-4189	18538	4211	-30384	1704	-14148	27566	-14879	681	131	131	1
-11468	-7612	11380	4589	1791	4030	-15772	5996	-2512	3312	8835	714	-15712	-3664	-2868	1158	10755	-3075	-3000	19028	20128	7358	26740	-21866	-17088	2048	-9128	-3712	13200	4302	-27608	1772	-10656	11903	-26691	2465	130	133	1
-11192	-5680	12136	4276	681	4502	-16260	2112	-2020	2045	7819	217	-15756	-3756	-924	1886	10847	-2357	-29512	15008	20016	9075	-9241	-2588	-11144	1168	-7504	7359	7847	3000	-24648	1168	-3244	6886	-30277	-1132	131	130	1
-9976	-5956	11680	3650	595	4063	-17008	1540	-1024	5150	5862	190	-15596	-5440	-400	3512	11631	-1682	-5720	12536	17376	9577	-25176	6258	-11640	-640	1392	12019	-619	2191	-26172	2180	-5016	6742	-24379	489	126	122	1
-10000	-5760	11368	4629	-803	4521	-16228	3360	-1192	7348	4392	-32	-15624	-3948	432	7520	11722	-1041	444	9768	12160	9155	-25579	8396	-7104	304	544	7442	-9471	2480	-21152	2000	-7968	5985	-21102	2181	126	122	1
-10480	-5052	11860	3834	-592	3799	-16304	4848	-1656	7166	3848	-92	-15944	-1384	620	10383	12376	-1153	-5308	7452	10444	8754	-26764	10492	-6876	2296	-1816	4291	-17230	989	-17012	2004	-9188	2033	-19924	1990	124	120	1
-10068	-3984	12080	2237	-341	2119	-15868	6156	-1176	4927	4135	-140	-16892	1892	1536	9088	13439	-1922	-5152	5644	9976	10195	-30364	12886	-6760	-84	-2544	1599	-24825	-271	-14456	1548	-9068	-2693	-19387	1317	127	117	1
-9616	-4444	11660	1405	15	1354	-15656	5212	-776	1321	5264	-320	-15764	3008	1916	3958	14223	-2486	-7180	3332	10168	12077	-31727	15993	-7196	-2176	-3560	3242	-30604	-1238	-12356	2708	-8980	-4255	-17937	1241	127	123	1
-8932	-5208	11360	1069	578	1006	-15656	3980	168	-1450	6188	-630	-14772	1552	3184	-2205	14201	-2227	-12440	1348	11584	14543	-32768	20132	-8696	-1636	-5388	6369	-32768	-1859	-9844	3800	-9016	-6898	-15420	976	128	130	1
-8604	-5552	11172	1321	1070	1694	-16064	2184	488	-2913	7016	-1044	-14648	-1104	3948	-6439	13824	-2315	-14108	-844	12472	17482	-32768	23584	-10844	-2360	-4960	8224	-32768	-2806	-8200	4596	-9508	-13052	-13045	161	127	127	1
-8972	-5380	11704	1543	960	2486	-15824	1748	680	-1380	7446	-394	-15500	-1000	4160	-6028	15185	-2997	-14516	-3144	12780	23452	-32768	25496	-13832	-2932	-4624	6210	-32768	-3409	-6892	5100	-10380	-20063	-11364	-301	129	121	1
-10272	-5728	11312	2334	547	2832	-15936	1992	-820	-1001	8189	234	-17248	-1640	4076	-2622	15217	-2745	-15420	-1296	13696	27159	-32768	24134	-18796	-3852	-7912	2142	-32768	-3740	-7300	3756	-10404	-20833	-10447	-65	130	118	1
-10516	-3724	12092	2572	265	2895	-16468	3924	-2548	-1148	9621	528	-16004	-2204	-1368	-4759	16916	-2376	-26164	572	16932	23223	-29092	22497	-20516	-4924	-11024	6657	-32768	-6268	-8412	-1088	-6108	-15280	-9777	-1605	128	122	1
-10344	-4428	12200	2119	543	2061	-16480	3764	-2240	-1680	10571	819	-15600	-660	-1920	-3570	15292	-2005	-32768	-1476	22608	19266	-30334	22393	-28512	-7236	-14720	10927	-32768	-4591	-9676	-6796	504	-11050	-11533	-3369	130	127	1
-10196	-4604	11988	1541	950	1844	-16976	2084	-1560	-277	10527	1380	-14712	-2316	700	-2623	15893	-2891	-32768	-6992	19656	19054	-32768	28284	-26832	-4624	-15392	16760	-32768	-4893	-8900	-4988	6352	-3630	-7464	-680	128	125	1
-10388	-4660	12064	793	1567	1823	-17004	2152	-1424	54	10426	1540	-17396	-1784	3312	-2226	15869	-4207	-32768	-9580	12888	17750	-32768	30060	-25332	1184	-15124	17068	-32768	-4631	-10880	-2340	8852	9204	1457	3584	127	124	1
-10364	-5756	11680	799	2052	2940	-16096	84	708	23	12997	2955	-18284	-1772	4892	-3628	12987	-5176	-32768	-12244	2892	12496	-32768	23569	-25036	-1780	-14584	6269	-32768	-3391	-16868	-6172	12572	8091	2706	4442	124	119	1
-10704	-5364	13024	942	2791	4318	-17872	612	-596	3165	14085	4367	-19320	-1848	4676	-5115	9358	-4537	-32768	-20448	-10524	11251	-21818	18284	-16732	-1488	-18396	6233	-22897	542	-18012	-4548	19384	-2414	244	3054	125	121	1
-9704	-3392	15516	1582	6488	6621	-19192	5760	-572	4239	15340	4906	-21340	-2872	4356	-7048	5851	-3428	-31856	-29324	-17132	12043	-7156	11543	-10176	-332	-19516	7020	-7792	3476	-15552	-11672	26944	-2790	-1557	-247	123	116	1
-10848	-4732	15748	2285	11694	7095	-19984	5464	-580	7118	17317	5847	-20716	-4876	3328	-6296	3837	-1993	-32768	-25720	-14716	5009	1264	3942	-8956	4160	-19504	-252	6918	2400	-16264	-6572	21924	2676	-6058	-393	123	125	1
-10556	-5260	16676	3074	18010	8598	-21240	6264	-2228	9873	17920	6405	-20736	-4072	2492	-5309	2365	152	-28280	-5864	1168	-15595	6107	-2269	-17632	2948	-5784	-7766	15547	297	-14744	340	8460	2510	140	1621	122	124	1
-8720	-5092	16824	4017	23656	11013	-21964	7064	-2036	8090	19418	6428	-21216	-3292	4312	-5938	-1032	1622	-4932	30968	32767	-6662	16091	-14639	-32768	-15684	29396	-15987	6481	-1369	-16628	-2868	704	-9663	7979	2066	121	120	1
-9696	-7284	17272	4629	30736	14248	-26056	5128	664	6074	21179	7030	-24336	-3772	11296	-5338	-8878	2295	-14932	-21548	1584	-21492	15944	-17022	-6100	-10360	-14576	-23126	6159	5264	-12852	-5696	3180	-15375	21160	338	119	126	1
-5972	-5372	17940	6821	32767	20959	-28408	10688	5412	1763	21970	7137	-18976	4004	17008	-4130	-22329	710	-16992	-2104	21800	-6471	23675	2511	-25340	-10592	-1848	-9063	13969	332	-19352	-8264	-3644	-11566	7824	-774	120	121	1
-7484	-9236	16316	10801	32767	22621	-29076	10088	16716	-10674	25996	7830	-20892	10924	5688	-11734	-9154	5305	-18352	-6140	18148	86	17317	-10337	-21728	-6000	-5872	-9245	14382	3509	-18608	-10640	3512	-5817	6586	-1898	121	133	1
-31176	-9988	12440	8780	32767	26428	-25204	2684	-648	-11415	28500	3818	-21124	7968	3964	-25272	-16786	8470	-14580	15300	9876	-2491	14490	-6943	-20512	1604	-1344	-6400	14410	6068	-17148	5712	-3828	7786	13165	1821	124	127	1
-32768	-3352	5048	6948	32767	32767	-27180	-436	-12664	-6499	28934	6030	-21908	-3864	-10772	-32768	-20013	7063	-16296	5668	7588	-11645	4949	-11373	-18708	12588	-6264	-11692	10300	6221	-16916	15716	-4672	143	8272	5439	126	127	1
-32768	-8236	19368	1618	32767	25681	-22384	3396	-11556	-2665	25161	7126	-25796	-11748	-15092	-25310	-18367	-2005	-14196	3416	11704	-9646	4088	-9239	-18760	-288	-4732	-12651	7767	2988	-18380	6788	-4896	-10816	8112	7079	131	129	1
-6684	-16468	23984	-5542	25452	16759	-18760	2668	-9104	-2211	19179	6928	-25700	-11644	-11320	-231	-22759	-5216	-15660	-1708	14284	-6974	1297	-7596	-16744	-3772	-4712	-5073	8122	2694	-22792	-5072	-2084	-11086	7357	4785	137	130	1
-26524	-20792	24136	-4829	-3020	5758	-11916	-2744	-9804	-2305	8878	3178	-26004	-5136	-6120	11109	-24365	-4413	-12472	1324	14124	-3161	174	-3919	-17924	-5224	-3124	4652	9948	2852	-14704	-1692	-2112	-3178	10011	4975	129	130	1
-2052	-17432	17964	-5908	-23664	-5395	-10428	-912	2036	-8300	245	2147	-23144	-2388	-4736	9223	-22736	-5846	-12104	1784	12556	-1567	-36	-2493	-17452	-964	-1928	6987	9761	3130	-15608	1260	-1888	1266	9379	3488	127	148	1
4148	-12644	11164	-3438	-24594	-7226	-8680	-1576	2504	-5060	-8966	-3266	-20876	-3264	-6348	6612	-20781	-7000	-11420	3820	11928	-1357	-141	-2291	-17952	1892	-2400	1734	7383	1994	-16800	5284	-2152	-813	9621	2828	125	126	1
-3056	-10364	9040	-1330	-24867	-10701	-5952	-1544	-2300	463	-17065	-4865	-17172	-2136	-7624	8228	-17738	-6579	-11528	1968	12304	-1097	-387	-1995	-16880	-2228	-2524	-4539	4309	967	-15976	-532	-1660	-8490	10013	3943	122	128	1
-9504	-8944	8708	-946	-32538	-16557	-4780	-840	-5432	3936	-24528	-5852	-14524	-1060	-8448	10288	-15025	-6115	-11128	1564	12388	-249	-99	-1050	-16264	-4348	-1472	-3414	4054	1459	-14588	-4788	192	-5862	10154	5239	121	126	1
-7148	-6564	8336	-1415	-32768	-21475	-6624	2032	-3424	921	-30879	-7648	-12264	-1684	-8404	10884	-13430	-4927	-10684	3824	12064	-224	63	-868	-15868	-2364	508	151	5313	2384	-15956	-2668	1916	-1272	10765	4906	122	128	1
-6536	-4028	9140	-4127	-32768	-23661	-9776	3644	-3432	-3737	-32768	-9716	-10968	-3984	-8264	11617	-12040	-4221	-10392	4028	11920	-492	177	-1254	-15656	-2100	560	1805	5764	2452	-14540	-632	620	2606	12553	5201	122	129	1
-13196	-2768	11008	-9619	-32768	-25837	-12000	2684	-4652	-3846	-32768	-10415	-10700	-4176	-8264	12023	-11681	-4192	-11148	2560	11704	-857	279	-1548	-15896	-2436	-760	4393	6591	2734	-14672	-648	1040	4622	12119	4242	125	130	1
-18148	-4648	11432	-12169	-32768	-25697	-13364	4244	-5604	-1459	-32768	-10926	-8352	280	-9992	21349	-8232	-3532	-10644	3136	11880	-864	381	-1573	-16952	-500	-80	4089	6773	2616	-16480	364	1380	5489	12275	5251	126	132	1
-18988	-7044	11912	-11441	-32768	-24590	-16304	6560	-6092	-5934	-32768	-12057	-7284	2440	-11204	20323	-6747	-3505	-10596	2672	12440	-1506	759	-2293	-16296	-1896	-1276	2241	6508	2655	-16748	-1184	376	4703	13908	6314	130	131	1
-22428	-5500	15000	-11844	-32768	-26648	-20668	9392	-7732	-9705	-32768	-13583	-7668	2396	-8776	14109	-4620	-3374	-10836	3292	12292	-1848	1067	-1962	-17092	-2292	-588	2939	7354	2246	-16116	-2476	1864	6456	14851	6719	130	136	1
-29016	-8560	20284	-14144	-30638	-28307	-28504	9004	-10268	-12059	-32768	-16054	-9916	6300	-8	9520	-5351	-2025	-12556	3104	11592	-2192	609	-2091	-15860	-416	120	5079	9282	2870	-15780	-256	2548	7321	14370	6862	129	133	1
-32768	-5532	20580	-13502	-30853	-29016	-32320	10688	-16284	-5096	-32768	-16784	-11112	5440	5648	7762	-6482	-313	-11428	2992	12208	-2591	79	-2594	-16532	-688	196	5841	11110	2903	-16256	516	3304	5776	12298	8621	128	135	1
-32768	1704	13024	-13440	-30162	-29969	-25384	9616	-19024	-7569	-32768	-12940	-14496	-1824	7836	-3614	-1287	-3547	-11988	1388	12576	-2262	644	-2525	-16732	-1192	1308	3187	13358	2084	-18604	-964	5888	3775	11162	9097	129	134	1
-32768	792	1004	-4865	-30433	-27654	-21388	7688	-20352	-3454	-32768	-10238	-17356	-2504	15360	-2724	-1289	-7818	-12176	2736	12972	-2483	1722	-3391	-17024	-588	1096	1812	15889	1705	-17288	-880	7024	5116	12009	7212	123	133	1
-32768	11780	-12288	-526	-25371	-23210	-16800	9464	-22060	-3573	-23027	-9541	-16924	1008	24388	2385	-503	-6495	-12396	3108	13376	-2521	3660	-4719	-18344	-840	-1508	-32	17082	1386	-17788	-804	1732	5876	10459	5659	123	133	1
-32768	29060	-24844	-11109	-12387	-15991	-5136	7264	-20884	-3649	-5473	-7382	-15224	3972	31336	-2508	-3128	-167	-10176	76	15344	-4641	6534	-5523	-19696	-2808	-3944	-2074	17296	899	-17928	900	-1612	4530	7034	4654	123	129	1
-32768	30744	-26148	-12886	-8806	-14395	-5832	2076	-17744	4817	10489	-514	-15780	-2492	21524	-4592	-8360	2993	-12220	808	15580	-4506	11402	-6672	-19640	-4460	-3908	-3926	18165	527	-20160	2032	36	5892	3549	2564	120	128	1
-8804	-13020	2996	23955	10460	11669	-21264	7356	-6784	7364	16471	3206	-14524	-5996	8488	-3222	1279	-384	-11572	2616	17192	-7037	15727	-8093	-22360	-2700	-2988	-6104	18467	187	-21292	3112	3504	6816	625	103	117	129	1
5692	-12372	32767	11141	21532	15968	-28636	8208	2252	5894	15442	4748	-20108	-1032	3352	2124	8368	-716	-11444	5480	18016	-8244	21076	-9452	-25436	-3308	-636	-6142	19472	118	-24496	300	6416	6579	-4131	-843	119	127	1
-16944	16880	11912	7439	25625	9742	144	24772	-8600	18766	10183	2300	-11716	1640	220	8613	6648	3361	-9608	5232	18028	-8923	28001	-13392	-26932	-6960	1960	-2251	21384	1770	-23252	-6212	16460	-885	-15228	-2699	125	127	1
-20448	-268	18244	-2199	25062	2902	-26064	14812	-3800	1496	17678	7217	-20164	7872	4616	14296	5157	2827	-6860	6660	19384	-12021	32767	-20398	-30780	-12460	9524	3538	24494	2725	-18940	-19440	14532	1033	-14024	-10031	138	129	1
-22020	-2360	16596	-5422	17871	10413	-21744	6144	-6056	-2024	18052	847	-19680	5404	4268	3414	6996	3225	-10016	9832	20880	-14782	32767	-25227	-30836	-15440	13512	12652	27153	5338	-21732	-17428	8592	13584	-13989	-14772	142	130	1
-14512	-17084	8620	-924	14586	5111	-21148	-616	-3384	3259	16002	683	-18752	-4456	-5556	-10383	11720	572	-32768	88	11236	-12724	32767	-31048	-21672	-256	-9736	10337	26423	6684	-17100	-4996	1004	23731	-11044	-11875	148	133	1
-14720	-6188	12060	9252	6254	7294	-18196	-2968	-7492	11372	10322	-171	-14124	-12992	-7488	-8387	12882	-3546	-32768	5796	3820	-5845	32767	-31448	-27812	2256	-14172	4371	25038	5785	-24884	1988	-11852	32767	-5815	-8704	126	131	1
-14036	-6816	11500	5720	2695	4826	-15272	7696	-6456	9764	7323	1211	-16764	-4436	-7976	1651	12265	-3450	-32768	956	19648	1229	32767	-28472	-20884	6696	-11716	-1660	20576	6920	-32768	904	-16240	29967	-14448	1301	133	138	1
-12916	-3796	12756	2722	852	2572	-16460	7888	-4668	-1407	8562	273	-17384	-804	-3448	2999	10845	-1783	-14660	9768	20964	3994	11670	-16999	-19644	5304	-12608	-3022	19484	5532	-29680	3568	-11616	11317	-26665	2984	139	136	1
-11468	-4192	12660	396	1350	117	-17512	5056	-1960	-7230	9413	-107	-17856	-2620	2132	3154	11757	-1494	-11764	16296	19336	7688	-10978	-838	-10364	-2592	-264	9893	6877	4466	-25876	336	-2500	6948	-29322	-424	135	127	1
-9312	-6692	11172	-18	1463	-392	-17552	92	204	-5553	9011	-403	-15332	-4016	704	579	12413	347	972	12432	15068	8856	-14071	7734	-8580	-980	2136	9737	-2202	3962	-22512	1084	-5208	9610	-21646	1599	131	124	1
-9732	-6144	10968	612	1128	31	-16164	28	-1144	3034	5267	383	-15688	-4628	-1816	171	13749	725	1604	10468	11264	6474	-13775	11466	-6336	2772	460	3410	-11577	2953	-17336	3084	-7436	9111	-16926	2337	127	120	1
-10372	-5632	11076	537	770	-89	-15980	656	-1696	4264	4626	443	-15208	-3748	-3276	4223	14366	769	-6764	6692	11000	5309	-17778	15074	-4492	2724	-2660	-2463	-18732	1366	-14232	4248	-8596	3088	-15654	3136	127	122	1
-10332	-5456	11028	-259	586	-382	-16236	5948	-2052	-2159	3936	827	-16372	-1496	-484	6028	14120	-683	-8048	4432	11208	6538	-26674	18171	-5932	1004	-2948	-2334	-25029	-276	-12788	4228	-7932	-3013	-15553	2972	128	125	1
-9700	-5656	10792	-408	834	-530	-16064	3212	-228	-5808	5152	-91	-15280	1276	1172	2723	15422	-2143	-7928	1364	10508	9118	-31367	20011	-7496	-1680	-2804	-238	-29449	-1695	-12052	4544	-8244	-6281	-14577	2977	127	125	1
-9028	-6160	10720	180	1064	21	-15944	2216	1544	-2533	4720	-154	-15356	2008	3132	-2945	14463	-1532	-9576	1304	11360	11453	-32768	20955	-9756	-1484	-4076	2196	-32768	-2852	-10440	4912	-8272	-10147	-13129	2578	127	129	1
-10144	-5556	11136	760	1290	389	-16064	2132	-100	289	4607	139	-14748	72	3368	-7409	14959	-523	-12636	724	11836	13100	-32768	21886	-11180	-1296	-4248	2589	-32768	-4398	-8952	4832	-9136	-16287	-11591	1228	130	128	1
-10008	-6300	10616	1098	1256	751	-16132	2276	-596	-306	5592	335	-14452	-1312	3348	-4482	19391	-3416	-13356	-512	13160	16360	-32768	22563	-13944	-3168	-4656	985	-32768	-5857	-8812	4376	-10012	-23083	-10605	594	128	125	1
-9924	-6192	11144	1121	1275	1209	-16408	2628	-1432	-786	6752	719	-15884	-1592	3380	1122	21640	-5257	-18840	-1268	14612	21071	-32768	24127	-17660	-4428	-8492	-359	-32768	-6023	-8320	3060	-10308	-24514	-9593	183	128	124	1
-10360	-5448	11248	771	1297	889	-15920	3160	-700	-1851	8438	1445	-18528	-2120	-1188	-490	17604	-4089	-24372	-1164	15836	22944	-31278	24870	-20588	-5064	-9440	8103	-32768	-7884	-9796	-160	-6224	-20742	-10908	-622	125	118	1
-10344	-5444	11184	424	1316	702	-15736	2312	12	-838	9134	1787	-18692	-3000	-1484	-2360	10497	-2322	-32768	4204	19892	19250	-28280	23691	-29956	-3352	-12348	9945	-32768	-5556	-11752	-6172	-1872	-16533	-11972	-1898	123	123	1
-10452	-5380	11472	186	1513	474	-16112	2916	-192	950	9438	2297	-16860	-1220	2700	-3583	8732	-898	-32768	-3124	18092	14351	-32768	27288	-28936	-2152	-17896	8587	-32768	-5462	-12228	-9920	7744	-8829	-10762	-1906	121	120	1
-10156	-6204	11348	104	1965	928	-16752	764	-288	1637	10703	2691	-16792	-2776	3304	-3584	10010	-1580	-32768	-9612	11736	14266	-32768	32767	-24344	-392	-15368	10664	-32768	-6793	-13240	-4916	8220	8337	-1950	3486	120	123	1
-10088	-6888	10848	116	1938	2606	-16860	-968	-448	3475	11274	3554	-17316	-4136	2936	-2395	8855	-2827	-32768	-7532	1704	7897	-31765	28218	-22552	336	-15056	3519	-32768	-4881	-15052	-1372	9148	6187	4037	6894	122	124	1
-10156	-6752	11888	-133	2550	3923	-17192	1900	-1544	4247	12272	4188	-17112	-2908	3228	-3931	7837	-3384	-32768	-15108	-10772	939	-23141	22402	-18112	616	-18568	-1887	-25684	-1626	-16204	-4520	16512	-7951	-47	4492	128	129	1
-9864	-6680	12916	-964	5878	4409	-18136	5104	-840	2573	14092	4341	-18012	-176	340	-6250	6424	-2138	-32440	-27664	-19852	5189	-8095	16758	-10148	368	-19144	-1880	-11702	1929	-16388	-11640	26532	-14210	-4733	453	127	111	1
-12032	-4136	13176	-188	9222	5197	-17224	6776	-2388	3623	15357	5156	-18676	-1760	-144	-7014	3605	-305	-32760	-26248	-17440	5623	4652	8836	-8868	5020	-19152	-4188	3680	3723	-13936	-12248	21800	-2433	-3584	-43	124	115	1
-11140	-4868	13568	-227	13851	3658	-18008	3692	-1896	7686	16358	6231	-18432	-3676	2604	-7542	1030	1032	-32768	-20364	-8884	-19152	10422	-7060	-16836	-912	-11772	-12840	11573	2437	-12576	-2448	12176	3066	953	1954	124	118	1
-10480	-6348	14460	-780	19408	5280	-21268	5972	-3556	7206	16997	7030	-20608	-3012	2736	-8303	-1017	1165	5460	25940	32767	-7234	15764	-14360	-29792	-20756	21988	-16671	4353	513	-11492	196	3876	-14130	14211	4285	124	119	1
-8808	-8144	15348	-1798	25780	8634	-24876	7452	-1812	1763	18157	6903	-23784	-2220	5232	-7604	-5598	1551	-12952	-20972	1764	-14067	17770	-11477	-6688	-13888	-11840	-16885	9005	3556	-14552	-136	4812	-14364	16207	4882	121	128	1
-7492	-6956	14648	-2236	32767	13765	-23876	8356	3152	-1999	19749	6432	-20608	-368	18640	-3251	-17254	4126	-25040	-656	21644	-2689	25827	-1178	-24924	-9604	-3560	-6788	14513	1865	-21340	-13616	-3484	-7609	4606	-3674	123	129	1
-7304	-6972	15148	-1855	32767	14337	-26968	5452	8756	-3619	21754	7791	-19452	-768	20352	-3402	-19367	3884	-27952	-7132	17120	661	14651	-12245	-23592	-4964	-10204	-3915	15496	5821	-18468	-10820	3348	-4097	6814	-1143	132	130	1
-11000	-13556	12336	-166	32767	25713	-28432	1044	10800	-2735	23119	7780	-21564	4616	8520	-11451	-15415	6397	-32768	22548	6736	-4854	4633	-3475	-23292	10936	-5376	966	15641	7255	-20832	11264	-4416	12349	12317	2874	123	124	1
-32768	-11604	7004	2624	32767	32767	-23536	-1380	-8360	2422	23015	5824	-18876	1404	1400	-21533	-16036	5214	-15344	600	12328	-4272	2261	-5839	-17896	3964	-6168	-13405	8599	4901	-15384	16660	-7596	-2637	9822	7442	123	117	1
-32768	-2560	1096	429	32767	32445	-21712	4536	-16592	7913	24127	8432	-25452	-4560	-12328	-32768	-15313	3979	-12572	1756	13508	-4238	1154	-3859	-17112	-3484	-4576	-11166	6675	2768	-17620	2000	-5904	-13630	8248	6170	130	138	1
-32768	-11016	14568	-7721	32767	23310	-23896	8668	-16468	54	23293	7366	-27532	-9484	-17092	-12769	-19608	-4124	-12636	1944	13584	-2645	1120	-2292	-16668	-5104	-3056	-2532	7293	2997	-18904	-2388	-3876	-10619	9053	3884	138	133	1
1824	-20976	25840	-8355	11676	15793	-17176	2896	-8072	-6886	18591	5781	-25524	-6400	-9584	5918	-23139	-4025	-12188	4372	12492	-847	898	-1213	-17412	-2116	-1352	5458	8497	3700	-15584	-164	-468	-2037	9888	4525	130	130	1
-18388	-25620	16268	-3884	-10632	4536	-12164	-2716	-3532	-9046	11115	1235	-24268	-420	-2644	7527	-24211	-3549	-11032	4456	11996	-747	635	-1312	-17004	-152	-604	5795	7671	3022	-16096	1792	-516	486	8987	4137	131	125	1
-2644	-15508	14852	-2071	-21024	-5418	-5236	-6080	-644	-7750	2315	-1702	-21652	-1664	-3364	-272	-20834	-5414	-10500	4392	11996	-1104	379	-1728	-17292	-208	-956	523	5633	1867	-16648	2016	-584	-3827	8292	3167	120	128	1
2296	-10708	10592	-2601	-25921	-8085	-8464	-2632	544	-5161	-6633	-5079	-16920	-4560	-5916	-1331	-17265	-7027	-11280	2476	12332	-553	73	-1437	-16732	-3024	-1480	-2863	4324	1249	-16104	524	348	-8040	7748	3210	123	124	1
-1224	-8388	8412	-3455	-28119	-8648	-6156	-2712	-1168	35	-14895	-6293	-15828	-4464	-6796	4661	-14600	-6574	-10848	3108	12336	83	725	-785	-16476	-4156	-1600	-756	4527	1853	-15576	-2476	-256	-6623	7933	4188	121	119	1
-4236	-7432	8332	-4506	-32629	-11820	-5384	436	-2952	2525	-22087	-7546	-14864	-1776	-7104	8292	-13936	-6558	-10536	3568	12480	603	1105	-428	-16172	-3584	-920	2407	4770	1973	-15172	-4836	-152	-1919	9644	4374	122	126	1
-3920	-6308	8524	-5923	-32768	-15954	-7856	3896	-2688	-1524	-27441	-8678	-13464	-2380	-6776	10812	-13336	-5598	-10816	3604	11572	657	1129	-406	-16364	-2448	-516	4799	5089	2281	-14856	-1872	1040	5478	11050	4822	127	122	1
-6860	-6748	9164	-6765	-32768	-19390	-9512	3896	-2940	-6391	-31513	-9838	-12964	-3672	-7168	14085	-12031	-5167	-11196	3548	11700	427	993	-444	-16160	-1928	-120	3554	5057	2275	-15260	-808	1300	6958	11309	5223	121	126	1
-12508	-6772	10080	-6734	-32768	-21929	-10688	3732	-4356	-5967	-32768	-11988	-11540	-1872	-8388	20293	-10652	-4283	-10340	4488	12024	137	1407	-770	-16548	-1448	500	2649	5179	2080	-15936	-260	1304	6929	11795	4651	126	128	1
-16200	-5144	11908	-7244	-32768	-24161	-11556	5880	-5760	-6473	-32768	-13249	-9632	964	-8520	24566	-10584	-3279	-10868	4580	11704	-1004	1582	-1410	-16912	-1252	556	1722	5747	2204	-17580	-748	2576	6686	11635	4589	126	121	1
-16524	-5488	12388	-8692	-32768	-25109	-16116	5564	-4980	-7805	-32768	-14389	-8512	1948	-8600	18414	-8599	-3586	-10700	5080	11716	-1888	1730	-2127	-16536	-1728	-248	1843	6318	2281	-16420	196	1044	2391	14734	5770	127	131	1
-15888	-3924	15344	-10907	-32768	-24451	-21396	8728	-6616	-7423	-32768	-14788	-9232	1360	-5136	9163	-5754	-4262	-11496	4252	11696	-2743	1265	-2892	-16796	-1448	-2300	3069	6802	2693	-14816	1352	-4056	4361	16243	5444	130	129	1
-26580	-2812	19472	-16655	-28620	-21343	-24272	10652	-9792	-11400	-32768	-15531	-9968	5404	-1900	1053	-2163	-4367	-12304	2428	11940	-1710	892	-2845	-15948	-2384	-2540	3051	7036	2559	-16888	2008	-2856	251	12567	5012	130	131	1
-32768	-11256	17792	-13889	-30144	-19013	-28076	10164	-13456	-10417	-32768	-17133	-11496	6816	3784	-137	-2850	-3282	-11792	2976	12016	-1452	762	-2363	-16276	-948	-1116	1907	7282	2288	-15904	156	208	-2119	10743	6246	129	131	1
-32768	-596	13128	-8478	-24691	-16871	-25208	11240	-14000	-8313	-32768	-16277	-15284	-332	7888	-3456	-2897	-3472	-11032	4980	11832	-1665	286	-3789	-16568	-36	2640	-247	8657	2297	-17768	-3296	5936	-1298	10496	7852	127	131	1
-32768	4212	9508	-7984	-26561	-19446	-18956	9120	-18768	-6152	-31996	-13315	-14464	-4100	12400	-4664	-1019	-5557	-11304	4756	11816	-2250	-157	-5461	-15740	1036	2040	183	11355	2337	-15744	-2104	7420	1120	11187	7386	126	131	1
-32768	8072	-584	-5154	-26677	-23095	-19556	11764	-15384	-4231	-23906	-9067	-14180	-1744	15628	5086	-2700	-7929	-11820	3860	12584	-3685	673	-4067	-17080	-388	-408	-789	13610	1307	-16868	-1588	1884	3777	9318	6385	124	132	1
-31668	11948	-9940	-83	-15881	-19189	-12508	9008	-16144	1457	-15674	-7423	-15132	1176	20220	2695	2309	-5339	-11932	2036	13716	-3171	2421	-5893	-18240	-2656	-3620	-1257	15014	872	-18548	-148	-360	4009	8015	5532	116	132	1
-31680	21928	-14352	-1157	-4948	-12823	-6920	8128	-16800	6706	-4428	-3344	-14508	1076	21244	-3196	-2576	717	-12356	-308	14724	-3722	6379	-4042	-18516	-4236	-4144	-2159	16743	-342	-19616	1504	-932	4707	6305	3839	119	130	1
-29372	16644	-11812	798	6339	-4392	-8040	7840	-15352	7485	7613	828	-15340	-1516	16004	1212	-4606	2000	-11804	1724	14776	-3637	9579	-3648	-18256	-2912	-2740	-3384	18008	-433	-18836	2048	276	6469	2519	801	116	128	1
-26236	9552	-2952	10596	12433	4880	-12440	6660	-15192	6016	16272	3981	-12360	-2868	9208	-853	-119	450	-12004	5080	15368	-5226	12789	-6170	-21244	-1708	-3460	-5793	18092	-574	-19184	1520	1360	6417	326	-436	117	127	1
160	-17468	32767	8733	12708	10501	-32768	-3324	32767	-7391	10394	5556	-16144	-76	956	943	5445	1195	-11804	4116	16404	-6370	17631	-8935	-24228	-2680	-3864	-6116	18169	-590	-22316	1112	2672	3575	-1793	290	119	126	1
-8664	10212	3924	8870	15584	21937	-4436	11248	-6232	21670	3822	-3796	-21456	2164	9128	568	8525	4796	-10192	4428	16536	-5915	23668	-10678	-22804	-7416	-2824	-3651	19186	251	-21808	-2580	8516	2113	-6867	-883	116	128	1
-12188	-1908	15284	-2125	26051	1761	-19988	15012	4592	-2462	15030	9744	-14232	3456	6520	15183	5475	2475	-8016	2192	18556	-6377	31764	-12042	-26176	-11396	3432	2027	22364	178	-18984	-9136	12296	-812	-13849	-5901	117	130	1
-14504	6108	15940	-2873	21345	8013	-18600	6800	-1456	-486	14894	-197	-17064	6996	7680	5185	8286	2977	-7284	7176	17356	-9931	32767	-14488	-28540	-13804	10908	5943	25786	791	-17008	-16296	11016	6710	-12105	-11902	123	131	1
-22972	-11644	12892	-2008	14184	10513	-24380	648	-5804	3468	14230	2232	-21644	-1708	1000	-7612	9518	2847	-7436	12040	19628	-11083	32767	-14200	-30108	-7624	10136	5932	25562	1061	-19620	-9928	9772	12067	-15958	-14913	122	128	1
-26892	-11544	6172	10158	8060	6483	-21928	-6244	-10264	10029	12303	-783	-19932	-9272	-2744	-11840	11296	-3011	-32768	360	7240	-11637	32767	-30678	-22240	5024	-14156	537	24164	1163	-20100	4632	5052	20325	-11893	-11217	126	133	1
-13148	-4448	12140	6278	4454	5280	-15360	8348	-5560	10662	8083	1710	-15396	-5044	-8724	-1256	14047	-4835	-32768	7068	4736	-13374	32767	-32768	-25264	5720	-18564	-12697	21659	943	-20032	6732	-1080	24356	-8288	-10251	129	130	1
-13808	-1168	13820	4100	2165	3748	-15116	7348	-6520	-362	8746	-403	-16024	-1404	-6612	-1684	11689	-1180	-32768	3952	17468	-4615	28260	-25147	-20528	4900	-13844	-14145	19140	-2286	-32768	4800	-14304	14628	-17370	3892	136	137	1
-12584	-3476	12756	1371	1639	954	-18296	4500	-3864	-6537	8798	-1091	-17160	-3796	-3800	-712	10959	-666	-21808	8168	16992	-1389	1869	-13041	-16596	-1384	-7064	-3847	13428	-2023	-27836	3136	-8068	2323	-32339	1770	137	136	1
-11040	-5128	11444	-64	1255	-338	-17440	980	-1660	-4226	6948	-955	-16436	-5032	-420	1023	11815	-1875	-8288	11264	16184	404	-16374	-5207	-9492	1240	-1068	547	4888	-686	-25708	1664	-548	152	-28563	-1078	135	131	1
-9648	-5408	11400	-337	1360	-932	-16548	2084	-504	381	4487	-722	-15544	-5168	484	3283	12241	-307	1752	11644	12488	3043	-18898	-301	-7852	-324	2088	3628	-2418	-2128	-21592	2456	-5888	3698	-19955	1543	125	124	1
-10208	-5616	11084	-153	1412	-1235	-16520	2296	-932	1579	3454	-562	-16268	-4012	8	6251	12674	76	1652	10548	8876	2150	-18370	2158	-5124	2480	-720	2597	-10012	-4022	-20684	3016	-6664	3897	-18832	2036	121	118	1
-10124	-5936	10692	-156	1311	-1314	-15460	2124	-1032	-480	3757	-10	-16408	-1908	2128	6430	13161	-753	-5516	9272	7816	2100	-22755	7700	-4040	4204	-2700	1324	-16453	-5763	-14648	5472	-8632	-3067	-16231	2920	128	115	1
-9680	-6604	10208	225	1167	-555	-16508	900	-40	-5529	5635	-33	-17344	-904	5372	1152	13155	-959	-7164	9416	7320	1861	-28489	12403	-5620	3432	-2656	1325	-22495	-6973	-13972	5436	-8428	-8223	-16056	2653	128	117	1
-9836	-5912	10440	880	1020	284	-15884	132	1088	-2976	5664	418	-14120	124	3936	-4311	13631	-2173	-8268	7584	7100	1746	-31767	15254	-7248	2444	-2436	1649	-27674	-7588	-12608	3912	-8144	-9906	-14913	2701	127	121	1
-9836	-5820	10516	1283	959	872	-15392	476	780	498	5329	579	-13908	1104	3116	-6452	11988	-1826	-11416	6596	7376	3108	-32768	17726	-9352	3020	-3804	779	-32476	-7801	-11248	3256	-8824	-12420	-13025	3214	128	125	1
-10328	-5564	10804	1482	510	1173	-15172	1868	-528	903	6094	721	-15488	-1584	2072	-7671	10091	-1760	-13784	6396	8688	5547	-32768	20266	-11436	2376	-4376	717	-32768	-8823	-9704	3884	-9060	-17734	-10926	2533	129	129	1
-10620	-5116	11132	1230	532	886	-16260	2580	-1760	-103	7320	997	-15560	-3052	1128	-5599	11546	-3183	-15496	5136	9780	10702	-32768	22988	-14088	36	-4376	1351	-32768	-8472	-8852	3924	-10192	-24552	-10523	1263	129	123	1
-9956	-5296	11404	580	922	646	-16784	3148	-1644	-1012	7877	1186	-15152	-1304	8	-4055	14882	-3961	-18936	4196	10244	17609	-32768	24934	-18368	-580	-6288	2145	-32768	-6175	-8228	2000	-11408	-26478	-9910	-343	135	124	1
-10404	-5192	11000	250	1011	557	-16332	2980	-2704	-1404	7831	1066	-17280	-2596	-1528	-4609	15709	-2908	-24028	4212	12104	21728	-30326	24141	-21100	-296	-9544	7666	-32768	-5725	-9272	-2424	-8844	-21287	-9109	-1962	129	125	1
-10724	-5076	10964	69	1171	332	-16288	2996	-2912	-874	7570	1138	-15656	-5076	-4024	-1211	12986	-2953	-32768	7048	16156	22729	-26634	24338	-27496	-1684	-12648	9936	-32768	-2886	-10880	-9548	-2980	-13111	-9910	-3322	126	125	1
-10884	-4684	11048	-174	1203	-275	-15012	2824	-2440	-800	7983	1349	-15608	-4604	-3864	-703	12425	-2837	-32768	2020	18256	18637	-29172	27063	-30092	-2520	-14964	14637	-32768	-1473	-10272	-7172	5284	-2474	-8995	-2305	124	125	1
-10432	-4912	11184	-606	1544	-767	-15820	1636	-876	-1642	9105	1729	-16552	-840	2944	-1259	10758	-2031	-32768	-6508	12456	22559	-31098	32767	-25720	-480	-16328	20642	-32768	394	-12872	-1960	8924	10579	8	5342	123	129	1
-9740	-6512	11448	-1059	2311	-12	-17596	692	-124	-952	9931	2134	-17560	-1364	3256	-2395	11650	-3404	-32768	-10764	5284	19872	-31232	29868	-25032	1132	-15080	15017	-32768	1617	-16620	-2344	12584	8823	1054	8675	121	127	1
-10392	-6448	11392	-1190	3495	1122	-18008	836	-1092	186	11182	2874	-17976	-2284	2324	-6045	10775	-3627	-32768	-15840	-4996	14602	-23203	22116	-19576	-12	-16476	9948	-25496	2835	-17104	-5664	17644	6514	-3495	10264	124	121	1
-10676	-6100	11644	-1829	4913	1659	-16428	452	-2300	-101	12785	3364	-18092	-2016	1640	-8249	7018	-3677	-32744	-24372	-16128	9529	-12747	11606	-10904	528	-19288	6126	-12537	6220	-14188	-5592	24124	2831	-582	9163	124	119	1
-10500	-4120	11660	-2221	6799	1418	-14908	3136	-736	-90	15111	4167	-17832	-3888	2652	-8147	2855	-2639	-30612	-30796	-17868	11618	-678	4570	-7000	920	-20020	2411	2140	6044	-11720	-4748	21920	4882	-3038	3027	125	118	1
-10084	-6400	13436	-1525	9762	2048	-18628	2116	-1912	4525	16138	4726	-18204	-5544	1492	-7881	1766	-1168	-28100	-18512	-11036	-1121	9269	-2060	-10268	324	-19088	-4916	13948	4033	-14652	3132	13876	1378	-2948	2830	124	117	1
-11876	-5668	13304	-2106	14475	3289	-20256	6816	-4768	5769	16493	5224	-19420	-3528	-52	-7836	1591	-175	-32768	25580	29628	-20675	8702	-10831	-26056	-17560	11216	-12745	13047	-1307	-12208	3052	4792	-8165	3954	4845	125	122	1
-10764	-5228	14556	-3476	20322	4068	-21256	7068	-4096	1948	17762	5386	-21464	-2212	1832	-7370	-932	366	6288	27560	23172	-16976	17638	-19887	-19944	-3356	5404	-25316	-2620	9102	-20884	-16	-3372	-10971	17731	3151	126	124	1
-8208	-7804	14528	-4829	27865	5965	-24084	6072	524	-271	18806	5816	-22720	716	10428	-9483	-8280	1300	-10840	-23384	12316	-12505	24521	18	-9632	-24880	-8428	-25954	6590	-4585	-21572	-4460	5560	-22312	2406	-5490	120	129	1
-7148	-6984	15964	-5906	32767	8606	-24800	8776	5872	-4784	21843	6202	-20396	4304	17164	-12747	-18085	2213	-20660	-10372	18924	-7114	21691	-5126	-24092	-12820	-5696	-10650	11650	3270	-19772	-21968	6044	-30305	7818	-6304	121	127	1
-9320	-9392	14996	-8165	32767	12038	-27776	8104	11928	-8544	25007	7570	-20356	7456	17816	-10246	-17920	2945	-26072	2520	14960	4333	18668	-7106	-21968	-2900	-2896	-1789	15697	4563	-14964	-11300	2884	-3253	11905	-1898	119	118	1
-15348	-13488	11140	-11322	32767	21884	-28452	3468	5664	-8429	25256	5465	-21964	5320	6468	-21953	-17714	7506	-6428	1888	12120	-12299	5092	-9227	-20712	13756	-3188	-10371	12960	7276	-19596	19868	-6380	13921	15095	5036	127	128	1
-32768	-14740	2760	-8985	32767	24933	-22908	1612	-14332	1465	25619	6486	-21812	-3788	-9296	-32768	-18917	6291	-14472	10900	8928	-8142	3928	-6418	-15324	1424	-3576	-12982	8905	2390	-15136	9108	-8452	-4009	9334	10323	122	138	1
-32768	-7744	11336	-15296	32767	22451	-25212	6152	-15092	5682	25272	9330	-26924	-8704	-12076	-27050	-20580	466	-16520	-1572	12984	-6665	1183	-6379	-16448	-3624	-5672	-6922	8082	2082	-15804	-2512	-4600	-4374	6534	6348	126	137	1
-24760	-11612	16180	-23615	32600	17275	-18040	6876	-12240	-2600	22259	7982	-24768	-10100	-12052	-140	-22557	-1773	-12684	2020	13196	-3480	-336	-4127	-17904	-5596	-2700	4717	9503	3644	-20716	-2324	-2672	1092	7527	4069	135	131	1
-24512	-27728	17688	-7115	-2143	17521	-15184	940	-4480	-8511	14147	4368	-25728	-4280	-5140	7895	-23219	-695	-12140	3220	12128	-1701	221	-2397	-16928	-776	-2780	8938	9738	3833	-16040	1408	-1304	3306	8969	5221	128	135	1
-1892	-16668	18260	1772	-14175	3876	-8184	-8720	-876	-7502	5051	-1824	-23268	-1840	-2056	6528	-23467	-2276	-11108	3876	12064	-1418	546	-1585	-17900	408	-1956	3078	7153	2834	-15688	5148	-2916	1577	9297	2509	125	128	1
4048	-9276	15212	604	-24535	-191	-9340	-3776	2576	-5739	-4584	-2737	-19304	-6024	-5740	1104	-19698	-3999	-12064	2436	12432	-719	545	-986	-17656	-116	-3384	-3747	4049	1371	-16428	3672	-3180	-7926	7516	1247	125	125	1
3016	-7052	10824	-2293	-25064	1047	-8084	-1888	1672	-1265	-13178	-4124	-17744	-6492	-6816	4377	-17133	-4814	-11484	2904	12096	784	731	558	-16784	-4244	-2332	-3598	3316	1294	-16592	-756	-1696	-11492	8169	2693	122	131	1
-4248	-9748	8656	-2714	-28687	-1927	-5688	-2028	-3864	2392	-20097	-4471	-15400	-5284	-7756	9263	-14854	-5025	-11044	3500	11804	1256	1123	908	-15656	-3172	-304	2109	4236	1607	-16208	-3788	408	-5616	8234	5037	121	128	1
-9216	-12344	8208	247	-32768	-7534	-5868	-716	-5516	685	-26270	-4848	-13324	-3956	-8332	12953	-13567	-4813	-9956	5524	11096	1226	1275	166	-17104	-1272	672	6589	4814	2578	-14608	-1384	824	3133	10771	5064	121	129	1
-10460	-10212	8996	2198	-32768	-13260	-9560	756	-6420	-3159	-32768	-6107	-13052	-4872	-7252	13408	-12622	-4513	-11644	3664	11552	519	1199	-754	-16720	328	-1732	4267	3691	2169	-14520	600	-508	7955	12887	5529	123	128	1
-9260	-6996	8028	-247	-32768	-17103	-13068	2512	-3112	-4673	-32768	-5934	-13212	-6608	-8100	15869	-10460	-5424	-12156	3052	11884	702	1213	-704	-17076	-2596	-1980	2116	3287	1310	-14652	184	-664	7593	12838	4837	125	126	1
-12468	-7100	7652	-4515	-32768	-19063	-10404	5676	-5364	-7015	-32768	-7800	-10816	-2772	-9100	19505	-8746	-5517	-11528	3604	11552	1416	1678	1016	-16256	-2640	-868	3502	4094	1753	-16616	-1720	296	6279	13754	3853	127	133	1
-18836	-11340	9352	-5681	-32768	-19936	-16276	3424	-7668	-13392	-32768	-9610	-9236	1176	-10924	20048	-8616	-4706	-11608	3892	11284	1289	1728	885	-16992	-964	-668	5125	4781	2091	-13976	524	896	8660	15579	3845	126	130	1
-21184	-12512	10476	-5339	-32768	-21687	-18004	3096	-7384	-12563	-32768	-12587	-8268	2084	-9144	13733	-6927	-3829	-11016	5052	11228	879	2074	447	-16860	-804	908	5849	5793	2045	-16440	344	620	7747	14488	5813	129	132	1
-23092	-11320	14228	-8468	-32768	-23263	-24420	7068	-7852	-10388	-32768	-15673	-8620	4024	-4212	8427	-4082	-2857	-10960	5072	11372	213	2532	-631	-16736	-1132	1064	6353	6677	2038	-16064	4	1724	6633	12111	5990	134	132	1
-32768	-12604	18508	-13396	-31531	-24971	-31748	8396	-13548	-6265	-32768	-19023	-10604	7004	320	7711	-2066	-1682	-11896	5000	11028	-596	2863	-1457	-17048	-876	660	5816	8075	2134	-19776	-1512	4368	1747	12578	7240	135	136	1
-32768	-10796	14452	-11135	-28151	-29720	-27984	9792	-14280	-566	-32768	-17341	-13536	1228	4276	8705	-1457	-2958	-11924	4804	11344	-1069	2988	-2031	-16772	-416	992	5906	10135	2134	-16104	1140	2824	1501	12466	6033	131	134	1
-32768	-4728	10980	-4857	-24373	-30117	-25816	8140	-16640	-345	-32768	-14087	-15496	-3928	9952	3870	1590	-6095	-12028	5040	10988	-1655	2480	-2996	-15772	1672	1496	3898	11783	1645	-16664	284	2148	2694	9311	4694	130	135	1
-32768	2052	1068	1829	-24100	-29198	-22716	8532	-19232	1516	-32205	-10198	-20928	1896	18136	9473	-5168	-9779	-12336	4760	11300	-1663	2255	-3589	-16948	624	172	1283	13063	859	-16628	796	2504	2878	9177	4831	124	135	1
-32768	11356	-12316	1280	-19558	-22843	-12716	8632	-20740	648	-21415	-9997	-17000	4856	24900	4688	403	-10569	-12736	2480	11560	-1506	2850	-3493	-15820	-896	476	266	15396	406	-18232	-1016	5556	4153	9152	5607	124	131	1
-32768	30532	-20628	-12575	-10118	-13032	-5328	8900	-21228	-4719	-3698	-7934	-12392	6048	26744	-9407	-3371	128	-12640	4672	12460	-1307	4780	-3984	-18416	164	600	-1592	16812	46	-17828	-708	2816	5876	6075	3976	116	128	1
-32768	18820	-17380	-10420	3027	-2486	-6352	5544	-18140	-3723	11505	-1161	-13824	-2872	18816	-7549	-8907	2280	-10444	4676	14900	-2436	7642	-6493	-20808	-1720	-2420	-6472	17042	-277	-19584	-504	-1444	5489	2687	3000	121	127	1
-31944	9284	-7620	9840	12839	12618	-10712	7356	-17324	1028	19192	3171	-11932	-6196	7320	-9667	-2610	-765	-13088	2044	14012	-2010	12235	-7768	-19148	-6920	-4952	-5164	18292	169	-19336	-360	-976	7404	1664	1361	127	126	1
10536	-8588	32767	11409	18927	17064	-32768	-1228	32767	-13345	14272	6418	-16140	-1364	7400	-5339	1336	194	-11316	2340	15332	-2981	18020	-6433	-21432	-4852	-3140	-3285	19865	211	-20268	-528	2424	7616	-2085	-642	120	124	1
-4636	8680	2668	11969	19841	20866	-6300	8436	-4072	27010	5529	-1634	-19844	-792	4336	1154	7934	6578	-9968	4812	15392	-2707	24794	-8154	-22008	-6036	-1012	-4484	20361	356	-20616	-4180	9580	5924	-10520	-2569	122	125	1
-17592	2828	17872	-1405	25598	462	-15536	16900	752	10406	11589	10168	-12636	240	2320	24577	4000	2354	-9224	5244	17264	-2724	32767	-10312	-27292	-8788	4776	394	23240	-48	-17240	-8768	12184	1827	-16441	-6273	119	128	1
-16840	1884	14676	-2632	23194	7767	-23640	10288	-4048	2768	14923	712	-19296	7216	6544	16265	8500	2841	-9992	12128	17020	-3756	32767	-16952	-30092	-11600	10236	6576	25908	1680	-18872	-13724	10004	7156	-13609	-10918	121	129	1
-22524	-12580	12844	-1887	14743	9775	-23908	2536	-6684	6779	13548	2578	-23000	776	-192	1692	10342	3380	-16216	10696	14360	-5656	32767	-29321	-29660	-5276	7128	8462	26636	2968	-23236	-8552	8288	13352	-15958	-14138	122	131	1
-21452	-8156	5444	9910	6620	7373	-21108	-5112	-10124	8879	12801	-765	-19440	-7960	-3568	-7048	12348	-2773	-32768	208	5588	-4849	32767	-32768	-24600	4888	-14616	2334	25910	3964	-19084	2712	1704	23989	-9822	-10441	127	134	1
-12708	-7016	11168	5863	3188	5398	-14664	5052	-5784	9309	8490	1775	-13940	-4916	-7908	-2671	13166	-6362	-32768	4100	6800	-3995	32767	-32733	-24888	2924	-13152	-7762	21270	2572	-29492	7220	-12192	32767	-6031	-4546	128	139	1
-12448	-2592	12836	4865	695	5013	-15512	5276	-5876	2619	7599	825	-16364	-3300	-5736	-3996	10325	-2736	-32768	4096	15244	6300	32012	-23227	-19944	3108	-12168	-6720	20359	151	-32748	4500	-15548	18521	-18319	3898	137	136	1
-11612	-4176	12880	2267	1196	2185	-18268	6756	-4020	-2458	7433	196	-17892	-3340	-4128	-3222	11151	-1936	-2348	19352	23196	10803	9094	-17292	-16208	936	-5772	-864	14502	-61	-27120	1780	-8332	4998	-28983	2087	135	135	1
-10952	-5072	11828	289	929	47	-17612	4216	-2624	-1984	6069	-56	-16912	-3816	-1256	261	12999	-1861	-15048	18196	15308	7968	-9888	-7409	-12936	404	-2176	4434	5818	929	-25620	1016	-1332	3656	-28177	-399	136	130	1
-10396	-5260	11448	-239	997	-1045	-16428	3152	-1248	1050	4052	-421	-16044	-3416	-244	3617	13109	626	-2868	11288	13836	6051	-27058	-601	-5748	3440	508	7501	-1674	968	-20088	1880	-5500	6808	-19773	1338	125	122	1
-10396	-5080	11448	-597	896	-1424	-15940	2964	-848	2555	2889	-606	-15692	-2588	632	5072	13773	1155	3584	10284	8900	5345	-26404	1522	-6112	1044	1356	3259	-10715	-1144	-17284	4360	-7716	4995	-15928	3687	126	120	1
-9968	-6048	10808	-749	958	-1762	-16372	2672	-220	1407	3149	-537	-16120	-2020	1948	5692	13974	-301	-2616	8108	7068	5240	-24786	5567	-3720	2144	-2088	652	-17203	-2601	-13976	4744	-8324	-1007	-15238	3561	127	117	1
-9188	-6152	10636	-536	963	-1483	-15640	1916	672	-940	4101	-77	-15712	12	4196	3283	14066	-1988	-6196	8440	6808	4689	-27533	10714	-4700	1756	-2700	289	-22600	-3827	-12432	3168	-7900	-6533	-15217	2618	131	115	1
-8804	-7180	10120	309	1002	-367	-15440	412	1476	-3422	5682	28	-15088	384	6348	1185	12954	-2509	-8576	7472	7640	4115	-30785	14988	-7504	892	-2848	1785	-27234	-4456	-12096	3364	-7984	-8629	-14445	2302	128	126	1
-9564	-6212	10276	1481	674	1041	-15528	524	1008	-2317	6142	111	-14532	-148	5000	-3655	12296	-2136	-10972	6256	8352	4488	-32768	18108	-9736	288	-3716	2890	-31375	-4326	-11204	3168	-7688	-11918	-13563	2464	127	126	1
-9012	-5720	10668	2183	541	1772	-15540	596	836	-1828	6096	159	-15992	-1828	2844	-4763	11624	-1510	-13488	3488	10104	7658	-32768	20917	-11540	320	-4404	3781	-32768	-4957	-9792	3792	-7604	-16977	-12064	925	128	127	1
-9032	-5568	10668	2213	660	1772	-16108	3712	-576	587	6703	49	-16088	-2220	1312	-4232	12236	-1652	-15232	2816	11420	13612	-32768	23859	-13756	-296	-3932	2950	-32768	-5365	-9144	4192	-8508	-23545	-11493	145	124	122	1
-10388	-4900	11556	1867	1253	1332	-16100	2536	-2208	894	7631	389	-15788	-928	708	-2973	14972	-2702	-16436	3308	11276	19287	-32768	24148	-14536	-304	-3792	3025	-32768	-5336	-8600	2744	-9444	-24796	-10801	-205	131	121	1
-10752	-5024	11240	1453	1047	688	-16148	2832	-2112	-230	9231	1147	-16784	-1916	968	-2384	15838	-2989	-20736	2264	12592	22332	-28852	22428	-21036	-1968	-8568	6488	-32768	-4766	-9924	-1772	-6608	-18631	-9001	-1550	129	124	1
-10228	-5220	11272	722	1232	347	-15856	3404	-1100	81	9460	1228	-15372	-1984	-736	-2055	15031	-3138	-32768	6692	17648	21391	-25731	22225	-24908	-2412	-12032	7968	-32768	-2848	-11080	-9024	-1616	-10472	-8963	-2641	125	124	1
-10440	-5096	11544	293	1285	105	-15956	2620	-1824	759	9771	1200	-16288	-2280	-1964	980	12461	-2211	-32768	1968	19768	17977	-31017	27453	-29052	-4416	-15096	13492	-32768	-2072	-10712	-9924	6456	-182	-9245	-3282	120	122	1
-10244	-5272	11624	56	1524	-86	-16820	2536	-2748	2197	9055	1619	-15640	-3676	-2164	2220	12102	-2613	-32768	-6344	15964	19802	-31811	32767	-26812	-2516	-13652	20785	-32768	-1760	-11520	504	9324	10915	-1411	3418	120	125	1
-10440	-5240	11676	-497	2221	-65	-17164	3004	-3416	231	9195	2398	-16408	-3208	-780	1118	12010	-3556	-32768	-7448	7636	16357	-32034	28733	-26092	4976	-12948	12453	-32768	-902	-18488	3260	11880	11471	719	10561	121	124	1
-10240	-5864	11464	-659	3176	561	-16640	2036	-2164	-1628	10381	2798	-16820	-1528	1176	-2748	10209	-3710	-32768	-11740	-4772	10260	-26666	18937	-21184	888	-14656	2073	-28542	82	-17252	-5572	15196	1721	-995	11168	123	120	1
-10720	-5292	12460	-1328	5315	632	-17804	2520	-1816	-1195	11601	3636	-19356	-224	2832	-6573	7557	-2830	-32360	-18828	-16804	7516	-13263	12178	-11724	-228	-18780	2655	-15059	5116	-14764	-7672	23164	-4714	-318	8324	125	117	1
-10284	-5544	12608	-2225	8152	407	-17288	2912	672	-1155	14315	4168	-19908	-2576	2548	-9187	4805	-2073	-31004	-26564	-16828	8187	2560	7495	-9848	2316	-19292	1679	-828	6671	-12268	-9372	23444	1033	-3381	2732	123	117	1
-10160	-8396	13140	-1334	10876	2501	-18972	-60	-576	5305	15262	4780	-18888	-5804	1552	-8988	3399	-1384	-32296	-21472	-9904	-4299	8233	-612	-10188	3980	-19780	-7648	10137	4961	-15412	4196	16948	-344	-5039	3330	123	127	1
-11060	-6664	13292	-1430	14366	5160	-20144	4504	-4300	7350	14972	5824	-20184	-4376	452	-7686	1888	-1249	680	-3468	23516	-25856	3816	-3046	-18600	-1900	2040	-15082	15524	1195	-12596	7432	3016	-3722	3060	5831	123	125	1
-10900	-5128	14444	-2461	19778	5553	-20228	8012	-3552	3160	16575	6068	-20328	-2700	3144	-8690	-396	-104	13484	31764	32767	-12917	5007	-11146	-31212	-25428	24804	-15996	2918	1456	-12572	2264	-6036	-19100	19511	5392	123	123	1
-8380	-6764	15028	-3836	27063	7585	-24368	6576	-128	-60	18025	6659	-23740	-1468	6752	-9150	-5825	1258	-5716	-24320	-1108	-17431	20715	-3733	-2940	-18744	-12680	-20910	5994	1540	-23492	-12628	1016	-13808	8701	-5557	127	136	1
-6772	-7460	15444	-3810	32767	11351	-23328	8852	4656	-3232	20403	6640	-21532	4384	18160	-8355	-17099	4263	-20084	-2584	22704	-6318	27515	2609	-24568	-8060	-4408	-10037	11189	1625	-16916	-14664	5888	-25470	7930	-8436	122	126	1
-8332	-8924	15000	-4157	32767	14848	-25648	7340	9484	-6943	23944	7815	-18252	14060	19276	-5878	-18698	4166	-26156	-4744	17612	4119	19882	-10459	-24128	-1832	-5388	-2842	13858	3927	-17124	-18312	6928	-8345	8492	-3239	119	124	1
-11720	-11004	11748	-6008	32767	22070	-26772	2036	7644	-6261	25170	6773	-20104	7400	6444	-20964	-15887	6334	-32768	32767	9440	-5411	9931	-1083	-25500	11192	-2848	946	15357	6928	-22048	7716	-752	14817	12062	1026	119	119	1
-32768	-11264	6520	-4106	32767	28074	-23784	2484	-10520	-388	24523	6906	-20316	-3688	-4852	-32768	-14295	6260	-13920	-660	13272	-6629	6368	-4383	-15516	-292	-2444	-8584	11875	4240	-17344	17304	-6508	5002	13900	9463	120	143	1
-32768	-7020	5012	-5778	32767	27495	-25432	4696	-14728	5339	27627	9051	-26000	-10388	-13596	-32019	-16970	2565	-14564	4428	11352	-8408	4120	-5333	-15872	2012	-4164	-3507	10990	3023	-14068	1876	-4044	1136	8919	8828	131	140	1
-27876	-14808	16564	-10772	31708	21434	-22528	7384	-14052	2104	23571	8133	-25328	-11868	-14352	-3203	-22170	-2802	-14296	1828	12716	-4146	1569	-3985	-17868	-3628	-3444	4810	11570	2898	-16652	2480	-2848	2546	6661	4929	129	132	1
-18268	-19156	22264	-3920	10707	21130	-15332	1448	-5108	-3194	16408	6020	-25388	-8360	-6688	8547	-22921	-1447	-11216	4704	12244	-2020	1091	-3911	-18076	444	-2804	7065	10141	3423	-17252	3092	-3028	2091	6858	4625	137	126	1
-6792	-16132	17800	1026	-7679	11367	-13600	-4316	-2328	-4306	8265	1174	-23708	-2688	-1716	8559	-23813	-2184	-12848	2576	12084	-1938	958	-3141	-18048	2020	-5232	-2722	5827	1832	-17268	4340	-4304	3938	10253	4679	127	127	1
-1932	-11676	15908	1353	-18242	4270	-7636	-3656	1416	-4125	-1480	795	-20932	-4384	-4892	1952	-20088	-5110	-12984	1724	12220	-346	823	-1316	-17108	-3812	-4508	-6009	3472	715	-16084	3092	-3852	-8093	10267	1323	124	121	1
1440	-9912	11348	-1081	-22743	2561	-8348	-2048	784	-511	-10347	-1522	-18108	-6132	-6692	4348	-17041	-6274	-12272	2528	11844	1062	943	580	-16548	-3112	-2832	-1769	3763	988	-16152	2664	-3556	-9404	10309	1291	126	127	1
-4900	-10996	9556	-756	-28130	-1214	-5916	-1548	-2488	1893	-17836	-2545	-16424	-4928	-7376	9442	-15249	-5992	-11228	4492	11208	1203	1133	787	-16484	-1876	-1164	3567	4212	1279	-16568	-340	-828	-8675	10846	3174	118	129	1
-7008	-11100	8576	-775	-32768	-7350	-6388	252	-3712	-170	-24159	-3437	-14796	-2984	-7412	13444	-14035	-5267	-10824	4844	11328	1340	1423	216	-17124	-1576	-632	5381	4068	1690	-16112	-2288	-532	-3700	11375	5662	121	126	1
-7392	-9132	8164	-1658	-32768	-14367	-8724	2376	-3740	-3913	-29485	-4813	-14032	-3092	-7232	14867	-12852	-4655	-11340	4084	11348	1350	1187	180	-16376	-1268	-672	3385	3528	1356	-14416	-3252	36	2501	11738	5763	124	129	1
-8844	-8964	9348	-2828	-32768	-19747	-11544	2424	-4860	-7586	-32768	-6083	-13640	-4196	-6524	16111	-11610	-5031	-11736	4636	11112	1020	1405	46	-16616	-972	-856	1850	3243	1365	-16068	-1244	1428	7792	13303	4663	127	129	1
-14120	-8164	10052	-3772	-32768	-22794	-13344	1772	-3828	-7802	-32768	-7596	-12168	-3244	-7864	20467	-10256	-5002	-11836	4464	11056	1061	1416	78	-16396	-1796	-856	2922	4235	1441	-14696	-64	884	9937	14707	5329	126	132	1
-16368	-8512	10340	-4613	-32768	-21645	-15292	3912	-5616	-7811	-32768	-10321	-10464	924	-8172	25150	-10968	-3863	-10700	5192	11576	580	1899	-531	-17308	-1644	428	5271	5358	1843	-17376	-1208	1708	10655	14811	6084	127	132	1
-19896	-8692	11380	-7029	-32768	-20479	-17628	4024	-7368	-8058	-32768	-12865	-9040	3556	-7704	19075	-10154	-2929	-11096	5364	11104	97	2558	-1240	-17296	-1136	1008	4997	6398	1879	-16816	-1636	2652	11816	15182	6669	128	132	1
-21168	-10576	14056	-8243	-32768	-21919	-21452	6448	-7720	-5417	-32768	-14613	-8920	5480	-5336	8675	-7673	-2165	-12000	5544	10536	-640	3011	-2210	-16316	-616	1044	4187	7369	2066	-17984	-132	2572	5727	16499	6687	134	133	1
-26308	-9804	18304	-11027	-31618	-24716	-25812	10504	-9720	-7192	-32768	-16091	-8812	5512	-4896	7016	-7069	-1885	-11792	6724	9856	-1314	2394	-4485	-15928	2596	2428	3062	8675	2534	-15700	2940	2456	2821	13843	6400	132	132	1
-32768	-8924	19724	-11310	-28732	-27514	-28012	9824	-12404	-8306	-32768	-17454	-9860	4220	-372	-1331	-570	-1447	-12000	5712	10852	-3038	830	-6908	-15120	2092	236	-508	9785	1593	-17088	3600	1420	-1016	8253	5561	129	132	1
-32768	-2280	19440	-12130	-29990	-31456	-26836	9296	-18260	-9072	-32768	-14654	-12360	-3960	4300	-2165	-1141	-4694	-12580	2280	12636	-2148	1517	-5381	-19172	-5184	-3776	2033	11558	1004	-17480	-200	-644	-1527	10868	6008	127	133	1
-32768	204	6220	-9415	-32768	-32432	-26488	9668	-16296	-5008	-32768	-11628	-17468	-6208	10572	4725	-2653	-8752	-12948	1352	12444	-991	3334	-3952	-17100	-2868	-3028	5117	13702	1688	-17488	-376	-1352	2000	13729	5279	127	129	1
-32768	3056	-7904	-3250	-25623	-24952	-19548	7180	-20088	-1639	-27928	-11675	-20624	2832	20796	9002	-2443	-10928	-12368	3620	11660	-997	5457	-3189	-17252	528	716	470	14511	889	-18276	-1460	72	4473	8849	4024	120	130	1
-32768	22848	-19412	-7015	-15671	-14285	-7804	9948	-25788	805	-14756	-10615	-15484	4888	31124	-1605	37	-3451	-12432	6228	12192	-2594	7129	-6226	-17392	800	1136	-709	14490	761	-18000	-428	1092	3360	3793	2728	113	132	1
-32768	28636	-24244	-13834	-1270	-8972	-2972	6252	-21820	-598	6216	-2965	-14044	-480	27396	-5231	-8517	1773	-13168	4012	12436	-4789	9131	-7508	-18676	-204	-2256	-12707	15243	-678	-18660	4256	3028	2499	1767	2217	123	127	1
-32768	9692	-14444	7097	12472	5008	-8220	6304	-20904	5428	17377	3291	-12644	-6044	14048	-4180	-4783	1069	-12448	7876	13748	-6376	12886	-7371	-20552	-2240	-1816	-10367	17301	-772	-19060	4008	2480	2393	2809	2014	115	127	1
9744	-17028	32767	12375	5660	15095	-32768	8140	29636	-13212	18421	6991	-10424	-4704	-2656	-5680	6043	-101	-11368	5756	15568	-6189	17968	-11081	-22768	-3924	-2280	-6178	18797	366	-21772	224	2664	7674	-132	106	127	125	1
4916	6364	1560	7407	20770	17900	-14984	6296	2920	24072	5521	-3681	-22824	1352	792	1112	9025	4427	-10712	3364	16032	-5810	25447	-13151	-23088	-7824	-804	-5497	20328	150	-23172	-3528	7584	6495	-8027	-783	121	126	1
-26344	13296	15628	2411	24871	5427	-9288	15968	-3820	11671	12397	7962	-12720	680	3136	18361	1515	3896	-7864	1096	17740	-5968	32767	-15718	-25532	-12728	3844	1774	23046	1252	-19420	-14008	14532	-5511	-20668	-4574	121	129	1
-14504	2956	15376	-1871	22612	7800	-25072	10600	-3528	3274	15378	2938	-17916	4504	8828	15007	8336	485	-11244	9676	16504	-8927	32767	-20021	-28036	-11760	11408	9139	26518	2802	-16128	-20320	13168	6699	-15062	-12707	127	130	1
-23388	-11544	12228	-2727	15409	12279	-22152	10920	-4100	3387	15232	1653	-21140	5868	3096	-386	8815	3698	-17928	10832	15624	-11477	32767	-27282	-27872	-5232	5240	10028	27384	4515	-17952	-9032	8180	15989	-15350	-14804	124	125	1
-13464	-10824	10892	3864	12973	7648	-19196	2720	-3192	10979	13131	534	-18728	-6464	-6840	-10196	12882	-893	-32768	-612	4112	-4068	32767	-28953	-25644	2548	-14416	2066	28992	4221	-19068	5660	2308	25262	-11755	-12610	128	134	1
-17780	-9128	7064	7655	6495	8186	-16684	-1924	-8844	9336	10943	244	-15072	-7808	-3936	-3433	10982	-5904	-32768	6920	12972	-3881	32767	-29677	-26784	3244	-13100	-5970	23066	4095	-28860	7964	-14232	32767	-6416	-4467	127	131	1
-15188	-5672	12268	7701	2633	8255	-16800	5936	-7248	7293	8553	315	-16076	-5496	-5896	-2722	10026	-3567	-32768	5580	20988	5801	30676	-23413	-20832	3764	-8408	-8414	20583	627	-32768	4816	-14792	18332	-18911	6034	131	137	1
-12404	-3968	13228	5624	1660	5868	-16856	6120	-4856	-583	8655	-615	-17504	-3112	-3608	-282	10017	-3442	-31916	9892	14972	448	8403	-18481	-16524	1776	-8508	-4394	13487	302	-29356	3920	-8016	5737	-31374	3740	141	135	1
-11704	-3764	12876	2920	290	2738	-17492	5292	-2608	-2114	7708	57	-16936	-4396	-544	2918	12145	-1933	-15172	17208	16812	107	-17237	-5771	-11260	3036	-3740	840	4661	-116	-27560	1312	-1888	1255	-30675	-592	134	132	1
-10352	-5548	11548	1855	560	1268	-17352	1908	-688	-264	7009	-333	-15664	-4232	1800	4862	11583	22	-1336	10404	14836	989	-27262	1915	-8112	1532	344	1898	-4321	-948	-22644	2128	-6796	3393	-21934	1348	127	117	1
-9768	-5704	11344	1715	627	1126	-15860	1568	-148	3160	5705	-445	-15772	-4144	2592	6354	11204	-627	1288	8140	10112	3131	-28885	5744	-4956	260	-852	448	-11859	-3177	-17892	2900	-8384	2599	-18383	2894	119	120	1
-9960	-5392	11176	1415	696	991	-16648	1892	-772	6217	4136	-149	-15604	-1432	1952	6746	12364	-1461	-4028	7140	8048	5034	-30511	9558	-4308	1676	-2016	1108	-17916	-4526	-15052	2780	-8504	-1765	-17117	3129	126	118	1
-9608	-6156	10976	1381	675	1296	-15552	3140	-1728	3718	4317	652	-15112	168	740	1493	13415	-1666	-4948	7528	7908	5305	-32768	12394	-4524	1860	-2020	1103	-18945	-4686	-13660	2264	-8416	-6702	-17422	2070	128	120	1
-10156	-5264	10940	1614	557	1873	-15944	4132	-2108	-4064	6552	-153	-15592	-540	960	-3541	14082	-2725	-8240	4864	8460	5895	-32768	15266	-8012	-20	-3608	3016	-29242	-6193	-12860	3164	-7536	-8441	-16630	1752	127	123	1
-9988	-4512	11596	1375	667	1802	-16516	3720	-1056	-3089	6036	-662	-15008	408	524	-6789	15586	-1865	-13472	1672	9584	9590	-32768	18546	-9832	384	-5528	5138	-32768	-6832	-11264	4224	-8136	-12657	-14917	1119	129	131	1
-10616	-4124	11516	1262	601	1162	-15388	3384	-1620	1069	5845	-635	-14884	600	624	-7262	15259	-315	-12724	740	9060	15456	-32768	20965	-12100	-456	-4912	4158	-32768	-7683	-10364	3020	-8560	-20870	-14113	-76	129	128	1
-10624	-4124	11500	828	568	169	-15544	3620	-2040	1539	6842	-166	-15784	-2772	648	-5056	15000	-455	-13772	1308	9804	19301	-32768	20276	-13704	-2008	-5044	3206	-32768	-7212	-8384	1400	-9700	-25397	-14306	-1417	127	123	1
-9944	-5536	11328	648	983	-18	-16444	1828	-1140	-845	7866	-200	-15676	-4540	1208	-1328	16727	-2523	-18404	348	11708	21309	-32768	19726	-17484	-1820	-8496	5460	-32768	-6722	-7656	324	-8244	-21976	-14107	-2680	131	122	1
-9904	-5260	11540	409	1083	539	-17156	2000	-2420	185	7049	-25	-16044	-3836	-1548	2791	18516	-3447	-23132	-376	12892	25043	-29426	19579	-18384	-3772	-10532	12469	-32768	-4963	-8688	-2892	-4140	-14280	-12092	-3853	131	123	1
-10348	-4044	11960	-462	1691	160	-17004	4972	-2688	-1450	6575	754	-17080	-800	-1588	2586	16615	-2872	-29016	2388	16972	23427	-27137	19647	-24812	-2664	-15340	15595	-32768	-3046	-10476	-7524	112	-8449	-11180	-3546	126	127	1
-10608	-4272	11384	-1296	2142	-664	-15196	3032	-1108	-4616	8201	1000	-17360	-1476	2756	-1215	13378	-1613	-32768	-5696	15064	21045	-25046	23994	-25132	-2844	-15828	18702	-32768	-2886	-10444	-4020	3736	3700	-5739	-208	121	126	1
-10192	-5244	11276	-1411	2360	-830	-15012	156	1412	-3482	10168	1545	-17996	-628	7052	-3838	9816	-1922	-32768	-5160	10200	15302	-28876	23388	-25324	4516	-17356	16827	-32768	-557	-14312	1120	7168	16235	-3731	4704	124	129	1
-10164	-6540	11788	-963	2905	525	-18040	-1220	1104	2184	11277	2374	-18656	-1800	5100	-6039	9175	-2627	-32768	-13896	3236	11715	-28169	21707	-22860	-44	-18200	4659	-32768	-2435	-17332	2640	7784	6122	-2744	6073	123	124	1
-10552	-6156	12364	-724	4493	2210	-18880	2100	-2620	4022	12230	3742	-17236	-4052	1448	-6608	10492	-3727	-32768	-13328	-6180	8506	-21707	20305	-19276	-176	-18316	2362	-24735	-354	-12752	-2724	11940	-4040	-670	7920	121	121	1
-10164	-6116	12880	-908	7628	2183	-18104	3896	-2296	269	13974	4148	-17660	-2764	280	-7544	9112	-2712	-31720	-19680	-13676	3261	-11683	16577	-13988	1120	-20008	-2364	-14863	1973	-11692	-7220	19612	-4007	2588	6634	124	118	1
-11748	-3712	12380	-694	10429	3926	-16112	4100	-2152	1501	15257	4361	-19508	-3468	3732	-5442	5275	-1826	-28652	-23920	-15216	1359	320	12379	-10408	832	-19408	-5425	-3586	3163	-12148	-5632	18732	-1065	3143	4269	124	121	1
-12120	-3756	12232	-814	10950	3512	-17880	1628	-620	7346	16918	5708	-18508	-4452	4452	-3935	1784	-1141	-29380	-22156	-11544	-2639	7092	7177	-9992	2016	-19648	-8965	8179	3743	-14468	-708	13640	-758	3322	3935	124	123	1
-10524	-7080	13908	113	19356	4685	-20688	4192	-2732	8891	18077	6473	-20708	-2520	3304	-6402	-1237	-150	-22444	-3448	20188	-18289	5494	-1337	-21208	-7712	3088	-14889	9989	796	-11204	1476	7892	-9091	7613	4873	145	132	1
-8932	-7496	15036	-1219	24718	8516	-22900	6776	-2608	4213	19710	6211	-21664	-1832	7012	-8404	-5398	1070	9344	32500	32767	-5944	6599	-8685	-31140	-14012	21720	-16565	-2108	4232	-19892	-1440	-632	-8304	22275	4620	123	124	1
-7512	-7192	16312	-1356	32767	12482	-26544	8404	1588	-590	21416	6104	-23976	824	18168	-5779	-15374	1175	-11748	-30104	4868	-9973	18756	-5488	-6020	-23416	-10384	-19596	5538	-32	-25660	-9272	6044	-11848	8212	-3460	119	135	1
-7012	-7080	16792	-381	32767	17007	-27240	10480	6108	-4694	23116	5807	-19500	11076	18980	-4661	-16893	4687	-21188	-3052	21524	-1870	20814	-5775	-25140	-10944	-3292	-3546	12704	4134	-20120	-24808	10968	-24321	10218	-5809	125	125	1
-11092	-11412	13704	-511	32767	22109	-27644	6600	13128	-10192	26479	6230	-20620	10072	10392	-16384	-14303	6795	-25736	7916	14080	3655	17005	-6007	-22744	56	-1724	2782	17287	6776	-13656	-10352	3332	3591	12672	-511	123	120	1
-26872	-9984	9328	-1740	32767	30112	-25668	-284	-3572	-6356	26774	4744	-20200	2080	-1240	-32768	-17623	7503	-23788	14844	4764	-8456	6808	-4889	-21408	16228	-4408	-2253	14693	8423	-18948	16856	-3656	17116	12142	3309	124	132	1
-32768	-3216	1948	-1815	32767	27988	-19444	5404	-16752	5500	22956	6824	-23372	-8652	-15172	-32768	-15002	4852	-15568	6840	10400	-6816	4998	-4749	-18464	3196	-4372	-11031	10405	3772	-16184	14072	-7528	-736	7758	8152	131	147	1
-32768	-8708	11288	-12420	32767	18342	-25828	9372	-11668	-5132	22390	10051	-28440	-18064	-16804	-9218	-20303	-3719	-14196	-520	13644	-7527	3324	-4808	-16228	-2484	-5400	-7495	8666	3205	-17224	-884	-4908	-5612	6434	6698	131	136	1
-22860	-18968	18620	-12872	28255	15271	-16348	1412	-14392	-7313	18949	8415	-25368	-9152	-9788	13281	-23177	-3267	-12604	2400	13216	-3413	1613	-2186	-17508	-5348	-3168	4584	10544	3398	-16424	264	-3156	1234	7520	4474	129	129	1
-22572	-28180	19620	1720	-12123	594	-12132	-4384	-10028	-5566	9216	5561	-23640	-4332	-3100	13731	-23830	-1870	-11664	3632	12184	-850	1086	-1468	-17352	-948	-1000	10590	10786	3940	-16488	2780	-2176	3292	9031	4701	125	133	1
-2552	-15252	15508	7595	-25650	-8588	-8816	-3740	1956	-4829	-1699	2729	-22500	-4404	-4256	8319	-20917	-4245	-11564	4248	11784	-665	904	-2516	-18204	3016	-2676	5233	7631	3052	-16756	3792	-2756	1896	10254	3138	125	128	1
3852	-7708	10516	5834	-28198	-5742	-10332	-4560	2948	-252	-10817	-2103	-17720	-4408	-6416	8669	-17867	-5279	-12180	3948	11932	-587	876	-2469	-18200	-236	-3612	-4244	4127	1212	-16492	4120	-3440	-3936	10193	1947	125	129	1
-892	-7268	9136	1644	-29222	-4430	-4924	-3064	-792	8191	-19231	-2638	-15344	-2716	-6384	10235	-15713	-5006	-11676	2100	12216	500	1334	311	-16160	-6272	-2352	-3154	3903	865	-16632	-3388	-2616	-10411	9443	3079	124	129	1
-7328	-7848	9460	-651	-32768	-7353	-5864	720	-5864	8705	-26523	-3056	-14568	-2020	-6660	11558	-14113	-4766	-11204	3296	11600	1414	1424	941	-14720	-4368	-260	5751	5773	2470	-15276	-6476	1740	-3263	9476	3987	125	130	1
-7332	-8492	8848	-1335	-32768	-11631	-8548	3252	-4444	-1211	-31412	-3179	-13804	-4092	-6036	14415	-13575	-3882	-10068	6160	10620	905	1619	62	-17416	860	1412	8342	6040	3110	-15300	-584	1672	7337	10869	4902	119	128	1
-10496	-6800	7616	-3629	-32768	-13943	-11224	2020	-2748	-5445	-32768	-4294	-13784	-4328	-6844	17298	-11804	-3965	-11100	5280	11392	59	1634	-1408	-17080	1064	708	3216	4913	2408	-15412	1708	2068	8469	11403	4842	124	131	1
-16212	-7844	7000	-6170	-32768	-15821	-10296	5144	-5996	-7886	-32768	-6722	-12112	-940	-7524	23066	-11050	-3863	-11744	5076	11260	-600	1967	-2251	-16748	-516	-852	471	4918	1701	-16688	1508	1428	6442	12327	4991	127	130	1
-19088	-10960	7056	-5154	-32768	-18842	-12968	4188	-6964	-13655	-32768	-8743	-10408	3068	-7792	21737	-11538	-3403	-12356	3512	11416	-270	1913	-1846	-16816	-2576	-2236	2629	5938	1894	-16128	408	596	7308	12112	4701	127	126	1
-17324	-10804	8832	-2256	-32768	-21893	-16844	4608	-7588	-12816	-32768	-11606	-9416	2912	-5452	12749	-10397	-2314	-11876	3312	11648	-115	2143	-658	-16544	-3548	-760	6459	7661	2064	-18108	-2184	2524	4232	12341	3676	125	132	1
-20644	-4388	12676	-7938	-32768	-26442	-21532	6164	-7584	-11610	-32768	-12808	-9572	852	-3612	4415	-7936	-2288	-11492	5432	11784	-368	3097	-1421	-17988	16	-1528	5579	7531	2695	-15312	752	-1592	6548	16091	4422	127	131	1
-28348	-8172	15028	-15469	-32768	-26144	-23756	6624	-10428	-11017	-32768	-14881	-10300	2960	-2920	1129	-5031	-3248	-12132	4940	11012	-955	3248	-2288	-17496	324	-1756	3190	6935	2344	-17324	2572	-3100	6536	16211	5367	129	132	1
-32768	-13576	15796	-12153	-32768	-21797	-27600	4704	-12220	-7918	-32768	-18572	-12472	5396	480	-1484	-1695	-2486	-12700	4148	10780	-400	3060	-2497	-15948	40	-1636	4012	8021	2262	-16616	3084	-2936	5566	15828	5591	129	132	1
-32768	-3732	13976	-7010	-32768	-22875	-24076	10672	-12376	-2784	-32768	-16605	-12640	340	4016	-3126	-1295	-2786	-12488	4000	10096	-375	2437	-3045	-15768	304	988	4614	10066	2333	-16068	732	2768	-163	10271	6923	127	132	1
-32768	-532	10936	-6757	-27073	-28054	-24140	11628	-14532	-4427	-32768	-12429	-13376	-5984	6756	-102	-2807	-5727	-11580	6536	10308	-701	1589	-5771	-16228	4764	2356	-660	10553	1744	-16384	844	5032	955	9277	5819	126	132	1
-32768	3500	3356	-1869	-25105	-26942	-20620	9208	-16336	-3175	-29555	-10579	-16088	-4980	13708	9878	-4128	-9637	-12864	3880	11756	-230	2041	-7016	-17424	-612	-844	-4312	11420	640	-17536	-752	3584	1374	8666	5395	124	131	1
-32768	11108	-7260	-163	-18872	-20297	-15724	8520	-18400	1663	-21916	-9479	-15300	1456	20480	10417	868	-7330	-13440	2592	12252	-1534	4253	-7337	-18044	-4364	-2680	-1760	14194	903	-18860	-2324	1684	2474	7965	5755	123	130	1
-32768	23840	-15616	-8148	-9082	-11275	-8144	10036	-20532	3365	-8928	-6499	-16164	4500	24928	889	-1551	175	-12820	-84	12956	-1623	7237	-4847	-16492	-4608	-3436	-1686	16773	780	-18764	-2332	1940	3098	7735	5475	125	129	1
-32768	19276	-15768	-8183	2056	-3423	-6140	7936	-18512	-97	6967	-1013	-16060	1048	20076	-2172	-6102	2923	-12480	1956	13712	-1844	10493	-3681	-16472	-4460	-3152	-1923	17107	746	-18588	-368	1744	8807	3916	902	126	126	1
-30816	10180	-9952	5905	11463	6250	-9524	6212	-16980	1421	17425	2602	-14912	684	19036	-2541	-5649	2938	-11988	4276	14500	-2126	15314	-4626	-22032	-3304	-3304	-4573	18976	479	-20496	288	440	7651	2167	-643	124	125	1
-15552	-1476	-936	8668	11332	7054	-32768	168	32767	-12148	12388	7840	-13248	-2676	1112	-3632	3737	1491	-10960	4356	15900	-2920	21143	-6522	-23724	-4860	-2388	-3611	19508	777	-21956	584	2400	7203	-2035	-1647	120	126	1
-3472	464	6332	11013	22750	24893	-8520	1160	-3208	28923	4302	-4312	-21904	764	7180	2890	8613	3981	-9528	5512	15380	-3265	29238	-9118	-23696	-6976	-256	-3048	20283	1152	-22420	-2272	8912	4690	-9494	-3334	117	127	1
-20328	1420	14056	3077	24405	5942	-13936	14960	-116	11263	11861	8792	-11044	-1148	5956	22810	5711	-1200	-8800	4748	17820	-3507	32767	-11766	-27128	-11860	5232	3241	22964	1841	-18016	-13344	11388	1634	-13409	-9994	125	128	1
-20340	3516	17712	-1400	25124	7047	-23404	13368	-3612	5158	15633	2311	-18680	7044	7360	13175	9155	-1436	-16184	9112	15656	-3757	32767	-17751	-29864	-11520	11544	10146	26811	2133	-17896	-14844	12796	10809	-14314	-13960	123	129	1
-24744	-8524	14204	-560	13494	11864	-24444	156	-6844	5446	17028	1770	-22600	5328	3252	-4361	8082	2103	-32768	7628	11328	-4432	32767	-27987	-28248	552	-4392	4924	27336	3241	-20628	-3600	11760	13602	-14989	-12622	123	131	1
-13732	-6464	11784	4215	11622	7001	-18116	4224	-5260	9152	14300	395	-18368	-6104	-7180	-14537	10940	-1759	-32768	7128	5404	-1790	32767	-27332	-28740	4436	-10348	-4526	26768	676	-23564	8772	-5648	24694	-5526	-10073	124	135	1
-14612	-7540	12036	8454	4235	7626	-15956	472	-5956	9714	10479	167	-13552	-13012	-8436	-8510	11329	-6157	-32768	5596	14512	312	32767	-28406	-24820	2492	-12016	-10565	20572	1338	-31916	7344	-15448	25683	-12329	-2291	131	138	1
-12880	-5456	12008	6041	1669	6353	-16472	1164	-5900	10289	9746	59	-16632	-6736	-6336	3010	9388	-4066	-27604	9372	21388	12565	31156	-21305	-19660	3208	-7248	-8253	17996	-1542	-32152	6064	-13048	10389	-25595	4158	132	140	1
-12548	-3836	12572	3839	744	4512	-17576	5668	-4584	363	7889	-235	-18232	-1488	-3668	3991	8777	-4437	-32768	9592	12608	2374	7146	-24812	-15372	2188	-6268	-5440	10984	-2266	-28944	3364	-3704	1316	-30299	2333	139	130	1
-11352	-3972	12336	2276	829	2337	-17416	5036	-4020	167	6158	-582	-17308	-3184	-2548	2328	11875	-2820	-19256	18828	16928	1837	-25849	-4464	-5244	7220	-3336	1808	3207	-3093	-24460	-120	-3176	674	-26436	894	130	129	1
-10792	-3680	12236	691	1082	163	-16748	5880	-2636	466	4659	-890	-15992	-1704	260	3797	11669	-800	1576	13160	12188	-504	-32768	1451	-8700	1344	1596	3117	-5754	-3063	-22656	2292	-7012	2829	-19403	3069	129	120	1
-10180	-4664	11828	-635	1535	-1180	-16728	4352	-1852	-887	4217	-1530	-16756	-428	152	2937	12600	10	3836	8576	7852	313	-31249	1413	-5368	188	128	990	-13600	-5073	-18432	3444	-8388	927	-18028	4605	128	118	1
-10192	-4784	11392	-1377	1394	-1429	-16404	2780	-1480	-876	3266	-1816	-16740	-428	384	2616	12787	-99	-3908	6716	6484	2588	-29208	5531	-4456	2484	-2820	1309	-19371	-6659	-15136	4756	-9320	-3611	-17228	4312	130	115	1
-9280	-5404	11112	-1571	1268	-1331	-15544	3352	-56	-2312	3056	-1870	-15452	1036	1464	-3386	14480	-2506	-8720	9420	5856	2764	-32768	11087	-5396	2816	-3276	1895	-24788	-7854	-13232	3320	-9696	-9187	-16732	3057	127	119	1
-9072	-5384	10936	-1164	1181	-896	-15816	2016	452	-6467	4466	-1826	-14764	160	3056	-8550	14100	-2229	-11536	8448	6576	1532	-32768	14617	-7292	2792	-4340	3166	-29904	-8121	-11832	3044	-8704	-10765	-16006	2807	127	123	1
-9604	-5984	10456	-281	849	-171	-15560	804	544	-5624	4996	-1584	-14420	-2508	4452	-10325	13012	-1505	-13832	4288	6332	4382	-32768	18862	-10284	1376	-4576	3925	-32768	-8566	-10912	5148	-9420	-16547	-14530	2673	129	127	1
-10212	-5612	11024	218	791	-223	-16084	776	-20	-3487	4856	-686	-15764	-4264	3764	-8242	13078	-1482	-14020	4228	6412	9398	-32768	22536	-12900	1724	-5268	1576	-32768	-9527	-9568	4580	-9640	-26685	-14886	1263	128	123	1
-9492	-5220	10992	326	679	49	-16036	1812	312	-3369	5631	-40	-16140	-4168	3364	-5977	13895	-1757	-17440	4636	7636	12670	-32768	23626	-15720	1072	-6900	-496	-32768	-8690	-8092	1928	-10516	-28616	-15057	-346	129	122	1
-10448	-5312	11072	577	688	372	-15980	1516	-712	-3577	7040	-111	-15956	-4168	2148	-3564	14280	-2137	-22268	4948	9528	14282	-32768	22365	-18800	340	-9364	1869	-32768	-7947	-9108	-912	-7748	-22427	-12727	-1319	130	122	1
-10572	-5452	11160	708	735	397	-16168	1104	-456	-630	7537	507	-16116	-2860	2028	-1118	13758	-2216	-29480	3452	13092	16025	-31474	23107	-20060	-1156	-12688	7015	-32768	-5881	-9780	-6428	-2808	-12600	-8969	-2160	129	125	1
-10216	-4772	11296	508	705	357	-15760	2324	-376	362	8312	841	-16464	-816	3236	-412	13811	-2093	-32768	1752	17392	18993	-31760	26092	-21268	-1640	-12448	8407	-32768	-5601	-10660	-8604	2048	-3875	-6824	-2063	127	125	1
-10028	-5448	11500	175	1007	170	-16152	1564	-104	1	9754	921	-16424	-1976	3664	-499	14808	-2601	-32768	-1852	13952	21082	-32768	29372	-24092	-2912	-13156	19265	-32768	-2454	-9852	-4664	2200	2567	644	3113	121	123	1
-10264	-5260	11132	38	1056	398	-16036	908	-916	279	10849	1660	-16720	-3288	2740	379	13457	-3843	-32768	-3704	10484	20401	-32076	27926	-25980	676	-13880	18392	-32768	286	-11644	-1108	4296	10848	3776	7926	119	123	1
-9880	-5748	11296	-99	1184	766	-16260	504	-492	911	11555	2423	-16608	-2576	2232	-265	10538	-4306	-32768	-4568	9648	20121	-31378	27348	-23604	-2112	-13684	12123	-32768	907	-15576	-2032	10064	5952	-357	7828	120	127	1
-10132	-5812	11740	-137	1851	1684	-16432	1732	-1240	1723	12326	2808	-17092	-1472	1652	-4212	7881	-3620	-32768	-13176	-1668	13155	-20884	20077	-19360	16	-15260	6609	-25590	2054	-17944	-2808	18320	-1172	-6601	7650	122	126	1
-10176	-5336	11916	-242	1962	1805	-16948	3496	-2472	708	13897	3280	-16748	-1084	1424	-7085	6128	-3060	-32768	-13728	-3436	11805	-19631	19060	-12804	-372	-18424	575	-15102	2635	-13748	-8356	24100	63	-2747	5979	122	122	1
-10900	-5704	12512	-999	5913	1246	-16904	2168	-1588	1785	15169	3406	-17240	-2928	516	-8109	5029	-2400	-30312	-25552	-13860	5088	-768	8244	-9016	-984	-17156	567	-1132	3449	-11976	-4224	21020	4137	-617	3323	123	116	1
-9408	-7116	13676	-1416	8480	3044	-18496	1960	-2696	4679	15854	3754	-18028	-5248	-172	-8288	3392	-2198	-27564	-21400	-9420	-1718	6180	-2362	-9824	2344	-16580	-3976	10268	3614	-12244	-2428	20532	4053	-777	2791	124	118	1
-11640	-5648	13296	-934	12006	4844	-19236	5164	-4572	5172	16698	4118	-18784	-4052	-332	-7803	1827	-2107	-15724	6664	16268	-19051	7724	-15544	-21500	-8172	-2888	-12455	12954	900	-14268	3524	6184	-2367	1648	2428	124	126	1
-11204	-4636	14868	-1270	17255	5414	-19984	6712	-5104	3725	17672	4483	-19816	-3512	1420	-7156	243	-546	3128	24596	26860	-10154	9444	-20852	-26788	-14288	13632	-14018	3167	4286	-23568	-6020	4852	-10980	6234	1854	125	122	1
-9480	-5960	15600	-2090	24456	6132	-23640	7024	-2348	3031	18117	5118	-22280	-2168	4972	-8349	-2874	870	-13292	-18704	9056	-12840	25396	-8657	-8512	-17396	-9480	-17770	9782	-52	-18108	-7888	7920	-16790	7845	-3288	126	121	1
-7056	-4824	16528	-3976	32334	7257	-23460	10032	-1284	-1083	19363	5049	-23056	1084	16580	-6836	-13126	3921	-19960	-136	18048	-6044	21603	-2735	-24212	-9344	-3380	-5640	13814	2876	-14540	-13112	3116	-19244	13146	-5003	124	130	1
-6092	-6264	17832	-5013	32767	7971	-28792	12400	7632	-9650	22522	6045	-19976	11736	16032	-7992	-16949	4528	-23760	-480	17276	27	19362	-9335	-22264	-1416	-4500	-2722	15273	5309	-16196	-14504	2160	-8209	8253	-3511	126	110	1
-10156	-14284	13820	-7640	32767	13765	-28956	11888	9032	-11220	23218	6446	-22108	11560	9456	-17211	-15425	7900	-32768	22744	2332	-9021	6501	-5057	-22944	14556	-6316	-697	15082	7792	-21492	6192	-1832	12369	11852	919	116	121	1
-28728	-10712	10076	-7102	32767	24748	-24072	-792	-6252	-9396	24906	4217	-19456	2852	2388	-29095	-16377	7504	-15708	2328	11168	-6735	3830	-6220	-17644	208	-4156	-11175	10689	4734	-16692	14936	-7580	8029	10880	8695	123	138	1
-32768	-10652	6284	-7731	32767	23506	-22036	-616	-18716	3461	24976	7293	-24828	-9304	-15564	-32768	-13414	6134	-16240	1240	13276	-8245	1997	-6869	-15440	1256	-5600	-7141	9117	3676	-15956	3508	-3112	-1749	7720	7696	131	135	1
-32768	-11588	12168	-19539	32767	15841	-23300	11368	-15648	6184	22079	10716	-27504	-13772	-16388	-14432	-18949	-2969	-12524	3472	12392	-3863	-258	-3736	-18092	-4768	-2640	2720	10136	3121	-17688	1804	-3412	-11	7776	5154	134	134	1
348	-21880	27396	-17477	11374	11634	-15484	3628	-7872	-5888	18175	7058	-23280	-9076	-8936	10197	-22811	-117	-12664	2376	12288	-2084	164	-2556	-16872	-1560	-2516	7984	10537	3539	-17276	1644	92	-154	7145	4434	132	135	1
-17124	-24968	20292	-9260	-10854	9263	-14756	-4840	-856	-12235	11433	1661	-24056	-3680	-1640	11117	-23649	909	-11144	4248	12164	-1472	680	-1914	-18212	364	-2156	6460	9052	3022	-15840	2592	-1780	-1279	8791	3545	124	128	1
260	-13540	15888	-787	-24161	3402	-5776	-5840	1540	-9223	818	-593	-21100	-3528	-3620	3201	-19647	-2575	-12384	2792	12024	-1336	684	-1451	-17780	1296	-3752	-3137	5382	1611	-15880	1540	-2408	-4079	8846	2905	123	125	1
3924	-9088	11572	481	-24963	6030	-9700	-2316	3336	-3616	-8829	-2673	-17964	-5044	-6332	1308	-16706	-4415	-11796	2304	12124	-73	1059	141	-17028	-3764	-2748	-5596	3976	649	-16604	1192	-1480	-6895	8983	2257	125	126	1
-1652	-9916	9424	323	-27340	4050	-6636	-1948	-1552	2102	-16115	-3078	-15908	-5596	-7144	5913	-15447	-4786	-10936	4112	11696	319	1330	340	-16584	-2680	-2064	-500	3970	1480	-17656	-924	-2236	-3965	11038	2978	124	129	1
-6064	-10220	8344	290	-32768	-2503	-6588	1004	-4152	1686	-22825	-3107	-14408	-4948	-7376	11278	-14811	-5025	-11500	4056	11500	572	1381	-151	-16688	-2220	-1448	4791	3987	2030	-16044	-2336	-676	866	11162	4744	124	128	1
-5048	-10148	8260	-190	-32768	-9813	-8972	2680	-4496	-3289	-28929	-3991	-14284	-4816	-6792	15957	-14122	-4175	-11464	3844	11220	1264	1375	-172	-16304	-1400	-644	5056	3891	2285	-15208	-1808	1128	5489	11957	5139	118	131	1
-9492	-8800	8536	-1746	-32768	-16107	-10968	3240	-4620	-6090	-32768	-4980	-14284	-3872	-7196	18578	-12496	-3704	-12008	3364	11732	433	1477	-357	-16400	-140	-2736	1008	3161	1836	-14312	724	176	7204	13286	4581	124	127	1
-15632	-9972	7656	-2544	-32768	-21362	-9792	3508	-6452	-7740	-32768	-7169	-12076	-580	-7496	21376	-11480	-3945	-12020	2896	11572	1130	1495	921	-16400	-3188	-984	1313	3855	1343	-15916	544	944	4938	11874	2927	126	128	1
-16604	-10068	7612	-1217	-32768	-22925	-14180	1904	-6008	-9835	-32768	-9759	-10400	948	-7764	20982	-11251	-3412	-10884	4648	11784	1260	2051	997	-16912	-1260	-164	4525	4897	2051	-16660	536	996	5192	11254	3314	123	128	1
-17124	-9652	9480	-539	-32768	-23278	-17204	2484	-6984	-4330	-32768	-11551	-9824	1844	-7072	13671	-9783	-2961	-10952	5632	11596	976	2482	-32	-17788	12	-720	4286	4709	1866	-16520	1968	-232	6906	13469	4663	130	128	1
-19056	-9844	11904	-2353	-32768	-25449	-20732	4580	-7844	333	-32768	-11903	-9344	1852	-5680	6256	-6334	-3023	-11908	4704	11320	656	2667	-663	-17956	108	-912	4012	4622	1894	-17288	1876	-1280	2565	17782	5428	129	129	1
-24644	-10484	15820	-5779	-29948	-27547	-23172	8744	-9720	-590	-32768	-12593	-9948	3528	-4812	2264	-2212	-3646	-12596	2828	11024	1352	3075	-543	-16244	-2272	-2416	3240	4759	1650	-16708	816	-152	590	18731	5736	131	131	1
-32768	-11588	19300	-8594	-29389	-30561	-27600	8444	-13024	-3196	-32768	-13318	-10604	5172	308	1495	-1493	-2536	-12060	3972	10432	1271	2866	76	-15224	-812	832	4691	6671	2175	-15080	-1628	2904	885	13721	5160	130	133	1
-32768	-10260	16784	-4982	-32768	-31061	-25088	8664	-12128	-5282	-32768	-13010	-11736	364	3704	3397	-1627	-2363	-11684	5200	10564	135	2722	-717	-15020	1448	2808	3278	8726	2005	-16448	-3048	6124	1685	7816	4488	129	133	1
-32768	-1512	11876	-4863	-32747	-29532	-25976	8120	-13976	-8881	-32768	-11104	-14516	-5664	10036	3622	-3061	-4731	-11660	6128	11484	-916	4000	-2509	-18612	792	1240	1915	10360	1603	-17896	-1644	5452	1393	8453	5264	127	132	1
-32768	1396	2308	-4109	-29193	-23367	-18552	6192	-17976	-4274	-31127	-10527	-19016	-3676	16292	10753	-5643	-10498	-12580	4480	11656	-1187	5104	-3418	-18244	-984	-1284	3106	12421	1668	-18476	992	2004	2352	11229	6011	124	131	1
-32768	9192	-11240	-7916	-22120	-15186	-16088	9084	-19508	-6526	-20350	-10075	-14224	6392	21120	7915	1118	-9065	-12332	3004	11820	-1422	5514	-3451	-16844	-2432	-1884	3880	14554	1468	-18676	384	344	6135	10799	4740	115	130	1
-32768	22780	-19584	-16561	-10346	-6629	-5580	6704	-19904	-7442	-4267	-7910	-13464	4404	27236	-6738	-2801	1792	-13012	3304	11332	-1773	6191	-3205	-16288	-144	-292	1309	16511	1069	-17724	-52	2628	7674	6272	2610	119	130	1
-32768	11408	-17680	-9450	2907	-867	-5572	3684	-18288	-4528	10707	-1079	-14720	-2996	20960	-6336	-7132	2413	-10760	5884	13532	-2210	8340	-3546	-20460	1988	296	-5155	16833	0	-18924	1936	2296	4572	2434	1484	117	128	1
-19372	-18916	6528	13994	7435	6538	-16220	3304	-4332	-5385	17519	2835	-11928	-6840	7160	-5730	-936	-1156	-12920	5356	13340	-1485	12110	-6431	-21792	-2460	-2972	-6568	17935	508	-20444	3020	912	3807	1947	1048	124	127	1
16352	-18012	32767	16391	20448	8306	-32768	-3140	32767	3830	9039	4047	-13964	-3280	-3828	-5542	8817	-1490	-11240	2940	15440	-909	18336	-7522	-22400	-5436	-4000	-4257	19590	44	-22176	1680	1624	5434	317	185	122	128	1
-18724	10428	9244	14189	23047	18266	-1616	9540	-8984	32767	3034	-870	-26180	-4864	13196	719	-1091	-672	-9924	5384	15596	-557	25897	-8839	-22272	-9692	-1324	223	20547	967	-20624	-5516	7328	5297	-5991	-2078	124	129	1
-11544	-3748	18952	6208	22008	4172	-20768	13988	2960	15481	11366	9558	-14748	-1556	12292	28584	479	-1192	-9296	3604	16828	-1573	32767	-11388	-26700	-8096	5168	2904	22712	-257	-19596	-9652	12024	-178	-15431	-6296	122	128	1
-18956	8396	19396	-1089	22034	6466	-17936	21160	-3772	10644	14284	1488	-12968	11752	6680	17211	12674	1222	-9528	10072	15952	-1218	32767	-16099	-28548	-8956	11652	2952	24369	-875	-19748	-12112	11380	4370	-13939	-10225	133	129	1
-19360	-7032	13280	-1377	14052	12750	-21004	1716	-4576	672	18644	658	-17860	6644	1268	7573	8921	5612	-19900	11036	17864	-3651	32767	-27794	-29100	-3856	5324	2897	25363	1173	-19292	-7356	9992	10261	-15408	-12450	123	130	1
-14152	-13692	9040	3904	13232	9062	-19432	-3752	-4160	8199	15084	43	-17180	-9172	-5116	-7442	11488	117	-32768	6580	6536	-2248	32767	-32157	-27636	3788	-12032	-1781	26686	1937	-19216	432	4432	16898	-12628	-10786	124	134	1
-18740	-10796	6176	10236	5048	10039	-17540	-5236	-8356	13365	10488	1048	-15432	-11264	-2520	-4786	7812	-4774	-32768	8964	6460	-3876	32767	-32768	-25700	2464	-9204	-7026	22054	893	-26432	6408	-8528	27295	-7695	-5245	133	134	1
-13336	-3480	12648	9167	-1131	10885	-16376	-2188	-7812	14618	9307	1110	-17880	-4328	-6396	-1472	9321	-6185	-32768	7400	16092	6288	32767	-25846	-20228	416	-7268	-9564	19418	458	-31816	5024	-12532	18489	-14702	2847	133	137	1
-12872	-5484	12328	8991	-593	10059	-16288	9568	-6500	2704	8167	368	-17864	596	-3048	-1283	9382	-5007	9364	18860	21296	11593	14854	-21492	-15656	884	-5732	-6417	14277	220	-26744	2512	-10060	8294	-25345	2980	141	140	1
-11528	-1740	13380	2517	204	2590	-17440	9568	-3992	-3410	8676	-168	-19588	-1564	884	617	12829	-1527	-26068	14724	14928	9346	-4059	-7234	-13084	468	-8952	2680	8268	-135	-23736	1316	-3412	4397	-28430	-58	128	133	1
-10828	-3360	11868	1131	561	734	-16852	3820	-1540	-4095	8331	-1188	-14004	-3720	1316	3101	13770	59	-9052	16168	15244	4316	-31614	2659	-7692	2156	496	7229	475	-1119	-23464	1004	-4268	4436	-23534	856	129	124	1
-10116	-4744	11512	1035	664	389	-16920	2608	-1240	-3595	8128	-1297	-15584	-5672	1000	5092	13529	695	4368	10940	11460	962	-32768	2987	-7612	1404	1964	5256	-8574	-1098	-20472	1876	-6712	4820	-18494	2501	118	121	1
-9600	-4864	11576	1237	226	615	-16544	856	-1188	10866	2445	-311	-16132	-4180	1056	10067	13735	-1033	256	7680	8912	1436	-29010	3376	-5500	748	-752	132	-17366	-2141	-16848	2656	-7972	2393	-16436	3150	129	119	1
-9524	-4128	11560	986	35	617	-15284	4756	-1900	11516	1134	-230	-15700	104	84	11065	14993	-2837	-7972	6300	8052	4444	-29888	7940	-6072	1896	-3164	-440	-22596	-3855	-14496	4320	-8236	-2690	-16609	2644	126	120	1
-9656	-4120	11564	579	256	575	-15228	6792	-2124	1956	3882	-762	-15676	2892	112	5143	14277	-2394	-10780	7196	7676	5998	-32768	12601	-7996	364	-3924	2774	-27362	-4811	-13544	3164	-7492	-6823	-16643	2039	125	125	1
-10064	-3768	11704	175	589	531	-15244	4788	-2032	-7205	6895	-2101	-14804	1844	1312	-3536	12561	-1770	-11692	4888	8496	6930	-32768	16324	-9364	-32	-4312	4500	-32022	-5007	-11676	3864	-7268	-9661	-15189	1756	128	127	1
-10108	-4088	11524	575	538	556	-16208	1712	-1276	-5123	6835	-1835	-15492	-1412	704	-8152	13882	-890	-13264	1236	8640	11458	-32768	20257	-11144	-1284	-5172	4482	-32768	-5518	-10268	3648	-8656	-17149	-13568	1069	130	124	1
-10268	-3736	11492	675	181	307	-16392	1660	-1124	1495	5804	-1110	-15892	-2156	760	-7152	14701	-1702	-14116	792	8932	17664	-32768	23990	-14840	-1612	-4632	2794	-32768	-6294	-9416	2848	-8564	-23388	-14345	-859	122	125	1
-9656	-3984	11928	706	306	334	-15784	2816	-768	3481	6527	-631	-17148	-1172	3376	-5575	14971	-2670	-16064	4672	10424	17394	-32107	23279	-18428	-1480	-7900	-941	-32768	-6064	-9188	1860	-8028	-22640	-14350	-1451	137	123	1
-10008	-3696	11972	558	471	416	-15212	4124	-896	-684	8421	-893	-16312	-2148	3116	-1979	15043	-2883	-21856	4260	13732	12866	-25596	22568	-18876	-3004	-10360	2924	-32768	-6364	-9788	-1844	-4056	-17654	-13190	-2955	130	122	1
-10320	-4152	11704	735	557	792	-16456	604	-2004	-1386	8870	-592	-15676	-4080	-1780	-2481	12808	-2283	-32768	572	18288	12835	-26891	26374	-23492	-4372	-13428	4776	-32768	-6572	-9532	-2820	-3284	-15664	-12651	-3134	127	124	1
-9848	-3724	11928	697	527	1067	-15964	2032	-2548	556	7756	460	-15460	-3268	864	-1983	11859	-1692	-32768	800	17744	9616	-31948	30677	-25864	-2084	-15280	8809	-32768	-6879	-10520	-5048	4496	-6470	-9254	-1526	128	125	1
-10060	-4824	11636	316	819	1342	-17276	840	-1576	-997	8692	1063	-15560	-460	3136	-5390	13723	-2987	-32768	-6492	13280	7805	-32768	31455	-25020	-652	-13084	8909	-32768	-7762	-10116	-132	4756	4212	-942	3875	124	119	1
-10268	-4856	11440	326	851	1514	-15896	116	832	-1073	10240	1432	-17488	-244	5540	-6527	12150	-5159	-32768	-6732	6904	5354	-32768	24980	-25468	740	-13488	1727	-32768	-7531	-14628	-588	7788	5615	3422	6150	122	124	1
-10476	-4708	12372	779	1646	3656	-16744	-244	-100	1625	12079	2102	-16828	-1140	4964	-6424	10565	-5904	-32768	-13480	-1556	3207	-27129	16345	-20672	-2524	-16856	-132	-29978	-5323	-18232	-4180	9576	-12321	-1116	4923	117	119	1
-10900	-4596	13084	1146	3363	4592	-17460	1652	-1628	3947	13126	3056	-19180	-3780	3100	-7029	7382	-5020	-32768	-19356	-11580	3743	-16152	11229	-14840	-788	-19132	2189	-18844	-1583	-14148	-11156	21468	-13341	-3871	3376	119	118	1
-10424	-4444	15236	2047	7394	7268	-19412	4740	-1680	3495	15420	3172	-21540	-6460	4176	-6860	4449	-4275	-32768	-25704	-15724	6958	-5942	7849	-9956	2240	-20520	3151	-4839	1922	-10872	-14680	23724	686	-1766	-162	121	117	1
-11184	-4528	15652	3045	12731	8142	-20992	5988	-2340	4129	17160	3734	-21320	-5288	3364	-7319	2296	-2912	-29960	-20788	-13276	1865	210	2150	-10832	3552	-18708	-614	7576	2628	-14156	-5348	15580	7806	-1917	-1247	122	121	1
-10056	-3944	16616	3696	17463	9520	-20832	6932	-2884	4902	18275	3460	-20744	-1828	3468	-7827	261	-659	4596	-13116	-13984	-11398	14759	-12044	-16912	4824	-6300	-11036	12865	3439	-15412	504	9332	4314	-609	1595	121	117	1
-8004	-3464	17172	4304	21703	10437	-22464	6904	-2352	3689	19615	3395	-20912	-1212	5740	-7616	-3074	143	-4100	26192	32767	-2240	11657	-15301	-31448	-23584	12624	-11875	5199	2449	-15020	-296	2792	-15422	19631	4333	122	125	1
-9532	-4572	17392	4039	28455	14732	-25616	5704	480	3567	21301	3777	-23064	-2052	11724	-7311	-10495	979	-11640	-12340	3344	-3658	22259	-3206	-7464	-13168	-10044	-5991	10885	4180	-16916	-7684	-2256	-1768	17443	-1526	124	130	1
-6508	-5064	18404	6424	32767	20660	-26892	9612	1548	227	22607	3197	-20692	3420	15892	-9936	-21874	2328	-23928	1200	19744	914	22678	-2096	-27588	-4160	-3732	1747	14374	4339	-20736	-9776	2672	-4511	5860	-2766	122	123	1
-5868	-7392	17928	11072	32767	20262	-29032	11888	14044	-11294	24672	3798	-22288	10400	4708	-16927	-12411	6580	-22684	5404	14860	5674	16606	-4197	-22468	-3788	-4100	321	15185	5561	-18612	-3760	3848	1719	12128	743	120	126	1
-23288	-184	11880	7798	32767	19211	-23904	10116	536	-15087	26597	777	-21628	12168	5380	-22970	-17373	8579	-21256	13160	4352	-8017	4980	-3092	-21760	14896	-4584	-1381	13775	8091	-18984	6348	-1572	11205	11987	4243	120	125	1
-32768	-284	2348	248	32767	22265	-21360	1268	-12636	-17765	27989	2257	-22108	1100	-11400	-32768	-16354	9280	-13888	7236	10160	-4050	3273	-4093	-18052	248	-4156	-9455	9235	4591	-15016	12596	-5940	515	10150	7510	128	129	1
-32768	-5592	16600	-7316	32767	16652	-23520	2820	-15720	-13792	26709	4838	-27612	-16156	-17624	-31723	-18338	816	-13020	2764	12128	-5127	2527	-4181	-16608	-136	-4408	-6189	7817	3999	-17196	6008	-4916	-4367	8980	6234	139	134	1
-32768	-5056	16776	-9238	32767	15725	-18804	1288	-11280	-10341	21791	5866	-24920	-13956	-13140	24	-23082	-4261	-13744	3288	12260	-4102	1264	-3522	-17616	-1840	-3204	-703	7743	3009	-18020	3280	-2016	-6897	8006	5078	138	135	1
-29456	-18816	23292	-10044	-6439	7301	-11828	-1264	-5744	-7212	10263	2199	-24184	-5416	-2912	11018	-24560	-2059	-11872	3724	11836	-2546	914	-1686	-17424	-2664	-2464	3809	8037	2649	-16620	-488	-1392	-5472	9665	5129	124	131	1
-2080	-14456	18340	-11755	-24330	-1463	-8312	-2912	2792	-9152	598	384	-21640	-2828	-4436	7079	-20353	-3564	-11916	3500	12368	-1507	889	-1027	-17020	-2308	-1632	5832	7526	2626	-16168	-1664	-660	-2876	9081	4262	123	129	1
4304	-12696	11660	-9776	-23724	-2202	-9480	-1704	4056	-6190	-8854	-4578	-18508	-4740	-5540	3216	-17866	-5626	-11692	3748	11856	-466	744	-234	-17044	-1228	-1432	3413	6501	2276	-16504	16	436	-1782	9773	2996	122	131	1
-2136	-11824	9692	-5989	-23260	-5933	-5964	-1880	-1132	-1041	-15827	-5526	-17776	-5064	-5660	3389	-17410	-5660	-10268	5008	11556	-585	960	185	-17124	-1260	-1272	-1210	4437	1619	-15472	1240	-1872	-3068	11792	3361	119	126	1
-9408	-10196	9260	-3982	-30954	-14011	-6112	-216	-4316	1863	-23129	-6386	-13096	-3472	-6896	10258	-13680	-5363	-12032	2904	11648	85	797	4	-16096	-2960	-2404	-1798	3351	1477	-15784	1128	-2276	-3215	12039	3625	123	126	1
-8968	-9140	8588	-2132	-32768	-21049	-8928	1700	-4220	-653	-28827	-7115	-12952	-3656	-6572	13083	-12808	-4942	-11020	3868	11784	535	1016	619	-16032	-4368	-1128	2533	4048	2100	-15076	-3528	-684	-740	11676	5569	122	125	1
-9856	-5484	9180	-2505	-32768	-25250	-11860	2388	-3900	-1822	-32768	-7955	-12964	-5024	-6688	15721	-11902	-5443	-11088	4420	11784	1063	1139	865	-16392	-2004	-620	6207	4919	2700	-14828	-2884	1060	5179	11583	4857	118	126	1
-15192	-4412	9120	-5137	-32768	-27904	-12564	2596	-5068	2021	-32768	-8146	-12612	-3164	-7468	22653	-10898	-5675	-11516	4112	11184	1122	1294	1098	-16592	-1384	-672	4668	5100	2338	-15728	616	924	8419	12447	4623	123	126	1
-16820	-5048	9784	-6470	-32768	-26331	-13908	3984	-5436	-115	-32768	-9315	-10392	648	-7684	25217	-11301	-4951	-10732	5032	11488	895	1726	879	-16552	-1508	-280	3684	5306	2151	-16012	532	608	7926	12940	4602	123	126	1
-18512	-6776	11540	-6162	-32768	-24379	-16980	4692	-7904	-2519	-32768	-10993	-9404	2076	-6748	18789	-10429	-4090	-10716	5984	11348	359	2016	263	-16860	-1120	-544	3992	5449	2031	-17508	1020	-384	5686	14885	4929	122	127	1
-22044	-6076	14524	-6643	-32768	-24980	-20192	6732	-8648	-2807	-32768	-11558	-8996	2432	-4316	10649	-7493	-3223	-11132	5764	10752	61	1998	-715	-17352	-1072	-1188	5056	6049	2518	-14344	616	324	4298	16719	5678	128	129	1
-25936	-4672	16752	-10397	-32768	-26807	-22740	8512	-8780	-7401	-32768	-11805	-8992	4392	-3120	3287	-3726	-3456	-11412	5232	10956	-546	1777	-1386	-16248	-928	-476	4600	6787	2506	-15976	-760	1672	2835	17106	7908	129	132	1
-30104	-8436	18640	-11268	-31955	-25719	-26840	7268	-10636	-9411	-32768	-13876	-9768	5124	360	202	-1429	-3605	-11100	6076	10500	-1305	1169	-2590	-15656	1116	2636	4858	8697	2597	-15248	-404	4568	1389	14817	7754	130	132	1
-32768	-5704	15900	-9738	-31680	-24471	-27800	6844	-13048	-7165	-32768	-14352	-12812	1316	3580	-538	-830	-3785	-10076	7912	10976	-1917	480	-5026	-15996	2692	5216	1819	10361	2168	-18484	1080	4968	-361	10464	6793	127	132	1
-32768	-20	9628	-9240	-29870	-22984	-24572	7232	-14540	-4972	-32768	-13090	-16044	-3468	9536	-1741	-1772	-5418	-11416	6756	11140	-2653	-41	-8426	-16796	1092	1732	-1815	11828	2251	-19148	1212	4448	129	8108	5878	129	133	1
-32768	5888	400	-9092	-27416	-23169	-20492	10244	-18660	-3800	-29358	-11345	-18012	-3912	17260	9180	-6346	-8989	-13260	152	12468	-2394	930	-6637	-16412	-4200	-3696	-3438	13518	981	-18076	-524	2800	-504	8578	5866	120	134	1
-32768	14132	-9704	-9018	-19197	-20599	-13888	9540	-19692	-5092	-18646	-9581	-15200	2812	22556	7909	-800	-7953	-11544	3680	13312	-1206	3308	-4445	-18168	-2916	-2656	-1551	15572	1268	-17904	-1132	320	2674	10305	5343	119	133	1
-32768	24308	-18620	-13147	-7875	-12160	-6472	6780	-20076	-3783	-3120	-6718	-12992	5136	25704	-5379	-3176	-281	-11612	1008	14532	-1105	6773	-3953	-18396	-3588	-3484	-2542	16845	732	-18460	336	-1348	5046	7197	3356	119	131	1
-32768	16784	-15700	-4480	4146	-1782	-6656	4936	-18700	1354	9817	-1183	-13580	-2560	18400	-3884	-5713	1150	-11724	5088	14832	-1577	11656	-4056	-21168	-2864	-1672	-4822	17709	186	-19664	1256	-2156	4600	3839	1687	122	129	1
-32768	13692	-6576	8863	12399	7113	-9716	8956	-19180	7666	18035	3574	-10968	-4840	8212	-5522	-520	-754	-12680	4520	14368	-1595	16831	-7161	-20784	-1656	-3224	-8317	17442	401	-19020	1528	1448	5716	1125	168	120	127	1
24204	-20088	32767	7573	24776	8150	-32768	-1804	32767	-9615	12079	5231	-14296	-284	320	-2790	8437	-1250	-11152	4524	16508	-2565	22467	-8425	-23660	-3552	-2072	-6990	18865	-318	-21684	1268	4372	5411	-1787	185	130	126	1
-10168	9460	1772	10797	23501	16177	-548	15268	-10388	27110	3612	-2262	-26840	1128	4952	-1785	5847	4428	-8836	6204	16184	-2306	29452	-10523	-23672	-8092	-340	-3610	20234	815	-21760	-4628	12892	2069	-10396	-912	128	127	1
-18188	-4760	20828	-459	27940	3142	-22824	11356	1444	4731	14430	9268	-15356	-1072	8340	18664	1217	2316	-9592	5296	16760	-2429	32767	-13138	-28612	-12476	7588	3599	24311	433	-19320	-12040	12628	-2021	-16492	-6143	127	130	1
-19784	5000	18924	-7743	22472	10315	-19812	14460	-4576	1021	15477	1932	-18352	9788	6372	9783	11565	2378	-9684	10528	17256	-4214	32767	-21817	-28640	-12204	10472	7034	26790	1903	-20424	-16928	9916	9348	-13122	-12913	128	130	1
-22368	-19732	9536	-2045	13506	6819	-23332	-1508	-6036	213	17138	823	-20700	228	-132	-6971	10243	5200	-28700	8660	14488	-5782	32767	-31640	-27228	-1640	-2508	3684	26941	2671	-19164	-4984	7812	14271	-14567	-13828	129	129	1
-19576	-19384	9584	-918	13129	6074	-16740	1136	-2840	8189	12561	991	-14480	-11920	-7268	-8857	14455	-2422	-32768	2592	-428	-4945	32767	-29584	-27656	3984	-10556	-3581	27470	1416	-21704	7512	-492	27300	-9349	-10472	125	133	1
-15052	-7476	11964	9073	6614	6992	-16144	-1252	-5872	9445	9327	692	-14276	-10548	-6652	-3314	12062	-5234	-32768	6228	13712	-5424	32767	-31982	-24088	1016	-8044	-10979	19313	2547	-29108	8500	-14820	29032	-8246	-2886	133	135	1
-14500	-7788	11152	7612	3126	6434	-16208	5216	-5716	4439	8293	613	-16104	-2080	-5124	-1343	9169	-2041	-28300	7444	23308	5676	32767	-23203	-18740	4020	-9008	-11688	17759	-647	-30572	3880	-13324	11063	-22053	4046	137	138	1
-13480	-2888	13400	4049	1048	3749	-17084	7508	-4112	-2559	8399	519	-17432	-2284	-2076	-1054	10013	-3063	-31896	10744	16576	-331	1751	-17572	-14208	568	-7332	-6028	10909	-1359	-25688	3072	-3700	1099	-30149	1344	138	136	1
-11592	-3832	12656	1097	1175	991	-17416	5112	-2840	-4607	8052	-74	-16300	-3496	-1496	392	13874	-1021	-14916	12536	16940	1064	-19847	-4722	-8624	4164	-2920	637	2864	-1170	-26240	2160	-2076	599	-27055	-368	130	130	1
-10516	-5292	11520	308	1091	-250	-16920	2236	-1484	-1618	6479	-204	-16108	-3808	-1248	654	13853	-409	1220	10492	13520	3594	-29802	1300	-8412	1152	1368	3139	-4457	-2250	-21720	2940	-7240	2580	-18824	2136	129	123	1
-9988	-5580	11232	-130	1101	-769	-16508	1932	-936	1888	4581	-134	-15896	-3184	1032	4868	13573	665	936	8816	8736	3534	-29247	1670	-5520	944	-192	1606	-12065	-4586	-17960	4344	-8212	391	-17233	3317	138	119	1
-8972	-5996	10964	-23	1115	-637	-16300	2164	-156	2288	3842	-195	-16016	-1216	856	4171	14881	-980	-4276	8108	7708	2611	-30233	3776	-5276	2656	-2340	1228	-18319	-6105	-15196	4492	-8200	-3705	-16382	3035	125	117	1
-9316	-5956	10604	263	1149	-161	-15252	2984	-628	-423	4407	43	-15612	216	1440	-101	15407	-2351	-6792	7296	7232	2663	-32604	7852	-6008	1120	-2832	675	-23714	-7573	-13468	3256	-8488	-7989	-16168	2097	122	119	1
-9392	-6212	10296	830	1333	630	-15576	2468	-296	-4821	6167	-539	-14648	48	2860	-3442	14091	-1950	-9952	6920	8412	3998	-32768	11607	-8852	596	-3928	3518	-28268	-8036	-12768	3064	-8116	-10242	-16087	1441	127	127	1
-9880	-5868	10708	1674	1276	1195	-16452	1364	516	-3756	6417	-428	-15160	-880	3192	-7056	14023	-1043	-10724	6284	8236	4261	-32768	12327	-10736	348	-5536	6235	-32083	-8287	-11596	4336	-7400	-13358	-15571	948	128	126	1
-10456	-4716	11216	1894	1219	1293	-15112	1728	-228	403	6214	-248	-15320	-1748	2444	-7151	15049	-1234	-14492	4012	8736	11772	-32768	20416	-13192	776	-4528	6441	-32768	-8829	-10736	3608	-8276	-21522	-14549	-226	128	128	1
-10856	-5192	11188	1224	876	913	-16276	1936	-1264	805	7478	392	-15668	-2112	1136	-3093	16386	-2560	-14444	3896	9516	15747	-32768	20896	-15880	-704	-4668	4589	-32768	-7834	-8844	1460	-8608	-26376	-14375	-1605	130	126	1
-10384	-5424	11024	731	1046	878	-16168	2292	-2204	475	8211	694	-15012	-2628	748	885	17688	-4387	-19068	3892	9696	19160	-30267	20564	-19216	268	-7656	3089	-32768	-6107	-8908	-1152	-8300	-20801	-12675	-2161	131	123	1
-10692	-5024	11300	439	877	556	-16588	2856	-2484	-1461	8702	1156	-16000	-4528	-1764	1867	17242	-4354	-27484	6752	12396	18570	-26953	20389	-19676	-716	-10100	7243	-32768	-4555	-9020	-5524	-3984	-12907	-10952	-3667	129	125	1
-10048	-5052	11500	27	1154	208	-16596	2824	-2460	-1534	8656	1172	-17460	-3112	-2396	-920	14585	-2607	-32448	4096	16372	16937	-26399	23899	-26644	-2884	-13336	6955	-32768	-2958	-10672	-9096	760	-6548	-10960	-5126	124	128	1
-10664	-4788	11424	-441	1616	186	-16080	2748	-1212	-1463	8979	1301	-17968	-1692	884	-2893	11217	-888	-32768	420	16216	14267	-25999	30050	-25524	-3404	-15240	11222	-32768	-2772	-10496	-3916	3980	-1099	-7712	-2304	124	124	1
-10136	-6224	11276	-544	2220	360	-16444	-472	164	-4	10126	1805	-17580	-2600	3680	-2865	9370	-2366	-32768	-9828	13884	16029	-30223	32767	-23528	1924	-16240	15763	-32768	-2373	-10560	1860	6200	8434	-372	4285	122	124	1
-10112	-6712	11352	-478	2855	1915	-17444	-1036	-424	3419	10839	2700	-17212	-3680	3212	-3778	8542	-3427	-32768	-13156	7680	14563	-32768	28346	-25612	-208	-15132	8993	-32768	-3784	-15332	3544	10792	7717	-971	7337	123	129	1
-10532	-6284	11700	-773	3896	3363	-17232	1904	-2320	2624	12390	3487	-17288	-3736	2272	-5926	7916	-3536	-32768	-13572	-4356	8981	-26980	19226	-18940	872	-16888	5053	-26509	-2781	-19020	-2660	12508	-1867	-1808	9960	124	124	1
-10684	-5104	13328	-1361	6312	3990	-18360	4148	-1272	921	14144	3642	-18440	-2824	2232	-8295	6928	-2515	-32768	-20580	-16200	5316	-16617	10219	-13368	460	-20096	2812	-15115	1095	-13252	-7712	20808	-2839	174	7767	124	119	1
-11060	-4776	13652	-946	10764	4645	-19824	4820	-1008	2878	15542	4522	-20188	-2668	948	-8116	4492	-1252	-31316	-26556	-19392	10909	-1840	4069	-9992	2020	-20888	4773	-559	4769	-11428	-10212	21732	2370	-527	1094	125	119	1
-11384	-4100	14192	-899	16056	4220	-18884	5956	-1968	6161	16678	5517	-19568	-2112	2360	-8094	2205	-162	-28148	-6720	-18040	-15791	11246	-4601	-11896	2136	-20720	-7041	9234	5239	-16604	-1576	17768	5121	-3124	768	126	130	1
