#Activity	walking 
#ActivityID	1 
#Date 08-27-18-00
acc_rf_x	acc_rf_y	acc_rf_z	gyro_rf_x	gyro_rf_y	gyro_rf_z	acc_rs_x	acc_rs_y	acc_rs_z	gyro_rs_x	gyro_rs_y	gyro_rs_z	acc_rt_x	acc_rt_y	acc_rt_z	gyro_rt_x	gyro_rt_y	gyro_rt_z	acc_lf_x	acc_lf_y	acc_lf_z	gyro_lf_x	gyro_lf_y	gyro_lf_z	acc_ls_x	acc_ls_y	acc_ls_z	gyro_ls_x	gyro_ls_y	gyro_ls_z	acc_lt_x	acc_lt_y	acc_lt_z	gyro_lt_x	gyro_lt_y	gyro_lt_z	EMG_r	EMG_l	act
-4528	-5584	12296	-1089	-24869	-11253	-2600	660	-4736	-6401	-13538	-1793	-19880	10936	-3240	1091	-3127	-1380	-9640	6344	12304	-16	135	-9	-15864	6688	-5200	-410	576	-168	-17264	3488	280	1199	1847	37	127	111	1
-2996	-6712	9620	-2349	-32768	-15987	-7240	792	-3456	-3960	-21576	-2212	-16192	9672	-4080	369	-2454	-1016	-10000	6672	12040	-24	119	-21	-15232	4008	-4720	-675	683	-199	-17360	5176	-64	1086	1991	65	127	131	1
-4396	-6296	8524	-1231	-32768	-17142	-8448	2556	-1972	-1341	-27928	-5078	-14296	7640	-4696	-195	-1960	-970	-9880	6096	12256	-24	100	-54	-15944	2072	-4600	-544	603	-170	-16008	4776	808	670	2313	452	126	135	1
-5588	-4912	8760	-2851	-32768	-21481	-6632	4584	-4604	-44	-32768	-6591	-11456	5616	-6264	-403	-1516	-801	-9856	5912	12608	18	104	-60	-16344	-48	-5160	84	402	29	-15152	3312	464	347	2193	440	126	130	1
-6756	-5788	9172	-2941	-32768	-25793	-7480	4048	-3552	-391	-32768	-8464	-9320	3352	-7536	-260	-1159	-604	-9968	5624	12112	46	115	-71	-16088	1120	-5008	1015	267	263	-13704	-984	2360	543	1989	220	127	130	1
-11420	-6492	10872	-1834	-32768	-29105	-10120	3280	-5800	2575	-32768	-10096	-8824	3144	-7784	-175	-1129	-573	-9960	6136	11968	62	119	-77	-15504	4576	-4176	1361	351	319	-14912	32	1992	1209	2141	-238	126	126	1
-15976	-3460	13004	-3115	-32768	-31594	-13292	3324	-7820	5743	-32768	-8585	-3528	2784	-7760	1481	-895	-27	-10016	6216	11864	32	83	-88	-14288	7344	-3720	830	446	108	-15152	2712	544	1665	2319	88	124	127	1
-20664	-3792	13524	-5876	-32768	-30804	-14372	6476	-10048	5046	-32768	-7467	-1656	4432	-7040	2075	-904	272	-10144	5216	12336	8	86	-104	-14536	4544	-3824	122	571	-73	-15048	5736	536	1645	2481	239	122	122	1
-24996	-3116	14712	-6333	-32768	-29011	-17072	9160	-11772	-2864	-32768	-8564	-2608	4912	-4832	1879	-757	410	-9856	5744	12376	23	104	-89	-15824	2352	-3728	126	723	-126	-15408	6744	1376	1052	2553	254	120	125	1
-29104	-4072	14560	-6034	-32768	-25104	-21572	8072	-11632	-11919	-32768	-11051	-6424	5352	-1528	1449	-590	263	-9120	6768	12048	34	136	-67	-16240	3304	-3608	483	824	-130	-15248	6160	2008	434	2628	346	122	126	1
-32388	-4860	14176	-4643	-32768	-19463	-27964	3640	-15308	-12486	-32768	-14166	-9944	5200	2824	326	-555	-81	-9192	6016	12504	55	229	-146	-16440	4120	-3152	620	917	-79	-16376	4376	2752	285	2442	180	121	128	1
-32768	-8216	9980	-4116	-32768	-17797	-22568	756	-16020	-6728	-32768	-12438	-14008	4352	8312	-884	-486	-210	-9640	6088	12816	118	373	-266	-16776	4320	-2344	532	1207	-156	-17744	2208	1368	323	1816	-101	122	127	1
-32768	-9880	1884	4	-30401	-19620	-22284	336	-16124	-5465	-32768	-12141	-20288	4536	9280	-2146	52	-65	-9784	5712	13728	193	636	-390	-17040	3856	-1568	337	1542	-235	-18872	2416	2312	318	1333	-119	122	127	1
-32768	-6604	-5108	1900	-19559	-23897	-18780	-1160	-17436	12622	-28497	-7267	-18664	744	12496	-2534	834	421	-9576	6448	14040	197	967	-456	-17152	3496	-2536	162	1854	-327	-17864	3656	5256	216	1013	136	123	130	1
-32768	-1248	-8632	5511	-8255	-25137	-15696	-148	-17780	17157	-18852	-4628	-18312	-6360	14912	-2334	1017	790	-9904	7016	14488	83	1444	-652	-18624	4192	-5016	-49	2190	-402	-18576	2072	4856	539	882	228	121	128	1
-32768	500	-9108	6156	-6550	-24973	-10008	-416	-16760	15901	-7130	-589	-17328	-12952	14552	-833	677	454	-10096	7960	16096	-29	2048	-1002	-21840	3928	-4576	156	2421	-449	-19776	2496	2072	1076	875	66	122	131	1
-32768	11528	-12616	6413	7516	-7043	-8232	1056	-18284	15674	5063	2095	-18048	-12296	7864	1583	407	-598	-10520	9552	15872	31	2798	-1404	-22824	2992	-3072	659	2662	-412	-20760	5472	3872	1324	839	-93	126	130	1
-32768	4220	-13408	1207	16286	4988	-11432	3492	-14728	1075	15673	467	-21440	-3936	3160	2579	336	-1287	-10800	9656	16032	-21	2907	-1507	-23016	4416	-1888	1065	2993	-377	-20968	5560	8864	1030	359	-136	128	129	1
-13284	-21912	31640	1386	21871	16314	-25488	-536	21184	-15434	17828	-35	-19432	4048	1392	1303	386	-491	-11200	12480	18112	294	4556	-2879	-28384	7032	-2720	1240	3377	-376	-25224	6664	13320	681	-383	-129	131	131	1
-27856	696	13560	-3108	32767	14272	-32768	13524	-11592	7537	19945	-9869	-30904	1544	17248	-255	-1236	1060	-10304	12400	18480	296	4734	-3111	-30224	7952	-3016	1277	3412	-368	-29544	3584	21608	-995	-2769	69	129	133	1
-24312	-9492	14988	-1608	23984	10567	-23976	-2152	-8792	-6583	28428	1331	-16616	-2960	-7160	2488	169	1252	-19192	9408	15408	448	7178	-6015	-32768	3944	-152	2332	3512	255	-26368	-3736	6104	495	-1825	-214	119	123	1
-17436	-19932	8624	357	17448	8907	-10896	-13828	-7816	9716	22320	4371	-11416	6384	-14808	3232	1588	-959	-21792	3136	17352	1799	8261	-4969	-26416	4616	-1904	3676	3335	48	-21776	272	-8248	1082	-3169	-680	120	129	1
-14748	-7604	12120	4424	7163	8118	-15060	-4828	-11836	31129	13074	6424	-3080	8936	-10512	-74	1408	-1200	-32768	18520	19072	1628	7193	-4657	-27096	11360	-9936	4068	3225	-561	-25320	7032	-16656	2605	-3341	-103	123	129	1
-12812	-4188	13520	4280	2254	4104	-17528	7216	-11900	23595	8828	5490	-14392	7320	-11568	64	1887	-296	-4936	32767	32767	-1282	2957	-4347	-16992	11952	-21016	848	2774	75	-29728	1120	-11416	1100	-3680	560	123	138	1
-10880	-6432	12184	2408	1002	1299	-21704	8236	-7600	4609	8653	-1863	-20512	-3016	-11656	-551	1803	783	-576	19040	29096	-442	-1189	1260	-20896	360	1744	161	856	-515	-32768	4712	-4624	-100	-4522	414	113	133	1
-10208	-6536	11788	701	1080	52	-11556	5116	-7372	-13333	8778	-6167	-19304	-2408	-6232	1138	1372	1098	3904	16032	16056	-224	-674	1956	-14512	4192	1440	536	-426	110	-27888	5664	-4296	-510	-4211	616	116	133	1
-9672	-6912	11040	-157	1474	-136	-17300	-244	-4076	-20614	7719	-7921	-16920	5576	-2320	1413	1789	739	-3336	9672	17896	-392	-1732	2030	-2992	3448	-3856	-610	-1438	424	-23128	4440	-4544	-437	-3528	1222	115	124	1
-9648	-7380	10384	-371	1691	-278	-18728	-5760	-2024	-13417	6035	-5889	-14576	5904	-352	223	2097	551	-2840	6080	16352	130	-3354	2477	-3920	3048	-2240	-1545	-2383	901	-18752	1624	-4624	-349	-3183	1100	119	127	1
-9160	-7988	9984	350	1499	189	-15936	-5976	-932	-2184	4920	-1670	-15088	2952	-288	-599	2121	465	-4168	5448	13504	334	-4280	2461	-10144	1136	-2840	-2176	-3329	1197	-15464	192	-7176	-542	-2820	819	118	129	1
-9384	-7844	10260	1371	1481	577	-15932	-3468	-1676	5758	4248	1287	-14936	-536	-720	-1012	2131	507	-7272	6120	13208	615	-4858	2742	-11472	-1944	-5256	-2443	-4171	1059	-12336	384	-8664	-663	-2189	582	119	129	1
-9504	-6868	10460	1910	1361	482	-15624	-368	-2716	5435	4769	1977	-14376	-1464	-304	-1014	2249	571	-10504	8984	13864	599	-5223	3383	-12016	-4112	-6648	-1993	-4925	1115	-9000	800	-9464	-781	-1890	360	120	131	1
-9932	-7104	10676	1901	1060	327	-14924	1416	-2460	-814	6551	312	-16536	1832	-144	-1162	2306	393	-15008	8656	15608	352	-5318	4202	-14024	-2496	-6952	-1559	-5638	1166	-7576	3496	-9288	-1310	-1455	131	120	129	1
-9916	-6076	11072	1292	1120	131	-15672	1868	-2340	-7283	7718	-1799	-16120	4912	-344	-1655	2448	354	-18824	5920	18216	409	-5302	4676	-17672	-224	-8696	-1587	-6168	1152	-6360	4432	-8488	-2162	-1086	-96	122	131	1
-9712	-7280	10724	516	1475	152	-15456	-1844	-1484	-11695	8199	-2500	-15440	1824	-32	-1966	2639	468	-23704	1584	20304	951	-5421	4359	-20912	320	-10968	-1513	-6443	1145	-5168	3232	-7152	-3097	-905	-319	121	127	1
-9328	-7164	11132	395	1933	966	-17464	-4608	-1996	-7274	7727	-1285	-16040	-896	-296	-1714	2528	608	-29736	5728	20504	1409	-5493	3435	-23096	-1680	-12992	-947	-6460	1175	-6008	2008	-4520	-3499	-1195	-379	122	128	1
-10608	-8028	10704	309	2314	1442	-16684	-4484	-1692	-200	8164	1785	-15184	-3280	-4704	-1196	1630	821	-32768	7256	20032	1096	-5540	2862	-26352	-744	-15688	-403	-6260	1450	-8608	-2792	1432	-2311	-1194	-450	120	127	1
-9680	-7040	11008	187	3139	1979	-16112	-1960	-1704	4135	9076	3120	-15952	-3944	-9056	-331	1290	761	-32768	7080	16480	1212	-5089	3117	-24560	-520	-17080	67	-6095	1475	-9480	-8848	7208	-448	-1134	-70	123	121	1
-9656	-6416	11796	-696	4404	2183	-17104	652	-1832	3150	10364	3733	-20248	-880	-16	1179	1429	482	-32768	6304	9368	972	-4595	3035	-22528	5720	-19448	-11	-5336	1167	-11064	-7720	12968	1163	-1079	-219	123	131	1
-9296	-8328	12132	-1647	6546	3401	-18532	216	76	60	12788	2910	-21888	-80	4192	899	1154	380	-32768	2608	-2224	208	-3736	2482	-17208	6744	-20592	-1188	-4287	1007	-15784	-2560	16888	2919	-755	-22	121	133	1
-9744	-8480	12780	-2411	9299	5222	-18672	1060	288	-932	15092	1399	-19328	3024	3376	-12	711	338	-32768	-5280	-12144	-435	-2322	2169	-13880	2144	-25208	-2256	-2466	393	-18320	1280	21528	2597	-706	379	124	130	1
-10756	-6412	13868	-2096	13670	6770	-19688	1052	-2368	-1430	17881	1743	-18456	5776	4344	-580	938	268	-32768	-10256	-18184	-811	-531	1717	-10896	1456	-26712	-1859	-601	-34	-21400	9632	20552	808	-1030	724	123	125	1
-11268	-6884	14484	-967	20216	9209	-22200	-64	-3488	1594	19438	2368	-20776	8608	2272	-1032	916	254	-32768	-12560	-17016	-634	837	875	-6944	816	-26192	-1302	1181	-241	-15728	12072	13328	-178	-71	785	124	128	1
-10776	-8268	15188	-1469	27571	11850	-23604	532	-1960	4634	21490	2965	-23256	4872	152	-1498	797	391	-32768	-10072	-7704	-104	1591	-24	-5736	632	-24368	-692	2521	-172	-17840	7752	14968	-1232	319	334	123	144	1
-10396	-10092	15340	-2583	32767	14616	-23076	1696	908	3944	23107	920	-23368	3880	96	-1481	770	401	-22408	8432	-232	-1939	2608	-1507	-14384	888	-10096	303	2484	65	2608	6904	-18208	-483	2947	-164	124	123	1
-9316	-10464	13944	-3688	32767	19265	-23768	484	3288	-1304	24908	-303	-21616	-6712	5032	-859	272	131	9824	16640	30496	-639	2462	-1795	-32768	13032	23760	2528	1131	158	-1632	5152	-13368	2236	824	71	124	145	1
-7700	-9760	15140	-6040	32767	26259	-26572	-1524	3644	-5711	25446	-735	-25872	-6568	11808	-436	-429	-141	-32768	13528	24296	-722	3804	-1795	-32336	-9936	-20960	-527	2492	103	-32768	22448	32767	-5809	-3011	355	123	119	1
-19252	-15648	14268	-7714	32767	32767	-32768	-1612	10388	-18606	28839	2736	-24648	-8192	12408	-1283	-3579	-956	-23920	13528	13392	-1321	2785	-1280	-15584	4312	-7728	118	3494	-1288	-26896	-8408	-19912	-5663	2702	966	123	137	1
-32768	-8708	13092	-11047	32767	32767	-23044	-2800	-4408	-14489	29714	-6719	-18520	4704	-2224	-1688	-2627	-659	-17208	4232	14840	-417	1470	-1087	-5816	10176	-10568	-1890	2636	-717	-15848	-22216	-5936	-462	1495	1032	140	127	1
-32768	-18588	18108	-19913	32767	21757	-21184	-1992	-8228	-13353	31404	-5644	-20424	1408	-18888	-521	-2599	-869	-11792	-1904	14472	-567	403	-559	-14800	1008	-13512	-4093	1573	-182	-3984	-5600	-5368	2028	1309	935	123	108	1
-22140	-26404	19608	-10670	32767	22599	-28940	-5316	-13900	-8591	25287	6487	-26560	1512	-14144	-173	-2400	-1998	-9680	-648	14384	-538	477	-518	-26736	-9032	-10400	-1292	1427	-90	-11528	10320	-6112	2350	1724	306	123	127	1
-32768	-20752	29908	3204	-1920	6338	-19532	-688	-10228	3147	15900	9048	-29944	5304	-9640	1340	-2997	-1946	-10008	6112	13208	-161	237	-17	-14024	-1864	-7112	1365	1214	296	-20488	18624	-6904	340	1420	214	121	128	1
1000	-15244	16160	5114	-9332	-822	-15808	-3472	828	2153	4153	11317	-27552	6032	-8936	2119	-3535	-1328	-9952	7856	11800	-102	214	-41	-16736	6488	-6328	2455	863	626	-20576	8232	-1648	-1407	1765	416	123	114	1
-4080	-10208	13108	7187	-12192	-2137	-10012	-220	-3944	8984	-5298	7552	-23952	7800	-7816	1670	-3761	-1520	-9864	7360	11920	-104	169	-83	-16720	9576	-4936	1793	725	325	-22776	-944	1656	-140	2134	405	122	127	1
-5688	-8936	13728	7839	-24339	-8292	-5228	1240	-7180	7000	-14173	5776	-21544	9416	-4016	934	-3328	-1612	-9720	6344	12344	-118	173	-87	-15336	7184	-4768	375	506	168	-15232	-816	344	920	2067	156	120	139	1
-5092	-6972	11364	5806	-32768	-12963	-6032	452	-4944	4612	-22058	4513	-18648	8400	-4488	752	-2697	-1408	-9896	5688	12648	-95	193	-50	-16760	4392	-5032	-486	396	-52	-11728	5304	736	840	1980	-85	120	133	1
-4928	-6648	10436	5138	-32768	-13475	-8684	2116	-4352	2618	-28531	2308	-15632	7040	-5712	768	-2135	-1224	-9880	5648	12376	-17	204	-16	-16568	2376	-4224	-413	560	-89	-12568	5592	856	624	2213	-81	121	125	1
-6252	-8308	6232	-741	-32768	-17219	-7152	4220	-5860	-2924	-32281	2	-12080	6376	-6656	593	-1686	-1002	-10032	6824	11648	2	182	-28	-14824	4368	-3512	94	607	-107	-14504	1408	56	606	2179	148	121	123	1
-5916	-8000	6676	-766	-32768	-17615	-6548	3844	-5620	-7416	-32768	-4283	-8920	5824	-7688	376	-1338	-771	-10168	6568	11696	8	130	-71	-14720	3696	-3656	504	462	18	-18000	-368	328	966	2255	324	121	127	1
-12196	-8964	8324	-1667	-32768	-25811	-8760	2900	-7048	-8664	-32768	-7512	-6536	4768	-8384	376	-1116	-487	-9840	6216	11864	4	91	-96	-16032	2488	-3592	1055	397	154	-17496	304	1256	1634	2406	666	121	130	1
-14512	-8048	10528	-1602	-32768	-30439	-12816	1852	-7824	-6399	-32768	-9487	-4912	3936	-8504	761	-925	-100	-9984	5896	12384	24	91	-110	-16040	3776	-2816	1352	468	185	-14352	2256	2360	2014	2502	568	123	127	1
-20400	-6684	11728	-4013	-32768	-31280	-16092	1200	-8800	-2701	-32768	-9211	-3144	4136	-7856	1338	-867	312	-9664	6624	12112	32	125	-135	-16096	6328	-2248	1159	563	114	-13560	6728	3776	1820	2523	104	123	129	1
-24696	-5484	14048	-6472	-32768	-28608	-17904	3236	-10808	-1938	-32768	-8909	-2936	4760	-5976	1771	-989	520	-9480	7200	11808	6	159	-192	-15536	6848	-2096	541	751	-88	-15184	9400	2808	1578	2496	-88	123	121	1
-28388	-9304	14688	-7092	-32768	-25230	-22136	5324	-11336	-4377	-32768	-11006	-5016	4472	-4392	1774	-832	420	-10272	6760	11792	-20	190	-262	-15216	5224	-2112	255	919	-180	-17520	6736	-176	1464	2173	62	123	128	1
-31548	-11036	16176	-4891	-32768	-24515	-25536	4444	-13436	-5875	-32768	-14012	-8248	5240	-648	944	-531	82	-10008	6528	12536	-14	256	-382	-16400	3616	-2912	238	1089	-177	-16376	1584	-1976	926	1665	350	122	127	1
-32768	-11500	14900	-4488	-32768	-25170	-32768	1540	-15236	-4215	-32768	-15249	-12224	6224	5096	-162	-399	-126	-9424	5896	12864	41	414	-468	-16968	2104	-2704	541	1238	-124	-15728	704	1160	115	1446	338	122	129	1
-32768	-11984	8524	-2729	-32132	-26424	-25280	-1760	-15568	2648	-32768	-13577	-20040	3712	8152	-726	-298	-6	-9760	5504	13704	153	686	-501	-17456	2544	-3008	590	1521	-129	-18720	4128	3256	311	1308	71	124	129	1
-32768	-7872	-456	1022	-23944	-26663	-21420	-12	-17344	12891	-32768	-10217	-23760	824	12544	-1082	104	210	-9784	5568	13424	212	1070	-499	-18824	3360	-3704	496	1736	-191	-17784	3248	3336	896	1142	-11	123	129	1
-32768	14344	-6356	1656	-11760	-27678	-14304	4948	-19492	10094	-24665	-4684	-20416	-7104	22272	-1959	510	272	-10536	6704	13768	187	1597	-574	-18744	5408	-3608	280	1991	-327	-18048	3448	2792	867	1144	60	124	127	1
-32768	16772	-20484	7259	-3298	-10425	-6788	-2124	-22000	8272	-6301	-777	-18800	-11408	23368	-1587	75	-613	-11312	9432	13944	185	2201	-934	-20456	5304	-3936	20	2279	-390	-20592	5072	544	703	974	24	124	129	1
-32768	12648	-18716	-3817	4615	6876	-6652	5360	-23372	1687	11455	3177	-21272	-7336	10592	190	-297	-1165	-11504	6536	14680	148	2871	-1395	-22544	2064	-4296	271	2489	-304	-21184	7920	1176	607	839	-99	123	127	1
-16308	-2932	2020	1473	14262	11637	-11824	-68	-16796	-10646	21300	-1021	-18128	-112	3256	893	31	-636	-11408	7032	14456	341	3657	-1827	-23792	3216	-2536	781	2720	-351	-21400	6880	4688	562	610	-121	124	130	1
-20992	-11932	25740	867	26488	12453	-26884	-4640	10516	-10238	21780	1755	-16168	7512	-1800	-492	822	68	-10824	8584	15368	519	4646	-2550	-25952	5512	-288	1142	2885	-288	-23240	3808	9728	460	262	-154	124	134	1
-16520	9604	15788	-3444	31535	12953	-32768	12668	-6092	14364	20252	-4658	-21928	4696	2568	-1314	-39	381	-11456	12256	16448	694	5792	-3687	-31008	8776	4040	1618	3092	-266	-28104	4320	15208	317	-561	-147	124	134	1
-21816	-4232	18708	-7215	25281	10559	-23320	4700	-7120	1600	27382	5219	-18216	-21168	-4248	1447	283	1036	-18304	13088	18656	908	7152	-5157	-32768	4944	9408	2458	3218	-51	-19760	-8064	8160	-727	-2220	-162	124	130	1
-15508	-22148	7540	-3341	22980	7257	-15352	-9484	-6600	6910	23537	8662	-13520	2856	-5168	4300	487	-435	-32768	5120	13816	1723	7513	-4694	-25896	2688	-7344	2617	3358	150	-25000	-7376	9616	307	-2218	-274	124	126	1
-32768	-3056	18752	6308	2755	11531	-17256	-10112	-19548	31347	15806	4174	-11864	14520	-9960	2552	681	-1007	-32768	22360	14608	2645	7599	-3754	-29760	7264	-3360	3436	3260	-566	-21400	4144	-9360	2295	-3362	-570	128	131	1
-20248	2016	14536	6118	1667	9384	-18028	8184	-13724	30778	10897	5852	-15288	9712	-8832	326	1749	-216	-32768	32767	25584	1654	5751	-4232	-24272	13632	-10928	2583	3088	-237	-26696	8640	-18416	3375	-3381	116	143	132	1
-10544	-7676	11656	2076	845	1358	-20252	10924	-8156	4761	12168	198	-17192	2768	-9992	-368	1913	506	-32768	32767	28232	-2621	1483	-4169	-16280	7488	-15880	-152	1986	366	-29448	4728	-11544	831	-4105	573	119	134	1
-9956	-8304	10544	1262	812	485	-12180	4532	-7560	-15823	12612	-6095	-16296	-2248	-7152	-330	1721	803	2832	16208	23256	160	-2081	1518	-21136	1112	-896	-214	957	-722	-30960	8240	-6336	-860	-4364	344	118	134	1
-9392	-7764	10496	1299	826	463	-16080	-460	-5112	-22498	10309	-8590	-17576	1328	-3728	764	1698	482	-2888	17000	15936	133	-2205	1961	-13120	3120	-3072	365	-323	-62	-27184	7144	-3968	-1575	-3907	1064	119	130	1
-9376	-7680	10768	1370	1246	395	-18676	-5168	-3152	-13292	7513	-5738	-15400	5216	-1576	324	1788	335	-6144	9016	16224	-439	-3552	2327	-4600	2600	-5808	-697	-1567	310	-24288	1720	-4216	-1400	-3705	1339	120	125	1
-9100	-8164	10196	1782	1460	774	-16844	-5952	-2328	571	6024	-606	-16368	3968	-1200	-539	1837	670	-3456	6064	13264	-16	-4563	2996	-7616	3288	-2496	-1306	-2544	662	-20520	-1000	-5128	-1085	-3338	901	120	126	1
-9144	-7788	10244	2640	1498	826	-16748	-2772	-3556	9565	4446	1998	-14992	-360	-1352	-858	1939	849	-5200	6680	11136	92	-5084	2995	-11936	576	-4720	-1840	-3506	952	-17168	-88	-6632	-1005	-2878	668	122	131	1
-9364	-7656	10560	2717	1809	703	-15860	-220	-3880	9742	4217	2525	-13528	-1408	-1624	-790	2287	654	-9456	6000	12368	321	-5358	3224	-10880	-1032	-6272	-2181	-4280	962	-13728	1328	-8128	-1103	-2353	294	123	131	1
-9180	-7936	10196	2516	1561	409	-15164	1456	-3028	2529	5613	398	-15920	1000	-1280	-850	2459	377	-11080	5976	12976	407	-5419	3736	-13240	-3416	-6632	-2048	-5101	892	-10672	2328	-7784	-1105	-2105	146	122	132	1
-9408	-6772	10848	1789	1277	257	-15580	2908	-3376	-5553	6727	-2047	-16648	3680	-832	-1036	2614	440	-15296	4104	15296	515	-5316	3932	-15344	-3896	-8760	-1622	-5682	1019	-7984	4408	-8120	-1807	-1785	74	123	130	1
-9172	-7592	10572	1081	1288	257	-15780	-372	-2156	-11308	7562	-3204	-15936	2728	-240	-1502	2781	634	-21928	456	18768	1048	-5517	3653	-17320	-2776	-9976	-1083	-6000	978	-6152	3440	-7888	-2975	-1506	-95	127	130	1
-8812	-7540	10668	660	1371	1001	-17508	-4660	-1380	-7821	7074	-1973	-15704	-1648	1072	-1677	2791	674	-23640	1416	16960	1461	-5828	2908	-19528	-3512	-11024	-355	-6215	1126	-5056	2240	-6360	-3137	-1531	-306	124	128	1
-9044	-8020	10240	303	2057	1566	-16644	-4080	-1240	64	7277	1455	-16160	-4328	-816	-1742	2592	906	-25464	6088	15064	1224	-5419	2529	-21304	-5672	-13552	395	-6262	1599	-5504	-1744	-2552	-2359	-1561	-424	123	127	1
-9520	-8536	10788	155	2375	2009	-15852	-1980	-1676	4812	8053	3073	-16104	-2008	-5408	-836	1609	970	-31176	6784	14400	783	-4581	2968	-21752	-1328	-17008	779	-5947	1871	-6552	-7512	1880	-714	-1367	-465	122	128	1
-9876	-8608	11116	-3	3444	2442	-16708	92	-2528	4418	8965	3007	-17576	888	-3280	721	1401	742	-32768	5880	12616	530	-4245	3524	-18192	6640	-19752	-201	-5431	1386	-7424	-8496	8632	797	-1360	-400	123	123	1
-10312	-9160	11636	-296	5064	3155	-17308	900	-1676	791	10937	2233	-17832	1136	-2448	868	1418	689	-32768	3088	3224	-226	-3985	3471	-14248	9472	-21440	-2842	-4765	817	-11056	-2056	13208	2291	-1193	-208	123	129	1
-9840	-7792	12840	-533	7526	4507	-17976	2408	-1060	-2034	13382	765	-21224	2136	3408	275	1070	319	-32768	-4584	-7416	-1161	-3094	2887	-15792	-64	-26392	-4519	-3523	53	-12656	2408	10808	2787	-367	252	124	129	1
-9856	-7296	14440	-924	11046	6311	-20500	1416	-1228	-3141	15936	435	-19808	5200	5120	-311	959	251	-32768	-7832	-15176	-1519	-1694	2277	-16232	-2944	-29792	-2873	-1737	-513	-17472	9160	11648	1541	146	900	122	124	1
-10140	-8164	14948	-427	16625	8218	-22136	-1116	-1980	499	18544	1883	-21320	6952	3888	-1088	991	214	-32768	-12192	-20560	-1379	-335	1273	-15104	-2064	-30160	-2463	-1417	-561	-16544	15144	15088	9	-305	1274	122	133	1
-10396	-9068	15392	-261	23911	11410	-23728	-240	-1856	5473	20514	2928	-22904	5112	2040	-1451	967	217	-32768	-11864	-16272	-202	727	-63	-3976	3840	-27864	-175	1306	48	-20504	11128	15832	-1881	-38	407	124	131	1
-10620	-9196	14524	979	31201	15057	-23096	1316	-576	5893	22703	1239	-22592	-3840	120	-1473	728	412	-31744	-1208	-8096	540	955	-1057	-6728	600	-24096	368	2558	138	-1608	-400	-8752	-2646	2659	-1441	122	129	1
-10944	-7836	15680	117	32767	18975	-22936	44	2380	3792	23986	161	-21744	-9504	2720	-792	389	400	576	7000	24400	-1109	2216	-1553	-7088	-240	-23416	464	2590	169	-840	-3016	-16808	1400	2669	-733	122	125	1
-10392	-11340	13660	-1427	32767	25544	-24540	-1776	3540	-403	25428	28	-22000	-6560	7744	-60	-311	50	-32768	-6376	23136	-455	4670	-2844	-32768	-9952	-20896	-1181	2361	1175	-32768	7704	32767	-2311	-2682	-169	123	121	1
-17460	-11732	18428	-801	32767	32767	-29164	-3248	3832	-8807	25327	-353	-29088	-5552	18120	257	-2507	-367	-14376	4752	18400	-585	2563	-1549	-27600	3320	-3352	326	3411	-1028	-29192	18488	-11040	-3011	3772	907	123	129	1
-27544	-21972	12736	283	32767	32767	-28876	-4712	2288	-11425	29702	-1357	-18432	2416	832	-805	-2652	-920	-14328	6504	13056	-608	2492	-1009	-4432	12552	-8416	-372	3058	-1209	-24952	-14360	192	-468	2175	1371	122	117	1
-28808	2724	18928	-10282	32767	32767	-21136	908	-9640	-13938	31102	-1480	-18472	6968	-9488	-181	-2621	-568	-17904	5688	13432	-526	1082	-1025	-7800	9984	-14272	-4063	2112	-124	-7272	-14016	-1016	1655	1395	1645	121	101	1
-32768	-3476	18580	-12332	32767	30104	-26688	-1204	-11636	-18876	31101	6183	-21064	3632	-17112	-449	-2404	-1309	-16000	3872	13968	-178	605	-358	-28120	-6672	-14264	-3718	1445	-579	-7536	8992	-6056	3123	746	169	124	131	1
32767	-16696	23812	-6223	24939	20703	-22292	-4668	-12372	-14455	24251	2236	-28480	6848	-10016	-60	-2401	-2087	-11208	3584	13184	-89	316	-140	-30880	-9688	-13240	-3096	1460	-596	-17608	21240	-8128	1023	1621	-353	123	135	1
-2072	-25560	21480	-4875	-7249	-5502	-19428	-396	-4320	-6417	10744	8594	-29224	6576	-9528	1048	-3089	-1510	-10624	6184	11992	66	227	-47	-12536	920	-7536	2671	1019	638	-22424	11304	-4760	-2153	1890	163	123	133	1
-1700	-10604	14220	3792	-4017	-3930	-12356	-4404	1508	-3087	2086	3074	-24568	7472	-7984	1344	-3553	-1261	-10616	6568	12176	23	152	-66	-18920	9304	-6272	2249	907	599	-24216	-3392	-712	-1400	2183	404	123	124	1
-6232	-7732	13936	2172	-13383	-10209	-6432	1040	-7276	4288	-6967	1694	-21880	7600	-4880	733	-3346	-1532	-10536	5536	12304	21	148	-69	-15272	8040	-5672	788	596	181	-17072	-3672	-728	542	2136	87	122	138	1
-2952	-6604	13128	320	-25150	-14401	-2348	-412	-4476	-852	-16306	-193	-19328	9200	-3304	366	-2819	-1614	-10152	5560	12272	-23	186	-14	-16528	4416	-5744	-175	436	54	-12720	4216	632	803	2121	-132	125	140	1
-4124	-5432	9960	-2185	-32768	-16225	-7764	212	-3916	2816	-22805	-1546	-16512	9152	-5216	181	-2226	-1327	-10232	5976	12264	-44	223	22	-17424	2824	-5160	-545	402	-46	-12896	5512	672	749	2105	-129	122	127	1
-4660	-6992	8260	-1489	-32768	-16322	-8308	3156	-3568	3182	-28585	-3788	-13784	8208	-5688	-98	-1824	-1195	-10648	6152	11928	5	211	25	-15904	2512	-3984	-233	621	-54	-13408	1408	400	-56	2422	122	122	123	1
-6120	-5520	8616	-1668	-32768	-19328	-6772	5404	-4824	683	-32768	-6151	-10640	6912	-6320	-436	-1454	-1074	-10480	6352	11656	25	161	15	-14040	3312	-3088	355	557	-56	-17616	-2344	448	299	2360	61	123	126	1
-8112	-6208	9216	-3040	-32768	-24732	-7560	5304	-4484	-1772	-32768	-8628	-8288	4664	-7696	-580	-1037	-846	-10192	5976	11328	26	121	-25	-15600	2872	-3256	789	447	91	-18208	-1456	1880	1064	2376	564	122	137	1
-12484	-7608	12020	-1940	-32768	-29946	-10588	3708	-6568	-1053	-32768	-10846	-6024	3296	-8016	-96	-818	-516	-9888	5696	11704	79	104	-28	-16600	1864	-3200	1397	447	227	-15440	-392	2832	2036	2530	591	123	125	1
-16272	-4220	13892	-2105	-32768	-32768	-14040	3728	-7492	950	-32768	-10172	-3752	1888	-8336	797	-692	1	-10152	5776	11832	81	108	-31	-15976	6000	-2616	1390	586	154	-13752	4688	3024	2541	2548	242	122	128	1
-20744	-4064	15100	-5003	-32768	-32233	-16028	5252	-9440	1701	-32768	-9507	-2328	3360	-7368	1821	-736	457	-10104	6232	11872	47	95	-148	-14688	7040	-2440	566	779	-22	-13920	9432	2296	2317	2685	-36	123	127	1
-26616	-2160	18452	-7753	-32768	-29476	-19092	7716	-11768	-3613	-32768	-9561	-2704	3768	-4864	2250	-790	624	-10344	6128	11584	25	118	-173	-15120	4368	-3320	258	896	-218	-14840	8392	136	1563	2503	-26	124	121	1
-27964	-2096	18352	-8387	-32768	-28780	-24128	7520	-10724	-11093	-32768	-10863	-5008	2904	-2232	1981	-646	342	-10248	6032	12040	39	165	-187	-15696	3528	-2784	311	1123	-231	-16688	5496	1264	633	2308	188	123	129	1
-31916	-6336	16296	-6188	-32768	-17915	-25092	5340	-12804	-12217	-32768	-13702	-10904	4480	3768	915	-561	-27	-9824	7064	12408	95	262	-263	-17184	3736	-2208	334	1310	-246	-16968	1504	1448	-88	1851	365	123	129	1
-32768	-9328	11712	-4632	-32768	-16993	-24800	2052	-14880	-8427	-32768	-13576	-16048	3712	11688	-138	-806	-210	-10024	6336	13176	224	507	-395	-17688	2752	-2936	339	1557	-261	-17768	792	688	-245	1456	131	124	130	1
-32768	-8760	1968	-1894	-29522	-20842	-21164	-992	-15472	2708	-32768	-11629	-23448	2232	11248	-922	-356	-55	-10296	6624	13912	273	877	-462	-18104	1720	-3520	449	1785	-277	-18192	3552	728	533	1244	-97	122	127	1
-32768	-4412	-4556	770	-16563	-25096	-17528	-1380	-17696	14059	-27157	-6715	-21360	968	15232	-1636	191	489	-10504	6448	14712	252	1359	-582	-18960	2744	-4784	314	1973	-322	-17720	4112	2400	701	1234	-75	123	128	1
-32768	6072	-9392	7941	-5794	-24847	-16664	-852	-17592	15762	-25338	-5724	-16688	-3680	17752	-2052	489	679	-11240	7296	14344	222	2017	-723	-20488	4792	-5544	143	2253	-469	-19280	2504	2512	469	1178	-30	123	132	1
-32768	7608	-10864	9083	-3835	-23672	-7604	444	-21716	18169	-2006	2706	-17008	-7384	15784	-1402	303	-26	-10728	9352	15888	107	2732	-1175	-22664	4576	-2056	150	2547	-559	-22200	3552	4472	456	1069	39	124	125	1
-32768	9140	-14356	-1260	7646	883	-7644	5240	-22836	5358	13207	2900	-19760	-9152	6120	457	96	-1061	-11056	9256	14912	218	3542	-1713	-23440	4400	-1440	535	2893	-557	-21832	6096	7736	647	690	3	123	133	1
-32768	-7092	-18272	715	20825	7725	-10384	-1256	-16688	-7639	21921	-1454	-18320	-1936	880	1601	461	-1050	-10328	10056	15200	341	4463	-2587	-24904	4816	216	923	3263	-535	-22200	6856	12496	893	228	-121	123	132	1
1276	-32768	31152	6512	24531	15312	-32768	-7400	28916	-8692	17170	-1031	-18336	3744	5152	-685	23	-479	-11376	15440	18472	547	5632	-3777	-32768	8688	4344	1641	3488	-373	-28488	9064	18392	587	-816	-144	122	129	1
-32768	-3776	19636	2150	32767	13189	-32768	9608	-12928	13901	22448	-6345	-32240	-5408	-888	-491	242	1303	-18256	16656	18632	506	7154	-5537	-32768	6000	9720	2474	3626	-188	-22256	-6072	3504	-647	-1651	-355	123	129	1
-21260	-13868	11140	-1595	26901	13506	-16544	-1104	-9760	-139	28908	8500	-15640	-2536	-6144	2982	206	627	-27264	-3592	18320	895	7978	-5566	-27168	4392	-7544	2265	3617	-13	-28328	-5704	6888	-264	-2635	-643	121	126	1
-16664	-5776	9340	6726	6854	11673	-16512	-15472	-13476	11525	22247	1267	-11704	7568	-18424	3209	979	-1061	-32768	23936	20184	1936	7655	-4150	-32008	10064	-3760	3422	3546	-1021	-22416	7400	-14720	2466	-3377	-458	122	132	1
-14364	-8396	11772	5358	2276	4989	-16172	6092	-15444	32526	11688	5967	-10032	9288	-8952	678	1919	-889	-32768	32767	28656	-314	5081	-5058	-21664	14736	-17192	1481	3290	-240	-29008	6752	-16008	2178	-3375	431	125	134	1
-11708	-6656	12000	2745	1867	1129	-19788	9388	-10772	12768	10848	3254	-14960	7904	-11984	273	2044	340	-32768	23120	32767	-1155	164	-1529	-15560	-1912	-11936	-1621	1682	-179	-30656	4672	-14896	1597	-3563	516	127	134	1
-9588	-6884	11428	1110	1894	-68	-14616	5736	-8104	-5598	10440	-4715	-17984	-568	-8872	-129	1612	1414	9280	28120	18536	490	-1603	2129	-25904	5792	5184	791	433	-666	-32200	6424	-6088	-1220	-4628	365	123	132	1
-9452	-7220	10992	754	1964	-8	-13984	-748	-5952	-18620	9763	-7771	-19024	-3064	-5112	697	1763	939	-3024	14792	16656	-925	-2166	1684	-6312	3688	-5832	41	-1083	265	-26328	5208	-3568	-1244	-4064	1135	121	127	1
-9364	-6772	11068	692	2012	188	-19340	-5040	-3220	-13901	7478	-6162	-16496	3240	-2560	865	2098	300	-3432	4200	16592	-340	-3790	2462	-2360	2256	-3896	-921	-2189	293	-22008	2184	-4896	-576	-3600	1287	120	124	1
-9488	-7328	10636	1121	2047	268	-17708	-6892	-2120	-897	6182	-2170	-16656	3896	-976	26	2321	400	-2224	6856	11480	59	-4789	2510	-7736	3928	-2592	-1378	-3129	707	-18376	904	-6984	-571	-3176	1002	121	129	1
-9408	-7372	10736	1514	2050	402	-15988	-4056	-2072	7531	5465	1688	-15896	1888	-1192	-714	2336	743	-5704	5416	10608	229	-5283	2281	-9720	1352	-4448	-1832	-4119	1002	-14304	552	-10184	-741	-2646	681	121	129	1
-9556	-7844	10700	1317	1864	420	-15616	-1124	-3284	8050	5552	1975	-13320	-488	-976	-883	2556	721	-8136	9312	10920	559	-5539	2851	-10120	-1976	-6104	-2033	-4765	875	-10392	784	-11168	-781	-2131	474	120	131	1
-10076	-6360	11100	603	1683	456	-15212	2612	-3844	2744	6168	299	-13744	2104	-1000	-957	2562	382	-10912	9904	11896	506	-5469	3706	-11256	-2792	-7080	-1614	-5570	1040	-6904	2536	-10912	-1006	-1711	308	121	129	1
-9844	-6068	11100	-267	1901	348	-16380	1872	-3372	-5491	7116	-1759	-17112	5832	-128	-1333	2809	370	-16384	9216	15392	567	-5335	4480	-13424	-368	-8776	-1348	-6262	1140	-5464	3344	-10696	-1581	-1209	84	122	131	1
-9696	-7228	10864	-722	2136	572	-16268	-1476	-2548	-8207	7240	-2616	-16136	4264	848	-2037	3025	503	-23864	4648	19888	970	-5626	4681	-17552	416	-11128	-1409	-6641	1293	-3456	2584	-10792	-2469	-862	-137	122	129	1
-10068	-7916	10512	-584	2703	864	-16416	-3580	-2212	-7327	7853	-1416	-14872	224	-1432	-2298	2534	375	-26688	5800	19120	1531	-5807	4097	-21816	-272	-11920	-1015	-6800	1408	-2512	1792	-10176	-3230	-876	-404	122	124	1
-9560	-8192	10912	-609	3002	1839	-16216	-3684	-1460	-3164	8726	587	-15144	-3696	-6920	-1575	1609	482	-30928	9024	19960	1105	-5606	3468	-25024	-760	-15368	-754	-6804	1715	-5320	-200	-5376	-2694	-1071	-532	124	131	1
-10012	-6948	11172	-920	3341	2362	-16080	-1120	-2352	-782	9778	1823	-17312	-4904	-3928	-341	1578	607	-32768	7168	19192	1113	-5284	3632	-24888	-968	-20840	-597	-6643	1766	-8856	-3696	2040	-1217	-1143	-427	122	125	1
-9832	-7784	11324	-2229	4383	3479	-18108	-744	-2136	-922	11028	1927	-20584	-1112	1512	153	1403	304	-32768	6048	10568	836	-5009	3613	-22856	5336	-22712	-526	-5933	1236	-10888	-4496	8456	60	-1153	7	123	126	1
-9980	-6672	12880	-1406	7946	5479	-19256	1476	-1932	-2237	13219	665	-21312	2432	3248	-184	1061	222	-32768	2360	-3120	174	-4054	3242	-19576	5536	-24576	-1999	-4710	966	-15048	-3560	18104	1588	-705	292	124	136	1
-9992	-5796	14400	-1550	12367	6592	-20044	2196	-960	-3309	16504	7	-20160	2776	5184	-469	1053	300	-32768	-6112	-17160	-560	-2183	2993	-15792	616	-29208	-2487	-2629	341	-22656	-1808	26616	1596	128	747	123	127	1
-10168	-6732	14756	-1603	18401	7479	-20084	2188	-824	-3433	17043	59	-20576	3880	4752	-832	961	190	-32768	-7136	-19272	-685	-1829	2921	-6176	1776	-31576	-2046	-402	-194	-22288	8416	25200	613	-835	886	121	146	1
-10720	-7108	14616	-1703	25135	9485	-21628	-720	-1120	3438	22642	1592	-21600	3552	5976	-1119	964	146	-32768	-16296	-21304	-370	1091	801	-4320	848	-29488	-1384	1758	-353	-16112	10072	14016	141	324	148	123	128	1
-10876	-9224	13860	-1190	32126	12342	-22340	-1164	-268	6236	25368	1556	-21472	-3048	2112	-1799	620	252	-32768	-9208	-8152	39	1903	-536	-7544	-456	-23832	-273	3051	-164	-7104	3520	28544	-1251	-422	-238	125	112	1
-13296	-10376	14760	-4282	32767	16401	-24052	-616	1808	4067	27143	-888	-20864	-6352	5456	-1087	146	105	6224	30408	32767	-1410	2353	-1433	-32768	7736	32767	3846	1474	-35	5896	5904	-28848	2074	2839	-26	123	119	1
-9460	-11768	15880	-5524	32767	24406	-28596	-1544	1772	-2644	29121	-3666	-26392	-4512	21296	-70	-1425	-176	-32768	-5080	26704	-610	5206	-4412	-31712	-8072	-26392	-887	2963	1135	-32768	19096	32767	-1984	-2489	1079	122	108	1
-16164	-16288	20656	-10376	32767	32767	-32768	-1352	11656	-15831	30005	-2488	-24672	-2152	8008	-248	-2279	-767	-12720	3136	16960	-1130	3149	-1541	-26752	4912	-6176	99	3730	-999	-25736	13952	-17312	-3627	3056	-180	121	148	1
-32768	-14992	17496	-15356	32767	32767	-27460	-1908	340	-24733	28411	-11944	-23568	5368	-7536	-1615	-2849	-552	-22776	3936	15288	-808	1953	-1572	-5448	13616	-13840	-1441	3390	-1114	-20160	-14224	-5456	-1540	1112	635	121	138	1
-32768	-11172	20048	-23027	32767	24200	-23472	-328	-11244	-25890	32767	5353	-19480	2320	-18896	-1235	-2287	-740	-20752	4592	16232	-671	1696	-1537	-9304	2240	-16208	-4601	1821	-317	-8728	-13984	-5784	1005	1422	1349	120	111	1
-29200	-28276	19672	-20273	30524	20885	-24696	-1432	-12548	-26880	32767	5572	-28728	4376	-10224	-338	-2708	-2058	-13896	6104	13400	-386	349	-330	-32256	-12264	-13856	-1751	1568	-165	-7656	6672	-8696	2655	1447	179	121	135	1
-32768	-23688	32767	-8188	-11647	1405	-21328	720	-7188	-8415	14407	6070	-32416	5216	-11784	900	-3317	-1923	-10528	5712	13400	-199	199	-114	-14848	-2656	-8720	2022	1476	309	-23656	20136	-8504	1215	1412	-121	123	130	1
6288	-19708	13184	-1299	-11833	-2016	-15700	-7580	4048	-6289	3354	7436	-29384	7536	-8040	1457	-3815	-1509	-9776	7576	12008	-92	205	-73	-16016	6104	-6040	2814	877	678	-21152	9792	-4240	-1280	1758	313	122	131	1
-1348	-10388	12784	3655	-15301	-4401	-8080	-108	-5084	6404	-7585	1497	-24584	8864	-5048	1320	-3780	-1612	-9632	7568	12216	-101	203	-95	-17616	9648	-5384	1764	805	384	-21856	-712	184	-594	2237	474	122	122	1
-3056	-7004	14132	-84	-26021	-12498	-3300	3180	-5568	3821	-16679	666	-20960	10128	-3616	485	-3152	-1625	-9592	6448	12088	-149	217	-107	-15104	7752	-5256	134	588	93	-16216	-2496	-872	906	2239	262	123	140	1
-2712	-5440	10984	-3701	-32768	-17167	-6904	2404	-3692	2039	-25371	-1497	-17416	10424	-5072	166	-2540	-1245	-10216	5656	12776	-171	250	-80	-16424	3624	-5056	-773	408	-98	-12016	3656	744	630	2050	-138	123	133	1
-3080	-4872	9184	-4190	-32768	-18012	-8060	5752	-3232	-464	-30796	-5421	-14488	9504	-5896	-279	-2115	-1070	-9912	5888	12480	-23	257	-31	-17472	584	-4008	-465	552	-109	-12592	5696	1528	243	2393	-155	123	129	1
-6004	-5704	10196	-4772	-32768	-20730	-6192	6860	-4420	-4945	-32768	-9259	-10728	7576	-6744	-615	-1726	-906	-9776	7040	11504	53	252	-17	-15096	2776	-2960	451	654	-38	-14392	2192	672	89	2344	26	123	124	1
-9052	-5648	12308	-4399	-32768	-26569	-8300	4792	-5380	-6390	-32768	-11485	-7616	5152	-8504	-808	-1176	-665	-9648	7456	11208	18	186	-92	-14200	5152	-2704	840	535	90	-17512	-176	664	560	2289	202	123	126	1
-13096	-6468	13524	-3246	-32768	-30730	-11468	3560	-5476	-2632	-32768	-12441	-7240	4664	-9816	-757	-1125	-600	-9840	6808	11704	-26	146	-187	-16336	4600	-3648	764	483	205	-18048	-176	1320	1430	2424	566	124	130	1
-17216	-3508	16296	-3337	-32768	-32248	-14708	4000	-9632	1383	-32768	-11139	-2720	744	-8640	307	-640	-209	-10072	5584	12192	-19	126	-192	-16536	3144	-4176	772	585	118	-15864	3208	1488	2109	2653	576	124	124	1
-24704	-1464	14856	-8742	-32768	-29415	-16780	5604	-10184	644	-32768	-8837	-416	2792	-7720	1523	-741	94	-10192	5360	12264	43	189	-157	-16208	3208	-2680	861	705	15	-13464	6880	3072	1832	2829	246	124	123	1
-28792	-6220	14080	-6601	-32768	-24706	-17400	6252	-10668	400	-32768	-9037	-2024	2704	-6152	2376	-998	283	-10232	6368	11648	86	261	-133	-15784	4448	-1832	809	850	-95	-14248	7280	3072	1074	2650	-80	123	126	1
-32768	-6308	15288	-4392	-32768	-25362	-22480	7324	-15096	-5807	-32768	-12584	-6288	3472	-2952	2594	-1038	259	-10080	7448	11576	75	285	-173	-14208	6168	-2152	454	1085	-215	-17632	5496	152	638	1955	-20	123	129	1
-32664	-7724	14452	-3863	-32768	-26411	-24988	3724	-14676	-6034	-32768	-13922	-10088	4800	3856	1144	-1017	-61	-10112	6544	12784	99	370	-263	-16152	4144	-2352	233	1342	-246	-17752	1960	776	285	1588	265	124	128	1
-32768	-10096	9128	-2000	-32768	-25162	-22784	-1184	-16320	-622	-32768	-13734	-15136	3792	8688	-321	-679	-263	-9840	7512	12888	153	553	-370	-17928	2920	-3232	425	1513	-305	-16632	2240	2624	383	1446	296	122	129	1
-32768	-8668	2508	-53	-27566	-25880	-22696	-732	-16856	11358	-32768	-9992	-23896	3968	10944	-1178	115	231	-10016	6440	13384	172	849	-452	-17904	2608	-3304	534	1682	-329	-17664	3032	2968	552	1370	102	122	129	1
-32768	-4520	-3936	2219	-17504	-27210	-19872	1600	-18388	16728	-29407	-7375	-18816	976	16904	-1169	538	782	-10136	7960	14280	145	1243	-591	-18392	3704	-4128	386	1935	-355	-16824	2232	1808	731	1175	81	123	130	1
-32768	11008	-9268	5305	-5974	-26784	-18888	1892	-17972	17575	-27483	-6758	-18880	-6464	19232	-1296	622	787	-10264	7256	14920	7	1858	-812	-20488	4600	-4464	195	2144	-457	-18736	2328	-416	950	992	28	122	130	1
-32768	14496	-16532	8095	1938	-11088	-7464	-820	-20052	13477	-1574	915	-16704	-10536	18944	-111	68	-237	-11368	7488	15056	71	2515	-1148	-21752	3384	-4576	129	2347	-558	-20752	5848	1240	980	998	-184	123	129	1
-32768	7700	-13084	-1667	7769	2720	-8944	4032	-19628	3945	13827	2041	-23144	-6280	10568	944	-254	-1176	-11104	7992	15040	105	3274	-1598	-22712	2944	-3304	379	2577	-523	-21200	8432	4312	704	890	-231	123	130	1
-27752	-5728	-7160	55	13974	5646	-11620	-592	-17100	-1450	22810	73	-21600	1192	2576	1455	631	-858	-10688	9664	15360	195	4071	-2263	-24392	4864	-424	715	2846	-555	-21608	6288	7792	261	599	-89	124	130	1
-5648	2672	19064	3605	28251	1495	-16872	-4816	-2128	-2204	23729	690	-9736	6328	-632	239	1578	-269	-10648	11280	14576	396	4898	-3188	-25192	5592	1504	994	3188	-469	-21928	2072	14096	190	140	-89	124	132	1
3192	-10316	13608	-640	24841	5759	-28752	348	13020	19383	13824	-3072	-4472	4936	-11776	-1204	1899	257	-13704	17752	18216	624	5971	-4513	-31240	8288	5080	1557	3391	-338	-28896	856	28200	-1071	-1837	164	122	131	1
-32768	-19416	28932	2547	32767	16643	-31752	2428	-10688	17082	18818	-3369	-32768	-16280	18976	555	-815	1715	-26176	13256	18288	663	7207	-5598	-32768	4400	2704	1987	3571	-24	-24752	-5056	8528	1036	-1673	-47	123	131	1
-32668	-19876	12404	978	18599	11738	-26032	-2716	-12988	11456	26122	4877	-32768	-23240	20728	1727	-1027	1425	-23416	-2264	17256	2142	8081	-4177	-29120	4496	-6888	2561	3530	-314	-28064	5304	-7056	3039	-2815	-563	122	129	1
-13880	-10012	12764	4406	7504	7734	-14976	-5708	-8860	21435	20185	4743	-14064	17720	-23080	4256	903	-1139	-32768	26664	19856	1966	6704	-4015	-32096	14072	-5944	4173	3304	-841	-26672	15200	-18592	3417	-3385	-86	132	135	1
-13680	-7312	11384	5552	2382	4611	-12616	1944	-12560	13989	14410	-766	-3320	9712	-5512	-716	2385	-944	-16040	32767	29176	-2147	2730	-5018	-18960	15088	-16872	935	2787	144	-27688	7088	-15400	168	-3604	750	133	130	1
-10408	-5344	12872	3710	1618	1747	-15612	7340	-8444	-3878	12215	-2714	-12352	4240	-10280	-1272	1732	585	-8896	12984	29288	-598	-1394	266	-18768	-648	-3128	-787	1265	-689	-32768	2496	-7048	-2325	-4415	543	133	135	1
-9600	-6596	12204	1975	1592	408	-18636	1608	-6660	-14645	11960	-4965	-17784	-4808	-7320	-1370	1827	1536	-1064	19336	17216	557	-1805	1784	-17184	2048	-1768	112	101	-334	-29952	48	-5088	-2569	-4539	558	130	130	1
-8856	-7320	11252	1596	1626	435	-16904	-4156	-4756	-13051	9812	-5282	-20816	-5208	-4880	185	1610	942	-1208	13104	16168	-444	-2803	2031	-6088	2352	-3360	-425	-1251	241	-25104	-2528	-2568	-1566	-4114	976	124	127	1
-8560	-7876	11336	1299	1782	623	-18556	-5388	-2772	-1602	7799	-1318	-17960	5832	-2064	591	1951	257	-1576	5120	14160	48	-3926	2727	-5144	400	-3072	-949	-2218	728	-20528	-3672	-3656	-350	-3627	904	118	126	1
-8720	-7964	11044	1442	2139	554	-16360	-3588	-2700	5618	6492	1272	-16816	5136	-1344	-226	2360	196	-4864	5704	12064	676	-4718	2950	-9480	-384	-3728	-1046	-3142	1208	-16912	-1712	-6240	159	-3119	695	121	132	1
-8724	-8144	10820	999	2144	448	-15308	-1088	-2644	6387	6005	1974	-15440	-472	-1864	-480	2467	486	-5600	5888	11544	870	-5322	3152	-8976	-1528	-3344	-1201	-4001	1455	-14448	-248	-8544	169	-2640	380	122	132	1
-9184	-7828	10624	805	1734	571	-16132	924	-3832	1794	6478	311	-14832	-1352	-1848	-477	2468	513	-6424	5768	12008	783	-5285	3516	-11272	-3480	-4304	-1354	-4804	1631	-10952	664	-9416	1	-2152	200	117	129	1
-9456	-6764	11316	526	1369	591	-15796	1820	-4360	-2557	6319	-1508	-13104	496	-2144	-342	2634	633	-10576	5176	14768	824	-5096	3921	-12576	-3216	-5896	-1290	-5470	1689	-7736	2016	-9984	-271	-1881	80	120	128	1
-9892	-5760	11632	-228	1434	82	-15596	2020	-4448	-3036	6216	-1707	-15904	6960	-416	-531	2716	810	-15448	4072	19056	976	-5221	4139	-14000	-2216	-8240	-1481	-5955	1596	-4648	3280	-10064	-1230	-1443	-48	122	130	1
-8860	-7396	11416	-470	1910	319	-14844	-2988	-1472	-3764	6382	-1103	-15696	6576	1704	-1291	2945	621	-20224	344	20520	1489	-5584	3921	-17712	-2920	-9656	-1352	-6418	1545	-3056	2400	-9568	-2201	-1182	-260	121	130	1
-8788	-7980	10936	-419	2723	1021	-16800	-2532	-1696	-1190	7055	102	-16608	936	-176	-1287	2400	628	-23368	2056	19272	1993	-5488	3158	-21552	-5224	-12400	-492	-6636	1747	-2592	1720	-8152	-2520	-1221	-385	121	120	1
-8520	-7816	11752	-140	3802	2064	-16628	-1920	-1304	-698	8339	310	-15832	-3192	-6336	-325	1598	523	-31136	7160	21528	1757	-5100	2805	-23600	-3072	-15520	546	-6519	2063	-5384	1288	-2608	-1670	-1218	-445	122	127	1
-8396	-6736	12192	-118	5017	2718	-16100	-148	-2688	-1737	9840	682	-17360	-3000	-5192	-256	1509	435	-32768	7784	18744	1684	-4855	3456	-24576	1048	-18520	265	-6291	1956	-8496	-2280	5064	-29	-1246	-309	122	126	1
-9684	-8464	11536	-229	4880	2945	-17116	164	-2872	-3306	11280	1093	-19616	1080	1544	29	1673	272	-32768	7368	13576	1013	-4514	3623	-22680	5032	-23040	-683	-5709	1585	-10392	-3288	9304	949	-1211	-88	121	119	1
-9232	-8100	13044	-2024	8728	5058	-19544	-860	-1392	-2643	13071	793	-20792	2784	3208	-397	1332	243	-32768	3776	816	225	-4119	3399	-19568	6336	-23656	-2081	-4711	898	-17000	984	12656	2400	-585	69	120	135	1
-10312	-7376	13456	-1310	12801	6758	-19132	520	-1120	-1413	15900	1040	-20136	3016	3432	-614	1084	378	-32768	-4376	-12192	-295	-2627	2973	-16200	-1152	-26952	-2486	-3039	467	-18200	3072	18560	2850	584	718	121	130	1
-11152	-6548	13756	-1300	17932	8584	-20376	960	-2272	-617	19075	1422	-21216	936	4136	-933	929	311	-32768	-12472	-19608	-581	-767	2343	-9616	-168	-30176	-1374	-978	63	-19872	11048	24200	722	-198	635	123	139	1
-10496	-7496	15292	-1695	23932	10463	-22120	268	-1312	1528	21960	2019	-20952	3144	2480	-1217	788	122	-32768	-16800	-19824	-417	699	1000	-5080	936	-27984	-900	1068	-219	-16472	15856	16896	-1291	22	178	122	127	1
-11084	-8592	14232	-2594	31475	13204	-22492	-96	-1648	2780	24722	1976	-22048	784	1992	-1274	641	293	-32768	-12088	-11568	-127	1684	-474	-5720	-544	-26272	-491	2642	-203	-12568	5864	5464	-2017	1084	-157	122	127	1
-10068	-10728	15380	-4097	32767	17083	-22888	136	1268	1649	26408	4	-22072	-2864	5040	-1071	300	293	-2952	21144	32767	-1869	2430	-2382	-6504	-848	-27264	-402	2834	-232	1816	48	-6984	-2462	2259	-222	121	116	1
-9296	-10972	15168	-5655	32767	23644	-27356	264	2592	-3468	27953	-1589	-23952	-5272	11280	-552	-151	45	-17792	-9856	19248	-1180	4053	-4019	-32768	-2288	-8840	-394	2765	489	-32768	3368	9232	1141	-138	240	123	124	1
-12204	-11764	20172	-8571	32767	31811	-32768	-1524	6984	-15225	27541	531	-32000	-8368	18296	-190	-2256	-278	-16912	13048	17296	-1244	3058	-1850	-29568	5448	-7064	-422	3658	-1148	-30088	14688	4096	-3162	1031	277	124	162	1
-28396	-12900	14764	-12411	32767	32767	-30628	-2180	-884	-15907	32593	-4455	-21400	2576	696	-1463	-2684	-780	-13272	664	13400	-1084	2912	-1488	-7408	9088	-8856	-1255	3360	-1452	-22360	-6152	-17304	-3033	1789	1002	123	144	1
-32768	-6296	20204	-21748	32767	30420	-24768	-1832	48	-21979	30584	3336	-17880	2208	-17064	-560	-2763	-517	-17768	3952	15472	-981	2808	-1531	-8480	7032	-18472	-4371	2340	-530	-7688	-15792	-1552	112	1178	1672	123	112	1
-32768	-27896	22280	-17412	32767	27880	-30860	-6792	-13292	-15982	32376	5049	-23720	2160	-19216	-92	-2447	-1707	-14056	3128	15304	-579	479	-616	-28560	-9776	-15376	-3023	1561	-231	-13048	2552	-10152	2550	1155	474	122	133	1
-32768	-20596	21372	7705	16974	21219	-21012	-5824	-7764	-4693	19971	6191	-32568	5840	-9576	674	-2897	-2440	-11816	4464	14584	-266	249	-165	-19048	-8752	-9872	1049	1618	6	-17760	14768	-7032	865	1943	-8	123	137	1
1288	-18324	23004	5893	-12365	-4056	-20348	-608	-508	6177	5260	13014	-32672	3728	-9144	1748	-3721	-1494	-10576	5864	12592	-52	228	-19	-12848	1792	-7704	3003	1019	729	-22424	9664	-4848	-1152	1865	139	122	126	1
236	-11216	15220	6409	-11471	-4656	-12852	-3000	-292	9509	-4380	8156	-26848	5920	-7536	1904	-4146	-1382	-9464	7176	12032	-26	226	-6	-18592	8640	-5616	2430	865	605	-20824	8	56	-720	2236	323	122	125	1
-3992	-7972	15092	5821	-21490	-8846	-5632	1968	-7500	11493	-14050	6138	-23840	8584	-5000	1353	-3724	-1747	-9680	7496	11784	-31	194	-46	-15080	10824	-4656	996	709	227	-15752	-1368	1248	1153	2256	86	124	132	1
-4768	-6452	13668	2949	-32768	-14770	-4276	2932	-5728	5161	-22909	4444	-20832	10752	-4488	765	-2980	-1544	-9624	6848	11480	-98	206	-58	-15976	6384	-4496	-70	496	-28	-12824	5192	720	1509	2126	-203	124	133	1
-3528	-5752	9684	1658	-32768	-15309	-8732	2768	-884	-40	-29682	1313	-16472	10264	-5880	563	-2373	-1191	-9560	6824	11728	-106	219	-66	-17352	4648	-4624	-575	564	-236	-14048	9104	568	1077	2303	-166	123	129	1
-7496	-6440	8984	-355	-32768	-17002	-8128	5528	-5940	-3512	-32768	-2187	-12680	8744	-6584	101	-1945	-1075	-9536	7088	11792	-128	187	-146	-15608	1824	-3616	-252	739	-184	-13656	4424	576	238	2442	-31	124	124	1
-9192	-7668	9512	-1240	-32768	-21444	-7232	5224	-5808	-9028	-32768	-5390	-8616	6608	-7768	-214	-1448	-887	-10112	6688	11768	-71	145	-134	-14392	2152	-3344	597	664	-88	-17152	376	888	266	2416	-17	122	126	1
-12336	-7864	10520	-2814	-32768	-26543	-10092	3320	-5664	-8502	-32768	-8535	-5760	5184	-8368	-45	-1088	-606	-10480	6208	11520	-30	106	-134	-15728	3960	-3872	958	497	82	-18400	-1120	368	1362	2570	-11	121	134	1
-15992	-8264	13196	-2796	-32768	-30183	-13908	2588	-8080	-5940	-32768	-11582	-3712	4288	-9184	598	-1015	-189	-10040	6224	12120	2	112	-150	-16680	3680	-4048	919	542	109	-16408	680	1152	1878	2764	582	123	126	1
-21968	-6888	14516	-5408	-32768	-32133	-15588	2288	-8912	-2918	-32768	-10564	-1560	4760	-9224	1194	-929	295	-9616	6280	12128	20	110	-165	-16248	5064	-3776	633	701	-73	-13512	4832	2624	2059	3237	395	123	121	1
-22900	-5280	14224	-8082	-32768	-28608	-18820	3500	-8364	-2430	-32768	-11723	-976	5480	-7120	1412	-971	543	-9936	6400	11688	7	149	-206	-15080	5424	-3112	327	777	-213	-13328	9168	1440	1916	3387	133	122	123	1
-30320	-6604	16188	-11885	-32768	-24861	-22352	8124	-13916	-4868	-32768	-13390	-2552	5624	-5488	1313	-727	560	-9912	6760	12000	26	217	-251	-15880	3584	-2768	262	910	-213	-15168	7208	-2976	1116	2710	60	123	126	1
-31944	-11968	21048	-11279	-32768	-24908	-29016	5848	-16476	-6487	-32768	-15297	-7952	6472	1760	450	-837	365	-10400	5648	12352	97	324	-291	-16800	1880	-3208	418	1092	-153	-17424	944	-6048	144	1733	140	122	129	1
-32768	-9684	15136	-8448	-32768	-28666	-30448	4140	-16524	-1661	-32768	-13814	-14352	4016	11424	-321	-1456	-4	-9576	6512	13928	190	599	-393	-18112	3296	-3984	537	1201	-145	-18600	-856	-736	-143	1720	166	122	129	1
-32768	-8920	5412	-1761	-30328	-28932	-22088	1656	-19584	2019	-32768	-11683	-24032	-3136	13648	-1015	-1186	-291	-10208	5816	13328	254	960	-490	-19368	3464	-2736	642	1402	-213	-20464	5040	4496	751	1645	-57	122	130	1
-32768	-728	-5240	5689	-23160	-27498	-15244	580	-20440	9961	-32012	-6938	-23896	-4896	12544	-1985	417	-50	-11136	6592	13184	132	1414	-719	-18704	4424	-1992	571	1729	-301	-20320	5888	5208	820	1393	-14	122	126	1
-32768	6544	-13432	6667	-13283	-20765	-12876	-1064	-21828	10305	-19414	-1924	-15992	-5504	18320	-1965	583	193	-10600	8080	14352	10	1998	-1028	-19992	5424	-2896	373	2081	-420	-20728	3864	4624	758	1099	287	123	127	1
-32768	12564	-21484	5723	-3431	-7544	-8320	-460	-23224	12516	-2747	3164	-17192	-7840	17248	-1394	350	-120	-10784	8672	15232	-55	2675	-1428	-23128	4232	-2000	295	2393	-542	-21064	3168	4224	806	1069	300	124	131	1
-32768	5512	-19704	1696	6802	1980	-7312	2988	-24200	3979	13091	1629	-20032	-8672	9600	25	158	-538	-10896	8904	15864	117	3445	-1843	-24328	4104	-184	455	2718	-624	-22984	6080	4728	1024	791	-220	123	129	1
-29256	-3292	-12864	2554	22545	12633	-12224	-5028	-14824	-4559	22622	-795	-17080	-2008	3488	1520	443	-434	-10656	10368	15296	174	4316	-2626	-24488	4040	72	486	2757	-625	-22576	8064	8880	735	464	-288	123	132	1
1200	-26804	32767	4610	20525	19937	-32768	-7028	31296	-10543	17797	1859	-11096	-2824	-1776	299	-8	-623	-10360	13120	16696	228	5234	-3719	-28976	9608	4560	1249	3268	-616	-26768	8560	13192	655	-187	-224	127	131	1
-32768	-8256	20276	3096	32767	15292	-32768	10656	-14048	14030	23643	-5442	-32768	-10168	2016	-9	82	1090	-16880	15792	15248	197	6757	-5120	-32768	7856	5080	1498	3302	-449	-31168	10896	15984	506	-1897	-82	127	130	1
-22896	-9412	15088	1816	26094	10557	-17676	1368	-11604	-1216	30435	6085	-15720	6720	-5952	4202	128	409	-28584	10256	18504	210	7275	-6067	-31848	3640	2936	2189	3797	-216	-18624	-5752	-2648	158	-1905	-570	135	126	1
-20216	-6708	13440	1324	17323	9194	-14964	-10376	-10980	13492	21248	4717	-10840	9600	-15488	3117	1092	-1368	-32768	19096	17344	1675	7671	-4452	-28824	7104	-1736	3131	3518	-687	-24328	-5360	-6344	-188	-3101	-263	127	129	1
-12396	-9052	12172	4722	7709	7094	-15676	656	-11616	27363	13013	4813	-7096	8168	-9272	223	2264	-796	-32768	25904	16176	1723	7615	-4260	-26424	13664	-10592	2669	3275	-180	-25872	2016	-19320	1752	-3570	-191	130	134	1
-13504	-6668	12976	3974	3731	3091	-19724	7504	-10792	15428	9944	3419	-15088	5928	-12600	-396	1859	539	-32768	26560	31528	-1807	1969	-3051	-20048	3528	-12424	-75	2358	225	-29472	-344	-13288	1325	-4129	611	127	132	1
-10656	-5792	12392	2000	2008	1167	-17752	6328	-7512	1358	9414	-1778	-19192	-720	-8640	-418	1808	1194	-928	23888	23664	272	-1098	1901	-22608	3216	-1264	378	1173	-471	-31656	2656	-8328	51	-4589	385	114	142	1
-9720	-6924	11412	991	1620	379	-13852	3520	-6072	-14700	9771	-6065	-19176	-2136	-5240	679	1626	558	-1352	15224	17720	-54	-1801	2167	-12272	3944	-3896	365	-178	177	-26968	5632	-5264	-488	-4207	728	117	127	1
-9284	-7588	10916	607	1496	188	-17096	-2048	-3444	-18228	8417	-7017	-17800	2368	-2312	1046	1920	169	-4616	5528	17208	211	-2878	2297	-5248	3296	-3480	-351	-1387	577	-23568	4584	-4968	-344	-3876	1392	118	128	1
-9108	-7612	10960	620	1428	368	-18204	-5316	-2012	-9491	6409	-4640	-16000	3680	-704	374	2081	385	-4904	5944	14792	905	-4445	2943	-5640	1120	-4216	-1055	-2255	922	-19984	1736	-6440	-227	-3542	1111	118	126	1
-9696	-7448	10976	949	1429	312	-16100	-4168	-2060	2083	4835	-1081	-14272	2888	552	-427	2013	786	-1816	6736	10160	712	-5214	2906	-8800	1208	-3208	-1357	-3264	1146	-16520	1008	-8584	-447	-3014	886	119	128	1
-9084	-6468	10860	1360	1399	180	-16484	-2176	-2412	6702	4646	1088	-13752	440	8	-761	2156	879	-3640	4760	9384	630	-5156	2891	-9888	-1344	-4040	-1809	-4122	1275	-13168	952	-10336	-691	-2424	714	120	130	1
-9184	-7612	10816	1658	1431	302	-15712	-1080	-2252	6267	5150	1246	-14240	320	-1432	-737	2388	632	-7952	7840	11856	608	-5035	3348	-10328	-3184	-6184	-1942	-4852	1235	-9656	1328	-10928	-861	-1994	572	120	132	1
-9536	-6824	11016	1439	1232	482	-15084	1368	-2988	1767	5871	-543	-16912	3016	-1232	-748	2691	326	-13064	7984	15136	387	-5081	4050	-11496	-2848	-7320	-1659	-5645	1311	-6216	2768	-10688	-1262	-1531	380	121	128	1
-9548	-6516	11260	878	1282	270	-15880	1736	-3148	-5072	6732	-1983	-16600	3400	-216	-1155	2965	347	-18392	6384	17672	489	-5191	4634	-15808	-1344	-9200	-1651	-6163	1215	-3936	3432	-11328	-2029	-991	118	123	131	1
-6008	-6904	12780	-623	2940	227	-12704	-584	-2732	-9928	7366	-2557	-15560	440	624	-1687	3055	565	-19240	5808	18040	503	-5217	4656	-16648	-1112	-9760	-1648	-6230	1226	-2160	2920	-10000	-2972	-874	-182	123	127	1
-9244	-6512	10528	17	1877	879	-16784	-3304	-848	-7676	6879	-1220	-14400	-3264	-120	-1939	2972	716	-26368	5792	18816	922	-5349	3806	-21576	-608	-11336	-944	-6572	1286	-3408	3096	-6496	-3068	-1025	-284	123	127	1
-9316	-8420	10720	276	2266	1410	-16488	-4224	-788	-2999	7815	519	-15192	-2416	-4576	-1564	2219	946	-32768	6808	21032	671	-5195	3164	-24360	136	-15240	-773	-6530	1545	-6440	-144	-360	-2058	-1112	-345	122	129	1
-9208	-6628	11580	281	2597	1937	-15664	-1804	-1604	1705	8750	2019	-15992	-144	-4944	-366	1531	775	-32768	9016	18664	917	-5232	3386	-25584	496	-16184	-887	-6216	1353	-8104	-6456	4088	-651	-960	41	122	119	1
-9876	-6448	11444	-179	3686	1965	-17156	-504	-1992	2756	10153	3507	-17632	2160	736	767	1658	403	-32768	7784	11368	744	-4681	3453	-25112	2944	-19072	-1232	-5600	1092	-11144	-8592	9864	312	-498	127	123	126	1
-9012	-8688	12048	-861	5798	2816	-18340	-392	-788	735	11826	3231	-20984	840	1576	-73	1505	207	-32768	2880	768	75	-3766	3437	-19696	3584	-19912	-1750	-4588	769	-20160	-4528	18352	1126	-474	-97	122	129	1
-9104	-8204	13144	-2586	8395	4868	-18496	1572	-244	-2060	14712	1523	-20376	1960	1560	-671	1223	293	-32768	-7864	-12464	-613	-2291	2911	-14192	224	-25424	-2220	-2823	285	-23200	-152	28072	1216	-983	92	122	123	1
-9612	-7176	14268	-1830	11769	6499	-19112	656	52	-4190	17439	224	-18400	2072	5048	-793	1174	341	-32768	-14216	-19944	-395	-821	1838	-9312	1048	-26848	-1184	-655	-156	-19704	10712	23224	622	-1026	549	121	136	1
-6248	-4244	21656	-435	17645	8559	-21184	-492	2704	-1008	19133	1382	-18960	3528	568	-1189	1149	179	-32768	-14336	-19816	-305	471	143	-5264	2088	-26704	-746	1321	-181	-16360	10752	15440	-73	-75	251	124	136	1
-10940	-7612	15140	-946	23516	11200	-22956	-2420	-1212	2889	21815	2393	-22640	1648	-2704	-1287	1027	311	-12704	8512	2336	-262	1715	-624	-8632	2608	-24208	73	2824	-278	-14176	3056	4920	-793	280	-643	123	130	1
-10688	-9164	14768	-1566	30902	14699	-22988	-8	-776	4802	24557	2605	-23376	-4968	1104	-857	753	532	-21104	12824	32767	-1758	3262	-2874	-32080	11840	20056	2039	2742	193	-2000	-1168	-4312	-1529	530	-634	123	115	1
-9356	-10296	15088	-2279	32767	19941	-29692	632	3132	1086	24623	213	-24960	-7920	3624	-328	406	280	-23040	-15192	18536	-996	4091	-3030	-32768	-14656	-16592	-877	3550	326	-30736	12136	2480	1378	-1169	242	123	126	1
-10092	-11136	17504	-2627	32767	26627	-30552	-1076	4712	-2289	27521	219	-30928	-7024	9320	-8	-445	-56	-7624	11400	12776	-825	2649	-1958	-17824	6880	-7472	1445	3295	-1126	-22184	10512	-9400	-2483	1340	512	122	150	1
-12392	-17188	17296	-4086	32767	32767	-32768	-2404	13596	-12161	29631	3234	-24024	-7720	7880	-517	-3402	-764	-24784	4744	16760	-901	2531	-1425	-5376	13408	-13624	-640	2952	-741	-18792	-6304	-11888	-2035	1489	841	123	132	1
-30692	-3416	16708	-8803	32767	32767	-26640	-556	-868	-13188	32269	-5022	-19872	11440	1904	160	-3374	-587	-14128	4552	15504	-690	1077	-1023	-14456	6552	-13832	-4441	2196	-441	-16440	-5568	-5640	-479	1211	1174	123	121	1
-32768	-23520	17088	-16425	32767	26649	-24812	-2612	-10220	-20467	32767	7051	-17664	5504	-17040	-344	-2572	-1040	-15080	4112	14488	-243	447	-341	-27496	-11352	-15432	-3236	1681	-728	-17104	3936	-6976	978	2045	734	122	115	1
-30388	-23248	25616	-6657	32767	26290	-30216	-4592	-13360	-10973	27190	4676	-27336	4072	-15024	-1150	-2399	-2194	-11792	4152	14024	-78	261	-116	-17040	-5736	-8080	423	1518	57	-16640	8936	-4968	-486	2027	565	122	126	1
-32768	-20068	31504	5445	7676	8776	-18248	-2944	-9220	2567	19602	6081	-30408	7392	-10576	-77	-3191	-1902	-10120	6584	12624	55	227	-47	-13936	744	-6064	2003	1054	582	-19432	5624	-2816	-979	2026	401	122	119	1
3708	-16000	19180	2162	-5709	-7709	-17784	-700	88	-326	5739	9611	-28552	5472	-9120	1022	-3647	-1375	-10096	7952	11696	-9	116	-121	-17360	7368	-5512	1992	959	594	-18240	2696	-104	-458	2045	144	123	132	1
-1212	-8800	14588	2412	-8581	-6341	-9920	-1232	-1872	3827	-2259	4583	-24744	5936	-6632	1134	-4021	-1585	-10432	8264	11584	-24	95	-133	-14824	8800	-4560	1254	692	367	-15176	1248	1776	451	1885	61	124	130	1
-4996	-5084	15344	2	-20508	-9127	-4548	1760	-6468	4009	-12085	1736	-22192	8632	-3952	726	-3544	-1864	-9704	5128	12176	-92	105	-110	-16472	6232	-4600	61	550	25	-15144	2736	1888	1004	1940	-55	123	136	1
-3028	-4616	13064	-2781	-32137	-12306	-5572	1880	-4332	641	-20568	905	-19328	9488	-4992	357	-2957	-1583	-9784	6888	12024	-79	145	-55	-16776	5000	-3968	-482	680	-173	-15160	3632	1672	1021	1973	-86	123	126	1
-3232	-3864	10568	-4473	-32768	-14128	-8592	3904	-4196	-2252	-27204	-447	-16216	8096	-6360	54	-2396	-1343	-9704	6312	12152	-77	182	-54	-15288	3792	-4224	-682	837	-233	-14152	3760	1832	425	2271	168	123	125	1
-4256	-6228	8984	-4765	-32768	-16789	-5940	5880	-4756	-5641	-32330	-3746	-13608	7400	-7072	-111	-1982	-1189	-9768	6552	12056	-18	180	-18	-15216	1496	-4224	-173	711	-159	-16376	392	1176	439	2252	382	124	128	1
-6200	-7004	8964	-4047	-32768	-20767	-5448	4788	-4368	-9077	-32768	-7758	-9928	6312	-8552	-235	-1507	-913	-9264	6088	11720	-6	176	-25	-16368	1320	-4968	639	511	49	-16752	3512	200	1035	2258	380	122	137	1
-8416	-6920	11196	-3956	-32768	-25539	-9148	3044	-5744	-7931	-32768	-10880	-6920	4656	-9232	-247	-1155	-589	-9904	6080	12120	24	199	-61	-16816	2072	-4504	1301	424	243	-16088	784	656	2083	2353	-204	124	128	1
-15548	-7044	14924	-5667	-32768	-30507	-12564	2816	-8224	-6060	-32768	-12380	-4216	3440	-9736	-44	-834	-207	-10024	6752	12016	40	184	-103	-15776	6072	-4208	1184	496	128	-14528	3512	-128	1950	2435	61	123	128	1
-20736	-5060	16428	-8492	-32768	-30420	-15768	3524	-9464	-4901	-32768	-12466	-984	2216	-9224	841	-549	261	-10152	5656	12064	44	137	-152	-14112	5688	-3752	486	642	-67	-13760	6672	720	1555	2790	153	124	126	1
-26168	-4536	14984	-12991	-32768	-26125	-18484	5980	-9488	-5133	-32768	-12871	296	4688	-7968	1852	-593	595	-9984	6568	11640	34	154	-154	-15496	4568	-3008	378	786	-169	-14936	7680	1000	1144	2760	162	124	122	1
-25812	-9932	17360	-9321	-32768	-23665	-22572	7472	-11452	-5772	-32768	-16298	-2376	4992	-8560	2407	-537	700	-9464	7208	12384	47	188	-197	-16392	4184	-2808	369	966	-218	-17224	5664	1928	697	2531	264	123	127	1
-32768	-12528	20600	-8095	-32768	-29199	-31152	4624	-15368	-4977	-32768	-18831	-6480	7064	-2088	2003	-441	495	-9488	6520	12480	111	304	-330	-17016	3576	-2496	435	1206	-220	-17736	1808	2400	484	2152	337	124	127	1
-32768	-13352	16000	-1105	-32768	-32768	-27084	612	-17264	3891	-32768	-17174	-12880	6704	7864	1025	-920	49	-9016	8224	13712	165	579	-522	-18008	3424	-2520	517	1409	-177	-17448	-40	1560	626	1605	158	124	128	1
-32768	-9816	6380	5264	-29605	-32768	-27312	-756	-17060	5917	-32768	-16076	-21656	304	11088	-184	-681	-163	-10024	7520	13960	149	933	-693	-17992	3032	-3048	623	1630	-177	-18480	1680	3432	533	1347	-18	122	128	1
-32768	-4744	-6852	14596	-20164	-32768	-18916	1252	-21696	32767	-32768	-4958	-29080	-3080	20432	-1606	433	-13	-10640	6368	14360	77	1366	-827	-17864	3296	-2920	649	1663	-185	-18400	4608	5056	1005	1287	4	122	128	1
-32768	15924	-19564	14564	-4943	-27764	-10268	988	-25236	25808	-17740	2350	-20776	-9232	31568	-1882	477	25	-10840	6112	14600	-92	1963	-1035	-19704	4088	-3872	239	2292	-434	-19232	3696	4440	886	1015	105	124	129	1
-32768	26712	-26964	4561	1379	-546	-2144	3724	-27640	17236	5876	6229	-20840	-13816	20320	15	-444	-765	-10416	8504	15608	-101	2658	-1355	-21984	3808	-3224	7	2650	-548	-21112	4672	2824	820	752	-74	122	127	1
-32768	4856	-14516	-3355	8361	12476	-3728	6324	-26040	-11314	22097	-1059	-16792	-3448	5104	1758	-429	-828	-10600	9048	15976	-186	3451	-1857	-23680	4888	-1808	294	3013	-589	-21464	8344	6568	743	533	-291	123	133	1
15304	-14520	-5792	-4096	27706	14494	-21620	-5248	-4724	-21937	25751	-565	-12656	6528	1624	791	863	-182	-10360	10736	16240	39	4289	-2733	-26208	5816	-1112	666	3312	-471	-23672	8824	13720	458	-25	-197	123	129	1
-3192	-23396	20512	-9148	31974	12240	-32768	9244	8140	5826	16428	-5267	-13104	18864	-5872	-1251	265	110	-6096	15680	16256	194	5261	-4055	-32768	8352	6136	1750	3496	-303	-29824	11592	22816	-389	-1820	121	126	127	1
-12052	-11760	16912	-9215	32767	13920	-28876	-2708	-8252	-3254	26067	-744	-32768	-1552	5832	-468	-571	2190	-13928	15432	21376	32	6654	-6138	-32768	6904	6264	2200	3567	123	-23696	-5560	4312	-202	-1230	-37	128	130	1
-20932	-20804	6376	-4277	24889	5908	-16108	-8692	-11568	5862	25432	5451	-12680	-7200	-12496	2192	636	-492	-21136	-7376	21120	849	7844	-5793	-25688	5472	-3720	2922	3354	207	-25176	-2936	960	303	-3055	-807	122	126	1
-21412	-20092	7968	-3153	23550	5035	-17716	-5716	-14436	25252	16301	6031	-13488	1032	-14920	1432	1952	-2160	-31464	14744	19352	623	7351	-4916	-30096	9416	-12488	3121	3472	-785	-25520	10624	-16360	3237	-3249	-382	120	133	1
-16272	-8804	10976	2581	3947	3772	-16896	4184	-14312	21561	10774	2863	-11688	6280	-9840	634	2331	-493	-32768	17120	20472	759	7148	-4785	-20928	10384	-17976	1296	3037	-311	-30072	6992	-17096	1883	-3514	554	122	136	1
-10856	-9804	10856	987	2531	1232	-19124	8092	-7772	4780	8635	-1229	-15800	2664	-11992	314	1182	1599	-18736	32767	32712	-1148	3699	-3959	-20560	-1848	-6608	-539	1383	-450	-32768	2520	-8968	-719	-4474	525	122	133	1
-10280	-9396	10664	-362	1602	-246	-14424	4760	-6860	-11330	8795	-5933	-16272	-1512	-6016	940	1179	1600	6440	17768	16544	-769	-804	2689	-18144	6008	4384	938	-81	-398	-30176	4272	-5160	-1555	-4439	544	122	132	1
-9344	-6584	11296	-1663	2212	-1003	-16996	1548	-4284	-20592	8061	-8465	-18744	4584	-2112	1688	1476	839	-4032	8520	17424	-817	-1523	2288	-3848	6032	-5656	-523	-1192	97	-25016	2480	-4448	-1032	-3919	1233	122	127	1
-8784	-9716	9716	-1698	2466	-832	-19360	-8152	-1732	-14646	6341	-6879	-17672	5792	-1008	519	2099	306	-4872	4120	16872	-82	-3661	2348	-2216	3832	-4520	-1653	-2163	435	-20480	-576	-4896	-463	-3451	1201	121	126	1
-9208	-9336	9492	-1025	2432	-117	-16688	-8196	-928	3652	3981	-121	-16360	4304	-512	-524	2455	215	-2280	3720	11712	434	-4769	2086	-7832	1720	-2888	-2255	-3233	867	-16440	-728	-6608	-303	-2968	980	123	130	1
-8968	-8952	9456	-37	2104	540	-15332	-1292	-2532	7974	2839	1879	-15664	-464	-264	-1042	2409	414	-5744	6360	10480	807	-5259	2121	-10784	-1864	-5488	-2443	-4058	838	-12912	464	-9304	-438	-2201	643	121	130	1
-9372	-8860	9468	556	1596	696	-15680	1088	-2332	304	4009	637	-12184	-3640	-64	-960	2345	611	-9144	9320	10976	829	-5521	2724	-9944	-4896	-6440	-1699	-4754	844	-9808	720	-9696	-508	-1848	475	121	130	1
-9240	-9124	8988	1616	1034	1157	-12012	-1480	-1964	-6143	5463	-1912	-14000	-896	-688	-1050	2462	391	-10984	8944	11088	705	-5381	3621	-11016	-3672	-6888	-836	-5474	1083	-6736	2480	-9600	-841	-1390	279	124	129	1
-10140	-7708	9756	2342	810	1241	-15112	-164	-2040	-7586	5856	-2514	-17880	4680	392	-1425	2595	337	-17856	7824	15424	695	-5162	4308	-14288	-136	-9088	-640	-6050	1333	-5272	3696	-10120	-1727	-982	96	122	130	1
-9512	-8424	9236	2211	772	780	-15508	-1032	-1216	-9137	6839	-1902	-16680	4544	1208	-1908	2655	451	-23224	3368	18216	1083	-5348	4388	-18088	944	-10912	-749	-6292	1470	-3784	2688	-9424	-2796	-702	-169	124	127	1
-9248	-8380	10060	2490	878	1309	-17048	-3000	-852	-5679	7766	-915	-15144	-240	2040	-1869	2663	463	-27152	2928	18248	1646	-5473	3778	-21096	984	-12552	-729	-6215	1556	-4304	1944	-5920	-3244	-1171	-387	122	126	1
-9772	-8480	9852	2407	880	1729	-16448	-4060	-1232	635	8610	1199	-15664	-3560	-264	-1377	2138	629	-29280	5056	16840	1724	-5253	2993	-23256	200	-12928	-412	-6073	1692	-7192	-88	56	-2508	-1532	-538	124	126	1
-9624	-8592	9500	1743	865	1668	-15256	-1296	-852	3234	9744	2805	-14928	-4312	-8952	-694	1279	715	-32768	6800	15864	1757	-4666	2596	-23368	424	-16488	-127	-5906	1985	-10256	-5040	6112	-922	-1558	-307	121	121	1
-10068	-7784	10736	939	1574	1703	-16320	-264	-2060	2492	10539	2440	-17480	-1208	-4848	467	1492	514	-32768	4840	12408	1713	-4288	3091	-20656	1728	-17816	-418	-5270	1505	-11592	-9128	11208	568	-1145	-119	124	134	1
-8468	-6872	11572	-83	2970	1991	-17300	-72	-1284	722	12199	2965	-19312	968	3696	965	1396	399	-32768	3072	5496	1170	-3630	3063	-19968	3512	-18672	-564	-4495	1253	-15576	-5280	12904	2437	-357	-30	123	133	1
-9236	-8136	11528	-308	4964	2546	-17212	-388	-260	-540	14145	2584	-18752	1312	3208	-56	929	286	-32768	-3872	-1696	286	-2874	2603	-17104	1912	-19808	-1166	-3316	880	-15352	-520	15432	3510	147	537	122	131	1
-9200	-7688	12532	-2218	7566	3863	-17624	420	-1064	-205	16131	2420	-17952	3536	2344	-457	915	251	-32768	-8648	-10248	-120	-1678	2019	-13408	120	-22064	-1198	-1794	395	-16000	7848	17056	2164	-417	867	124	134	1
-10256	-8092	13472	-4290	12108	5792	-19816	56	-3140	1784	18455	3186	-18432	5384	1792	-762	763	241	-32768	-11184	-13840	-256	-447	1189	-8568	584	-23136	-968	-113	95	-17320	16432	15120	394	-611	795	121	129	1
-10076	-8736	14968	-2279	17851	7696	-21356	820	-4068	4143	20111	3675	-19664	4880	-624	-1262	883	234	-32768	-11152	-11672	-166	729	450	-7592	-288	-22464	-865	1427	-92	-15744	12080	10432	-946	-91	199	123	126	1
-10456	-9044	14416	-3025	24797	10522	-22604	1996	-3484	4617	21902	2961	-22240	2336	-336	-1109	862	421	-32768	-528	-21408	-2158	2825	-1937	-11040	2784	-26032	-493	2638	-35	-22384	7120	15552	-2059	-220	-208	123	134	1
-10424	-9908	14220	-3535	32767	13674	-23160	1592	-592	2333	24392	847	-22032	-3424	1904	-639	575	424	1104	24536	32767	-1558	2072	-2575	-32768	7568	27144	1901	1966	-323	-4128	7200	-5400	-2057	1726	-275	121	138	1
-8364	-13120	14680	-4287	32767	18698	-25516	-1392	2436	37	25457	74	-25056	-5536	4728	-290	187	149	-28776	-1184	22336	-617	3894	-2495	-30448	-12000	-16744	578	3145	11	-28240	13080	3240	-476	-589	219	121	134	1
-8468	-12736	15736	-5882	32767	26984	-30396	-1012	1788	-1538	25586	852	-29392	-6696	8584	-102	-755	-95	-11976	9288	13648	-1287	2757	-1634	-15040	11848	-9640	1144	3142	-1059	-22816	-3728	-4568	-3597	1774	253	121	122	1
-14676	-29232	13056	-6971	32767	32767	-30760	-2988	12840	-10775	30815	1787	-21256	-5720	8216	-1091	-3483	-895	-18896	2304	15320	-851	2283	-1277	-10040	10496	-10504	-1557	2579	-814	-14496	-9352	-10104	-427	1269	749	127	135	1
-32768	-6888	15484	-12972	32767	32767	-23452	-2124	-4268	-13263	27503	-9450	-19480	10232	1808	-339	-2908	-558	-17032	2104	14456	-553	1055	-906	-16632	2912	-13504	-4177	1954	-530	-16936	-3168	-3712	1085	1142	1321	126	114	1
-32768	-19040	20236	-24665	32767	21861	-24472	1256	-10672	-17387	32767	8143	-20664	3968	-17744	-802	-2386	-1100	-13904	8288	11064	-365	386	-457	-18288	-96	-13352	-4140	1863	-512	-15280	9960	-5416	1512	1727	913	118	131	1
-27032	-28308	24144	-21664	32293	21981	-27992	-6524	-13004	-13416	27175	5605	-27112	2272	-15888	-1416	-2345	-2099	-11432	5424	13480	-209	219	-227	-16304	-3648	-8040	186	1374	-78	-15464	11440	-4360	-495	1719	470	121	130	1
-32768	-23860	32168	551	-5259	13373	-17944	-1380	-10012	-1437	15922	6073	-29368	4496	-9464	199	-3022	-1584	-10856	6600	12400	-87	196	-87	-15520	1056	-6280	1925	1066	556	-19704	3768	-1344	-1227	1591	67	125	116	1
3988	-14360	15852	742	-14117	6077	-14540	-1260	1752	-1398	4262	10231	-26744	3520	-6896	1553	-3631	-1111	-10504	7216	11600	-97	145	-103	-16784	7008	-5360	1949	936	451	-18376	432	1208	-431	1713	-106	120	130	1
-1904	-8380	12244	1920	-16761	4464	-8712	1408	-3640	2441	-4778	4869	-23184	5576	-6376	1632	-3624	-1465	-10232	6360	11760	-95	115	-114	-15208	8272	-4840	1165	650	298	-15712	232	1464	782	1633	-86	120	133	1
-3596	-7324	12440	1838	-26212	-2575	-3176	3920	-5984	-3334	-12710	3055	-20664	7536	-4744	1082	-3172	-1651	-10256	6216	11592	-123	82	-136	-16152	7144	-5208	197	583	15	-15032	5640	1136	1164	1776	-53	123	130	1
-2524	-7900	9656	2031	-32768	-8560	-4816	1600	-4336	-8331	-19732	1241	-17520	8008	-5872	809	-2639	-1268	-10232	6392	11640	-146	83	-122	-15880	5712	-4960	-557	689	-183	-14872	6536	1256	826	1946	237	121	123	1
-2864	-6864	8028	2053	-32768	-12410	-8116	1236	-3748	-6688	-26068	-1165	-14976	6712	-6200	460	-2129	-1104	-10152	6856	11376	-120	85	-94	-15544	4080	-4040	-680	740	-221	-14632	4432	1008	577	2007	410	123	126	1
-2656	-7240	6424	823	-32768	-17673	-6084	3104	-4436	-5051	-32414	-3516	-11888	5432	-7240	264	-1656	-962	-10208	6232	11832	-88	92	-98	-15480	2824	-4624	-327	594	-133	-16248	1848	728	619	2001	349	121	129	1
-6744	-7696	7880	-934	-32768	-23568	-6816	1876	-5640	-3693	-32768	-6189	-9592	3712	-8960	249	-1235	-747	-10408	5296	12080	-62	121	-97	-15704	1904	-4528	383	494	-2	-15120	-1360	1816	1071	1745	323	123	126	1
-13748	-7644	10448	-3534	-32768	-30589	-7392	1272	-7404	-1633	-32768	-7808	-6976	3120	-8928	644	-963	-417	-10008	5264	11848	2	118	-120	-16408	2456	-4904	1264	346	290	-16432	1960	648	1482	2284	-549	122	132	1
-16428	-6764	9920	-5195	-32768	-32768	-10936	1240	-8284	163	-32768	-8420	-4544	3008	-8480	1209	-849	-12	-10360	6384	11712	41	107	-119	-14944	6656	-4000	1195	441	100	-14192	4432	1376	1406	2030	288	124	130	1
-18808	-5628	8792	-7040	-32768	-32424	-13344	4052	-9396	2387	-32768	-7872	-2432	4512	-7656	1930	-875	328	-10224	6464	11608	27	124	-134	-14672	6512	-3560	543	539	48	-13696	6112	376	1230	2436	420	123	128	1
-25080	-8992	10828	-5428	-32768	-32636	-16712	7312	-12340	746	-32768	-9838	-2400	4576	-7192	1978	-880	385	-10496	5648	11464	20	146	-132	-15200	4640	-4256	257	648	-65	-15104	5992	1304	1033	2705	275	123	123	1
-27832	-10100	13340	-2663	-32768	-32768	-19660	6092	-12192	-3263	-32768	-10599	-3584	6096	-2424	1533	-617	595	-10168	6136	11968	6	202	-126	-15736	4120	-3704	357	786	-214	-16424	5312	2816	1088	3056	167	123	125	1
-28492	-9244	12476	-2001	-32768	-32255	-24244	2836	-13232	-5904	-32768	-13826	-6560	6104	1928	767	-323	322	-10112	6440	11968	22	260	-167	-16472	3672	-2792	604	873	-113	-16840	5024	3688	1015	2984	232	124	126	1
-31264	-11064	9700	-1069	-32171	-26012	-23756	-880	-14488	-2012	-32768	-15088	-10472	6280	4808	-61	-41	57	-10032	6880	11872	49	341	-219	-15816	4136	-1728	839	1107	-101	-15984	3120	1272	648	1940	233	123	127	1
-32768	-11252	5588	1200	-28816	-23578	-22404	-348	-17204	8315	-32768	-11992	-17720	4136	8016	-499	207	86	-10080	6952	12072	98	454	-306	-14320	5048	-728	720	1424	-183	-15280	-24	1472	184	1099	147	124	128	1
-32768	-8712	-1128	2092	-20293	-26496	-21292	1784	-16272	13512	-31971	-7881	-18936	4120	8520	-524	235	130	-10360	7016	12976	131	667	-408	-15944	4784	-2736	376	1765	-246	-17688	2360	5448	503	1080	203	125	132	1
-32768	1264	-7180	4776	-8352	-26289	-16056	2328	-18072	15607	-22804	-5681	-21880	-4912	15928	-1533	505	308	-10368	6936	13472	151	965	-461	-18152	3824	-4488	199	2034	-361	-17912	4536	4048	1258	934	118	125	130	1
-32768	8812	-14024	6629	1147	-18808	-6552	332	-18728	13571	-8938	-592	-19264	-9008	20456	-1153	394	-33	-11184	5216	13752	90	1443	-634	-19168	3360	-6440	158	2267	-399	-16352	5984	-1216	1412	860	61	122	129	1
-32768	12840	-15156	481	4708	-1135	-6828	3160	-19516	8168	6462	2597	-19152	-8488	11376	213	212	-879	-10904	6968	14976	49	2050	-980	-20128	2568	-5576	429	2467	-373	-18128	6416	-384	783	897	-23	122	124	1
-32768	11144	-14112	-1198	5228	1212	-9968	3316	-17868	-3320	17310	103	-17984	-2336	3520	1235	160	-831	-11392	7216	14648	24	2673	-1379	-20600	3280	-5048	747	2734	-396	-18904	5328	3984	514	663	-72	124	129	1
-32508	-252	7376	-2076	22041	11943	-16756	-2432	-1028	-10851	20593	-786	-14016	3536	848	704	776	-38	-11728	8800	14896	78	3390	-1925	-22024	5496	-4088	880	3021	-399	-19600	4352	7096	719	467	-67	124	129	1
3424	-18336	18680	-3615	24728	18815	-32768	-1840	19860	-2595	13297	-4629	-23624	11312	4664	-1293	256	574	-10936	11248	16504	280	4306	-2731	-28112	7768	-3896	1127	3253	-320	-24888	5808	11400	787	-78	-89	122	134	1
-30212	-12128	22348	-4466	32767	14849	-32768	7548	-6808	9151	21591	-2726	-32768	-8400	10336	899	-1152	653	-9560	14840	15480	355	5374	-4257	-32768	7312	1392	1834	3415	-163	-27736	3936	15600	-386	-2051	144	125	131	1
-21684	-17684	7244	-2962	28235	12259	-18508	-5936	-7844	2568	28339	6032	-13088	-2168	-5536	2908	599	-177	-18008	14480	17552	588	6683	-5564	-31392	5232	-824	2291	3540	286	-25216	-3680	4192	424	-1428	-202	127	127	1
-13800	-9132	9992	-1531	23325	9824	-11320	-8276	-7924	22245	18460	4070	-11032	10056	-18352	3376	1467	-1432	-23416	1664	19408	1467	7631	-4735	-26000	3288	-6464	3152	3364	362	-24120	-728	-1840	754	-2808	-565	126	128	1
-17504	-14864	6568	5484	8786	10946	-15976	-3448	-14312	28648	12962	3969	-4720	6912	-5024	-828	1830	-1065	-32768	22936	19960	1610	6024	-3874	-26824	9816	-17616	3582	3683	-474	-24336	5320	-11376	2038	-3271	-386	127	132	1
-14524	-5984	12192	8086	3710	8810	-20352	6392	-11172	17989	10000	751	-17064	-264	-13424	-570	1832	392	-19296	28952	32767	-265	1941	-4292	-20424	12448	-14896	1801	2807	313	-28544	1456	-15808	1942	-3455	348	121	130	1
-12628	-7796	11000	7398	475	5387	-17264	6688	-8592	2373	11007	-3631	-17592	-8784	-9536	-18	1149	1447	11952	25320	18568	605	-397	-558	-23520	3424	2264	1227	1291	-331	-31712	1168	-8784	211	-4030	489	121	141	1
-12600	-6752	11688	6985	154	4931	-14372	4660	-7380	-14443	11484	-6740	-19296	2312	-5432	1908	1226	981	1144	17432	14808	-59	88	538	-13072	-248	-1608	738	45	351	-27408	3568	-3552	-572	-4091	464	124	130	1
-11096	-6200	10204	3880	132	2324	-18932	-1472	-5000	-19022	10076	-8470	-17336	8088	-3064	1440	1630	510	-392	12608	18032	5	-975	1940	-5192	1520	-3088	75	-898	575	-23528	3104	-2144	-332	-3564	957	122	129	1
-10604	-7800	9908	2922	763	1740	-17664	-6548	-2252	-8591	8622	-4007	-15656	6280	-136	272	1925	343	904	6840	15992	145	-2079	2539	-5872	3584	-824	-880	-1830	1002	-20136	920	-3656	137	-3365	1002	123	124	1
-10752	-6880	10056	1981	1185	1259	-15952	-4824	-2044	5385	7323	676	-15912	1928	-560	-249	1929	427	-1384	3504	14664	405	-2997	2595	-7192	1192	-1936	-1975	-2733	1254	-15720	152	-6512	198	-2708	738	123	128	1
-10544	-6728	10020	1368	1715	987	-16300	-2084	-3088	11845	6812	3549	-13448	-1560	-1024	-379	1969	671	-3960	3472	14352	690	-3838	2752	-8192	-2776	-3080	-2293	-3672	1286	-12064	1056	-7776	43	-2269	579	123	129	1
-10676	-6812	9628	1012	2010	610	-15084	924	-4412	9810	7351	3858	-12776	-464	-648	-297	2219	713	-5376	3376	13824	673	-4342	3017	-9504	-4832	-3776	-2158	-4359	1293	-8680	1248	-8560	-239	-1914	260	122	129	1
-10904	-6852	9464	1094	1932	467	-14940	1312	-3684	2528	8330	1466	-17136	2616	-440	-651	2477	481	-9360	4384	15288	598	-4580	3460	-10208	-4568	-5344	-1817	-5030	1214	-5952	2984	-9248	-662	-1342	59	123	131	1
-11116	-6644	9580	1062	1714	514	-14708	1788	-3928	-3284	9257	-20	-17368	4528	-48	-1007	2571	328	-13224	3712	17672	522	-4874	3920	-12464	-3232	-6616	-1774	-5631	1040	-4392	3552	-9776	-1277	-774	-69	123	131	1
-10204	-7652	9552	985	2042	856	-14596	1552	-3152	-9231	10149	-1576	-15144	4368	344	-1065	2447	200	-17368	1216	19912	694	-5110	4115	-16792	-3824	-8824	-1589	-6211	966	-3488	3464	-9288	-2142	-455	-193	122	130	1
-11048	-6592	9888	616	2858	1298	-17416	1212	-3676	-10347	10589	-1628	-14312	3224	-512	-1151	2177	422	-24968	-432	22808	1220	-5360	3818	-19392	-4712	-12720	-852	-6472	833	-4088	3248	-7640	-3041	-539	-374	124	118	1
-11640	-6908	9400	99	3289	946	-16440	-3480	-3608	-3965	11163	530	-13280	1104	-2496	-1812	1992	693	-30776	2984	21616	1264	-5845	3217	-22736	-3088	-12960	313	-6366	898	-5576	3192	-4816	-2921	-779	-431	122	127	1
-11196	-6464	9356	-199	3597	1232	-13448	-1492	-4068	2795	11586	2923	-12512	-712	-1728	-1652	1911	644	-32688	6880	17056	730	-5749	2677	-24136	-800	-14544	713	-6246	1281	-8056	-704	928	-1843	-739	-2	124	128	1
-10620	-7320	9812	-271	4500	1410	-15420	-92	-3780	3034	12670	3977	-15576	-1656	-256	-557	1876	469	-32768	10856	11976	526	-5141	2710	-21768	5176	-15712	1	-5735	1165	-9152	-7088	6176	-197	-313	414	123	127	1
-11324	-8132	10360	-862	6508	2862	-18464	2824	-3808	-886	14793	2820	-18248	-520	-1656	-127	1419	284	-32768	12808	5272	326	-4165	3073	-21128	10000	-17824	-1554	-5010	1032	-14808	-8704	9256	1015	14	114	123	133	1
-11156	-8284	11764	-2427	9163	4443	-18440	1540	-3684	-2292	16743	1457	-18680	56	-1544	-366	1086	458	-32768	7824	-4560	-504	-2999	3596	-16184	6984	-17536	-3730	-3683	659	-20080	-4496	18224	1968	125	-225	122	129	1
-11416	-7184	12092	-1497	12925	6297	-17676	1684	-4536	-2222	18897	1026	-16648	1728	3440	-234	1120	572	-32768	-1896	-10400	-1264	-1045	3985	-15176	-384	-21352	-3731	-2007	-212	-21160	4200	26528	969	-885	-278	122	135	1
-11752	-7572	12496	-777	17860	8371	-19108	-348	-3888	65	21687	2053	-16928	2776	4848	-427	1192	388	-32768	-17856	-15608	-1628	-191	2400	-5928	1872	-22032	-2607	-160	-617	-17040	16760	20184	-1586	-779	416	123	133	1
-11804	-8640	13336	-811	23690	11733	-21192	-728	-2892	2848	24410	2685	-20736	1072	3504	-1180	797	265	-32768	-12872	-13088	-156	670	495	-4160	-784	-22776	-1289	1699	-290	-18240	12392	12448	-1913	251	868	122	117	1
-11716	-10112	13356	-1896	31167	16471	-23136	-168	-2016	3420	27920	1717	-21632	-1792	10064	-753	125	281	-32768	4512	-27080	-1025	3041	-3107	-10504	9032	-24696	1119	2899	212	-21808	-1248	21368	-2389	499	26	122	99	1
-10740	-11928	15760	-2672	32767	23401	-26860	1420	-1108	1062	30607	-1111	-23736	-5608	16152	-653	-732	232	1808	32767	30624	-1167	3239	-4246	-32768	11952	20344	1512	2469	1112	-9840	-9008	11392	-1028	344	-1030	123	114	1
-7916	-22076	18788	-4458	32767	32767	-32768	-984	9392	-7530	31433	-2918	-29600	-8808	5048	-1325	-1530	-281	-32768	8904	21680	-1668	4830	-1473	-26048	1224	-12384	2419	4322	-463	-32768	11560	-9488	1545	-429	-273	123	114	1
-24972	-11984	20780	-7689	32767	32767	-32768	-3072	10512	-18645	22992	-7474	-26280	912	-9280	-448	-2542	-490	-32768	10664	14872	-2042	3435	-2996	1888	7568	-22616	782	3767	-1343	-16856	4248	-11192	36	865	1611	122	127	1
-32768	-10356	13512	-18681	32767	29071	-23272	2312	-14160	-19477	32767	6322	-22392	-5056	-14016	-510	-2301	-778	-22520	-6464	23088	-1411	824	-1158	-14680	3776	-16024	-3401	2979	-227	-7008	-256	-10112	795	531	2182	124	122	1
-32768	-29928	25196	-21082	32767	21563	-28540	-6152	-11748	-16857	30195	12053	-27272	1944	-13888	1073	-2776	-2050	-13416	1384	15552	-451	313	-148	-25480	-5112	-17720	-3944	2231	-644	-18928	5568	-10784	1553	1019	990	123	119	1
-32768	-23360	32767	4910	-3544	12107	-24760	-5900	280	-484	14240	7195	-32768	7376	-10408	2470	-3350	-1969	-11320	3952	13152	-95	299	22	-19160	-5896	-12656	-1241	1917	-351	-19992	15888	-10720	-704	1906	-659	128	126	1
13904	-23168	16668	3058	-6288	4344	-19088	-4240	5916	4946	543	11689	-32768	14232	-6888	2693	-3907	-1568	-10952	3872	13152	16	325	5	-14416	1136	-11848	1144	1237	637	-24128	8784	-7728	-1875	2307	-599	127	124	1
-3016	-14268	17016	2325	-13164	-2310	-10452	3140	-6436	8223	-9828	5408	-26920	15408	-6856	1246	-3669	-1493	-10832	5064	12552	57	369	-11	-18896	4832	-8728	1584	971	116	-21328	2792	-3216	-1489	2621	-60	126	127	1
-3444	-14612	16488	1381	-27260	-13335	-4788	4276	-5788	-2904	-20217	903	-23552	14080	-4936	-168	-3185	-1475	-10968	4592	12424	47	301	-89	-17256	5656	-7240	1461	628	378	-15752	1664	-192	-833	2517	453	126	135	1
-4356	-11648	12860	-1090	-32768	-19977	-9508	2856	-3948	-8634	-28696	-4002	-20224	11344	-5256	-654	-2845	-1274	-10216	4256	12432	110	283	-118	-15056	6256	-5752	756	585	122	-16912	2424	-192	-111	2510	520	125	133	1
-5760	-7804	11460	-5009	-32768	-24008	-10940	4720	-4816	-9486	-32768	-9972	-15544	9768	-7808	-859	-2305	-1112	-11112	3968	12584	140	292	-87	-16472	5624	-3000	-122	501	-80	-14592	2784	616	184	2585	90	125	125	1
-11216	-8024	13460	-8605	-32768	-28638	-8872	5392	-6656	-11277	-32768	-13570	-10336	9216	-8896	-865	-1571	-1021	-10640	5448	11616	252	308	-85	-14712	5192	-4896	-664	775	-212	-13760	1768	808	558	2547	-383	123	128	1
-14528	-9332	15176	-8506	-32768	-32768	-11732	3872	-6544	-8862	-32768	-17330	-6464	7920	-9648	-858	-1006	-894	-10616	5776	11056	247	247	-164	-14336	3072	-5992	-624	701	-233	-15248	1280	-1144	963	2706	-15	126	133	1
-18824	-8492	18308	-8025	-32768	-32768	-15500	3828	-7940	-3560	-32768	-18077	-3560	5104	-10112	-571	-651	-678	-11128	5120	11488	125	263	-248	-14912	256	-6648	151	456	76	-16840	360	-2120	1402	3097	492	125	129	1
-25076	-7636	19860	-9805	-32768	-32768	-20132	5008	-8940	1824	-32768	-15258	-1168	4160	-9408	157	-521	-288	-10992	4648	11952	112	271	-312	-15856	616	-6568	1200	357	331	-15424	1264	-296	1987	3383	623	123	125	1
-29256	-7688	22024	-9701	-32768	-32768	-23304	9176	-12160	2346	-32768	-14929	1056	4808	-9712	1035	-583	109	-10896	4560	12128	111	277	-313	-16128	4200	-5200	1420	502	336	-13936	3048	2296	2288	3535	442	124	126	1
-32768	-9132	25048	-10544	-32768	-32768	-26792	11644	-13804	-5700	-32768	-15169	-504	3984	-7752	1682	-609	242	-10792	4328	11920	116	523	-405	-16248	5144	-3320	949	680	124	-14704	1736	1424	1667	3100	191	123	127	1
-32768	-14216	22496	-6222	-32768	-32768	-31652	5280	-16144	-9793	-32768	-18576	-4472	2448	-96	1483	-845	-172	-10792	5248	12440	74	786	-464	-16144	4704	-1744	543	958	-22	-17816	1000	-2840	798	1722	94	124	129	1
-32768	-16396	13588	8	-32768	-30091	-32496	-1860	-19448	-315	-32768	-20256	-12232	1104	7128	890	-1433	-487	-11048	5304	13600	72	1105	-552	-17384	2888	-2112	526	1319	-97	-21216	6128	3736	323	1587	-21	124	133	1
-32768	-9688	-468	557	-31605	-31578	-22260	624	-24044	15618	-32768	-12981	-32448	-4056	20512	-216	-1767	-93	-11744	4880	13832	87	1566	-754	-20784	3552	-2136	781	1650	-102	-21504	8936	9024	803	1404	196	124	124	1
-32768	13784	-7516	885	-16972	-31029	-15800	5340	-27308	15569	-30104	-6940	-30320	-10576	26160	-1880	-732	635	-12080	5696	15344	77	2217	-998	-23072	5336	-960	837	1947	-185	-23064	5272	9576	884	1279	285	122	127	1
-32768	18984	-24980	10705	-6266	-10695	-4824	-2120	-31176	14403	-6704	439	-18368	-5560	27160	-977	7	39	-11712	7752	16544	76	3020	-1496	-24176	6536	1464	660	2419	-368	-25000	1224	7496	420	954	94	124	129	1
-32768	15024	-22856	-5627	1871	9596	-2880	9464	-32736	-2293	15200	3070	-18632	-5888	6216	810	-62	-1237	-10672	7376	17144	269	3966	-2220	-25224	5024	2864	616	2927	-480	-25552	4544	11960	747	490	-235	124	135	1
-32768	-15832	-12764	8948	19786	10255	-13056	-1012	-17544	-12491	23897	-2791	-12696	-400	904	1005	503	-769	-10480	9560	16192	461	5205	-3228	-28616	5528	5120	1149	3334	-504	-25136	5248	17752	1101	-198	-167	124	131	1
-316	-32768	32767	4187	29406	9072	-32768	-6612	28584	-9855	20721	3423	-4128	5288	-6832	-632	-31	-666	-10832	16136	19728	469	6757	-4422	-32768	7848	11024	2283	3455	-319	-25728	5224	18920	997	-368	-125	124	129	1
-32768	5364	31872	1593	32767	13745	-32768	14200	-21100	19725	27415	556	-32768	1160	-3616	-635	-155	1248	-27792	10816	20440	617	8040	-5330	-32768	3480	4592	2657	3614	-126	-32768	7640	32767	-920	-3343	289	123	127	1
-12408	-14112	8964	-2608	25332	10728	-9784	-1788	-11320	7695	29450	9533	-13128	-208	-14648	3805	688	255	-32768	22120	22048	1594	8893	-4386	-32768	9784	3720	3497	3368	-910	-25008	3928	-9064	1631	-3586	-788	123	126	1
-32768	-4500	16576	4516	7711	7820	-15336	-15916	-19936	27382	18139	5855	-9936	5592	-18848	1921	1268	-1356	-32768	31056	29040	374	7335	-4497	-28032	14680	-11352	2712	3292	-545	-26040	10504	-19552	2695	-3657	20	123	133	1
-13972	-8956	12720	5299	6382	5126	-17408	9756	-17880	32767	9064	3461	-11864	6656	-12240	949	2692	-523	-32768	32767	28680	-2849	2335	-2622	-21880	8376	-14712	-554	2296	-293	-32768	5344	-11456	234	-4138	620	124	134	1
-8812	-9944	11220	1925	3079	957	-17176	12896	-8660	-5631	11867	-2652	-16760	4440	-11296	-364	1467	922	-208	19672	26432	-1292	-1380	2281	-24160	6528	-2960	-579	934	-752	-32768	5320	-8256	-1318	-4990	281	122	138	1
-8424	-8164	11700	684	2441	510	-13152	2904	-7016	-24661	11996	-9724	-18752	192	-6544	89	1495	1623	-7984	11376	20792	-312	-2090	2327	-13296	5640	-4512	-787	-447	-95	-32768	5008	-8312	-1447	-5021	267	124	129	1
-8428	-8440	11204	138	2290	591	-18008	-4912	-4032	-22219	8734	-9844	-18944	1000	-2768	799	1874	855	-8056	9288	18680	-116	-4050	2383	-6400	3272	-6752	-1730	-1671	11	-25296	2144	-3632	-1246	-4367	1324	122	126	1
-7752	-8760	10536	262	2319	673	-19388	-8376	-1664	-5763	6000	-4733	-15720	4232	-936	363	2451	147	-7576	7544	13440	-101	-5507	2677	-6944	2168	-5336	-1925	-2797	407	-21368	752	-5584	-865	-3901	1006	124	127	1
-8328	-8712	11104	666	2986	762	-16624	-4232	-2012	7433	4620	310	-16240	5784	-392	-473	2553	344	-9880	7120	10272	-63	-6210	3034	-10824	376	-7800	-1976	-3862	385	-17832	2048	-8544	-848	-3391	858	122	132	1
-7604	-9156	10636	1180	3271	773	-16404	-3564	-2136	8546	4486	730	-15856	2000	-1464	-1173	2461	724	-13392	7752	8032	110	-6539	3601	-11296	-504	-9000	-1940	-4686	390	-14624	3728	-10976	-1264	-2791	673	123	128	1
-7956	-9160	11060	852	2913	1051	-16244	808	-3072	2784	5311	-1128	-13000	-2888	-1776	-1302	2692	749	-15344	5808	7056	364	-6118	4016	-13296	-1128	-11152	-1545	-5390	499	-11488	5560	-11600	-2308	-2515	719	125	128	1
-9232	-6616	11016	-208	2961	455	-15904	1584	-3384	-4913	6631	-2694	-14728	80	-1288	-1455	2979	517	-22728	6744	9152	664	-5741	4066	-15184	128	-15536	-1072	-5817	867	-9608	5304	-8416	-3144	-2532	395	124	130	1
-8544	-8892	10580	-829	3025	636	-16600	-1584	-1936	-8730	6841	-3866	-20504	3064	-1384	-1876	3238	476	-29312	5312	9920	815	-5769	3639	-15768	2696	-17248	-686	-5798	1128	-9128	3600	-5368	-2752	-2492	-169	124	130	1
-8632	-9440	10920	-522	3532	1647	-17548	-5180	-992	-6514	7179	-2511	-17176	80	-1264	-2206	2810	674	-31056	4784	8496	1240	-5685	3151	-18120	1536	-17888	-486	-5700	1422	-7696	-1528	-2624	-2467	-2430	-771	124	128	1
-7756	-10816	11116	-272	4185	3120	-17840	-6008	880	-1615	8367	840	-16184	-4304	-5944	-1332	1605	733	-32744	10096	5848	1129	-5244	2988	-19080	528	-20024	-24	-5328	1813	-7496	-5128	712	-1481	-2464	-1047	123	123	1
-8232	-11380	12000	207	5814	5793	-19004	-3564	-1748	1828	8515	698	-20480	-3680	-4624	-171	1222	630	-32312	8360	2872	517	-4088	3785	-15360	4672	-22224	-551	-4990	1756	-9904	-9224	4648	471	-1877	-684	123	123	1
-9996	-8716	11944	42	8811	7425	-18980	960	-2464	796	9839	1134	-22528	1240	504	502	1284	223	-32768	4152	776	59	-2913	4206	-13000	8312	-24128	-2307	-4415	1168	-12272	-3952	8792	2280	-1143	60	122	126	1
-10328	-8396	13028	-105	12842	8538	-21052	888	-1772	-542	11234	-111	-21328	3944	592	-523	1255	99	-32768	-6016	152	-394	-2359	3652	-11232	2768	-29864	-3951	-3686	598	-11608	2512	7784	2930	-466	832	124	130	1
-9164	-8756	14340	-638	17854	10193	-22352	1064	88	-2285	12997	-557	-22248	6448	3224	-596	1240	291	-32768	-14776	-5592	-185	-2321	2406	-13704	-3968	-32384	-3380	-2371	-40	-12240	9216	5304	2096	29	1468	124	135	1
-9332	-9736	14740	-1630	22490	12672	-23372	144	1184	-3500	14537	-658	-24088	4328	3400	-745	962	415	-32768	-14888	-13216	-220	-1609	822	-11144	-8152	-32768	-817	-1034	-374	-12944	16784	9768	778	-249	1858	123	137	1
-8684	-9156	14232	-2214	28335	16013	-23204	-2044	3576	-1864	16214	778	-24256	344	3312	-1253	938	257	-32768	-9872	-16688	-209	-560	87	-2568	-1344	-31368	1437	128	25	-9352	18464	12608	-1067	431	1444	124	135	1
-9272	-9852	13376	-3145	32767	19843	-23160	-2100	5104	-112	17334	1245	-24680	-2432	6200	-1107	764	35	-32768	-6784	-24848	-1458	1007	-946	-2144	4168	-29176	1318	1240	201	-1464	10704	-4952	-928	2502	-86	122	147	1
-9164	-9820	12140	-3175	32767	24101	-21888	-304	6684	-1721	19303	674	-21352	-2936	6896	-926	203	-211	-18352	3248	20952	-1635	2352	-695	-12560	4424	-4968	1171	2482	-358	-5024	744	-4664	-1187	1851	-1193	123	118	1
-11672	-7796	12708	-5320	32767	26678	-20108	1392	6808	-6712	22233	227	-19168	-3464	9624	-733	-441	-427	-10616	-6840	21408	-614	1912	-1633	-32768	-8064	-9512	-3356	2335	-509	-28016	8928	24840	-4840	-346	-976	123	108	1
-24184	-4672	10320	-6920	32767	27714	-23936	-420	-2940	-11765	23637	-544	-26064	-1848	16328	-780	-2651	-431	-13424	11168	13328	-467	1861	-854	-13024	4384	-6968	-591	2747	-1611	-32120	-1448	-12296	-4633	2952	917	124	178	1
-32768	-12876	10248	-7278	32767	26481	-28588	-2860	2360	-12095	27152	-1885	-18680	1920	-2136	-1781	-2694	-841	-15528	8712	14392	-728	1383	-811	-8848	8184	-11280	-1726	2067	-691	-19592	-18760	-1128	-1358	2186	1571	123	127	1
-32768	-12132	13812	-15777	32767	20929	-23032	-2496	-1144	-15218	28145	2166	-18896	8344	-9872	-1740	-2645	-586	-12432	2760	17080	-336	779	-541	-20792	-7104	-11456	-2979	1542	-354	-14048	-6376	-3592	1464	1736	1388	123	127	1
-32768	-20592	13824	-15656	32543	12324	-27836	-652	-11520	-14785	26670	2949	-21424	3304	-11936	-1149	-2466	-1319	-10936	4344	14048	-202	472	-231	-20456	-6784	-9416	1257	1245	-59	-12744	4960	-1776	1628	1813	825	123	123	1
-32768	-26296	21976	-6106	6181	-40	-22380	-4752	-13132	-11122	20034	3281	-26408	2912	-9288	-399	-2337	-2062	-9096	5184	13952	2	354	-138	-15432	888	-5912	1808	963	339	-17392	5912	-1856	700	1903	427	122	126	1
-12320	-17568	18340	-166	-14282	-12475	-17660	-7016	-1848	-5913	11559	5629	-27272	2296	-8352	578	-2855	-1802	-8920	6856	13072	77	320	-131	-16088	5848	-5040	1299	712	458	-18240	4096	1192	83	1823	60	123	114	1
-9220	-9996	14468	1956	-20955	-12239	-13340	-3224	-4648	4442	2698	5402	-23536	4608	-6352	1475	-3353	-1596	-8440	7696	12176	3	256	-166	-15344	7264	-4752	305	779	121	-18984	3520	1296	498	1943	-65	124	126	1
-6788	-6664	12556	1421	-31174	-12478	-7668	-1072	-5604	9325	-5444	5508	-21400	6872	-3856	1352	-3374	-1519	-8248	7608	12096	-22	249	-185	-16152	5232	-4896	-473	648	9	-16264	3328	2216	828	2023	-354	122	133	1
-1792	-1308	9756	-175	-32768	-11540	-6808	2476	-2512	8279	-13457	3855	-19408	8376	-2568	1026	-3093	-1279	-9280	6856	12688	-187	192	-204	-17464	2272	-5296	-334	538	-62	-14584	5808	2288	567	2013	-64	124	133	1
820	-1440	6964	-2784	-32768	-8868	-9992	4576	-12016	2757	-15648	1758	-16720	8520	-3872	1085	-2652	-910	-8720	7472	12616	-171	198	-164	-16896	1408	-4976	359	495	65	-14520	6976	2192	364	2212	250	124	132	1
-2864	-2632	7444	-3401	-32768	-9564	-7024	8948	-4992	-3099	-22628	-778	-13480	7232	-4600	644	-2240	-740	-9304	7272	12752	-165	132	-164	-15440	3800	-3904	835	477	61	-13960	3640	2808	137	2225	255	122	118	1
-3356	-4372	8580	-1093	-32768	-15414	-4628	7596	-4800	-11167	-27050	-3667	-10336	5312	-5568	287	-1888	-644	-8600	7352	12616	-134	96	-152	-15056	5480	-2512	732	478	-20	-15368	240	2976	443	2136	-44	124	124	1
-3952	-3204	9168	1461	-32768	-20928	-8132	4904	-3352	-10851	-32454	-5696	-8488	3568	-6072	240	-1675	-502	-8488	7592	12744	-103	105	-176	-15768	6072	-3248	62	535	-91	-18080	-896	2376	1232	2129	-107	123	129	1
-7668	-3524	10572	2282	-32768	-24416	-9544	3568	-4588	-6127	-32768	-6279	-6776	2856	-6512	486	-1432	-334	-9480	4608	13048	-52	86	-148	-15416	2568	-4256	-341	696	-159	-16072	320	1560	1602	2133	95	123	130	1
-11400	-3720	12916	1719	-32768	-25705	-10928	3420	-6420	-2386	-32768	-5500	-5104	4112	-5880	904	-1112	-74	-8848	6504	12600	18	129	-100	-16184	1464	-3824	46	737	-182	-14096	3592	1304	1504	2155	137	125	127	1
-11976	-3580	13256	1612	-32768	-25646	-11264	3480	-6668	-1840	-32768	-5477	-3584	3392	-5408	1160	-763	209	-9072	7232	12152	15	144	-164	-15544	4216	-4696	360	677	-56	-14456	7200	424	1288	2316	80	125	127	1
-19672	-5528	15388	-1139	-32768	-22461	-16548	4544	-9616	-1286	-32768	-4762	-3408	3784	-4624	1184	-418	334	-9312	6848	12456	27	161	-230	-15872	3624	-5304	486	633	-36	-15640	6640	-432	835	2548	65	124	123	1
-24988	-7676	14676	-1221	-32768	-21144	-19992	4784	-10740	-1323	-32768	-5349	-5400	4984	-2824	789	-44	294	-8936	6608	12736	49	202	-278	-16576	3536	-4960	563	722	-100	-16368	3096	-304	684	2800	113	123	120	1
-27620	-9536	13140	-444	-32768	-22216	-20472	4872	-10708	-1058	-32768	-5488	-8056	5960	-712	37	190	226	-8768	6120	13096	91	322	-315	-17112	3280	-4392	395	831	-152	-16000	2064	1176	896	2756	195	124	127	1
-32768	-11952	11684	5165	-32768	-21284	-22020	1828	-15072	-2193	-32768	-6647	-12144	5480	5048	-851	128	243	-9256	6128	14016	141	550	-371	-16944	3344	-2320	141	1271	-271	-16904	2224	2456	631	2383	116	124	129	1
-32768	-10516	2252	5837	-32265	-20008	-23480	-2836	-16016	2523	-32768	-5472	-18592	1576	11504	-1333	19	209	-8608	7184	14456	194	869	-529	-18800	2664	-1296	230	1473	-276	-19320	1480	2984	0	1861	32	124	130	1
-32768	-9456	-8964	7957	-21711	-18286	-16648	-3940	-18824	12013	-27368	-3498	-22288	-2760	16584	-1139	32	214	-9280	7184	14232	130	1249	-733	-17184	3768	-2936	347	1746	-290	-18160	1792	5400	167	1385	83	124	128	1
-32768	-1168	-12772	5539	-8680	-17560	-13344	2324	-25132	17070	-15655	-2559	-23400	-8840	20424	-1010	6	595	-10440	6872	14584	17	1712	-984	-18416	5152	-4840	119	2061	-396	-18144	4888	3176	1076	1146	87	125	129	1
-32768	5484	-14804	6835	1371	-7342	-9084	-3988	-21652	10303	-1223	1330	-18576	-10464	18552	188	-51	189	-10296	8120	15960	-147	2282	-1333	-22336	4568	-4536	147	2233	-512	-21080	7984	-696	1315	1090	-228	123	130	1
-28348	10312	-25048	-4193	16345	7697	-6964	2328	-26348	10408	13596	4920	-17224	-2776	10736	1148	-30	-823	-10912	8624	15520	-257	2951	-1882	-23656	3280	-3520	542	2477	-456	-22200	9104	3152	876	935	-473	123	130	1
-26508	-10528	19668	-3674	26729	13251	-26008	6004	6036	-21357	24123	-1476	-26504	3344	4272	588	224	-1183	-11520	11504	17512	-350	3695	-2566	-25176	7240	-1672	802	2804	-481	-24192	7552	6000	72	521	-255	123	130	1
-24936	10176	16120	-3801	27811	10869	-32768	14796	-12372	-1172	26114	-12345	-20072	776	13680	-629	-723	-469	-7256	12112	12320	-536	4399	-3671	-29944	10376	-488	543	3074	-571	-31096	8360	11392	-309	-233	-179	122	136	1
-12320	-10920	13296	-4547	20759	9668	-12540	-5404	-4524	-12682	28567	1798	-14072	-2880	-15568	1140	1103	1151	-11160	17288	17680	-346	5658	-5427	-32768	5416	5000	1336	3194	-91	-29840	11576	19976	-384	-2409	5	123	126	1
-12448	-20304	6432	-985	21717	6077	-11612	-15976	-6836	13802	19229	4562	-7064	8376	-12760	3139	1272	-338	-25088	5368	11680	304	6711	-5788	-27600	2088	-3640	2160	3594	422	-16952	-11424	3152	-435	-1413	-240	125	125	1
-21808	-8844	12320	2030	13069	8582	-16384	-2532	-12000	32767	12236	6068	-6832	-1408	-304	15	1306	-857	-25352	6568	19248	1303	7716	-5539	-26048	3728	1960	3992	3202	171	-23208	-9888	136	-444	-3108	-597	124	131	1
-14432	-4716	11732	2853	7678	5629	-17376	10028	-13196	24780	10060	5626	-18472	5232	-8496	753	1310	-344	-32768	18528	18432	1357	6652	-5196	-24544	8984	-8984	4164	2931	-104	-21848	1440	-17424	3846	-3388	-382	124	132	1
-9660	-6536	10848	2894	3309	3709	-21804	7180	-8052	6585	10883	-2092	-23288	1448	-7784	921	1514	576	-32768	27888	22224	-415	3397	-4594	-18224	8056	-16416	2257	2629	329	-26056	1352	-15976	3589	-3586	700	121	132	1
-11144	-6084	12188	1061	2325	1614	-12784	6028	-8084	-8009	11166	-5634	-19912	4016	-4392	1425	1493	652	-5296	32456	27128	-299	-772	2011	-24584	-144	-1448	1366	1480	-300	-29840	5152	-6672	1135	-4230	562	122	133	1
-10152	-8060	10848	534	1903	662	-16460	64	-5960	-19445	10129	-8133	-15720	3656	-3048	621	2030	330	-1096	15512	17056	-1191	-70	2982	-14304	9112	3392	1440	27	552	-27800	9328	-4368	-83	-4245	715	122	130	1
-9848	-8200	10556	1144	1620	767	-18540	-5724	-3788	-13612	7751	-6643	-14336	1880	-1664	-114	2172	362	-5400	7056	21472	-142	-1505	3102	-3648	8312	-5016	-1292	-753	522	-23136	7336	-3848	-368	-3651	1332	123	123	1
-9160	-7764	10452	1477	1340	903	-16660	-4840	-2520	-1152	5754	-1671	-15472	-104	-576	-417	1960	636	-2432	4672	18672	672	-3167	2953	-6072	5456	-408	-2676	-1751	1179	-21312	2016	-3736	-594	-3399	1278	121	126	1
-9272	-6976	10876	1678	1502	1115	-16920	-2180	-3096	6625	4611	1146	-15384	-1760	-688	-455	1889	900	-3904	5728	15568	934	-4075	2874	-12272	1384	-3912	-3989	-2686	1425	-17096	488	-6432	-848	-2860	958	127	128	1
-9908	-7356	11096	1711	2027	1099	-16492	-496	-3500	8700	4150	1945	-14808	-1096	-896	-34	2027	786	-5768	7144	14264	857	-4566	3347	-14880	-5112	-4760	-3786	-3767	972	-14824	576	-7600	-1101	-2596	946	123	129	1
-9768	-6724	10896	1582	1610	765	-15788	1648	-3252	5696	4608	285	-16496	3256	-8	42	2271	467	-8016	6528	14152	566	-4597	3974	-14056	-7840	-6056	-2752	-4530	846	-12480	712	-8384	-1264	-2230	644	124	132	1
-9404	-6188	11188	1049	2033	271	-12736	3248	-2820	-497	5937	-2004	-16648	5800	744	-341	2419	590	-12728	5064	16608	374	-4543	4639	-13576	-5112	-6432	-1892	-5273	999	-9456	1168	-8560	-1447	-1703	412	124	131	1
-9800	-6156	10988	686	2420	275	-15544	2064	-2732	-5239	7646	-4091	-15616	4704	-616	-737	2416	820	-18544	1272	21920	466	-4742	4757	-17752	-3488	-8896	-1374	-6069	1098	-6816	1360	-7608	-1860	-1233	135	124	132	1
-10020	-6840	10796	-82	2820	45	-15712	1616	-2960	-5601	7859	-4207	-14344	2304	-240	-1093	2486	786	-23568	-3176	23408	1068	-5327	4034	-21000	-4072	-10168	-742	-6220	1016	-5136	2000	-5160	-2418	-1143	-164	124	128	1
-10056	-7812	10548	-714	3276	218	-16972	-4608	-1964	-2073	8299	-932	-15616	-1568	408	-1440	2788	797	-27288	384	21848	1596	-5724	2759	-23368	-5200	-12232	388	-6214	1142	-5056	1672	-1944	-2466	-1502	-405	122	129	1
-10160	-8864	9612	-422	3641	888	-16408	-4120	-2380	2989	8551	1676	-17560	-4200	-2840	-1605	2655	735	-27424	5448	17720	1476	-5439	1986	-24944	-1472	-12456	1182	-6121	1707	-6304	-2536	1600	-1728	-1302	-348	125	130	1
-9944	-8708	10248	-348	4467	2130	-17160	-2096	-4056	4843	8495	2484	-15968	-1496	-7688	-712	1780	535	-32768	8464	15264	1365	-4655	2482	-21576	1096	-15960	549	-5989	1884	-9704	-9344	6576	-139	-1102	-38	123	123	1
-10524	-7132	11632	-867	5895	3293	-17812	2036	-4176	1303	9365	1612	-17520	2384	-4520	978	1496	581	-32768	5256	10984	929	-3936	3166	-20184	5320	-17800	-773	-5236	1256	-11288	-9512	11144	1269	-1105	-272	122	127	1
-9872	-8700	11980	-1660	7982	4510	-18296	1400	-1468	-3486	11351	-41	-19776	320	1288	741	1263	651	-32768	744	2016	-119	-3635	2886	-17408	7824	-20400	-2232	-4232	728	-12656	-456	13832	2762	-1133	-398	124	127	1
-10376	-7228	12756	-1537	10665	6144	-18212	-200	-708	-3459	13596	-821	-20064	1880	5232	127	1206	477	-32768	-4064	-9352	-956	-2548	2604	-15760	1088	-24920	-3516	-2793	-29	-14616	3936	13072	2726	-697	-31	122	131	1
-10688	-6716	14396	-799	15017	8108	-21336	-500	-2192	-1297	15944	303	-21152	5808	6264	-594	1115	202	-32768	-6672	-19104	-1599	-939	2374	-12760	-1208	-27840	-2506	-969	-486	-19920	11664	15144	1313	-437	939	123	134	1
-10972	-8204	15136	-448	21567	10766	-23184	732	188	1694	19044	1492	-23112	8264	4448	-1117	962	36	-32768	-15616	-19536	-1364	497	1433	-4864	1920	-28976	-1381	744	-411	-17960	16760	14848	-159	-29	1254	123	116	1
-11776	-8596	14876	-67	29345	13961	-24772	884	68	3523	21670	668	-23840	928	2744	-1488	787	255	-32768	-9104	-23328	-1504	2057	-500	-5736	5304	-24504	-544	2048	-152	-18544	11600	12488	-2014	698	369	123	135	1
-9960	-9956	13992	-971	32767	17525	-23508	660	1812	2911	23647	82	-23616	-6120	2744	-1445	530	284	-21424	1448	32767	-959	3651	-2116	-24536	312	13704	1690	2772	106	-3136	7536	-4504	-2439	1889	-744	122	122	1
-9468	-10336	16368	-1973	32767	23968	-27644	-600	5252	-1606	24961	527	-25160	-8240	6264	-943	8	24	-18168	-12048	11688	-409	3189	-2526	-32768	-18216	-17456	62	3184	472	-24184	7048	5496	-938	-50	-288	124	138	1
-11020	-9556	17616	-2712	32767	32172	-32528	-3456	5404	-7732	23975	-20	-32064	-7928	21376	-533	-2153	-228	-16912	13616	15600	-670	2500	-1513	-15672	11328	-7824	2220	3215	-1016	-24984	-1792	-5296	-3482	1718	-411	124	122	1
-29020	-28616	10684	-2661	32767	32767	-27740	-6568	7296	-12278	31113	-282	-18008	-1712	2568	-632	-2730	-927	-23712	9168	13248	-833	2269	-863	-7320	14648	-12864	-1190	2772	-691	-19104	-4064	-10392	-1239	1278	574	124	131	1
-30544	4676	18244	-11699	32767	32767	-23980	956	-7784	-16491	26951	-4207	-21632	8328	-7056	-263	-2952	-667	-15448	2472	15536	-602	933	-756	-15480	4016	-13144	-4954	2008	-573	-16328	-4352	-4416	309	1384	1438	123	117	1
-32768	-18280	19708	-11674	32767	27811	-27388	-4012	-10952	-20127	31130	4544	-22560	3336	-17576	-968	-2621	-1462	-11472	3936	12944	-191	465	-219	-23648	-9688	-12600	-2919	1635	-705	-13792	4536	-5936	912	1802	1125	124	130	1
5252	-20892	17840	-4134	20198	19406	-23552	-6204	-11092	-14207	22534	1705	-28456	5760	-12608	-627	-2498	-2223	-11264	5048	13112	9	244	-100	-18440	-5544	-8408	686	1450	102	-16368	9664	-4072	-428	2013	416	124	135	1
-8580	-18916	21200	-4731	-5980	-6098	-20776	1052	-5464	-4615	9778	8946	-29832	5072	-9152	616	-3008	-1843	-10536	6216	12600	126	225	-46	-13592	1000	-6608	2152	966	516	-19864	4552	-2792	-1182	2021	130	122	129	1
-5856	-12200	15576	-793	-7547	-9369	-12708	-2180	-2004	-2645	1548	6047	-25432	7104	-7464	1706	-3560	-1648	-10304	7456	11968	45	196	-74	-16800	7280	-5552	2126	779	729	-20144	3400	-2424	-1144	1973	83	123	126	1
-6440	-8356	14548	1008	-17473	-13418	-6960	552	-5876	1819	-7282	3119	-22760	7816	-5624	1242	-3589	-1861	-9568	6408	11520	-25	199	-77	-15936	6888	-4472	1219	556	311	-15440	-1048	1584	715	1977	70	124	131	1
-3508	-4764	14056	-163	-28907	-17206	-5296	936	-3904	1488	-16940	1167	-20464	10032	-3000	714	-3200	-1745	-9968	6832	11792	-152	273	-59	-16952	6536	-5392	147	450	126	-15272	2304	336	1411	2002	22	124	129	1
-5384	-4960	11332	-1393	-32768	-18806	-8028	1260	-4288	2400	-24952	-1289	-16776	8880	-5128	559	-2536	-1319	-10112	6328	12240	-119	266	-38	-16616	4504	-5296	-444	505	-46	-15280	3984	856	1164	2189	34	124	126	1
-5600	-6580	8916	-1020	-32768	-19130	-8448	2796	-4524	2837	-31475	-3436	-16480	8528	-5464	521	-2423	-1290	-10416	6064	12392	27	264	8	-16488	1880	-4200	-2	610	-74	-14880	2984	840	945	2395	28	123	127	1
-5484	-6572	8456	-781	-32768	-19119	-7748	5020	-4320	1013	-32768	-5077	-11248	5944	-6584	-55	-1514	-945	-10224	7440	11240	42	216	-6	-15088	3856	-3200	671	575	-17	-15624	3832	728	1264	2302	187	126	130	1
-9972	-6856	8868	-1502	-32768	-25639	-8624	5012	-5824	127	-32768	-7640	-8232	3688	-8088	65	-1135	-745	-9952	6928	11408	26	160	-63	-15504	4080	-3560	1086	412	150	-16160	3800	952	1651	2314	262	123	135	1
-12888	-8556	10336	-789	-32768	-30537	-11516	3576	-5880	225	-32768	-9310	-5176	3064	-8320	876	-1007	-444	-9976	6480	11584	18	124	-103	-16104	4256	-3712	1299	429	168	-15208	2784	1072	1788	2442	131	124	126	1
-18852	-6060	13208	-1832	-32768	-32768	-15412	2728	-8892	3688	-32768	-8895	-3272	3536	-8200	1933	-1044	-22	-9888	6472	11800	33	117	-136	-15832	5664	-3496	1102	564	24	-14496	3832	1608	1774	2605	-5	125	126	1
-21552	-7884	13768	-2522	-32768	-32768	-17400	3956	-9784	4738	-32768	-8410	-2168	5368	-8088	2437	-1138	333	-10072	6480	11672	31	150	-152	-15600	5504	-2440	683	675	-86	-14928	7304	2512	1495	2817	103	124	123	1
-24288	-6956	16608	-2523	-32768	-32478	-20128	6368	-11668	1743	-32768	-9548	-3288	5752	-5552	1961	-991	451	-10112	6840	11936	46	187	-198	-16392	4600	-2088	206	861	-186	-16464	7920	1664	1293	2716	95	125	127	1
-30392	-8324	17996	-2820	-32768	-30424	-20700	6476	-11564	291	-32768	-9819	-6584	5872	-1800	1058	-619	252	-10312	7208	11816	36	228	-290	-15888	4544	-3048	196	1010	-246	-17296	5728	-1216	908	2124	3	125	128	1
-32768	-5968	19508	-2582	-32768	-24998	-26740	1892	-13316	-3365	-32768	-12155	-10080	7144	3240	-413	-251	-35	-9800	6920	12336	88	381	-375	-17256	2648	-2896	176	1239	-269	-16688	1320	-696	-95	1643	174	123	128	1
-32768	-10396	12892	-2409	-32768	-21399	-26280	356	-16208	-600	-32768	-9754	-14680	5176	8040	-1211	-81	-136	-9920	6712	13512	214	650	-454	-18440	2120	-1984	387	1426	-293	-17096	1240	-128	-200	1629	189	123	129	1
-32768	-11316	-1116	1141	-30287	-23465	-22340	-836	-17012	6233	-32768	-8087	-21048	1864	10560	-1851	133	-101	-9984	6848	13672	294	1021	-568	-18224	3240	-2008	399	1690	-310	-19512	2856	5240	414	1280	-27	124	128	1
-32768	-5904	-10340	2303	-14811	-26667	-17104	3780	-25760	15753	-28426	-7194	-25704	-7288	21408	-1808	109	112	-10584	7144	14528	120	1558	-767	-19136	4360	-3584	60	2011	-329	-18688	1880	4328	799	1105	-9	122	129	1
-32768	9952	-18196	2469	-4793	-16140	-9276	-1892	-23596	7872	-10343	-3389	-23272	-17208	24840	-1351	161	-190	-11080	6976	15192	23	2288	-1036	-22304	3616	-4568	-242	2255	-501	-20936	1000	1256	820	965	-29	123	130	1
-32768	18172	-19496	3671	943	3134	-5852	2708	-23596	11176	6523	3654	-20064	-10728	13728	736	-197	-641	-10224	7448	15672	18	3031	-1466	-23824	2952	-2104	45	2444	-536	-22760	6264	3160	1052	1024	-235	123	130	1
-32768	2608	-10932	-2583	8624	10173	-9824	4868	-22112	-3368	20656	2607	-19208	-2400	1752	1938	-242	-941	-10808	8480	14568	191	3849	-2001	-23216	3592	-600	553	2707	-426	-21432	7216	5592	714	614	-201	122	133	1
-26636	-5228	-4264	1276	13514	9314	-14180	-1212	-17324	-4900	25341	-203	-10040	3664	-4144	961	834	-334	-10432	9696	14120	322	4590	-2824	-23352	5720	1680	859	2999	-408	-20784	5664	10280	502	200	-139	123	131	1
4496	-24692	25232	-1443	20035	10484	-32768	-4484	22500	-2669	14510	-77	2576	4632	-15184	-667	1270	-132	-10256	12048	14000	485	5432	-4002	-26648	7448	1584	1279	3126	-230	-23552	4600	15960	454	-542	-95	122	133	1
-17180	548	21440	-6805	32767	8965	-27688	7024	-5076	10600	16376	-6247	-27904	1464	2584	-543	57	1851	-13160	14016	16248	487	6796	-5328	-32768	6512	6184	2229	3140	-32	-21104	-5088	15144	-1552	-2759	122	123	133	1
-28608	-8180	16284	-5980	26881	11885	-26392	1856	-11632	4743	23075	4521	-27640	-6992	8784	4113	-567	429	-32768	-592	12608	988	7373	-5259	-26544	2648	-7240	2550	3286	198	-26072	-5088	6464	1105	-1899	-134	122	126	1
-17664	-12112	11604	-4439	20010	5240	-18080	-3992	-6684	11824	21119	5310	-15016	18608	-15552	4032	790	-1038	-32768	17816	15488	1352	7213	-4435	-27752	9536	-5152	3704	3265	-497	-22456	7192	-11752	2851	-3126	-517	128	131	1
-9256	-16040	7020	511	8829	5028	-15640	-4144	-10216	16239	15651	2488	-9488	9832	-9456	-515	2124	-945	-32768	27656	24192	611	5559	-4280	-24376	11408	-14008	2215	2907	-417	-26448	12176	-18384	2691	-3195	230	122	133	1
-12264	-7748	11848	3343	3304	3537	-15804	-900	-8844	12529	10978	-505	-12216	1968	-10000	-1029	2242	418	-32768	27976	29512	-1619	1174	-2241	-18488	3760	-13184	-112	2103	-115	-29952	5536	-11888	-296	-3798	752	122	131	1
-10440	-9576	10648	2333	1791	1869	-16336	5472	-7592	-956	9446	-2789	-13608	-4024	-10320	-1692	1816	1021	1744	18896	20424	-423	-1393	1734	-21024	4096	-128	478	963	-706	-29912	5384	-7616	-1950	-4211	416	124	131	1
-9864	-7824	11240	1461	1614	1108	-16400	2868	-7024	-15648	8972	-6401	-18464	-5088	-6104	404	1736	971	-4688	12608	17072	-297	-1885	2011	-10648	5496	-5136	-257	-334	-107	-26928	2608	-4032	-1947	-3929	923	123	131	1
-9460	-7940	10664	510	1689	375	-16712	2284	-6484	-17268	8687	-6774	-18824	2432	-3648	1047	1775	412	-6496	7664	16976	-282	-3537	2279	-4352	3720	-4968	-1274	-1370	149	-23944	-760	-3840	-1165	-3774	1102	123	126	1
-8860	-8960	9816	671	1860	391	-19104	-4672	-3180	-15727	6985	-6665	-18344	5600	-1192	212	2277	416	-3992	5288	12608	193	-4865	2616	-6384	2344	-2960	-1715	-2470	485	-19416	-1216	-5656	-653	-3218	917	124	128	1
-8764	-9116	9724	1683	1612	937	-15660	-4692	-1560	6276	3876	562	-15840	2376	-520	-276	2358	554	-3784	6112	9208	411	-5616	2553	-9840	16	-4288	-1940	-3354	767	-15960	208	-7384	-502	-2741	810	124	129	1
-9124	-8452	9884	2419	1225	1044	-15604	-892	-2352	6784	3480	1398	-12800	-1264	216	-434	2442	571	-5640	7472	8512	413	-5650	2716	-9736	-2288	-4728	-1820	-4127	893	-12480	1360	-8784	-691	-2150	536	122	130	1
-9396	-8288	9644	2673	1470	1201	-16204	780	-2536	-232	5197	65	-12552	-1456	-344	-675	2491	521	-7192	7448	9352	303	-5387	3237	-10632	-3400	-5720	-1464	-4897	950	-9488	2280	-8704	-877	-1850	419	123	132	1
-9748	-7604	10148	2458	1103	586	-15652	940	-2272	-4849	6615	-1178	-15448	2144	144	-1009	2536	530	-12680	7496	11816	426	-5040	3841	-12288	-1456	-7768	-1254	-5410	1063	-6456	3416	-9128	-1318	-1436	278	123	130	1
-9028	-6736	10596	1172	1129	47	-14844	876	-1700	-8586	7292	-1541	-17160	5696	1576	-1381	2832	533	-17768	5048	16040	548	-4996	4078	-14792	-72	-9448	-1252	-5898	1163	-4384	2640	-9880	-2449	-1083	40	124	130	1
-8640	-8096	10292	326	1573	-83	-17076	-2840	-536	-8599	7570	-1279	-16504	5616	2328	-1805	3138	417	-18584	4208	16368	625	-5030	4063	-17728	-848	-11144	-961	-6156	1269	-3576	1344	-8592	-2973	-1118	-274	123	127	1
-9616	-8336	10236	94	1944	712	-17424	-4520	424	-3376	8240	185	-16928	5144	1960	-1796	3044	382	-26424	5728	17440	1450	-5397	3132	-19360	-1352	-13120	-312	-6239	1498	-4784	624	-4880	-2472	-1339	-561	123	127	1
-9388	-9128	10136	13	2532	1063	-13228	-2452	132	1028	9632	1892	-16008	-5248	-7648	-784	1147	667	-27560	7456	16520	1298	-5138	2941	-21736	424	-13608	139	-6208	1812	-7032	-2456	520	-1161	-1426	-602	123	127	1
-9800	-8080	10552	-764	3158	1219	-15752	388	-2612	914	10487	2255	-18680	-6088	-2336	23	1377	477	-32768	8368	16736	1322	-4752	3202	-21856	2944	-16432	-187	-5916	1670	-8824	-5752	4808	523	-1106	-286	124	121	1
-9156	-7880	11040	-1437	4306	1397	-17536	-1748	-1756	-37	12093	3436	-18848	-496	2760	-20	1312	140	-32768	4952	13152	1120	-4511	3276	-20616	5184	-17448	-863	-5430	1306	-10648	-4912	7408	1579	-426	34	122	133	1
-8796	-10028	11520	-2560	5991	2819	-18148	-1448	-584	313	13608	2500	-17992	4600	1136	-319	1053	266	-32768	3184	4888	590	-4037	2786	-22480	3376	-19080	-1652	-4663	1068	-15848	592	9584	2718	239	425	123	129	1
-9264	-10056	11464	-2875	8655	5058	-18224	200	-648	-753	16280	1273	-18096	4520	2256	-371	930	379	-32768	-4632	-6168	-330	-2916	2138	-18264	-1208	-23608	-1756	-3214	614	-16040	4224	17920	2477	100	794	123	130	1
-9728	-8792	12956	-1319	12559	6987	-19256	-328	-2660	-548	18727	926	-17872	2416	2240	-800	1023	161	-32768	-14512	-15456	-1023	-1338	1174	-10112	1864	-27472	-1294	-1346	190	-22952	15488	23904	213	-1095	993	122	134	1
-10624	-7948	14412	-1099	18251	9174	-22524	148	-4460	4860	19662	2677	-20480	4248	224	-1314	1227	2	-32768	-14240	-20752	-831	166	179	-6456	2032	-26632	-1527	875	-267	-19128	18288	19344	-1249	-190	622	122	115	1
-10992	-8060	13228	-1801	26087	11477	-23100	2084	-776	9449	21985	2863	-22600	1224	-496	-1274	1038	455	-32768	-3544	-27272	-2316	3023	-1728	-9280	1640	-29224	-1169	2703	-30	-17944	5432	13848	-2073	259	-242	122	164	1
-10808	-10084	13596	-2882	32767	15072	-31620	-24	648	6834	23393	-142	-22704	-5360	800	-603	677	660	-7592	30912	32767	-849	3601	-871	-32768	4928	32767	2150	2578	-905	-19120	3344	14336	-2241	138	-434	123	140	1
-9228	-12228	14208	-3659	32767	18656	-25396	-908	3560	565	24774	18	-25376	-8792	3280	-18	345	291	-21808	-11064	17416	-556	3570	-1985	-25576	-12784	-16792	921	3600	150	-17616	4000	-13584	629	1107	-7	123	111	1
-9784	-12492	14756	-5703	32767	26837	-29452	-3040	3596	-1644	25298	697	-28944	-7096	7472	433	-547	-147	-6856	14056	10512	-455	2734	-1489	-8232	7512	-10608	1763	3227	-983	-21960	-6568	-6328	-1485	1387	-73	124	126	1
-15412	-18860	12060	-8643	32767	32767	-30896	-1364	13220	-13732	29418	2321	-20912	-6336	8672	30	-3417	-972	-23432	12184	12240	-1030	2760	-1294	-9744	17528	-10792	-787	2466	-464	-13888	-2280	-6944	251	787	479	123	116	1
-32768	-4064	15692	-11131	32767	32767	-23816	-796	-1700	-13983	28236	-8138	-17496	10104	3584	-314	-2875	-680	-9544	-1592	16136	-651	1146	-1033	-19424	3280	-14640	-4594	1807	-337	-16736	5736	-2624	1191	1164	1426	124	120	1
-32768	-11552	17976	-19630	32767	24546	-24052	-324	-8252	-18658	32649	7789	-20952	6896	-18104	-843	-2222	-1104	-18888	2160	19968	-632	1070	-942	-24864	-10312	-13392	-2521	1751	-876	-18320	8264	-7744	228	2201	1118	124	132	1
-32048	-21480	20748	-11951	32767	20505	-32120	-4964	-11376	-11077	25758	6018	-26944	1720	-16776	-1438	-2316	-1972	-12312	4872	13400	-47	194	-162	-17008	-4816	-8568	741	1540	12	-19120	4728	-5376	-1619	2020	124	124	138	1
-32768	-23108	32767	5608	-2489	4063	-20732	-404	-7372	2670	15815	5964	-30064	3888	-7656	192	-3039	-1674	-10528	6112	12904	41	142	-68	-14632	1832	-5544	1792	1115	507	-19592	760	-1184	-1350	2014	0	124	117	1
3660	-13840	19496	889	-6846	-4532	-18088	-1872	3288	305	3439	10407	-27984	4816	-6768	1844	-3741	-1197	-10136	7128	11896	-11	51	-115	-15768	6440	-5776	1733	914	531	-14968	192	264	-136	1945	-41	125	133	1
-8032	-11348	17496	2284	-14866	-4772	-11216	508	-5368	5752	-4723	4267	-23648	8680	-5992	1910	-3990	-1376	-9576	6672	11920	-34	38	-125	-16232	8944	-4968	997	602	348	-13552	360	1192	1020	1899	-63	123	130	1
-5616	-6404	16912	3857	-29497	-8916	-5152	2980	-4760	754	-13664	2804	-21648	9864	-3224	937	-3468	-1585	-9808	6760	12032	-38	68	-101	-16624	6488	-4624	65	614	-43	-15632	4144	776	1695	1997	40	122	122	1
-4452	-4656	13400	2218	-32768	-9895	-8484	2232	-3028	-1302	-21688	1483	-19360	9648	-4592	243	-2901	-1296	-9816	6992	12032	-78	70	-92	-16248	5168	-3960	-332	744	-251	-15936	6648	776	1372	2247	134	123	113	1
-5788	-4532	10648	367	-32768	-9583	-10896	3480	-3960	-1122	-28914	-351	-16448	7616	-5360	-337	-2416	-1028	-9832	6600	11824	-99	78	-98	-15408	3888	-3720	-456	771	-255	-15352	4720	368	874	2424	218	122	134	1
-4148	-4060	9776	-440	-32768	-10294	-8496	7320	-3972	-4830	-32768	-1476	-12936	5624	-6256	-352	-2104	-877	-9640	5704	12280	-59	111	-90	-15592	152	-3512	-31	584	-95	-15288	2104	984	608	2427	175	124	131	1
-9224	-4852	10888	-3327	-32768	-16064	-8500	8068	-5784	-9063	-32768	-4683	-9736	4304	-8008	68	-1707	-638	-9856	5880	12128	7	115	-69	-16600	1800	-3656	841	486	111	-15744	1552	688	834	2336	-63	123	141	1
-11532	-7268	11844	-3315	-32768	-22382	-10284	5944	-5676	-11800	-32768	-8359	-6432	4160	-8848	899	-1549	-382	-9856	6344	12040	13	109	-93	-15288	5624	-3816	1026	596	110	-15048	1592	1704	1206	2401	-173	124	129	1
-16140	-5160	14920	-2874	-32768	-26839	-14156	3428	-8300	-8589	-32768	-10109	-4640	4544	-8840	1425	-1449	-27	-9800	7072	11672	2	81	-122	-15160	6896	-2984	550	762	-93	-14688	3920	1120	1387	2426	-138	122	127	1
-20968	-3548	16752	-4370	-32768	-26146	-16752	3416	-8948	-4274	-32768	-9374	-2576	5128	-8072	1565	-1381	354	-9912	6848	12160	-40	54	-195	-15904	4560	-2704	143	712	-165	-15240	7856	16	1333	2569	177	124	118	1
-25564	-5592	16524	-4542	-32768	-23816	-19764	6304	-11696	-173	-32768	-9948	-1600	6240	-5736	1129	-1355	527	-9720	6072	12088	-40	110	-228	-16560	3680	-3776	132	842	-240	-17624	7752	-80	931	2615	207	124	127	1
-29104	-7848	13708	836	-32768	-26171	-20960	6976	-14788	2600	-32768	-11435	-3608	6792	-2592	646	-1279	545	-9984	5800	12208	7	207	-282	-17304	2712	-4600	319	886	-223	-16416	4320	0	503	2447	233	123	125	1
-32768	-5496	11096	5397	-32768	-30963	-23748	656	-19896	9418	-32768	-8144	-7168	4320	2264	-2	-999	262	-9760	5896	12616	37	327	-358	-16840	2944	-1992	695	1021	-154	-15704	928	2432	306	2285	288	122	129	1
-32768	-8760	3176	10071	-32768	-31822	-20004	-3724	-23592	16630	-32768	-2060	-13096	-152	6952	-1172	-275	-91	-9040	6544	13264	75	542	-513	-16048	4696	1200	856	1405	-180	-18912	1000	7880	105	1988	163	122	129	1
-32768	-1588	-8672	10339	-25115	-27451	-17720	-480	-23712	22965	-32768	760	-19000	-2328	14960	-1682	461	-196	-9848	6096	14248	37	849	-681	-17112	4760	-1384	478	1885	-330	-20232	-40	8080	268	1485	283	123	131	1
-32768	2212	-12660	7530	-13361	-21991	-15032	-1700	-25500	14135	-20539	2707	-20888	-6608	15520	-1992	1093	153	-10976	6272	15456	-162	1456	-966	-20888	4616	-3464	55	2333	-566	-20968	-720	3992	1035	1070	389	123	129	1
-32768	1028	-13916	8788	-11779	-19947	-9180	-2864	-24544	11232	-6640	3501	-19288	-7224	12672	-710	725	350	-11008	7016	16672	-238	2194	-1449	-23472	1608	-2400	263	2598	-528	-21496	120	2928	1203	1033	368	124	133	1
-32768	3404	-17776	-427	1647	-555	-8232	-2448	-25120	387	6635	576	-17000	-6656	5696	1537	445	111	-10496	6408	16592	-245	2978	-1876	-22800	1168	-2504	729	2901	-414	-20888	9720	4128	1509	450	-332	122	130	1
-31576	-1552	-12052	-5988	4460	9346	-8624	-3256	-21016	-7413	15970	-2617	-13320	-4088	3336	1529	660	-300	-10992	8120	16752	-316	3782	-2326	-23768	3552	-1384	1101	3229	-422	-19656	7352	8376	795	84	-218	122	131	1
-17540	-2136	13848	-8848	26837	5435	-22788	712	7676	-16410	19174	-3376	-3632	-1952	-5872	-473	895	-117	-5552	8232	15984	-399	4545	-3192	-27272	8520	-64	1262	3499	-415	-23216	5592	15584	487	-470	-48	123	132	1
-32580	-1468	22372	-9453	32767	10520	-32768	11184	-10404	15023	17697	-10469	-32768	-6048	22096	662	-322	1589	-14624	18984	19792	-159	5825	-4927	-32768	11096	5136	1549	3731	-160	-25808	3112	16568	-771	-2791	157	122	133	1
-30116	-18988	19236	-9202	26154	9734	-21572	-56	-8644	1939	27317	4503	-23240	7440	376	3964	-324	537	-23768	11048	23808	-238	6973	-6588	-32120	7648	-1776	2143	3815	356	-25816	-4424	5024	310	-1861	-78	122	128	1
-32768	-27640	9528	-570	17427	5031	-15504	-14264	-13560	13178	22104	3724	-12880	9584	-14576	3707	1012	-927	-31512	12352	15776	1360	8198	-5000	-26216	5040	-11040	3464	3958	31	-21832	3072	-7464	1145	-3403	-495	124	125	1
-32768	-19020	12104	216	11182	5455	-17972	-2588	-14856	32767	12966	5172	-4584	7160	-8424	-1029	2090	-1066	-32768	31520	27624	780	5322	-4262	-27640	13168	-10768	3238	3877	-457	-25768	8296	-20504	2423	-3369	265	123	131	1
-10292	-4712	12600	1611	2836	635	-15664	11540	-12344	12209	11880	1009	-13792	2488	-10976	-944	1733	-27	-32768	29736	32767	-718	1711	-1171	-24696	2984	-3296	787	2227	399	-32768	224	-12368	189	-4047	659	123	134	1
-9612	-7964	11812	958	2024	-158	-16428	4256	-7828	-12097	13175	-5969	-18192	-5848	-10744	-1005	1631	1277	4160	24544	20424	-787	613	1804	-20304	7768	2104	1084	747	239	-32768	-200	-6440	-1003	-4879	326	123	131	1
-9316	-7932	11008	1455	1467	465	-14244	-1236	-6492	-19893	11320	-8028	-18112	-4896	-6336	976	1471	1215	-600	9456	21552	61	-310	2253	-7800	5536	-2560	-411	-521	525	-26640	72	-2904	-873	-4116	730	124	128	1
-9556	-7852	11120	1386	1679	842	-19592	-3732	-3656	-13323	8602	-6011	-17616	2288	-2888	1410	1540	248	-2024	7784	21512	920	-2151	2390	-5192	2456	-2024	-1295	-1547	1087	-22856	416	-3464	-36	-3652	1309	124	126	1
-9020	-6964	11220	1267	1514	755	-18792	-4636	-2312	1728	7133	-803	-17608	6912	216	934	1823	383	-3704	6576	18168	1313	-3771	2577	-7864	32	-2224	-1853	-2562	1668	-19472	-1600	-5176	324	-3383	1144	123	128	1
-9068	-6536	11172	1054	1869	364	-16236	-900	-2932	11170	6205	1734	-16032	7080	456	169	1792	661	-3592	5120	15616	1551	-4526	3029	-14112	-4024	-2856	-1864	-3727	1795	-15536	-1728	-7344	361	-2762	796	124	128	1
-9024	-7232	11072	698	1892	142	-15280	1064	-3332	12045	5927	1245	-12720	3128	184	-358	2122	756	-7216	5760	15392	1518	-4698	3700	-13664	-6800	-4568	-1420	-4447	1764	-13048	-1248	-8312	234	-2375	659	122	131	1
-9364	-7472	10760	160	1526	-21	-15340	2292	-4192	6239	6383	-528	-11744	1488	-2184	-789	2390	738	-10712	4264	17632	1307	-4776	4335	-13256	-5496	-5560	-984	-5207	1925	-9216	-584	-9024	184	-1903	411	122	132	1
-9536	-6396	10960	-100	1222	61	-15612	2576	-4456	-589	6898	-2325	-15752	2712	-2248	-844	2736	719	-15112	-96	21504	1367	-4928	4373	-15688	-4104	-7176	-1088	-5897	1961	-6232	1928	-8608	-354	-1499	256	125	130	1
-9032	-7360	11212	-724	1420	-10	-15692	1096	-4108	-5067	6530	-3540	-18352	3448	-912	-823	3057	758	-21312	-3208	24528	1908	-5411	3872	-18688	-4752	-8976	-1130	-6262	1890	-4736	3064	-8576	-1665	-1205	-26	123	132	1
-9064	-7940	10968	-817	1946	533	-16768	-2492	-3908	-5650	6260	-2977	-15968	352	-792	-1024	3145	494	-23552	-2064	23936	2329	-5686	3255	-22688	-6512	-11552	-631	-6433	1840	-3984	4352	-7392	-2575	-1395	-254	125	126	1
-9972	-7440	10704	-529	2438	1361	-16568	-2780	-4208	-1429	6186	-1033	-14040	-1088	-4408	-961	2631	415	-28672	2992	21992	2046	-5383	3011	-25784	-6680	-13592	282	-6392	1886	-5152	5072	-3856	-2696	-1540	-336	123	128	1
-9760	-7732	10604	-501	3259	1980	-16580	-988	-3076	83	6888	121	-15280	-464	-5864	-509	1689	788	-32768	5152	19752	1375	-4885	3254	-23328	-1472	-18024	351	-6266	1861	-9008	-360	4160	-1432	-1495	-200	123	128	1
-9048	-7380	11616	-592	3898	2982	-16416	528	-2636	-791	8103	-140	-16600	8	-1512	270	1558	829	-32768	4416	13416	556	-4344	3854	-21464	3696	-20232	-1076	-5603	1250	-9408	-6152	11368	148	-1509	65	123	123	1
-9612	-7856	11896	-411	5493	3521	-17816	800	-276	-3616	10410	-104	-21696	1856	3144	574	1594	359	-32768	328	1944	-499	-3674	3583	-17440	5920	-22672	-2709	-4639	522	-12904	-2744	16688	2117	-1116	9	123	136	1
-9208	-9228	12968	-1195	8281	5236	-18856	348	432	-2994	13778	-197	-22480	3288	5864	-128	1233	32	-32768	-4232	-9856	-1597	-2522	2852	-15520	3128	-26728	-4060	-2972	-94	-15104	2416	16256	2046	-80	413	124	135	1
-9708	-8212	14784	-1197	12799	7017	-21080	584	-1268	-1379	16667	225	-21656	3752	6320	-937	1059	-42	-32768	-12648	-16912	-2062	-842	2111	-12160	-752	-32288	-3785	-930	-739	-22272	11696	16136	609	-294	615	123	133	1
-9544	-8464	15872	-1046	19433	9520	-23212	352	-1260	2119	19801	1351	-22568	4216	4152	-1519	979	31	-32768	-18440	-26792	-2122	1201	739	-8048	2560	-32352	-2326	929	-735	-18480	15416	17344	-1464	-300	524	124	121	1
-9988	-10120	16288	-208	26616	13042	-23932	912	-724	5047	22548	979	-23032	800	312	-1583	806	201	-32768	-24352	-32768	-1234	3241	-1713	-6072	6128	-32768	-909	3003	109	-25344	8736	32767	-4069	-2435	532	124	121	1
-9020	-10516	16460	1042	32767	16843	-24792	1016	-24	4633	24838	-623	-25704	-7056	1624	-1250	587	308	-22208	28384	32767	-912	2399	-1467	-32768	-4408	12080	463	2765	-140	-5480	3936	-9736	-2612	2517	-551	123	116	1
-10628	-10592	17864	-1533	32767	24147	-29424	-1924	4324	2402	26141	-904	-28280	-10304	3768	-469	-155	39	-15680	2632	17352	-279	3267	-1105	-16488	-3984	-10016	3087	3584	-663	-22864	-7720	-16376	118	1793	18	123	135	1
