#Activity	walking 
#ActivityID	1 
#Date 10-06-18-20
acc_rf_x	acc_rf_y	acc_rf_z	gyro_rf_x	gyro_rf_y	gyro_rf_z	acc_rs_x	acc_rs_y	acc_rs_z	gyro_rs_x	gyro_rs_y	gyro_rs_z	acc_rt_x	acc_rt_y	acc_rt_z	gyro_rt_x	gyro_rt_y	gyro_rt_z	acc_lf_x	acc_lf_y	acc_lf_z	gyro_lf_x	gyro_lf_y	gyro_lf_z	acc_ls_x	acc_ls_y	acc_ls_z	gyro_ls_x	gyro_ls_y	gyro_ls_z	acc_lt_x	acc_lt_y	acc_lt_z	gyro_lt_x	gyro_lt_y	gyro_lt_z	EMG_r	EMG_l	act
-10316	-4972	11712	-448	1848	831	-16216	940	-452	2074	12155	2660	-17148	-2096	4284	-1455	8495	-3502	-32768	-16144	4120	20106	-22689	28647	-28188	-8	-13720	14778	-32768	2023	-13912	-5400	12796	11059	1999	7371	127	124	1
-10584	-4960	12396	-680	3361	1377	-17928	1544	-1836	2323	13511	3447	-17492	-2316	2792	-4613	6848	-3904	-32768	-16396	-7276	17548	-16113	20303	-17108	1332	-17516	15834	-20252	6117	-16504	-896	22316	7100	-1682	13311	127	125	1
-10832	-4752	13180	-928	6046	1769	-17924	3164	-2788	1453	15222	4228	-17872	-2280	1952	-7322	5087	-3301	-31300	-28432	-17900	13435	-8510	7063	-9404	452	-17808	12102	-6778	8253	-14864	-3280	24632	10760	1002	9767	124	114	1
-9536	-5924	14688	-943	9959	1846	-18512	3708	-1700	348	17444	4843	-18884	-2092	2132	-9927	2578	-1397	-28696	-28900	-17596	13307	1865	-477	-6796	1944	-17892	4324	6757	6605	-14896	-736	21092	3439	-2866	3495	126	120	1
-11376	-3636	14332	-1433	14300	2666	-18744	3668	-1272	978	17532	4886	-19396	-2228	4556	-12206	-2025	312	-28880	-16344	-8292	-710	9606	-6438	-10700	-1288	-18104	-8581	15600	3436	-11980	2064	13540	-1266	-2629	3343	127	114	1
-10372	-7068	14892	-2618	19185	3554	-21776	4516	-3132	2636	21664	5774	-20056	-392	6832	-12443	-6373	1096	-20828	-3188	7896	-12784	12268	-6325	-16552	-5488	-5484	-12867	22932	1919	-3652	-592	9392	-24846	4413	958	125	139	1
-8276	-9848	15896	-2413	26076	9047	-24980	6696	-1052	535	22431	4600	-20336	1152	10712	-10673	-10253	2046	19164	32767	32767	-17822	-3870	-3463	-32768	-25368	32767	-12405	3342	77	-14900	9948	-19680	-7358	26916	4328	123	125	1
-6228	-4404	18336	362	32767	14628	-29772	6596	3980	-370	23207	6769	-21964	2856	15668	-7576	-15358	262	-3660	-30960	-7960	-28618	10454	-13614	2000	900	-18440	-32768	-2872	2395	-32768	-7260	2876	-16586	650	-1834	130	132	1
-6008	-11772	16132	469	32767	19454	-27176	9532	9196	1710	24277	5798	-21348	10656	11476	-9089	-13259	5203	-16524	-11344	27088	-10728	17631	2925	-32684	-21884	-1724	-32692	6849	-6651	-18676	-9188	13056	-32768	-3469	-3970	121	127	1
-7440	-8796	17652	-108	32767	25162	-32012	13584	11552	-7558	24941	4218	-24980	9168	5748	-23892	-14750	8171	-21892	-13768	21348	-2264	15767	-13178	-17292	-16128	-7292	-10856	14062	4445	-16008	-31316	2356	-24384	14368	-2556	128	113	1
-32768	-3684	3500	-885	32767	25910	-19888	1852	-16260	-6476	27701	4801	-21320	-220	-7888	-32768	-18109	8274	-32724	22212	6052	-9641	7289	-7343	-22816	14220	-3020	1166	16064	8814	-15832	-1292	-3584	21084	11720	758	124	113	1
-32768	-6900	3844	335	32767	26793	-26104	792	-16176	592	23995	7000	-25720	-14072	-14180	-32768	-18720	3372	-14332	1888	10900	-7230	4920	-8520	-16944	4792	-4720	-7468	11548	4366	-16456	23628	-9544	22306	9300	8851	127	144	1
-32768	-9104	16196	-9851	32767	18620	-18688	5632	-9952	-3106	21610	8164	-28056	-19520	-14288	25	-20731	-4327	-13164	1692	13216	-7734	2260	-7832	-18152	1080	-6116	-9007	8328	2009	-18176	7588	-5236	2880	11295	8590	134	141	1
14632	-13376	25004	-9787	15778	10634	-14232	-996	-10916	-933	14443	8116	-25452	-9360	-7868	17019	-23026	-3029	-13176	2544	12060	-3972	1013	-5543	-18256	-3708	-3496	1519	9609	1349	-16712	5264	-4852	-455	7813	3305	126	133	1
-17872	-17592	20888	-4755	-15157	6716	-11628	-5268	-8584	-2102	4406	3737	-23616	-3536	-1392	13205	-22359	-1582	-12532	3336	12228	-3266	338	-5102	-17452	1048	-3336	4362	8493	1662	-16908	5376	-3884	792	8368	1107	121	137	1
-4240	-12636	15852	-890	-32768	-681	-6600	-2192	1044	-6627	-3597	1558	-22552	-3220	-4228	8479	-19303	-3414	-11360	3108	12680	-2636	-215	-4372	-17596	-1560	-2540	-235	6254	162	-16900	1356	-2276	-8243	8680	874	124	129	1
3916	-8416	10236	-1627	-32768	1161	-8280	-1036	2480	-7083	-11936	-2900	-18268	-1304	-5948	7679	-15708	-4187	-11304	2000	12708	-1762	-215	-3145	-16496	-3236	-2092	-2259	5032	528	-15472	-4168	228	-9627	8561	2090	124	126	1
1360	-6572	7552	-3626	-32768	1332	-4876	572	1144	-4104	-19885	-4504	-15796	-1012	-6360	9616	-14928	-3895	-11164	2904	12060	-1235	-234	-2217	-16420	-2516	-1136	-2114	4790	867	-15780	-3336	476	-5483	7647	3564	133	131	1
-3160	-6820	8408	-6225	-32768	-3175	-6092	2220	-1780	-2617	-26099	-5717	-13056	-852	-6336	11598	-14102	-3159	-10776	4124	11908	-1273	-260	-2026	-16000	-2396	-316	-444	5078	1139	-15368	-2212	748	-1896	9898	4523	122	135	1
-7924	-8972	9348	-6979	-32768	-10502	-8152	4356	-3352	-6706	-30871	-6063	-12000	-2660	-5844	13827	-12965	-2036	-11192	3432	11788	-1726	-438	-2642	-15952	-2116	-504	1737	5622	1354	-14504	-1692	1380	2834	11335	4320	120	132	1
-11316	-8212	10232	-6306	-32768	-17644	-11300	4376	-3640	-9088	-32768	-7770	-11816	-2484	-6244	15217	-11078	-1695	-11832	412	11844	-513	-428	-2224	-15772	-2428	-1436	3707	6552	1419	-15164	-2736	3132	5328	10274	3606	123	137	1
-13852	-7032	10816	-6872	-32768	-23101	-12812	4016	-4012	-8975	-32768	-9759	-10600	-532	-7760	19052	-9750	-1340	-11480	3312	12172	-408	-383	-2018	-16736	-956	-80	3537	7398	1617	-16436	348	2820	6470	11135	3203	123	129	1
-16368	-6844	12692	-8104	-32768	-25550	-14648	3876	-4300	-7731	-32768	-11743	-8952	1496	-8252	19586	-9381	-740	-9748	4764	12056	-1078	-94	-2149	-16128	-1616	960	1207	7541	1355	-15368	1440	2232	3008	11250	3294	125	121	1
-19916	-7308	14536	-9720	-32768	-27213	-18572	4328	-6020	-5768	-32768	-13509	-8164	1840	-8660	12490	-7572	-9	-7344	6640	12320	-2085	1341	-3524	-16780	-2044	372	-15	6434	2008	-14220	1624	-1408	2252	13754	3555	125	130	1
-21096	-5944	16788	-12105	-32768	-29081	-23148	8568	-7488	-2978	-32768	-14301	-8524	1784	-5492	4592	-4281	1117	-11876	1220	12404	-3538	1127	-3703	-16104	-2132	-4772	-27	6282	1487	-15812	636	-1236	1568	14139	3569	125	131	1
-29972	-6316	22624	-15783	-29359	-30326	-28432	11480	-11720	-5569	-32768	-13867	-11120	4324	-164	989	-3434	1486	-12060	1712	12612	-3430	497	-1655	-17136	-2912	-3900	3984	7941	2209	-17492	196	-1856	1818	15857	5361	124	128	1
-32768	-3608	23108	-17249	-32455	-30847	-29856	13464	-15448	-10595	-32768	-13186	-12596	3676	3684	2679	-3507	195	-11824	2304	12308	-2770	110	-1605	-16796	-980	-960	5919	9557	2526	-16684	812	1188	-222	14794	6777	127	128	1
-32768	-1132	13584	-15799	-32768	-31708	-25280	8524	-16836	-20049	-32768	-10548	-12416	-4440	5028	-4193	-2096	-3712	-11564	2508	12448	-3254	37	-2430	-16736	432	-72	2392	10550	1792	-16512	244	3528	-2292	11752	6930	124	131	1
-32768	-2524	228	-6238	-32768	-24027	-23276	4724	-17980	-13181	-32768	-11416	-15900	-3476	16692	-2333	-1740	-8270	-11652	1912	12532	-3229	191	-2845	-16352	156	816	-23	12627	741	-16740	-2204	5412	1167	9202	6154	123	132	1
-32768	10224	-12900	-3499	-27352	-15000	-16728	6060	-20648	-7946	-22369	-11330	-17948	3824	25200	-1110	-3730	-6325	-11620	3152	13080	-3144	997	-4124	-17576	-8	120	824	15166	-27	-17660	-1748	5688	5869	8729	6911	124	131	1
-32768	25160	-25032	-10448	-14165	-8120	-4436	7008	-23100	-1537	-8308	-7557	-15380	3020	30440	-7292	-407	-2702	-11272	3452	14180	-3927	3034	-6388	-19552	-648	-1892	176	16208	-399	-18240	280	2236	7850	10149	5539	124	129	1
-32768	19544	-24976	-4711	2911	-4695	-3160	5452	-20200	4849	8391	491	-12716	-2464	22800	-5251	-5657	530	-10532	-1080	15732	-6066	5827	-8926	-19496	-3448	-3924	-1735	16865	-938	-19348	888	-1720	7529	7648	3599	123	127	1
-32768	10908	-13052	13601	17666	5197	-9896	7020	-19672	11268	18454	4714	-14196	-6520	14828	-984	-6642	-515	-12060	1840	16364	-6272	10983	-9515	-20364	-6068	-5200	-3288	17185	-1050	-20568	-576	-2176	6974	4837	1473	132	127	1
-32768	-31848	32767	7770	1413	6184	-32768	11292	32767	-8948	20142	11185	-13348	-2464	8060	2163	-218	168	-11508	624	18000	-8219	15954	-10238	-22768	-5376	-6148	-3589	17105	-956	-21504	1688	-208	6800	2267	-923	122	127	1
18740	-5272	2492	7701	15894	18298	-19328	-6064	6064	26989	2531	-10069	-18708	3544	-6400	-977	17920	7240	-11052	800	18060	-8365	17024	-10118	-23320	-4636	-2568	-4544	17526	-1297	-24556	1876	5624	4974	-1585	-1035	121	128	1
-22200	13656	17284	4293	25216	5569	-6680	20908	-8224	15074	9728	7770	-15400	932	3240	20172	596	143	-10084	2908	16400	-11013	25247	-15580	-24308	-6096	2856	-496	19753	-466	-19664	-3560	13168	-849	-8408	-4170	124	131	1
-16036	-2000	15516	238	22592	5395	-29724	12656	-3880	659	15339	445	-19956	4172	10400	17393	8658	-2232	-6400	7144	18880	-13134	32767	-20828	-26764	-11788	7828	4205	22652	343	-17824	-13704	15124	-772	-11350	-9211	117	133	1
-28224	-7796	16256	-3574	15210	11100	-24348	3988	-8236	1176	15422	2419	-21140	9360	3276	-434	10702	2055	-6524	6660	19152	-13763	32767	-21398	-31108	-15724	12556	14589	25895	905	-21684	-12012	11516	7547	-14084	-14050	123	133	1
-14144	-12732	10680	-302	10006	3533	-19844	3444	-3924	3266	14603	-64	-19600	-2172	-5096	-14015	13672	-2387	-32768	6452	10904	-14149	32767	-30236	-24396	5188	-6264	13734	27927	2366	-20560	-3700	5340	11497	-14036	-13678	132	136	1
-11128	-10312	8224	4518	6853	4066	-16680	-2068	-5488	5654	11356	-763	-12808	-9620	-3584	-11669	12232	-5427	-32768	4600	7076	-11991	32767	-32768	-29920	8464	-9372	156	27184	348	-23672	4784	-7424	29935	-6399	-9704	126	132	1
-12596	-6952	10968	4527	3118	4328	-16196	3788	-4800	5133	8563	58	-15668	-8932	-5500	-7179	10357	-1919	-31956	10164	21040	-11231	32767	-32768	-22256	2040	-5232	-10593	16170	2707	-30164	688	-13408	22034	-13031	-303	133	135	1
-10800	-6060	11356	4730	1670	4070	-17052	2980	-3504	1721	7762	-571	-17128	-6576	-3736	116	11036	-2799	-14000	13868	20960	-6813	20611	-26018	-16900	1412	-9888	-10427	11752	2764	-27700	-2312	-11576	11580	-24643	2492	146	135	1
-10956	-5140	12004	3683	1529	3155	-16720	4332	-2576	414	6527	-239	-16180	-3264	-332	5458	12223	-2371	-29284	11432	20944	3188	-16748	-1036	-11580	-2732	-7364	2409	8223	2416	-25460	-384	-2900	8726	-29429	1052	136	130	1
-11360	-4940	12408	2333	1338	1621	-16844	4192	-1984	441	5772	-314	-16560	-1804	1336	4120	11291	298	-3144	13112	15260	11056	-28087	10800	-11152	-3472	2200	9588	-46	2165	-24464	1512	-4844	9856	-23040	3000	139	125	1
-10500	-5408	11776	958	1208	306	-16712	3280	-980	-320	5552	-393	-16028	-1728	1496	2598	11857	194	2024	13316	10096	8040	-23847	11431	-6592	548	1536	8538	-9098	2858	-20124	1940	-7916	8811	-18875	3563	122	125	1
-10092	-5760	11380	619	1006	2	-16560	3124	-936	-67	5465	-495	-15700	-2612	1512	3061	12861	-908	-1844	6024	9488	6751	-24790	11707	-6688	4056	-1440	1367	-17522	1752	-16296	2448	-9156	3787	-17355	4227	123	122	1
-9788	-5856	11116	615	837	6	-16232	3248	-1096	623	4474	-13	-15572	-1472	1004	3524	13999	-1893	-2000	3348	9040	12120	-24639	14240	-7052	-808	-1996	-1371	-25042	268	-14716	3796	-9068	-2394	-17662	3847	129	117	1
-9224	-6052	11012	661	908	222	-15996	2844	-296	-1552	5074	-63	-15688	-908	2136	657	14444	-2677	-6088	4496	9852	15118	-23454	16237	-7476	-1932	-2860	2358	-29896	-19	-12532	3340	-8952	-6024	-16697	3222	127	126	1
-9224	-6112	10728	1328	917	736	-15528	2332	-20	-2973	5962	-246	-14640	-268	3188	-2169	14945	-2408	-13068	2488	12772	15794	-27641	17936	-10020	-356	-5320	4309	-32768	312	-10016	3548	-8764	-9359	-15369	2683	128	125	1
-9608	-5880	10740	1983	809	1290	-15708	1352	-84	-593	5815	-159	-14844	20	2336	-5422	15699	-1760	-15616	-740	14224	20385	-32768	22859	-12832	-1704	-5796	6190	-32768	-767	-9296	4640	-8608	-13685	-13969	1363	128	127	1
-9296	-6096	11020	2276	650	2040	-16368	1876	-368	804	6307	-29	-14728	-252	2236	-5883	15885	-1814	-12432	820	13740	24100	-32768	25402	-15996	-3460	-4096	5277	-32768	-750	-9168	5208	-9052	-19449	-13325	568	126	126	1
-10276	-4284	11840	1587	1029	1675	-15900	3252	-1724	1752	7482	322	-15440	-1788	2616	285	19520	-4793	-13216	-1388	14444	26564	-27027	25208	-19548	-4452	-8436	3220	-32768	109	-9852	2652	-9940	-23162	-12327	-158	127	122	1
-10548	-4968	11220	824	971	818	-16052	3392	-1548	-962	9097	1012	-16400	-1672	240	1116	18580	-4687	-28772	-876	17400	25612	-22084	24994	-19432	-904	-11276	4840	-32768	-2133	-9320	-2772	-6636	-17732	-11511	-913	131	119	1
-9916	-5596	11204	537	1035	746	-15760	1656	-4	-1226	9512	1028	-17612	-3804	-1252	337	13589	-3950	-32768	-3480	20660	24363	-25537	24006	-28304	-6992	-14684	11532	-32768	-364	-9760	-7864	652	-11883	-13931	-2104	127	122	1
-10324	-5108	11660	218	1103	764	-15988	1824	-972	1757	9117	1490	-17536	-3676	1592	218	9437	-2739	-32768	-9364	16876	26572	-25520	29735	-26824	-2144	-15332	17200	-32768	-56	-10540	-5776	3592	-2773	-9092	173	128	124	1
-10072	-5152	11804	-220	1343	721	-17388	2512	-1468	1739	9688	2283	-17708	-2832	3100	278	9973	-2706	-32768	-5172	9912	21847	-27620	32767	-24028	3144	-17548	16503	-32768	2111	-13076	-1836	5840	15378	-946	5037	128	126	1
-10380	-5656	11840	-685	1985	1156	-16404	1448	-924	297	11424	2860	-17804	-2952	5016	-1036	9773	-3021	-32768	-15012	2540	16415	-26642	29343	-25240	-504	-16752	8636	-32768	2598	-14212	-2344	11936	16023	1116	5109	126	122	1
-9916	-5776	12252	-987	3262	1656	-17192	1184	-424	664	13179	3883	-17820	-1684	5664	-4550	7946	-3000	-32768	-21080	-6844	15682	-17305	24610	-18376	1340	-19348	7968	-23705	4493	-15952	-852	14496	3679	-580	8965	126	123	1
-10752	-5672	12972	-1102	6051	2443	-18172	3296	-592	2244	15070	4629	-18260	200	3740	-8337	6126	-2638	-32768	-25264	-16432	9200	-7857	15612	-10920	1568	-21368	3976	-11942	6544	-14992	-1536	24416	-81	-436	11007	127	120	1
-9740	-6848	13652	-2059	9822	2519	-18808	3068	-1356	3020	17098	5037	-18516	-1596	2232	-10057	4376	-1730	-30636	-32008	-19452	6242	2452	6631	-6880	2284	-20796	-1171	2019	6674	-11284	-1988	22164	-477	-177	6804	122	116	1
-10684	-5896	14024	-1294	14159	4057	-19192	4852	-2384	5647	18324	5751	-19520	-4100	1276	-9711	1929	-415	-29172	-25188	-11736	-472	10162	1270	-9140	1200	-20580	-9942	13763	4232	-15776	-32	15856	-7190	-1726	3588	123	113	1
-11008	-5256	14676	-1322	19928	5406	-19360	6460	-3928	6439	19235	6350	-19144	-2876	3856	-8652	-1276	1069	30996	6520	32767	-19842	8716	-13079	-32768	-24776	32767	-12358	10110	-2799	-13504	3212	-1096	-8379	9261	5024	125	124	1
-8956	-6020	16456	-3159	27237	6571	-23772	7704	-2252	2614	20422	6778	-19300	-2712	4556	-8568	-1858	1324	7556	-9400	9956	-24574	15188	-7245	-9784	-8888	-2068	-32768	-4620	5992	-22288	-176	-1148	-13283	17544	5114	114	122	1
-6240	-8288	15924	-3436	32767	11111	-27084	8812	4128	-1179	21999	7242	-21820	900	15808	-4515	-16490	3325	-17908	-25104	20356	-11942	29316	4692	-15880	-18680	-3668	-32721	7169	-5860	-20376	-11228	10424	-32768	-264	-8118	120	130	1
-7384	-10276	15496	-3592	32767	16083	-28208	7708	10632	-5594	25568	7818	-20452	8240	16964	-6692	-13424	5210	-27240	-24916	25588	320	16380	-19787	-27696	-10904	-9544	-16498	13101	3923	-17084	-13856	10692	-32768	2365	-9103	120	126	1
-10732	-14156	14384	-2889	32767	25569	-31860	3940	9800	-6217	25873	6484	-23152	8284	10760	-15839	-14563	6662	-32768	32767	1008	-7975	5762	-1890	-26924	-6276	-8416	-12542	14773	4383	-16156	3828	628	16536	13861	-425	123	111	1
-32768	-12396	6756	-270	32767	31967	-24528	-500	-14996	2590	27383	7455	-22580	-4160	-5600	-32768	-15202	7439	-13196	-14724	15716	-8440	4914	-10227	-12596	3024	-4680	-15067	10942	5122	-17520	29920	-9200	9945	11424	12051	126	125	1
-31288	-10308	10240	3246	32767	32767	-28720	3316	-9332	10982	23049	10042	-27592	-12564	-16140	-31547	-16809	956	-14352	668	13780	-8757	2312	-8292	-18116	324	-5164	-7299	11041	2756	-17428	-1332	-3692	-6881	5248	9585	129	155	1
-22708	-12256	21664	-703	32767	28089	-19208	3844	-7028	1280	18212	7549	-26444	-13404	-14952	1149	-23102	-4787	-14976	1340	13628	-5233	1170	-4657	-18252	-7364	-4288	4923	12926	3504	-13920	-2856	-2488	7223	7198	6697	139	140	1
7348	-14028	26224	-2300	23819	19754	-11988	240	-14844	7194	12073	7594	-24960	-5436	-7320	12864	-23943	-3573	-12580	1180	12996	-3054	619	-3190	-16724	-2140	-2896	11446	13416	4405	-16216	3124	-2480	10919	8628	3736	128	131	1
-15800	-21584	23012	752	-18691	5128	-13872	-5624	-7944	-2188	3266	3810	-24232	-1540	-688	11247	-23472	-3854	-11692	3052	12300	-2370	442	-2556	-18168	2944	-3280	6170	10385	3445	-15372	6392	-3140	6684	10653	2942	111	127	1
-180	-10168	17732	-661	-32768	-427	-7208	-724	4064	-9263	-5681	835	-22460	-4340	-5212	5514	-20386	-5948	-11888	2260	12208	-2158	108	-2030	-18400	2592	-3188	-5235	5922	1175	-17036	7044	-3304	-2564	10070	1644	118	127	1
5528	-6280	10676	-6227	-32768	697	-9388	1572	4584	-10841	-14174	-3719	-17400	-3384	-6972	7344	-17464	-5686	-11364	2420	12040	-1701	-60	-1472	-16924	-2260	-2744	-7979	3932	194	-17380	2672	-3188	-11112	10003	3098	118	128	1
-116	-7696	8512	-10561	-32768	-782	-5660	-224	392	-8466	-20492	-4662	-15480	-1980	-7148	12132	-15879	-4694	-11052	1688	12376	-1028	12	-894	-15520	-4992	-1804	-900	4968	1273	-15504	-3332	-600	-11031	9523	3338	125	129	1
-1588	-7972	8344	-10769	-32768	-1678	-7216	928	-4900	-7078	-27268	-6242	-13016	-1228	-7388	15986	-14274	-3395	-11492	1876	12116	17	452	-153	-15148	-4024	-852	6590	6921	2195	-14204	-6092	1972	-3615	9582	3506	113	124	1
-12000	-11220	9492	-7173	-32768	-16538	-10076	2944	-5452	-10647	-32768	-7475	-12576	-2656	-6912	17402	-13014	-2325	-10164	4284	12028	-383	605	-176	-16284	-1708	1284	10655	8563	2892	-15356	-2296	3196	6366	10058	3528	123	128	1
-12592	-6408	8872	-8050	-32768	-23928	-11884	3928	-3276	-10979	-32768	-9173	-11532	-2308	-9324	20845	-11107	-2071	-11076	3272	11832	-1095	521	-1196	-16360	-1488	1348	10742	8583	2997	-15676	1876	40	9444	13095	4541	123	132	1
-15712	-7784	9384	-9733	-32768	-26636	-11556	3472	-4572	-10458	-32768	-12543	-9332	1972	-9356	22158	-10276	-1742	-11460	1548	12224	-1096	618	-1322	-16876	-1596	-2464	1214	6223	1573	-15220	420	-1040	6426	14193	5209	125	130	1
-18444	-9772	11584	-8014	-32768	-26238	-16068	3356	-5368	-7046	-32768	-15708	-7964	4528	-9304	12984	-8766	-1037	-10920	3092	12376	-799	828	-873	-17020	-2184	-1692	388	6207	2032	-15008	-488	-1576	6967	16051	5571	121	131	1
-19904	-9752	14416	-5672	-32768	-27118	-21476	5220	-5632	-2533	-32768	-16436	-7716	3368	-8012	315	-5546	-441	-10988	2620	12120	-904	1059	-1050	-15868	-2556	-2004	3382	6995	2899	-15252	-1984	-524	7675	17706	6521	120	131	1
-25528	-7432	20164	-8418	-32270	-30266	-26576	10052	-8900	-593	-32768	-15287	-8100	1732	-5036	-4727	-3117	-1426	-11640	1988	11888	-794	1055	-1151	-16572	-1128	-1428	5696	8198	3564	-17080	436	984	4745	17869	7219	124	129	1
-32768	-7024	23376	-13490	-31734	-32768	-31416	12716	-13684	-5455	-32768	-14486	-9632	880	1108	-1099	-4368	-1436	-11520	2924	11988	-1134	741	-1622	-16560	124	76	4484	9163	3059	-16600	2352	4752	-1346	15502	7652	126	129	1
-32768	-1156	17676	-13951	-32768	-32590	-29800	9904	-16928	-10458	-32768	-12522	-13300	-3892	6996	4676	-9555	-3676	-11592	2892	12152	-1744	608	-2003	-15892	1036	2348	1720	10732	1763	-18076	2088	5644	-3776	10846	6349	129	129	1
-32768	-1696	3212	-8665	-31731	-26867	-23500	8120	-20312	-10206	-32768	-10181	-17788	-7360	12764	3176	-4020	-8708	-11748	3812	12656	-2471	921	-3073	-16664	764	1412	261	12804	1073	-18720	2368	6120	-897	6775	4350	127	131	1
-32768	5764	-10172	-2005	-29820	-17526	-18424	7016	-23940	-9571	-26159	-11439	-17612	4272	23292	1871	-2587	-5707	-12016	2228	13288	-2855	2117	-4471	-18388	-180	-1780	-1056	14422	387	-17724	1720	3784	1102	8876	4776	125	130	1
-32768	25356	-22520	-10940	-19403	-10208	-8032	8056	-23856	-8158	-11253	-9176	-12348	1264	29544	-2303	-491	-562	-12204	3084	13800	-3598	4543	-5994	-18508	-1152	-3568	-1187	15602	229	-17168	304	-1116	3222	9258	4228	122	127	1
-32768	22380	-26580	-12921	-2527	-6147	-4596	5016	-20384	-2082	6428	-1842	-14220	-3736	23800	-4330	-5809	2531	-11288	744	16456	-4568	8005	-6779	-20040	-3208	-4732	-2805	16232	-616	-18912	428	-2556	5075	6763	3520	123	126	1
-32768	5900	-16892	9193	13824	6377	-11356	3688	-19992	8163	16314	3050	-14728	-6340	14236	-1442	-4881	99	-11628	1596	16656	-5609	12594	-7443	-21216	-4604	-5940	-4390	16194	-191	-20576	816	-2452	6049	5793	1627	128	125	1
13972	-13660	32767	19719	8240	15160	-32768	5252	21840	-2802	15141	4851	-13736	-3816	-2628	327	6131	-950	-11188	2428	17612	-7194	17781	-7095	-23652	-3888	-4632	-3865	16499	-459	-22936	1764	-192	7327	3779	254	136	127	1
-296	3512	5424	10265	22187	12206	-11660	9028	1676	29781	4162	-2092	-20648	960	3460	6431	8576	1009	-10140	3868	16212	-6641	22654	-8115	-23560	-4492	-1752	-3204	17149	-259	-24192	208	7360	7750	-2147	-409	124	128	1
-19252	6860	13732	5496	31613	-2469	-11908	15948	-1852	18636	11844	7118	-14220	2100	3320	23297	5367	2068	-9232	4340	16648	-7810	28107	-10894	-25540	-5992	4368	1114	20187	23	-20496	-4104	12848	1235	-9580	-2513	133	132	1
-20532	9720	19828	3184	24616	7989	-23416	11860	-5508	11848	13575	605	-16968	4820	8456	22865	9861	-257	-356	4048	18828	-11047	32767	-18271	-27712	-11860	8212	4460	22512	1356	-19200	-15508	14248	3558	-13221	-8240	125	133	1
-26752	-5436	15696	-2400	13470	12482	-24040	6532	-7436	6536	15549	2698	-22228	6420	496	6536	12445	2070	-10432	7296	19076	-12335	32767	-22238	-30992	-13312	14616	15193	26698	2409	-22308	-14244	13192	11208	-15674	-14271	123	133	1
-31040	-29184	13784	7380	10585	5279	-20980	-4364	-8440	6090	14978	-1129	-18912	-4960	-5616	-10295	14302	-709	-32768	1832	9416	-10910	32767	-32768	-24460	4304	-10464	9373	27666	3669	-19452	-3616	5996	18508	-13646	-13353	134	129	1
-13736	-2008	13560	7689	3508	7101	-14924	3972	-4684	11467	8691	1212	-13664	-10300	-6268	-5744	13211	-5664	-32768	3408	4868	-9565	32767	-32768	-30308	5712	-11212	-1032	27531	990	-24676	3796	-7136	30698	-7930	-9351	138	134	1
-13192	-3488	12712	6106	605	5895	-15380	6580	-4628	3290	9217	630	-17100	-2072	-3904	1370	11139	-3953	-32768	8604	21348	-5634	32767	-32768	-23172	-680	-5164	-7076	18578	4523	-29860	-1712	-17084	28663	-11292	56	141	128	1
-11516	-4264	12028	3709	29	4142	-17296	6128	-2732	-2465	9538	-309	-17016	1376	-2480	-1065	10764	-3185	-5232	11908	20528	480	25233	-27400	-17292	-2076	-6720	-6310	13387	4856	-28452	-1560	-12168	16324	-26549	2561	137	136	1
-11020	-4256	12328	2146	7	2826	-16368	3380	-1912	-1968	8304	-522	-15544	-2116	528	-3369	10275	-2087	-30116	10280	20424	8671	-592	-6379	-10888	-3476	-7504	5350	9623	4891	-23688	-1104	-3436	10359	-31263	-319	130	130	1
-10172	-4560	11996	909	454	1545	-16580	3016	-1488	1397	6700	-442	-15948	-4332	88	-1559	11058	-185	-8188	13180	18020	12349	-19460	4607	-9532	-2540	1136	13787	2141	4310	-24160	492	-3276	12111	-24981	338	130	129	1
-9812	-4752	11492	859	88	1166	-16244	3272	-1588	4153	4976	-1002	-15620	-3936	-540	2359	11906	216	1828	13024	12780	10227	-22256	9707	-7404	-784	1480	12286	-6473	4863	-20972	2032	-7748	11996	-19623	2401	124	126	1
-9704	-4692	11544	614	53	938	-16296	4328	-1764	2790	4384	-947	-15544	-3952	-332	2995	12027	112	-1668	8692	10948	7792	-21162	12665	-6732	2544	-448	4387	-16074	3685	-17672	3484	-9836	5846	-18342	2818	123	120	1
-9260	-5204	11408	646	64	1033	-16160	3708	-880	-1465	5311	-1159	-15776	-1896	1172	3963	14323	-1838	-4856	4764	10920	8197	-23600	15703	-6028	1076	-2396	-1605	-23988	2042	-14524	3944	-9056	-1029	-18719	2208	127	118	1
-9640	-4648	11664	1197	545	1167	-16196	1688	-684	-2386	6154	-727	-16196	-2764	3316	170	14706	-2599	-8552	2804	11368	10854	-27076	18972	-7056	-1220	-4072	-883	-30532	900	-13124	4148	-8920	-5382	-17915	1804	129	125	1
-9896	-5212	11228	1428	367	1213	-16348	484	-400	-281	5983	757	-14476	-1908	2936	-2714	16662	-3182	-11948	476	12444	14177	-32602	22254	-8712	-1884	-5280	3138	-32768	161	-10756	4300	-9344	-9035	-15593	885	129	127	1
-9992	-4804	11392	1712	-169	1791	-15484	3048	-876	-715	7173	1126	-14100	492	2952	-3871	17547	-2510	-14572	-1428	13212	18613	-32768	25107	-11016	-1976	-5804	5265	-32768	-740	-9676	4232	-9688	-13746	-13117	-156	130	126	1
-10240	-3808	12200	1320	280	1497	-16172	4752	-504	-2451	8531	1032	-15488	1596	4320	-2993	19442	-3459	-16036	-1604	14016	23028	-32768	26124	-13280	-2456	-5236	5738	-32768	-1154	-7832	4112	-10620	-20236	-11310	-1406	128	126	1
-9808	-4572	11860	1064	671	1252	-16936	1836	-224	-1118	8708	1241	-15920	-2196	2008	180	19919	-4250	-15468	-2304	13724	27538	-32768	25782	-13832	-2816	-4740	5679	-32768	-1210	-7168	3688	-10928	-21513	-9376	-991	128	122	1
-10292	-4072	11840	716	704	1420	-15944	3060	-1344	1371	7804	1728	-18776	-3116	-2956	1212	15067	-4096	-17920	-4632	16276	31194	-28977	25077	-22136	-6388	-9948	8917	-32768	-3286	-8392	1536	-9256	-15905	-7673	-469	131	118	1
-10528	-4156	11900	-101	1298	1034	-16384	4404	-2052	-910	8699	1892	-17484	-3452	-272	-91	11256	-2752	-32768	3192	21688	27591	-23770	22030	-28128	-3760	-14272	11473	-32768	-1388	-10920	-6120	-2732	-9419	-10641	-1614	128	119	1
-10260	-4032	11820	-458	1875	854	-15564	3268	-1508	-1612	9843	1768	-15824	-1260	1700	-2902	11977	-1466	-32768	-11136	20792	24724	-27346	25218	-32104	-6260	-17420	15860	-32768	-2113	-11668	-8672	6020	-1733	-10800	-1529	129	122	1
-10396	-4996	11988	-373	2498	1128	-17224	672	-644	956	10541	2574	-18088	-2856	1772	-2085	10122	-1490	-32768	-10812	12844	21556	-29127	31993	-26064	1216	-20464	20915	-32768	-1019	-13616	120	11348	14962	-4068	4754	127	126	1
-10612	-5008	12216	51	3006	2257	-17360	736	-264	1475	10649	2727	-17628	-3360	4172	-1275	8685	-3115	-32768	-16660	776	12165	-32507	29679	-22808	-28	-19008	6912	-32768	-1763	-16560	-532	12836	5790	673	8831	125	121	1
-10132	-4404	14068	547	5780	3860	-18696	3332	-1740	3055	12826	4288	-18268	-1872	4172	-4215	9482	-3074	-32768	-20152	-14304	5359	-24265	25697	-16480	1484	-19504	1406	-22713	723	-15012	-2392	13896	4367	641	8202	126	117	1
-11216	-4616	13616	533	9309	4530	-18116	4964	-480	2440	14893	5097	-19488	-708	2988	-7698	7253	-1513	-32120	-30316	-23576	5921	-8535	17200	-8796	-64	-22228	-1137	-8680	4815	-14764	-10088	25584	-9036	1575	4173	126	117	1
-10728	-4352	14444	1170	13001	5161	-17412	3080	-168	6724	16496	6076	-18900	-3936	4364	-6897	3061	-348	-31312	-31084	-20196	4444	5047	11542	-6960	3836	-20580	-7494	6509	3668	-12724	-5484	23308	-2727	-3512	1238	126	116	1
-10428	-5164	14832	2275	17677	6925	-19748	4788	-2840	10121	17282	7068	-18796	-4280	3044	-5656	1670	-91	-28620	-13156	1720	-24301	8615	-5869	-17388	-4520	-2892	-17215	12796	455	-14064	920	11396	-2386	229	3630	124	123	1
-8496	-5292	15560	2496	22798	10249	-21884	6844	-3692	7417	18321	7230	-20564	-3924	2332	-6350	481	1099	8536	32767	32767	-10489	13394	-11802	-32768	-14516	25752	-21730	-167	2311	-18720	-2780	1440	-12373	10721	5531	123	120	1
-9540	-6832	15052	2707	30266	14537	-25092	6420	-688	3885	19490	7123	-23600	-2700	9056	-6253	-6850	2473	-12676	-32768	1292	-15949	15846	-11272	-2348	-20052	-13364	-32061	6584	-1095	-21244	-8928	10492	-26088	9046	784	133	126	1
-6788	-5744	16756	4152	32767	16890	-25404	10548	5952	-1675	21706	7196	-18312	2064	18384	-6354	-20948	3153	-26084	-7204	21644	-2815	21888	-9139	-29228	-14992	-4812	-13880	14012	2455	-20064	-17036	3864	-26143	9377	-4655	117	121	1
-8220	-8440	14612	6742	32767	18699	-27016	8768	11856	-12362	25804	8519	-19112	11732	9668	-12400	-10712	5505	-26940	11016	11164	-39	15549	-13350	-21688	4804	-5008	-8448	17385	6441	-14048	-7224	1900	1253	10955	-798	124	126	1
-30140	-10672	8324	6849	32767	28132	-24312	-1184	-3040	-8504	26983	6269	-23164	1832	-4228	-32768	-9416	7212	-14020	6000	7160	-15844	4345	-12026	-22344	17236	-5944	-14455	12747	8762	-18800	21176	-6360	14818	10972	5387	128	132	1
-32768	-5308	7960	6120	32767	31428	-27132	1132	-8940	1825	26909	8846	-23648	-9772	-11548	-32768	-13625	5475	-16992	6504	10276	-8087	3575	-9919	-17732	1484	-6204	-16551	9324	2889	-16976	16924	-10412	-12038	8336	9933	126	143	1
-32768	-6024	10236	5254	32767	30888	-22472	5664	-8448	935	17539	7501	-24876	-13944	-13096	-12171	-18706	-2037	-13640	-2844	15048	-5838	918	-6907	-17064	-5612	-6924	-9169	8578	2590	-18852	-5956	-6004	-12707	8086	6846	134	146	1
-31664	-13672	17400	-4935	31444	20343	-18092	1240	-10032	986	18169	9280	-23440	-7924	-9540	7120	-20757	-3785	-14268	-2012	14604	-5248	657	-6310	-17836	-6936	-4308	5407	10773	3592	-16624	-3280	-3436	-479	8486	6006	133	147	1
-32768	-10856	18312	-398	-4153	10947	-9760	2432	-10696	-1120	9971	5975	-22188	-2352	-3116	10841	-21181	-3400	-11448	2740	12248	-1274	977	-1775	-16744	-1832	-2616	11960	11020	4832	-16292	-68	-2328	6217	10554	6471	132	130	1
-8372	-11792	18480	-4153	-29049	-3266	-10056	-1048	96	-6454	2261	3442	-21104	-2176	-3880	9122	-20233	-3437	-11356	3408	11872	-1486	831	-1536	-17784	1236	-1564	8133	8841	3904	-15056	3052	-2356	7503	11044	4395	123	130	1
1448	-10704	11180	-6119	-28906	-4130	-10048	1372	3296	-6939	-4903	-2382	-19176	-1304	-6184	8905	-18219	-4463	-11664	2668	12004	-1656	676	-1736	-17976	1428	-1832	6790	8233	3696	-16644	4044	-3360	2646	11888	3744	119	129	1
1700	-7540	7496	-6896	-24910	-5097	-6700	380	1328	-4819	-11162	-3673	-17616	-820	-5252	9120	-17865	-4937	-11832	1688	12136	-448	630	-850	-16716	-3492	-2344	-2570	3564	1406	-16800	1336	-3120	-2492	10826	4298	120	129	1
-4280	-8052	7332	-6592	-24221	-8562	-5384	-168	-2788	-138	-17839	-5092	-14992	-1748	-6108	9439	-16176	-5456	-11680	1912	12148	93	817	-252	-15876	-3524	-1340	3144	4466	2455	-15988	-1500	-476	-2163	10564	5013	122	136	1
-7608	-9544	8788	-3996	-28332	-15015	-6976	1920	-4044	-1579	-22797	-5500	-14240	-3652	-7164	11564	-14201	-4630	-10848	3452	11740	509	918	-151	-15956	-2256	924	7720	5770	2953	-14616	-2864	2320	4860	10656	5426	122	134	1
-10424	-9532	9756	-603	-32734	-20781	-10212	2512	-5952	-3057	-29156	-7259	-13672	-4140	-6808	13622	-13077	-4162	-10480	4184	11500	159	882	-1112	-16860	-124	860	6853	5923	3090	-15260	500	1708	11423	11460	5218	129	132	1
-13572	-5708	11372	-1674	-32768	-24412	-13304	2288	-4788	-2768	-32768	-8694	-13532	-4220	-6852	16185	-13451	-4127	-11772	4096	11692	-1017	1292	-681	-16916	-112	-996	2578	5315	2127	-15516	2920	-376	11880	13907	6368	119	132	1
-15984	-4160	10568	-6688	-32768	-26032	-13100	2732	-4948	-382	-32768	-9341	-12300	-1536	-7736	19756	-13089	-4608	-11784	2652	12100	-547	1096	-1147	-16720	-2768	-1560	2921	5867	2139	-16316	-640	-392	5479	15396	7728	123	133	1
-15964	-7452	9612	-8552	-32768	-24168	-14776	3796	-5008	-1886	-32768	-11437	-10936	1164	-8332	18718	-12129	-4248	-11864	2584	11728	-639	927	-552	-16824	-1788	-1380	6130	7594	2802	-14984	-1140	4096	-924	15910	7968	125	131	1
-17896	-9816	11200	-6075	-32768	-23013	-18124	4856	-7412	-2976	-32768	-13256	-9600	2232	-7320	10391	-9559	-3392	-11436	3224	11832	-892	971	-1050	-16996	-44	-316	5860	8283	3103	-17888	1996	284	-382	18291	7569	124	131	1
-22052	-7200	15452	-6755	-31927	-24964	-21856	8316	-8836	-3278	-32768	-13852	-9704	2664	-7236	8830	-9072	-3229	-11636	3240	11936	-1171	1086	-1149	-16760	-148	-904	3651	8395	2624	-18472	3736	-2148	1194	14346	5706	130	133	1
-30220	-6992	19784	-11752	-29191	-28543	-26160	8528	-12840	-7913	-32768	-14316	-8916	3848	-3796	1004	-2149	-1612	-11964	1952	12016	-1000	1291	-1237	-16384	-1488	-1248	3338	9095	2179	-16996	2108	700	459	11940	4778	131	129	1
-32768	-9728	18160	-13093	-31881	-27514	-30516	5244	-15516	-12918	-32768	-16192	-11520	1516	-2620	1419	-831	-3055	-11788	2700	12008	-511	1697	-1586	-16360	208	-136	4243	10496	2064	-16768	1108	2956	307	10622	4518	131	129	1
-31864	-7876	5296	-5660	-32574	-22518	-31488	8004	-14580	-11430	-32768	-19161	-17052	-4764	5508	2522	-4169	-4105	-11600	3048	12132	171	2999	-2251	-17008	732	1036	1981	11542	1097	-17788	328	4932	1664	8501	4385	128	129	1
-32768	18344	1664	-11491	-23903	-21370	-19028	7960	-26388	-4349	-32504	-15671	-21320	-2892	14412	10187	-7770	-8188	-12024	3124	12432	-252	4026	-3484	-17020	-384	152	606	13429	591	-18156	-760	4616	3268	8163	4662	127	130	1
-32768	10292	-9848	-18576	-27444	-29942	-15612	7284	-24876	-2443	-20729	-9754	-13376	2484	29516	2965	-3722	-13422	-11684	2300	13396	-1531	5532	-4677	-17768	-1732	-204	280	15638	283	-17928	-1792	3372	6052	8241	4735	124	130	1
-32768	22856	-26996	-11286	-14836	-19376	-3500	10932	-20568	-4829	-5204	-10197	-9816	2016	26856	-12072	-309	-1555	-12688	3140	13472	-3407	7306	-5133	-18444	-832	-1088	-2144	17257	17	-18196	1440	1544	7557	6810	3049	125	128	1
-32768	26348	-28404	-10130	-10496	-16538	-10980	3140	-14328	3536	9205	-3757	-10788	-5332	17628	160	-2200	1459	-13016	5260	14840	-6283	10427	-6716	-21040	-468	-3176	-6648	17697	-1047	-19032	4336	-824	5753	3753	1769	131	129	1
-11088	4096	32767	32767	26980	12235	-21260	4504	27564	4772	11786	7521	-14528	-10364	824	-1891	8757	-4546	-12028	5892	16696	-8241	14710	-7565	-22832	-3840	-3612	-6834	18731	-1071	-21708	2752	1412	4594	436	1532	120	129	1
-15876	24236	13224	4907	24586	11095	-11872	22280	-3624	32185	2821	920	-25400	1512	8976	3014	5299	-819	-10764	4000	16896	-9001	20338	-8375	-23512	-6012	-1648	-5948	19886	-588	-23472	-444	7484	7456	-5191	-79	127	129	1
-16284	15724	19476	-1591	30790	5524	-16912	19992	2048	8922	16287	9422	-23124	10156	11188	27334	-5379	9428	-7936	1996	18604	-7898	29225	-11002	-26768	-9320	4344	-1714	23269	-420	-21096	-5808	14840	-2714	-16036	-2308	120	131	1
-24424	3384	17636	-7305	19808	13485	-26580	13856	-7404	-4186	20719	-930	-18224	14152	7020	19399	7543	4824	-6092	11228	20784	-10988	32767	-13725	-30460	-15980	10364	2753	25734	1626	-21448	-18768	11836	2285	-16162	-11748	128	131	1
-20320	-28892	10072	144	16183	3201	-25040	-9076	-6976	146	19447	85	-17244	-6060	-4732	-17840	12509	3252	-11936	7396	20016	-12996	32767	-21039	-31776	-15340	12284	8729	27655	1781	-23788	-13384	11284	12418	-17757	-16432	115	130	1
-14280	588	15356	8536	4903	6663	-15228	-3148	-5156	16014	10161	1686	-12752	-19256	-12288	-15758	16238	-5682	-13964	9176	18808	-13811	32767	-22555	-25028	5540	-14356	4280	27568	2483	-19932	2584	392	23144	-11006	-12698	137	129	1
-12772	-4712	12452	7645	1873	6492	-13084	5372	-6040	8551	8453	1196	-15372	-3800	-9540	-998	12152	-5209	-32768	4148	1080	-11767	32767	-32768	-27892	7764	-13220	-8636	24668	2464	-27204	4532	-13576	31808	-7826	-7389	131	135	1
-12408	-4064	12652	3292	1315	3125	-17560	10296	-4904	-2432	9010	1115	-16936	776	-7112	-1786	10893	-1362	-32768	8920	23884	-4049	29304	-25935	-19476	1296	-13800	-14981	18925	1594	-30464	-3920	-16176	18888	-20173	485	135	137	1
-11756	-3048	12884	-266	1163	278	-17172	7128	-2440	-9814	10369	-1363	-17072	-1644	-1044	-595	11735	-927	-20352	4968	20248	-2260	5329	-10843	-14360	-4828	-4952	-873	13295	3230	-27996	-1400	-6908	8980	-32293	-499	133	137	1
-10436	-5348	11208	-977	898	-814	-17528	-1332	-552	-5518	8270	-1347	-15528	-5156	268	991	12996	957	-3908	8872	18240	5485	-11743	-3256	-10780	-2504	372	6201	5394	3638	-25836	-496	-592	9661	-27558	-2383	129	131	1
-10216	-6116	10944	-576	479	-429	-16136	-184	-312	5511	4084	-914	-15812	-4160	180	4085	12874	1733	268	10700	16088	12018	-13389	1003	-8216	-8	2408	9810	-2568	2964	-22344	2424	-6808	12424	-19860	528	128	125	1
-9764	-4932	11344	-677	521	-574	-16460	3720	-1088	6461	2742	-876	-16372	-4844	1248	5029	13533	555	-1144	10624	11852	11920	-16592	1578	-6352	1972	80	7642	-10924	1371	-19008	4140	-9176	7627	-18709	1432	123	124	1
-9724	-5604	10888	-613	1010	-865	-16760	2024	-64	534	4935	13	-16484	-4904	6200	5394	13080	-1514	-5272	9616	10620	8677	-21421	4140	-5168	2172	-2244	3929	-18585	-246	-16556	4292	-9356	1553	-18390	1068	125	117	1
-9568	-6532	10340	-48	899	-242	-15540	-1076	-516	-3975	6554	649	-15120	-3840	4320	1149	14350	-2529	-7928	6992	10116	7993	-26992	9834	-6000	600	-3680	3391	-24892	-1814	-16436	4340	-9356	439	-18418	1057	124	120	1
-9548	-6576	10096	1004	404	909	-16412	-1184	-364	-5152	6949	2090	-14020	-3228	3656	-3211	14287	-2903	-10228	4744	10360	8934	-32145	16152	-7256	-364	-4320	6273	-29638	-3010	-13544	4752	-9332	-5402	-16863	580	128	123	1
-9352	-6456	10204	2194	77	1996	-16012	476	-316	-2287	6731	2174	-14304	-1460	1264	-3570	15456	-3774	-12568	3212	11032	10789	-32768	20955	-9200	372	-4304	7418	-32768	-4038	-10496	5896	-9540	-9967	-14959	35	128	128	1
-9964	-2864	12392	2421	-182	2269	-15544	6760	-72	1187	6632	1500	-16608	3104	608	-3582	15479	-1064	-13844	2076	11332	12914	-32768	23770	-10788	396	-4056	5966	-32768	-5240	-7264	5172	-10064	-16459	-12891	-533	129	122	1
-10396	-4332	11736	1515	622	907	-16196	3808	-548	514	8896	662	-15648	972	1408	-2595	15676	-1110	-16824	1376	12100	16392	-32768	24953	-13716	-148	-4172	4958	-32768	-6136	-5604	4988	-10684	-21200	-10873	-1111	130	124	1
-9980	-5064	11432	924	852	508	-15768	1332	-1384	2976	8126	909	-14824	-1872	-32	3557	16650	-3939	-18320	84	12896	21703	-32768	26711	-19552	-1944	-7192	3272	-32768	-6301	-6304	5252	-10908	-20271	-9178	-439	131	123	1
-10536	-4652	11160	742	540	666	-15956	2816	-2852	978	7985	1451	-16048	-3820	-1800	4251	15291	-5410	-23320	340	15544	25288	-32139	25820	-23276	-2988	-9700	9360	-32768	-8257	-9720	2028	-8752	-15989	-8244	50	128	120	1
-10504	-4884	11364	370	604	649	-15896	2992	-1560	-2198	8731	1615	-16800	-4332	-1168	1277	11969	-3657	-32768	5804	20240	23153	-30428	22990	-30412	-1804	-15244	10822	-32768	-5020	-13064	-6592	-2684	-14655	-10618	-1936	129	121	1
-10028	-4960	11644	74	984	894	-16512	1600	-876	-361	9021	1666	-17452	-2728	1408	-300	9809	-2021	-32768	-5428	17488	20556	-32768	25882	-30800	-3260	-15712	17419	-32768	-4034	-10884	-5928	4148	-1359	-8200	-953	128	124	1
-10460	-5140	11880	-253	1451	1017	-17168	1864	-948	1083	9751	2444	-17796	-2560	3536	-1334	9439	-1840	-32768	-7516	7280	21555	-32768	30462	-27548	2824	-19748	21770	-32768	-665	-12008	-3052	7408	12876	-228	4271	126	127	1
-10356	-5304	11760	-493	2553	1413	-16304	1280	-1308	752	11526	3310	-16876	-1672	4916	-3532	8826	-2916	-32768	-18024	-2040	19141	-30453	26919	-24496	-1252	-19244	15621	-32417	1597	-19508	-5692	18536	4285	-3230	5577	124	123	1
-10508	-5948	12044	-698	3820	2039	-17308	1000	-1388	502	13648	4224	-17368	-992	4876	-7924	7192	-3212	-32768	-23124	-14636	16483	-19783	20521	-15848	3856	-20852	11557	-20149	4132	-16276	-5308	24840	4392	-5535	7468	127	113	1
-10196	-5216	13260	-443	6558	2791	-17456	2512	-1056	2056	15593	4682	-18420	-3548	1624	-7950	4785	-2915	-32768	-31592	-24144	12026	-6867	8041	-7112	2356	-20520	7894	-4124	7027	-11640	-5500	26216	3136	1945	7266	127	117	1
-11552	-4908	13788	-222	10563	5113	-19136	5192	-3500	6389	15981	5129	-18560	-6840	24	-6655	3449	-906	-30140	-28344	-19712	5605	6381	-1930	-7832	3292	-20200	-1449	10011	5073	-13020	-1084	20660	2331	-4936	2312	126	116	1
-10764	-5272	14232	287	15327	4777	-18696	4808	-4056	6328	16523	5288	-18096	-4340	-92	-5919	2338	470	-32264	-18368	-8528	-10520	13230	-9818	-12232	680	-18500	-10728	19705	3636	-14480	1476	10972	-1788	-2781	3426	125	126	1
-10780	-5780	13872	-272	20908	6690	-19324	6752	-4960	5795	17570	5928	-18708	-444	2204	-6866	-160	1182	32767	32767	32767	-13668	-3867	-11774	-32768	-27580	32767	-10400	4876	-2097	-9280	3208	-4364	-22793	22541	3003	127	130	1
-8372	-6468	15004	-900	27342	9341	-24012	5660	-2452	1608	18469	6041	-22412	-2236	6740	-7615	-4988	1021	-6516	-26104	-7932	-25592	11679	-18520	384	-6168	-14660	-32768	-126	4449	-24964	-5860	1116	-5192	12218	1650	125	121	1
-7584	-6460	15740	-790	32767	12659	-24500	8328	2796	-1010	20365	6668	-21164	2128	16248	-8584	-15552	2555	-16948	-9196	23712	-6624	26196	4805	-28612	-18584	-2404	-23539	9330	-2922	-19020	-4764	8412	-32768	-795	-4059	119	136	1
-9840	-8496	15016	808	32767	16548	-26304	7388	8192	-5105	23440	7301	-20540	9744	16716	-8115	-13827	4472	-18096	-17400	21352	-1384	22020	-12358	-20656	-7616	-6616	-12828	12642	3538	-16648	-20432	4464	-18065	9616	-1722	122	119	1
-12792	-10508	13316	2196	32767	24926	-28620	7368	7680	-8737	24772	5391	-22800	8712	9000	-20060	-13652	7162	-20940	26284	12356	-3144	13222	-4268	-21408	-4992	-7272	-9384	13543	3441	-17812	1532	-4832	10775	13309	-667	121	121	1
-32768	-5576	6136	71	32767	27502	-23208	1788	-11504	-5801	27853	5707	-20900	-1580	-2420	-32768	-15541	7918	-13084	-5972	14916	-10034	6107	-8598	-16112	7796	-2364	-12915	10021	5336	-18972	22876	-6052	5643	11914	9510	120	136	1
-32768	-7528	5668	-151	32767	27730	-28440	2284	-9320	1030	25170	8285	-21420	-3732	-4680	-32768	-15963	7623	-14584	8108	10272	-8973	2871	-8457	-17084	2152	-3300	-9245	8837	2978	-16412	3932	-3920	-6081	8450	10062	136	149	1
-32536	-13172	16700	-6006	32767	23677	-21308	5736	-9588	-2011	22664	7117	-26556	-10484	-13292	-4973	-23002	-2898	-13372	296	13212	-5492	480	-6458	-17236	-6240	-4564	-1297	9365	2479	-15772	-728	-2936	-1915	7576	6567	136	148	1
324	-16580	23760	-8389	19366	16973	-15268	780	-10512	708	16241	6219	-26616	-5744	-6648	7121	-23624	-2124	-12584	800	13512	-3585	-162	-4227	-17796	-3044	-3860	6908	10132	3523	-17080	-188	-3216	5085	9332	4680	120	132	1
-24964	-17872	22624	-5218	-5652	7462	-14412	-1032	-7116	-2340	6614	2434	-24316	-1216	-2712	9074	-23306	-2589	-12476	1904	12688	-1667	-284	-2734	-17704	-16	-2776	4822	8336	2702	-16908	2204	-2324	2969	9436	3645	127	131	1
-3416	-11116	18140	-3807	-28864	-2327	-6808	-500	2008	-8979	-1356	1005	-22680	-3660	-4296	3356	-21192	-4599	-11588	3088	12372	-1103	-250	-2030	-17532	224	-1380	-1287	5851	1769	-15908	4132	-552	-1718	9401	2340	119	125	1
2416	-9084	12108	-7168	-29925	-3270	-9336	-1232	1280	-8341	-8916	-4429	-19260	-5272	-6508	3485	-18488	-5442	-11468	2700	11956	-1053	-230	-1563	-17052	-888	-1460	-5283	4095	997	-16456	2808	-1456	-8437	8216	2159	125	125	1
-1504	-9452	8920	-6563	-31185	-4605	-6592	-1396	-1004	-4202	-17500	-5435	-16548	-4596	-7120	6894	-16673	-5294	-11128	2268	12180	-713	-103	-1189	-16148	-3900	-796	-2626	4255	1242	-15996	-1408	-196	-10855	7650	3190	124	133	1
-4700	-9036	8312	-4970	-32768	-8696	-6264	268	-2716	-588	-25513	-6209	-14404	-2716	-8292	11740	-14603	-4658	-10980	3304	11800	-1008	-113	-851	-15680	-2580	-628	2249	5398	1694	-15200	-4008	940	-5416	7833	4669	123	136	1
-7196	-8960	8720	-3716	-32768	-14820	-8536	3444	-4332	-3095	-31279	-7153	-13328	-2656	-7804	14701	-13334	-3805	-10076	4508	11972	-651	-37	-987	-16340	-2660	580	7178	6510	2441	-14476	-2336	1408	4388	9569	4396	122	127	1
-12252	-7648	10108	-4348	-32768	-20262	-11696	2820	-5280	-6086	-32768	-8053	-12324	-3868	-7332	15318	-13068	-3107	-11532	2736	11844	-1507	75	-1455	-16480	-1420	-2116	8317	6328	2981	-15504	80	-784	9503	11929	5232	123	130	1
-15224	-6440	9772	-6889	-32768	-23910	-12164	2688	-4588	-6102	-32768	-9505	-10540	-2172	-8524	17348	-11345	-3299	-11664	1688	12364	-667	268	-1066	-17160	-1092	-2156	4504	5120	2046	-16004	-336	-1712	8387	13346	5737	121	130	1
-17752	-7892	10548	-8829	-32768	-24243	-13904	3400	-5716	-8809	-32768	-12211	-8648	948	-9440	19962	-10488	-2813	-10812	2508	12256	-178	738	-721	-17212	-2812	-1104	1420	4558	2370	-15228	-828	-560	8815	14210	5648	123	132	1
-19520	-9964	11972	-8433	-32768	-24445	-18220	3028	-6288	-7839	-32768	-14610	-8316	2596	-9320	12421	-8285	-2530	-11108	2872	12148	-469	1081	-406	-16456	-1360	-936	1627	4889	2528	-14964	-1140	-320	8270	16477	6160	122	130	1
-21124	-10284	15368	-8389	-32768	-26185	-23664	5660	-7308	-4475	-32768	-15708	-8432	1768	-6088	4329	-5004	-2558	-11532	2524	11900	-354	1163	-596	-16304	-2768	-1492	5195	6267	2939	-15920	-656	424	4036	17013	7086	119	130	1
-31880	-7780	20536	-13955	-29680	-30545	-28580	10328	-10800	-5844	-32768	-15488	-9432	4628	-3080	745	-2408	-2521	-11800	2416	11836	-266	734	-229	-16768	-720	-432	8299	8719	3615	-16044	1516	3408	-2499	16835	8167	127	132	1
-32768	-9100	20064	-16134	-31606	-31901	-32204	10800	-14932	-8330	-32768	-17872	-10624	4148	4044	4409	-4295	-1492	-11296	3460	12064	-970	474	-540	-16312	692	2404	5287	9893	3229	-18356	1836	5020	-4329	13953	7524	129	131	1
-32768	1844	13956	-17951	-28733	-31811	-27196	9400	-18032	-12579	-32768	-14836	-14692	-6344	8076	-626	-6002	-3774	-11624	3584	11956	-1891	639	-780	-15928	1456	3188	654	10920	1922	-20256	2300	5700	-1361	7361	4430	129	131	1
-32768	1432	2712	-11270	-30485	-26548	-21712	6940	-21140	-10772	-32768	-12528	-19432	-4684	17408	2252	-6053	-10091	-11612	2676	12220	-2023	514	-2249	-16732	372	920	-678	12951	1050	-18088	204	6944	185	6933	4106	128	131	1
-32768	11972	-11956	-4589	-29042	-19006	-16204	8500	-22412	-9720	-21876	-11210	-14864	816	24772	-1238	-3424	-9106	-11588	3192	12700	-1923	1771	-2442	-17604	-388	-620	88	15154	276	-17052	-1500	4904	2146	8992	4858	122	130	1
-32768	30432	-26064	-12982	-15851	-10929	-4480	8828	-21776	-6883	-4897	-8117	-13052	2480	28924	-5101	-221	-1146	-11536	2788	13144	-1997	3331	-3575	-17160	-768	-1948	134	16710	-43	-15976	-40	84	6084	7635	3688	122	127	1
-32768	18592	-23684	-9451	3178	-3844	-6252	3696	-18728	2067	10648	-1349	-13240	-3216	22088	-3337	-6025	734	-11740	2992	14600	-3085	6101	-5145	-19096	-888	-3608	-1513	17613	-795	-17688	1788	-1964	7748	4555	2553	121	126	1
-32768	7228	-9980	14439	16672	9012	-10336	7200	-18984	12296	18163	3307	-14416	-7592	11304	-1636	-4184	-1017	-12456	3680	15240	-4039	10706	-7153	-21216	-3784	-5172	-3301	17560	-393	-20948	1136	-2756	8636	2759	1089	128	127	1
-32768	-32768	32767	19540	4438	5476	-32768	15980	32280	-7202	17554	11316	-12520	-4124	8120	5818	2267	-2285	-11860	1300	17200	-4908	15715	-8072	-22644	-4388	-6008	-1720	18081	7	-21224	1600	-712	9858	740	-810	124	127	1
12840	7280	3920	13705	16748	11009	-13000	-1664	4284	32667	1400	-6520	-18744	-160	-8072	1500	16898	2651	-9652	3612	16780	-4957	21743	-6656	-23240	-5364	-3976	-3744	17842	-788	-23860	-416	5536	8677	-4197	-1031	137	125	1
-19240	17332	16944	10155	23615	4920	-9604	18380	-5532	22872	7659	7303	-16972	408	6516	27475	-2007	1569	-8788	3624	17448	-4713	28423	-9151	-24804	-8416	1804	1125	20352	-299	-19044	-7276	9896	446	-9866	-3287	121	131	1
-14568	1496	15008	948	24096	51	-24788	17160	-3312	9656	11806	3744	-15964	6288	8448	29663	9588	-2456	-8436	7700	17536	-7535	32767	-12105	-27068	-11040	8464	4908	23236	719	-18724	-13880	11348	5060	-11122	-7938	118	132	1
-23128	-120	18632	-3103	17292	9824	-20740	3732	-6016	3081	13993	1637	-17600	12668	3076	7893	11325	3432	-13824	5980	14788	-12136	32767	-19810	-30420	-11108	12888	7803	25346	1790	-21372	-13788	14280	9397	-15461	-13987	126	132	1
-17900	-19788	9604	-1358	12114	4201	-23072	3648	-4980	2304	13824	-85	-22556	-832	-4160	-12245	13524	2031	-23168	9108	14184	-12516	32767	-30638	-26532	-12	1604	6019	24983	1604	-19540	-4060	7144	15371	-14470	-13871	124	132	1
-18340	-9424	6980	5728	6921	4978	-17000	-4080	-5600	4938	11559	-1500	-15888	-8824	-2644	-12919	13353	-6260	-32768	4516	-220	-7563	32767	-31123	-25604	4440	-13816	-1563	25801	1487	-20964	5264	-3160	26235	-8046	-11053	132	136	1
-13024	-4848	11748	5590	3934	5404	-16600	4068	-5560	3543	8690	152	-15464	-8056	-5980	-8041	12449	-3665	-32768	5612	16004	-6835	32767	-32768	-24624	2180	-9216	-6610	20655	2203	-29472	3972	-14892	29170	-7902	-2139	134	139	1
-11864	-3272	12712	4225	818	4248	-17216	4968	-4188	-954	8132	-681	-15628	-7056	-5940	-6578	11907	-2879	-27012	9400	20816	1956	31592	-27331	-18060	-772	-7224	-8742	15312	1230	-31888	-304	-13584	13187	-23050	3151	137	133	1
-11760	-4032	12596	1895	1200	1918	-17520	4472	-2988	-1337	6588	-745	-16280	-3336	-3100	-486	13696	-927	-25380	2080	14188	-1867	13425	-20338	-12568	420	-8356	-2359	8705	2198	-25404	-112	-5152	6211	-31486	-16	132	127	1
-10504	-5688	11432	609	899	479	-17200	3012	-1436	208	5299	-1021	-14760	-3444	-520	3618	12979	758	-15492	10176	17996	2369	-19180	-6226	-6984	1444	-4032	6553	3028	1957	-23648	-180	-972	7143	-26460	-514	129	131	1
-10272	-5224	11696	233	859	-153	-16240	2860	-1300	2534	3957	-1512	-16612	-4152	132	5969	12983	1496	-2024	11348	13772	4712	-24684	1531	-8852	-1260	2120	10809	-4840	1167	-22244	2360	-7044	9779	-19831	2035	122	126	1
-10064	-5488	11252	-35	967	-730	-17112	1988	-884	2968	3250	-1159	-16100	-3648	876	7153	14478	-819	2616	8084	9692	5694	-21639	4393	-6356	320	1488	5840	-14002	329	-17956	3420	-8728	5768	-17204	2925	121	121	1
-9436	-6380	10692	362	885	-551	-16400	1164	-356	2029	3388	-438	-16016	-2216	1812	5261	15428	-3460	-5264	6188	9176	7386	-20111	7668	-5696	2668	-1952	2458	-20974	-1251	-15392	4380	-9032	-1002	-17222	2123	119	116	1
-8848	-6600	10484	1118	1068	138	-15652	892	192	-659	4229	-35	-14844	-1356	4100	2066	16038	-4747	-12356	4180	10092	10495	-25235	11404	-6928	1548	-5248	333	-27911	-1619	-12716	2648	-8904	-5813	-16790	941	123	118	1
-9348	-6344	10280	2164	974	1196	-15432	1008	512	-3279	5686	66	-14152	1004	4864	-2629	15998	-4732	-16836	2348	10344	14258	-32768	17654	-7664	132	-6180	4237	-31645	-2449	-12208	2564	-8392	-6523	-16640	771	127	124	1
-9344	-6052	10432	2826	859	2106	-15664	1056	464	-2617	6132	254	-14652	1424	3772	-4492	15964	-4561	-18204	1128	10132	18083	-32768	23831	-9932	-428	-5704	7615	-32768	-2941	-9600	3780	-8772	-11850	-13144	546	127	119	1
-10304	-4432	11796	2180	595	1999	-15716	3532	-432	-1965	7390	312	-16804	-644	988	-5401	14127	-2673	-17532	892	10120	21886	-32768	28467	-12596	-84	-4908	7550	-32768	-3581	-8688	4320	-9288	-16552	-11507	92	124	121	1
-10576	-4912	11400	1331	713	1063	-16016	2340	-608	-1104	8521	559	-17024	-952	716	-5400	13862	-2602	-13508	956	9804	25747	-32768	30223	-16644	-1624	-2260	5413	-32768	-3614	-8992	5768	-10148	-21396	-10941	22	126	122	1
-10084	-5228	11560	814	838	568	-16508	1888	-868	338	8397	801	-16604	-3868	-832	-271	10715	-4303	-13692	-136	12876	28454	-32768	28002	-21184	-4184	-8452	2244	-32768	-2453	-9452	3588	-10660	-19740	-8341	920	129	123	1
-10508	-5116	11324	407	850	446	-16220	2324	-1376	90	8384	1298	-16632	-3888	440	-998	10438	-3590	-32768	20	15280	29818	-26625	26979	-21720	-440	-12784	8359	-32768	-3170	-9640	-5056	-5228	-15167	-8670	-1294	129	122	1
-10492	-5136	11360	84	770	373	-15180	2104	-840	-950	9032	1431	-16416	-3244	1316	-940	9857	-2496	-32768	3808	19256	23132	-28973	25696	-31928	-4308	-16644	9878	-32768	-1185	-11928	-10992	500	-8260	-11585	-4178	125	122	1
-9932	-5376	11580	-108	846	487	-16100	976	-308	606	9577	1754	-16880	-3104	2140	-208	8681	-2113	-32768	-10276	14392	22010	-30771	32767	-26228	-2960	-18956	18923	-32768	-539	-10328	-5604	10192	9511	-5889	-1101	125	122	1
-9752	-5908	11296	-323	1228	841	-17172	1448	-1088	1467	10175	2355	-16160	-3636	2468	-1589	8456	-2854	-32768	-14076	7764	19194	-29798	32767	-27472	3360	-18612	18820	-32768	-454	-17720	2540	12500	15899	1274	6803	125	127	1
-10612	-5476	11820	-409	2005	1539	-16932	1632	-2640	416	11316	3157	-15680	-3148	1716	-3560	8208	-3548	-32768	-21168	-4948	16552	-24886	26898	-21608	2512	-18468	14000	-26234	552	-19924	-2012	20076	11163	-2969	8638	125	127	1
-10572	-5372	12220	-762	3465	1703	-17052	2060	-1852	63	12570	4034	-17000	-1960	2664	-6221	6937	-3102	-32768	-22264	-21456	10904	-14315	14092	-11292	3104	-21056	8983	-13734	4256	-14620	-888	21660	4493	177	11775	127	115	1
-11016	-4656	12352	-992	5953	1534	-15808	2920	-1576	334	14744	4548	-18208	-2376	4088	-9355	4156	-1234	-31948	-30104	-24228	13261	2100	3617	-7908	2704	-20724	7328	1573	8620	-10088	-6676	20956	-1072	201	5529	126	111	1
-9916	-6372	13524	-1657	9054	1779	-19100	1584	-2324	2508	16254	4943	-18856	-4388	1484	-8766	2136	-894	-31824	-20552	-14076	5359	11309	-786	-9032	3376	-20572	-4629	12963	6310	-11868	1876	17416	-2909	-5623	3055	126	122	1
-10900	-6456	14200	-1577	13388	3911	-21368	6160	-4588	4309	17056	5118	-20024	-2668	-1568	-8197	1724	-869	-25860	-6584	4	-14131	15792	-1045	-14260	-1500	-11504	-13372	20390	3075	-10500	2412	12004	-19454	-1460	5171	125	132	1
-11028	-4932	14240	-2384	19167	4770	-19372	8948	-4440	1106	17665	5099	-18500	-1448	376	-8650	70	619	14028	32767	32767	-20996	-640	2378	-32768	-28944	32767	-11459	3560	-404	-9788	9388	-17328	-10114	28819	9228	125	133	1
-9652	-5728	15116	-2688	25928	6089	-23160	5292	-2432	977	18070	6033	-21744	-3768	4144	-7607	-3388	1399	1576	-25488	-8140	-30804	17383	-14018	2012	572	-13528	-32768	-6127	3904	-32768	-4504	-5988	-5924	8549	2277	116	128	1
-7216	-6964	14376	-3470	32767	8587	-21932	7296	2276	1314	18721	6962	-20460	1412	14284	-6570	-12558	3975	-21388	-15492	25568	-14283	21907	1108	-21308	-18668	-3212	-32768	3424	-5928	-14812	-3492	14308	-32768	-4284	-3221	118	136	1
-8476	-8856	14188	-3408	32767	12444	-25060	6496	8052	-1848	22793	7694	-19764	9084	21896	-2196	-16202	3985	-16532	-19084	23064	-2798	18262	-14605	-21024	-11792	-6100	-16989	8368	3143	-16524	-28392	4108	-30645	10058	-2887	122	120	1
-9748	-13104	13536	-3537	32767	20740	-29032	4548	10192	-5734	25005	6067	-21704	11068	11376	-12863	-15754	6237	-27440	29972	12536	-2834	8363	-3276	-24712	124	1152	-3399	12597	6526	-19864	-6688	-1664	5414	14640	-1722	118	114	1
-29796	-10848	10236	-1089	32767	28749	-24016	2308	-6100	-2183	25541	5506	-20340	1572	-1304	-32118	-12901	6167	-8804	-7200	16124	-8363	5271	-8310	-15112	3352	-536	-11661	10245	6209	-18068	19012	-2872	7788	13513	10692	122	121	1
-32768	-6748	4592	-1009	32767	27772	-22440	3608	-14036	3864	25775	7348	-25180	-8232	-14272	-32768	-13791	3718	-14508	10708	9608	-8581	3162	-8050	-17140	4764	-720	-7310	9601	3808	-13428	3464	-1692	-558	6815	9067	127	142	1
-32768	-9984	13040	-4951	32767	25095	-22848	7664	-11224	-648	20037	6548	-26260	-13052	-15548	-10124	-20805	-3027	-14632	-592	13124	-6750	951	-8050	-17516	-2452	-4540	-2304	9317	2940	-16712	884	-1484	5882	6760	6503	132	139	1
-25224	-11228	18344	-11840	29011	18580	-14160	1448	-14756	132	18899	7879	-23688	-9504	-10156	6770	-22246	-2423	-12596	-344	13400	-4485	212	-4958	-18652	-3720	-3440	4586	10292	2942	-18760	3580	-2752	6660	8845	5145	128	136	1
-32768	-19420	19508	174	-11793	14244	-10840	1372	-4712	-4628	8911	5561	-23528	-3492	-2376	8035	-22439	-2256	-12416	1496	12980	-2834	-58	-3330	-17184	-1284	-2356	5378	9756	2486	-15548	2384	-960	2246	8210	3572	121	126	1
-2436	-11660	17980	154	-25639	3282	-5916	-3324	-3168	-5298	896	-878	-22988	-3908	-4008	5146	-21139	-4412	-11464	2736	12516	-2512	234	-1879	-17048	-1488	-1072	2301	8432	2267	-15440	2340	-464	-3093	7062	423	113	121	1
2448	-7832	12408	-5027	-30502	74	-9408	-556	2684	-7745	-5894	-2657	-18800	-4472	-6672	4265	-17136	-5679	-11436	3100	12096	-2157	273	-1931	-17292	72	-2704	-719	6449	1798	-16900	3228	-2788	-6275	8402	703	120	122	1
1044	-8164	8328	-6333	-29737	1224	-6904	-1276	420	-4240	-13163	-3460	-17340	-3520	-6468	7492	-15885	-5837	-11876	1824	12184	-1440	10	-1532	-16800	-2612	-2804	-1191	5333	941	-16272	-648	-3052	-8971	7835	2473	123	133	1
-5980	-9424	7748	-4326	-32658	-2475	-4908	52	-4108	1498	-21009	-4903	-15192	-2040	-6976	10515	-14927	-5329	-11560	1644	12236	-902	229	-932	-15672	-4140	-2408	2857	5404	1496	-15088	-4164	-1332	-3958	9102	4385	121	128	1
-7128	-9988	8492	-1538	-32768	-9924	-7720	4180	-4792	-1173	-26972	-5252	-14668	-2192	-6704	13750	-13741	-4519	-11180	2928	11860	-364	234	-474	-16344	-1948	-884	6272	5869	2060	-14892	-2236	688	3381	9377	3611	122	128	1
-8592	-7892	8676	-332	-32768	-16919	-10828	4236	-4260	-4337	-31907	-6180	-14332	-3588	-6212	17173	-13274	-3647	-10880	2876	11920	-191	457	-891	-16420	-732	136	4892	5585	2218	-16420	-532	2064	5853	9628	3022	125	126	1
-11272	-4948	8052	-2796	-32768	-21330	-11036	3684	-3508	-4755	-32768	-7925	-13004	-988	-7664	22765	-12658	-2838	-10964	4012	12120	-589	718	-1501	-17052	-720	652	2322	5382	2019	-16528	820	2508	5437	10698	3709	129	123	1
-13892	-4024	9152	-7138	-32768	-22245	-12012	4380	-5480	-4684	-32768	-10128	-10916	3288	-7440	23043	-12480	-2069	-11360	2896	11828	-1531	256	-1741	-16584	-608	-384	385	5745	1367	-16640	408	3700	2384	11019	3752	123	132	1
-19504	-7892	11188	-8074	-32768	-21588	-15752	3108	-8012	-4202	-32768	-11543	-9656	4808	-6968	12958	-10333	-802	-11932	2316	12040	-1678	-20	-1834	-16264	-1892	-2052	2799	7023	1388	-14424	648	776	4224	13817	4816	125	132	1
-21196	-8048	14428	-6061	-32768	-21317	-18892	5328	-7784	-3995	-32768	-13302	-8964	3352	-6080	775	-6590	-71	-11788	1848	11948	-1418	-314	-1091	-16132	-1716	-2484	4199	8227	1912	-14872	-664	-1036	6099	12966	4443	123	129	1
-22772	-1940	17536	-10575	-32768	-22464	-22388	11684	-8376	-7329	-32768	-14120	-9860	2492	-4276	-5350	-2225	-790	-11272	2284	12304	-740	150	-907	-16132	-1704	-1060	2964	8607	1741	-17064	1000	-76	2094	10766	3630	125	130	1
-28088	-1464	22468	-18449	-31180	-22090	-27468	11096	-11984	-13688	-32768	-14953	-11308	3016	-308	-5857	-1190	-997	-11180	2876	12376	-1045	505	-1597	-17360	-172	-2764	-258	7247	1451	-17016	3316	-2120	-682	12999	5055	124	130	1
-32768	-2628	21596	-17258	-32768	-19089	-28672	10656	-14136	-16388	-32768	-14650	-12332	-1752	4392	-3668	-2625	-2179	-11808	2200	12240	-1058	932	-1727	-17208	-1532	-2996	26	7547	925	-16464	2312	-1232	-1818	13114	5575	124	130	1
-32768	4700	15840	-15242	-32768	-15810	-24860	9696	-14144	-19210	-32768	-12392	-14796	-10284	9072	-4024	-4838	-5141	-11572	2316	11652	-1144	754	-2180	-15284	-632	-740	2815	9441	1242	-15936	-380	3224	-1452	11332	6034	127	131	1
-32768	4240	3228	-12030	-32758	-15629	-19824	8944	-15916	-13804	-29891	-10333	-17728	-4180	14560	5867	-3496	-10339	-11708	2708	11960	-1328	712	-2192	-15576	172	1736	708	11230	739	-16636	-3124	6832	1740	8996	5470	124	131	1
-32768	12048	-9976	-7330	-26217	-13023	-14264	9632	-17420	-9382	-20937	-9998	-12204	4268	22752	3267	468	-5516	-11468	3668	12864	-2048	1701	-4347	-18160	-732	-96	-1904	12541	93	-17368	-2888	4612	5005	9310	4756	121	130	1
-32768	26268	-20496	-11284	-12356	-9502	-4848	7680	-17920	-3369	-7185	-6041	-11788	3040	28836	-4066	-2709	2646	-11920	3580	13644	-3795	3892	-6566	-19232	-1060	-4224	-2376	13484	2	-17804	496	-1472	4320	10546	4605	129	129	1
-31584	18452	-19548	-2519	4419	-6151	-4984	5388	-15932	4586	7484	1281	-14164	-3604	22512	-1207	-6222	3350	-11868	540	15608	-4199	7420	-6323	-18888	-4164	-4608	-1883	14593	-707	-19464	1208	-2936	3852	8110	3787	125	126	1
-28700	11368	-7872	16137	16349	5263	-12216	5860	-15132	11303	15737	5776	-16140	-4536	10952	-56	-6506	2450	-11780	1600	15672	-4928	10591	-7440	-19428	-3796	-4708	-3622	15009	-689	-19712	932	-1580	5926	4069	650	120	126	1
-4344	-24108	32767	4007	8120	10298	-32768	-4064	32767	-317	10365	6090	-15624	-1780	-1360	910	2720	1954	-11760	1520	16924	-6399	14628	-7635	-23264	-3220	-4560	-4556	15284	-1233	-23156	2640	-288	6262	1002	-981	126	127	1
-10436	9372	4696	10498	16887	25615	-32768	-3908	30188	3751	7942	2948	-22148	-260	9508	7519	541	2855	-10956	3296	15504	-6368	19357	-8523	-21892	-4756	-2676	-3643	16084	-774	-22476	892	4048	6034	-995	-1074	125	129	1
-21056	-2868	13496	154	22214	3465	-19932	13464	896	-1015	15215	9720	-7908	2156	2768	15412	6651	1768	-9468	2112	16356	-7466	23554	-10795	-23216	-4992	-588	-58	17930	-426	-20716	-2520	11008	2323	-8638	-3170	123	131	1
-17676	2180	16364	998	20009	7257	-21696	4852	-3516	1520	15012	474	-18840	3940	6348	230	8812	2315	-8612	3728	17068	-10227	32767	-14576	-26584	-9628	5448	3082	21117	-1103	-17824	-10252	11392	1668	-11450	-6289	125	133	1
-24048	-2652	15220	-784	11331	7284	-22088	5308	-6276	2124	15492	3625	-21264	-2204	2148	-6231	9798	1907	-9344	7072	18368	-12996	32767	-17697	-29100	-14680	12288	9979	23951	808	-18152	-16248	9684	8474	-11748	-13584	122	132	1
-11884	-9284	10792	1794	10213	3535	-17872	1784	-2936	4631	13313	1326	-16476	-4800	-4480	-5366	12990	-2549	-18392	7492	14336	-16451	32767	-26408	-25668	-3584	5676	9254	24152	2107	-20820	-9580	8444	14544	-14614	-15775	127	133	1
-10548	-5244	8960	5891	4685	4190	-15568	16	-4876	8043	9536	16	-13348	-5236	-2312	-367	12077	-3975	-32768	-1588	3360	-11047	32767	-28960	-22416	6728	-14752	2626	24959	2536	-16716	2624	1896	23971	-9225	-13714	131	133	1
-13516	-4488	12156	5124	2702	4515	-16268	5020	-4156	5856	8232	-272	-16864	-4152	-2856	1157	10854	-2232	-32768	3712	9472	-11663	32767	-31552	-25100	2728	-13376	-2411	23015	1852	-25004	6680	-9180	28693	-6748	-7855	129	131	1
-11736	-3912	12056	3159	1530	3189	-16916	4476	-4160	663	8323	-591	-18336	-1472	-4204	-354	10303	-2801	-32768	3424	13336	-10889	32767	-31476	-18972	384	-5168	-5957	16833	-614	-29660	4680	-14060	15960	-14561	3063	132	137	1
-11276	-5256	11584	2361	1164	2376	-16624	2796	-3332	-1097	7236	-922	-15768	-3280	-2332	-772	10929	-3059	-14888	9688	14156	-2280	20431	-19268	-15292	1128	-9208	-5600	11656	-759	-26776	3980	-9012	7199	-25819	5118	138	135	1
-11168	-4556	11544	1811	543	1475	-16656	3068	-2592	-701	5496	-1016	-16480	-4004	-816	635	11187	-2040	-25884	10444	15640	308	-10615	-1405	-7936	3456	-7764	-594	6632	-1912	-22576	2292	-2236	5763	-27297	173	133	138	1
-10680	-4744	11604	1174	454	428	-17000	4016	-1772	-147	4510	-1458	-16696	-3328	-244	1869	11794	-1160	-9124	11052	13144	826	-26711	7299	-10056	48	-584	2821	-944	-2648	-23904	6708	-4532	6435	-20299	1376	128	131	1
-10488	-4776	11456	495	677	-178	-17096	2476	-1424	1226	3638	-1976	-16920	-2340	-8	2549	13384	-1370	1452	10104	9424	76	-28021	10032	-7820	1392	1000	85	-8408	-3846	-20184	6612	-7452	2181	-18178	3629	125	124	1
-9960	-4816	11244	255	744	-424	-16056	2116	-760	2967	2703	-1550	-16056	-1156	744	805	14711	-2330	-1488	7184	7956	-713	-23990	10805	-6568	2896	-1120	-3440	-16138	-5675	-17000	7276	-7848	-4844	-16860	4057	127	123	1
-10220	-5512	10916	263	693	-332	-16024	1840	-1156	1385	3143	-1347	-15068	332	2352	-2392	14333	-2908	-7316	6216	8348	902	-25044	12539	-7332	3104	-3260	-5307	-22382	-7131	-15420	6088	-8576	-11029	-17458	3068	129	118	1
-10120	-5384	10964	365	606	-75	-15940	1768	-1188	821	3319	-1317	-15052	-776	3116	-6278	13117	-2832	-13248	5280	9348	2848	-30720	15408	-7860	2540	-5664	-3413	-27190	-8653	-13440	4056	-7820	-14920	-17215	2158	126	119	1
-9716	-5108	11348	174	673	27	-15804	1040	276	-3005	6065	-1198	-16272	-1876	2776	-7159	11811	-2878	-15240	3848	8492	6000	-32768	19471	-9168	1396	-5084	-736	-30824	-9844	-11664	4024	-7972	-18320	-15591	1687	125	125	1
-10180	-5108	11208	-162	699	-158	-15544	1012	312	-1505	6344	-651	-16444	-2640	3808	-4931	9475	-3208	-14016	3196	7980	10438	-32768	23088	-10620	-376	-3928	-1259	-32768	-11211	-10896	3800	-9612	-22720	-13841	1374	131	124	1
-10512	-5256	10812	-266	586	-193	-16256	748	-1044	-1273	6727	-196	-16636	-4296	2764	-5550	8640	-2963	-12472	5104	6172	12852	-32768	27360	-15124	-232	-3372	-3215	-32768	-11416	-9724	4768	-9844	-25782	-12743	1634	131	124	1
-10448	-5096	11120	-310	661	-165	-16400	1652	-1740	-1373	6806	48	-16076	-4016	64	-4767	8384	-2617	-16740	9432	7692	9024	-28499	29294	-19372	1516	-8892	-6619	-32768	-12427	-11088	3872	-8124	-26476	-11706	1757	131	124	1
-10040	-5288	11100	-285	729	-54	-16892	1668	-2376	-1220	6453	87	-14840	-3828	-2312	-4002	9829	-2871	-32768	11600	10880	1568	-26720	31081	-20772	5008	-10932	-4450	-32768	-12063	-11232	-2368	-6068	-22843	-10514	1281	128	122	1
-10272	-4828	11020	-387	754	123	-16184	2696	-3416	-949	5653	-110	-14368	-2528	-2888	-3135	11839	-2388	-32768	7508	13288	-3942	-31958	32767	-28248	4012	-13604	-14181	-32768	-14216	-11904	-7076	-2832	-15987	-10543	-769	129	129	1
-10652	-4872	11284	-531	1104	-132	-16524	2008	-3284	-1907	5551	-81	-15872	-3444	-1620	-1610	12177	-2495	-32768	4444	10304	-7470	-32768	32767	-26064	688	-14140	-10482	-32768	-15728	-12344	-5804	1404	-13360	-7035	1770	129	120	1
-10644	-5280	10960	-702	1256	-176	-15692	1096	-1716	-2445	6313	335	-16904	-3312	2156	-872	10556	-3669	-32768	884	8236	-5852	-32768	32767	-24968	4368	-11212	-7042	-32768	-15167	-10776	-2288	5640	-5068	-2080	9722	128	122	1
-10252	-5568	10800	-708	1287	-167	-15368	-12	-152	-2586	8063	898	-17152	-2884	5012	-2427	7973	-4230	-32768	2308	892	-5814	-32768	32539	-26180	112	-10472	-5124	-32768	-10883	-14988	-1060	7324	-14381	969	9627	129	120	1
-10060	-6144	10984	-651	1508	608	-16684	-328	-816	-1236	9264	1433	-17228	-3092	3472	-5503	7086	-3987	-32768	-7536	-10552	-2575	-26857	23086	-16536	2688	-16628	-3829	-31087	-3299	-17288	-13412	8972	-26358	-1439	3836	128	111	1
-10608	-5640	11432	-603	2399	1825	-17136	1860	-2440	-1211	10212	2108	-17280	-2948	1076	-7977	5856	-3830	-28236	-20380	-13704	16958	-12261	22252	-14796	-2592	-15372	7588	-17740	3097	-15060	-19188	20780	-18841	-6841	-995	127	112	1
-11080	-5228	11708	-1219	3692	1791	-16444	1864	-2832	-2275	11913	2631	-16480	-3596	688	-9884	4096	-3451	-29428	-14196	-14692	18302	2687	16762	-9852	3996	-15320	10752	-4067	7287	-12928	-11432	21476	-1211	-6738	72	128	118	1
-10896	-4244	12184	-1366	5370	1938	-16256	2028	-2200	-777	12896	2999	-16632	-5148	2236	-10921	2484	-2572	-30512	-7592	-11900	-4367	5693	6234	-13592	6048	-13024	1093	4708	6009	-11500	1828	13120	7184	-3171	3609	129	126	1
-10028	-6252	13324	-2035	7945	1990	-19124	2344	-2644	348	13955	3778	-18280	-5492	480	-10996	1854	-1964	-11328	-19968	-14080	-19740	20760	-12273	-15524	3536	-4504	-18333	8025	3770	-12616	7740	7412	3219	-250	9079	127	120	1
-11272	-5352	13552	-2255	11853	3947	-20776	5308	-4740	703	14393	3736	-19856	-4044	-1032	-11471	1269	-1049	-5436	-4512	32767	-14077	25279	-6221	-25412	-22760	6476	-32586	871	457	-17136	400	4692	-11065	1640	9558	125	130	1
-10864	-5748	13820	-2852	17522	4389	-20524	5508	-2832	-445	15790	4268	-20068	-1832	1216	-11783	-545	-585	-21652	-6308	7144	-8883	26920	4699	-10548	-16504	-11156	-25668	7414	624	-18640	-16432	7364	-23346	7339	804	130	117	1
-9424	-4932	13840	-3069	22344	5475	-20328	5756	-2536	-362	15825	4259	-19640	1160	6700	-13001	-4420	926	-22552	-10836	22404	-975	26720	6921	-20524	-19600	-5996	-13886	11359	4674	-18712	-15224	548	-23206	15481	-3242	130	113	1
-8416	-6652	13788	-2970	28689	6918	-20748	5464	1456	812	19470	4422	-20484	364	13756	-12973	-11235	2447	-28132	-6796	16472	4310	16903	-4996	-20676	-7600	-6892	-397	16100	8228	-16948	-18980	-1412	-13281	4687	-2022	128	122	1
-8780	-7440	14340	-3231	32767	9943	-24872	7868	1068	-1409	20974	3527	-22644	2036	20328	-9078	-24982	3976	-17112	13444	5236	-3111	4452	-178	-20356	2728	-7884	4910	14773	13203	-15840	-60	-1040	5611	9180	-1452	119	126	1
-9740	-10116	14300	-6277	32767	13158	-30848	8600	8256	-13506	23684	3437	-20448	8940	4560	-17935	-13295	4768	-17092	7812	7244	261	5039	416	-18172	7560	-4948	-924	12872	8043	-17256	19348	-7220	14158	10340	4101	120	127	1
-18488	-6848	8468	-11147	32767	21627	-21892	4140	-1580	-13661	24221	-440	-20408	8292	1744	-23572	-16353	6110	-12472	5836	11072	-7285	2319	-4531	-17708	4944	-4004	-11439	7028	5426	-17084	10516	-3420	-2734	7044	9411	120	147	1
-32768	-8900	3052	-15310	32767	17887	-19192	4052	-14464	-9677	23528	885	-20488	6856	2032	-23448	-17133	5680	-13032	3076	12376	-6301	575	-3491	-15436	-7968	-2684	-5943	6684	3686	-17876	208	-1736	-9277	7223	8447	129	134	1
-32768	-4380	4216	-26037	32767	14024	-21888	3924	-16328	-6050	26483	3446	-26936	-3068	-15712	-31466	-17241	1545	-12200	3376	12196	-4030	-172	-2620	-17348	-3080	-1400	3550	8533	4094	-17204	-1648	512	-3870	7559	5019	125	144	1
-25736	-12388	10216	-32613	26502	11114	-17332	7612	-17180	-9771	23703	2794	-24800	-6016	-11048	-9322	-21900	-2896	-11532	4304	11860	-3545	-1288	-3426	-17064	-204	-1780	5217	8264	4722	-16428	1820	-84	498	8196	4930	127	136	1
-19996	-16744	14304	-24470	-1176	17929	-11720	960	-5908	-17731	18262	-1668	-23156	-1724	-4368	-2919	-21867	-1685	-11880	3536	11508	-2726	-2393	-3634	-17592	732	-592	-416	6129	2998	-15656	3232	1268	-3919	7276	3958	122	131	1
-5216	-13532	11956	-17381	-13995	12236	-8196	-4712	-2844	-17584	10935	-7605	-21360	832	-2412	-4799	-20997	-2524	-11416	4352	11728	-3704	-2805	-4965	-17444	1008	-1524	-9577	3703	1658	-16392	5296	1496	-11422	6976	3180	123	131	1
-1392	-9316	11840	-12589	-22147	8533	-5820	-1904	208	-13663	2746	-8679	-17216	-3304	-5184	-8664	-17281	-4409	-11456	4012	11892	-5089	-3171	-4028	-16768	-2328	-1928	-11256	3155	849	-16492	1408	496	-17687	6231	3457	131	126	1
160	-4016	9484	-13454	-24089	7649	-7184	2320	2244	-9299	-4610	-9690	-16356	-3932	-6336	-2995	-14340	-5070	-11332	748	12668	-4721	-2732	-3828	-15272	-5824	-3052	-8950	3961	912	-15976	-4976	84	-17607	5593	4448	128	121	1
-4420	-5944	9604	-13118	-26354	3717	-4708	2852	-1856	-5045	-10385	-10507	-15788	-1660	-6268	3205	-14129	-4602	-10284	480	13120	-2748	-1249	-2314	-15576	-7820	-3292	-2102	5609	2116	-15268	-8816	620	-10437	7297	4718	126	128	1
-5952	-7068	10520	-10679	-32768	-2382	-6380	5320	-2076	-6210	-16467	-12181	-14540	-80	-5520	6858	-15031	-3569	-10944	1664	12648	-1154	-297	-1632	-16120	-4944	-4448	4924	6295	3369	-14860	-5604	-2416	3139	11046	4398	125	126	1
-5664	-3784	11548	-10228	-32768	-9427	-9236	7600	-2288	-9288	-22371	-13997	-14440	-2264	-4324	8650	-14552	-2139	-11052	2164	12652	-1157	-249	-1894	-17560	-688	-4440	748	3733	3027	-15892	268	-4144	8679	12377	4249	125	122	1
-7808	-1732	10648	-12937	-32768	-14501	-10256	6684	-948	-11067	-25438	-15886	-14752	-1308	-4800	13911	-12594	-1880	-11496	1800	12492	-625	262	-1549	-16536	-3188	-3892	-1932	2147	2132	-16496	3700	-3640	3785	12538	4492	121	128	1
-9564	-1004	11040	-15255	-32768	-16289	-10888	6676	-2128	-5557	-30203	-18197	-13264	3492	-5968	20740	-12319	-1019	-11188	1892	12428	-591	223	-1495	-16228	-1348	-2932	-1784	1735	2008	-16852	2880	-1932	-1530	13484	4433	120	129	1
-13792	-2020	13700	-15046	-30775	-17361	-13180	9156	-5020	-1774	-32768	-18834	-10688	6772	-5680	13844	-11883	270	-10896	1460	12468	-609	-83	-2302	-16928	-3076	-1684	-1197	2372	1954	-17068	-1840	1148	-3304	12124	4055	123	136	1
-15904	568	18084	-15057	-31624	-20560	-13540	9436	-5400	-1525	-32768	-18713	-8488	4476	-3504	617	-9542	744	-10952	1848	12820	-591	457	-1914	-15820	-3720	-964	470	3849	2177	-16244	-2848	2500	328	12140	4202	126	135	1
-16508	4200	20800	-17390	-31429	-23855	-18000	15020	-5284	-9844	-32768	-18683	-9800	2240	-2960	-11578	-5918	980	-11224	2008	12184	-1025	515	-2170	-16128	-628	-1592	-1000	4138	1938	-16224	-168	736	-460	10252	4900	128	130	1
-18856	6388	24812	-17067	-29689	-20402	-23224	14104	-6988	-13301	-32768	-18187	-11388	124	-1800	-16564	-1428	9	-11256	1560	12384	-912	498	-2082	-16444	-2152	-2112	-2117	4825	1228	-16572	1736	1784	-6938	9705	5936	127	132	1
-27516	11496	27188	-18008	-28297	-13198	-25288	15696	-10348	-12635	-32768	-14468	-13080	-6324	856	-13849	1043	-3502	-11356	1276	12712	-641	815	-1945	-16156	-1804	-1684	-822	6515	929	-16684	-1296	1520	-5125	8719	4630	129	132	1
-32768	5980	23028	-12203	-30164	-6336	-25652	11748	-11360	-15471	-32768	-10554	-13928	-8140	2460	-5174	408	-8085	-11164	2824	12660	-726	917	-2559	-16592	-1464	-804	-430	7815	721	-15832	-3600	1944	-2669	8070	4008	130	133	1
-32768	4372	11932	-4895	-30485	-2614	-22312	10372	-11228	-11170	-32768	-8959	-14712	-1664	6032	-887	247	-7695	-11196	2648	13040	-1170	1925	-3938	-17440	-2712	-2084	-120	8832	936	-16528	-3320	664	2401	9702	4350	126	133	1
-32768	10340	2016	-6414	-24426	-5349	-20572	12564	-13488	-8907	-27962	-8574	-15484	1760	14340	-596	-2733	-1534	-11532	1032	13184	-1596	3785	-4433	-16268	-3736	-2400	-832	10122	947	-17148	-2720	708	3665	9327	4304	127	132	1
-31316	16312	-3480	-10415	-15176	-8114	-16264	8916	-17712	-7565	-20124	-8080	-18576	808	24632	-778	-3714	3279	-10200	-148	14424	-2964	5173	-4113	-16784	-3272	-1960	-3082	11768	185	-18344	204	2744	2208	7292	3248	127	136	1
-32768	27632	-11180	-8139	-12585	-1348	-7884	6364	-18684	-6322	-8737	-2728	-13700	-2600	26868	-7225	-4049	2987	-11100	1668	14604	-3705	7512	-4821	-17148	-3292	-2212	-3467	12009	4	-18560	1760	-72	1016	6549	2519	117	130	1
-27844	29480	-18832	-2681	-6419	9913	-3592	7972	-15748	-6225	6996	3290	-14220	-3580	21472	-5628	-3596	3324	-12376	1528	14616	-4884	10192	-5944	-19388	-3540	-5028	-6057	13375	-741	-19216	1716	-2836	-869	5317	1121	118	130	1
6168	13032	240	5198	2573	22586	-13556	4744	-7340	-9504	17272	5556	-14064	136	12596	-4961	-3641	6440	-11364	1184	14720	-5815	12917	-6833	-19188	-3472	-4424	-4339	14248	-714	-18960	3156	628	-4062	2446	-190	117	129	1
1244	-24444	32767	-12079	2688	26956	-30552	4952	23240	-17239	11178	2446	-17452	5204	4696	-7618	4679	9355	-11788	548	14652	-6527	16158	-7146	-20336	-2936	-2928	-5347	14961	-1442	-19216	120	3132	-3214	-2190	-1682	121	132	1
-12336	5648	1376	-1627	13990	19203	-9072	6824	-2180	-10367	14904	4149	-17252	10704	10868	4124	3979	12930	-10372	936	15164	-7473	19881	-8941	-20856	-3624	-1300	-4034	16546	-1825	-19220	-2864	9088	-3731	-9744	-3638	120	131	1
-17892	-20608	11788	-2961	18498	2264	-25696	-3056	976	438	13700	4535	-13308	-5528	3900	-2326	6673	3544	-10416	1280	15288	-8954	27137	-12353	-24328	-7100	2608	-622	19806	-2377	-17992	-8248	11184	-4527	-11406	-5180	113	130	1
-23244	-7340	13208	3277	10404	8572	-22568	-7800	-7224	8463	11170	2135	-21436	-13564	2120	-8168	5001	-1801	-9768	5668	17836	-12091	32767	-17143	-28340	-11908	8372	4051	22808	-2084	-19536	-11196	10812	415	-11934	-10473	121	130	1
-14116	-10148	14864	5696	7302	4205	-20492	2276	-5468	11763	8558	2350	-17304	-9128	-5144	2406	11216	-4039	-15024	7896	15808	-16857	32767	-23880	-27372	-6616	6344	6145	23590	-1443	-22816	-10280	7708	10235	-11655	-15338	126	134	1
-14288	-1804	14620	5191	2644	5402	-15416	5608	-4244	9120	6905	1713	-16856	-816	-6352	5621	11793	-2655	-32768	-3020	7636	-16613	32767	-30154	-20924	3252	-13624	2468	23530	-265	-20312	2216	2336	17915	-7047	-12860	129	134	1
-12420	-1452	13424	1521	1069	2827	-15688	9804	-3700	138	7937	456	-16952	4576	-3292	6399	9263	-1228	-32768	-468	5080	-16895	32767	-31589	-26472	4692	-14668	-3871	22114	-3558	-24040	9160	-4948	22573	-9309	-9208	124	134	1
-11464	-3284	12456	-161	1097	855	-17824	4448	-1924	-6751	9458	-1418	-17728	532	-452	-2288	7790	-928	-32768	2452	12144	-13299	26269	-28706	-20124	5444	-10696	-12544	17214	-3869	-26608	10188	-12684	10669	-13440	-350	131	136	1
-11216	-4856	11088	-458	859	192	-17096	-1336	-1976	-2743	6969	-1809	-15688	-3604	-792	-9174	8112	-1859	-6680	10072	17872	-12897	9794	-18663	-15976	2448	-11324	-14349	13085	-5682	-27520	8516	-12844	8010	-15524	1510	139	131	1
-10792	-5172	11396	-126	514	32	-17448	-468	-1888	3883	3189	-1201	-14356	-5980	-1572	-6407	8956	-3289	-27828	7172	13284	-13033	-7279	-1479	-15328	1988	-10052	-14161	11943	-6008	-24444	4732	-3348	1033	-25967	3984	129	133	1
-10856	-4484	11424	-131	481	-342	-16760	2668	-3020	4495	986	-1148	-16468	-6408	-3192	-4257	11740	-2116	-5324	7484	11796	-8222	-20530	7842	-9868	824	-2112	-6910	1329	-9617	-23496	4744	-3268	1084	-25397	3740	125	128	1
-10876	-4472	11456	-135	538	-375	-16740	3632	-2300	-391	1159	-1371	-16036	-4076	-1548	-3710	12300	-957	1148	9616	7188	-10001	-20192	7587	-7032	2432	-732	-7975	-5741	-10433	-20132	9020	-7412	-3797	-18381	4209	126	127	1
-10476	-4704	11232	-973	592	-1362	-16432	1568	-1040	-5005	1770	-1722	-14904	-2500	1356	-5460	12420	-1576	-3260	7556	6228	-11700	-18225	7468	-6064	4364	-2652	-10494	-12412	-12287	-16788	7752	-8416	-10207	-16768	3954	127	115	1
-9932	-5052	10928	-768	413	-1173	-16512	-516	600	-4133	1519	-1494	-14936	-2720	3964	-8230	12197	-2065	-7392	6404	7276	-9656	-21471	9363	-6424	4440	-4368	-9567	-17769	-14050	-15668	7092	-8112	-15085	-17147	2696	131	113	1
-9884	-5232	10928	-318	366	-766	-15708	-1036	1904	-1109	1107	-1151	-13936	-1576	5016	-6611	13399	-4191	-12200	6332	7092	-5956	-27836	12277	-7112	4736	-5072	-6351	-21782	-15358	-15120	5856	-8076	-18976	-16794	2227	129	119	1
-9532	-5132	10836	-115	283	-185	-15192	-672	2104	-269	1856	-602	-15568	484	7076	-828	13213	-5755	-16624	8360	6428	-3260	-32768	14901	-9460	6156	-5332	-4830	-26031	-16010	-14648	5900	-8192	-23570	-15307	2129	131	121	1
-9976	-4904	11128	-283	204	426	-15588	704	860	-3282	3828	-364	-19280	-5560	5296	-1662	9056	-5414	-16392	8576	4852	-1145	-32768	17218	-11636	4964	-4256	-5467	-31104	-17195	-12992	4196	-8708	-28389	-14154	1301	133	122	1
-10240	-5640	10988	-149	188	792	-16208	-608	96	-6545	6183	-369	-19576	-6948	4300	-2457	8450	-5601	-17816	8440	2924	2829	-32768	21347	-12648	3460	-3536	-5356	-32768	-17474	-11756	2132	-9268	-30627	-12502	1929	131	121	1
-10412	-4372	11388	5	135	743	-17076	64	-484	-5599	6633	365	-17340	-5392	-372	-7975	3219	-2479	-12660	10860	1876	3484	-32768	25551	-18480	2808	-5100	-7553	-32768	-16313	-11988	2488	-8640	-30071	-11125	2682	129	120	1
-10396	-4512	11132	-181	227	285	-16308	1520	-232	-3890	6897	499	-14592	-2668	1188	-7384	5006	-2547	-24032	13192	3228	2986	-26630	27633	-17680	3460	-7800	-728	-32768	-14723	-13008	-764	-6048	-27401	-10368	1377	129	123	1
-10272	-4536	11220	-245	258	-182	-15708	908	224	-2156	6816	519	-15464	-1868	1028	-7016	4916	-2060	-32768	14308	8440	-113	-25594	30045	-27060	9440	-10616	-6611	-32768	-11819	-12780	-5248	-4940	-21145	-9727	1081	131	127	1
-10444	-4584	11532	-302	482	-420	-15952	748	-580	-2120	7167	410	-16324	-3604	620	-5687	3314	-2698	-32768	12060	8144	-4567	-26996	32767	-26992	5848	-12396	-14247	-32768	-13983	-13120	-6444	-404	-14717	-8733	638	131	121	1
-10392	-4928	11436	-526	702	-515	-16828	548	-1404	-2239	7229	733	-16380	-5064	-244	-5017	3519	-3344	-32768	8628	8268	-6524	-31473	32767	-26428	5632	-13244	-8487	-32768	-12467	-12980	-6936	3276	-9303	-5215	2890	132	121	1
-10440	-4448	11592	-751	1009	-364	-16712	1620	-2628	-2851	7232	658	-16152	-4492	-544	-5557	4684	-2795	-32768	3392	7488	-1884	-32768	32767	-25288	3876	-10948	-3366	-32768	-11006	-11188	-3620	2640	-4044	980	7881	130	123	1
-10576	-4900	11288	-1073	1298	-369	-16660	696	-2332	-4708	7865	849	-15596	-3724	8	-7252	4466	-2382	-32768	2716	4204	4522	-32768	27997	-23484	1104	-9524	4830	-32768	-6064	-12596	-572	292	-4985	4317	11419	131	124	1
-10516	-5312	11028	-998	1495	-43	-15664	40	-1000	-4762	8598	998	-16148	-1564	1400	-9451	2682	-3093	-32616	520	180	9624	-27822	22772	-23568	492	-10848	8201	-32768	-2	-14480	-3292	3928	-11693	2986	9030	128	121	1
-10348	-5248	11248	-1003	1817	320	-15836	692	-536	-3273	9556	1211	-16952	-608	4060	-10927	1463	-3430	-28068	-7732	-5356	16502	-15869	20427	-19024	-564	-11716	11737	-27174	5527	-17080	-6784	11340	-13570	-3423	4007	129	124	1
-10524	-4848	11784	-1273	3002	375	-16652	1956	-1600	-2772	10844	1139	-16584	-1616	2256	-13549	574	-2946	-30664	-12276	-9696	18760	-2409	20757	-12700	1504	-14616	7500	-17228	8060	-17676	-8248	25840	-12190	-9486	2098	128	131	1
-10640	-4876	11568	-1370	4214	366	-16352	1868	-2788	-2823	11991	1060	-15652	-3784	-276	-14414	244	-2490	-27796	-14920	-15316	11022	7574	27653	-8800	2436	-12708	-1757	-3956	6704	-15224	-5360	23248	-6842	-8082	3133	127	114	1
-11092	-4328	11404	-2144	6399	-114	-16268	1076	-3584	-3173	13063	717	-15664	-4452	-740	-13349	-218	-1756	-24848	-2720	-14372	-9258	19904	26545	-11640	3980	-10460	-18074	3317	5046	-14324	520	13352	-5022	-2819	5932	125	110	1
-10388	-5780	12260	-2233	8003	467	-17932	1636	-4256	-1655	13032	705	-17000	-4284	-2024	-11978	-293	-1247	-28800	-5040	-4244	-24134	25029	21387	-13776	4100	-12076	-32768	6209	4770	-13528	7348	7004	-12811	-786	7979	122	115	1
-11240	-4980	12180	-3024	10320	505	-17880	3960	-5852	-2031	12762	643	-17268	-2020	-3040	-13256	-1001	-810	6112	4164	28316	-27786	21832	17387	-27976	-18244	18324	-32768	391	1667	-12748	6940	-2512	-23175	3060	8584	133	116	1
-11620	-5220	12672	-4297	13450	79	-19268	4116	-5584	-4991	13546	609	-18676	-2212	-2152	-15243	-2105	-983	-6604	-9244	12188	-23536	31590	16334	-12308	-12208	-1908	-32768	-3057	2865	-21252	-1444	3472	-30983	4381	6153	128	127	1
-11148	-5216	12392	-5654	17256	94	-17692	4560	-3864	-6740	14964	478	-18640	172	2928	-18743	-3846	-402	-23460	-13312	11892	-16502	32767	11967	-12700	-11940	-6008	-31297	2743	2370	-15760	-9060	6972	-32768	3702	-1166	125	112	1
-10424	-4828	12500	-8007	21773	-1437	-17396	5996	-1420	-8520	17271	-1	-18396	1996	11616	-20634	-11203	1155	-21652	-12440	14208	-15476	31583	9889	-17648	-16108	-2512	-21132	5890	4777	-15240	-13872	-932	-31562	9122	-230	109	116	1
-8232	-5356	14336	-10613	28625	-1346	-20896	9452	-2588	-9835	18413	-1326	-21812	11216	7064	-20697	-18571	3921	-25036	-7040	15264	4866	14618	-10410	-20196	-11860	-5908	-7894	10543	6010	-18936	-17376	660	-20584	1976	-1794	117	114	1
-9852	-2168	12584	-16362	32767	-3679	-20960	17284	-2140	-19034	19652	-2320	-21340	16928	-2352	-31254	-10154	7831	-10140	12484	9100	-7139	2245	-9498	-23284	9096	-2616	-4063	11809	10321	-20232	3660	-1008	-1081	4766	2791	119	124	1
-11136	-4124	9328	-20302	32767	-2263	-17252	11256	-2692	-28308	21081	-4688	-21096	10444	-3368	-32768	-10412	9680	-10688	10080	8472	-6485	-1844	-11033	-21856	8088	-1672	-6470	11251	9893	-14800	13300	-6104	-957	8306	9971	119	132	1
-14412	-4952	8480	-19493	32767	-1491	-15420	3316	-7168	-26604	18897	-3998	-17872	-1452	-8868	-32768	-11801	10228	-17288	-700	12484	-9518	-4964	-13030	-14428	-1696	-2792	-17988	3819	5381	-12904	3580	-1260	-17766	3124	9700	125	137	1
-32768	-8272	-2168	-32768	32102	-13744	-15256	1196	-19140	-7022	18181	-387	-19880	-7280	-9016	-29561	-17191	5470	-12476	2948	11712	-11702	-5961	-9513	-17988	-3460	-3036	-11335	4254	5759	-17904	-696	-3296	-12644	5028	9222	127	156	1
-23152	-13040	-332	-32768	18880	-9049	-20012	4060	-15452	-11521	19941	-277	-22444	-2728	-6000	-11043	-21526	3452	-11272	-2352	13336	-8800	-5194	-5348	-16476	-6644	-6012	-5105	5954	5317	-13728	-168	-940	-8328	6650	9331	123	132	1
-23492	-14760	84	-32768	16876	-7502	-15224	-696	-15812	-13309	20264	-3055	-21564	1676	-6080	-9427	-19114	2878	-11216	316	13760	-4314	-2743	-3606	-16836	-5152	-4636	976	6937	4776	-16340	1772	-3620	-7700	6550	5377	119	128	1
-2044	-24704	10804	-30380	-16169	18558	-14052	-372	-8444	-17019	17247	-5346	-23072	308	-5360	-15994	-16638	2097	-11344	616	13240	-3065	-1862	-2145	-17368	-704	-3264	-4688	5111	3892	-16728	3960	-1160	-13109	3352	233	123	124	1
-14876	-10468	13828	-16191	-32768	23126	-7276	-1772	-9280	-17246	10780	-8771	-21764	-1432	-6788	-15354	-15592	538	-11280	1732	12868	-2211	-672	-1254	-17664	-200	-2736	-11781	2479	1966	-18352	3724	-940	-20337	2715	361	125	123	1
-184	-3692	7748	-18065	-32768	25156	-8612	2692	564	-27259	5890	-10836	-20232	-252	-8312	-8068	-14912	76	-10792	1336	13016	-1499	-314	-1147	-16336	-5764	-2716	-8853	2677	967	-17224	-2436	-1044	-23754	3121	3974	119	153	1
1992	-3352	2724	-24275	-32768	27014	-4652	2956	2660	-30968	2150	-14207	-16524	1848	-6392	-4361	-13909	-195	-11052	1840	12792	-1227	-42	-930	-16172	-4404	-4904	262	4118	1725	-16020	-4712	-3340	-12041	6638	5670	126	127	1
468	-8280	3668	-21667	-32768	24941	-4700	4364	1140	-30825	-2169	-16270	-14160	2524	-4852	-6049	-12979	-37	-10948	116	12940	0	295	-647	-17144	-5416	-4844	2063	1376	1122	-14352	-6520	-4240	-1375	7546	5377	123	127	1
-1076	-9448	6088	-14982	-32768	15352	-6984	6072	-592	-24793	-8790	-16822	-13772	916	-4300	-9057	-11618	-207	-10580	-296	13112	892	1119	161	-15040	-4656	-4796	863	181	1941	-14872	-4168	-3880	4628	8239	3626	122	130	1
-5636	-5368	10244	-12210	-27860	2546	-9612	8256	-2632	-20532	-14071	-16311	-13420	-1580	-3644	-8179	-11438	-588	-11096	888	12828	1231	1831	1300	-16456	-3468	-4276	568	-810	1775	-16592	300	-4396	6761	10339	2999	123	129	1
-9132	-2248	11948	-15283	-26131	-9790	-12220	7904	-3228	-16255	-17942	-17323	-13880	-3628	-2436	-347	-11625	-1379	-10904	1340	12584	1986	2408	2236	-16432	-3896	-2616	1204	-720	1833	-16964	2032	-2456	3318	9413	2369	120	127	1
-11016	-1900	12600	-19933	-25736	-15531	-13428	5480	-2928	-11711	-21685	-18718	-14472	-864	-2036	7519	-12418	-1432	-11004	2460	12096	1690	2003	2443	-16236	-1324	-1012	3024	294	2011	-16060	928	-376	-1179	7493	2333	121	129	1
-14868	-3732	12824	-20347	-25868	-14655	-14980	5036	-4752	-3335	-26203	-19707	-13280	972	-1828	5849	-12274	-1120	-11148	2876	12032	835	1106	1827	-15820	-2084	272	3121	1119	1708	-16936	-1156	1300	-2440	6333	2655	123	132	1
-16292	-4512	12800	-16893	-26407	-12837	-15092	10888	-6040	-3501	-27529	-19853	-12060	384	-740	3004	-10313	-374	-11332	2216	12204	230	550	1041	-16240	-2084	-564	2276	1671	1780	-16528	-616	784	-2541	6639	2864	120	129	1
-15544	-792	14372	-16005	-24070	-13177	-16096	13000	-6044	-10538	-26016	-18930	-11980	576	492	-1644	-7211	1521	-10996	2856	12032	-290	90	357	-16724	-1604	-188	151	1875	1759	-16096	-568	-216	-2528	7422	3198	126	134	1
-18980	1044	17692	-19471	-21247	-15005	-18216	11364	-6740	-18708	-23563	-18524	-12032	-836	2904	-5364	-6044	1089	-10900	2324	11888	-821	-464	-591	-16128	-2516	-732	-1323	2232	1837	-15756	-192	-776	-5820	9584	5391	128	135	1
-23052	-2196	18504	-20114	-23519	-13296	-21636	7412	-7880	-21175	-22834	-18388	-13340	-1980	6400	-10750	-4809	707	-10516	2192	12700	-898	-677	-814	-16528	-2192	-624	689	3545	2223	-17240	-412	-720	-5606	8376	4930	126	135	1
-22040	428	16640	-19246	-25493	-8032	-21440	8520	-5404	-18549	-22451	-17756	-13892	-3388	8940	-14203	-4040	-1377	-11196	2052	12324	-1459	-1085	-1530	-15888	-1916	-1012	-1162	4086	1999	-16804	-2492	-692	-4962	7420	3470	127	135	1
-19316	120	14124	-16570	-23265	-1569	-19668	7876	-3796	-16707	-20397	-15944	-12668	-3108	9672	-15655	-2504	-3008	-11172	1380	12540	-1601	-1161	-1446	-15656	-2212	-1052	-1238	5042	1086	-15512	-4064	512	-2021	4980	2725	128	136	1
-17532	1624	13532	-11285	-19305	4173	-17804	8960	-3560	-15654	-18688	-13019	-12476	-4568	9960	-13977	-1669	-5158	-11136	2424	12492	-1613	-1004	-1278	-15900	-3140	-800	-132	6094	867	-15024	-2356	-780	2351	4474	3520	127	136	1
-18628	2264	12960	-9018	-16275	5127	-16712	8684	-3712	-16034	-16421	-10280	-12072	-4512	10120	-10319	-705	-6385	-10840	1496	12772	-1510	-545	-1183	-16236	-2180	-1768	1395	7348	1195	-15536	-1336	-112	2845	6580	4173	127	135	1
-21580	3188	11224	-9873	-16745	2040	-14256	7788	-4936	-14409	-13027	-8151	-12460	-2836	11548	-6455	-1053	-5174	-10592	1392	13160	-1700	-428	-1681	-17540	-1720	-2384	-2270	6585	342	-16836	-632	-1972	527	8838	4301	127	131	1
-15252	4196	7160	-10706	-17972	-1163	-13536	7808	-2548	-13402	-8891	-6259	-11624	-1744	12124	-3622	-2487	-2110	-10900	1668	12528	-1397	494	-1355	-15040	-4740	-2052	-527	7898	646	-17600	-1012	-3836	758	7100	3378	126	131	1
-12380	4092	5260	-8443	-12686	86	-13088	6928	-1216	-10121	-6153	-4608	-11376	-388	11996	-4967	-258	305	-11136	1312	12648	-2047	493	-2331	-15896	208	-2912	-3140	7899	488	-16416	688	-3284	-589	2463	2799	126	134	1
-12536	3916	4712	-2124	-7361	3923	-11764	6284	-1684	-5413	-3761	-2346	-12124	-1392	11652	-3998	385	1381	-11132	832	12744	-2086	901	-2762	-16236	-1744	-2340	-5415	8388	-479	-16652	412	-728	-1067	-304	2936	126	131	1
-13428	5988	4300	1974	-3641	6654	-10772	6024	-2716	-1297	-752	323	-13080	-2804	11420	357	-9	1466	-10512	2000	13368	-2071	1662	-3060	-17052	-1456	-2372	-3068	10060	-758	-16172	472	852	1345	33	2271	123	131	1
-15076	5044	3896	3382	-756	6056	-10784	6520	-3884	2320	2827	2686	-13364	-1000	10352	2643	-99	2205	-11024	1644	13780	-2224	2745	-3708	-17640	-3524	-5244	-895	10775	-526	-16864	136	-1700	3198	2485	1463	120	130	1
-2328	-2464	1940	11982	1757	11775	-16212	5008	-3996	6487	4972	2826	-13744	900	10096	2336	1418	2907	-11216	-20	14460	-2517	4472	-4278	-18148	-4684	-5696	1426	11481	-553	-17932	-504	-4292	5617	3776	838	124	128	1
-2756	-5700	18884	5910	-2800	5775	-19068	3024	8664	5187	3865	4495	-15736	-216	5920	2507	1896	3480	-11160	780	14580	-2807	6825	-4727	-17812	-2972	-5412	-125	11461	-1152	-18864	-96	-3240	5601	2091	335	119	127	1
2864	-14680	13772	5827	6300	13427	-19780	-736	11640	7725	291	30	-19336	1156	4800	4034	3180	3605	-12036	828	14036	-4107	8676	-4857	-17412	-2500	-4116	-2863	11808	-2317	-18332	1308	1480	3520	-1015	-94	127	122	1
-9852	5584	11368	2717	11553	12042	-12740	8168	368	7341	1947	2862	-20096	252	10544	5284	513	1387	-12720	3616	14168	-5084	10307	-6356	-19664	-820	-5156	-3146	11898	-2952	-16972	3168	1684	1145	936	-375	128	126	1
-13228	-7904	13828	-376	14129	5131	-20920	2748	4064	3162	6498	4295	-17976	2508	16148	18378	1407	-129	-11136	1324	14188	-6075	12319	-8259	-20344	-2780	-5424	-1858	11759	-3089	-19560	4168	-28	-401	2201	-633	122	128	1
-16032	-5408	13388	517	11733	8285	-20252	1468	-832	5881	7220	2664	-13624	6736	12824	12447	10097	4398	-11232	1768	14592	-6446	15270	-9841	-19848	-4204	-4368	-560	12444	-3721	-20540	4188	92	-2599	149	-1940	115	131	1
-17116	-12808	11792	3101	8753	5799	-21448	2152	-2000	4212	8517	1910	-17592	-1000	1456	-11037	11484	2550	-10252	-584	14964	-9424	20083	-14177	-20496	-4188	-716	-1568	13938	-5240	-20452	2124	2292	-1929	-4477	-4313	121	133	1
-10432	-588	11832	5695	4577	4321	-16744	2080	-4060	5111	7410	890	-17972	-7896	-1756	-13965	12321	-1750	-11536	4140	14656	-12727	28369	-17828	-21784	-6500	3444	-3095	15515	-5517	-19096	-5516	3492	-2303	-8754	-7366	135	134	1
-12064	-2172	12984	1274	3126	2707	-15940	6120	-2776	-579	6959	1514	-13964	-3072	-2700	-2506	12396	-4012	-13080	3616	15132	-16549	32767	-22932	-23148	-7428	3360	-2508	16809	-5087	-17788	-11692	5116	-1986	-14049	-10852	132	134	1
-11348	-4600	11916	1292	2085	1730	-16052	2976	-1372	-4420	7584	68	-16212	-276	-228	-4009	10844	11	-18924	3532	12380	-21816	32767	-26639	-20428	-4616	-1364	-1430	17082	-4025	-15684	-11436	3724	3599	-14579	-12347	130	134	1
-10780	-5380	11392	643	1530	897	-16184	2360	328	-3243	7057	-309	-16040	324	1028	-7582	9806	668	-32768	-4376	7352	-21026	29035	-26433	-17340	1456	-12732	-6278	16909	-1816	-15284	-5116	-452	12060	-9729	-10100	129	132	1
-10600	-4456	11744	207	1551	6	-16320	2328	-72	-692	6044	-602	-16372	-1260	1760	-4973	9173	-450	-32492	-2560	8560	-15465	19630	-20637	-20296	436	-16588	-8308	18453	-1731	-17208	-2112	-3764	17033	-9760	-8118	143	131	1
-10656	-5348	11140	-267	1601	-656	-16428	1324	-524	555	5449	-1086	-16392	-3584	608	-879	9205	-1067	-24500	-548	12356	-11070	10615	-14433	-16128	-224	-12824	-4945	17651	-1043	-21476	836	-8776	16342	-9279	-4449	132	131	1
-10772	-5424	10984	-64	985	-601	-16200	576	-2164	1174	4122	-1094	-16964	-5348	-1060	248	10319	-663	-19392	1128	10156	-13921	756	-5958	-14376	-1084	-5276	-413	13646	-789	-25460	2776	-8336	13194	-12740	260	115	131	1
-10840	-5164	11232	-828	675	-1284	-16872	1648	-2152	-962	3712	-161	-17312	-5800	-428	2515	9415	-490	-10288	4976	13308	-8788	-11564	1264	-12732	528	-3204	-1320	7716	-3061	-23288	6776	-5848	11509	-16414	2927	124	130	1
-10488	-5804	11016	-564	714	-1145	-16892	504	-1576	-2852	3771	-154	-16968	-5784	24	2744	8933	-1942	-2096	9520	10088	-7056	-10217	3836	-11780	1464	-800	-4619	194	-4669	-22408	8380	-5080	8125	-16388	4320	131	125	1
-10320	-5844	10772	-182	671	-1008	-16688	476	-912	-2000	3187	164	-14668	-3052	192	4562	7899	-2956	-4092	7220	9156	-8368	-10145	3518	-9664	2964	-2408	-10661	-7128	-5616	-19976	8808	-6412	2062	-15901	4471	126	128	1
-10264	-5840	10780	-72	711	-972	-16024	2040	-812	-1038	2654	173	-15564	344	1192	1188	5563	-2176	-7508	5496	10148	-6489	-13709	6397	-8492	2048	-4528	-11114	-12824	-7242	-18284	9028	-7324	-5195	-16478	3618	126	128	1
-10264	-5060	11208	-159	835	-1622	-16352	1880	-680	-1566	3011	-139	-15588	-604	2132	-3114	5767	-1821	-10988	5620	10516	-3360	-21016	12079	-8488	2244	-5480	-7879	-16916	-9535	-17156	8288	-7204	-11544	-16408	2698	123	130	1
-9936	-5688	10892	68	908	-1777	-16016	964	-712	-2057	3385	-248	-15848	-1456	2864	-6195	6465	-1661	-10200	6192	9428	-1822	-28920	16941	-9864	2472	-4412	-7233	-22025	-12203	-16448	6820	-7236	-16154	-15319	2826	130	128	1
-10020	-5360	10988	200	1010	-1563	-16044	1188	-1252	-3422	3794	116	-16264	-792	68	-9801	5502	-1629	-9908	4504	9140	654	-31566	21296	-11560	1996	-5244	-7969	-27159	-15015	-15368	8868	-7016	-21393	-14670	3288	126	122	1
-9800	-5484	10792	-72	916	-1516	-16156	1872	-1092	-6650	4804	135	-15536	-2672	-568	-12300	4253	-2219	-12712	3388	7688	4070	-30865	24979	-15692	1128	-6068	-7814	-30754	-16564	-15432	9468	-6664	-29833	-14058	3673	129	118	1
-10040	-5568	11084	-181	775	-1198	-15800	1460	-1408	-8107	5704	-300	-15264	-4624	-1048	-11570	4413	-2729	-21060	6244	5792	5186	-27133	24281	-17052	4196	-7964	-2733	-30277	-15888	-15264	4624	-5948	-32768	-15436	2472	130	120	1
-10248	-6044	10684	-433	781	-1237	-16560	60	-1328	-3961	4534	21	-15576	-3908	-1408	-10022	5480	-2439	-26044	10760	5880	1024	-25955	20698	-21168	6520	-9428	-5755	-32768	-13491	-13780	-3804	-4764	-32768	-17094	981	129	119	1
-10124	-5932	10980	-631	749	-893	-16020	2056	-2144	-3142	3961	21	-14208	-3672	-952	-7550	7580	-2924	-31960	10708	5356	-4910	-26368	23270	-21944	4988	-12832	-9964	-32768	-12740	-14604	-6264	884	-27467	-16921	110	127	123	1
-10784	-5508	10892	-1067	873	-1579	-16724	1772	-2504	-4764	4159	190	-16660	-2800	96	-5440	8030	-3326	-32768	11348	3920	-8034	-27114	30383	-22588	7212	-9820	-10603	-32768	-10902	-14088	-5744	692	-19567	-12465	2018	122	124	1
-10080	-6140	10948	-1085	986	-1481	-16212	528	-996	-4849	4254	278	-18364	-4524	-1288	-5193	4321	-2590	-30592	9332	1980	-9661	-25519	32767	-21860	7784	-8264	-16614	-32768	-10013	-14020	-6024	2996	-10082	-7127	5737	129	126	1
-10132	-6076	10984	-1073	1110	-1328	-16040	1108	-1120	-2450	3786	343	-16312	-3212	-216	-4460	2620	-2250	-28048	8360	2820	-8880	-21270	32767	-22252	5640	-7160	-19505	-32768	-8795	-12168	-5844	4012	-3019	-4318	6629	128	127	1
-10504	-6020	10492	-1259	1262	-1378	-15644	2196	-2028	-3088	4175	253	-14356	-1432	-680	-5760	4013	-1892	-26736	8004	5272	-6328	-17287	32767	-22448	3132	-5560	-15385	-31861	-6449	-14052	-4440	3064	-4477	-4089	7937	127	129	1
-10588	-6472	10056	-1003	857	-1007	-15696	128	-2388	-4509	5006	14	-13660	-2732	-1192	-5995	5720	-2275	-24860	7292	6876	-3094	-12726	31419	-23032	1940	-4708	-9031	-30091	-3758	-15720	-1788	3016	-9567	-7035	7790	127	130	1
-10128	-5860	10792	-636	469	-195	-15852	268	-2428	-810	4245	97	-14872	-3368	-780	-4115	7160	-3553	-24336	4428	8424	1610	-9317	27534	-21004	1172	-4840	-3311	-28353	-984	-15968	-1908	3272	-11131	-8479	7502	127	127	1
-9828	-6344	10960	-736	693	-221	-16968	2096	-2592	-1380	4334	358	-16116	-4196	-1676	-3751	8042	-3719	-23436	388	9912	7843	-8999	23174	-19848	256	-5476	3480	-25972	1807	-15128	-1628	4616	-10071	-10233	6725	128	127	1
-10592	-5612	10756	-1004	1192	-420	-15948	2228	-3500	-2389	4674	271	-16572	-4852	-3428	-3304	6651	-3430	-22216	-1872	9504	14454	-9499	19166	-19504	-700	-6220	9087	-23145	4282	-13360	-504	6952	-8077	-11067	6329	127	126	1
-10464	-6124	10580	-1497	1562	-1009	-15860	1560	-2900	-4064	5470	492	-16544	-3788	-1988	-5163	3959	-2604	-22596	-1372	6284	17841	-10067	14810	-17300	-156	-6768	11575	-19827	6415	-11936	-2332	8484	-3557	-8408	5769	127	126	1
-10248	-6420	10192	-1532	1405	-831	-15424	144	-1796	-4343	6596	713	-16568	-3016	888	-7603	2368	-2457	-22036	-2500	2360	17214	-8735	10590	-15652	384	-7264	10535	-16110	8329	-10908	-1944	9040	-337	-5328	5788	127	124	1
-9520	-7296	10432	-1162	1175	230	-16344	-616	-1300	-2536	7025	831	-16268	-3200	616	-8183	2201	-2955	-20252	-5100	896	14092	-4907	8408	-14356	148	-8264	6359	-12265	8758	-11832	908	9872	-859	-3810	6422	126	124	1
-9924	-6952	11256	-1323	2028	777	-17640	2476	-3508	-1163	6843	1168	-16996	-2768	-2152	-8160	3157	-3554	-20212	-6204	-672	8814	-1655	8921	-13180	-248	-8952	-138	-7576	7730	-12352	3308	9504	-6372	-3159	7430	125	124	1
-10684	-6056	11512	-2020	3589	141	-16652	4056	-4336	-3968	7851	1285	-16348	-2032	-2948	-9990	3367	-3048	-19888	-5360	-1556	-325	2577	9545	-12496	92	-9328	-8667	-3022	6340	-12392	3112	10132	-11092	-2574	7856	127	122	1
-11296	-5340	10908	-3014	4622	-900	-14872	3444	-4084	-6412	9382	884	-16348	-1488	-1492	-12402	2156	-2090	-18328	-8140	-1556	-9197	7304	9437	-12132	-1104	-9912	-16839	1233	5230	-13364	2168	9656	-14217	-2524	6746	125	128	1
-11120	-5832	10148	-3262	5152	-2252	-14936	904	-1124	-5109	11059	1405	-16720	-2264	1452	-13188	-478	-2352	-20872	-9900	568	-12880	12071	9971	-12308	-1448	-11140	-22312	5703	4347	-14224	1636	8132	-17808	-2924	6350	126	128	1
-9040	-8816	10996	-2291	6642	-336	-18524	-1964	-1824	2782	10869	1455	-17732	-3284	40	-13094	-1392	-2535	-21200	-9916	3808	-16124	12214	8755	-13084	-1748	-11444	-24238	9916	4078	-13536	880	6348	-18611	-2748	6160	126	127	1
-10384	-8364	11736	-2487	9291	3382	-20132	3124	-5344	3694	10243	1599	-17808	-3168	-3040	-13544	-112	-3227	19444	4508	32767	-18911	4129	11484	-21972	-10996	17544	-23043	9096	1140	-7192	-1188	352	-26203	5501	6806	126	123	1
-11032	-6184	11936	-3163	11801	3615	-18204	5780	-4956	-2902	11629	1284	-17500	-3484	-1828	-14952	-86	-2876	24744	3748	32767	-21250	10623	584	-26152	-17072	23100	-16548	-3908	3250	-20524	-4580	-3524	-10955	12669	7063	127	128	1
-11428	-5904	11152	-4594	16153	3164	-18772	3320	-3084	-2861	12925	1930	-19020	-3584	1452	-14089	-2306	-2369	-13032	-14868	2904	-19774	23899	-1809	-5760	-15724	-15500	-32768	-1456	-2150	-26220	-11760	10772	-28058	5987	2878	127	129	1
-10032	-5584	11404	-6246	20069	2976	-16012	5120	-1508	-2401	14880	1675	-18576	-548	7604	-15480	-6026	-98	-14888	-5072	21724	-7610	24118	14026	-22404	-21424	-3140	-10594	6915	1811	-13248	-25392	7088	-27214	13908	-128	126	119	1
-10176	-6728	12324	-7852	25729	1783	-19576	6132	860	-3731	17730	1863	-19816	-108	10888	-13982	-11440	1164	-25172	-17960	21644	1267	24092	-866	-18200	-12340	-6644	-1285	10401	4628	-15424	-24256	776	-3532	11083	-435	123	110	1
-10104	-6268	13448	-11031	32767	1578	-23324	10592	1044	-5048	18894	1403	-21988	3288	14644	-8992	-20853	3325	-32768	32767	10412	4520	7077	5055	-20200	-6428	-11232	9857	12206	9197	-19716	-5160	-3068	9272	9867	-2700	130	114	1
-10668	-5296	13400	-16794	32767	947	-26372	11488	4060	-12570	20069	2459	-17856	9464	4020	-13594	-17214	4489	-18988	4564	12028	344	6246	1938	-20624	11700	-1396	1387	11063	6698	-20756	24208	-4332	20273	14376	5019	123	124	1
-19300	-12876	7860	-24684	32767	4871	-19984	3868	-2300	-9715	22565	518	-19244	8120	396	-26661	-14485	5584	-12948	13560	8176	-4212	3027	-825	-17236	6664	-1052	-10395	4957	3668	-15132	14064	-3292	-3511	10311	10249	124	144	1
-32768	-10772	1492	-32768	32767	1511	-22032	5228	-16392	-442	21535	2367	-23348	276	300	-25980	-17462	5315	-13504	4648	11552	-4001	1191	-2018	-16076	-4224	-1712	-6096	3848	1936	-17848	3460	-3524	-11241	9417	6250	127	143	1
-27560	-13500	8824	-32768	32205	4063	-24716	7108	-11368	-4833	22505	2761	-27368	-2780	-9576	-25683	-15740	4315	-10856	5632	12176	-2930	-149	-2986	-18024	-2868	-2204	-527	4014	3021	-17900	-908	-2616	-7801	9040	4279	130	131	1
-17496	-12448	7928	-32768	22340	9826	-17328	4532	-10296	-10111	21353	545	-25768	-3788	-12080	-17021	-18763	1286	-12580	1556	12904	-1472	849	-946	-16620	-4540	-1948	2951	4487	3079	-14392	-1440	-756	-9281	8105	2739	128	125	1
-3924	-20912	7972	-32768	6973	17301	-14748	2008	-8412	-15254	18296	-932	-22156	-2140	-7128	-8849	-21000	-529	-11956	3232	12096	-262	809	910	-17376	-2584	-1028	1184	3752	3134	-15312	-2660	-232	-10896	6897	957	125	120	1
-17712	-20180	12784	-11537	-18366	16276	-6940	-2936	-13900	-11604	11821	-3702	-21980	-2360	-4692	-7498	-22423	-1554	-11024	4760	11520	53	1041	1304	-17284	-436	184	-3309	2401	2745	-16644	1264	-360	-9605	5740	72	123	116	1
-3600	-8720	11008	-3635	-32768	10705	-9144	-504	-2064	-15528	3873	-4035	-20244	-4256	-5800	-6735	-20561	-2765	-11180	5196	11316	674	114	1048	-16680	-464	272	-4362	1407	1699	-17676	3548	-888	-12664	7393	2311	122	135	1
3796	-2988	7392	-8743	-32768	12649	-7692	-644	1308	-16771	-1965	-7288	-17812	-5448	-6916	-4301	-17085	-4408	-10532	6356	10988	163	-137	-370	-16348	-1424	-476	-2751	955	1196	-16452	-36	-736	-11016	7983	5650	125	130	1
640	-5880	5496	-12642	-32768	11486	-4532	72	-972	-12908	-8170	-8642	-15520	-4420	-6636	-262	-14839	-4257	-12304	2316	11988	991	-119	737	-16684	-3956	-2448	2933	2593	1067	-14680	-5344	1724	-4570	7932	7336	127	127	1
-5296	-10900	6208	-10150	-32768	6970	-6092	832	-3608	-11414	-14625	-9669	-14428	-3304	-6640	3278	-13558	-4096	-11456	4340	11788	2012	-367	2009	-16384	-3632	-1032	5329	3172	1647	-14020	-5244	-760	6622	8686	5059	125	119	1
-7188	-13008	7480	-4139	-32768	-993	-8676	1896	-4560	-11871	-20381	-10845	-14328	-5592	-6168	6922	-13235	-4061	-10968	4536	11768	2606	-145	2252	-16160	-2576	344	5094	3160	1873	-15512	-2916	-264	10405	8680	2311	126	126	1
-7156	-9388	8484	-876	-32768	-8764	-11592	3884	-3808	-11103	-26215	-11400	-13940	-7660	-5488	12663	-13014	-3202	-10144	6272	10892	1850	-117	1925	-16908	-8	908	1506	2412	1615	-16476	1436	1332	9955	9525	2927	130	129	1
-10292	-5692	7848	-4259	-32768	-15933	-11728	4032	-3672	-7928	-29894	-11964	-13020	-4644	-6236	23084	-12784	-3290	-10308	6792	10832	784	-229	713	-16516	-756	852	-464	2381	1237	-15740	900	724	6983	10080	4584	118	130	1
-14368	-7420	7996	-6950	-32768	-20459	-13696	3556	-5664	-3736	-32768	-12766	-12040	-968	-5120	27832	-13923	-3663	-10816	4884	11484	1077	-264	661	-15924	-3376	1012	2524	4070	1343	-16144	-3452	2292	6867	8779	4926	122	131	1
-16540	-11324	8580	-3351	-30513	-21842	-17984	3660	-6800	1945	-32768	-12661	-11192	1484	-2260	18849	-12677	-4186	-10280	5812	11132	408	299	714	-15748	-2128	1080	5158	6024	1928	-17384	-3176	2964	6743	7334	5586	125	131	1
-18784	-11040	11280	1006	-26959	-23195	-18704	5960	-8256	4505	-32768	-12492	-10660	2748	-248	7165	-7925	-3559	-10000	6636	10768	-807	891	348	-16276	-1604	1316	4339	6857	2105	-16392	412	1036	2984	7893	5141	126	135	1
-24372	-7408	14228	-1318	-25664	-27505	-20128	10076	-9576	2098	-32768	-11968	-10068	1604	144	-501	-3028	-4513	-9848	6820	10816	-2077	1772	-687	-16296	-536	64	1981	6769	2052	-15860	2160	-1944	1038	7512	3739	127	132	1
-24920	-7072	14276	-2043	-25703	-28334	-23304	7612	-8388	-3373	-32768	-11739	-10676	1644	2220	-2658	-73	-4969	-10760	4944	11388	-2574	1491	-1727	-17068	-652	-768	-81	6138	1783	-15984	2528	-2668	-1127	6636	3624	129	130	1
-28372	-10632	16308	-2775	-24958	-26810	-25096	6272	-9168	-5218	-32768	-11804	-11740	-524	5984	-1281	834	-4997	-11500	5436	11508	-2459	1583	-2562	-16872	-136	-2684	-381	5709	1882	-15556	548	-2384	-873	8441	5874	128	129	1
-29680	-8476	15332	188	-27907	-23099	-23528	6724	-7972	-4086	-32768	-11308	-12448	-2696	9004	514	-873	-5120	-11800	4704	11516	-1477	1294	-2124	-16192	-3120	-2328	1189	6520	1412	-15324	-2376	-1960	212	9878	5623	127	130	1
-26600	-4760	12856	-365	-27693	-20331	-21020	7656	-5880	-5401	-32768	-9534	-12760	-3224	11896	3942	-1288	-5945	-11456	4284	11680	-999	1145	-1714	-16016	-2492	-1496	4411	8242	1995	-15240	-2496	-908	4566	9420	5029	126	130	1
-25092	-1888	8160	-3111	-26015	-17731	-18424	6956	-5152	-9458	-26923	-8941	-11488	-1364	13612	7598	-1104	-6843	-10780	5636	11612	-997	1612	-1416	-16852	-752	-640	3885	8958	2037	-16204	-880	-1908	4909	8817	4791	125	130	1
-22840	1276	1244	-6217	-21938	-12759	-15264	6092	-6576	-9847	-20670	-9499	-11440	-344	13740	7442	229	-4857	-11176	5840	11336	-1466	1958	-2141	-16980	-276	-1584	1802	8947	1712	-16076	492	-2452	3635	9051	6049	123	130	1
-22864	6684	-4816	-9828	-15285	-7280	-10692	6076	-8044	-7530	-13271	-8707	-11964	1472	20264	4529	-2626	-599	-11336	5424	11564	-1345	1789	-2397	-16680	-912	-2000	1599	9924	1535	-16724	1776	-2268	2751	8137	6443	124	131	1
-24176	9056	-9072	-9009	-6604	-4016	-7452	4348	-8780	-4497	-3396	-4764	-13468	412	21956	4553	-4577	1601	-10948	6020	10712	-1476	1584	-3175	-15932	-408	120	846	10631	1756	-15896	2156	-852	3441	6984	5500	123	131	1
-23520	3552	-8580	1008	2091	570	-8732	2696	-9300	2054	4173	-500	-13940	-444	17400	1980	-3478	900	-10732	8244	10736	-2593	700	-6463	-16928	5144	196	-4927	9859	1524	-16768	4652	-532	1907	4422	4999	120	131	1
-22472	3916	-4652	9820	8914	5814	-11088	4540	-9048	9311	9481	2019	-13176	-2036	13364	279	-3218	296	-11832	6120	11752	-2628	222	-8135	-16916	1336	-1120	-9919	9561	267	-17136	4156	1404	806	1511	5061	118	130	1
-22428	3956	288	12424	13248	7456	-13312	4940	-9560	14891	13772	4185	-14396	-4084	8656	2738	-5667	506	-12584	5580	11908	-2464	1240	-9142	-17684	276	-2628	-7166	11366	578	-16908	2956	1408	1821	1658	5299	123	131	1
-7608	-19408	30896	14518	3299	10813	-25304	11268	8316	11835	11869	6414	-13724	-3880	508	5694	-1127	378	-12904	1420	14172	-2279	3673	-9848	-18976	-3680	-7152	-4693	13297	230	-18552	856	-124	4742	2191	4873	126	131	1
14588	-11252	18760	9335	16220	10928	-19332	-408	21176	13100	2980	1511	-16956	868	1292	6720	5388	-1073	-10616	3452	16988	-2199	9168	-7630	-21096	-8428	-5664	790	15859	-103	-19648	-2812	-2924	8971	3209	3403	124	130	1
-13740	3504	14860	6332	16199	20775	-10112	9108	-5240	18744	3074	-824	-21056	752	8480	9886	2121	-228	-12548	2276	15648	-2078	14871	-7838	-19596	-6224	-5132	-2999	15979	292	-20380	-3464	-1744	11712	997	815	125	128	1
-13016	960	13944	1007	16391	8197	-19740	14852	1192	2962	10250	7316	-13472	236	14348	20525	4942	702	-10740	2352	16644	-2643	20811	-7545	-21732	-5984	-3976	-5657	16242	-75	-20980	-1364	1768	9101	-2150	-1222	120	127	1
-17544	-2264	15232	-3981	21089	5967	-19132	12532	-2664	559	12962	1447	-17528	15072	2996	9054	13657	2732	-9760	5828	15876	-3039	26946	-8090	-22864	-6312	-1440	-4519	17560	428	-21036	-1568	6600	3569	-6697	-2389	134	128	1
-23444	-4096	15004	-3195	12383	7400	-22964	1368	-5792	-3163	14577	-480	-20304	7032	7588	-8810	8721	5498	-8864	6356	16012	-4009	32767	-11865	-25052	-7700	712	-385	19231	1466	-20644	-5472	13320	-1448	-16332	-6096	124	131	1
-13964	-16224	11556	-985	9863	2546	-21536	1500	-4444	210	12824	412	-18984	-10048	-2820	-16881	12840	-515	-11308	8604	14848	-4363	32767	-16219	-25824	-10980	6348	7105	21865	2559	-19752	-10452	4284	8297	-11502	-11209	135	133	1
-10884	-1576	14524	5127	4533	4079	-16548	-1056	-1972	8636	8145	46	-14236	-13096	-4052	-12499	15611	-5957	-16948	7264	10816	-5509	32767	-26207	-23504	-2184	-2404	8635	22763	5185	-20224	-10556	-524	16768	-12344	-13853	129	134	1
-13740	-10112	10188	5170	2787	4269	-14500	2388	-3476	6743	6374	389	-14364	-4668	-4332	-1131	12412	-2761	-32612	-388	4248	-603	32767	-25275	-22700	-1952	-3828	7926	22667	5589	-17028	-2772	-2768	21567	-11445	-11414	130	134	1
-11016	-4852	12180	3633	373	3835	-16572	6168	-2760	1758	5791	404	-17332	-2224	-3848	1694	11196	-585	-30640	6088	7340	-18	32767	-24431	-23028	-1048	-10324	3841	20497	4522	-21516	804	-7080	23354	-12763	-6903	132	135	1
-11120	-4144	12292	2160	695	2183	-16808	5920	-2380	-1765	5757	-675	-17372	-1888	-1304	3958	12202	-1423	-30264	104	11392	7830	32767	-19669	-16460	440	-11292	397	18739	3896	-24548	2000	-10924	20874	-15413	-652	134	137	1
-10560	-4920	12096	647	847	452	-16412	4128	-1020	-2536	5124	-1245	-16160	-2192	-980	6621	12713	-640	-14784	7664	16224	13912	21746	-16719	-14172	3156	-9048	1256	16098	1155	-25004	3504	-8716	15166	-18992	4452	129	135	1
-10256	-5736	11448	-199	657	-507	-16892	1632	-724	1278	3054	-1742	-15956	-2672	-896	6456	12253	102	-26704	13188	12792	5868	-69	-14436	-12368	1476	-5168	2662	9723	1371	-22436	2572	-4680	10887	-22417	2901	128	133	1
-10088	-6080	11144	-319	502	-714	-16588	2432	-1232	4396	1094	-1846	-16664	-2744	-1576	6290	12954	-379	-11680	8572	13340	2286	-18371	-8645	-7164	3184	-4424	3448	3220	2974	-20304	1616	-5488	9384	-20716	2322	125	129	1
-9896	-5740	11216	-421	729	-935	-16832	3708	-1456	3345	653	-1835	-16444	-1688	-856	6007	14766	-2359	-8596	8336	13156	2269	-19837	-7643	-8484	-580	-924	1994	-3867	1555	-20580	3172	-5904	6489	-17580	2846	121	123	1
-9908	-5868	11076	-583	953	-1380	-16584	3240	-1292	434	1072	-1673	-15736	-504	1308	2704	16361	-3441	-2504	6000	6680	5240	-18728	-3180	-5920	872	-2604	-702	-10052	170	-17028	4344	-6524	2609	-17430	2716	124	123	1
-9608	-6044	10652	-608	863	-1487	-16416	1220	52	-1872	1563	-1399	-14660	-116	4436	-1124	16810	-4141	-5304	6804	7320	4926	-20468	944	-6248	1476	-3752	-2644	-15768	-1123	-16156	4668	-6436	-2732	-17266	1729	128	124	1
-9372	-6180	10640	98	737	-843	-15740	764	1368	-1712	2054	-1071	-13132	1268	5812	-2319	17864	-4505	-8196	6032	8616	4653	-24608	6584	-7516	784	-4608	-1796	-20487	-2944	-16012	5856	-6012	-6996	-17752	1506	127	129	1
-9256	-6220	10696	764	625	-211	-15180	72	2872	-728	2863	-719	-17896	544	6656	-2502	14919	-3451	-10420	5044	9548	5125	-28742	12730	-9060	404	-5160	506	-24594	-4636	-15624	6048	-6192	-12234	-17535	1398	126	128	1
-9400	-6204	10840	1361	490	379	-15520	656	2644	-719	4658	-258	-20484	-3964	3620	-3141	9340	-4259	-11624	4036	10404	6501	-32768	18359	-10260	1080	-5588	317	-29235	-6658	-14188	5256	-6872	-17621	-16929	863	130	125	1
-9852	-5660	11320	1502	586	615	-16036	1436	524	-1595	6353	284	-19764	-3752	2220	-1423	5223	-3530	-13044	2388	10056	9349	-32768	23148	-11624	-80	-5132	-1484	-32768	-9059	-12864	3644	-6484	-22644	-16145	310	130	122	1
-9692	-5612	11296	1209	700	425	-16684	1768	-476	-2504	7602	904	-15892	-4160	1568	-2877	5769	-2905	-10276	1172	8492	11859	-32768	23612	-15164	-1568	-4444	-1109	-32768	-9938	-11128	3264	-5736	-23638	-13466	970	129	120	1
-9304	-5888	10796	897	695	444	-16356	1088	-228	-2841	8359	1129	-14668	-4792	252	-3672	8343	-2704	-18540	-332	9564	16882	-27519	20933	-16216	-568	-8672	4226	-32768	-9587	-10720	632	-4236	-21141	-10468	734	127	124	1
-9308	-5540	11244	548	819	561	-15900	1828	-104	-337	7937	1292	-15324	-2824	-1600	-2168	9088	-1869	-27744	7388	11356	17710	-29980	17615	-20812	1988	-8308	11199	-32768	-5789	-10960	-4608	-2648	-15253	-9375	-392	128	126	1
-9772	-6060	11108	370	962	578	-15760	2776	-1200	-27	8121	1197	-15576	-1652	-2232	-1012	7449	-1367	-28740	6796	14288	13388	-29790	17693	-24856	844	-10908	6647	-32768	-5182	-11024	-6756	636	-4694	-7733	-671	127	128	1
-10416	-5212	11384	97	1033	117	-15976	2700	-2072	319	8292	1203	-16092	-2100	-2260	117	6245	-1834	-32768	4564	13560	13128	-30577	24193	-23520	-1092	-10452	9078	-32768	-4565	-11512	-6636	3800	2680	-5979	-429	125	128	1
-10208	-5512	11256	-211	1076	-296	-16260	2068	-1892	510	8156	1493	-15640	-2480	-1372	-407	5753	-2396	-30584	5348	13464	12070	-30624	28073	-25440	484	-9136	8234	-32768	-3090	-11116	-5132	5784	6350	-1008	2890	127	126	1
-9520	-6108	11268	-407	1208	50	-16740	2236	-2140	297	7889	1431	-15324	-2172	-1652	-1775	6839	-2560	-29676	1036	12952	11409	-26920	28272	-25456	440	-9048	7755	-32768	-3076	-10888	-700	5220	5070	827	5678	127	125	1
-10264	-5908	11160	-449	1173	515	-16560	2292	-2824	-1218	8340	1482	-15664	-2272	-1688	-3243	7366	-2725	-29704	-4704	9312	15073	-23165	26208	-21900	-1716	-9032	12209	-32732	-103	-13256	1308	6332	2044	-464	9397	125	124	1
-10572	-5416	11152	-509	1499	639	-15072	2188	-2396	-792	8765	1789	-15764	-1652	84	-3503	6370	-3173	-29380	-7512	4752	15968	-19006	20347	-19808	-816	-10492	10649	-28478	2141	-16472	-380	9772	-6740	-3170	10193	125	122	1
-10024	-5408	11408	-796	1741	69	-15212	2376	-1088	-840	10304	2254	-16564	-1292	2596	-4390	4607	-2967	-29176	-13428	-1876	15037	-14698	15489	-15080	-684	-12768	9554	-20195	3779	-13264	-4984	18412	-5473	-5229	6857	127	121	1
-9472	-6300	12256	-1019	2941	368	-17684	2116	-1868	531	11235	2431	-17296	-2556	1600	-6153	4898	-2558	-24376	-18532	-8092	13181	-8083	10970	-11028	-1244	-13388	8877	-9463	4555	-11276	-5636	20524	22	-3383	2687	127	122	1
-10624	-5552	12416	-1634	5306	710	-18344	4344	-4108	275	11824	3239	-17256	-3528	-1524	-7289	5511	-2474	-23552	-18848	-10668	10574	1808	4712	-9608	192	-12956	5088	1221	4792	-12324	-3368	17480	2296	-2080	423	127	121	1
-10372	-5180	13120	-2273	8433	130	-17548	5816	-4420	-1672	12790	3686	-17320	-2220	-3364	-7813	4883	-1848	-27036	-11944	-6608	1254	8382	-1888	-10276	2592	-13428	-3433	9321	4196	-13900	996	14072	283	-2681	1856	127	127	1
-11088	-4828	13004	-2503	8909	-9	-16512	5520	-3876	-2710	13969	3943	-17852	168	-780	-9807	1962	-654	-23248	-11768	-1996	-8085	10356	-5964	-12388	-740	-13212	-10607	16128	3108	-13344	2372	9704	-4319	-2475	3003	126	125	1
-10736	-4692	12220	-4628	14996	-2731	-16576	4084	-1836	-1617	15535	4534	-17880	340	-344	-10127	1368	-569	-19264	32767	32767	-17918	5438	-7375	-29548	-24968	32767	-10791	9158	-2230	-10044	1132	-2444	-15952	7212	3408	126	123	1
-9984	-9016	13096	-4209	17913	819	-22676	1136	-3916	1789	16733	5099	-21036	-3936	2988	-13302	-3146	-294	11924	4528	4408	-23520	12118	-12567	-9800	5312	2260	-28480	-4997	7788	-23088	-3472	-1088	-12342	14733	4050	122	122	1
-9264	-8572	12304	-5429	23156	5196	-22452	5840	-2688	737	16235	5702	-20748	-3128	4684	-13260	-5383	23	-21288	-22436	16132	-14856	24992	-1385	-12944	-17632	-5740	-32768	2652	-5298	-19188	664	12804	-31019	-1992	-919	122	124	1
-8560	-8664	14416	-6895	30644	7433	-21080	8440	1084	-5337	19005	5530	-17888	164	13164	-12856	-11073	2500	-15664	-10896	19972	-8591	15913	-9152	-23508	-12600	-4044	-23200	6680	2755	-18700	-19904	8756	-32768	12871	-1600	133	106	1
-6816	-6172	13760	-8293	32767	9622	-23204	9616	3528	-7148	20335	6262	-19520	6788	13484	-10694	-13865	5231	-32712	4904	14728	-1094	8249	-14346	-23344	1496	-5812	-11030	12563	4175	-17656	-14708	4188	-9743	11102	-1570	124	114	1
-11836	-11600	10976	-10615	32767	12357	-24284	4692	7716	-8649	22740	7041	-21004	6912	4960	-16311	-13507	7168	-17576	25384	14080	-11633	6945	-4747	-19336	2928	2252	-13963	9637	6779	-17976	11844	-6844	6295	13619	6013	118	119	1
-16564	-13856	6084	-8028	32767	23559	-23792	-1444	-2184	507	21358	5666	-21036	404	-3156	-25345	-13198	6489	-13764	1236	11960	-8731	4665	-8547	-13376	-1032	-336	-14392	7835	3799	-12516	10460	-3268	-4441	8539	9967	124	125	1
-32768	-12224	884	-4313	32767	26515	-20336	3460	-14856	13376	20470	6933	-22184	-5132	-7744	-30575	-14972	4053	-12860	1040	12420	-8564	1899	-9539	-17676	-1124	-3820	-9252	7460	3666	-17472	-2152	-2000	-8412	5451	5622	130	143	1
-30568	-4256	7664	-8141	32767	24691	-21412	5104	-15664	13865	20108	7110	-23584	-8692	-11516	-14879	-18421	-954	-14260	-692	13620	-6255	-213	-5399	-18140	-5240	-4096	79	8979	3925	-17892	-1120	-2280	-718	6406	7678	128	137	1
-23864	-8028	9060	-17008	29336	14445	-15584	8720	-14584	-1672	18531	8158	-23356	-7516	-10268	-907	-18483	-2505	-12684	824	13008	-3812	-6	-3168	-17196	-1764	-2840	4015	8820	3963	-17440	1440	-2508	2954	7532	6347	131	140	1
-984	-14784	16664	-13881	8103	15503	-11984	2316	-8412	-6738	15415	7037	-31308	5936	-9828	-5198	-20714	-5345	-11624	1760	12628	-2269	105	-1734	-17528	-800	-1624	1634	7290	3300	-12368	3976	420	1606	7876	2927	131	124	1
-19356	-16724	12096	-6643	-7848	10057	-10188	-2480	-10044	-6843	8539	2076	-18000	-2664	-3208	4496	-15680	-1097	-11284	2676	12880	-1797	-174	-1502	-17428	48	-1076	-1776	5643	2550	-17920	4008	-840	-5524	5892	431	113	125	1
-5720	-11152	11132	-1213	-24000	4866	-8704	-1964	-3092	-8619	2265	202	-20864	-4172	-5496	3719	-17002	-3120	-11180	2252	12540	-1136	62	-1245	-17004	-1852	-1572	-3372	4590	1786	-16680	1276	-1076	-9691	5073	2570	115	127	1
1040	-6848	8076	-1650	-27196	6592	-8804	-1040	120	-8915	-4415	-2030	-18464	-4716	-6068	4340	-16371	-4344	-11248	2156	12456	-700	259	-1098	-16704	-3028	-3280	-1167	4052	1711	-16316	-2884	-3004	-6081	5989	4440	125	128	1
-424	-6420	6000	-3923	-27181	5749	-5204	0	-1612	-4145	-11484	-3255	-17104	-3900	-6060	7340	-15153	-4300	-11588	968	12464	56	493	-175	-16036	-4436	-3032	3092	3944	2112	-15520	-4088	-1804	1031	7283	5039	123	123	1
-3976	-9056	5980	-3744	-29029	957	-6008	1348	-3504	-3420	-16971	-3798	-15656	-2640	-6636	10427	-14402	-4199	-10924	2496	12052	422	712	302	-16492	-2004	-724	6390	4281	2706	-15532	-3064	1080	6003	7426	4247	117	127	1
-5716	-11212	7452	-1397	-31482	-5745	-8148	1960	-5664	-5853	-23048	-5048	-14676	-3848	-5780	12735	-14089	-3075	-10968	2632	12256	43	702	59	-16576	-524	-1356	4385	3372	2694	-15704	1092	-368	8695	9052	4331	120	126	1
-9396	-9756	8116	-386	-32768	-12194	-10236	1516	-5608	-7540	-27864	-5888	-14128	-6024	-5496	15301	-13415	-3140	-11192	2388	12620	39	670	178	-16392	-2084	-1516	2104	2450	2169	-15964	204	-708	7039	8519	4147	121	125	1
-13312	-6948	6660	-3227	-32768	-17761	-10376	2920	-5016	-7034	-31136	-6951	-13508	-4072	-5856	21689	-12344	-3936	-11136	2552	12320	618	918	727	-16716	-2000	-600	2962	2911	2347	-15480	108	1624	5737	7901	3425	119	126	1
-14020	-7336	5296	-5600	-32768	-19875	-12956	2744	-6720	-6049	-32768	-9017	-12540	-256	-4236	23815	-12538	-4098	-11024	3140	12000	469	784	508	-16528	-708	16	2797	3256	2398	-15608	480	1584	5368	9294	3450	117	124	1
-17044	-8940	6184	-5056	-32608	-20655	-16700	3568	-7960	-2650	-32768	-8840	-12060	1148	-2640	18760	-11878	-4233	-11164	3176	11888	5	474	65	-16236	-868	112	2802	3736	2297	-15440	696	1040	5088	9421	3529	120	128	1
-20688	-11780	7216	-2219	-29561	-21839	-16684	5804	-9404	-3430	-32768	-10029	-11624	2408	-1232	12102	-10655	-3400	-11128	2792	11984	-336	384	-148	-16216	-1384	-132	3885	4728	2295	-16208	712	1188	2982	7656	3305	119	129	1
-23824	-10632	9944	-584	-27907	-24912	-19824	6572	-9832	-3897	-32768	-11720	-11548	3472	-848	5351	-8628	-3270	-10936	2372	12036	-484	229	-350	-16524	-1304	-524	4251	5679	2608	-16552	88	1200	1716	7719	3997	121	131	1
-25932	-9524	11496	-1732	-27177	-28054	-20076	6236	-9696	-4368	-32768	-12386	-11628	3700	236	-673	-6050	-3769	-11008	2444	12008	-499	191	-363	-16980	-164	228	2982	5915	2727	-16112	1080	-216	2016	9273	5142	122	128	1
-26844	-10600	12220	-1522	-27731	-28270	-22288	4920	-9264	-4040	-32768	-13117	-10880	1708	2120	-5722	-3248	-3232	-12032	1848	12048	-1506	454	-296	-16644	16	-2672	608	5676	2329	-16204	1340	-548	2206	9598	5421	122	127	1
-26664	-9144	12844	-647	-28016	-25908	-22784	5576	-7632	-2927	-32768	-13502	-10528	-956	2816	-5697	-127	-3192	-11380	2280	12312	-1015	389	-33	-16616	-2388	-2408	2398	6314	2467	-15984	-700	-1144	1404	9861	7461	125	125	1
-26428	-8500	13228	-1133	-27025	-24102	-23120	6512	-6284	-2700	-32768	-12864	-10976	-1756	3988	-1852	2580	-3698	-10768	1988	12772	-305	516	-88	-16352	-2208	-1428	4356	7000	2972	-15376	-972	320	2755	10898	5672	123	131	1
-25652	-4972	12840	-1927	-24559	-23621	-23384	9980	-6672	-2736	-32768	-11753	-14120	-4352	10892	4443	455	-5253	-11432	2652	12212	-544	805	-513	-16908	308	-1208	3770	7270	2898	-16308	904	-564	5396	8216	4355	121	132	1
-25368	-288	9196	-4253	-20409	-24094	-18864	7880	-7432	-4987	-29174	-9563	-15964	-7092	14464	12685	-4906	-8573	-11444	2904	11792	-875	855	-1008	-16652	752	-1096	2271	7561	1982	-15964	2828	608	4183	7013	5893	121	134	1
-27624	-220	1048	-3564	-17883	-19038	-15112	6024	-9608	-4022	-22862	-9196	-12420	-1544	13888	12252	326	-8971	-11304	3080	12312	-1469	760	-1207	-16040	-84	-344	1593	8516	1649	-16716	-768	3156	3843	8629	7139	119	130	1
-28852	8680	-6476	-6915	-15086	-10438	-11488	6712	-11584	-4471	-13742	-9420	-12708	4756	20984	8527	-323	-1215	-11284	3224	12372	-1489	788	-2053	-16320	-556	252	2565	10601	1740	-16660	32	3152	6443	9418	7218	121	130	1
-26404	16148	-11132	-12914	-8499	-2927	-8200	5124	-10576	-5991	-1081	-6015	-14920	1368	23520	4047	-3669	3167	-11188	2484	12608	-1664	1587	-3196	-16664	952	-1072	833	11953	1155	-17636	1372	840	5660	6598	5993	121	127	1
-23900	5272	-9732	-3940	1886	4071	-7684	3412	-10284	-1892	7783	-696	-14688	-1320	17764	1563	-3885	1337	-11492	2040	13268	-2181	2729	-4383	-18036	-1196	-3688	-1751	12365	366	-18992	2084	-1312	4542	5091	5572	116	129	1
-23164	3944	-4536	9051	9086	10762	-10868	5232	-9760	5526	13115	2303	-13252	-1564	12128	-188	-3761	203	-11620	3016	14416	-2545	5275	-4827	-19040	-2480	-5216	-567	13188	566	-17984	1996	-3512	6008	5631	4670	119	129	1
22316	-11824	30960	13302	4109	8889	-22628	1800	11308	-3842	16736	4691	-12004	-1796	4124	877	-3907	985	-12616	1060	14664	-2060	8934	-5654	-19332	-3608	-5932	430	13252	1474	-18824	844	-4232	9989	5328	2632	124	128	1
6444	-6516	24644	15313	12480	7122	-24528	-696	23120	8905	6189	3489	-15800	320	-912	538	2816	1970	-12164	1268	14568	-3300	11797	-5357	-19388	-1776	-4640	-1211	13713	783	-19012	2292	-1460	10222	2357	1835	126	127	1
1516	-3320	11436	14406	19330	20798	-12928	2784	4144	25945	2174	-120	-24632	700	7804	6337	-105	116	-11828	2560	14428	-4197	14914	-5205	-19592	-2164	-3912	-3132	14215	385	-19240	1104	1232	8619	1104	1128	117	127	1
-24716	4364	13544	5200	19026	8378	-13592	16752	-3772	16765	6731	4056	-10724	-1184	12436	23869	4421	-4654	-10536	2076	14868	-3669	18261	-5692	-20492	-3976	-3572	-1625	15458	1081	-18992	-220	3532	8876	132	-195	123	126	1
-10060	1360	15712	-776	23578	5797	-20220	16644	-192	5795	11816	2565	-12712	6672	4164	14092	14240	-2281	-10112	2180	15160	-4302	22667	-6319	-21940	-6348	-2376	261	17487	1238	-20312	-2040	5812	7635	-3781	-1796	119	128	1
-19220	-312	16764	-3595	17066	8078	-19496	5796	-3436	160	13783	391	-20700	11176	5764	-11	9183	5808	-9552	3104	16076	-5607	32475	-8009	-23716	-8596	-140	3021	18976	1585	-20116	-5636	10124	4697	-11011	-5254	125	128	1
-20636	-17420	12256	-1417	10913	5899	-24508	824	-4296	2704	13047	677	-22412	-6144	-376	-9855	9482	1336	-9728	5316	16128	-7187	32767	-9341	-26724	-10712	4872	6577	19968	1884	-21048	-10964	7156	5933	-12540	-10327	118	129	1
-22380	-9816	10916	7026	4962	5002	-19184	-4148	-6824	8134	10446	-488	-17140	-12324	-964	-7578	12874	-4819	-16984	9768	13508	-11347	32767	-13998	-24312	-5820	6600	10810	21030	4395	-21092	-8556	2720	16444	-9637	-12960	128	130	1
-11168	-5252	11656	5531	3229	4428	-14604	5208	-2488	9408	6810	1133	-12840	-5612	-3872	4630	14517	-5395	-32768	-196	5852	-5463	32767	-23480	-20760	3120	-11088	6129	22221	5467	-16216	-3288	1516	15869	-11357	-12234	131	131	1
-12304	-3228	13300	4207	635	3950	-14812	6372	-3108	3624	6995	-142	-17360	1532	-1572	8024	12053	-1452	-31684	2100	5884	-4348	32767	-24691	-25356	256	-11060	394	22337	3644	-19808	1600	-2192	19935	-12816	-8603	127	134	1
-10788	-4924	12012	2361	881	1913	-17788	5364	-1540	378	7088	-855	-17980	1344	-1708	389	10866	-2334	-32768	980	11496	-2149	32767	-23929	-20200	-740	-9592	-3063	17228	3234	-23496	104	-10288	19641	-14377	-2749	134	131	1
-10108	-4624	11944	1293	851	965	-16244	3964	-1252	1886	5449	-1391	-15984	-3068	-28	2119	11279	-3137	-28024	5148	15376	4915	28211	-19013	-16252	2772	-10176	-3143	16331	2691	-26412	-1304	-10376	16919	-18904	2194	133	131	1
