#Activity	walking 
#ActivityID	1 
#Date 08-22-18-29
acc_rf_x	acc_rf_y	acc_rf_z	gyro_rf_x	gyro_rf_y	gyro_rf_z	acc_rs_x	acc_rs_y	acc_rs_z	gyro_rs_x	gyro_rs_y	gyro_rs_z	acc_rt_x	acc_rt_y	acc_rt_z	gyro_rt_x	gyro_rt_y	gyro_rt_z	acc_lf_x	acc_lf_y	acc_lf_z	gyro_lf_x	gyro_lf_y	gyro_lf_z	acc_ls_x	acc_ls_y	acc_ls_z	gyro_ls_x	gyro_ls_y	gyro_ls_z	acc_lt_x	acc_lt_y	acc_lt_z	gyro_lt_x	gyro_lt_y	gyro_lt_z	EMG_r	EMG_l	act
-8160	-8216	11228	-222	146	68	-14848	-3184	-1864	428	546	-45	-14232	-6120	-2560	-41	1771	892	1528	12560	6912	-1161	-4365	2276	-9752	1744	-6424	2516	-3692	-332	-14896	3112	-8184	692	-2210	1219	126	123	1
-7716	-6880	12228	-114	145	102	-16168	-1240	-960	-416	390	-349	-16352	-1656	1344	398	1791	692	-1680	15160	8256	-850	-4297	2930	-9000	4432	-7056	2022	-4441	-53	-11248	2344	-9216	-286	-1916	1051	135	124	1
-8232	-6920	11932	-124	212	115	-14488	-5128	624	-984	418	-338	-15152	-336	3512	300	1895	631	-4880	16744	9616	-793	-4485	3270	-8072	7128	-7280	1205	-5080	294	-9216	2064	-9048	-1134	-1758	742	132	123	1
-8136	-7920	11464	-61	148	156	-13984	-7512	1888	-1098	644	-264	-14472	-5496	4760	-578	2192	441	-7280	18080	9464	-571	-4825	3353	-10112	7456	-6960	41	-5436	565	-7544	1616	-8576	-1347	-1597	712	119	125	1
-8280	-7524	11440	-46	154	164	-15936	-12968	14192	-744	-156	3	-14976	-7704	3320	-998	2409	91	-9776	19760	9992	-158	-5022	3277	-12512	5856	-9160	-797	-5714	658	-7248	448	-8208	-1548	-1379	592	122	125	1
-9448	-7780	11540	214	-80	265	-12752	-5504	3232	-296	467	-143	-16576	-6888	-1048	-836	1988	64	-11616	22488	11720	439	-5077	3229	-14688	4184	-10280	-1203	-5971	907	-6776	-888	-8080	-2281	-1093	537	124	129	1
-8344	-6844	12028	246	-65	280	-15976	-5672	-224	-22	1561	-70	-17000	-3000	-3240	-824	1537	92	-13488	25424	13544	943	-4879	3422	-17184	3064	-10648	-1387	-6141	1107	-6944	-3352	-8504	-2965	-943	269	126	130	1
-8052	-6908	12680	144	46	338	-17080	-4680	-5040	196	1427	-118	-16936	-2552	-3544	-825	1501	117	-15192	27416	18384	1442	-4448	3971	-19824	1016	-13512	-1587	-6369	1160	-7568	-6208	-7128	-3062	-1039	-85	128	131	1
-8448	-7992	13228	17	296	442	-17448	-4720	-5528	186	1421	-108	-15952	880	-5768	-863	1630	317	-19568	32672	22880	1757	-3880	4809	-27928	-480	-15880	-733	-6603	1317	-6984	-6648	-2408	-2606	-847	-231	133	127	1
-8444	-6640	13108	-42	574	502	-16792	-3064	-3120	-973	1139	-255	-16384	-136	-4216	-632	1428	427	-26232	13184	26464	2638	-3280	5482	-26136	-592	-18208	217	-6489	1401	-9040	2488	5304	-1548	-533	120	142	124	1
-8332	-7752	13284	-143	835	627	-16512	-5768	-1208	-1114	1155	-280	-18488	-2912	-40	-721	1279	254	-32768	29368	21688	2746	-2941	4919	-24656	4744	-18968	2353	-5263	1472	-16048	9360	10808	-144	-142	1248	150	126	1
-8628	-7836	13416	-62	1142	751	-16664	-7040	528	-1118	1434	-227	-18792	-6072	4024	-1189	1239	5	-32768	6056	12456	245	-3130	3142	-19808	9560	-19904	243	-4021	1735	-24680	10800	25808	1278	-49	1695	118	129	1
-8156	-8596	14036	-40	1564	967	-17640	-6512	-88	-864	1866	-128	-18520	-7288	3936	-1297	1232	-110	-32768	-8064	-1080	1617	-2563	880	-13248	1560	-23928	-1116	-2245	839	-18224	12704	32767	1463	295	1267	109	126	1
-8240	-6072	15200	-64	2135	1130	-20208	-3032	-2168	-732	2201	-45	-18408	-5728	1624	-936	1161	-20	-32768	-5720	-4088	693	-894	-711	-1640	-2560	-22840	102	640	634	-19480	12416	17616	925	202	483	104	124	1
-7984	-5132	15536	-254	2808	1185	-19944	-1960	-1416	-664	2459	89	-19104	-4128	2480	-524	857	304	-32768	3712	3704	-1225	1294	-1124	-5664	-3184	-24080	206	3121	-264	-13080	7680	7472	983	349	164	102	123	1
-8748	-6544	14948	-535	3489	1346	-19728	-2136	488	-542	2746	142	-19880	-2152	5768	-281	285	411	-13768	14568	15440	-2861	5212	-4172	-24112	15056	19640	3291	4027	-612	-7360	6816	4800	1153	-356	70	188	124	1
-9212	-6164	15240	-800	4264	1692	-20680	-3904	640	-773	3056	90	-20496	-5240	9760	-496	-701	250	-27160	-6048	26048	175	5918	-2729	-32768	-26928	-15160	-3273	2071	98	-14968	23312	-3776	1167	1972	-481	126	124	1
-10312	-10024	15304	-1094	5645	2182	-30472	-1296	2848	-1008	3418	338	-26512	-8128	18592	-961	-2114	-499	-22288	160	32767	129	3609	-3029	-6920	-14624	-7032	-4894	2777	-712	-28264	9160	13616	-2770	1323	-122	86	123	1
-15392	-15736	18300	-1182	7070	3307	-32768	6592	7056	-2403	3403	114	-20040	6232	13200	-1062	-2832	114	-9936	30272	7400	-162	2651	-1826	-10584	-12360	-20936	-4315	3845	-1002	-19528	-20736	-16360	-4380	1442	-1053	131	126	1
-25760	-15156	20300	-684	7149	4132	-30232	-8360	2912	-4320	3378	160	-25080	7192	2872	-1554	-1947	544	-32768	24016	32767	-1714	648	-1040	-14088	13624	-25360	-3333	2542	391	-14504	-2992	-3432	-564	-130	845	122	129	1
-20764	-19404	24208	227	7055	4610	-26464	-12112	120	-3737	3165	322	-25416	-5776	-15704	-2795	-1113	-390	-5760	4344	16552	-1021	-106	-430	-13944	-608	-17704	-4518	1705	89	-13216	2280	-11424	1971	1759	-224	127	133	1
-22568	-12500	30468	-2422	5522	2646	-23600	-7936	-7848	-1126	2986	843	-29896	-4768	-9848	-1518	-2435	-1255	-4848	10712	13656	-472	-48	-161	-23056	-12048	-13664	-1535	1622	-244	-20624	2400	-11744	1395	2635	512	110	128	1
-32768	-32768	32767	-59	138	624	-16944	-6360	-18168	526	1903	838	-30512	-4000	-8640	-1297	-2629	-1318	-5080	10024	13960	-431	-45	-142	-18000	-6232	-8384	3192	1405	575	-19784	2264	-3496	840	1857	335	125	129	1
4280	-10332	23776	1509	-2599	187	-21472	-3136	496	-972	180	-127	-32672	1040	-9112	1509	-3301	-1217	-3560	9360	13792	-66	32	-64	-16760	-24	-5952	4530	1184	729	-16560	2248	-1552	593	1631	171	127	128	1
-24	-9356	18068	-965	-3548	14	-12312	-5288	-7096	959	-836	-74	-26624	4496	-8816	567	-3122	-1630	-3640	10136	12776	43	62	-81	-17904	8616	-3232	3499	800	801	-14856	5808	-2320	690	1712	-529	138	128	1
-1692	-17980	13852	-265	-4791	-477	-7576	-2472	-7168	1450	-1711	-164	-21376	5096	-7984	-657	-2705	-1219	-3560	10184	12736	90	71	-109	-14400	10360	-1864	17	629	454	-13928	5184	-144	341	1447	-856	119	129	1
-1464	-9888	11504	114	-5400	-1051	-9176	1624	-6104	893	-2612	-350	-20976	4600	-8080	-822	-2636	-1164	-3776	10072	12696	76	34	-132	-14712	5944	-3720	-2089	877	-136	-14424	4800	-536	47	1491	-825	220	130	1
-3096	-8100	10028	-569	-5292	-1567	-11704	672	-6000	335	-3645	-149	-16840	-2264	-8240	-657	-2325	-1489	-3680	10744	12320	57	51	-148	-17480	2352	-3552	-2803	794	-380	-15368	3360	-560	118	1722	-718	105	133	1
-5496	-8384	9996	-926	-5025	-1979	-8960	2200	-6728	-92	-4423	-162	-15896	-2176	-8352	-422	-2267	-1511	-3896	10440	12664	-17	77	-150	-17816	-4272	-4656	-1606	489	114	-16208	1992	-824	266	1873	-548	125	133	1
-8020	-8472	11524	-1251	-4763	-2463	-8160	1536	-7480	-657	-4968	-182	-10704	2336	-9312	1048	-1961	-1191	-4224	9776	13016	23	101	-134	-16000	-3672	-4216	793	528	371	-14960	520	664	232	1877	-493	115	132	1
-10444	-10640	13264	-1316	-4670	-3003	-10392	-752	-8256	-543	-5384	-366	-7592	4264	-9456	1069	-1718	-915	-4104	10256	12560	49	96	-129	-14944	1696	-3088	2006	664	469	-13336	1632	136	210	2057	-580	118	135	1
-13364	-10820	15804	-1366	-4703	-3466	-11968	-2280	-10136	-45	-5860	-497	-5800	4432	-9784	799	-1516	-681	-4184	10328	12264	-9	93	-133	-15728	5656	-2064	1705	648	380	-14048	5800	856	183	2313	-704	137	134	1
-15864	-11456	17020	-1552	-4792	-3637	-13120	-2400	-8864	490	-6156	-663	-5080	3408	-9008	983	-1345	-445	-4144	10480	12960	-67	103	-143	-15768	6832	-1776	496	675	179	-15632	8808	2304	366	2564	-757	128	134	1
-18816	-14076	18272	-1553	-4731	-3630	-15856	-2808	-9368	1204	-6380	-921	-4080	3672	-8320	1523	-1109	-134	-4016	10384	12664	-112	106	-179	-15896	5456	-1776	-680	827	59	-16280	7496	232	495	2786	-744	111	134	1
-19556	-14780	18716	-1534	-4695	-3643	-19984	-3016	-13424	2160	-6589	-1023	-3264	5360	-6960	2071	-957	159	-3984	10592	12712	-142	143	-258	-15840	2256	-1944	-869	1030	45	-18776	2760	-672	-4	2207	-230	110	134	1
-29500	-12572	22048	-1213	-3759	-4413	-24920	-3504	-14032	2782	-6596	-661	-3376	3704	-2768	2044	-946	363	-3328	10552	13032	-95	229	-385	-15944	-560	-1520	-226	1229	145	-17992	2560	1640	-610	1372	11	126	135	1
-32768	-4828	20360	-2092	-2721	-4553	-25840	-3048	-14352	2793	-6539	-581	-7168	-4944	5248	1628	-967	-334	-2816	11504	13896	-14	358	-548	-16096	1792	-1488	612	1448	248	-16232	4896	3952	47	1315	-45	132	139	1
-32768	-10620	13428	-968	-2643	-4206	-22160	-3160	-19048	705	-4920	-246	-21744	-11440	21344	1010	-1782	-1619	-3800	9688	14688	62	708	-636	-17936	3448	-3136	892	1668	203	-15736	5440	2832	1057	1445	-39	88	139	1
-32768	17928	-476	-607	-2524	-2959	-16184	-7680	-23712	-359	-3741	-459	-24264	-5792	24768	-117	-214	-1185	-4176	10136	14912	298	974	-814	-19592	2840	-3936	643	1857	73	-17720	2576	1032	1328	1479	24	127	139	1
-32768	28044	-14316	-2912	-1818	-487	-7576	-3976	-20784	-1542	-1668	-818	-25256	-2048	20040	-1441	-265	-89	-3752	10344	16744	364	1498	-916	-20160	1264	-3088	510	2064	-42	-19296	5168	2008	1263	1313	-111	125	134	1
-32768	13648	-14800	-684	-849	1483	-5544	-5896	-20328	-2044	771	-479	-17824	-9592	9256	-2673	194	491	-3776	9072	17040	698	2116	-1108	-21248	1512	-3056	224	2356	-214	-19792	6496	3824	1237	1174	-138	122	125	1
-32768	2128	-8776	2117	89	1983	-9576	-6864	-22912	-1347	2608	112	-11064	-15552	2024	-1656	880	-251	-3432	10936	16752	982	2748	-1427	-21736	1448	-1888	69	2676	-326	-20368	7648	5768	1039	826	-241	121	136	1
-32768	-2380	-8	1356	1102	844	-13808	-8104	-22952	-3	3594	178	-752	-13512	-5096	-523	-263	-771	-2744	11216	17216	1482	3359	-1896	-22824	-624	-400	164	3051	-435	-20984	8760	9488	637	23	-209	123	120	1
32767	-6396	12456	2863	3957	1876	-32768	-3216	32767	-1507	394	286	-14752	-15688	-12304	-228	1935	776	-2000	11176	20160	2124	4229	-2519	-29592	-1064	200	835	3431	-628	-22832	13776	13824	883	-1299	-51	126	126	1
-32768	6460	32767	1522	4401	2115	-14640	-20400	-32768	7007	3315	-618	-32768	-11952	25840	5981	-367	-618	-2744	22624	19856	2267	5496	-3739	-32768	-7280	7704	1867	3587	-807	-28272	5464	22568	240	-2467	165	118	120	1
-19764	-15652	16112	649	2260	2267	-18112	23096	-14872	2869	4364	1372	-22456	25680	-7272	5108	2595	1135	-14736	30520	22720	1463	6516	-4925	-32768	3608	3280	2788	3573	-555	-22072	-3280	13200	-102	-2371	-665	118	129	1
-20460	-5204	19068	1310	711	639	-17400	-10456	-14912	-10	2704	-887	-13704	15656	-14968	1474	1430	241	-10992	32767	24976	-166	6623	-5882	-32152	15160	2288	1436	3673	-1045	-22584	328	-1840	773	-1803	-413	89	129	1
-11656	-9604	10812	979	101	536	-11600	-5928	-11960	568	1867	-1371	-4424	2680	-10496	-2447	1950	482	-9632	26304	24968	-508	6479	-5506	-26192	7920	1904	-302	3840	-965	-28744	10536	-14536	1649	-1531	423	144	127	1
-9840	-7040	13680	535	23	179	-18608	944	-11552	358	1628	-349	-13136	-9736	-13264	-2742	1981	115	-968	11272	18008	1774	4208	-4112	-21280	2472	-19128	-2740	3093	-1133	-30144	5568	-7808	623	-2579	1128	130	131	1
-7596	-6932	13192	269	40	83	-21008	-1088	-6520	-1217	1210	-4	-22048	-5256	-7792	-754	1851	-504	264	32767	32767	-1234	-1128	-395	-19232	1504	-6592	-2238	1417	-864	-32768	1608	-5528	-1123	-3371	1034	122	122	1
-7432	-5696	13776	171	55	90	-16656	1832	-5608	-2615	944	-399	-17712	3016	-904	239	1846	-171	11104	7880	15488	-1981	-2328	-291	-22664	-5848	-128	217	41	-213	-30696	-656	-7616	-1403	-3744	1115	120	127	1
-7204	-6348	13292	-27	171	53	-16168	-6736	-3896	-2344	605	-542	-17776	1816	-2536	-724	1865	577	7064	10336	13280	-430	-3117	-27	-10144	-2656	-7256	495	-1264	-41	-22376	-1120	-6344	-690	-3259	1734	122	127	1
-7468	-7040	12388	-94	200	65	-15072	-10672	-3064	-256	682	-498	-15856	-3424	-3920	-1118	1764	1308	7896	15672	10648	-1024	-3515	1208	-4520	-4816	-6600	1695	-1926	-109	-20760	-1328	-7288	618	-3105	1540	70	128	1
-7524	-7044	12364	-79	155	92	-14832	-7976	-3072	1502	884	-64	-13608	-5112	-2824	-487	1686	1183	4072	8176	10336	-996	-3624	2265	-8968	-2192	-5056	2403	-2788	118	-18520	600	-7784	1261	-2762	1475	154	124	1
-7464	-8172	11480	84	110	143	-15616	-1416	-2528	1431	804	101	-14296	-4912	-2592	100	1657	894	1104	10592	10808	-183	-3815	2866	-10408	1864	-6656	1925	-3804	357	-16656	1352	-8240	962	-2517	1461	133	120	1
-7720	-7000	12304	212	72	167	-16912	304	-2576	-111	645	-271	-16256	-280	-1104	388	1762	745	-1960	13008	12080	-174	-4181	3193	-8168	2328	-7096	1081	-4618	610	-13464	664	-8680	35	-2218	1217	128	124	1
-7696	-6192	12944	129	107	145	-16752	328	-2520	-288	613	-294	-15600	2584	456	454	1943	852	-4288	12216	13248	-87	-4663	3291	-7336	2568	-6920	209	-5220	913	-11592	-824	-9544	-753	-2029	751	119	126	1
-7756	-6932	12356	89	106	129	-14952	-5808	-1848	-1177	618	-299	-14248	-488	-152	211	2334	872	-6944	13464	14576	330	-5178	3232	-9448	1464	-8192	-436	-5623	1076	-8416	-1248	-9456	-930	-1944	523	121	128	1
-7844	-6568	12648	87	102	138	-14432	-6160	-1440	-574	755	-224	-14720	-4840	1800	-242	2626	802	-9232	16512	16296	722	-5635	3186	-12056	-384	-9368	-389	-6077	1205	-5568	-1864	-9336	-1016	-1625	487	127	127	1
-7960	-6520	12392	93	96	147	-14024	-5600	-1200	-148	906	-176	-16184	-4672	904	-481	2770	529	-12056	18144	18064	1136	-5908	3199	-14768	-560	-9904	-173	-6512	1434	-3984	-2136	-9432	-1356	-1188	378	140	128	1
-7624	-6900	12596	108	83	223	-14584	-4200	-728	-146	1062	-167	-18048	-2800	-2744	-547	2069	369	-13848	22488	19016	1457	-5836	3352	-16424	-2512	-9888	109	-6584	1594	-3640	-4168	-10328	-1876	-981	169	127	129	1
-7000	-8596	12992	201	162	419	-15760	-4432	-1296	-375	1177	-202	-18792	-2024	-1992	-414	1543	148	-17264	28920	23504	1049	-5151	3947	-21272	-1184	-14456	24	-6816	1726	-4864	-5952	-8368	-2384	-1135	-200	125	128	1
-7408	-9364	12684	280	201	468	-17152	-4216	-3672	-666	1236	-258	-18712	-2168	-1904	-420	1509	136	-18752	27944	24256	1014	-5007	4110	-29816	-1920	-15040	22	-6906	1714	-5136	-800	-3672	-2179	-988	-270	129	128	1
-8184	-5856	13672	135	645	681	-17736	-3912	-3176	-942	1289	-170	-17312	-2808	-1808	-870	1467	287	-32768	23416	29720	2246	-3406	5023	-30480	1000	-22824	606	-6322	1398	-9160	7888	5424	-1390	-785	478	138	127	1
-8016	-6036	14432	166	974	756	-17384	-4816	-936	-948	1471	-106	-18416	-2968	936	-789	1264	269	-32768	20808	21464	635	-3467	4230	-23120	6240	-20576	296	-5075	1276	-25984	11264	17984	-477	-556	1705	153	128	1
-7848	-7720	15044	170	1402	909	-17968	-5208	-384	-811	1798	-7	-19824	-4432	4352	-983	1196	109	-32768	-2048	2672	21	-2792	2633	-13640	5688	-23488	-1961	-3331	904	-20832	11864	32767	893	156	805	113	127	1
-7908	-6728	15388	92	1951	1081	-19616	-2768	-1688	-867	2138	40	-18248	-3752	3680	-1286	1126	-1	-32768	-12864	-3432	1718	-1572	385	-10160	-3232	-26448	-1882	-849	294	-19456	9600	31072	83	181	619	111	126	1
-7892	-4588	16380	46	2568	1152	-19760	-2416	-2600	-960	2402	161	-17744	-4368	1928	-1181	1018	167	-32768	-1072	448	-260	109	-1147	-2800	-2152	-26080	433	1860	206	-18904	6472	14824	863	183	144	122	125	1
-7936	-5836	16016	-148	3220	1301	-19848	-3624	-1520	-705	2680	343	-19184	-6304	2872	-957	655	425	-32768	7928	3600	-3620	3891	-4894	-12152	13600	-3864	3334	3774	-88	-14016	3800	4128	985	367	22	97	124	1
-8992	-8656	15788	-333	3826	1756	-21136	-4344	336	-604	2980	359	-20560	-8168	5128	-653	-49	491	-7808	-2280	24720	-248	5111	-3357	-32768	-9768	-7232	-1723	2375	-573	-18928	15024	12152	2649	-531	552	124	125	1
-8048	-9576	16288	-229	4827	2320	-27976	-5920	2328	-871	3279	595	-25192	-13640	10288	-236	-963	2	-19032	-4912	32767	-129	4071	-2453	-13720	-3768	-1648	-3503	2185	-182	-21408	16592	-7624	1688	2356	-34	123	122	1
-12276	-17144	18308	76	5836	3368	-32768	-576	11368	-1588	3546	600	-26848	-9416	16680	-819	-3579	-341	-13672	21840	15616	106	2273	-2265	-19456	-2968	-10512	-1318	4305	-1340	-14432	-17200	-20648	-3030	1901	-1459	122	126	1
-22336	-13376	22068	947	6812	4772	-32768	-5408	2080	-2229	3786	443	-22072	5024	14720	544	-2452	540	-20288	32767	26488	-132	2470	-1428	-13000	9944	-16504	-2531	2601	151	-11328	-7808	-9256	-1559	-99	808	136	125	1
-17416	-9252	25032	1800	6896	4971	-29336	-9560	4752	-2127	3497	647	-24088	-456	-9200	-503	-1367	125	-7504	8944	21544	-1203	319	-491	-12880	4432	-14672	-5170	1801	336	-15280	9600	-13504	1811	1219	282	137	127	1
-27440	-22948	25744	996	6743	4176	-23120	-7152	-15232	-1895	3573	813	-27216	-3792	-14064	-887	-1667	-854	-4512	9888	14600	-524	-28	-183	-27984	-11184	-13128	-4259	1348	-144	-21720	2208	-11288	768	2267	235	107	129	1
-29796	-21380	26096	540	6534	3772	-18160	-2672	-26840	1229	2874	1269	-32768	352	-10760	-277	-2776	-1363	-4232	10488	13312	-190	15	-62	-17976	-11496	-9280	1945	1391	226	-18560	-248	-4424	387	2366	-18	109	132	1
1008	-27892	28564	2244	-1422	-776	-23576	-2392	2256	-631	694	417	-32768	-368	-9208	480	-3214	-1252	-3320	9608	13712	11	53	-60	-14392	-3192	-6704	4662	1117	868	-18888	-1592	-912	642	1712	135	123	134	1
4372	-5104	19044	41	-1674	-590	-16184	-4736	-4824	789	-364	255	-26800	2584	-8760	1057	-3128	-1611	-3640	9888	13416	281	102	-69	-15976	4288	-4504	5545	832	1068	-14696	3336	-856	1261	1693	-452	135	131	1
188	-18536	16212	-411	-2833	-1245	-9504	-3088	-7400	1573	-1392	462	-22128	4472	-7904	-136	-2974	-1685	-3080	10368	12624	385	119	-85	-18560	14048	-664	2529	482	822	-13744	7520	-672	1295	1580	-842	175	135	1
-104	-12420	13784	464	-3833	-1762	-5512	1056	-5816	744	-2312	178	-18920	976	-7608	-903	-2432	-1379	-3720	11264	12808	388	68	-132	-14056	11024	-1920	-952	739	160	-14152	8464	-1816	901	1603	-901	98	132	1
-3052	-8756	11968	-63	-4261	-2114	-11544	-3184	-6288	220	-3253	236	-16288	-3552	-8360	-640	-2348	-1500	-3256	11448	11832	466	44	-131	-15880	6000	-2088	-2548	911	-504	-16048	6592	-936	260	1641	-674	78	134	1
-7084	-10252	11124	-208	-4611	-2260	-10296	-3448	-7176	634	-4084	212	-14312	-2576	-9112	616	-2127	-1621	-3368	11744	11616	461	44	-128	-17648	-2216	-4136	-2010	634	-140	-15032	3504	-320	169	1821	-690	126	135	1
-9300	-9244	11096	-340	-4877	-2358	-7784	-1680	-7480	804	-4628	203	-13184	120	-9864	1609	-1978	-1322	-3728	10072	12336	376	101	-151	-16944	-4968	-4408	625	465	387	-13952	2264	2376	102	1892	-673	123	134	1
-11448	-10896	11272	-680	-5023	-2520	632	-13920	-6848	1347	-4702	598	-9664	3240	-10112	1983	-1791	-1021	-4800	11536	11568	345	138	-164	-17216	5080	-4048	3183	753	687	-13776	4176	2920	250	2178	-586	121	133	1
-16160	-15284	12096	-787	-5115	-2888	-17656	-11328	-2216	1602	-6436	461	-6600	5120	-10296	1644	-1659	-764	-3992	10808	11528	184	115	-157	-15392	7760	-800	2410	645	321	-13976	7424	3672	834	2557	-626	133	134	1
-15216	-12592	11924	-1024	-4996	-3365	-6288	-2680	-9440	168	-5384	53	-5536	4728	-9296	1441	-1565	-489	-3816	11080	11432	21	107	-182	-13944	9568	-200	784	773	123	-15304	9432	1080	847	2712	-771	136	132	1
-18108	-14900	13288	-1565	-4596	-3509	-15568	-2160	-10136	405	-6489	-459	-4448	3920	-7856	1774	-1381	-312	-3880	10952	11856	-85	92	-217	-14752	5656	-1296	-767	961	-134	-17696	8168	-824	198	2415	-686	107	135	1
-24864	-19952	15924	-1545	-4267	-3762	-18152	-3000	-13240	92	-6865	-594	-4000	6624	-7576	2028	-1329	-52	-4000	10608	12448	-91	113	-246	-16400	1600	-1608	-1193	1075	-135	-18032	3760	744	-603	1760	-273	119	135	1
-28796	-14852	16820	-1578	-3755	-4452	-19192	-6536	-15096	960	-6645	-822	-3824	6064	-4136	2185	-1235	284	-3328	10992	12416	-30	185	-310	-16656	-112	-664	-420	1325	-29	-17760	2568	3664	-796	1434	-85	120	137	1
-32768	-6464	16928	-2715	-2689	-4724	-22680	-7488	-17440	1570	-6019	-862	-6592	-2040	2728	1863	-1102	-67	-4072	9928	13232	153	253	-408	-15656	2568	-1264	288	1563	43	-16000	3072	5640	-44	1397	-110	165	135	1
-32768	-6052	14108	-2549	-2499	-4510	-24248	-5576	-20832	780	-5090	-538	-13888	-6720	8864	758	-997	-1248	-3416	11680	13424	191	609	-573	-17512	3704	-1800	344	1761	-21	-15496	3432	5520	193	1415	-115	126	139	1
-32768	4048	2584	-1146	-2718	-3420	-15296	-5088	-21312	-44	-3916	-773	-20728	-5056	17488	-503	-789	-1531	-3600	11840	14024	449	915	-735	-19440	3112	-2720	190	1915	-112	-17584	3000	968	1474	1456	-36	121	142	1
-32768	19868	-7572	-1458	-2176	-1265	-12848	-3560	-21736	-1120	-2577	-992	-22600	-3448	18688	-2308	311	-976	-4064	10216	15640	531	1403	-936	-19992	136	-4336	294	2102	-137	-18536	4144	752	1572	1333	-106	124	145	1
-32768	20644	-12284	-1876	-1475	451	-9688	-4648	-22368	-2072	-575	-1143	-20176	-10752	11848	-2590	181	-405	-3560	11816	15888	926	2000	-1087	-20944	-384	-3264	488	2323	-262	-19384	4384	2696	1481	1088	-151	123	135	1
-32768	10600	-10680	223	-52	1393	-7656	-4136	-18824	-1125	1477	-288	-15368	-14576	5856	-2217	872	-183	-3832	11752	15216	1259	2647	-1333	-21072	1584	-2248	529	2565	-370	-19944	6128	5480	1264	651	-237	123	130	1
-32768	5692	-636	1458	1021	1225	-10504	-3616	-23904	82	3064	80	-11376	-14112	8768	-614	-735	-361	-3752	13184	14488	1687	3217	-1834	-21304	1752	-2008	513	2616	-390	-20952	8504	11136	972	-281	-133	123	129	1
13616	-32768	22576	7158	2012	2440	-24528	-23200	32767	-4418	1954	72	-408	-4368	-22184	-842	2453	1020	-1536	13344	16736	2075	4115	-2463	-22672	832	0	437	2959	-466	-19408	10872	15920	1250	-1800	144	126	111	1
-32768	22060	26724	1520	4882	2537	-31584	-5456	-14120	7702	3265	-1538	-32768	-32424	22848	2414	48	-93	-1056	15808	18200	2693	5609	-3390	-32768	-8040	7416	1577	3676	-922	-24416	4440	25480	640	-2668	369	124	127	1
-19836	-1424	26816	1018	2530	2397	-17664	26360	-17576	6855	3974	2176	-25168	10768	7400	6382	2357	568	-9184	31768	22192	3245	6644	-4633	-32768	-1584	5688	2408	3889	-753	-21792	-7584	15168	51	-2353	-671	106	115	1
-17260	-15392	12948	800	2067	918	-23704	-1256	-9248	6	3211	55	-20504	24160	-13408	4256	1954	1007	-12640	24776	15776	1640	6781	-5841	-32768	12320	-1064	1637	3846	-952	-25064	2016	-2248	1573	-1806	-743	67	124	1
-8524	788	15184	1123	262	608	-9488	-10072	-14160	728	2064	-1278	-8848	6720	-14616	-544	1331	311	-3288	32767	16840	99	6561	-6192	-29288	11432	1672	-98	3677	-1258	-30216	13752	-16464	2239	-1513	356	139	121	1
-10664	-5172	15936	622	-54	242	-15792	-3104	-13304	1817	1834	-803	-7392	-2928	-9280	-2532	1956	199	4416	24600	28664	1435	4405	-4305	-22592	5808	-9392	-1857	3418	-905	-31680	10880	-8296	694	-2629	1074	118	125	1
-8152	-5836	13664	281	30	60	-20696	1984	-8608	222	1459	165	-20696	-5464	-12392	-1815	1816	-387	-6920	32767	32767	-699	-1274	-1817	-15928	7832	-17944	-3777	1334	-998	-32768	8648	-6176	-1372	-3228	905	119	132	1
-7408	-7296	12612	183	20	43	-17600	368	-5312	-2188	939	-307	-19848	-728	-3816	-401	1713	-599	11112	12248	17280	-2443	-3599	-708	-23376	-4912	3296	-436	436	-656	-31520	1120	-7368	-2488	-3693	1129	124	121	1
-7616	-6136	12920	81	79	59	-15776	-528	-4760	-3460	575	-601	-17128	2312	-1624	-532	1819	15	6688	13552	11672	-1970	-4357	-698	-12448	-424	-6424	572	-1245	-263	-24400	-1592	-6240	-1436	-3084	1508	122	131	1
-7404	-6440	12976	-70	163	63	-15776	-1736	-4312	-3507	511	-595	-17280	-344	-2232	-1153	1652	997	6928	17496	8000	-2271	-4704	664	-5920	-624	-6800	1071	-2137	-454	-20960	-2016	-8128	291	-2917	1440	120	128	1
-7708	-6652	12648	-157	181	67	-14704	-11456	-2976	127	665	-346	-14448	-3464	-3080	-1030	1666	1224	4712	12216	6144	-2173	-4487	1960	-7136	-2600	-5136	1904	-2952	-311	-18256	856	-8136	1341	-2686	1441	127	126	1
-7612	-7628	11740	-115	167	100	-14848	-6928	-1896	1897	831	30	-14080	-4384	-1256	-545	1603	985	1152	11968	7272	-1220	-4262	2899	-9936	2560	-6576	1833	-3908	-69	-15232	2416	-8144	1002	-2366	1228	124	125	1
-7676	-7888	11732	77	128	155	-15744	-312	-2432	1269	775	-164	-13952	-4320	-1296	-453	1610	935	-1664	13688	9096	-661	-4171	3457	-9056	2992	-7280	1230	-4648	99	-11456	1880	-8960	-42	-1985	1006	144	124	1
-7792	-6876	12320	141	107	168	-16312	-184	-1424	-257	612	-278	-15816	144	1032	-131	1865	566	-4416	13520	11736	-362	-4444	3606	-8024	3872	-7856	621	-5296	400	-9488	1160	-9640	-991	-1763	661	150	125	1
-7836	-6856	12456	135	107	161	-14544	-3408	-1080	-1413	609	-383	-15608	-40	1496	-122	1882	577	-9864	25096	7464	28	-4926	3869	-8832	2064	-11912	-134	-5737	620	-7760	680	-9520	-1397	-1717	508	100	126	1
-8120	-6596	12452	108	104	150	-11768	-14856	-336	-2673	-1753	-2024	-14520	-4480	1680	-439	2393	719	-10144	17376	16184	191	-5508	3299	-11896	1352	-9336	-55	-6122	763	-6504	-816	-9360	-1698	-1405	408	124	127	1
-8220	-5784	12652	63	81	196	-12048	-11432	-1800	-435	609	743	-15144	-7400	224	-651	2578	647	-12432	17432	17440	859	-5953	3100	-14808	448	-9984	109	-6492	1114	-4832	-2536	-9536	-2107	-949	274	123	127	1
-7760	-7240	12564	181	87	202	-15448	-7712	800	311	1138	-329	-16856	-5640	-2568	-615	2266	531	-14160	23800	18088	1164	-5969	3105	-16656	-1552	-10432	156	-6586	1326	-4440	-5344	-9864	-2549	-732	-56	126	129	1
-7560	-7508	12712	116	122	396	-15688	-5120	-1968	721	1467	-88	-18504	-976	-3088	-388	1794	147	-17584	31440	21232	846	-5379	3725	-20528	-568	-13864	168	-6690	1469	-4928	-7984	-8000	-2693	-880	-369	128	128	1
-7600	-6432	13792	55	362	591	-16760	-2064	-2976	72	1360	-86	-18184	-1200	-1456	-423	1446	168	-22752	20288	25720	1430	-4261	4931	-29584	376	-14784	-96	-6836	1692	-5448	-3608	-1664	-2286	-802	-383	131	129	1
-7940	-7264	13984	-9	677	640	-18456	-1888	-1664	-1143	1322	-248	-18016	-3600	-832	-763	1420	285	-32768	26000	25024	2338	-3240	5218	-29472	2392	-21000	397	-6213	1235	-9104	6192	6192	-1363	-684	522	211	128	1
-7780	-5624	14748	-3	990	818	-17480	-5464	-1768	-1613	1317	-310	-18248	-4472	984	-919	1294	322	-32768	21528	16168	610	-2818	4288	-22768	8048	-18808	-196	-4992	1322	-25032	10856	19872	-845	-831	1955	172	128	1
-8400	-7316	14696	-47	1425	872	-17752	-6696	-248	-1406	1691	-114	-18048	-4584	3896	-1093	1281	161	-32768	-3176	4008	631	-2082	2415	-14912	6520	-27032	-2827	-3218	860	-21528	9832	32767	1128	158	911	107	127	1
-8352	-6184	14856	12	1943	1045	-18296	-4720	-1048	-914	2111	-1	-18496	-4544	4392	-1113	1207	-21	-32768	-6544	-3632	1985	-1676	242	-8504	-3896	-27184	-1616	-775	263	-21744	8960	29248	1195	171	547	119	125	1
-8060	-5256	16104	-27	2572	1088	-19368	-2760	-1384	-422	2558	196	-18472	-6016	3064	-1048	1059	163	-32768	368	-2344	-468	5	-1515	-1888	-1456	-21888	1291	1998	426	-16808	9152	11640	2070	290	324	111	125	1
-7632	-6108	15956	-240	3299	1240	-20488	-3000	360	-271	2864	293	-20208	-6376	4824	-783	543	354	-32768	7120	4640	-1314	1088	-1815	-8600	984	-24448	1855	3820	27	-9392	6392	488	1802	765	351	99	125	1
-8868	-8148	14980	-531	3985	1712	-21432	-3288	1608	-354	3194	290	-21448	-5360	9328	-334	-381	365	32767	15624	-7856	-4082	4445	-3139	-32768	13328	32767	11649	2768	-181	-664	4704	-7272	1575	580	-593	109	122	1
-8636	-9564	17612	-772	4905	2366	-25104	-4320	2600	-1204	3440	224	-22048	-10440	17232	-723	-1980	-34	-32768	22184	32767	141	6031	-2907	-4504	17376	-26152	-3398	1593	1132	-31792	32767	19560	585	1476	965	133	125	1
-11828	-17128	16744	-629	6408	3342	-32768	6832	9080	-2288	3573	340	-18920	1104	12808	-692	-2472	-226	-23112	24584	23168	-34	2984	-3220	-19976	-2928	-18488	-3973	4891	-1697	-21992	-9336	-2176	-5011	2243	-1333	111	121	1
-27792	-15896	23188	-230	7313	4449	-31584	-5520	1368	-3576	3571	299	-25840	8368	9808	-679	-2232	523	-9056	16296	13048	-308	2751	-1274	-23608	5656	-9824	-3588	3412	-578	-20064	-18056	-16352	-4067	439	-203	182	127	1
-24436	-16704	28212	927	6865	5029	-28432	-14624	704	-3166	3274	535	-24856	-4112	-10952	-2012	-1080	-61	-4608	8560	12856	-1403	52	-620	-13584	4768	-14072	-5023	2187	166	-10168	2648	-9920	406	126	699	115	134	1
-27164	-25248	26176	112	6719	4410	-24256	-10432	-10264	-2395	3428	643	-28712	-8896	-13520	-1393	-1768	-1021	-7552	10696	15568	-741	19	-273	-15000	-8832	-14120	-4087	1220	62	-13976	4088	-9240	1537	2181	-409	169	132	1
-22456	-32768	28616	-625	3577	2425	-16544	-4208	-28608	1632	2795	1199	-32768	-4472	-9552	-216	-2794	-1471	-4424	9208	14264	-322	-20	-127	-22280	-14520	-11712	1319	1505	169	-21328	288	-6904	1122	2689	652	97	132	1
-1768	-30872	28548	2095	-1798	-305	-22536	-2824	1472	-471	571	364	-32768	-272	-8520	1442	-3107	-1372	-3696	9896	13536	-146	-2	-88	-18104	-3528	-8376	5108	1368	776	-19472	1048	-1624	1285	1712	433	120	129	1
3140	-6276	17964	306	-2090	-126	-15752	-3624	-7440	978	-423	155	-30120	4704	-9976	1477	-3102	-1820	-3624	9920	13152	26	52	-89	-16176	3768	-5280	5686	1120	845	-15736	4328	-1712	1459	1696	-81	128	128	1
-428	-17644	14788	-517	-3114	-1052	-8944	-3624	-8728	2091	-1380	306	-23096	7192	-7432	-35	-2797	-1489	-3472	10240	12736	116	78	-106	-16624	5280	-4880	5508	1052	853	-14640	7656	-1240	1225	1565	-794	138	132	1
-272	-11720	12700	311	-4020	-1707	-6168	3880	-6776	1220	-2340	-46	-19184	4336	-8192	-1011	-2382	-1187	-3848	10840	12792	158	89	-135	-13704	9536	-2472	-1098	758	230	-13872	6216	-1008	626	1422	-980	101	132	1
-3224	-6836	12532	-435	-4363	-2311	-9944	2256	-7472	162	-3378	-5	-16024	688	-7696	-943	-2293	-1424	-3640	10872	12576	123	50	-147	-15648	5504	-3096	-2832	983	-415	-14256	5400	-592	47	1369	-898	156	134	1
-3816	-6960	12576	-552	-4423	-2389	-8720	1928	-6768	-199	-4226	-73	-13056	816	-7752	119	-2141	-1411	-3736	11320	11952	2	39	-168	-17856	656	-4056	-3048	790	-343	-15448	1992	-720	-148	1734	-689	139	134	1
-7056	-4364	12172	-1054	-4949	-2582	-5952	2880	-6136	-613	-4871	-188	-10880	2112	-8320	936	-1938	-1083	-3816	10328	12256	-130	62	-171	-16776	-5392	-4856	-1232	511	160	-15568	-32	-128	218	1829	-746	137	131	1
-10040	-6940	13672	-1395	-5055	-2602	-8104	608	-7256	-623	-5281	-410	-8072	4120	-8808	1266	-1680	-807	-4208	9992	12840	-95	77	-162	-15760	-2992	-4536	1278	594	395	-14384	-296	320	340	1968	-544	110	134	1
-12412	-9548	14848	-1318	-5275	-2760	-11960	-592	-8808	-239	-5699	-631	-5920	5160	-9328	1014	-1543	-597	-4360	10328	12440	-101	73	-140	-15344	3256	-3320	2273	676	421	-13520	2648	-496	633	2331	-663	143	134	1
-14456	-9652	16024	-1570	-5305	-2963	-13120	-776	-8880	148	-6106	-678	-5032	5200	-9048	879	-1410	-352	-4184	10360	12256	-108	72	-142	-16048	7288	-2848	1543	599	257	-14504	8448	1488	830	2801	-730	124	134	1
-17688	-13260	16908	-1675	-5143	-3140	-14200	-984	-8696	666	-6318	-909	-4720	4632	-8392	1160	-1287	-141	-4192	10264	12704	-195	82	-195	-15912	5912	-1608	164	630	46	-15784	8296	672	807	2879	-799	117	135	1
-21176	-16552	18744	-1458	-4737	-3489	-18112	-1408	-10864	1325	-6465	-1098	-3504	5376	-7904	1698	-1090	105	-3848	10152	13032	-200	110	-244	-15368	1960	544	-357	887	28	-18104	4216	328	286	2194	-483	117	137	1
-27664	-17160	21616	-1325	-4037	-4321	-23576	-3744	-15296	2178	-6600	-980	-3096	4536	-6288	1967	-996	380	-3640	9880	13168	-134	167	-292	-14808	1608	-160	-262	1245	63	-19136	3808	3432	-568	1331	-173	249	138	1
-32768	-7528	21912	-1818	-3076	-4992	-27208	-4528	-17608	2438	-6314	-567	-6288	-1872	736	2118	-1230	239	-3624	10528	13408	8	246	-398	-16456	2120	-1720	-72	1531	72	-16392	6792	4776	-284	1372	-108	187	137	1
-32768	-3564	16400	-2456	-2367	-4738	-26712	-5856	-15776	810	-5459	-50	-15872	-8944	11920	1262	-1704	-928	-2736	12032	14432	2	433	-638	-18208	4168	-1536	272	1705	37	-15256	7312	3112	712	1526	-237	125	135	1
-32768	1300	4680	-906	-2501	-3685	-15448	-5992	-24656	685	-4127	-529	-27216	-8240	21344	-715	-1074	-1794	-3880	10344	15456	109	801	-816	-18592	2152	-3064	425	1914	-36	-16344	4856	1024	872	1531	-159	136	138	1
-32768	25692	-9296	-1482	-2397	-1412	-12488	-3752	-20216	-1171	-2635	-616	-21128	-1344	22720	-2203	272	-627	-2704	12056	17712	342	1168	-957	-19768	192	-3128	609	2165	-136	-18920	1936	1696	757	1419	-132	124	136	1
-32768	20452	-16156	-1938	-1592	987	-6840	-4880	-21048	-2799	-439	-975	-20808	-8016	10816	-2847	80	-103	-3520	9808	17584	476	1919	-1056	-21672	-488	-3632	609	2388	-238	-20456	2864	3640	951	1236	-317	125	132	1
-32768	4100	-10604	970	-531	1914	-6352	-7328	-20792	-1947	1567	-359	-14432	-17176	5000	-2379	761	44	-3552	9240	18136	856	2611	-1293	-21928	472	-2344	249	2702	-440	-20776	5032	5400	1120	832	-359	122	117	1
-32768	4104	-2920	2358	484	1338	-11032	-7560	-21832	-219	3098	241	-9128	-17536	11984	-371	-1216	-684	-3216	11128	16856	1462	3268	-1704	-22568	-952	-1416	-80	3086	-568	-20672	8808	9240	969	41	-320	123	132	1
26524	-1244	32767	4686	3797	3877	-32768	-12992	32767	-1450	1255	35	-12016	-15744	-4752	-332	1017	71	-800	13144	19264	1923	4137	-2321	-29504	16	104	390	3486	-770	-22712	15408	12680	1110	-1138	-37	123	123	1
-32768	6748	32767	2264	4093	2448	-24928	-7728	-21632	7573	3549	-359	-32768	-17528	23104	4901	-251	-567	-1232	21544	18144	1956	5260	-3538	-32768	-4168	9016	1298	3708	-937	-26632	8984	23320	494	-2473	212	126	121	1
-23392	-13392	18580	868	2520	2185	-22976	22536	-13576	2927	4216	1205	-24464	28216	-15208	5368	2631	1723	-8232	30848	23696	1569	6464	-4866	-32768	688	5192	2240	3993	-748	-23864	-1624	17480	-713	-2528	-704	98	122	1
-32768	-27928	29756	1313	1399	853	-13376	-11688	-21360	-782	2613	-580	-12944	17136	-10656	1583	960	347	-6904	32744	27128	687	6654	-5845	-32768	12440	2464	1662	3849	-942	-23000	-1520	-872	-161	-1918	-458	125	122	1
-16220	-14696	13640	666	25	321	-11192	-5464	-13240	420	1860	-1544	-5360	3680	-11704	-2216	1872	112	-7832	32767	26856	-1059	6544	-6354	-27016	12144	248	323	3691	-905	-27824	9456	-14056	1495	-1749	211	120	122	1
-9084	-4632	14444	290	90	45	-22288	-2360	-10360	1192	1833	-377	-18456	-8304	-14928	-2720	1951	-432	18384	16600	32576	162	4389	-4032	-22544	6112	-13752	-1870	3036	-853	-32152	8344	-10400	1057	-2446	1043	129	124	1
-7952	-6512	13064	102	111	-4	-19112	-136	-6120	-553	1200	22	-21360	-1824	-8384	-561	1838	-323	1640	32767	32767	-793	-1059	-793	-18240	4000	-9032	-2828	1344	-971	-32768	5928	-5496	-502	-3247	1208	125	123	1
-7376	-5664	13376	-4	129	26	-15272	1808	-5264	-2145	845	-444	-17376	3928	-464	-98	1801	-127	14000	10784	14176	-1773	-2409	-230	-22888	-5096	1608	-118	20	-558	-31056	1088	-8216	-1527	-3668	1333	120	124	1
-7332	-5868	13284	-166	236	37	-15464	-2760	-4424	-2634	479	-642	-17128	4224	-264	-149	1815	-83	8968	12656	11736	-1177	-2798	155	-10568	-1704	-6576	474	-1345	-303	-23736	-1096	-6936	-978	-3367	1769	126	126	1
-7544	-6912	12456	-287	262	54	-17448	-10304	-2920	-1511	463	-665	-15168	-3648	-3072	-1453	1689	1279	8376	14360	9784	-1259	-3224	1540	-3640	-2232	-6272	1369	-2159	-400	-19208	-1168	-7832	434	-2760	1623	74	127	1
-7776	-7256	12192	-250	185	69	-15512	-10120	-1952	247	612	-315	-13176	-7696	-2616	-970	1636	1208	4032	10640	9408	-930	-3455	2611	-8200	-592	-5544	1937	-3087	-119	-17632	816	-8616	1168	-2525	1540	148	127	1
-7960	-8188	11416	-88	150	114	-13112	-4880	-1272	1009	722	38	-13904	-7688	-2072	3	1554	864	424	11944	10408	-450	-3702	3208	-10648	3312	-7072	1560	-4036	134	-15416	1376	-8368	823	-2194	1466	129	122	1
-7972	-7376	11888	85	84	128	-15048	-2616	-2480	343	705	-239	-15664	-2544	-1424	480	1691	683	-3208	13584	11800	-383	-4074	3453	-8504	3192	-7448	699	-4809	381	-12680	440	-8904	-30	-1862	1182	126	125	1
-8032	-6624	12304	82	78	137	-16664	-1984	-1424	-373	600	-300	-15840	1824	1112	540	1828	707	-5816	14728	13264	-329	-4654	3511	-7152	3752	-7632	-24	-5397	619	-10480	360	-9632	-1076	-1613	745	126	128	1
-8040	-6820	12228	73	87	149	-15080	-4472	-1080	-968	661	-322	-14264	856	1288	171	2174	783	-8328	15400	14296	-76	-5211	3426	-9776	1944	-7864	-553	-5745	755	-7904	-456	-9376	-1375	-1625	566	127	128	1
-12368	-20476	13044	-112	335	664	-19256	-9184	5704	-1231	94	-350	-14352	-3128	2432	-710	2577	718	-10664	17368	15800	337	-5606	3330	-13496	768	-9440	-552	-6196	881	-4976	-1080	-9224	-1659	-1327	556	128	129	1
-8672	-7244	12356	131	46	187	-15672	-5664	1152	-585	519	-538	-15256	-5768	1424	-1360	2771	517	-11768	17976	16224	427	-5659	3293	-13808	744	-9616	-534	-6262	924	-4480	-1880	-8872	-2350	-1047	452	127	129	1
-8076	-7176	12216	130	27	242	-14232	-6528	-88	-273	1038	-152	-16224	-5024	-3200	-1234	2339	334	-15768	23744	18176	1402	-5659	3261	-17216	-2176	-10296	51	-6483	1271	-4640	-5024	-9320	-2957	-1019	195	131	128	1
-8056	-7892	12552	76	54	374	-15752	-4112	-2208	-286	1238	-133	-18456	-2624	-4288	-738	1635	154	-18752	30936	21888	1149	-5087	3895	-20592	-1072	-14192	353	-6513	1539	-5336	-7752	-7136	-3226	-1197	-211	126	128	1
-7852	-5716	12824	94	263	521	-16264	-3360	-3176	-692	1196	-254	-16416	-3352	-2152	-518	1423	281	-24376	18288	26208	1217	-4353	4846	-28952	-512	-19408	-34	-6586	1994	-6088	-4920	-608	-2674	-1001	-421	130	127	1
-8012	-6728	13796	-52	521	557	-17112	-5184	-2528	-1070	1246	-193	-17088	-4312	-1408	-598	1546	376	-32768	19448	25936	3290	-3388	4961	-28584	944	-21056	729	-6055	1544	-11640	4216	9136	-1252	-1082	264	135	128	1
-8000	-6784	14220	-44	786	710	-17728	-6056	-352	-989	1377	-219	-18328	-4224	512	-485	1352	375	-32768	20448	18600	1595	-3095	3973	-22584	7400	-19416	671	-4890	1602	-24128	9040	20936	507	-1121	1388	151	127	1
-7976	-7072	14728	-12	1225	809	-17728	-5808	-592	-784	1722	-51	-19024	-5184	3760	-621	1270	231	-32768	-7888	8208	764	-2281	2221	-14760	5288	-26288	-1914	-3198	959	-18792	10160	32656	2825	636	1248	123	127	1
-8824	-6096	14640	-30	1765	990	-19248	-3576	-1584	-649	2086	36	-18920	-3608	3904	-855	1223	6	-32768	-7024	-2968	1419	-2132	37	-14624	4352	-25656	-1874	-2901	747	-20080	10960	28080	2127	150	1056	110	126	1
-7900	-5448	15788	-20	2382	1049	-19648	-1736	-2272	-702	2369	102	-18064	-3424	2648	-1024	1139	217	-32768	-984	-1024	-227	-268	-1516	-4408	-776	-21632	1501	1828	710	-18000	10784	10488	2093	45	223	103	125	1
-7660	-5724	15988	-253	3088	1151	-19920	-3160	-808	-624	2627	270	-19528	-4648	2976	-903	756	430	-32768	7304	5064	-1151	1116	-1650	-12128	528	-21464	1389	3517	-254	-10320	6528	1320	1280	475	255	90	125	1
-8504	-8020	15380	-536	3763	1517	-20744	-3096	1256	-577	2949	262	-21024	-5144	7168	-606	-1	417	32767	10656	512	-5187	4418	-3919	-32768	17952	32767	8979	3132	56	-9016	10688	568	1283	-452	-73	161	125	1
-8956	-8028	16484	-759	4604	2051	-23712	-5088	2216	-1077	3259	306	-21264	-9856	11584	-692	-1066	50	-32768	21120	32767	-380	5128	-2704	-8240	4032	-18000	-4739	1776	273	-28216	32767	13664	470	2287	1179	123	121	1
-9016	-14288	17420	-823	6029	2811	-32768	664	7856	-1721	3540	517	-26120	-10144	17504	-1798	-3157	-769	-20632	20088	27456	-18	2918	-2602	-18856	-7928	-22656	-5020	5015	-1849	-24024	-9488	-1744	-4997	2083	-1667	93	125	1
-20228	-13332	20188	-535	7327	4030	-32768	824	3312	-2834	3609	380	-22824	4192	16136	-569	-2457	659	-3432	18320	5672	-420	2550	-1326	-21592	3048	-6992	-3107	3515	-777	-15840	-24360	-20344	-5522	715	-666	203	126	1
-21476	-21208	21788	437	7236	4823	-30400	-11480	3296	-3392	3477	590	-25464	-64	-5296	-565	-1396	440	-32768	25944	31200	-1651	133	-977	-7224	14000	-25616	-4315	2502	162	-11000	-1768	856	-336	-178	366	134	129	1
-27132	-26116	21492	712	7174	4861	-25576	-11040	-3600	-2792	3308	695	-24648	-7064	-13984	-1216	-1510	-600	-7720	2248	17664	-923	-96	-465	-11672	-1792	-17504	-4295	1690	322	-16992	4664	-11464	1830	2206	-89	143	131	1
-14356	-18052	25424	-1539	4851	2486	-19208	-6040	-17296	631	3036	1238	-32664	-3312	-9272	-521	-2645	-1377	-4400	9656	13272	-407	-32	-144	-28976	-13000	-13512	125	1569	-123	-21872	-72	-10984	1878	2555	870	93	131	1
-10700	-32768	32767	1643	-857	-715	-21240	-6000	-4560	567	1025	737	-32168	-1392	-8544	564	-3209	-1295	-3936	10072	13648	-214	9	-69	-18384	-2552	-8088	3876	1311	623	-19256	3464	-3312	1867	1794	619	117	130	1
7056	-4644	21656	1211	-2173	-238	-20368	-3800	-1696	77	-119	113	-32288	2984	-8976	1638	-3258	-1553	-3408	9840	13272	-57	40	-85	-14432	128	-5896	4999	1073	822	-16472	5584	-1856	1615	1743	109	127	129	1
-732	-14356	18120	-718	-3248	-664	-12584	-4376	-8928	2006	-1133	380	-24840	5744	-8168	341	-3063	-1636	-3760	9912	12872	28	58	-89	-17360	9032	-4248	4238	749	872	-14584	8304	-2280	1100	1597	-822	140	132	1
-1396	-16964	14676	322	-4595	-1210	-6872	320	-6792	1605	-2141	107	-20128	4424	-7912	-800	-2597	-1143	-3456	9984	13120	87	82	-101	-15040	11344	-1648	492	544	374	-13832	6568	568	489	1412	-1092	0	132	1
-2652	-9448	12456	200	-5194	-1671	-9760	2264	-6496	276	-3066	-57	-17944	-1144	-7944	-1060	-2416	-1303	-3552	10048	12736	78	59	-127	-14048	7264	-2784	-2016	848	-138	-14544	6096	-544	53	1407	-959	195	133	1
-5872	-9000	11312	-480	-5346	-2018	-10864	-480	-7000	-305	-4129	75	-15088	-1512	-7928	-28	-2309	-1557	-3656	10552	12408	35	63	-148	-17032	4744	-3008	-3183	891	-557	-15768	3600	-16	37	1643	-872	120	132	1
-7364	-8312	10708	-800	-5300	-2262	-8520	1304	-6640	-436	-4792	-49	-13168	1032	-8152	967	-2129	-1327	-3624	10592	12368	-101	63	-165	-17328	-3432	-4752	-2410	579	-129	-15584	2024	480	320	1748	-626	108	134	1
-9136	-8580	11676	-1182	-5087	-2513	-9448	512	-7336	-568	-5287	-234	-10192	3504	-9032	1570	-1902	-946	-3872	9936	12896	-127	100	-160	-16240	-5080	-4192	367	542	222	-14376	744	824	535	1752	-413	109	132	1
-11836	-11320	13660	-1300	-4986	-2844	-11744	-1264	-9000	-163	-5687	-449	-6936	5144	-9552	1249	-1720	-704	-4192	10000	12552	-90	107	-146	-14816	-152	-3360	2160	699	401	-13304	768	-16	696	1989	-512	125	133	1
-14840	-12156	16544	-1439	-4984	-3192	-13112	-2400	-9768	100	-6132	-505	-5144	5064	-9608	846	-1525	-507	-4192	10184	12672	-109	94	-124	-15216	5544	-2848	2200	715	324	-13480	4760	-856	699	2327	-867	152	133	1
-18432	-14080	18336	-1648	-4969	-3496	-14744	-2120	-9296	630	-6375	-768	-4808	3912	-8752	966	-1406	-372	-3872	9944	13016	-130	93	-130	-16544	7408	-2768	843	648	93	-16256	8440	2928	603	2891	-1020	121	134	1
-22536	-17284	19916	-1510	-4865	-3820	-18008	-2120	-10336	1185	-6552	-1034	-4136	5024	-7952	1470	-1321	-174	-3840	10184	12808	-144	109	-194	-16880	5136	-1640	-462	716	-46	-15912	6304	32	691	3019	-892	113	134	1
-27736	-18128	21580	-1158	-4420	-4495	-22120	-3504	-15688	2301	-6663	-1037	-3464	5208	-5720	2034	-1214	105	-3848	10016	13376	-119	131	-257	-15576	1824	-1688	-714	932	-4	-18936	3488	-2056	108	2157	-492	124	136	1
-32768	-6336	22104	-1637	-3316	-5246	-25856	-4344	-17304	2987	-6423	-501	-4880	-2048	576	2218	-1228	-9	-3968	9952	13464	-32	246	-389	-15216	856	-576	-175	1247	48	-18600	5304	3360	-851	1311	-223	71	138	1
-32768	-4016	16888	-1940	-2623	-4922	-26672	-3808	-18392	1861	-5551	60	-11912	-8680	10808	2346	-1412	-1101	-4016	10824	13600	-25	457	-623	-16736	3936	-608	422	1540	113	-16136	8848	6864	-171	1360	-168	150	139	1
-32768	388	4852	-317	-2701	-3660	-16528	-4264	-23272	1145	-4227	-422	-24784	-6872	19456	1242	-1180	-1518	-3744	9824	15352	51	858	-779	-19384	3328	-1584	668	1858	6	-17472	6240	4912	994	1568	-78	123	143	1
-32768	22896	-8264	-535	-2364	-1704	-12016	-4296	-23448	-87	-2664	-506	-22376	424	24984	-509	-43	-175	-3152	11256	16880	117	1204	-994	-20520	752	-2288	728	2120	-139	-19152	2440	3096	1065	1417	-48	119	133	1
-32768	23308	-13732	-1771	-1232	411	-8992	-4424	-23568	-1480	-568	-750	-21472	-3936	13648	-1932	-58	-67	-3360	10184	17712	309	1865	-1117	-20688	792	-3000	682	2423	-232	-19688	4296	3896	1221	1117	-266	123	138	1
-32768	8980	-10652	580	-302	1468	-6816	-5992	-22496	-1521	1529	-271	-17488	-11192	5568	-2667	537	-3	-4016	9648	18192	592	2607	-1362	-22504	816	-2904	266	2743	-415	-20496	5176	5416	1301	862	-333	126	130	1
-32768	5144	-4912	1896	607	1529	-10072	-7472	-22864	-988	3052	88	-8752	-17208	3624	-1608	-1022	-764	-3152	10648	17240	1022	3310	-1768	-23408	-112	-760	2	3105	-557	-21064	7312	9128	1126	244	-326	126	135	1
32767	-32768	22324	4332	3380	1896	-29360	-22704	32767	-5163	1579	324	-968	-9832	-15288	-1910	2330	488	-2200	11384	19824	1733	4010	-2405	-26352	-752	-1160	310	3505	-630	-21104	13784	14624	1250	-1086	-164	127	125	1
-32768	-848	28588	1569	5789	2254	-22640	-15608	-23832	6223	3426	-1273	-32768	-17304	22832	3470	-311	-22	-648	21704	17912	1839	5157	-3476	-32768	-6232	8416	1292	3814	-953	-25680	10912	21192	816	-2012	133	130	130	1
-17592	748	25300	759	2922	2118	-16584	26568	-12856	5738	4050	1380	-23656	13824	-4568	4868	2423	680	-6880	30240	25000	1375	6426	-4950	-32768	-328	5360	2597	3964	-615	-25904	-648	19904	-628	-2722	-503	107	134	1
-16600	-15060	12572	351	2455	1084	-22344	-760	-12984	1104	3089	65	-15752	16352	-11248	2453	1642	365	-6040	32767	27928	-71	6658	-5718	-32768	14920	4328	2340	3917	-838	-22824	-408	1896	-39	-2167	-486	118	122	1
-17224	-2584	15484	913	12	585	-12416	-9488	-14256	-146	1932	-1154	-9216	6824	-14200	-1127	1481	49	-10224	30008	25024	-357	6792	-5900	-28344	11568	2624	256	3708	-1042	-28944	10504	-15768	1418	-1589	243	130	126	1
-11340	-5680	13780	560	-32	220	-20160	-3880	-14304	393	1631	-1093	-15336	-10344	-13352	-2485	1960	221	11992	20056	32767	850	4667	-3792	-22464	4568	-20592	-2026	3412	-896	-31432	8408	-10088	829	-2624	1117	129	124	1
-8452	-5688	13596	195	20	16	-21304	40	-8656	89	1254	42	-20512	-4552	-9088	-372	1844	-156	5816	32767	32767	-945	-1016	-139	-18672	4584	-6256	-2586	1637	-1120	-32768	2600	-4928	-980	-3309	1277	124	120	1
-7188	-6212	13416	27	72	-6	-14800	720	-4872	-1423	914	-290	-17728	4528	-1912	422	1774	-68	14456	8624	15504	-2292	-1878	-105	-25224	-3728	1344	-75	18	-456	-32768	984	-9736	-1715	-3512	1364	121	125	1
-7392	-6752	12832	-104	165	19	-15680	-1136	-4288	-2607	548	-527	-17064	1024	-1096	-640	1773	337	8320	11168	13304	-800	-2446	434	-9808	-1736	-8240	-546	-1408	-305	-24896	-952	-7400	-943	-3413	1954	131	126	1
-7428	-6776	12568	-178	218	35	-16880	-7592	-3056	-2242	332	-638	-15576	-2664	-1360	-1378	1593	979	8792	13168	12320	-738	-2540	666	-2288	-5096	-6176	624	-2062	-523	-19848	-1920	-8728	253	-2839	1752	121	128	1
-7452	-7368	12156	-206	223	64	-15808	-8384	-1688	-628	515	-385	-14016	-4856	-1720	-1130	1558	997	4344	7024	10024	-1103	-3058	2927	-7768	-1328	-5680	1390	-2984	-336	-17584	168	-8768	1066	-2527	1671	138	127	1
-7460	-7724	11776	-139	205	87	-15064	-6784	-1440	502	654	-31	-14456	-5464	-920	-658	1525	830	504	9376	10912	-466	-3320	3382	-10144	1760	-6624	1033	-4048	-160	-15168	1576	-8792	539	-2231	1663	138	124	1
-7484	-8212	11212	79	164	150	-14184	-3112	-1032	705	614	-34	-15040	-1968	-328	-284	1547	726	-2544	11032	12712	-475	-3746	3480	-7064	1352	-7424	359	-4799	125	-12104	728	-9472	-449	-1936	1279	130	124	1
-7624	-8252	11228	120	150	167	-14424	-2560	-1288	638	615	-67	-15096	528	624	-245	1741	618	-5216	11984	14192	-389	-4401	3373	-6184	2552	-7360	-264	-5403	339	-10496	288	-9744	-1637	-1749	731	123	126	1
-7828	-6848	12296	252	44	207	-15464	-3112	-1024	-628	599	-282	-14616	288	1368	-228	1976	672	-5888	12096	14536	-358	-4519	3339	-8856	952	-8584	-482	-5762	484	-7896	-1640	-9504	-2034	-1773	433	123	129	1
-8016	-6812	12172	233	12	222	-14760	-4512	-1128	-803	730	-231	-14080	-3064	1816	-345	2365	758	-9064	14392	15696	-135	-5280	3152	-11776	-504	-9576	-370	-6222	635	-5480	-3432	-9360	-2092	-1614	307	127	130	1
-7976	-6860	12332	218	-12	229	-14768	-4264	-1104	-689	879	-221	-15016	-6440	2968	-995	2754	687	-13344	16264	17880	868	-6116	2739	-15600	-1104	-10048	64	-6599	919	-4192	-3920	-9240	-2311	-1031	134	128	129	1
-8284	-6468	12540	193	-1	215	-14688	-4440	-448	-556	1014	-198	-16272	-4784	-344	-947	2612	602	-16384	21896	19344	1439	-6162	2723	-17032	-3240	-11048	582	-6615	1169	-4720	-5720	-10272	-2512	-991	-225	128	130	1
-7752	-6804	12568	181	9	255	-15000	-4392	-192	-418	1188	-203	-18272	-1368	-2664	-469	1824	276	-18152	30320	22032	1148	-5594	3402	-20152	-632	-14288	1046	-6662	1455	-5240	-8440	-8928	-2691	-1013	-519	127	128	1
-7780	-7304	12760	136	35	368	-15232	-4400	-2080	-255	1323	-227	-17328	-3056	-1288	-158	1466	255	-22952	18928	26336	1111	-4569	4596	-28536	792	-17712	482	-6799	1944	-6208	-5064	-2224	-2294	-877	-580	131	128	1
-7844	-6648	13320	-6	195	530	-16824	-5008	-2960	-334	1396	-235	-16320	-5496	-1664	-377	1591	448	-32768	19024	27432	3018	-3588	5018	-29568	960	-16608	553	-6836	1900	-10752	4264	6536	-864	-1102	43	149	125	1
-7360	-3700	14644	66	534	678	-17992	-2960	-1928	-592	1448	-285	-17360	-5168	-312	-460	1351	480	-32768	20432	22864	1666	-3297	4172	-24736	7184	-17376	602	-5093	1354	-22352	10864	20904	919	-1445	1284	166	124	1
-7756	-7332	14784	-67	956	777	-18584	-4352	-1232	-928	1728	-64	-19360	-2880	2496	-339	1302	166	-32768	-4392	11224	425	-2590	2611	-16576	5568	-24648	-2126	-3754	858	-19688	12408	30728	2708	644	1205	113	126	1
-8052	-5744	15276	53	1552	862	-19440	-2672	-2256	-897	2027	-86	-19312	-1296	3408	-682	1266	77	-32768	-10664	-2960	1577	-2512	273	-10040	-6104	-25488	-1043	-1266	278	-22200	8624	32767	1303	-79	1149	113	126	1
-7496	-5212	16520	-6	2248	912	-20240	-2088	-2680	-574	2284	87	-19152	-1280	3520	-743	1269	107	-32768	-10976	-3912	1538	-2365	-80	-2992	-2016	-20312	1750	1470	642	-18504	8104	12208	1753	-74	3	99	126	1
-7776	-5740	16340	-177	2994	931	-20440	-3176	-2056	-224	2558	258	-19536	-5400	1368	-762	991	552	-32768	8496	4776	-1292	846	-1733	-10152	1416	-23272	1974	3528	-206	-11128	5456	2760	1881	392	139	97	126	1
-8288	-7084	15144	-424	3650	1257	-20576	-3504	0	-162	2839	299	-20144	-6112	4408	-470	450	555	-23224	7752	5944	-639	1475	-1296	-17384	3008	-17736	1537	3713	-386	-8384	5880	11096	1965	-250	10	178	126	1
-9024	-7952	14740	-696	4318	1821	-21416	-1512	1832	-677	3121	252	-20272	-5864	9904	-266	-449	379	32767	-8024	6200	-3016	4274	-3356	-32768	14608	32767	9345	835	-473	-8624	11888	-16816	1701	1772	-1311	129	123	1
-6988	-9680	16956	-1005	5332	2554	-26488	-3368	2216	-1602	3312	340	-21288	-9480	16720	-845	-1833	-103	-32768	13776	32767	-59	4994	-2746	-4048	23232	-32768	-5027	1203	645	-32768	27712	31536	-2243	441	2641	106	126	1
-11232	-15420	16988	-739	6809	3466	-32768	8896	8600	-2782	3404	407	-20864	1616	13664	-947	-2360	170	-14192	25968	17040	-50	2781	-2670	-28688	-8600	-13520	-5351	4732	-2059	-17000	-18992	-4624	-5349	2735	-1678	104	124	1
-27020	-18372	27448	180	6946	4399	-30784	-10920	3264	-4039	3430	581	-24800	3384	6848	-974	-1899	773	-9304	6000	21056	-343	2729	-1303	-19576	1128	-10312	-3499	2881	-35	-17192	-21976	-6704	-4313	288	97	165	127	1
-22372	-18752	30012	1261	6791	4955	-27656	-17600	4312	-2932	3248	843	-25480	-9512	-11400	-1789	-866	-184	-6728	10576	15728	-1276	343	-585	-9144	3312	-14136	-3382	2229	309	-6904	-1784	-10360	2068	516	-197	124	133	1
-29720	-22124	29760	52	6397	3844	-24240	-10096	-11632	-371	3512	1111	-28568	-7528	-11880	-243	-2041	-1076	-8272	12896	14960	-635	42	-267	-17896	-3800	-13728	-1951	1664	427	-13784	7528	-10784	3133	2348	85	148	132	1
-32768	-32768	32767	86	2221	1833	-15880	-4448	-23424	2082	2626	1398	-31712	-1584	-8736	860	-2948	-1210	-4400	11192	12848	-285	49	-135	-22488	-7232	-10864	2081	1497	280	-22808	5688	-9944	2558	2369	1006	101	133	1
1292	-24200	27036	2330	-2017	108	-23768	-4600	2728	196	567	516	-32768	2360	-8288	1926	-3269	-1133	-4120	10520	13032	-170	52	-123	-16784	-2384	-8760	4654	1217	706	-18008	5680	-4800	1846	1557	449	123	131	1
1916	-8752	18640	297	-2697	259	-14768	-4112	-7200	1523	-426	358	-28976	4520	-9416	1120	-3106	-1713	-3984	9864	13320	-6	85	-115	-16472	5008	-4416	4919	1030	825	-15096	6240	-1864	1126	1667	-208	131	129	1
-792	-20176	14944	69	-3888	-495	-10008	-4008	-7392	1922	-1470	479	-22768	4872	-7992	-336	-2890	-1365	-3848	9896	12968	168	122	-125	-16488	11832	-1776	1893	533	700	-15736	6024	-1456	589	1457	-1100	155	132	1
-1120	-14192	11752	732	-4748	-1184	-6552	2096	-6368	727	-2495	182	-18896	648	-8696	-992	-2424	-1237	-3648	10408	12584	211	112	-139	-14088	8776	-3584	-1161	800	188	-14408	4992	-1448	517	1499	-1109	124	132	1
-3216	-10444	9796	-105	-4915	-1903	-6728	2480	-6192	523	-2649	179	-15456	-2104	-8688	-626	-2292	-1530	-3848	11336	11784	142	65	-170	-16648	7376	-3184	-2891	883	-449	-14768	5568	-616	302	1638	-1042	145	132	1
-7140	-12892	9504	-389	-4969	-2447	-9928	-2648	-7992	-515	-4381	141	-13240	-544	-8960	371	-1964	-1508	-4032	11208	12160	-15	51	-186	-17544	-584	-4400	-2767	537	-243	-15424	5560	-1168	183	1909	-716	133	134	1
-9008	-11092	9816	-472	-4993	-2921	-8264	-2696	-7520	-363	-5008	5	-11800	632	-10256	1095	-1711	-1230	-4152	10112	12832	-38	73	-171	-17344	-5912	-4616	-335	439	198	-14952	1656	624	0	1914	-429	104	132	1
-11100	-12236	10304	-951	-4879	-3267	-6584	-3944	-8808	318	-5621	-335	-9248	2344	-10096	1503	-1554	-1032	-4144	10200	12544	14	84	-154	-14688	-776	-3616	2204	619	462	-18480	-5128	-952	34	2017	-587	113	135	1
-15188	-14540	12560	-1027	-4845	-3557	-11176	-4912	-10424	1050	-5843	-370	-8104	5112	-10000	1754	-1411	-1011	-4208	10208	12152	2	74	-127	-14616	5168	-2816	2389	669	421	-13240	5528	400	85	2351	-763	129	136	1
-17432	-13776	14556	-1318	-4809	-3851	-13328	-3504	-10608	1325	-6230	-417	-6320	4880	-10896	1775	-1273	-560	-4464	10048	12488	-27	76	-123	-15568	7608	-2368	1009	658	195	-14968	7912	2360	430	2675	-691	136	135	1
-21280	-17128	16404	-1636	-4663	-3950	-16144	-2848	-11816	1893	-6508	-701	-4296	5920	-9096	2250	-1274	-248	-4104	10264	12936	-44	90	-157	-15984	4936	-1008	-369	790	23	-15816	6016	-352	448	2568	-488	123	136	1
-28808	-21576	19380	-1453	-4456	-4288	-20520	-2768	-14584	2092	-6699	-851	-3712	7848	-7048	2238	-1361	95	-4136	10016	13032	-6	130	-197	-15328	2432	-1576	-818	1007	2	-18664	4072	216	90	2037	-160	122	135	1
-32768	-13884	19932	-1735	-3847	-5078	-23416	-4064	-16776	2155	-6600	-779	-3664	6024	-1704	2557	-1537	294	-3656	10536	13016	89	211	-288	-16208	728	-424	-406	1241	65	-18080	4864	3408	-288	1474	-112	116	137	1
-32768	-3880	17404	-2552	-2903	-5022	-26824	-4568	-20000	1053	-6088	-478	-7528	-5152	5296	2023	-1496	-491	-3280	11192	13176	164	357	-433	-16464	2008	-1080	330	1461	186	-15784	5864	4776	94	1308	-122	124	136	1
-32768	-1892	11648	-2250	-2586	-4233	-20512	-1936	-18576	-409	-5018	-714	-18328	-7632	14336	650	-1154	-1771	-3440	10200	14216	217	719	-563	-17624	4312	-1544	665	1754	119	-16000	4792	4400	921	1431	-76	145	140	1
-32768	-1172	10248	-1983	-2605	-4016	-14120	-8544	-22744	-1233	-3868	-899	-23528	-3080	21248	-1164	-158	-1003	-4296	11920	14528	483	992	-803	-19792	3400	-3248	553	1982	34	-17968	2784	2160	1343	1419	58	117	137	1
-32768	24320	-9156	-1845	-2354	-191	-12544	-4008	-22488	-1831	-1977	-1186	-23360	-2056	21552	-1525	56	-812	-3776	10224	16168	494	1559	-949	-20048	392	-3160	602	2194	-7	-18608	5304	2048	1514	1271	-126	118	138	1
-32768	17184	-13172	-1147	-1213	1115	-6888	-4984	-19424	-1558	446	-638	-18320	-10712	11672	-2704	104	-200	-4104	9872	16888	883	2218	-1139	-21024	448	-3240	440	2484	-145	-19920	6112	3504	1244	1015	-169	127	128	1
-32768	5440	-6504	1673	265	1576	-8456	-3776	-21552	-141	2376	54	-14024	-12720	3856	-2167	901	-531	-3328	11368	16592	1254	2827	-1491	-22272	1664	-1464	220	2805	-256	-20256	7664	7608	857	564	-241	121	127	1
-32768	5116	-4892	1889	434	1532	-13520	-3544	-21712	663	3497	229	-3552	-11808	-6008	-1078	-37	-639	-2552	11792	16464	1817	3492	-1989	-23784	-656	984	189	3198	-359	-21488	8784	13832	551	-496	-84	125	120	1
16356	-32768	24480	3588	3473	2429	-23336	-25576	32767	-3328	2113	138	4200	-2560	-26040	-492	3297	1575	-696	12912	17688	2580	4401	-2816	-29272	-6640	4312	791	3651	-432	-20616	6880	20840	939	-2238	145	125	132	1
-31932	23760	22900	1762	5304	2801	-32768	-8560	-14040	6836	3190	-1647	-32768	-32768	21552	2714	-416	-262	-2096	18864	20296	3100	6121	-3965	-32768	-11376	4600	2504	4004	-541	-24320	-4824	23888	453	-2830	-16	119	129	1
-14316	896	21668	1078	2441	2366	-20472	29672	-14624	6017	3694	2170	-32768	-29816	30944	4489	-633	-1053	-19248	26952	24024	2820	7257	-5142	-32768	1760	2808	3653	3701	-327	-22888	-7688	10560	1167	-2174	-1033	119	123	1
-17672	-12468	14964	925	2059	977	-23272	-1760	-6744	419	2956	-137	-18408	21488	-11208	3729	1988	978	-12856	26016	22776	989	6979	-6052	-29600	14920	-1728	1725	3682	-742	-27136	6952	-13792	3404	-1499	-595	113	127	1
-13096	-3700	14804	1163	474	790	-8744	-9712	-12416	-161	1747	-1345	-6632	8600	-11904	-634	1283	356	-14472	32767	29336	1299	6441	-5718	-28016	7784	5008	1089	3735	-835	-30272	15408	-14520	2603	-2053	531	133	125	1
-11948	-2776	15416	793	-108	346	-14920	-6128	-12952	834	1872	-1105	-7120	-7488	-11480	-2777	1856	279	-27696	32767	32767	3169	3330	-3947	-15328	2464	-32768	-3191	2551	-981	-32768	12184	-5416	169	-3052	1074	129	128	1
-8712	-6292	13536	348	28	105	-25080	-2464	-10144	1216	1765	261	-22136	-7240	-12848	-1544	1769	-729	11216	31040	30448	-2830	-2716	92	-22176	208	2536	-510	1106	-839	-32768	4296	-8264	-2367	-3369	835	120	130	1
-7724	-6884	13092	221	19	69	-16528	2984	-5848	-1394	875	-259	-21032	560	-4208	-41	1836	-526	7728	6424	17440	-1983	-4087	-668	-20104	800	-3648	447	-760	-124	-31016	32	-7512	-1879	-3670	1145	127	124	1
-7596	-5948	13260	51	123	44	-15560	696	-4744	-2992	598	-584	-17216	4256	-1728	-496	2005	144	7664	19960	12168	-1490	-5168	-2	-8048	2840	-6496	-326	-2056	-198	-23488	-1816	-7752	-936	-2866	1494	119	130	1
-7420	-6252	13000	-128	237	46	-17152	-6576	-3960	-2764	323	-742	-16840	-168	-3536	-1276	1836	1043	6040	16296	8936	-2723	-5267	1332	-6864	-4096	-6232	570	-2687	-243	-20376	-1632	-7904	781	-2877	1296	123	124	1
-7596	-6512	12532	-215	247	52	-15680	-12288	-3016	-541	454	-518	-14856	-3592	-3152	-1160	1769	1296	2408	9872	7880	-1577	-5201	2499	-10736	-936	-6136	1351	-3762	-123	-17192	3248	-8024	1298	-2560	1538	125	124	1
-7800	-7896	11672	-151	228	96	-14160	-8248	-1280	1455	689	-7	-13976	-5720	-2440	-463	1799	1037	-184	14880	7432	-634	-4747	3124	-11160	1216	-6920	1512	-4537	-80	-13624	4296	-8624	349	-2134	1538	126	126	1
-7852	-7640	11628	77	147	150	-14768	-2144	-1688	1083	700	-174	-15160	-3736	-648	11	1879	602	-4296	16848	10312	-525	-4362	3650	-9664	3120	-8304	1264	-5288	249	-10544	3016	-10416	-830	-1772	1326	132	120	1
-8040	-6652	12400	161	116	177	-15352	40	-504	-170	607	-277	-14616	-968	2768	215	1861	539	-7904	17544	12744	-223	-4423	4104	-9656	5824	-8728	551	-5743	595	-8496	1240	-10304	-1628	-1617	883	129	127	1
-13844	-5916	13200	-12	35	-245	-21720	2024	-28712	-3913	1622	1514	-13568	-3504	2368	176	2064	582	-10152	16928	16352	-53	-4631	4231	-12600	5304	-11184	-523	-5992	667	-6496	-800	-9832	-1801	-1474	676	110	128	1
-7776	-6928	12220	134	46	161	-12152	-2832	-744	-2588	16	-1067	-15936	-5800	2240	-329	2308	480	-12952	21504	14848	166	-4949	4102	-15352	3280	-10424	-979	-6239	734	-6536	-1104	-9448	-1822	-1393	629	124	126	1
-8476	-6812	12356	149	93	173	-12584	-10256	-1872	-512	1942	-226	-14856	-6328	-1440	-393	2310	357	-14200	23728	15880	504	-5030	3820	-17360	2576	-11920	-1436	-6439	942	-6312	-4120	-8672	-2525	-1267	350	126	129	1
-7828	-7148	12404	268	86	236	-14552	-7920	-2480	685	1331	-216	-16880	-2232	-4120	-615	1979	120	-16952	30040	18328	723	-4784	3855	-20176	600	-14304	-1559	-6615	1035	-6344	-7104	-7672	-2773	-1179	-3	126	130	1
-7860	-6304	12960	190	168	287	-16680	-1600	-4288	886	1561	-4	-17224	568	-3296	-651	1588	164	-23016	23712	22400	873	-4313	4511	-23888	-1744	-18864	-1420	-6865	1235	-5968	-4936	-2128	-2969	-1264	-205	128	128	1
-7288	-7172	13776	50	415	392	-17736	-1880	-2152	-342	1308	-88	-17184	-1224	-1912	-875	1462	340	-31832	22096	23168	2587	-3384	4804	-27080	-2792	-20336	537	-6309	1035	-5968	3616	4448	-2258	-978	393	135	127	1
-7948	-7012	13788	-1	732	558	-18368	-3416	-1696	-1602	1212	-427	-18104	-2960	-600	-886	1366	305	-32768	26008	20264	1236	-3092	4295	-22832	3944	-19824	1881	-5194	1346	-6632	5536	4656	-2056	-818	627	126	127	1
-7880	-7760	14588	6	1049	693	-16952	-8336	-872	-1746	1305	-313	-17464	-4488	1904	-1323	1380	93	-32768	4128	10896	558	-2808	3039	-18232	7208	-21144	149	-3965	1486	-22280	8888	25768	210	-40	1069	133	129	1
-8576	-7280	14452	-19	1508	853	-18376	-5864	-1064	-1332	1681	-141	-19152	-5152	2192	-1647	1392	-147	-32768	-1784	1072	1465	-2420	1059	-17440	7496	-23112	-120	-3656	1357	-21360	4848	28952	622	192	967	101	126	1
-8552	-6192	15460	-51	2071	1012	-19152	-4376	-2032	-878	2093	6	-18632	-6600	656	-1323	1230	39	-32768	-5208	-3608	761	-1047	-409	-4832	200	-20936	-330	294	583	-20040	6872	20104	960	146	492	107	126	1
-7984	-5784	15924	-128	2696	1109	-19832	-3992	-2112	-509	2397	114	-18536	-6744	1240	-836	967	313	-32768	3656	1680	-904	1064	-1002	-5976	-2672	-21936	-99	2599	-119	-14328	7544	9464	1547	261	328	102	124	1
-8408	-6112	15140	-334	3332	1297	-19904	-3312	-344	-273	2678	208	-19472	-5128	4416	-438	588	392	-31768	5528	6512	-877	1935	-968	-13536	-184	-20832	162	3642	-445	-12648	4744	13832	1791	269	267	130	123	1
-9580	-7668	14148	-813	4005	1769	-20552	-3264	1032	-457	2982	193	-20984	-3656	9352	-232	-161	307	32767	32767	8328	-5841	7237	-1922	-17408	8232	-7888	601	3729	-5	11800	-904	-24528	2311	3301	-1425	88	125	1
-8856	-8380	15060	-1112	4868	2459	-25224	1264	2200	-1347	3268	14	-22312	-3936	14552	-535	-1603	-3	-32768	-9840	19304	1191	6539	-3335	-32768	-26824	-23232	-2738	2094	489	-32768	32408	6656	1107	1898	332	96	121	1
-10388	-10724	18208	-949	6500	3094	-32768	6440	6496	-2801	3354	225	-20784	2232	17504	-1596	-2900	-424	-32768	16936	21552	992	6508	-3729	-8792	-18488	-4064	-4613	2309	-370	-26344	7336	16704	-5066	1188	707	126	128	1
-25572	-13448	22636	-889	7415	3952	-31224	-2728	2224	-3811	3391	220	-23152	7144	12984	-2115	-2108	679	-14176	27768	11400	-460	2615	-1759	-29408	-632	-4728	-3146	3910	-1306	-28400	-16776	-8072	-4196	2041	-1209	152	127	1
-25112	-14272	25544	500	7230	4766	-28408	-15624	4024	-3869	3259	380	-24328	-6344	-8032	-3230	-844	140	-18536	15304	25568	-1285	593	-1058	-13280	6784	-15040	-3042	2804	293	-12328	-9168	-8448	432	174	851	119	130	1
-30184	-21312	28500	-1032	6578	3523	-26536	-9536	-11072	-1688	3798	906	-29288	-10552	-14120	-1616	-1597	-1210	-7968	12032	15024	-900	132	-424	-10784	3120	-14872	-2908	1844	528	-6112	6624	-10648	2851	2292	-451	119	134	1
-18536	-32768	17880	-607	4078	2631	-19416	-3568	-25096	1400	3028	1172	-31880	-2432	-6976	359	-3110	-1262	-4984	11096	13160	-412	23	-185	-22400	-9496	-14056	-988	1276	143	-21320	9824	-14128	2161	2523	635	132	133	1
1084	-24420	29056	2092	-1118	-165	-23800	-3360	992	184	1159	187	-32768	584	-8888	1712	-3339	-1051	-4424	11064	13336	-230	29	-107	-18896	-4760	-9360	3461	1370	525	-21088	4832	-8016	696	1922	393	117	129	1
1256	-9992	20412	-77	-1863	5	-16680	-3192	-7944	1179	-273	233	-30648	4912	-9408	1261	-3235	-1775	-4008	9832	13456	-59	63	-90	-18968	2632	-7360	4658	1120	675	-15880	2744	-2448	351	1754	80	131	129	1
-156	-17816	16968	-243	-3325	-537	-9592	-3528	-7648	1588	-1287	229	-24544	6568	-8080	-113	-2954	-1322	-3824	9936	13272	112	100	-98	-17640	8432	-2952	2777	624	790	-16328	2560	-1744	222	1876	-702	141	130	1
-960	-11672	14156	192	-4464	-1016	-6360	1664	-6336	860	-2268	-127	-19744	2792	-8888	-956	-2539	-1050	-3928	9976	12760	166	95	-129	-14128	7528	-1840	-118	535	388	-16216	1384	-760	397	1863	-1142	195	130	1
-3840	-9256	12932	-348	-5110	-1457	-10096	320	-6744	-272	-3299	-94	-16312	-896	-8240	-930	-2391	-1376	-3736	11008	12344	167	55	-181	-14832	6320	-1928	-1923	753	-147	-14160	3544	-464	283	1840	-1090	165	133	1
-6472	-9444	11632	-662	-5613	-1887	-9176	56	-7016	-668	-4236	-203	-13512	-368	-8208	-234	-2138	-1443	-3824	11128	12040	28	49	-200	-17848	1016	-3696	-2213	612	-86	-13896	4464	-1032	288	1856	-1034	132	134	1
-6388	-9208	11272	-688	-5658	-1940	-7920	648	-5736	-952	-4877	-334	-11264	1064	-9344	438	-1887	-1300	-4056	10240	12528	-7	71	-231	-17808	-3872	-3536	-926	495	260	-15576	1344	1600	-112	2136	-510	135	134	1
-8836	-9340	10900	-1320	-5455	-2367	-9240	-1248	-6960	-714	-5284	-434	-8616	3016	-9000	752	-1682	-1123	-4400	10120	12664	22	109	-235	-14840	-2064	-3240	1260	580	442	-13320	1200	2608	-277	2179	-599	102	134	1
-12860	-12632	12812	-1360	-5335	-2799	-10976	-1752	-9400	-114	-5680	-633	-6856	4120	-10000	827	-1481	-919	-4568	10112	12480	36	125	-197	-13768	3744	-1960	2069	747	510	-13720	5680	3336	159	2405	-489	124	134	1
-14560	-12324	15048	-1535	-5186	-3251	-12224	-2856	-9512	323	-6163	-784	-5568	4096	-10360	919	-1340	-708	-4576	10608	11880	-19	124	-160	-14760	8864	-944	1096	851	270	-15008	9072	728	772	2547	-429	123	134	1
-17412	-14396	17012	-1851	-4873	-3557	-14968	-2552	-9112	1013	-6422	-970	-4464	3640	-9552	1414	-1244	-469	-4288	10896	12312	-104	110	-199	-15664	7112	-1104	-435	994	48	-17520	6832	-1528	573	2255	-294	120	135	1
-21784	-18420	19760	-1698	-4477	-3860	-19640	-3168	-12248	1757	-6639	-1191	-3728	5112	-7952	1889	-1234	-176	-4064	10744	12696	-82	131	-263	-16336	2680	-2376	-962	1183	-10	-18000	3864	32	157	1671	-4	121	135	1
-28832	-17704	21072	-1370	-3838	-4469	-23800	-4288	-13712	2548	-6790	-999	-4312	4472	-4984	2238	-1468	134	-4104	10064	13248	23	216	-385	-17248	304	-2048	-282	1339	96	-17136	4072	1232	339	1545	-87	128	137	1
-32768	-6140	20504	-1855	-2780	-4796	-25584	-4928	-18248	2550	-6409	-627	-5056	-2744	672	2368	-1357	-114	-4008	10312	13752	28	485	-573	-17272	816	-832	489	1462	192	-16816	4472	2248	520	1437	-94	131	138	1
-32768	-5220	16324	-2452	-1930	-4606	-25856	-3032	-18776	1078	-5546	-187	-12616	-9432	9864	1637	-1201	-1412	-4768	10352	13840	263	725	-677	-16672	3480	-2616	849	1736	184	-16272	4776	2968	873	1338	-139	112	142	1
-32768	-1108	5212	-809	-2353	-3929	-16816	-4944	-26840	525	-4181	-797	-26088	-5936	20896	625	-1105	-1765	-4696	10672	15296	127	1146	-881	-20088	3632	-2520	664	1974	85	-18536	3736	2816	1329	1407	-37	128	145	1
-32768	27032	-9288	-1364	-2086	-2262	-13440	-3824	-24408	-1171	-2679	-949	-23584	-1656	23216	-1195	200	-271	-4664	9792	16368	331	1661	-1076	-20648	792	-2736	430	2183	-48	-19288	4728	3528	1371	1287	29	114	140	1
-32768	25860	-16992	-2576	-957	-100	-6184	-5224	-22640	-1919	-245	-959	-21152	-8488	13856	-1941	57	192	-3752	11376	17120	726	2327	-1286	-21720	376	-2912	296	2550	-206	-20128	7192	3808	1462	1142	-109	127	132	1
-32768	8232	-12272	1188	75	1525	-6392	-6832	-21432	-911	2079	-106	-14136	-14272	5984	-1966	940	-131	-3784	10184	16952	1181	3011	-1599	-22760	272	-1688	167	2854	-339	-20728	7672	3952	1438	1080	-137	122	126	1
-22796	-12532	3608	4903	2148	1697	-10312	-10648	-23584	196	3799	256	-4344	-15808	1136	-878	-498	-885	-2984	10976	16608	1883	3675	-2159	-23472	-1960	792	209	3265	-433	-20648	9048	12448	494	-475	-226	128	127	1
31228	22720	32767	3674	4405	2896	-32768	3184	16576	3393	2135	-271	-15816	-22776	-11248	-1201	1989	289	-568	13208	18512	2644	4813	-2886	-32648	-3200	2328	912	3693	-694	-20488	10120	14296	476	-829	-200	127	122	1
-32768	12504	32767	2080	3665	2587	-25400	-1048	-11896	7644	3787	403	-32768	-8200	16136	5567	-53	-316	-3568	23320	21616	2781	6270	-4122	-32768	-8840	10016	2622	3637	-689	-25280	296	20656	424	-2904	-79	122	123	1
-22288	-16800	11180	932	2338	1922	-19912	19736	-14432	566	3997	916	-22304	28784	-14600	5772	2482	1185	-20136	32767	30088	1747	6984	-5074	-32768	7824	2264	3040	3746	-617	-24408	-3168	20296	476	-2773	-346	114	122	1
-5156	13984	27936	1090	134	558	-16464	-8344	-20736	329	2738	-1056	-13512	12208	-21600	1033	1401	125	-5864	22528	27024	-333	6968	-5693	-31864	14944	1144	763	3526	-1106	-28336	7080	-14120	2316	-1306	-265	122	121	1
-6820	-1688	16548	589	-93	224	-16040	-4400	-16392	2350	2111	-1083	-12600	8776	-19552	480	1343	191	-8304	31120	29040	1200	6082	-4871	-26608	4648	-1944	-540	3656	-1094	-31152	11440	-11920	1424	-2152	972	134	128	1
-7380	-5896	14616	200	43	64	-19728	4728	-10128	887	1503	-78	-18696	-3128	-15104	-2085	2040	220	-30936	32767	32767	1500	1486	-2414	-14960	5760	-32768	-4646	2489	-1154	-31416	3960	-4544	-408	-3204	1017	128	130	1
-7480	-7656	12748	80	75	69	-18752	256	-7448	-2055	1001	-289	-18440	-1520	-7224	-1239	1783	-446	10416	22752	25232	-2629	-2317	-33	-25184	-2400	3496	-427	1088	-685	-32768	568	-7336	-1866	-3700	898	124	123	1
-7084	-6016	13448	-10	129	73	-17168	-328	-5960	-3574	546	-717	-17040	1360	-1312	-909	1891	-350	6544	6576	16696	-1244	-3671	-478	-16360	-456	-5736	206	-906	29	-26952	-1248	-6792	-1246	-3567	1458	126	130	1
-6912	-6680	13020	-160	197	72	-16624	-8696	-2304	-2960	340	-681	-18184	-176	-3760	-1617	1913	702	8304	19304	10824	-955	-4571	405	-7376	-832	-6152	557	-1865	-150	-23200	-1704	-7112	62	-3065	1651	122	132	1
-7056	-6916	12920	-207	209	61	-14168	-14296	-2144	-403	490	-453	-16152	-6120	-3504	-1579	1812	1408	5376	13424	9296	-1969	-4523	1580	-7632	-4696	-5952	1762	-2514	2	-20160	-456	-7776	1376	-2881	1498	129	129	1
-7724	-8148	11804	-86	181	109	-13392	-7952	-2016	1509	821	99	-12536	-8976	-3200	-583	1766	1216	1608	9824	9864	-917	-4561	2597	-11280	48	-7392	2117	-3519	216	-17408	3008	-8304	1333	-2565	1503	132	128	1
-7348	-7144	12708	53	131	121	-16456	-2544	-1848	1248	806	-63	-14208	-6376	-504	354	1763	934	-936	13960	9832	-352	-4500	3175	-10368	1608	-7360	1770	-4404	233	-14672	3184	-8752	279	-2291	1396	131	129	1
-7416	-6312	13052	32	142	109	-16880	456	-1232	103	686	-214	-15928	-832	1648	902	1765	806	-4320	13432	12200	-262	-4624	3489	-8152	2144	-7408	1189	-5160	622	-12096	1624	-9656	-936	-1999	1009	129	129	1
-7592	-6492	13008	-18	161	105	-15528	-2200	288	-1090	719	-300	-16024	2072	2856	660	2085	761	-6640	13912	13768	147	-4962	3604	-8800	2808	-7176	431	-5597	952	-9544	-448	-10208	-1512	-1910	653	124	131	1
-7308	-3604	12868	-97	163	-60	-2488	-3848	-16088	-2519	213	2085	-14440	-2264	3856	-292	2425	654	-8464	17704	15576	403	-5252	3505	-11368	1416	-9368	-70	-5914	1043	-6728	-2216	-10856	-1490	-1684	546	133	128	1
-6840	-8220	11532	73	68	175	-12768	-4728	-4640	-1232	1492	-1499	-14472	-6136	1736	-1062	2554	407	-11464	17936	17352	536	-5529	3432	-14608	584	-10424	-156	-6370	1246	-5080	-2144	-10120	-1650	-1418	443	137	130	1
-7676	-7948	12348	81	51	292	-12920	-8200	-2328	333	1585	48	-15968	-6704	-3688	-850	2179	367	-11680	18136	17312	617	-5571	3424	-16408	-384	-10080	-339	-6586	1358	-4280	-3512	-10272	-1953	-1206	230	126	133	1
-7640	-6480	13060	323	184	458	-16200	-4240	-4200	546	1404	-189	-17976	-2488	-5336	-350	1726	267	-16160	27888	20960	806	-5145	3929	-19008	-616	-13480	-636	-6771	1426	-4064	-6288	-9048	-2340	-1094	-71	128	133	1
-7128	-6744	14024	165	398	555	-18856	-2432	-5072	-45	1298	-109	-17800	-136	-4024	-286	1648	269	-22248	22704	24184	1207	-4411	4820	-25000	-1072	-16432	-867	-6966	1490	-4232	-4136	-4624	-2449	-1228	-259	131	132	1
-7368	-5576	14740	82	765	582	-19296	-1408	-3520	-1000	1177	-208	-19352	-520	-2416	-553	1688	423	-32768	24104	25584	2267	-3589	5129	-28904	-632	-21072	-106	-6517	1253	-4368	2256	1552	-2171	-842	176	200	130	1
-7720	-5636	14512	-68	1146	669	-18408	-3560	-744	-1514	1211	-244	-19192	-3216	1128	-513	1354	548	-32768	26032	21416	1569	-3353	4569	-26216	4336	-19192	920	-5528	1275	-16040	7624	16992	-1331	-769	1134	159	128	1
-8020	-6976	14700	-41	1491	754	-15896	-7304	104	-1225	1565	-111	-17456	-5536	5664	-674	1206	326	-32768	4616	7632	551	-2915	3158	-17552	5368	-22064	-679	-4032	1301	-28416	8336	31576	882	-381	1187	111	125	1
-8300	-7488	14508	1	1888	936	-17200	-6512	-704	-622	2020	23	-17336	-3808	5192	-1251	1330	-147	-32768	-8360	-352	1969	-2376	810	-11384	-880	-25048	-724	-1863	482	-20968	9944	32767	1657	390	992	100	128	1
-8452	-6144	15008	-3	2370	1084	-18888	-3536	-1840	-487	2379	144	-17784	-4728	2048	-1483	1220	-25	-32768	-5280	-3624	173	-950	-1108	-1424	-952	-21384	1033	975	540	-18080	9696	16496	1630	297	369	93	128	1
-8080	-5560	15696	-136	2977	1226	-20024	-2184	-1456	-683	2607	228	-18632	-6736	1472	-1189	912	357	-32768	5696	3272	-1474	828	-1858	-6864	-320	-23560	1422	3471	-38	-12688	8152	4976	1645	261	266	91	128	1
-8948	-6924	15204	-414	3636	1572	-20736	-2840	-136	-771	2856	274	-20376	-5288	5432	-662	290	491	-28792	7928	8384	-1138	1441	-1514	-16032	1808	-19904	1129	4022	-498	-6120	7584	11384	1977	-811	111	135	126	1
-8840	-8300	14984	-739	4403	2112	-22088	-2488	2056	-1100	3163	238	-21352	-4504	11304	-214	-890	365	32767	6520	408	-2842	4594	-3374	-32768	12144	32767	11062	1234	-495	-4144	10568	-23392	2962	2539	-1854	136	125	1
-7812	-10012	17980	-806	5532	2790	-29112	-1976	4872	-2034	3341	322	-20952	-7296	17760	-1170	-2387	-249	-32768	23360	32767	-252	5139	-3296	-3432	32096	-32768	-4575	1236	1020	-32768	27920	32767	-3120	-453	2757	112	123	1
-17316	-14344	16752	-510	6867	3755	-32768	2032	4592	-2740	3493	438	-21088	3200	15144	-1102	-2207	264	-16576	29752	18752	-190	2976	-2420	-30576	-9192	-15928	-5625	4887	-2076	-32768	19032	26296	-5274	-423	2364	88	125	1
-20752	-19428	20080	614	6924	4645	-31080	-13064	5448	-3543	3446	520	-26000	-2336	-264	-1810	-1373	513	-7896	6544	22480	-127	2468	-1415	-20360	-1048	-11760	-4140	2963	-226	-13224	-19080	-9192	-3153	356	155	155	128	1
-24156	-19024	23980	1050	6876	4820	-25936	-14208	-1208	-2405	3610	826	-24728	-12072	-13280	-1712	-968	-650	-2304	7056	16680	-1203	511	-551	-7704	648	-14528	-2844	2226	214	-7280	-3752	-13272	2595	619	7	139	134	1
-19564	-17744	27340	-725	5190	2944	-23384	-7616	-10208	323	3297	1310	-29544	-6296	-8520	89	-2475	-1269	-6744	16160	12872	-503	57	-218	-16968	-2752	-11640	-1035	1529	612	-14320	11176	-12640	3642	2714	0	125	131	1
-22104	-32768	32767	758	-103	151	-20632	-8144	-10760	1517	1990	1005	-31672	-40	-5472	1343	-2992	-1264	-4168	12128	12640	-280	26	-154	-24352	-4672	-10136	2809	1443	318	-23208	9776	-9080	2174	2391	854	115	131	1
6096	-10440	21764	1768	-1859	484	-25040	-2816	-80	42	162	119	-32768	2968	-9824	2099	-3245	-1372	-3864	10184	12768	-126	45	-127	-17808	8	-8280	4651	1171	464	-18360	4440	-3848	740	1626	335	127	129	1
-300	-13132	18876	-340	-2683	-23	-14448	-4072	-8816	1706	-517	346	-27312	5280	-8832	852	-3076	-1646	-3488	10072	13544	33	93	-120	-16312	5672	-3672	3993	928	673	-15960	4208	-1336	222	1584	-398	131	129	1
-108	-19276	14484	348	-3948	-771	-7872	-480	-6984	1276	-1698	334	-22512	4528	-8288	-387	-2821	-1265	-3784	10424	12528	180	116	-134	-15288	9128	-2256	1024	542	573	-15104	3712	-1688	28	1539	-1207	149	131	1
16	-17752	14076	484	-4106	-870	-7976	2344	-6984	-5	-2689	9	-19376	248	-8864	-908	-2455	-1355	-3896	10632	12360	180	65	-141	-14392	6800	-3848	-1432	776	60	-14672	2808	-768	264	1608	-1119	100	132	1
-3904	-10688	10912	-604	-4726	-2096	-11720	-2328	-7224	-520	-3766	-1	-15992	-1096	-8696	-419	-2293	-1583	-3592	11336	11680	112	40	-153	-16856	5320	-3208	-2613	756	-397	-14608	4192	-904	343	1817	-989	126	133	1
-7100	-10368	11016	-755	-4910	-2595	-8992	-1400	-7608	-268	-4569	-154	-14112	0	-9432	518	-2070	-1510	-3688	11384	11792	-25	52	-170	-18336	-1856	-3760	-2151	522	-133	-16168	3448	-1336	370	1908	-617	164	130	1
-8428	-8472	11380	-1149	-4848	-2930	-7232	-1440	-7320	-25	-5064	-212	-11536	1312	-9640	1153	-1870	-1321	-3776	10664	12456	-62	80	-169	-17104	-5960	-4912	139	414	241	-15272	200	304	488	1976	-503	113	133	1
-8844	-8668	11672	-1228	-4831	-2966	-1752	-1288	-14072	415	-5028	-784	-8776	3456	-9560	1475	-1711	-1155	-3360	11336	11856	-10	91	-147	-13768	1856	-3232	2184	529	411	-12912	-1728	-3080	594	2198	-729	109	131	1
-15512	-11908	14796	-1295	-5021	-3516	-13624	-688	-13304	1242	-5974	-360	-6424	6168	-10680	1389	-1554	-904	-4264	10088	11808	-22	94	-117	-15112	4864	-2840	1802	501	316	-13600	6064	504	606	2579	-797	126	131	1
-16476	-10604	16560	-1799	-4933	-3751	-11712	-1504	-9512	1054	-6144	-683	-5760	4936	-10504	1537	-1399	-597	-4136	10264	12216	-55	91	-131	-15872	6224	-1328	733	566	131	-14792	8560	1712	721	2688	-683	142	131	1
-20056	-15776	17956	-1914	-4738	-3776	-17856	-416	-10848	1429	-6634	-863	-3976	6064	-9272	1954	-1365	-293	-3696	10856	12168	-99	93	-161	-15704	5112	792	-195	795	-29	-17672	6984	-208	384	2437	-566	109	132	1
-25756	-18472	21424	-1536	-4419	-4095	-20976	-184	-14640	1378	-6928	-922	-3264	8560	-6968	2103	-1337	121	-3736	11336	12216	-167	109	-261	-15336	3616	-224	-597	1027	48	-20216	4608	2392	1	1720	-226	119	132	1
-31992	-13240	23476	-1562	-3658	-4857	-24904	-3336	-15952	1589	-6846	-748	-3296	4744	-1488	2100	-1392	452	-3488	11880	12696	-160	157	-472	-16456	2216	776	-300	1326	76	-18264	5920	5208	-282	1368	-107	117	136	1
-32768	-4824	21752	-1948	-2841	-5015	-25552	-6072	-19000	1495	-6093	-466	-7184	-6960	6288	1688	-1404	-391	-3080	11352	13632	-237	349	-758	-17152	2608	-968	272	1550	175	-15776	6128	4608	344	1403	-67	208	139	1
-32768	-1140	14668	-1211	-2847	-4331	-23152	-5072	-19600	961	-4808	-353	-19768	-10576	16896	945	-1243	-1771	-3776	10192	14440	-73	711	-817	-18248	2352	-2656	662	1848	61	-16272	4816	3848	986	1543	-19	134	133	1
-32768	17848	-1044	-560	-2755	-2490	-15016	-6912	-24096	533	-3475	-408	-25680	-3816	23128	22	-329	-909	-3504	8576	16184	60	1126	-1006	-20376	416	-2448	624	2076	-10	-19688	1592	2992	1225	1415	12	112	139	1
-32768	28148	-10500	-1856	-1993	-24	-10344	-1424	-24792	-932	-1672	-742	-23776	-2176	18016	-1321	-13	-227	-3888	9656	16928	342	1774	-1100	-21504	-1064	-3928	536	2328	-152	-19680	2736	3120	1417	1245	-193	145	139	1
-32768	17452	-12204	-466	-1056	1537	-6576	-3600	-22992	-2051	566	-539	-17000	-7736	10696	-2385	87	368	-3024	9672	17800	737	2526	-1309	-22392	320	-2840	302	2626	-310	-20528	5768	3912	1501	1020	-285	121	131	1
-32768	8980	-7900	1463	190	1972	-8536	-4504	-23760	-1577	2407	98	-12952	-11272	5120	-1917	733	-263	-3112	11600	17088	1287	3224	-1625	-22512	528	-752	-4	2967	-465	-20448	9776	7696	1136	587	-294	123	125	1
9404	-32768	11520	5468	2909	1946	-12088	-15376	-18048	-1093	3632	187	6680	-4280	-11400	-1690	1770	-129	-2664	12216	17344	1908	3880	-2280	-24680	-2288	912	51	3407	-522	-20840	11816	13528	558	-564	-238	122	122	1
15016	22112	19996	2123	4846	2609	-32768	-2240	-5072	4821	2753	-750	-30096	-23360	-2816	-208	1723	644	-344	16008	17840	2514	5084	-3153	-32768	-4688	4472	1011	3797	-819	-21256	12608	14984	557	-927	-187	124	120	1
-32768	10824	32767	1197	3495	1975	-18872	-3976	-8976	8551	4205	1042	-32008	-4448	12128	5079	688	-689	-6232	24272	21408	2335	6434	-4516	-32768	-4712	7664	2711	3848	-648	-23616	-840	20504	149	-2795	-442	119	128	1
-30264	8572	32767	1026	3248	2068	-21888	13088	-10752	1305	3641	733	-21336	22664	-12424	4252	2317	770	-18800	30600	28760	1139	6966	-5370	-32768	11320	904	2592	3731	-683	-19984	-2304	6808	299	-2076	-857	76	128	1
-26352	5188	24420	955	-38	568	-11376	-12064	-15032	-391	2432	-1083	-13776	11344	-17088	329	1169	-62	-9712	19088	29960	-1166	7188	-5952	-27696	13184	6416	791	3776	-1076	-27296	9776	-16416	2050	-1176	-128	140	127	1
-13356	-6604	15144	604	-72	338	-16096	-2552	-15344	611	1784	-1422	-9288	1392	-10096	-2420	2019	530	-8056	22320	31664	2091	5461	-3841	-26080	2992	-10112	-2074	3743	-1323	-32008	10896	-11168	1004	-2180	931	127	124	1
-8608	-7996	13072	199	62	83	-21216	-328	-10128	-119	1324	-137	-18264	-8736	-14584	-1801	2057	142	-7400	32767	32767	168	4	-1377	-18496	6520	-24560	-3434	2225	-1230	-32768	3440	-4832	-1407	-3300	947	124	123	1
-8080	-8496	12124	88	73	47	-17432	-2976	-5448	-1603	947	-213	-18784	-2128	-7176	-404	1805	-199	10752	11560	21888	-2977	-2326	-600	-25088	-1192	2432	-116	750	-623	-32768	352	-8352	-2211	-3765	774	121	118	1
-7452	-6108	13312	15	109	54	-15648	-1336	-5008	-2352	713	-510	-16992	2032	-2208	-323	1933	-192	6720	10104	15440	-1094	-3644	-806	-13496	-208	-6520	-375	-1054	-214	-25616	-864	-6416	-1215	-3344	1367	118	122	1
-7116	-6336	13256	-118	196	46	-16448	-6680	-3088	-1969	451	-575	-17184	896	-2952	-1217	1831	685	7048	12744	14008	-966	-3830	-688	-6704	-1224	-6048	819	-1792	-393	-22720	-1952	-7576	239	-2944	1491	115	131	1
-7452	-6596	12752	-189	221	45	-16208	-9704	-3216	-370	486	-483	-15968	-2920	-4184	-1448	1752	1228	5064	10000	7752	-2044	-4348	1348	-7600	-2632	-5992	1848	-2578	-255	-19200	440	-8096	1446	-2794	1496	69	125	1
-7224	-7516	12192	-153	236	74	-16056	-9632	-3408	-107	502	-439	-14360	-5352	-2616	-863	1716	1122	2304	10664	7176	-513	-4299	2229	-9680	1208	-6224	2185	-3667	-22	-16312	3752	-7976	1013	-2503	1553	135	122	1
-7776	-7636	11848	38	170	111	-14848	-3568	-2560	640	600	-138	-14464	-5376	-2432	-141	1858	831	-1168	15888	8544	-203	-4161	2851	-9624	2360	-7968	1812	-4434	234	-13344	2504	-8496	9	-2214	1357	157	123	1
-7684	-6680	12416	97	145	129	-16400	-1048	-1264	-229	485	-263	-15400	-1680	1432	219	1879	662	-4448	14760	11104	-116	-4307	3284	-8024	4672	-7296	1219	-5099	600	-11600	592	-9248	-951	-1963	877	105	123	1
-7728	-6504	12656	63	134	111	-14864	-3800	-432	-1265	510	-297	-14208	-1568	2672	193	2113	695	-6984	16488	12528	209	-4746	3488	-9616	5016	-8056	337	-5395	886	-8864	-392	-9824	-1306	-1858	652	120	126	1
-8920	-5040	13212	25	94	-1	-9160	2264	-3216	-2377	44	1606	-14568	-4936	4096	-441	2388	621	-8600	18176	15520	430	-5091	3449	-11608	3584	-9832	-262	-5782	1003	-6728	-760	-10008	-1269	-1593	575	128	126	1
-6776	-7368	11476	110	57	149	-12344	-4808	-4056	-1340	1304	-1411	-15720	-6968	3216	-887	2534	493	-11816	18848	15584	774	-5427	3471	-13976	2184	-10016	-407	-6178	1237	-6304	-808	-10360	-1636	-1206	652	128	125	1
-7760	-7316	12348	144	36	187	-12824	-7632	-96	217	1595	94	-16768	-7576	-1168	-612	2140	370	-13120	22672	16336	1042	-5418	3554	-15640	1544	-10896	-790	-6405	1404	-5416	-2680	-10184	-2290	-1183	538	124	128	1
-7368	-7772	12748	189	36	296	-15152	-5640	-3136	611	1475	-133	-17640	-2168	-3184	-350	1749	159	-15320	26832	18968	1065	-4936	3954	-18488	104	-13320	-1156	-6605	1442	-5216	-5120	-9640	-2925	-1213	157	125	128	1
-7280	-6608	13592	107	216	485	-18192	-2032	-4664	54	1445	-119	-16328	128	-4256	-488	1587	260	-22024	32680	22080	1224	-4250	4826	-26656	-2144	-12416	-1070	-6741	1564	-5016	-4792	-5168	-2888	-1224	-189	128	127	1
-7964	-5972	14328	60	582	523	-18280	-2016	-3552	-1010	1273	-213	-18048	-856	-3320	-700	1583	461	-31064	20488	27024	2672	-3262	5646	-28176	-2952	-18232	-395	-6579	1218	-6432	1832	1736	-2196	-1123	125	211	127	1
-7676	-6728	14940	-51	948	633	-18176	-4760	-1616	-1504	1279	-259	-19312	-2872	-512	-594	1360	457	-32768	25160	24360	1977	-2913	5051	-25696	3480	-20848	1174	-5588	1194	-13992	7136	10128	-1484	-490	1212	127	123	1
-8052	-7020	14436	-71	1365	709	-17504	-6808	-704	-1200	1576	-117	-18160	-4264	2856	-937	1261	246	-32768	5784	13272	260	-2788	3444	-19312	6416	-22688	-577	-4357	1409	-24552	10384	27224	239	-144	1354	113	124	1
-8280	-7784	14248	-26	1816	917	-17792	-5928	-520	-760	1948	-13	-17408	-4296	3216	-1275	1285	-17	-32768	-6696	752	1528	-2487	1096	-14384	56	-25080	-1304	-2282	501	-21240	7792	32767	358	295	1016	109	124	1
-8572	-5680	14844	-48	2327	1046	-18520	-3544	-2144	-644	2263	66	-17520	-5208	1520	-1288	1222	77	-32768	-8096	-4896	1092	-1379	-821	-3504	-1352	-23232	444	341	711	-19048	4000	21048	676	154	431	98	124	1
-8092	-5732	15508	-171	2907	1159	-19544	-3152	-1920	-712	2493	191	-18144	-6288	1632	-1023	954	310	-32768	3920	1536	-788	811	-1678	-4480	-1112	-21944	1331	3003	241	-15368	4552	10056	1981	294	35	103	124	1
-8732	-6472	15032	-460	3558	1418	-20112	-3136	-8	-629	2765	263	-19416	-4904	4528	-669	481	417	8888	32767	1968	-3958	4665	-2894	-15136	7712	-17304	2105	4179	-394	-11800	2200	4896	2485	532	135	118	123	1
-9444	-6968	14528	-810	4254	1898	-21424	-1592	-16	-868	3050	225	-20408	-5520	7944	-543	-335	401	-10704	-21016	31160	-177	5672	-2919	-32768	-7856	4104	-2560	1206	-424	-14280	21200	-600	2929	1157	3	118	123	1
-10152	-9604	16920	-825	5380	2364	-27824	-2488	3248	-1533	3264	438	-23608	-9000	13280	-589	-1369	-74	-24272	-4952	32767	-135	3846	-2753	-6512	-6504	104	-6595	1827	-469	-25840	21280	12024	-872	1605	1004	26	125	1
-14880	-16212	20268	-767	6650	3276	-32768	2056	9256	-2332	3426	501	-22976	-72	13664	-1177	-3099	-87	-9744	26832	8320	-196	2229	-2125	-23768	-5952	-13008	-3216	4520	-1710	-15272	-19344	-20296	-5197	2200	-1933	130	124	1
-28432	-17880	29524	-74	6729	4252	-32192	-10880	4216	-3255	3546	375	-24064	5208	8280	-824	-2000	612	-32768	32767	32767	-1005	2002	-1414	-24680	-2152	-8280	-2878	4222	-1377	-13984	-10232	-3056	-2552	-323	817	144	129	1
-19292	-17484	27936	1831	6734	5154	-28432	-15112	4920	-2309	3260	608	-25080	-6256	-13184	-1842	-1089	-295	-9728	7248	21184	-964	-49	-397	-12776	1728	-19352	-5233	1837	160	-15224	3992	-15912	1952	1612	-232	132	128	1
-25476	-22828	28100	-156	6518	3734	-24744	-6664	-14848	-359	3555	816	-29832	-4080	-10432	-924	-2162	-1271	-4160	9432	14504	-446	-29	-149	-24944	-11648	-15320	-2494	1505	-196	-21264	3464	-14320	1224	3005	365	130	129	1
-32768	-32768	32767	-356	920	1029	-17448	-4752	-21584	1543	2517	1093	-32768	-1680	-6680	16	-3058	-1431	-3776	10728	13392	-218	-17	-42	-26648	-13592	-16216	-1559	1458	-249	-18776	1216	-4200	1004	2301	492	107	131	1
5900	-18236	23636	1433	-2092	29	-26296	-1256	2208	-939	308	23	-32768	848	-9768	1437	-3227	-1322	-3232	9168	13864	-25	28	-33	-15696	-2216	-6024	4670	968	744	-17832	-384	-528	764	1904	311	122	129	1
1336	-9828	18264	-641	-2490	-372	-15064	-4176	-8296	778	-620	184	-27336	3824	-8800	934	-3117	-1821	-3272	10088	13120	134	64	-45	-16280	3968	-3480	4951	696	974	-14808	2616	-136	883	1752	-572	127	131	1
-836	-19364	14604	-378	-3564	-1264	-8992	-1960	-7144	1020	-1742	252	-21400	4840	-7344	-158	-2869	-1373	-3272	10240	12824	206	81	-55	-16520	11920	200	1919	407	744	-14568	4072	504	935	1605	-983	139	131	1
-1436	-11424	12176	182	-4329	-1807	-7112	2408	-5904	-15	-2580	-163	-18360	856	-7344	-794	-2476	-1230	-3120	10440	12256	206	64	-115	-13712	9176	-1264	-1417	713	163	-14192	5072	432	740	1598	-1013	48	132	1
-4272	-8556	11344	-397	-4570	-2195	-10648	-1872	-6184	-405	-3551	-56	-16360	-1656	-7272	-214	-2432	-1486	-3168	10976	12488	132	35	-149	-16224	5568	-1864	-2791	803	-345	-14856	4760	-192	370	1674	-700	130	133	1
-7156	-8352	10724	-731	-4751	-2400	-8528	-512	-6288	6	-4289	-182	-14496	592	-7880	722	-2288	-1412	-3328	11008	11904	-31	58	-176	-17192	-1928	-3320	-2544	535	-107	-14256	3008	792	408	1841	-554	121	133	1
-8208	-7736	11028	-922	-4850	-2496	-8136	184	-6568	63	-4747	-286	-11664	2808	-8728	1349	-2146	-1088	-3296	10328	12344	-113	91	-195	-16840	-5752	-3296	334	445	383	-13600	3264	2544	225	1913	-534	122	132	1
-10636	-9040	12456	-1185	-4898	-2680	-9920	-464	-7592	287	-5150	-474	-8200	4624	-9192	1354	-1973	-849	-3632	10232	12320	-88	125	-190	-15040	960	-1656	2202	701	474	-14024	4280	4328	263	2292	-356	127	133	1
-13028	-10916	14356	-1345	-5023	-2999	-11552	-800	-9920	516	-5593	-514	-5912	5016	-9920	869	-1792	-649	-3992	10696	12344	-100	127	-179	-15240	7104	-792	2094	815	362	-15112	6880	3704	987	2617	-506	118	134	1
-15564	-11596	16464	-1575	-5035	-3324	-13120	-1216	-9288	491	-6049	-582	-5144	3632	-9256	842	-1652	-490	-3528	10504	12496	-154	118	-172	-15392	9192	1080	728	918	48	-17296	9720	376	975	2544	-692	112	134	1
-18668	-14032	17736	-1559	-4974	-3561	-15304	-1576	-9600	718	-6339	-844	-4328	3032	-8728	1199	-1406	-337	-3760	10760	12864	-182	110	-218	-15888	6736	-488	-764	1070	-66	-18480	9296	-800	290	1987	-481	116	135	1
-22164	-16720	19576	-1299	-4735	-3832	-18584	-2112	-11528	1206	-6561	-957	-3392	4768	-8280	1723	-1222	-105	-3792	10424	13304	-118	138	-264	-16824	1296	-2640	-1219	1278	-88	-16504	5584	184	-258	1628	-199	131	137	1
-27944	-14080	21968	-1310	-4053	-4462	-23432	-4088	-15176	2198	-6681	-809	-3960	4248	-5048	1751	-1161	206	-3632	9840	13464	42	214	-385	-17376	-32	-2968	-367	1443	11	-16800	2896	864	-229	1709	-224	92	138	1
-32768	-5940	21136	-2052	-3130	-4660	-26792	-5112	-18272	2169	-6331	-380	-7248	-2144	2888	1723	-1268	-101	-2768	11232	13640	152	406	-609	-16384	1520	-1280	572	1553	130	-15840	3680	2584	76	1497	-289	97	139	1
-32768	-3904	15472	-2334	-2597	-4108	-25960	-3816	-17992	362	-5439	-197	-16328	-8720	11264	775	-1300	-1259	-4608	8480	15168	218	847	-706	-17304	2464	-2688	883	1817	116	-16776	4856	3224	558	1435	-207	124	136	1
-32768	976	3576	-756	-2792	-3202	-15104	-6816	-26176	81	-4083	-731	-25840	-5832	21432	-302	-814	-1707	-2704	12232	15744	306	1211	-919	-20872	2712	-1944	676	2089	-43	-19144	2384	3000	916	1438	-45	137	136	1
-32768	25308	-12120	-1224	-2345	-1412	-12824	-3808	-21904	-1168	-2356	-832	-21840	-2440	21560	-1887	279	-571	-3744	10368	16928	429	1845	-1091	-21464	472	-3400	406	2300	-127	-19552	3208	3408	1289	1331	-93	124	137	1
-32768	21964	-16876	-1869	-831	528	-6552	-5560	-22872	-1769	14	-848	-20296	-10984	11376	-2397	290	141	-3256	10336	17368	745	2531	-1309	-21696	88	-2384	162	2597	-320	-19424	5864	3384	1489	1143	-242	123	123	1
-32768	5568	-10196	972	470	1223	-6312	-5552	-21728	-859	2146	-127	-13272	-17136	4528	-1636	989	-5	-3256	10832	16688	1192	3203	-1575	-21280	512	-1552	40	2900	-463	-18936	8400	5896	1191	675	-314	123	131	1
-32768	3780	-1168	2182	1326	534	-11104	-7096	-23720	374	3629	321	-8136	-17608	6960	38	-1083	-777	-2728	11656	16312	1749	3765	-2128	-22432	-1496	248	155	3268	-511	-20440	8776	11240	617	-398	-293	124	122	1
32767	-26328	14364	4312	3154	2644	-32768	-19888	32767	-3796	615	344	-3752	-10528	-15384	-219	2003	635	-1712	15088	18704	2352	4698	-2882	-30512	-2424	3384	1135	3655	-684	-20792	10168	15752	975	-1757	-111	127	121	1
-32768	10212	32767	2150	4099	2674	-32768	-2944	32767	817	883	144	-32768	-20216	28656	5243	-488	-714	-2344	20024	19104	2138	6044	-4153	-32768	-4664	7944	2294	3786	-743	-26120	2440	22296	421	-2700	-11	122	126	1
-17552	-14504	15324	700	2597	2250	-18552	29672	-11440	3873	4526	1696	-23088	25664	-8248	6129	2834	1491	-18160	31664	24000	1164	6749	-5356	-32768	7496	3432	2654	3779	-659	-22392	-1664	11448	547	-2289	-843	84	127	1
-10996	-4248	18104	865	2306	922	-17160	-6408	-13792	-366	3168	-507	-15104	21400	-14096	2951	1508	493	-12336	29576	28088	-742	6875	-6122	-29512	13560	2784	1101	3645	-1032	-25424	5560	-11368	1749	-1371	-229	133	122	1
-9588	-9456	13708	964	250	441	-12248	-4864	-14816	272	1834	-1556	-5256	8104	-12704	-1901	1909	432	-13888	32767	31152	643	5953	-5098	-26016	5296	-8008	-501	4118	-849	-29584	11000	-12464	1411	-1926	722	130	127	1
-9604	-3224	16080	400	53	127	-21120	-2560	-11688	867	1801	-608	-14688	-6488	-16424	-3247	2057	-238	-29656	32767	32767	1084	1177	-2646	-16504	2424	-28032	-3513	2570	-1164	-32256	4536	-4816	-241	-2903	1041	126	131	1
-7844	-6796	13180	183	77	5	-19680	-1640	-6688	-593	1194	89	-21904	-3264	-9056	-1777	1914	-903	13800	21064	23328	-2520	-2303	-667	-26576	-1336	4192	-246	919	-547	-32768	136	-7392	-1511	-3571	891	123	120	1
-7156	-5992	13440	80	84	8	-14888	1280	-5488	-1841	984	-476	-18168	272	-1640	-554	1887	-301	7736	8864	16968	-1297	-3243	-861	-16504	-2808	-5544	-80	-835	79	-28720	-1872	-7368	-1306	-3477	1326	123	127	1
-6932	-6124	13340	-73	190	24	-16432	-1480	-4472	-2646	576	-632	-17944	1792	-2248	-728	1841	573	10032	19944	11696	-1154	-3944	363	-7888	-2720	-6680	667	-1777	-210	-23736	-1936	-7192	94	-3041	1608	128	128	1
-7228	-7020	12536	-187	270	61	-17152	-9592	-2936	-1737	465	-631	-15520	-3280	-2960	-1082	1637	1350	6640	11256	10616	-1525	-3945	1781	-9592	-4712	-5960	1996	-2543	-93	-20448	-464	-8008	1390	-2945	1516	121	128	1
-7292	-7260	12216	-206	227	92	-16544	-10208	-2880	-1392	489	-617	-13104	-5552	-3096	-820	1672	1268	2240	10576	10488	-346	-3959	2883	-11328	-296	-6712	2419	-3755	234	-16888	2544	-8296	1331	-2511	1643	132	124	1
-7584	-8540	11376	7	157	164	-14136	-5280	-1464	1204	726	51	-14216	-5784	-2624	-287	1628	854	-1672	13528	12240	-254	-4047	3464	-9224	1456	-7560	1694	-4545	370	-13896	1784	-9008	287	-2198	1463	128	123	1
-7720	-7252	12304	200	88	211	-14112	-4400	-1488	1164	727	17	-16056	-1760	-504	67	1729	557	-4400	11520	14104	-174	-4415	3624	-7216	2520	-6648	763	-5217	693	-11448	-312	-8944	-839	-1984	995	123	122	1
-7872	-6428	12860	166	87	186	-15968	-1304	-1368	-654	597	-300	-16256	-888	-448	98	1733	545	-7368	12784	16120	240	-5034	3503	-9032	2304	-7952	-201	-5641	930	-9152	-376	-9712	-1502	-1827	613	116	128	1
-7836	-6588	12664	111	96	167	-15064	-4248	-760	-1158	678	-360	-14256	-808	1896	-81	2266	725	-9232	15704	16800	422	-5643	3252	-12128	104	-8184	-398	-6043	1011	-7184	-2296	-9808	-1655	-1762	432	128	128	1
-7868	-6556	12576	87	97	145	-14232	-6088	-1072	-933	817	-288	-15168	-5480	2368	-738	2631	643	-11528	16528	18784	703	-5963	3011	-15272	-968	-9744	-445	-6511	1231	-4664	-2872	-10104	-1826	-1321	346	134	126	1
-7608	-7104	12312	106	78	190	-13880	-6448	-824	-413	969	-236	-15992	-6192	-1312	-826	2608	452	-13608	21312	18968	1044	-5927	3024	-17248	-3400	-9552	-136	-6594	1294	-4544	-4712	-10696	-2124	-1140	80	127	128	1
-7584	-7396	12812	119	102	309	-15368	-5656	-2704	-63	1092	-245	-17456	-3872	-4640	-623	2025	369	-15624	29648	21928	852	-5312	3591	-20320	-2568	-15048	73	-6696	1401	-5128	-7944	-9552	-2565	-1209	-193	126	130	1
-7544	-7760	13296	68	258	447	-17200	-3728	-2808	-345	1138	-262	-18912	-1528	-2384	-350	1679	231	-22696	22616	26032	1007	-4336	4915	-27112	-848	-17784	-283	-6975	1594	-5128	-4256	-4984	-2625	-1329	-299	130	129	1
-7908	-5884	13856	-15	601	500	-17520	-2968	-1032	-917	1217	-229	-18888	-4408	808	-407	1555	338	-32768	23184	25264	2457	-3367	5616	-27568	656	-21760	-49	-6511	1345	-6288	3096	3488	-2284	-1225	108	206	127	1
-7724	-6836	14508	-1	877	627	-16648	-5344	936	-976	1393	-220	-18336	-6368	2520	-436	1347	423	-32768	23952	20552	1902	-2965	5109	-24968	6288	-19328	192	-5458	1188	-17296	8536	14720	-1608	-1169	1215	145	124	1
-8000	-7016	14336	26	1267	679	-17040	-6328	-656	-759	1772	-98	-16824	-5336	3992	-544	1248	272	-32768	6592	7728	589	-2341	3572	-17096	7792	-22632	-1727	-3897	1028	-23616	6352	31208	458	-457	824	110	126	1
-8500	-7188	14452	14	1719	866	-18544	-6136	-1736	-490	2085	-19	-17480	-2136	3016	-853	1270	-23	-32768	-9920	1008	1742	-1880	1174	-13856	-64	-26760	-1861	-1851	206	-22408	9776	32696	1608	278	764	110	126	1
-8032	-5688	15628	8	2251	990	-19488	-2752	-2736	-549	2329	41	-18376	-3720	1232	-1154	1252	123	-32768	-3000	-4904	586	-1218	-888	-1952	-1744	-23944	1094	781	521	-18496	6312	15840	1416	344	578	102	126	1
-8072	-5272	16180	-132	2905	1106	-20448	-1648	-1976	-709	2542	183	-19312	-6024	1864	-1100	925	370	-32768	5840	528	-957	406	-1941	-5728	400	-23064	2133	2985	476	-14184	6824	4552	2248	410	280	112	124	1
-8188	-6832	15400	-400	3588	1369	-20512	-2024	-1608	-726	2581	199	-20208	-5872	5936	-740	330	449	32632	32767	13760	-977	1295	-1611	-15104	4280	-25584	1940	3840	-93	-10072	4184	9720	2483	484	-53	125	122	1
-9684	-8736	14708	-708	4308	1937	-21664	-2824	1064	-892	3164	247	-20544	-6144	10480	-529	-713	332	17640	-32768	31472	-1201	5449	-2626	-32768	1808	22040	-913	657	-900	-14640	22960	-10056	1887	1246	-215	125	124	1
-9712	-10424	18684	-841	5486	2679	-29440	-5888	2280	-1598	3374	372	-22504	-11952	16040	-1054	-1992	-347	-32768	-3744	32767	3	4423	-2260	-8280	-1672	-2224	-7306	1423	-300	-32584	20472	23800	-2820	922	1759	63	126	1
-15540	-18792	17204	-578	6706	3864	-32768	3376	6816	-2565	3505	348	-22808	1000	14736	-883	-2593	178	-14976	30848	12680	-277	2207	-2333	-26920	-7624	-13624	-4412	4629	-1757	-18816	-24584	-17432	-5877	2484	-2239	114	124	1
-26476	-22640	29604	142	6605	4576	-31592	-12352	4336	-3869	3554	387	-24232	3032	3208	-760	-1728	426	-10048	5584	22008	-345	2377	-1199	-17896	2376	-13136	-4239	2465	247	-14360	-16232	-9480	-2694	-202	467	130	124	1
-21904	-16464	28844	1648	6635	5178	-26136	-14216	3944	-2869	3261	577	-25608	-7192	-13608	-1601	-1030	-514	-1824	10416	12736	-1271	368	-507	-9544	744	-12384	-4061	1894	362	-7112	880	-11864	2152	1125	-595	148	129	1
-25620	-18912	32767	-1568	5597	2908	-23912	-7768	-14016	123	3393	1039	-30736	-3320	-9456	-441	-2446	-1208	-5936	14720	13776	-551	26	-206	-20768	-9688	-13200	-1723	1619	164	-19968	6480	-12880	2611	2739	587	81	130	1
-30664	-32768	32767	-47	-26	873	-19968	-5216	-15592	789	2046	906	-32768	1904	-6400	560	-3091	-1388	-3936	11744	12856	-334	-12	-119	-22520	-5344	-9320	3273	1489	348	-21176	4416	-6168	2086	2383	1057	107	129	1
6276	-13744	21684	1720	-2384	393	-21440	-2824	1616	-734	79	-197	-32768	3784	-8536	1216	-3310	-1331	-3640	9880	13680	-167	7	-66	-17128	-952	-6752	4890	1078	701	-17752	4056	-1928	1528	1734	409	125	127	1
2348	-10896	16416	-617	-2691	-188	-13784	-2456	-7160	1086	-881	-11	-27176	6008	-8752	216	-3018	-1790	-3424	9680	13456	11	39	-69	-16112	3872	-4912	4852	884	810	-15888	5408	-1344	984	1688	-500	132	129	1
724	-18232	13520	-181	-3612	-1025	-7688	672	-7328	1010	-1882	-63	-21088	6176	-7984	-998	-2813	-1364	-3256	9840	13184	99	58	-75	-16456	10696	-736	2040	541	529	-14368	5208	-376	463	1531	-1145	160	132	1
-280	-8420	13212	-231	-4113	-1843	-7736	4136	-7360	161	-2854	-418	-17696	1888	-8008	-1492	-2414	-1239	-3224	9824	13184	113	47	-105	-13520	7784	-1568	-1392	740	142	-13696	3736	1192	102	1531	-1061	91	133	1
-3640	-6608	13404	-1056	-4315	-2508	-9744	1464	-6792	-390	-3831	-349	-14816	-488	-7984	-693	-2239	-1475	-3368	10400	12704	93	44	-136	-16216	5280	-2520	-2949	940	-403	-14872	3848	768	-161	1614	-954	148	132	1
-6344	-5000	13424	-1325	-4591	-2731	-7808	2512	-6200	-359	-4539	-442	-12160	1032	-8352	268	-2130	-1426	-3376	10824	11936	-21	50	-162	-17768	-776	-3552	-3047	699	-285	-15256	2312	208	18	1833	-705	147	131	1
-8152	-4624	14036	-1609	-4719	-2743	-7232	1968	-6184	-448	-5052	-550	-10440	2280	-7856	1059	-1912	-1061	-3576	10312	12488	-198	82	-178	-16776	-5800	-4080	-690	519	230	-15168	1384	1184	257	1780	-431	121	130	1
-10664	-7732	15340	-1644	-4895	-2828	-10512	240	-7208	45	-5401	-758	-7440	4480	-8944	1258	-1689	-796	-3936	9576	13128	-173	104	-181	-14912	-2128	-3416	1512	722	385	-13648	832	2128	211	1966	-342	117	132	1
-13724	-8680	17372	-1767	-5038	-3055	-13312	-560	-8832	503	-5829	-791	-5664	5352	-9392	966	-1557	-589	-3936	10080	12920	-119	108	-152	-15088	3408	-1560	2152	825	417	-13368	3808	1632	331	2258	-585	150	132	1
-17128	-11680	18568	-1923	-5177	-3299	-14264	-592	-8736	797	-6137	-830	-4920	5016	-9312	857	-1454	-402	-3784	9952	12944	-143	112	-133	-16240	7416	-1992	1191	830	207	-15472	8312	3648	524	2665	-796	124	132	1
-19416	-14364	19212	-1710	-5047	-3556	-16968	-408	-9248	1258	-6386	-1033	-4656	4520	-8288	1176	-1334	-210	-3712	10000	13280	-145	123	-159	-16480	6824	-1000	-384	904	-34	-16352	7544	224	659	2857	-803	114	132	1
-23780	-17584	21396	-1394	-4541	-4027	-21864	-1560	-13048	1794	-6630	-1032	-4088	5120	-7384	1516	-1144	37	-3184	10344	13040	-160	148	-237	-16144	2624	-1448	-1053	1085	-80	-18328	5344	-2112	241	2187	-433	124	135	1
-31092	-13200	23324	-1527	-3688	-4897	-25456	-2688	-16024	2292	-6667	-753	-4336	3104	-3352	1907	-1135	246	-3344	10072	14072	-73	231	-369	-16096	2288	-1384	-1060	1120	-70	-17888	5360	56	-504	1520	-225	56	138	1
-32768	-3360	21096	-2129	-2723	-4962	-28272	-4960	-19416	1643	-6165	-299	-9240	-5224	5936	2078	-1452	-347	-3656	9392	13864	77	403	-533	-17360	376	-1832	391	1493	115	-16656	5952	2856	-335	1506	-297	213	137	1
-32768	-1524	12716	-1821	-2353	-4134	-22848	-2744	-17984	367	-4971	-342	-23032	-10864	18392	888	-1829	-1538	-3256	9400	15600	100	778	-721	-17808	3408	-1672	889	1734	105	-16576	5976	5008	404	1435	-277	121	133	1
-32768	16324	-1240	-583	-2529	-2411	-13536	-6368	-25400	-392	-3584	-646	-23296	-4336	26072	-694	-105	-565	-2752	12592	16072	292	1150	-889	-20064	2592	-2232	770	2067	-89	-18552	2448	4320	858	1503	-16	125	140	1
-32768	31476	-13312	-2286	-2112	-55	-9448	-1816	-22592	-2113	-1432	-778	-22552	-4632	20160	-2123	40	-273	-3776	10648	17248	279	1772	-1073	-21512	1104	-2960	496	2342	-199	-20448	3264	3320	1256	1308	-146	126	116	1
-32768	15492	-15508	-699	-1104	1737	-6232	-5968	-21800	-2428	1007	-430	-18216	-8864	8256	-2926	418	62	-3192	9552	18440	572	2483	-1313	-22584	112	-2936	134	2628	-399	-20792	5816	3552	1446	1044	-297	122	120	1
-32768	3172	-7664	1929	165	2203	-9520	-7128	-22496	-1132	2811	100	-13728	-13328	3008	-1998	725	-251	-2792	11000	17520	962	3183	-1653	-22424	-288	-1744	-8	2930	-541	-20408	8336	7152	1110	445	-340	122	126	1
-32768	-3420	1116	1528	983	1008	-13384	-4936	-20872	287	3945	266	11664	-6048	-11856	-1302	1860	-168	-2296	10512	17872	1650	3839	-2247	-23920	-2576	-704	136	3331	-600	-22648	10160	14400	560	-1012	-212	125	118	1
32767	32767	19600	2272	4458	2251	-32768	2160	10488	3715	1433	238	-27928	-19648	-4096	669	1573	1100	-216	19472	18888	1863	4852	-3107	-32768	-2824	7856	1483	3725	-837	-21608	10000	15472	897	-1725	-22	125	122	1
-32768	7664	32767	1559	3467	2005	-13296	-13888	-13872	8011	3188	-42	-32768	-5488	16160	6917	330	-790	-6048	23960	21808	1511	5974	-4491	-32768	-4080	6280	2246	3813	-706	-24784	-1968	20840	87	-2575	-281	107	128	1
-23844	-19640	15024	689	2412	1982	-23368	14568	-14376	2337	3919	958	-24648	25760	-8328	5140	2373	1036	-17568	31944	24928	724	6770	-5588	-32768	9088	1344	2301	3870	-825	-21800	-2032	7992	200	-2000	-774	108	131	1
-16528	-8804	21240	1005	1855	903	-15216	-5152	-15104	279	2620	-776	-14112	17624	-13256	1016	1434	281	-8576	21320	25816	-935	6800	-6060	-23416	10176	-5032	803	3651	-1122	-25456	7968	-13432	1675	-1451	-200	126	125	1
-8432	-8512	14664	941	229	459	-12584	-3392	-13408	13	1618	-1503	-6744	1392	-13248	-2744	2223	649	-6952	30888	28776	133	5902	-5179	-24384	5296	-4288	254	3922	-945	-28784	10024	-9656	1242	-2002	743	139	129	1
-9320	-4852	15656	425	66	122	-20472	-3688	-10952	392	1641	-360	-15576	-12800	-15056	-2585	1974	-224	-32768	32767	32767	347	1261	-1811	-13984	5064	-31784	-3873	2155	-1018	-32768	7064	-5472	-175	-2761	1087	128	129	1
-8020	-6448	13412	175	107	23	-19960	-960	-5160	-478	929	25	-20992	-224	-5656	-481	1773	-521	18152	19440	20272	-2468	-1978	347	-27360	-1808	6688	-409	884	-844	-32768	2104	-7496	-1681	-3581	1031	123	127	1
-7392	-5992	13248	17	152	24	-15352	3016	-4136	-2480	794	-518	-17976	3248	-1808	-367	1960	-22	8600	6456	14832	-1270	-2543	-308	-16096	-1168	-5200	-232	-1087	-53	-27312	-1248	-6944	-1570	-3499	1557	125	128	1
-7344	-6720	12732	-114	226	25	-16240	-6120	-3512	-3229	400	-601	-16760	-1400	-2648	-1332	1922	716	9088	19472	11032	-929	-3491	785	-5552	-264	-6160	-13	-1929	-316	-21512	-2112	-6880	-415	-2936	1666	123	129	1
-7544	-7152	12256	-186	242	56	-15760	-11776	-1832	-1225	523	-551	-14928	-5800	-2840	-1239	1627	1178	6224	11992	9792	-1455	-3757	2011	-7616	-3584	-5272	1252	-2601	-132	-18728	-976	-7672	1101	-2775	1524	90	127	1
-7480	-7616	11952	-166	198	87	-14176	-10408	-720	1057	836	-64	-13624	-6512	-648	-436	1578	1114	1888	10816	10136	-360	-3952	2892	-8504	-2856	-5632	1352	-2772	-78	-16312	2256	-7736	1263	-2339	1649	142	125	1
-7860	-8548	10984	36	120	172	-14304	-2840	-1232	1403	904	54	-14336	-5008	-848	223	1515	832	-2104	15040	11208	-189	-4043	3379	-10208	1392	-7648	1375	-4539	282	-13424	2128	-8608	355	-2027	1546	113	120	1
-7856	-6852	12232	205	77	211	-16032	-288	-1824	244	799	-235	-15608	-336	1032	299	1605	602	-5160	14064	13480	-239	-4416	3655	-7152	3136	-7328	652	-5253	654	-11344	2544	-9120	-790	-1799	1124	144	123	1
-8100	-6800	12236	185	82	208	-15448	-3040	-1360	-661	735	-278	-14072	1056	912	194	1877	572	-7456	14096	14336	110	-4885	3627	-9520	3264	-7424	-58	-5629	901	-11040	1328	-9600	-1041	-1769	995	121	128	1
-8168	-6800	12104	177	43	204	-14808	-4728	-1080	-1152	821	-294	-14544	-2272	1344	-371	2313	610	-9456	16896	16176	375	-5280	3498	-12904	1112	-9608	-533	-5940	1017	-7128	-1320	-9680	-1637	-1584	570	112	128	1
-8080	-6544	12336	161	30	194	-13864	-6168	-2096	-939	936	-227	-15304	-5112	864	-923	2753	399	-12312	18992	18048	776	-5571	3490	-15616	312	-9928	-527	-6354	1171	-5608	-1936	-9704	-1894	-1256	526	138	128	1
-8244	-6688	12376	166	38	200	-14560	-5552	-1944	-403	1064	-190	-15376	-3368	-3840	-808	2384	309	-13904	22768	18608	1080	-5588	3615	-17696	-640	-10008	-499	-6495	1279	-5536	-3696	-9912	-2355	-1161	370	130	129	1
-8088	-6192	12696	125	71	212	-15384	-4504	-3416	-110	1153	-167	-16888	-1472	-5680	-596	1800	198	-16584	28680	21952	1198	-5166	4067	-20520	-288	-14448	-509	-6664	1405	-5736	-7096	-9296	-2700	-1144	55	128	129	1
-7856	-6628	12860	73	195	295	-16200	-3872	-3672	-260	1158	-184	-16960	-2328	-2912	-467	1578	322	-24584	31096	22432	953	-4578	4998	-26640	-1888	-18936	-589	-6876	1711	-5680	-4768	-4064	-2849	-1166	-163	127	128	1
-7144	-7724	13776	7	457	435	-17256	-4744	-1808	-701	1164	-220	-17456	-4608	-752	-451	1560	418	-32768	20680	25656	2621	-3600	5408	-27856	-8	-20288	-63	-6465	1439	-7264	1896	4560	-2449	-1139	198	211	127	1
-7568	-7740	13944	-72	766	585	-18224	-4648	-672	-928	1333	-173	-18816	-5216	1056	-286	1374	381	-32768	22976	21136	2216	-3300	4390	-25256	5768	-19560	780	-5361	1393	-17120	7256	16080	-1116	-959	1155	159	128	1
-7996	-7188	14740	9	1170	687	-17656	-6136	-496	-899	1593	-104	-18632	-5176	3120	-539	1326	260	-32768	3528	10840	862	-2906	2736	-17712	4672	-22480	-955	-3855	1342	-23424	6120	31304	1206	-380	1127	107	127	1
-8576	-7824	15040	-67	1676	863	-19568	-4984	-952	-701	1915	-25	-19288	-2840	3360	-893	1280	73	-32768	-6976	2240	1873	-2288	532	-12376	-2992	-25144	-291	-1880	575	-20904	8616	31392	2413	373	1120	105	126	1
-8436	-6044	15496	-45	2261	1013	-19704	-3024	-1920	-729	2196	50	-18440	-3384	2152	-940	1246	178	-32768	-5656	-1680	492	-1129	-1128	-1248	-3776	-23832	1784	693	588	-17896	9080	15912	2162	262	599	102	125	1
-8016	-5376	15812	-175	2947	1118	-20008	-2408	-1648	-666	2468	203	-19392	-4568	2832	-967	950	344	-32768	3432	3568	-813	640	-1785	-7496	-248	-23736	1746	3182	109	-12680	7776	4864	2261	353	366	103	124	1
-8112	-6600	15316	-502	3614	1378	-19912	-2424	456	-615	2754	262	-20208	-3944	6224	-852	421	417	-29616	6736	7968	-593	1472	-1633	-14992	-640	-19456	1239	3713	-337	-11240	6704	3040	2088	466	329	126	124	1
-9852	-7860	14264	-778	4339	1855	-21352	-2136	2064	-900	3079	230	-21024	-4048	10488	-671	-534	316	32767	-21128	-1912	-4141	4131	-2782	-32768	14776	32767	10363	1380	-455	-3432	11400	-20600	1971	2233	-1416	121	124	1
-8908	-9764	17572	-1045	5454	2492	-27176	-2616	3896	-1698	3374	284	-21936	-7992	15832	-1277	-1936	-163	-32768	8328	32767	-872	4668	-3169	-2232	21664	-32768	-5673	821	513	-32768	31456	32767	-2932	427	3268	88	123	1
-13356	-15592	18148	-826	6847	3473	-32768	4568	7376	-2533	3525	403	-20792	2640	13304	-1379	-2735	-62	-13952	31208	16824	-360	2564	-2549	-28872	-11184	-13840	-6134	5051	-2366	-17672	-24296	-9344	-6952	3071	-2354	122	125	1
-19220	-11900	21428	-343	7116	4307	-32040	-9984	5240	-3816	3502	449	-25432	1816	4176	-1643	-1875	579	-5544	1840	18840	-563	2486	-943	-19680	2304	-10408	-4520	2875	-235	-16808	-22632	-14680	-4945	152	38	202	126	1
-25432	-20024	25972	840	6900	4884	-27488	-15088	592	-2980	3302	671	-25984	-9920	-13032	-1986	-1060	-303	-24656	32767	13336	-1271	248	-637	-5984	5960	-20016	-3915	2192	254	-3144	-5656	-3408	1072	324	-358	122	133	1
-23000	-19820	32728	-1041	5638	3373	-24216	-8224	-8248	-486	3342	1032	-29200	-5200	-10064	-284	-2335	-1044	-6912	14824	12176	-623	49	-350	-15552	-5896	-16176	-1892	1550	385	-18464	6912	-15656	3121	2708	187	93	129	1
-32768	-32768	32767	166	903	620	-17736	-6680	-19656	1399	2436	1131	-31096	-1008	-6344	855	-3026	-1203	-4712	10424	13616	-368	-5	-123	-26072	-5864	-12120	2644	1530	346	-23792	4872	-9720	3116	2680	1524	99	129	1
5604	-15084	23900	1916	-1952	-114	-23624	-5360	3184	-783	345	197	-32768	832	-9848	1689	-3295	-1297	-3760	9272	14136	-176	4	-64	-18272	-2272	-8224	4364	1016	622	-18320	6040	-2656	2099	1688	668	125	129	1
124	-11680	18536	-471	-2738	-128	-14904	-6888	-7976	1473	-626	182	-28016	4080	-8896	777	-3119	-1661	-3296	9400	13928	48	44	-56	-17528	-1496	-7712	4570	936	710	-15416	3760	-1136	1170	1739	-361	127	130	1
-1332	-19992	14664	236	-4122	-721	-9088	-2928	-7648	1858	-1610	155	-22680	4632	-7784	-525	-2851	-1220	-3320	9808	13264	190	75	-62	-17096	9592	-2024	2872	471	783	-15096	5072	-1696	769	1526	-1253	216	131	1
-1724	-11180	12024	500	-4869	-1311	-8376	1920	-6768	960	-2528	-108	-18384	-520	-7616	-983	-2552	-1280	-3136	10360	12648	216	69	-80	-13624	9920	-1032	-366	602	361	-13248	4832	320	686	1566	-1193	110	133	1
-3976	-9380	10408	-241	-4991	-1751	-10032	-240	-6344	152	-3541	156	-15560	-2480	-7104	-197	-2492	-1636	-3296	10432	12464	156	42	-126	-15632	8432	-2528	-2432	888	-235	-14200	6128	0	310	1690	-1018	182	133	1
-6032	-8660	9988	-580	-4958	-2108	-8272	1128	-6552	-177	-4302	62	-13560	0	-7800	808	-2274	-1528	-3080	11224	11624	37	45	-152	-17504	2016	-2512	-3056	632	-337	-14944	3968	-64	107	1917	-809	120	131	1
-7592	-7808	10796	-886	-4783	-2440	-8016	1272	-7152	-499	-4836	-54	-11120	2328	-8736	1396	-2013	-1190	-2904	10584	11576	-187	73	-197	-17040	-6016	-3560	-859	415	174	-14376	2656	1696	83	1943	-466	105	134	1
-8040	-7984	11012	-942	-4761	-2496	-10144	-712	-8080	-547	-5246	-230	-8416	4488	-9416	1318	-1804	-930	-3704	9920	13024	-245	109	-213	-14456	-1992	-2592	1771	659	420	-13112	2856	3072	-54	2040	-370	112	133	1
-13072	-11444	14916	-1190	-4921	-3196	-11976	-1176	-10176	-208	-5722	-369	-7016	5192	-9720	811	-1600	-712	-3720	10088	12864	-156	120	-163	-14816	4864	-1072	2291	843	413	-13696	6912	4272	335	2382	-506	129	133	1
-15580	-11632	16728	-1446	-5013	-3432	-13088	-2184	-9352	153	-6155	-567	-6504	4144	-9216	831	-1498	-552	-3696	10432	12392	-182	136	-151	-16616	10184	-200	1124	895	95	-15600	9864	2624	913	2752	-778	122	133	1
-18720	-13860	17784	-1638	-4979	-3502	-15352	-1760	-9888	877	-6430	-927	-5424	4712	-8504	1312	-1351	-331	-3312	10720	12568	-229	123	-178	-15904	7752	1328	-577	1034	-149	-18416	8080	-328	540	2501	-662	119	134	1
-23332	-17924	19348	-1490	-4741	-3736	-18416	-1520	-10968	1492	-6618	-1133	-3856	6688	-8080	1916	-1234	-35	-3424	10584	13600	-263	143	-285	-15992	3464	-2184	-1375	1245	-155	-18632	7328	-536	420	2361	-563	191	134	1
-28876	-16048	21856	-1216	-3988	-4573	-24048	-3952	-15248	2496	-6668	-977	-3304	4496	-4184	1851	-1134	256	-3520	10112	14200	-142	218	-386	-17240	-1096	-3344	-749	1476	21	-16832	3472	536	-101	1608	-138	97	136	1
-32768	-8188	20936	-1439	-2839	-5275	-28432	-4608	-18528	2792	-6225	-292	-6640	-6048	3936	1776	-1061	-260	-3368	10632	14008	-91	468	-650	-17080	792	-2824	496	1559	130	-15984	3720	2376	314	1633	-252	124	139	1
-32768	-4412	13240	-856	-2472	-4815	-24744	-3880	-19784	1620	-5058	18	-17152	-10144	13520	1909	-1190	-1669	-3008	9672	15760	72	829	-775	-17288	2584	-2088	1143	1812	150	-16944	5384	3736	799	1475	-219	121	138	1
-32768	11832	-1612	-129	-2494	-3352	-13544	-7440	-26320	1039	-3635	-439	-25976	-3016	22832	1009	-475	-1084	-2896	10544	16864	160	1259	-1027	-21184	2472	-2040	1023	2123	-14	-19768	3152	3720	1201	1417	-31	119	137	1
-32768	29572	-14056	-1876	-1688	-922	-10528	-2584	-24832	-299	-1603	-756	-23104	-496	19824	-1142	186	58	-3952	9144	17504	303	1912	-1167	-21672	752	-3304	763	2392	-133	-20144	4464	3848	1512	1281	-90	132	134	1
-32768	17472	-15668	-1295	-532	887	-7120	-4544	-24416	-1801	501	-612	-18424	-7720	11080	-2425	273	340	-3760	9064	18024	619	2653	-1346	-21992	392	-2920	258	2716	-381	-19808	7568	4056	1475	973	-211	123	130	1
-32768	5720	-10416	1510	406	1620	-6816	-6064	-25064	-1647	2405	-116	-14632	-13792	4496	-1899	900	-384	-2728	10760	17496	1119	3358	-1697	-22544	184	-1160	-128	3098	-554	-19856	9216	7456	920	412	-291	124	125	1
21632	-32768	-108	4941	4084	3306	-16464	-25016	12208	-2885	3446	132	8976	-7704	-11024	-1104	1820	-334	-3272	10888	17968	1765	4001	-2367	-24536	-848	-1720	47	3486	-536	-20800	12040	15568	593	-985	-276	125	142	1
-21972	26208	16748	1088	5690	2435	-32768	2304	-15176	6230	3384	-1055	-29872	-23208	12024	174	1334	381	-32	20656	18120	2056	5147	-3334	-32768	-4512	8592	1254	3814	-868	-25096	11720	19624	663	-2074	156	132	130	1
-30400	12888	32767	865	3298	2399	-14480	8360	-20144	7953	4179	1653	-29440	6888	2784	4932	1705	426	-6016	25872	24152	1598	6281	-4808	-32768	-3384	6192	2850	3974	-537	-24944	-3784	17984	-306	-2879	-327	109	128	1
-19232	-22020	8608	678	2398	1536	-21824	5592	-8448	858	3668	389	-17856	20432	-13152	4198	1882	521	-10080	32536	30544	652	6832	-5712	-32768	10864	1960	2844	4006	-679	-22616	-5400	4664	-187	-2033	-698	109	123	1
-32768	-3172	26480	1148	-62	587	-11880	-16072	-19928	282	2497	-1046	-11520	6584	-13600	-9	1105	-158	-10664	26496	27712	-31	6808	-6070	-26368	10816	4704	1527	3929	-835	-28128	6728	-14928	1888	-1550	-153	136	126	1
-10684	-6948	11876	730	-89	391	-11976	-12576	-14016	516	2256	-1253	-11464	-2376	-12480	-2461	2204	363	128	21664	28400	1397	4793	-4160	-23616	4544	-15640	-1386	3463	-832	-31296	7552	-8776	1706	-2415	856	135	127	1
-9036	-7216	13252	262	40	64	-22216	4000	-10384	86	1557	42	-19136	-7368	-12472	-1167	1969	-138	7968	32767	32767	-292	-1121	-536	-18968	5352	-8032	-2206	1884	-815	-32768	3728	-4968	188	-3225	1140	125	127	1
-8056	-7588	12680	118	69	27	-16400	-240	-5344	-2415	966	-377	-18720	1320	-3912	34	1802	-240	14640	8752	15808	-2224	-2154	-744	-26496	-1832	3968	856	157	-125	-32768	680	-8320	-1071	-3769	1195	122	124	1
-7652	-6260	13068	-6	136	40	-15752	-1648	-4896	-3122	734	-620	-17232	2376	-1592	-428	1966	21	8288	11280	14136	-263	-2883	-427	-10880	-2640	-7264	-293	-1270	183	-25600	-1664	-6696	-751	-3502	1791	122	125	1
-7564	-6680	12692	-100	197	41	-16096	-8928	-3592	-2179	576	-536	-16432	-1968	-2424	-1231	1841	832	11192	17904	10136	-859	-3285	1118	-3888	-5544	-5488	953	-1919	113	-20720	-2376	-7176	322	-2973	1563	120	128	1
-7784	-6972	12360	-133	203	80	-15328	-9392	-2800	173	755	-390	-14504	-4560	-2040	-967	1732	1258	5280	8208	10960	-673	-3351	2477	-9496	-2488	-6184	1738	-2796	277	-18592	-672	-7920	1448	-2781	1537	126	127	1
-7536	-6992	12044	-108	179	115	-15104	-8992	-2880	487	798	-360	-14136	-3808	-1160	-281	1655	1162	896	10760	12688	210	-3615	3360	-10464	88	-6952	1443	-3925	482	-16096	1712	-8344	1205	-2397	1741	136	124	1
-8000	-8052	11340	72	129	155	-15144	-560	-2424	1153	852	-54	-14736	-3232	-2224	101	1761	869	-1784	10312	13928	184	-4039	3682	-7624	240	-6968	716	-4744	645	-13328	856	-9352	212	-2111	1471	130	123	1
-8024	-6880	12364	159	103	165	-16768	-1000	-2568	-34	726	-310	-16096	352	392	178	1907	631	-4376	9512	15480	443	-4612	3605	-6200	912	-6192	116	-5363	1001	-11080	-712	-10056	-873	-1856	914	127	125	1
-8272	-6280	12340	104	110	145	-15720	-2072	-1616	-976	675	-352	-14760	1784	1408	181	2079	701	-7848	13288	17648	730	-5330	3433	-9120	56	-8616	-378	-5677	1175	-8344	-1624	-10224	-1288	-1735	499	126	127	1
-7936	-6540	12288	86	105	143	-14888	-4008	-1136	-1325	791	-322	-14096	-1096	1896	-311	2421	796	-9696	14984	19968	882	-6068	3378	-12584	-1568	-9768	-393	-6227	1254	-6168	-3312	-10200	-1191	-1540	319	128	128	1
-7880	-6604	12564	69	105	154	-13928	-6424	-1416	-803	912	-274	-15440	-4944	1960	-851	2690	685	-12472	17192	20640	1258	-6468	3246	-17040	-2792	-8520	160	-6758	1433	-4408	-3464	-10552	-1161	-1101	315	128	128	1
-8128	-7084	12368	66	113	194	-14720	-6072	-1496	-186	1099	-245	-14672	-4704	-3096	-745	2432	399	-13752	22352	21440	1152	-6243	3407	-17552	-4248	-10376	565	-6776	1560	-3944	-4144	-10936	-1594	-779	150	135	129	1
-8160	-7120	12540	63	155	295	-15824	-4264	-3408	-6	1217	-205	-17304	-2264	-5544	-433	1903	130	-15864	29328	24496	882	-5363	4067	-22288	-1808	-14336	449	-6918	1667	-3968	-4792	-10960	-1763	-737	95	130	130	1
-7676	-7080	13032	101	330	493	-16832	-3120	-3720	-353	1207	-253	-18248	-2432	-3344	-379	1594	270	-25000	22944	28904	1384	-4116	5245	-30664	416	-16488	-220	-7035	1835	-5152	-2024	-3776	-2827	-914	-157	103	129	1
-8184	-6564	13572	8	637	595	-18104	-2784	-2296	-915	1222	-251	-18512	-4176	-912	-514	1532	407	-32768	26440	27400	2413	-3129	5697	-29048	3168	-21720	-619	-6474	1408	-7888	5456	5616	-2589	-1106	397	159	128	1
-8276	-5976	14372	30	996	683	-18032	-3800	-1456	-1076	1386	-190	-19016	-5072	2088	-367	1319	411	-32768	18328	18016	1150	-2760	4823	-23688	7648	-20672	-1458	-5032	1221	-25288	9976	24192	-2103	-1653	1585	159	127	1
-8348	-7000	14716	-25	1478	768	-18192	-5328	88	-862	1765	-17	-19008	-4520	5240	-420	1249	228	-32768	-12992	6936	1340	-1637	2787	-15552	5456	-32768	-4242	-3217	522	-18056	10672	32767	476	362	385	121	128	1
-8500	-7000	14896	-53	2002	923	-18824	-4184	-680	-551	2137	47	-18240	-2504	5472	-884	1260	61	-32768	-4520	-3024	1345	-1616	81	-4776	-8240	-29528	-1134	-348	-14	-24752	3304	29288	466	282	699	112	127	1
-8316	-5508	15444	-78	2582	1023	-19048	-2688	-2208	-436	2454	177	-17640	-4760	2744	-1161	1205	218	-32768	-1208	808	-866	21	-2013	-1160	-2096	-24464	2152	2256	607	-18248	5872	11024	1921	176	185	97	126	1
-8076	-6584	16004	-314	3251	1258	-20672	-2784	-696	-445	2725	308	-20144	-6432	3448	-1005	745	427	-32768	10248	6416	-1218	674	-2139	-12448	2984	-25920	2792	4038	-52	-8512	1872	-1304	2486	624	141	115	125	1
-9624	-8300	14496	-555	3948	1760	-22160	-1400	1432	-800	3002	289	-21336	-5704	8152	-668	-105	496	32767	-7616	-440	-4388	3938	-4050	-32768	20592	32767	11973	2169	-130	-5312	6184	-3040	3341	440	-783	127	122	1
-9604	-8560	17316	-639	4863	2390	-25656	-4624	2208	-1467	3236	382	-22096	-10912	13872	-635	-1226	102	-32768	11864	32767	-677	4888	-2834	-7744	16312	-32768	-4597	1180	598	-25664	32767	10112	1119	2194	1930	123	123	1
-12588	-17848	16980	-359	6227	3421	-32768	1344	11448	-2114	3428	616	-25568	-7592	15400	-1075	-2766	-403	-15280	18512	23064	-237	2668	-2708	-21784	-7888	-15072	-4468	5132	-2004	-19064	-17376	-11232	-5093	2454	-1743	128	123	1
-26768	-17800	23532	310	6776	4544	-32616	-8952	4176	-2998	3711	561	-24992	1672	12072	-368	-2318	579	-9920	12824	16904	-190	2748	-1390	-21200	4768	-14136	-3797	2876	-185	-15744	-19664	-13024	-4504	-121	104	168	123	1
-23100	-18644	25440	2096	6385	5384	-28672	-14600	5096	-2459	3326	684	-23592	-5264	-11144	-914	-1108	-133	-17392	28640	10248	-1376	62	-842	-7824	10384	-23936	-4587	2499	64	-13976	-1776	-1624	869	232	72	137	128	1
-22364	-24612	25512	26	6384	4183	-23984	-7672	-14344	-245	3558	786	-28416	-7136	-12744	-356	-1828	-1084	-6352	5344	15088	-557	38	-452	-16816	-2440	-15696	-2880	1473	630	-17472	8024	-14304	2483	2601	-525	166	128	1
-32768	-32768	32767	172	2305	1963	-17144	-3912	-27936	1740	2951	1313	-32768	1328	-7880	537	-2890	-1392	-4088	8296	14808	-331	14	-177	-23368	-8880	-11432	1454	1478	117	-19712	4216	-7400	1825	2531	797	96	128	1
1240	-25488	27524	2523	-1905	162	-24384	-2112	2024	-520	684	233	-32768	2408	-8352	1266	-3219	-1126	-3544	9736	13400	-190	21	-83	-17440	-1488	-7176	4123	1263	394	-18824	3904	-2840	1320	1875	542	120	129	1
1856	-7976	19604	-77	-2337	110	-15296	-3184	-7304	911	-321	130	-28072	4152	-8872	1038	-3075	-1784	-3208	10176	13240	-63	51	-116	-14352	560	-5072	4962	1012	754	-14712	4160	-816	1053	1734	-136	130	128	1
-624	-21628	15408	-236	-3658	-796	-10008	-1440	-7328	1132	-1440	255	-22520	7000	-7248	-223	-2967	-1471	-3224	9608	12896	51	88	-136	-18448	8552	-1136	3659	607	813	-14744	5496	-432	704	1669	-918	214	133	1
-100	-11972	12352	390	-4497	-1434	-6960	3080	-6416	44	-2417	-267	-18896	2808	-7432	-1183	-2514	-1179	-3496	10072	12528	128	113	-163	-14496	10624	-1488	75	662	381	-14368	4080	264	498	1564	-1116	140	132	1
-2288	-8748	10776	-589	-4607	-2006	-10632	-1696	-6112	-498	-3434	-208	-16416	-1584	-7528	-788	-2370	-1498	-3224	10664	12672	98	80	-189	-15136	8328	-2296	-2421	1078	-304	-14928	5288	320	336	1555	-1025	84	134	1
-6084	-9344	10484	-976	-4662	-2346	-8928	-968	-7000	-119	-4283	-403	-14584	184	-7720	239	-2224	-1532	-3336	11520	12048	-52	85	-225	-17288	3728	-2904	-3442	912	-552	-15352	4200	-552	292	1869	-648	135	133	1
-7380	-7128	11084	-1375	-4607	-2598	-7312	648	-7000	119	-4795	-476	-12592	2560	-8424	986	-2028	-1188	-4048	10816	12560	-210	81	-244	-17400	-5208	-4824	-1919	532	19	-14784	2792	720	468	1870	-667	124	131	1
-7836	-7076	11476	-1472	-4581	-2640	-9496	-488	-7872	292	-5180	-680	-9256	4792	-9120	1259	-1821	-942	-3912	9744	13256	-142	131	-222	-15784	-5200	-4408	969	657	326	-14712	2152	1000	412	1864	-639	118	133	1
-13300	-10968	15464	-1857	-4732	-3167	-12016	-1016	-9840	681	-5606	-801	-6728	5824	-9712	843	-1649	-745	-4064	9936	12944	-46	152	-190	-15288	1488	-3208	2423	851	439	-14056	2608	696	356	2320	-700	135	133	1
-15096	-10752	17172	-2009	-4824	-3459	-13528	-1128	-9112	739	-6068	-804	-5552	5048	-9592	600	-1494	-548	-4232	10216	12784	-33	153	-170	-16296	7408	-2464	1866	829	274	-15664	7440	2048	698	2791	-842	120	133	1
-17872	-12164	18944	-2155	-4708	-3613	-15568	-136	-9544	992	-6382	-1030	-5016	4520	-8952	730	-1356	-382	-4336	10200	12904	-49	146	-199	-15888	7304	-2144	298	815	7	-15584	7688	1600	749	2851	-855	121	135	1
-21196	-15168	21132	-2139	-4420	-3860	-18968	672	-11456	1104	-6674	-1166	-3776	5840	-8704	1084	-1173	-156	-3576	10280	13392	-44	147	-275	-15368	3648	-2104	-695	969	-69	-17184	4048	-3384	358	2170	-550	127	134	1
-28176	-14040	25064	-1957	-3850	-4580	-23656	-1880	-15408	1333	-6906	-1013	-3336	3968	-6328	1189	-1022	136	-2808	12192	13752	-51	297	-465	-15752	2032	-1688	-774	1200	-8	-17952	4192	1216	-329	1560	-348	165	137	1
-30224	-12712	25208	-1935	-3724	-4716	-26536	-4040	-18168	1147	-6536	-642	-4992	-5120	1304	1582	-931	-319	-3656	10680	13632	38	493	-633	-17640	688	-2032	28	1396	130	-17416	5536	4456	-127	1568	-278	4	136	1
-32768	-4708	16956	-1295	-3068	-4537	-25184	-6184	-18416	381	-5477	-420	-15256	-12168	13336	1326	-1143	-1734	-3496	11552	14848	158	783	-749	-18056	2224	-1296	876	1700	76	-17472	5704	5368	537	1527	-226	86	134	1
-32768	12912	-768	92	-3261	-3139	-15064	-7984	-25520	1118	-3781	-789	-27176	-8480	20752	395	-1008	-1641	-3960	10208	15512	133	1242	-987	-20600	1776	-1928	1002	1987	36	-19184	2520	5016	900	1461	-71	130	140	1
-32768	32592	-12936	-1316	-2040	-749	-11336	-1216	-24992	787	-1779	-672	-23520	-1680	23448	-378	-159	224	-4016	9256	16960	261	1767	-1113	-20520	336	-2632	813	2274	-143	-18520	2672	4472	1243	1342	-130	126	139	1
-32768	21772	-11404	-1148	-703	926	-8040	-936	-25544	-828	488	-378	-19768	-6456	11704	-1657	20	292	-4040	9256	17304	589	2430	-1229	-20400	1456	-3336	265	2567	-391	-18616	5528	3064	1637	1150	-289	124	137	1
-32768	12168	-7540	1552	50	1628	-7344	-2120	-24296	-1594	2312	38	-16288	-12200	7800	-1566	317	-190	-3408	10352	16768	1003	3060	-1513	-21752	1280	-2384	-241	2851	-565	-19600	8800	4664	1441	724	-392	126	114	1
-244	-18276	4376	4862	3113	1940	-11888	-14088	-11072	-2269	3646	128	9600	-5376	-9256	-1811	1870	-20	-2576	11736	16952	1569	3632	-2100	-23648	-1272	-800	-112	3215	-609	-20600	11664	10456	830	-241	-388	129	120	1
5944	17496	15580	1749	4667	3052	-32768	-920	-11896	4040	3020	-554	-30768	-18872	6976	48	1398	703	-1368	16400	17856	1845	4687	-2863	-32768	-1560	4592	887	3621	-896	-24944	14784	16792	655	-1429	-30	128	127	1
-32768	6576	32767	1316	3394	1983	-11824	-9296	-7448	8174	4091	1277	-31160	-2360	6416	4618	1016	-203	-4576	21280	22840	1569	5928	-4243	-32768	-5016	7320	2104	3806	-811	-25336	3984	22240	-128	-2833	-89	121	118	1
