#Activity	walking 
#ActivityID	1 
#Date 10-20-15-37
acc_rf_x	acc_rf_y	acc_rf_z	gyro_rf_x	gyro_rf_y	gyro_rf_z	acc_rs_x	acc_rs_y	acc_rs_z	gyro_rs_x	gyro_rs_y	gyro_rs_z	acc_rt_x	acc_rt_y	acc_rt_z	gyro_rt_x	gyro_rt_y	gyro_rt_z	acc_lf_x	acc_lf_y	acc_lf_z	gyro_lf_x	gyro_lf_y	gyro_lf_z	acc_ls_x	acc_ls_y	acc_ls_z	gyro_ls_x	gyro_ls_y	gyro_ls_z	acc_lt_x	acc_lt_y	acc_lt_z	gyro_lt_x	gyro_lt_y	gyro_lt_z	EMG_r	EMG_l	act
17564	-9548	13192	721	-5803	-937	-13432	-5600	592	494	-1222	326	-30288	4696	-18456	908	-2768	-1618	-7656	7536	13184	71	500	-284	-19224	-40	-8040	-1425	536	-318	-21912	896	-9688	-777	2392	-652	110	105	1
11672	-10692	11940	53	-5114	-1288	-5280	2848	-3016	1120	-2683	253	-22280	4744	-15648	143	-3131	-974	-7360	7096	12792	67	623	-292	-18112	-7856	-6808	-204	422	193	-15952	-4400	-2952	-842	2557	231	114	87	1
2164	-12272	13412	-80	-5268	-1857	-3632	1576	-4736	2	-3550	732	-13296	3592	-14864	393	-3373	-682	-8200	6520	12808	66	689	-286	-18592	136	-4792	1550	330	310	-13648	-1024	-2760	-151	2969	380	114	75	1
-5052	-12224	13280	-80	-5858	-2617	-4848	-1000	-5576	-186	-4446	496	-5768	4976	-14744	592	-2980	-826	-8200	8464	11520	51	661	-278	-15624	7664	-2544	1453	416	186	-15440	-432	-1984	1066	3072	368	103	72	1
-5688	-9316	11024	-149	-6111	-3180	-5264	-416	-5416	-99	-5159	356	-4256	3984	-15336	396	-2467	-925	-7912	8352	11488	-58	581	-352	-15592	6216	-1968	457	372	8	-14256	-40	-1976	1485	2732	568	107	74	1
-7552	-9324	11944	-170	-5906	-3474	-6784	-2400	-5992	849	-6027	245	-4216	3000	-15168	368	-2095	-801	-8080	8128	11736	-140	588	-505	-16464	848	-2280	537	533	35	-13104	2936	760	665	2234	437	117	92	1
-11536	-9652	16664	-348	-5798	-3524	-11144	-208	-9608	698	-6145	338	-608	3600	-13984	710	-1783	-492	-9312	5424	11632	-82	619	-517	-16048	-256	-3272	698	572	145	-12168	-416	2552	-167	1853	646	119	100	1
-19216	-12524	21640	-658	-5931	-3645	-14256	-3160	-11520	754	-6643	296	-592	2456	-14400	1413	-1607	-158	-8936	6536	11088	3	631	-443	-15208	1464	-1944	902	700	51	-16688	-2320	-1624	989	2772	849	120	106	1
-25812	-15780	24592	-599	-6073	-3871	-18424	-3744	-12776	1144	-6993	338	-1064	2952	-14440	2323	-1543	-50	-9144	8320	11160	3	661	-516	-16384	3008	-992	761	875	16	-21680	-472	-4360	1435	2350	802	120	102	1
-31744	-19336	26544	-499	-5905	-4435	-26504	-4968	-16384	1669	-7156	332	-2240	4520	-7520	2047	-1689	-60	-9304	7312	11272	-53	731	-629	-17936	448	-672	937	1122	6	-21352	-488	2208	971	1844	616	120	105	1
-32768	-18416	26368	-157	-5272	-5207	-30440	-2504	-19336	1232	-6951	661	-5208	-664	-328	1659	-1719	-278	-9696	5800	11776	-75	896	-646	-15640	2808	1872	1086	1430	-87	-17896	4088	5936	1138	2123	491	122	111	1
-32768	-13812	18224	111	-4712	-5303	-21160	-16592	-20272	1005	-6338	898	-7696	-4024	312	1290	-1389	-535	-9296	6648	12672	-110	1140	-636	-16176	4224	1576	422	1783	-325	-16520	2528	4408	757	2114	473	117	110	1
-32768	-5076	88	85	-4024	-4075	-22640	-11240	-23544	864	-4845	165	-28920	-584	32320	1041	-3698	-753	-9304	5992	14528	-84	1556	-677	-20256	1864	1896	-269	2117	-586	-17488	1576	3440	617	2005	452	124	122	1
-32768	7408	-19356	-336	-2643	-2342	-10136	-9536	-32648	1819	-3027	-127	-30528	18312	15464	647	-2677	-1792	-8976	7664	15256	-53	2229	-821	-22568	-72	1816	-417	2517	-721	-26504	1808	6048	171	1125	-11	114	116	1
-32768	16144	-26056	-1376	-1236	-916	1096	944	-32152	-641	-720	-353	-6176	-3048	32767	-722	351	-235	-8760	8056	16200	-48	2930	-1109	-23224	2552	2880	-366	2947	-810	-25304	1432	9160	45	779	-202	112	104	1
-32768	13300	-28236	-1451	-61	842	80	-7720	-30560	-2242	1651	-1185	-15416	3616	8848	-825	2121	-510	-7944	11128	16528	31	3766	-1582	-25696	3736	4440	-563	3339	-984	-27432	-432	11168	-166	-16	-50	99	99	1
-32768	4348	-12560	-1830	1117	1711	-7008	-10872	-30520	-567	3471	-986	-15440	1584	-7424	-2446	2542	-398	-4448	15904	16320	238	4758	-2664	-28184	-1432	6376	-302	3689	-763	-27704	-5024	16328	3	-933	-313	100	92	1
32767	2484	32767	3192	4445	1258	-32768	21512	32767	808	1623	399	1184	-7944	-23376	-2510	4199	-326	-5584	14240	21784	399	6373	-4058	-32768	-3456	8128	1046	3832	-443	-27824	-2840	29704	558	-2963	-281	97	77	1
-32768	32767	32767	940	5848	2970	-11480	-80	-32768	8580	3484	-579	-32768	-29504	-2792	3566	-57	-868	-31496	19664	20696	13	8237	-5053	-32768	3400	4160	2041	3894	-534	-27176	-16464	19976	-1525	-1798	-846	18	17	1
-22860	-29660	12572	329	3280	2035	-12984	12368	-20024	1017	3798	678	-25280	32767	-11712	5335	1931	3	-32768	12000	30992	650	8225	-5017	-32592	1096	-8912	589	4575	-747	-20392	2856	-1864	5320	-2036	-960	48	29	1
-20360	26124	29152	1240	1344	1091	-25632	-20696	-24192	2280	3178	-2109	-4320	13112	-20640	-1493	892	-385	-32768	32767	31272	399	7235	-5355	-32768	15576	-3376	775	3835	-883	-32768	13472	-27272	4952	-2381	98	75	58	1
-12440	-20920	11860	708	555	500	-8936	1808	-18016	-1274	2425	-946	-9944	-8032	-21520	-1475	1446	1435	-7496	32767	32767	-699	3719	-4725	-24992	5432	-21440	-1224	2718	-161	-32344	5248	-14008	1468	-3424	1119	146	147	1
-9496	-7836	13632	266	175	191	-16096	-2208	-14264	-3166	1881	-828	-23312	-2800	-16632	-732	1944	-928	-9056	32767	32767	828	-2701	-323	-20264	-1760	-11560	-575	2170	-742	-32768	1512	-12080	-944	-3290	761	184	195	1
-7504	-6508	13224	292	138	180	-21544	-12808	-9488	-3035	1252	-824	-15024	-8024	-9592	-196	2127	-321	14904	23520	18936	382	-4591	1257	-14256	-616	1112	1344	-283	-193	-32752	-6232	-16696	-471	-2903	493	189	186	1
-7756	-3256	15672	107	239	165	-15792	-9960	-7760	627	1124	-180	-21304	3464	-6984	833	2310	841	13360	17032	13064	612	-4573	1667	-9880	-1960	96	1848	-1660	611	-22112	-7608	-14744	290	-2982	575	175	184	1
-7748	-3928	14896	-138	329	89	-17112	520	-6288	1249	1113	94	-17344	4048	-3616	469	2354	502	6752	15800	12848	781	-4747	1992	-4800	768	-2320	1692	-2917	995	-19176	-4872	-13960	190	-3221	366	174	173	1
-7612	-3984	14860	-155	331	82	-18600	-48	-4336	-120	849	-108	-14728	-2680	-3216	225	2445	222	632	8808	12960	1400	-5154	2540	-4928	-1112	-2672	1005	-3764	1416	-10344	-4080	-15272	-415	-3058	0	157	153	1
-7716	-6304	13768	-48	452	188	-14544	-3192	-4288	-1098	655	-369	-17456	1696	-4432	128	2436	194	-2104	6736	12512	2083	-5398	3133	-7096	-3824	-3864	590	-4619	1694	-4752	-2928	-14632	-397	-2620	30	146	143	1
-8048	-5900	13416	-33	500	250	-16320	-4904	-4496	-1077	616	-259	-16616	2864	-2992	-403	2326	350	-5608	5336	14720	2201	-5350	3416	-6664	-4968	-4480	932	-5158	1980	-3320	608	-15160	-486	-1724	166	137	138	1
-8408	-5368	13712	-10	536	307	-16840	-4136	-3896	-374	573	-95	-13664	680	-1600	-489	2285	344	-11208	5576	19888	2153	-5616	3495	-9752	-1904	-8456	641	-5733	2227	-1256	4000	-15344	-443	-1261	152	142	134	1
-8588	-3988	13800	-58	545	292	-14760	-3424	-4576	88	706	-47	-12736	624	88	-276	1981	609	-18552	9032	24952	2293	-5948	3815	-13744	-2992	-10336	-64	-6230	2245	912	3832	-15704	-1356	-857	-24	151	141	1
-8868	-4472	13396	-72	635	263	-15440	-984	-4672	-235	740	-109	-14272	2112	2928	-350	2082	576	-22168	9400	27104	2131	-6175	4261	-19640	-5136	-9912	-354	-6597	1931	616	3824	-15416	-2227	-582	-92	113	134	1
-8604	-5796	12744	-93	658	310	-16192	-1808	-2920	-843	778	-158	-16304	-104	1480	-896	3017	502	-26744	15000	27576	1820	-6056	4684	-24648	-6160	-15992	-681	-6976	1752	-3024	1424	-11752	-1954	-848	-12	112	131	1
-8780	-6228	12860	-90	650	426	-15528	-2440	-1144	-1280	888	-219	-18192	-440	264	-1338	2425	730	-32768	14792	25976	1553	-5356	5072	-30008	-3208	-16792	-623	-6872	1768	-3592	-200	-5624	-1002	-938	134	152	135	1
-8968	-5672	13096	-28	744	523	-14360	-3656	400	-1278	1190	-217	-21360	-2176	4568	-684	1575	403	-32768	10896	20688	1533	-4609	5007	-25032	2664	-19616	-1344	-6300	1612	-6776	-912	1456	-925	-1491	110	144	129	1
-9324	-4684	13716	7	938	538	-16480	-4136	1016	-830	1583	-74	-20352	-3544	9416	-625	1822	270	-32768	2024	8888	1471	-3456	4943	-23504	-1696	-24280	-2426	-5093	1087	-22376	-672	15624	-1171	-2926	144	133	127	1
-29760	-6680	16784	1742	1994	1417	-13184	16744	-18048	319	2557	-1872	-2064	-2496	-21864	-2236	1010	943	-32768	32767	32767	62	5916	-5611	-32768	12408	-6968	509	3160	-589	-28968	9584	-20680	3754	-2732	739	131	131	1
-11708	5608	18868	387	191	236	-19184	-304	-19264	-2759	2196	-423	-29864	-6744	-23712	-138	2045	69	-32768	19696	32767	-296	801	-2993	-16840	-824	-24808	-1604	2303	-114	-32768	7616	-11872	428	-3579	1100	190	195	1
-8024	-5104	14372	157	155	94	-17184	-8496	-12816	-3250	1522	-678	-18464	-3296	-11832	136	1921	-596	3400	30280	27504	653	-3867	642	-18600	-2704	-960	733	806	-888	-32768	-192	-15048	-1189	-2992	624	178	189	1
-6740	-4356	14860	11	147	45	-17952	-12872	-7568	-781	1150	-489	-19296	-72	-9232	458	2257	616	13488	19144	14552	506	-4435	1261	-13232	-480	1584	1936	-1015	43	-25200	-4936	-16496	-632	-3046	454	189	186	1
-8580	-3128	14764	-192	259	11	-17208	-14656	-8688	-70	1136	-411	-19240	4528	-6960	696	2521	746	10480	18000	12248	511	-4724	1566	-7080	1968	-1224	1937	-2166	724	-23456	-3816	-16784	-305	-3448	561	173	180	1
-8012	-4596	14040	-266	291	-21	-18656	2264	-6080	557	803	-38	-15320	-2768	-3952	447	2466	522	3080	14880	11768	836	-4869	2071	-5328	2592	-3240	1157	-3308	1057	-16024	-3112	-16608	-245	-3067	186	168	155	1
-7332	-6924	13448	-145	308	95	-15256	-3616	-3392	-1138	533	-274	-18080	448	-2912	190	2526	171	-2984	11824	10944	1496	-5241	2890	-7072	216	-5472	185	-4249	1387	-9600	-2400	-16328	-560	-2910	141	146	147	1
-7680	-6480	13268	-23	331	184	-14136	-3920	-3968	-1609	475	-469	-15976	1528	-3176	-721	2474	141	-6928	11296	11096	1975	-5474	3584	-6928	-1648	-5432	74	-4938	1699	-4536	-1576	-15448	-690	-2164	163	140	139	1
-7836	-5656	13512	15	351	224	-16592	-7840	-3584	-843	466	-151	-15672	-768	-3152	-864	2315	323	-10040	10224	13264	2013	-5591	4019	-7376	-1544	-6848	219	-5502	1984	-2432	600	-15104	-796	-1663	238	150	151	1
-7956	-5296	13596	47	396	282	-16864	-3648	-4688	88	460	56	-12736	1000	-1728	-711	2225	512	-14408	7864	18968	2230	-5599	4390	-10904	-2120	-8848	-115	-6028	2232	-272	2064	-15184	-1323	-1266	77	155	142	1
-8624	-3508	14072	-35	432	295	-16056	776	-4784	-138	471	10	-14504	1128	-488	-637	2191	608	-20944	8976	23768	2470	-5820	4628	-14864	-5600	-11504	-328	-6449	2276	2168	2160	-15432	-2144	-930	-103	128	133	1
-8156	-5292	13664	-103	511	329	-15552	312	-4336	-234	474	33	-15568	1648	6416	-656	2045	595	-22968	8944	26320	2560	-5785	4705	-20072	-5104	-12520	-393	-6673	2122	1080	1216	-13240	-1992	-827	-192	113	127	1
-8444	-5708	12756	-115	521	390	-15184	-2568	-168	-1449	674	-231	-15368	1160	6400	-663	2121	555	-30008	12568	29984	2225	-5335	4735	-29208	-5648	-17352	-145	-6965	2095	-2600	1384	-8320	-1103	-1132	1	159	130	1
-8888	-5968	12688	-40	499	481	-12808	-6232	1264	-1229	970	-222	-18048	-2232	4648	-1026	1858	379	-32768	12768	26224	1896	-4991	4632	-27384	-232	-17080	-114	-6562	2177	-6552	-784	-4288	-673	-1025	252	143	131	1
-8628	-5720	13688	7	594	514	-14672	-4736	912	-576	1369	-75	-20824	-2560	6168	-763	1638	457	-32768	6968	17224	1494	-4287	4716	-22176	1032	-20224	-1976	-5767	1677	-10216	288	3512	-626	-1413	401	140	130	1
-8860	-5632	14564	23	880	584	-18984	-2136	56	-521	1700	-42	-22296	-1096	7264	-839	1919	283	-32768	-5504	5416	797	-2659	5050	-23096	-6592	-26632	-2761	-4434	745	-32768	688	19944	-1807	-4026	387	133	136	1
-9024	-4148	15408	20	1308	662	-18968	-1416	1512	-720	2061	-7	-20520	80	10816	-735	2055	290	-32768	-21488	-9720	-237	-888	4020	-8800	-4464	-32768	-2495	-2579	-46	-32768	-22568	16304	-847	-2801	413	125	133	1
-8428	-4868	16736	14	2000	760	-19072	-3736	3840	-354	2587	81	-22240	-760	13416	-466	1428	157	-32768	-28440	-13496	442	-183	1473	1104	-1208	-32768	-1605	-427	-111	-1592	4304	31496	-614	-88	-632	91	68	1
-7892	-5300	17912	32	2872	997	-21128	-2880	2664	518	3171	103	-27528	-1696	14440	-230	564	181	-32768	-20776	-11776	559	296	-990	-2432	-8056	-32768	510	2157	311	-17248	-11600	9456	-2084	1953	-753	78	63	1
-7104	-6352	19380	-25	3951	1369	-27304	-416	2128	573	3589	39	-27520	-5064	16472	253	-305	137	-13408	-26048	80	-3219	2611	-3375	-16440	3008	-20736	2298	4188	-6	-26000	-7032	32767	572	-822	-433	71	56	1
-4396	-10400	21232	-215	5325	2258	-32768	328	6104	-388	3849	-339	-28896	-4168	31200	560	-1977	223	-11480	20384	27104	-2422	4728	-3679	-32768	-2552	1488	-974	2112	-1836	-7504	21176	-13608	3429	2656	693	110	112	1
-1672	-9176	26808	-749	7372	3785	-32768	816	15424	-1718	3860	-471	-32768	-4768	16128	1441	39	359	-32768	16184	28672	-1419	3870	-2112	-6208	-8952	-24384	-6119	2909	-456	-13736	5744	-10544	-1856	698	576	141	185	1
-18780	-11584	23916	-1554	9563	5324	-32768	1544	4840	-3464	3598	-639	-30152	20968	18616	-415	-2243	1234	-13024	3360	16296	-971	3215	-1389	-10096	-8584	-19312	-3102	2950	-1842	-19280	-20848	-20784	-830	1037	774	141	195	1
-32768	-4748	23332	-3675	9956	4363	-31272	-9392	-5448	-5076	4290	-122	-27512	-3864	-17432	-4316	-1329	1019	-16976	6680	15968	-792	1168	-1078	-16824	-8144	-23344	-905	2278	867	-8224	3168	-20288	1099	1176	-62	134	171	1
-32768	-32768	31664	-3529	8216	5174	-32768	-27800	-992	-2942	2506	-14	-31216	1488	-12392	-3703	-2470	106	-15336	4432	16928	-426	801	-730	-21776	-7760	-20192	2571	2176	513	-25432	13064	-18360	161	1770	-121	150	144	1
-6160	-32768	32767	541	4088	5225	-15712	-16288	-28488	2312	1872	-458	-32768	2312	-8376	-824	-2479	-1177	-9320	8688	13456	-218	587	-488	-20256	6592	-10568	2507	1576	316	-17496	2824	-10088	-155	1723	815	139	131	1
-25508	-32768	32767	1491	-4340	-1707	-11304	1824	-5032	1384	1314	177	-32768	-8920	-11968	376	-2068	-1495	-8400	6208	13640	-39	470	-293	-12520	6800	-9392	-531	960	108	-15632	2760	-8848	-71	2024	275	94	126	1
14864	-14836	18408	1321	-5434	-3147	-15104	-4416	2968	497	-1025	1038	-32768	4888	-16760	1334	-2369	-1904	-7928	6672	12432	42	471	-213	-19760	2072	-8800	-1838	617	-201	-18816	4952	-7832	-367	2253	-240	111	115	1
14004	-9188	10872	701	-4801	-3096	-9224	-1576	-1976	1876	-2481	-159	-22632	10600	-15360	432	-3048	-1560	-7840	7808	12032	-31	496	-221	-19560	-4784	-6400	-622	359	84	-16368	2920	-3736	-756	2419	177	123	106	1
1740	-9644	14684	218	-5023	-3093	-2248	2048	-5208	1489	-3359	358	-16424	5880	-14840	201	-3193	-1176	-8056	7768	12016	-73	529	-278	-17176	160	-4312	1122	434	117	-16504	-1672	-3112	-478	2532	405	123	86	1
-4908	-8500	14836	-3	-5725	-3262	-5952	-8	-5656	1030	-4232	432	-6784	5672	-14328	135	-2972	-1052	-8328	6744	11800	-41	524	-310	-15408	4280	-3064	1278	384	234	-14536	-4464	-1904	377	2791	618	104	65	1
-7120	-6684	13636	-179	-6143	-3407	-6944	2544	-6088	463	-5134	301	-3808	4248	-14224	200	-2406	-904	-8496	6736	11376	19	515	-284	-16240	3872	-2368	519	361	99	-13504	-3632	-1408	1741	3183	732	105	65	1
-8444	-4532	13844	-517	-6092	-3369	-8600	1864	-6392	95	-5693	260	-4088	3504	-12768	398	-2181	-866	-8136	7192	11640	-31	477	-336	-17016	872	-2920	204	415	-39	-13728	-3648	672	1878	2746	544	114	72	1
-13304	-7296	17316	-778	-6034	-3129	-11224	-248	-8712	-4	-6241	80	-1648	4944	-12464	916	-1936	-499	-8400	7048	11552	-71	436	-412	-15936	-1032	-2688	858	532	90	-12296	1056	2752	730	2001	266	118	90	1
-20200	-10760	21072	-924	-6202	-2979	-14360	-2008	-10952	-209	-6585	-76	-240	4576	-11632	1256	-1739	-283	-8808	6032	11456	-93	354	-478	-15264	1376	-3704	1177	692	96	-12928	2368	-984	566	2488	717	120	99	1
-22732	-12052	22320	-1125	-6186	-3159	-16112	-3496	-10864	356	-6822	-284	96	3648	-13888	1801	-1686	-170	-9552	6016	11152	-186	302	-430	-15568	592	-2432	1074	819	54	-19840	2176	-5000	1333	2935	929	126	104	1
-27068	-17004	24936	-1366	-5662	-3607	-27640	-5016	-14304	1246	-6941	-317	-1744	3712	-6640	1866	-1798	-44	-9112	6344	11888	-189	323	-463	-17344	1544	-1200	960	972	-28	-22928	1784	-5200	913	2184	729	122	104	1
-32768	-17532	26808	-1105	-4910	-4622	-29304	-672	-18464	1437	-6800	51	-5712	1000	-1224	1719	-1815	-313	-9152	5840	12064	-145	514	-476	-18096	912	464	802	1165	-109	-20152	2464	3816	565	1784	145	123	108	1
-32768	-11220	22872	-527	-4210	-5600	-21616	-8304	-21512	881	-6126	481	-11872	-2800	328	991	-1480	-488	-8616	6576	12968	-107	785	-458	-15768	2912	2936	592	1514	-290	-15376	2320	10120	225	2134	216	117	109	1
-32768	-2300	6840	503	-3695	-4858	-26184	-10504	-22560	348	-4749	296	-27272	-2632	30032	-12	-3325	-1049	-8696	7000	14256	-124	1177	-534	-18264	4424	3936	-39	1986	-546	-22680	-4408	7440	107	1905	281	124	121	1
-32768	9676	-16352	73	-2625	-2342	-10984	-11632	-30640	2051	-3203	-92	-30696	14472	16944	29	-2265	-2203	-8152	7448	15992	-134	1792	-734	-22864	1544	2928	-424	2450	-738	-29200	-192	7560	372	1307	37	123	119	1
-32768	16468	-24116	-1406	-1477	-712	-296	4600	-32768	629	-908	-394	-9176	-3816	32767	-539	-99	-250	-8472	7312	17840	-84	2559	-1005	-24608	1000	1992	-355	2896	-852	-25368	2312	7208	307	943	22	118	110	1
-32768	14948	-26168	-1057	11	445	-1320	-784	-32168	-2361	1339	-1007	-15176	2120	12424	-501	1659	-109	-7944	10896	18392	-100	3481	-1434	-26256	2000	2984	-456	3297	-1026	-29792	-648	8808	30	103	38	111	102	1
-32768	9152	-11104	-1222	1076	1859	-8200	-11352	-32600	-1724	3274	-993	-19000	4000	-7336	-1452	1759	-205	-6488	13104	17792	-10	4390	-2275	-28568	736	5712	-420	3653	-994	-28552	-2640	14144	-117	-786	-354	102	94	1
11844	-5844	18560	3020	2509	1374	-16248	-5960	16584	-1518	3311	-647	11376	10432	-32768	-1388	6058	-385	-2408	14096	21016	210	5691	-3718	-32688	-4112	6464	93	3854	-744	-26752	-1920	30688	199	-2201	-397	98	83	1
30400	32767	-2964	4897	5742	3536	-32768	-32768	17376	3986	1508	-1283	-32104	-32768	32767	683	-363	171	-13312	21264	22392	140	7785	-5110	-32768	-1224	15424	2153	3901	-665	-26264	-15968	26272	-2385	-1847	-848	41	26	1
-32768	-15384	32767	1314	3834	3562	-7576	32200	-32344	9785	3861	1812	-32768	7168	-200	7761	28	-512	-32768	13136	22704	37	8646	-5690	-32768	9224	-4760	1963	4420	-635	-17776	-1264	6608	4225	-1959	-1046	24	26	1
-32768	-20984	21924	2448	2657	1371	-26896	-8856	-25064	115	3509	-560	-23304	32767	-7000	4528	2403	-906	-32768	29360	28136	348	7952	-5793	-32768	17152	-3208	1285	4371	-1259	-32768	18064	-21144	4947	-2072	-375	47	41	1
-10996	-8272	15544	260	1017	710	-10904	23896	-15704	550	2611	-1253	2360	14072	-17576	-1892	561	608	-26008	32767	32767	-11	5267	-5432	-32768	11768	-4664	-32	3054	-641	-29248	7856	-18720	2305	-2816	841	99	90	1
-11872	-468	16948	377	368	324	-7528	-4304	-19192	-2475	2364	-834	-16792	3280	-20176	-2596	1416	805	-32768	32767	32767	-315	-473	-2051	-29992	10360	-10928	-627	2964	-549	-32768	4992	-10424	-747	-3635	1061	160	165	1
-8648	-4476	14528	124	244	100	-18344	-6648	-13792	-3413	1648	-1404	-16552	-10832	-15608	-2802	2126	-1188	10720	29304	23584	-257	-4249	951	-15536	816	848	219	322	-857	-32768	-1304	-15440	-1484	-3017	595	188	196	1
-7324	-6356	13516	69	225	49	-20600	-17520	-8344	-1620	1047	-709	-20776	-18032	-12072	-362	2244	586	15840	19904	12952	-27	-4430	1619	-11424	-1440	608	855	-1380	-37	-25616	-6288	-17352	-385	-2962	730	195	193	1
-8348	-4536	14420	-84	301	58	-15696	-4800	-8608	1156	1082	-29	-21784	6056	-5912	1199	2272	880	10544	17448	12632	214	-4626	2065	-5640	944	-1784	1167	-2711	473	-21512	-1176	-17112	35	-3188	509	163	187	1
-7856	-4308	14388	-227	381	40	-17896	2216	-5784	307	906	-25	-14888	4992	-1816	376	2470	197	1368	13240	12312	938	-5067	2716	-5512	1840	-4336	882	-3791	789	-13304	-160	-17880	-541	-3041	170	175	159	1
-7900	-5736	13768	-239	465	80	-16520	-2528	-3792	-1144	619	-368	-15752	-2480	-3752	-159	2367	-71	-5248	13152	11224	1308	-5565	3407	-6736	1760	-5648	84	-4643	1112	-7520	-240	-16880	-1278	-2701	11	154	150	1
-8080	-6540	13224	-182	490	141	-14304	-6960	-4064	-1449	589	-381	-18112	-376	-4248	-536	2399	308	-8296	12336	11696	1453	-5839	3850	-6640	168	-7032	-197	-5352	1432	-4264	-432	-17000	-1530	-2028	138	148	151	1
-8608	-5944	13060	-126	479	202	-15944	-7456	-3520	-898	546	-178	-14432	-2240	-2320	-671	2268	464	-11928	10928	15168	1704	-5968	4174	-9824	-216	-9584	-279	-6063	1634	-2696	1272	-15456	-1427	-1442	208	137	151	1
-8636	-5648	13072	-85	455	244	-15968	-4640	-3344	-308	630	-29	-11952	-1632	-2320	-278	1918	564	-17744	10992	19376	2246	-5994	4310	-15096	-3144	-11520	-242	-6622	1906	-408	784	-15824	-2130	-1010	85	153	142	1
-8148	-4932	13780	-86	522	303	-14800	-1800	-4496	-286	643	-156	-13920	1392	80	-336	1890	478	-24104	13816	22544	2542	-5895	4274	-18440	-3728	-12040	101	-6852	2093	920	-848	-15856	-2566	-770	-216	143	132	1
-9000	-5164	13068	-149	606	283	-16416	-2152	-4280	-879	688	-123	-17136	3808	4032	-773	2402	348	-29392	15560	27984	2633	-5678	4564	-22688	-1000	-15992	-13	-6932	2208	-1360	-1520	-10472	-1599	-1011	-251	124	130	1
-9104	-5764	12484	-160	619	371	-15840	-2768	-2912	-1296	744	-189	-15056	744	1440	-1691	2748	472	-32768	18320	29800	2652	-5347	4772	-32768	-32	-18784	268	-6940	2304	-3560	592	-5072	-349	-1246	41	106	134	1
-9448	-6216	11964	-116	622	468	-13280	-4296	-928	-1372	926	-173	-17040	-2792	664	-1294	2194	518	-32768	15840	22808	2417	-5011	4155	-27144	4104	-19552	-211	-6598	2573	-6328	-72	-2072	35	-992	387	143	132	1
-9412	-5400	12704	-117	692	505	-13696	-3072	488	-1205	1243	-177	-22320	-1216	5968	-943	1712	268	-32768	14976	21072	2430	-4925	4064	-19688	-2600	-20136	-1450	-5413	2441	-20504	1704	15984	-125	-2375	400	146	131	1
-9168	-4752	14368	-150	989	493	-18360	-3520	976	-847	1645	-61	-21456	-1760	9816	-1031	1958	45	-32768	-8136	-1944	1402	-1789	4789	-18112	-6640	-26928	-1496	-3752	986	-32768	6768	23360	-1670	-4435	964	132	127	1
-9012	-4708	15900	-172	1547	599	-19672	-3672	3288	-577	2127	13	-22848	-656	12360	-916	1932	167	-32768	-32768	-15120	-10	-312	3202	152	-792	-32768	-1959	-1536	450	-12120	-10856	30008	-376	-1356	975	102	84	1
-8284	-6816	16128	-219	2297	783	-20512	-2120	4632	-114	2702	31	-26488	-1728	14312	-386	1095	323	-32768	-26328	-13816	821	604	993	2088	-5112	-32768	-2175	1159	47	-13608	-6480	22592	-1399	1472	123	79	67	1
-8628	-5044	17288	-300	3184	1046	-20664	-2880	2888	267	3279	-11	-24392	-3440	14912	-103	221	232	-32768	9984	1392	-878	1797	-535	-8104	-5976	-32408	179	3573	-5	-21592	-3680	-4120	-962	1354	-335	72	63	1
-6824	-8284	19000	-463	4370	1517	-29200	280	3584	166	3669	-154	-26264	-1256	20088	48	-1129	-20	-32768	32767	-16560	-4061	2657	-719	-32768	2344	32767	3384	3530	-677	-4080	14536	-20800	1055	4159	300	78	66	1
-3112	-11088	23468	-772	6073	2619	-32768	640	9512	-1071	3814	-432	-30040	-3608	32767	-264	-2428	284	-32768	-32768	32767	-2659	4734	-3760	-19816	-5128	-31184	-4754	3424	815	-32768	14712	1240	-4123	-1032	781	135	130	1
-4880	-15796	23856	-1096	8556	4258	-32768	2136	15824	-2024	3634	-373	-30656	18600	3800	-679	-1666	880	-11688	21384	7400	-1224	3486	-1622	-3624	-10152	-27800	-2863	4328	-2834	-29216	-32768	-32768	-4619	1669	-199	131	205	1
-32768	-7480	22024	-2597	10612	4458	-32768	7320	-9992	-2173	4220	-278	-30440	3352	3304	-3075	-1549	1113	-32768	-3896	29064	-1290	2547	-1328	-14480	1600	-24376	-3409	1977	-121	1320	-7288	-17264	1737	712	94	143	186	1
-32768	-32768	28116	-4079	9732	4298	-32768	-17696	-5240	-4126	3327	-59	-31016	-1256	-20384	-4101	-1945	606	-11120	14432	12144	-806	1093	-821	-14536	-5304	-26568	-3330	1926	512	-12968	8376	-21824	606	1692	-393	149	159	1
-32768	-32768	32767	-1946	6400	5096	-24488	-26600	-9664	38	2391	-816	-32720	72	-8880	-2088	-2605	-599	-9064	6040	14520	-169	649	-485	-24384	-3528	-13688	3207	2134	97	-29216	6128	-18808	300	2205	1805	146	141	1
-32768	-32768	32767	841	-276	1912	-13128	-6368	-26632	2009	1701	-374	-32768	-7880	-12008	2	-2152	-1203	-8960	4440	14696	-96	530	-321	-14656	9824	-13120	1439	1017	527	-17120	2840	-9376	130	2003	541	124	134	1
5472	-26468	27896	413	-6078	-1957	-13512	2728	5632	169	94	526	-32768	-552	-16704	1567	-2258	-1617	-8248	6168	13864	112	541	-226	-15448	3072	-10424	-1278	708	58	-17744	1504	-9240	-141	2211	-331	85	127	1
17088	-8724	9816	214	-5759	-2119	-13368	-2784	1104	-101	-1527	41	-32768	2232	-17520	1615	-2335	-1574	-7296	7808	12136	154	579	-172	-20064	-2432	-7680	-1501	360	-121	-15544	5144	-5072	-502	2408	-88	120	115	1
8660	-7980	11324	-180	-5264	-1947	-3696	2920	-1824	306	-2990	-175	-19024	9048	-15312	0	-3337	-1023	-7656	8312	12192	79	621	-236	-19144	-1600	-4784	694	272	198	-16912	2032	-3632	-587	2653	285	132	93	1
1176	-9072	12632	-561	-5403	-2091	-3624	-272	-4120	-244	-3721	153	-7912	5184	-12944	-221	-3265	-803	-7672	8424	11488	145	670	-288	-15688	3072	-2848	1630	315	307	-15112	-3056	-2760	119	2657	509	121	76	1
-4280	-9504	12624	-615	-5741	-2498	-5792	-720	-5192	57	-4622	-74	-3192	3824	-13288	-218	-2622	-805	-8128	6992	11440	146	631	-345	-15640	6664	-1648	1100	362	228	-13784	-3688	232	1306	2867	737	109	78	1
-6552	-8752	12372	-655	-5876	-3000	-7944	-192	-6808	114	-5208	-163	-3856	2488	-13840	-309	-2200	-854	-7848	7704	11136	39	550	-404	-16704	3096	-2000	265	354	30	-14592	-3832	1456	2029	2678	636	118	72	1
-9220	-8708	13824	-684	-5777	-3404	-8344	-1064	-6240	305	-5749	-152	-3408	904	-14096	10	-1950	-666	-8352	6296	11664	16	514	-434	-16144	-3248	-2064	629	501	42	-11512	-440	4744	1107	2188	509	116	86	1
-13984	-9700	17800	-753	-5649	-3620	-11912	-784	-8736	661	-6191	-117	-2232	1600	-11792	603	-1834	-476	-8912	6368	10960	-16	394	-420	-14584	392	-2512	1257	738	92	-12688	376	1448	601	2282	662	119	96	1
-21020	-12328	21992	-779	-5735	-3872	-15976	-3056	-11184	836	-6478	-116	-936	1120	-13000	1464	-1715	-364	-8744	7432	11192	-186	265	-438	-15024	3576	-1192	1095	861	35	-20032	-408	-2744	1487	2895	917	121	100	1
-25600	-13716	23488	-703	-5802	-4149	-19008	-4232	-11976	1389	-6679	-14	-1184	2344	-12056	2372	-1860	-272	-8520	7728	11104	-338	179	-483	-15888	3256	-1264	708	1042	48	-21816	3912	-4192	1194	2348	729	122	97	1
-32116	-19160	24716	-309	-5427	-4656	-27640	-3680	-16128	2267	-6695	96	-4000	3448	-5160	2153	-2034	-255	-8528	6808	12136	-298	260	-528	-17624	632	-1496	589	1196	-106	-18416	4120	-640	626	2019	298	123	106	1
-32768	-13008	25312	182	-4772	-5289	-28672	-1112	-19904	1669	-6486	468	-7424	-768	576	1829	-1948	-581	-9072	5752	12712	-171	549	-540	-18432	-832	-848	737	1361	-172	-16848	1064	2936	469	2175	375	125	113	1
-32768	-4488	17496	110	-4103	-5441	-24720	-432	-23312	916	-5324	500	-12664	-1328	1424	674	-1500	-641	-8512	6240	13976	-106	938	-527	-18248	2120	2424	615	1655	-311	-18984	-1016	5144	324	2123	292	124	117	1
-32768	-3556	-20	629	-3636	-3767	-20184	-8472	-26064	1006	-4374	357	-32768	992	29976	837	-3631	-1253	-8256	7104	15336	-96	1464	-596	-18072	2408	2864	542	1712	-341	-27304	-3664	7240	284	1482	264	125	123	1
-32768	12432	-18748	-41	-2591	-1626	-8640	-7920	-32768	1682	-2696	82	-18248	11792	19488	142	-2026	-1187	-8264	7480	17432	-115	2167	-863	-23776	1464	2720	-406	2568	-757	-27536	-240	8032	458	1175	56	118	117	1
-32768	13076	-27136	-1180	-1140	-514	-1888	4424	-32768	-421	-328	-364	-16696	1560	30472	-514	953	-24	-7888	8760	17896	-123	3006	-1174	-25456	856	2264	-361	2993	-914	-28048	1592	7608	397	752	173	113	106	1
-32768	13656	-24864	-1062	396	852	-504	-6784	-31816	-2189	1922	-988	-19632	3304	4400	-345	1842	-209	-7512	11040	18144	-107	3900	-1703	-27008	1848	3936	-386	3399	-1027	-29216	320	10168	152	-186	-126	106	99	1
-32768	-4460	-8152	-607	1364	1541	-10032	-14272	-23408	-590	3482	-661	-14456	2976	14368	-1989	3013	-388	-6136	13768	17520	-34	4843	-2705	-28672	392	6616	-260	3747	-988	-26784	-1240	17112	2	-1137	-423	98	81	1
32767	-9684	32767	3466	4111	1801	-32768	3888	32767	1229	1217	348	-14992	1856	32767	-1606	3001	-489	-2144	15256	22536	12	6337	-4304	-32768	-1032	3672	226	3782	-724	-30248	104	29280	562	-3318	-280	100	73	1
-32768	32184	32767	1158	5003	2731	-9952	5800	-31336	8981	3511	-42	-32768	-30776	5368	4389	-227	-976	-27088	26032	20960	-368	8099	-5756	-32768	4192	7424	2057	3720	-446	-25544	-10400	13760	-1438	-1424	-855	4	13	1
-32768	-32768	21392	1133	2939	1574	-14984	5336	-14856	743	3835	216	-29576	32767	-14144	5719	2196	106	-32768	10856	30728	293	7979	-5648	-31192	5512	-10128	1094	4499	-728	-21040	4656	1232	4134	-2196	-973	41	22	1
-19544	18180	27460	585	1458	840	-24768	528	-19328	2431	2807	-1550	-3856	20624	-18064	-937	791	-396	-32768	32767	31512	822	6960	-5701	-32768	18288	-4240	1402	3929	-1052	-32768	9728	-27184	4277	-2299	61	68	49	1
-11304	-14352	14328	381	679	374	-6600	-768	-17144	-1765	2224	-882	-9928	-1968	-19328	-1831	1633	1535	72	32767	32767	-931	2418	-4559	-24432	5808	-26808	-1644	2871	-108	-31816	2136	-12224	1300	-3537	1140	98	101	1
-8744	-5384	14440	67	267	140	-16744	-1872	-13544	-3188	1679	-1189	-22376	-3952	-16896	-1723	1818	-1068	8832	32767	32767	43	-2878	213	-22312	-1080	-888	-455	1767	-773	-32768	672	-11496	-560	-3311	760	141	145	1
-8224	-7072	13156	45	177	43	-22736	-13480	-9736	-3124	1107	-971	-16568	-14272	-11608	-1103	2223	-130	16496	20360	17880	-131	-3305	1206	-14632	-1352	2248	824	-435	-124	-29976	-5496	-16280	-232	-2949	640	198	191	1
-6296	-4508	15084	39	312	70	-14808	-11072	-6576	598	914	-230	-21264	-72	-5992	924	2292	855	12112	18624	15304	539	-3621	1921	-7744	-1144	-600	1072	-1716	703	-22048	-4512	-15632	154	-3136	892	183	195	1
-7748	-4244	14788	-184	365	14	-16968	1544	-5952	1061	927	-24	-17528	4936	-2920	668	2405	485	6688	17344	15016	837	-4181	2495	-5096	2040	-2664	1011	-2927	894	-17904	-1240	-14424	173	-2967	342	183	182	1
-7340	-5820	13960	-236	401	37	-18704	32	-3904	-744	679	-198	-13784	-2344	-2040	178	2467	-65	-1352	11920	13280	1226	-4845	3024	-7248	1664	-4592	328	-3961	1377	-10640	-488	-16264	-436	-2921	205	160	165	1
-7132	-6700	13508	-160	441	115	-14880	-2712	-3864	-1613	480	-484	-17584	696	-2848	14	2467	88	-6048	9608	13352	1743	-5413	3511	-7288	-720	-6608	-65	-4724	1611	-8096	-72	-15936	-636	-2575	238	157	156	1
-7728	-6320	13268	-76	461	193	-15848	-6944	-2352	-1327	550	-331	-16328	1440	-216	-434	2096	204	-8696	7904	14288	2047	-5801	3772	-7688	-2072	-7280	119	-5297	1747	-4432	1552	-15728	-904	-1897	376	147	143	1
-7848	-5960	13664	-41	479	246	-16768	-5896	-2096	-382	601	-138	-11928	-1216	-1176	-916	1785	583	-12064	7352	16728	2469	-5877	3803	-7960	-2160	-7376	176	-5394	1781	-736	1232	-14120	-1208	-1506	296	154	151	1
-8476	-4576	13508	-66	530	247	-15504	-1152	-3360	-40	695	-117	-12144	-1248	3440	-392	1625	417	-17808	9256	20416	2756	-5776	3765	-14288	-5432	-10896	505	-6296	2318	-296	2184	-14392	-1355	-1404	228	132	140	1
-8592	-4912	13188	-98	509	246	-13928	-1504	-2480	-601	772	-178	-13912	-440	3896	-336	2825	415	-23096	11096	22816	2854	-5621	3939	-17176	-3400	-10664	711	-6412	2412	584	16	-14624	-1860	-915	-80	121	134	1
-8372	-6260	12956	-68	477	306	-14952	-3424	-1528	-868	875	-243	-15752	48	3488	-509	2984	451	-26840	15936	27144	2586	-5194	4398	-25320	-1544	-16320	144	-6625	2590	-2736	-72	-7376	-914	-1477	-34	129	133	1
-8156	-6016	13380	-60	478	410	-15152	-2936	-656	-896	1066	-246	-19744	2112	496	-748	1732	394	-32768	13048	26432	2549	-4709	4932	-28744	-4104	-15840	-301	-6506	2583	-5136	248	-4144	-257	-1358	159	148	132	1
-8640	-5916	13420	-111	588	464	-16264	-2712	-904	-977	1314	-252	-19232	424	6184	-730	1607	-245	-32768	9536	20912	2188	-3689	5452	-22784	2280	-19696	-1835	-6020	1903	-7400	4392	-560	-677	-1251	444	162	127	1
-8720	-5344	13972	-182	796	442	-16600	-2936	-848	-1057	1592	-153	-16696	-1568	6288	-1500	2324	-66	-32768	4744	12248	448	-2591	5818	-27040	-2744	-24032	-2853	-4794	967	-21416	5672	11064	-1142	-2562	945	131	125	1
-8916	-5696	14796	-199	1201	483	-17496	-3704	1640	-911	1930	-94	-15712	-2328	7504	-1155	2169	284	-32768	-12488	-11592	-600	-1092	4707	-14520	-2688	-29688	-3469	-3539	339	-32768	-7192	20056	-1540	-3259	1284	124	128	1
-8268	-5312	16628	-211	1867	617	-19576	-4080	3072	-303	2448	51	-26344	-3040	10720	-583	1407	215	-32768	-22728	-13512	420	487	2712	-3480	-2744	-32768	-3032	-1014	87	-7488	2752	32767	-1820	-203	-236	110	92	1
-7916	-5872	17588	-262	2724	842	-22336	-2624	1352	280	2999	98	-27520	-3888	11184	-442	849	221	-32768	-20488	-14120	412	748	791	-2728	-7496	-32768	-615	1379	246	-17664	-5480	14072	-2526	1656	-511	75	63	1
-7132	-7980	18476	-316	3768	1214	-26024	-2392	2392	155	3387	4	-26200	-4216	13136	31	-27	165	-32768	-11784	-5640	443	1480	-1062	-6960	2688	-30080	943	3440	338	-20304	-6064	-1768	-883	1466	-214	78	67	1
-5144	-10100	18216	-462	5040	2015	-30840	-96	5904	-233	3699	-262	-26720	-2488	23488	343	-1294	330	-6936	15288	17624	-4382	2907	-1669	-22776	3184	3264	1023	3747	-210	12000	-2440	-30088	-1490	4566	66	93	81	1
-1912	-11132	22248	-826	6620	3335	-32768	2432	12544	-1457	3810	-517	-24120	3360	32767	3389	-2854	133	4880	-24488	20032	-3467	5531	-3236	-32768	7096	19496	-2003	1644	-617	-12536	32767	1880	-638	-799	1086	136	129	1
-8136	-13020	22468	-1358	8817	4894	-32768	4064	16112	-1666	3811	-541	-21984	28160	18928	-745	-2696	732	-32768	15688	21776	-1742	3589	-2963	-13136	-28272	-30264	-8417	2799	-785	-32768	-29088	-16272	-6188	1566	218	145	197	1
-32768	-10764	21780	-2426	10260	4935	-32768	-4232	-8928	-3298	4132	-275	-23864	-1992	-4448	-4537	-781	1077	-32768	432	31496	-1977	2183	-1684	-17424	-1680	-25568	-1388	3156	-687	-23528	-30800	-9144	363	925	-108	156	189	1
-32768	-32768	32767	-3682	9083	4721	-32768	-20128	-4496	-3051	3313	-281	-29992	-3840	-17096	-4455	-1988	827	-12584	15064	10896	-188	1107	-754	-15024	-20832	-19536	604	2510	1195	3520	7440	-24968	3807	1258	-490	139	161	1
-22856	-32768	32767	-882	3824	4665	-22696	-21688	-24880	1004	2665	-1079	-32768	2648	-5192	-1365	-2652	-1200	-9744	5888	13088	-119	610	-486	-17720	7352	-17080	2950	2383	279	-18712	22440	-22632	2230	1975	191	125	126	1
-32768	-32768	32767	-1151	-4170	122	-18096	3008	-6864	498	1627	-156	-32768	-4184	-9712	89	-2231	-1482	-9320	7112	12600	-45	483	-317	-17848	12976	-13960	1336	1357	507	-23816	16776	-17968	160	2123	1639	99	125	1
20452	-24440	19652	315	-5355	-899	-15968	-7528	2776	-532	-668	298	-32768	-4864	-10000	287	-2251	-1538	-8240	6048	13184	-34	395	-245	-16528	6000	-11160	-1416	794	-362	-19240	8784	-11560	-1387	2312	-129	95	105	1
14764	-14500	14120	-27	-4534	-1552	-9304	-1392	-1984	782	-2003	-587	-24984	6592	-16696	41	-2799	-1440	-7472	6440	13560	100	531	-220	-21880	-6072	-8064	-1653	482	-186	-20360	-6056	-7224	-1765	2310	-373	126	103	1
5692	-15028	15452	-643	-4877	-2550	-3608	448	-3720	295	-3201	-122	-18520	3400	-14856	-375	-3130	-1013	-7792	6736	13432	183	694	-225	-19192	-6992	-6208	827	447	307	-14936	-5104	-2272	-842	2628	546	118	84	1
-1364	-12176	13656	-436	-5277	-3194	-7832	-2824	-4280	223	-4209	-115	-8208	2376	-14688	-75	-3084	-1149	-7992	7272	12560	251	790	-211	-17792	2848	-2776	1670	410	287	-14968	-3024	-1856	-80	3030	381	104	72	1
-5012	-8820	12560	-372	-5478	-3561	-6120	-1280	-5168	718	-5006	-180	-4688	1520	-14896	60	-2516	-1250	-8472	7720	11712	215	779	-238	-16216	6664	-2152	931	472	210	-15824	-4336	296	960	2729	561	103	79	1
-7304	-7072	13672	-542	-5513	-3744	-5672	-2712	-5464	1125	-5504	-167	-4632	2816	-15208	40	-2113	-1215	-8224	7976	11544	112	778	-324	-16296	1072	-1560	479	470	61	-14376	-1352	-1360	1328	2271	562	114	92	1
-12108	-9008	17368	-761	-5468	-3791	-9776	-2440	-8680	1652	-6186	-218	-3120	1880	-15056	502	-1814	-1034	-9176	6976	11168	20	771	-431	-15984	368	-2200	712	700	144	-10832	768	4248	96	1786	677	120	101	1
-17908	-10024	22032	-885	-5686	-3752	-13960	-64	-11280	1042	-6491	171	-448	3136	-14952	1096	-1650	-746	-9792	5920	10424	0	756	-398	-13712	1648	-2936	556	750	124	-12792	-320	104	424	2713	780	120	100	1
-23500	-14136	25352	-932	-5967	-3930	-17528	-2168	-13344	983	-6972	25	608	2776	-16864	2062	-1619	-478	-9536	7048	10240	12	709	-367	-13992	2400	-3320	367	881	-21	-19056	760	-5304	1342	2850	870	115	102	1
-30720	-17064	28560	-933	-6022	-4461	-24408	-5640	-16464	1365	-7293	-56	-368	3544	-12208	2332	-1762	-298	-8984	8160	10896	-52	681	-468	-17776	2520	-2336	619	1058	-13	-20512	-520	-2080	975	2196	708	119	96	1
-32768	-17684	28196	-680	-5778	-5332	-29704	-2280	-20080	1327	-7230	218	-3816	624	-5104	2079	-1856	-603	-9352	7496	11464	-121	779	-627	-17632	1496	-1264	923	1245	10	-18952	3328	2024	1147	2006	624	119	105	1
-32768	-11340	21272	-269	-5026	-5564	-24608	-4608	-22976	966	-6777	61	-6344	-712	-1552	1675	-1485	-626	-9656	6032	12432	-112	977	-678	-16464	1128	1616	1057	1535	-91	-16496	1872	5272	1089	2112	599	116	107	1
-32768	44	10232	-412	-4174	-4645	-26288	-8104	-24880	876	-5286	56	-20112	1584	23952	995	-2987	-467	-9376	5752	14192	-54	1381	-678	-18768	2984	2992	448	1915	-359	-21872	-2240	4512	644	1729	588	123	122	1
-32768	9624	-15164	-401	-2973	-2819	-13624	-7136	-32608	1433	-3497	-173	-32768	12360	23224	1052	-3667	-1435	-8712	7648	15624	-4	1974	-842	-22376	1296	2856	-299	2309	-561	-27448	-824	5816	435	1373	267	125	115	1
-32768	20592	-27756	-1130	-1326	-1070	2456	-1280	-32768	247	-1045	-334	-1224	-6720	32767	-167	-472	-352	-9048	7880	15992	15	2699	-1037	-23208	-184	2376	-455	2704	-690	-24848	2432	6408	265	1041	11	124	117	1
-32768	17996	-27984	-1038	106	478	-456	-1472	-32528	-1372	1636	-731	-15376	7128	16768	-774	1911	-228	-8336	9192	16416	107	3449	-1381	-23952	2896	3592	-484	3105	-867	-26712	1464	7984	-29	288	-27	112	108	1
-32768	7292	-9116	-1116	1258	1315	-6008	-7048	-32768	-292	3746	-703	-19368	2736	-6168	-1229	2156	-276	-6744	12832	14912	230	4355	-2194	-25408	664	6304	-368	3455	-804	-27624	-2928	13488	-157	-547	-187	97	94	1
29640	-26956	32767	4427	3096	1740	-32768	13464	32767	-1060	2160	-22	4328	2928	-32768	-1095	5359	-650	-4688	14056	19552	366	5656	-3359	-32496	-1288	10776	709	3725	-537	-25552	-4488	23328	568	-1627	-314	111	104	1
-32768	32767	32767	3058	5889	4150	-12336	-17784	-32768	8320	3297	-421	-32768	-32768	18312	1142	-647	-1012	-27872	15312	21584	111	7671	-4482	-32768	-184	14264	1735	3845	-555	-29488	-9176	25472	-317	-3078	-327	81	87	1
-20280	-16208	12640	673	3260	2129	-17464	28848	-21144	2694	4202	1467	-24240	32767	-22752	5374	1847	583	-32768	14816	26648	521	8194	-4870	-32768	176	-3096	548	4396	-691	-23960	-2936	696	3809	-1411	-1099	54	54	1
-32768	5044	31704	1736	2243	1397	-21080	-20168	-27056	645	2823	-1390	-26480	32767	-21200	5477	2098	523	-32768	32767	29672	727	7847	-5135	-32768	14872	-1496	921	4193	-999	-32768	16000	-25416	4850	-2755	-182	77	50	1
-8684	-15756	13252	507	1153	775	-11848	11072	-19464	-934	2203	-985	-11856	-2600	-19840	-1987	1515	1735	-20224	32767	32767	-169	5123	-4906	-32064	7744	-6112	-709	2730	-452	-30328	7120	-15048	2510	-3050	981	71	60	1
-11012	2320	17888	86	345	224	-19576	-4704	-15984	-1948	1868	-724	-23672	-4552	-19624	-914	1947	-472	-32768	32767	32767	259	-756	-1240	-17976	-3904	-24792	-1578	2454	-477	-32768	3656	-10432	-690	-3569	927	115	105	1
-9020	-5140	13976	-12	184	31	-15944	-10144	-9544	-2623	1278	-685	-14496	-9160	-8776	-825	2132	-193	7816	26712	27256	404	-4323	886	-18576	-1848	1360	966	164	-453	-32768	-7624	-16392	-900	-2966	300	113	109	1
-5808	-6676	13384	69	232	92	-16192	-9968	-5736	-264	939	-216	-19064	-2400	-6240	548	2382	752	13864	18808	15632	759	-4881	1254	-13056	-2656	1576	1972	-1459	410	-23408	-9536	-18464	-212	-3389	434	122	121	1
-6980	-5040	14212	15	352	154	-16136	-1408	-5072	699	943	-141	-18352	3488	-1680	518	2393	567	6824	16752	14024	990	-5369	1593	-5688	-264	-1568	2004	-2645	926	-17688	-5160	-13600	208	-3509	114	132	119	1
-7676	-6368	13476	-16	371	174	-16736	200	-4560	524	926	-82	-15072	-1304	-1232	88	2321	209	360	11776	14192	1220	-5893	2275	-4192	144	-4248	1591	-3618	1332	-13760	-3920	-14248	98	-3003	-225	131	119	1
-7344	-6424	13628	79	384	249	-14880	-4456	-2600	-1619	574	-314	-15960	960	-2608	-215	2446	106	-3544	9616	12608	1966	-6148	3139	-7696	-968	-5488	1073	-4571	1669	-7424	-448	-16184	-166	-2694	-58	146	128	1
-8440	-5804	13888	118	407	292	-14240	-7448	-3208	-1265	613	-277	-17672	-152	-160	-654	2198	240	-6432	8560	13176	1957	-6312	3487	-8072	-1544	-6288	1037	-5264	1950	-3872	3448	-16976	-568	-1977	92	164	165	1
-8376	-5644	13580	122	399	295	-17464	-5240	-2824	-240	631	-6	-13848	-368	-1048	-569	1974	594	-10096	4912	16096	2385	-6184	3464	-10080	-1848	-7080	997	-5837	2190	-1160	4144	-15384	-914	-1427	214	178	189	1
-8660	-4336	14004	30	526	304	-16048	-1944	-3936	26	737	-43	-14504	-1224	-1320	-373	1854	545	-17448	9104	20432	2779	-6071	3320	-12520	-4248	-9808	450	-6303	2459	800	2064	-14984	-2039	-1037	13	174	180	1
-8960	-4052	13496	-45	544	266	-14480	-1432	-3856	-414	784	-47	-14784	680	2216	-372	1860	486	-23272	11440	22832	2784	-6054	3590	-16400	-5168	-9848	465	-6383	2449	1632	-1336	-15344	-2328	-911	-367	160	162	1
-7940	-5540	13684	-63	591	306	-16216	-3296	-2792	-766	832	-116	-14504	200	3256	-695	2756	582	-24800	14880	24600	2489	-5544	4219	-22952	-2408	-13672	12	-6579	2469	-1488	-712	-7896	-1068	-1124	-328	146	159	1
-8644	-5480	12960	-39	640	423	-16352	-2800	-1808	-879	925	-148	-19384	1544	576	-1251	2763	733	-31480	15856	28952	2132	-4667	4935	-32768	-3360	-15928	-663	-6807	2422	-4592	1856	-2248	73	-1429	80	149	158	1
-8952	-5412	13348	-71	658	459	-13472	-2088	-416	-1092	1137	-163	-18848	792	2000	-881	1646	464	-32768	11072	23912	1615	-3840	5403	-24176	3192	-17600	-1475	-6274	1729	-6912	5256	-584	30	-1218	518	158	146	1
-9560	-4104	13284	-77	814	411	-15752	-4240	-216	-965	1475	-80	-18480	-2680	7064	-672	1739	146	-32768	6640	12392	560	-3132	5405	-22776	-712	-20256	-2934	-5341	1058	-7432	5712	-112	-50	-1231	606	135	127	1
-8980	-5584	14172	-102	1078	440	-17248	-3872	-208	-661	1816	73	-17864	-1448	8424	-1006	2330	333	-32768	-8568	-4392	191	-1862	4998	-19048	120	-29360	-3395	-3716	338	-32768	-1768	21664	-2137	-4189	932	114	106	1
-8792	-4868	15500	-71	1533	561	-18664	-2336	3264	-620	2218	35	-21256	-192	10384	-928	1950	371	-32768	-22720	-14368	794	-137	3698	-5424	-8008	-32768	-2591	-1933	1	-32768	-7056	20136	-2264	-3792	633	100	88	1
-8128	-5780	16924	2	2268	738	-20536	-3528	3240	-114	2757	166	-21920	-1024	10664	-848	1823	360	-32768	-22208	-15536	1251	611	1421	-264	-3752	-32768	-101	469	248	-14256	-4112	20432	-1972	1149	-759	92	84	1
-8048	-5936	18012	35	3191	1059	-23128	-3536	1416	396	3268	129	-25920	-4104	12440	-11	427	141	-32768	-13992	-7392	980	898	-611	-4336	1920	-31104	1113	2781	490	-16808	-6664	1664	-874	1484	-700	97	96	1
-6948	-9396	19276	33	4252	1639	-29040	-1032	3368	72	3567	-13	-27160	-3104	19104	316	-610	218	-19992	-9400	-728	-3560	2681	-2804	-17784	4112	-20400	686	3894	-143	-6232	-6944	-12264	-1409	2362	-204	100	99	1
-4236	-11748	20748	-266	5658	2790	-32768	-312	6560	-780	3743	-341	-26176	-3608	32767	147	-2375	347	-11136	-7616	32767	-3335	5426	-4715	-32768	6312	3080	-1788	1935	-1345	-32768	25240	8520	-597	-771	1373	144	161	1
-2484	-14148	26416	-811	7814	4367	-32768	280	16728	-2328	3560	-315	-27120	3312	-1680	39	209	437	-31400	15848	23376	-2068	3016	-2817	-9672	-17824	-24672	-6702	3231	-483	-31432	-12424	-13152	-3711	1062	-50	140	240	1
-32768	-12144	23344	-1826	9839	5454	-32768	-3440	-1376	-3910	3780	-491	-31520	12344	10904	-1316	-900	1007	-25192	104	23744	-1953	1900	-1533	-10896	-896	-26376	-1957	3328	-1330	-20216	-23464	-19232	331	852	918	149	220	1
-32768	-28484	27032	-3472	9056	4465	-32768	-14056	-4088	-4338	3933	-249	-28800	-1624	-17592	-4023	-1741	875	-12592	11872	12808	-605	1122	-905	-16584	-19584	-21024	-552	2354	1216	3592	10240	-27608	2795	1383	-560	141	171	1
-32768	-32768	32767	-1568	6309	5482	-26432	-22120	-3392	38	2637	-612	-31352	7688	-6376	-2302	-2870	-687	-9712	3456	16392	-380	697	-545	-19040	-1376	-18528	2654	2359	124	-20976	17584	-20192	383	2083	-72	150	153	1
-32768	-32768	32767	15	-664	1906	-17256	-7800	-20936	1774	2228	-709	-32768	1320	-7792	-776	-2413	-1137	-9096	5872	13952	-103	573	-317	-19112	9600	-13816	1649	1371	395	-25384	6712	-15904	-540	2292	1294	122	144	1
11460	-32768	25576	584	-4789	-1467	-19352	2216	3800	-403	39	192	-32768	-168	-14360	302	-1948	-1691	-7968	6696	13232	-21	457	-221	-15216	6328	-10528	-1324	713	-207	-17584	6256	-11376	-818	2417	-128	102	125	1
18284	-12988	13108	170	-4148	-2394	-13280	-2976	1248	576	-1515	-677	-28056	6632	-15384	350	-2671	-1835	-6936	7416	12512	69	478	-214	-21024	-5600	-8480	-1524	358	-175	-19032	-624	-7496	-1363	2473	-352	96	116	1
8888	-12648	15384	-631	-3981	-3085	-4496	1656	-3040	1091	-2768	-362	-21464	7272	-14688	-164	-3236	-1315	-7232	7936	12872	-6	619	-286	-19264	-4384	-4968	900	220	306	-15896	-1216	-2712	-1034	2789	451	129	97	1
-552	-10696	16592	-604	-4556	-3418	-6104	-1112	-3752	795	-3626	-404	-10248	6840	-13600	-310	-3234	-1192	-7560	7520	12520	8	696	-340	-17752	3728	-2272	1667	269	256	-16024	-3168	-2216	-48	3010	335	121	74	1
-7360	-7928	16852	-612	-5424	-3750	-6848	680	-5584	952	-4587	-415	-3656	3872	-13008	-402	-2655	-1130	-7840	7664	12408	10	694	-340	-16112	6064	-928	1014	340	247	-14496	-4720	1784	1060	3023	582	111	74	1
-6788	-3452	14740	-796	-5910	-3819	-5832	-336	-4544	631	-5170	-405	-4928	1288	-14240	-448	-2269	-1120	-8336	6608	12416	-85	693	-439	-16504	1824	-1832	184	386	57	-14680	-4552	2816	1330	2548	742	129	88	1
-7836	-2268	15332	-1245	-5771	-3572	-9328	-1224	-6288	1009	-5835	-422	-3688	1192	-13776	144	-2054	-927	-7944	5968	12640	-23	736	-461	-17008	-3712	-1232	623	548	21	-9648	-1552	5008	257	2319	797	127	95	1
-14344	-7832	20740	-1219	-5737	-3243	-9912	-216	-7344	1131	-5891	-456	-1384	3184	-12904	792	-1849	-747	-9536	5456	11080	38	721	-405	-14176	768	-1552	988	682	129	-15168	-2272	-1688	466	2980	789	128	103	1
-20396	-9288	24436	-1249	-6015	-3426	-15560	-240	-11176	299	-6555	-179	-88	2744	-13344	1300	-1775	-534	-9344	6376	10688	43	648	-396	-13328	4264	-600	672	870	39	-22208	2896	-7216	1498	2692	763	126	103	1
-24448	-13840	25312	-1156	-5925	-3818	-20008	-4168	-12704	540	-6890	-264	-1592	1576	-12328	1703	-1891	-428	-8968	8048	11064	-55	657	-474	-17248	3152	-1960	368	1106	-68	-21184	2416	-1040	934	1947	595	127	103	1
-32324	-15868	25596	-759	-5359	-4505	-27568	-4344	-18160	1318	-6860	-102	-4312	-448	-6360	1631	-1927	-551	-9104	6880	11416	-151	690	-569	-16600	312	-472	681	1301	-115	-17320	3416	3720	749	1980	490	129	110	1
-32768	-11980	25960	-407	-4816	-5112	-23912	-6432	-23032	1473	-6528	190	-8464	-2752	-3304	1536	-1566	-833	-9168	6168	12672	-150	866	-606	-15696	2064	-256	734	1583	-202	-14496	1672	4072	560	2366	367	129	120	1
-32768	-5872	14212	-187	-4306	-4896	-25296	-976	-25032	1451	-5229	304	-14816	-1032	3592	802	-1827	-1095	-9144	5392	14568	-77	1227	-649	-20024	560	1928	334	1877	-388	-21392	-5704	1856	416	2026	499	124	126	1
-32768	420	-7440	-61	-3255	-3464	-16488	-6888	-28152	1303	-4033	-14	-32768	6728	26416	871	-4116	-1418	-8360	6416	16232	-5	1805	-749	-21896	-264	3016	47	2250	-566	-27944	-3280	5264	618	1434	245	134	128	1
-32768	13144	-20180	-607	-1635	-2068	-6496	-4880	-32768	1463	-2045	-237	-8208	3384	25944	32	-1418	-884	-8584	7152	17056	43	2563	-962	-24584	696	2552	-176	2622	-705	-25840	104	5040	518	1131	62	131	128	1
-32768	16520	-23656	-1118	-355	-996	-3448	1144	-32768	-639	110	-450	-17368	-1776	23520	-734	1459	90	-7680	8592	17528	73	3376	-1261	-24976	2608	3480	-495	2994	-929	-27712	1216	7240	226	605	114	126	118	1
-32768	17292	-20792	-880	998	757	488	-6024	-32464	-998	2351	-654	-20200	-888	3736	178	1745	-445	-5056	13376	15696	120	4144	-1886	-25480	2048	5528	-566	3318	-987	-27528	1304	11520	-32	-148	-244	93	89	1
-20460	3280	-5180	4898	3952	2458	-15432	-3176	552	-342	3389	-708	-16520	-176	32767	353	2640	-708	-5496	14232	16592	166	5195	-2943	-27784	224	7480	-37	3602	-917	-27984	1296	12440	-70	-288	-276	89	74	1
-6132	17420	32767	4053	5644	4060	-32768	-26408	2832	4773	2450	-80	-19368	-24896	30336	-1439	2060	-455	-11912	16880	19064	-83	6793	-4242	-32768	1656	8512	851	3662	-804	-30424	-208	26112	622	-3108	-344	84	69	1
-32768	-9296	32767	527	3806	2925	-8704	32767	-30368	8209	4003	1133	-18840	2056	-7568	4507	332	573	-32768	24224	21552	-450	7904	-5257	-32768	6424	-40	924	4170	-688	-26448	-10544	22600	-2962	-1863	-810	14	5	1
-32768	-32548	24864	1765	2831	1605	-15112	-16496	-23304	-385	3169	-480	-18520	32767	-10880	3508	2035	-776	-30760	17552	31624	958	7805	-5312	-32768	7168	-3624	811	4616	-964	-22104	2408	-7904	4313	-2172	-802	42	21	1
-11284	1776	17800	376	971	782	-19848	13728	-16840	1014	2552	-1912	-4712	7184	-24640	-2278	836	443	-32768	32767	32767	584	6549	-5378	-32768	11936	-5432	500	3727	-880	-30584	7424	-22728	4084	-2899	461	76	56	1
-13784	-2116	17204	468	366	315	-12560	-3392	-20280	-2043	2145	-518	-22728	-4080	-24080	-1486	2269	813	-11280	28784	32767	-1497	2130	-3404	-23104	3056	-21952	-1595	2753	-282	-32768	3992	-10632	1098	-3776	1082	167	169	1
-8804	-7736	13268	106	211	82	-18408	-5272	-12752	-3350	1406	-888	-18888	-8032	-13928	-685	1991	-694	10064	31576	32767	-272	-3277	842	-23296	-2312	2376	-13	1370	-972	-32768	-480	-13896	-521	-3080	518	182	186	1
-7172	-6304	13596	42	167	28	-18776	-14840	-7456	-1273	896	-548	-17304	-3672	-9592	466	2433	418	14080	19000	20232	442	-4004	1246	-15656	-1968	1688	1203	-598	97	-29664	-6408	-17248	-378	-3059	545	183	183	1
-8428	-3888	14608	-148	286	7	-15912	-4768	-8688	1720	872	-15	-20896	5832	-6000	1240	2521	744	9728	17336	16576	911	-4873	1456	-7536	416	-568	1606	-1909	708	-25776	-2192	-17192	-205	-4230	563	175	179	1
-7772	-5060	14112	-278	324	-40	-19464	3640	-5008	489	717	-5	-20248	6560	-5456	1159	2536	673	4528	16000	13896	1131	-5614	2030	-6912	752	-824	1627	-2107	749	-17112	-3368	-15552	145	-3344	143	169	157	1
-7500	-7224	13080	-206	344	45	-15464	-3008	-2568	-1345	475	-293	-14696	-2040	-2328	26	2570	61	3416	14912	13600	1218	-5691	2143	-7760	1792	-4920	828	-4089	1539	-11272	-2184	-17184	35	-3009	208	153	155	1
-7464	-7452	12940	-81	365	135	-13960	-7200	-2200	-1781	401	-441	-17592	496	152	-432	2356	13	-3840	10904	10976	1890	-5977	3345	-8008	-824	-5504	377	-4981	1804	-6584	1784	-17920	-335	-2317	244	133	142	1
-7484	-6572	13272	-18	407	225	-17312	-8712	-1864	-768	427	-170	-15688	-64	-2280	-900	2024	433	-8192	8016	14296	2324	-5924	3699	-7912	-1160	-6536	371	-5082	1816	-4136	4008	-16768	-559	-1813	388	143	149	1
-8108	-5304	14008	-32	507	291	-17872	-1720	-2712	2	515	36	-13056	-1088	-184	-940	1740	568	-14888	9696	17736	2739	-5852	3791	-10952	-2848	-10152	565	-6135	2352	552	2320	-15608	-1358	-1410	240	144	147	1
-8456	-5124	13912	-132	579	280	-14904	-1448	-3144	-287	563	-74	-12056	440	6368	-405	1878	392	-20288	9816	21880	2719	-5875	3778	-13792	-4376	-9920	523	-6415	2565	2800	808	-15720	-2415	-1129	-118	130	135	1
-8584	-5516	13176	-151	649	302	-15520	-2344	-2184	-796	637	-97	-17496	-296	2352	-958	3129	623	-23488	14360	23968	2784	-5648	4114	-19600	-1752	-12144	130	-6509	2596	224	-840	-12856	-1811	-1071	-335	111	129	1
-8576	-7436	12028	-121	601	388	-14784	-3800	344	-1257	824	-218	-22824	576	-1992	-1491	2441	841	-28600	19064	27984	2374	-4982	4688	-30616	-312	-17328	-747	-6832	2676	-2984	-320	-5096	-586	-1557	-135	123	133	1
-9356	-6228	12440	-81	603	504	-13696	-4344	232	-1073	1068	-219	-20936	-288	5088	-633	1268	87	-32768	13200	28104	2061	-3988	5445	-26784	-2992	-17224	-1607	-6535	1839	-4496	4912	-2488	-452	-1249	326	156	129	1
-9360	-5688	13044	-80	709	491	-16376	-4168	240	-949	1393	-108	-15184	-2656	8424	-890	1983	-200	-32768	4960	23336	1548	-3425	5763	-22880	-1792	-24192	-2308	-5803	1430	-10576	8368	-112	-670	-1356	868	145	127	1
-9076	-6444	13696	-78	927	519	-16712	-3448	1056	-762	1723	2	-15552	-2608	8128	-1177	2352	199	-32768	-4400	3312	211	-2803	4965	-22576	-3080	-27608	-2359	-4396	732	-31536	7176	19536	-1462	-3713	1327	130	125	1
-8896	-5272	15044	-75	1366	645	-17544	-2456	3232	-729	2161	-53	-21424	-544	11032	-782	1862	390	-32768	-23736	-15184	620	-1124	3208	-4712	-6440	-32768	-2465	-2637	402	-32768	-25456	15424	-701	-2746	956	117	123	1
-8476	-5024	16376	-57	2077	765	-19640	-3672	3816	-238	2725	116	-25752	-2304	13408	-502	1250	328	-32768	-24752	-13344	533	187	1428	2320	-2824	-32768	-1311	165	228	-6208	4816	29776	-1095	430	-891	93	67	1
-7908	-6236	17736	-85	2961	992	-22072	-2912	2808	447	3301	92	-26176	-2288	14016	-255	444	174	-32768	-21592	-14208	332	947	-359	-4904	-4552	-32768	689	2316	301	-16592	-6240	5080	-2292	1823	-424	81	70	1
-7144	-8512	18628	-157	4074	1459	-27072	-904	3624	372	3715	-46	-26384	-2760	17616	205	-552	15	-32768	-6896	-1224	-23	1951	-1368	-7416	4944	-30472	-148	4029	-248	-20752	-3608	27896	-260	383	-278	82	66	1
-4344	-12356	20084	-366	5411	2518	-32768	1856	6408	-329	3965	-468	-26344	-1992	32767	209	-2253	194	32767	15800	28784	-3022	3213	-654	-32768	-784	32767	1559	2421	-1441	20592	26640	-32768	3291	4059	273	119	112	1
-1252	-13864	24248	-967	7465	4214	-32768	3648	15584	-2155	3875	-744	-23512	14376	-5936	799	-31	533	-32768	-32768	32767	-3331	6172	-4349	-24872	-2176	-32768	-6042	2029	824	-32768	19520	20944	-5693	-1874	1661	144	178	1
-25108	-8336	22712	-1867	9785	5423	-32768	176	5432	-3841	3735	-728	-24744	19720	14832	-1957	-1071	966	-30192	17232	16592	-1943	3939	-2342	-16872	-29488	-23392	-2873	4067	-2438	-32768	-32768	-13616	-5388	1392	990	142	212	1
-32768	-9632	23888	-4403	10208	4270	-32768	-11224	-5272	-4772	4132	-453	-29856	-8104	-19384	-5922	-1260	1414	-20640	-23760	31272	-927	1356	-1179	-20864	-10328	-21920	-2780	2440	297	2944	-3840	-21704	3323	1236	-145	118	186	1
-32768	-32768	32767	-3218	7842	5320	-32768	-27432	-7208	-1873	2634	-344	-32768	-768	-10472	-3189	-2548	-178	-12752	11504	12008	-410	861	-601	-11840	-4952	-20224	2196	2574	333	3528	12912	-20472	1701	1332	-430	144	138	1
-3268	-32768	32767	414	1408	3468	-17456	-12680	-29264	1769	2112	-749	-32768	-2840	-9624	-289	-2597	-1219	-8776	9080	12656	-118	577	-402	-20976	9128	-15096	2034	1988	536	-30464	16936	-21232	1101	2174	1423	131	135	1
6484	-32768	32767	976	-5421	-1446	-14776	2072	6816	-198	910	498	-32768	-3632	-10976	10	-2470	-1205	-9936	6720	12432	-104	381	-243	-16080	9688	-13008	48	1062	184	-19016	15384	-14888	-263	2326	834	105	126	1
15368	-10496	15816	1355	-4939	-1428	-14624	-9128	-888	783	-1254	213	-31224	7624	-17200	593	-2300	-1934	-7992	6456	13528	-37	381	-193	-19880	176	-9256	-1178	581	-429	-20600	2680	-11624	-1497	2638	-403	105	104	1
8804	-7720	16104	-435	-4913	-2034	-5624	1968	-3528	1887	-2648	-272	-22016	7232	-15880	-131	-2968	-1157	-7592	5800	13760	75	526	-185	-18856	-7296	-7600	-349	379	159	-17240	-7024	-6104	-1330	2664	90	96	93	1
756	-13824	15004	-815	-5553	-2595	-3936	2384	-4464	459	-3528	292	-13504	4000	-15080	18	-3178	-927	-7600	5952	13200	165	688	-200	-18896	-2416	-4672	1062	359	198	-16560	-6712	-5072	-1161	2746	280	117	59	1
-5280	-10644	13076	-643	-5998	-3176	-6592	1104	-4824	53	-4583	17	-4816	4640	-14144	109	-2915	-1006	-8144	7168	12232	212	777	-238	-17648	3176	-2312	1367	307	267	-16416	-4256	-1128	419	3117	348	106	63	1
-6784	-7852	11732	-600	-6139	-3576	-5896	240	-5016	-146	-5229	-141	-2200	2808	-13648	170	-2120	-1005	-8224	7376	11744	160	767	-287	-16504	3920	-1512	1019	414	198	-16328	-5120	1000	1457	2752	809	111	69	1
-7916	-7352	12272	-739	-5801	-3806	-8296	-1920	-5432	429	-5806	-161	-5064	1984	-13760	368	-1915	-921	-8336	7512	11752	141	798	-433	-16624	936	-320	1098	569	62	-13104	-1608	4000	1441	2301	692	125	90	1
-12320	-9108	17152	-776	-5458	-3716	-12472	-320	-9072	874	-6125	-8	-1264	2904	-12472	732	-1639	-665	-9168	5904	10904	64	766	-493	-14496	2464	-1960	985	688	103	-10352	-1096	4944	556	1963	907	127	106	1
-21912	-11616	23408	-941	-5727	-3782	-14352	-3408	-11184	982	-6456	-55	-576	2856	-13792	1429	-1456	-502	-9880	6080	9960	-4	641	-473	-12360	3864	-2000	687	854	-32	-15968	624	-2640	1480	2842	750	126	97	1
-25272	-14956	24556	-947	-5936	-4083	-18048	-5784	-11800	1636	-6716	-65	-272	2808	-12736	2389	-1648	-319	-9232	8288	10328	-76	554	-532	-15040	2680	-2536	463	1036	-73	-20128	4584	-5424	1645	2426	844	125	104	1
-28992	-20180	26120	-590	-5536	-4621	-30696	-4808	-15416	2268	-6980	77	-2320	2832	-8200	2398	-1886	-385	-9624	6800	10768	-190	565	-670	-18592	-264	-2624	893	1233	-33	-21112	2776	-864	1222	1963	579	124	107	1
-32768	-14252	28372	-198	-4880	-5627	-27128	-1400	-20104	1722	-6738	567	-6640	-584	-1160	2152	-1830	-649	-9776	5464	12296	-215	719	-680	-16056	512	24	1274	1471	-105	-15144	3216	4248	918	2175	449	126	107	1
-32768	-9260	19400	248	-4546	-5845	-21120	-14656	-19328	1097	-6048	922	-9488	-4208	88	1483	-1530	-667	-9592	5296	13608	-177	1049	-658	-17256	2504	2520	618	1802	-341	-18120	-3136	4384	596	2035	437	121	113	1
-32768	892	-2212	350	-3827	-3883	-23680	-12008	-26008	1366	-4626	154	-32768	-536	32767	1169	-4337	-965	-8960	5320	15360	-130	1559	-697	-20480	1296	2536	-352	2174	-635	-26672	-4328	4344	255	1481	336	137	129	1
-32768	15836	-18704	-838	-2368	-1727	-6392	-88	-32768	1728	-2806	-36	-21984	20680	14624	836	-2231	-1882	-8856	6600	16568	-82	2256	-880	-23832	-568	1856	-488	2569	-731	-26440	2504	5344	340	1146	-46	127	124	1
-32768	17696	-25416	-1187	-1108	-431	1712	2376	-32768	-1389	-359	-497	-11512	464	32767	-978	691	88	-8744	8176	17088	-73	3046	-1195	-24632	2032	2856	-384	2972	-843	-26280	1784	8104	203	638	-15	116	104	1
-32768	19212	-25168	-921	334	1118	-2048	-7160	-31976	-2123	2099	-962	-20232	4064	6600	-719	2112	-120	-8080	11376	16184	-35	3863	-1821	-25688	3216	4536	-475	3349	-944	-28160	-904	12176	-54	-194	-60	109	98	1
-32768	5232	-5988	-939	1220	1872	-7712	-8416	-31632	-40	3919	-574	-11992	3120	-2040	-2015	2572	-182	-6272	14448	16048	105	4788	-2976	-26824	-1392	7008	-163	3715	-714	-24968	-3800	19640	-39	-1089	-355	96	86	1
32767	-28020	32767	3105	3638	2780	-32768	9384	32767	432	1296	574	8296	-12840	-28832	-4040	4084	285	-7656	11176	23376	273	6500	-4368	-32768	-2344	9224	1290	3847	-474	-29792	-2064	25552	746	-3521	-206	98	76	1
-32768	23080	32767	1282	5649	3171	-5480	-2808	-31736	8075	3509	-432	-32768	-27528	-1568	2749	-257	-1189	-32768	20328	21032	130	8311	-5374	-32768	4376	-1928	2311	3966	-419	-24568	-14664	11904	-47	-1635	-935	14	23	1
-32768	-32768	28960	2159	3385	2332	-19616	7432	-21936	664	3808	552	-30424	32767	-5952	4230	1225	-922	-32768	10912	31640	1315	8218	-5152	-32768	7552	-6552	1587	4613	-867	-27168	9392	-4416	5203	-2228	-731	45	35	1
-18444	24304	28388	694	1036	890	-25496	5536	-19280	1321	2917	-2027	-4984	11400	-23600	-1010	680	-161	-32768	32767	32767	1019	6623	-5594	-32768	16792	-6248	921	3815	-984	-32768	15064	-24832	4246	-2257	333	82	69	1
-10444	-7096	15208	490	459	305	-8664	-5104	-17896	-1699	2464	-364	-11608	2064	-22208	-860	1462	1089	-26096	32767	32767	-1460	1804	-4214	-22128	5720	-23536	-1879	2751	-307	-32768	7992	-11384	217	-3838	1216	176	191	1
-8552	-6880	13708	131	227	106	-15640	-2912	-15672	-2482	1775	-1003	-21672	-1352	-17816	-1406	1755	-412	5560	32767	31560	-114	-3391	445	-21808	-2752	-1944	-598	1495	-1209	-32768	3616	-14344	-1680	-3340	727	188	194	1
-8604	-6340	13696	-1	167	34	-22808	-11800	-12072	-2207	1007	-940	-18096	-12520	-12464	-682	2374	-136	14680	20016	15752	-34	-3885	1293	-14352	-760	272	793	-633	-446	-29248	-6120	-17096	-948	-3144	654	188	182	1
-8540	-5132	14240	-138	228	16	-16424	-6048	-9800	628	880	-83	-22120	816	-9040	863	2435	1016	9328	19104	14968	-51	-4415	1655	-7560	408	-2896	1007	-1920	241	-24480	-4160	-16416	-255	-3207	870	170	180	1
-7744	-4464	14332	-291	285	-30	-16112	64	-5464	305	729	-44	-16664	3896	-2472	512	2428	473	5488	14016	12968	226	-5022	2183	-4824	1768	-3808	888	-3133	498	-18392	-200	-16064	-519	-3112	259	172	163	1
-7312	-6772	13360	-262	355	36	-18600	-1960	-2552	-820	565	-222	-15200	-2784	-1760	-19	2402	191	-1128	11824	10752	996	-5363	2852	-6888	912	-4872	351	-4135	953	-12280	-2944	-17488	-968	-2976	144	147	153	1
-7532	-7136	13420	-143	422	134	-15848	-6200	-2304	-1150	493	-316	-17424	-1104	-2272	-202	2382	209	-4320	11248	10328	1378	-5610	3413	-6952	-1120	-5616	-9	-4946	1173	-7032	-144	-16936	-1289	-2513	162	137	145	1
-7768	-6620	13356	-48	475	235	-15160	-7000	-2304	-819	517	-127	-17328	368	336	-538	2085	310	-8632	10832	12896	1562	-5723	3832	-7368	-960	-7376	10	-5572	1446	-4232	680	-17120	-1328	-1890	294	132	149	1
-8024	-5976	13528	16	520	335	-17408	-3376	-2336	-332	517	6	-12384	904	-664	-733	1939	499	-14672	12224	16776	1684	-5884	4218	-10136	-1160	-10024	-245	-6173	1768	-424	136	-15808	-1475	-1363	211	138	145	1
-7544	-5912	13756	-20	625	388	-15432	-2184	-3880	-210	575	-39	-13792	-200	1536	-556	1951	519	-17864	10048	20160	2027	-5969	4441	-13336	-4752	-10368	-352	-6645	1931	2152	680	-15768	-2417	-1068	-123	142	133	1
-8996	-4860	13040	-92	692	334	-15624	-1608	-3672	-637	678	-68	-16536	856	2416	-687	2423	588	-23280	12000	23128	2414	-5720	4518	-19224	-4736	-11408	-314	-6832	1961	3072	-1184	-15168	-2473	-705	-315	112	124	1
-9128	-5844	12656	-120	702	377	-15648	-4160	-3064	-796	764	-97	-18792	-288	152	-1183	2735	662	-28488	14328	28664	2334	-5251	4758	-25200	-3752	-16784	-327	-6995	2081	-1592	-2944	-8080	-1498	-1170	-312	110	126	1
-9104	-6240	12272	-134	707	492	-15056	-1992	-1216	-1154	890	-176	-15992	408	3848	-875	1959	376	-32768	16288	29312	2030	-5112	4884	-31240	-1416	-18240	-255	-6778	2236	-3832	-640	-2336	-512	-1041	-164	147	128	1
-9344	-6276	12036	-90	737	561	-13744	-3688	1352	-1550	1189	-222	-18552	-2152	8272	-1034	1726	131	-32768	6232	19560	2081	-4378	4856	-24296	2544	-19264	-1489	-6189	1797	-8296	1744	1960	-342	-1109	173	142	127	1
-9512	-5600	13044	-27	886	572	-14552	-6392	2008	-1110	1640	-105	-18712	-4264	9408	-1205	2050	253	-32768	968	8568	1191	-2990	4882	-22504	-3560	-26032	-2183	-4781	1078	-30000	4256	21040	-1490	-3558	665	140	129	1
-9092	-5172	14612	-11	1235	686	-17520	-3712	1536	-419	2088	16	-19784	-1232	10024	-960	2127	179	-32768	-19448	-11760	29	-1256	4071	-8616	-1792	-31416	-2283	-2940	151	-32768	-11168	16544	-1090	-3253	773	122	107	1
-8940	-4468	16368	-85	1920	751	-21144	-496	2584	-338	2569	85	-20472	-1040	10104	-935	2109	158	-32768	-25064	-14944	650	8	1883	1424	920	-32768	-2117	-651	58	-1408	592	32767	28	-325	-123	92	65	1
-8372	-5664	17252	-71	2712	944	-21568	-864	3032	-352	2649	101	-27928	-2968	15144	-204	627	308	-32768	-21616	-14256	377	460	-24	-808	-6728	-32768	-245	1807	214	-15960	-9248	11064	-1445	2080	-187	81	68	1
-7388	-7516	18664	-47	3789	1331	-23696	-3480	4680	439	3660	26	-25280	-3848	20064	273	-506	108	-27488	-32768	-12064	-3447	3252	-3147	-15432	5936	-27104	1327	3884	277	-21448	624	19776	919	209	-318	80	61	1
-4912	-11416	21188	-202	5195	2257	-24576	-3208	4280	478	3735	7	-28168	-3904	32767	269	-2045	108	-32768	-8672	32767	-3089	5172	-4922	-32768	-19040	-22608	-3718	2404	-1820	-24032	23952	6720	314	1069	1560	111	116	1
-1968	-14388	28132	-584	7505	3957	-32768	320	15448	-1422	3907	-360	-32768	1600	12864	1069	383	431	-20632	12640	21320	-1218	3648	-1896	-8256	-19888	-27024	-4079	3816	-771	-21544	-7768	-26096	-2736	2522	-710	123	204	1
-24724	-12040	23884	-1475	9889	5660	-32768	-520	3064	-3177	3636	-638	-32768	23288	17128	-397	-2206	1159	-32768	11080	19688	-1583	2235	-1735	-5384	14496	-30448	-2278	2992	-1357	-6168	-17320	-13984	118	-420	-35	148	195	1
-32768	-19416	24588	-3836	9858	4748	-32768	-13048	-6840	-4985	4099	-552	-30104	-1760	-17920	-4176	-1682	752	-9544	9176	15208	-886	1227	-1026	-16848	-13744	-18808	-2246	2059	1121	-1904	14960	-24856	861	1168	-188	123	164	1
-32768	-32768	32767	-2692	7261	5233	-32560	-28416	-5776	-2162	2424	-689	-30544	4008	-10480	-3193	-2624	-432	-10568	1416	18240	-467	768	-649	-23744	-12192	-17856	2639	2418	152	-30328	8160	-19936	88	2110	1126	153	151	1
-18372	-32768	32767	339	679	2902	-15168	-10128	-26736	1405	2055	-855	-32768	1320	-11416	-1159	-2268	-1010	-8816	5368	14512	-187	643	-353	-16832	9440	-12368	1654	1350	346	-20528	4272	-12712	180	1973	814	131	139	1
14048	-32768	29980	929	-5145	-1726	-15224	2344	8736	-486	578	281	-32768	-4560	-13432	338	-2016	-1599	-8472	5504	13664	3	575	-231	-14832	5792	-11120	-927	779	71	-18488	2920	-12728	-76	2324	-139	96	131	1
17668	-10376	14356	1016	-4428	-2154	-15264	-7160	1600	496	-1207	-333	-28072	4992	-15536	768	-2607	-1829	-8184	6280	13176	105	563	-196	-19992	-2552	-9176	-1413	334	-164	-16544	5336	-7168	-546	2364	-336	92	119	1
9500	-7408	15808	-532	-4225	-2641	-5512	1272	-3176	1787	-2581	-414	-23080	7976	-14384	252	-3036	-1425	-8072	7288	12376	84	540	-233	-19528	-2304	-6688	870	461	213	-16360	3592	-4464	-873	2707	262	123	110	1
1556	-10008	15000	-985	-4733	-2919	-4920	760	-4280	975	-3472	51	-12504	6336	-13952	-18	-3244	-1163	-7680	6880	12624	61	530	-264	-16520	2840	-3448	1574	247	204	-16232	-3416	-4224	-263	2807	381	120	79	1
-4480	-8700	14236	-727	-5282	-3206	-6272	1792	-4944	745	-4374	-203	-4520	4648	-13712	-194	-2787	-1205	-7792	7000	12488	-7	553	-322	-16272	4136	-3008	1205	268	235	-13784	-4088	-1936	1100	3021	629	120	72	1
-5924	-5624	13548	-662	-5598	-3480	-5720	2312	-4712	332	-5103	-302	-3920	2288	-14216	-298	-2181	-1158	-7376	6640	12856	-46	595	-412	-17264	-272	-1040	732	256	116	-14968	-3728	1984	1700	2757	694	124	72	1
-6804	-5680	13776	-760	-5451	-3602	-8344	1744	-6808	1114	-5950	-354	-2968	2568	-14384	1	-1944	-770	-8256	5568	12352	2	696	-489	-17032	-472	-2040	1056	422	121	-13112	-3368	5432	391	2168	434	125	79	1
-12800	-6512	18548	-968	-5246	-3547	-11912	72	-9072	714	-5983	194	-624	3152	-13600	563	-1722	-462	-8616	5408	12136	17	699	-494	-13776	1488	-920	911	529	112	-13280	-1192	1184	245	2489	570	125	90	1
-20100	-9320	24488	-1091	-5519	-3700	-14320	-88	-12256	489	-6455	99	-800	3520	-13104	577	-1700	-356	-9176	6384	10280	6	590	-432	-12808	4816	-1272	476	685	0	-18464	2984	-3128	1354	3007	715	124	89	1
-25720	-10556	25908	-1129	-5995	-4013	-16936	-2792	-12640	315	-6760	-19	-824	1232	-14128	2046	-1753	-260	-9200	7000	10536	-21	503	-508	-16264	1400	-2272	428	951	-51	-19288	2336	-1376	1150	2364	847	125	94	1
-26724	-10896	25864	-1135	-6025	-4085	-23904	-2920	-14664	975	-6907	-87	-1992	2888	-8312	1875	-1828	-240	-9456	6344	10760	-64	505	-601	-16720	0	-808	1100	1215	-6	-18920	-888	2304	791	2114	634	123	96	1
-32768	-12860	23668	-516	-4986	-4696	-28392	-3808	-18240	1278	-6680	137	-6024	776	-1896	1480	-1818	-376	-9288	5896	12280	-124	659	-602	-16464	2200	1096	1233	1410	-56	-16384	1232	3760	1113	2253	385	119	101	1
-32768	-10824	21536	-152	-4410	-4888	-22352	-2616	-22088	1690	-5563	956	-9376	-1744	16	902	-1486	-682	-9480	4440	13448	-144	918	-620	-17648	3328	2840	547	1736	-304	-18384	648	5256	853	2068	309	117	104	1
-32768	-5528	2628	401	-3999	-4344	-21424	-6280	-24336	1186	-4717	464	-29080	-2096	26464	925	-3497	-904	-8824	5472	15656	-126	1408	-655	-19984	1568	4128	-217	2130	-578	-26120	-2424	5456	323	1588	428	123	117	1
-32768	7508	-18876	98	-2474	-2780	-9640	-8592	-32160	1964	-2953	180	-31688	18104	16992	951	-2790	-1840	-8872	5552	16624	-64	2096	-844	-23176	-624	2160	-439	2596	-683	-26960	-656	6384	290	1254	27	120	111	1
-32768	15148	-24248	-915	-1087	-1502	-2160	-432	-32768	492	-810	-196	-8160	-5528	32767	56	205	233	-8632	7240	17592	-7	2862	-1043	-23792	1400	2632	-414	3006	-865	-25504	2784	7952	98	795	-62	119	103	1
-32768	16780	-27916	-885	172	202	-88	-3280	-31456	-1365	1488	-675	-15960	3392	11200	-131	2064	-99	-7800	10096	17392	27	3675	-1492	-25440	3952	4408	-564	3426	-1009	-28616	2336	11352	-169	-108	-94	104	97	1
-32768	7980	-11008	-1375	1124	1392	-5344	-10224	-32768	-681	3393	-777	-17000	4344	-5944	-1652	2606	-238	-3744	15800	16488	165	4601	-2503	-27800	16	6600	-370	3810	-882	-26640	-1912	17032	-230	-1095	-447	101	88	1
32188	-21088	32767	4147	3459	2335	-32768	10560	32767	-25	1644	-295	7872	-5712	-32768	-3273	4775	83	-2704	14512	21928	281	6133	-3979	-32768	-2624	5848	810	3922	-563	-28144	-3072	30912	597	-3026	-368	107	80	1
-32768	32767	32767	2417	5857	3556	-14664	-13312	-32768	8566	3256	-533	-32768	-32768	6688	1836	-308	-1386	-31656	20544	22448	234	8165	-5082	-32768	568	2880	2203	4046	-626	-27536	-16816	16528	-1653	-1511	-770	20	29	1
-22876	-23944	12884	838	3406	2037	-14272	23544	-19528	2379	4198	1066	-21808	32767	-9200	5987	1654	68	-32768	6928	31016	1186	8193	-5020	-32768	5848	-9704	1569	4638	-903	-21872	3040	-1048	5344	-2086	-841	43	31	1
-24040	26836	30864	1409	1685	1074	-24712	-14768	-23632	1884	3277	-1720	-8720	21408	-18936	266	1005	-544	-32768	32767	31712	223	6805	-5611	-32768	18256	-5424	961	3797	-1137	-32768	16552	-27504	4716	-2363	119	65	54	1
-14772	-18872	12972	628	794	492	-8184	224	-18416	-1561	2548	-918	-5792	3352	-20472	-1548	943	1480	-4648	32767	32767	-1165	3339	-4870	-23152	6288	-23608	-1769	2827	-313	-32736	6800	-13192	827	-3522	1202	136	136	1
-10484	-5208	14856	238	290	211	-14888	-920	-17504	-3023	2038	-1033	-22072	-2272	-19840	-1995	1717	-559	-3576	32767	32767	313	-2874	-321	-19416	-1560	-7040	-1114	2011	-1007	-32768	2472	-12464	-1618	-3352	578	194	200	1
-8600	-6592	13496	98	198	59	-21664	-12112	-12296	-3364	1237	-1161	-18424	-14792	-14968	-1268	2178	-303	15936	23632	16616	55	-4161	1005	-13760	-1728	152	954	-388	-395	-32768	-6016	-16752	-816	-2930	535	188	190	1
-8188	-3908	14708	-33	247	48	-15144	-13584	-9384	305	978	-179	-21488	-640	-9712	870	2304	767	12864	18872	11376	115	-4202	1491	-8480	-720	-1864	1535	-1709	447	-23216	-5552	-15624	21	-2976	577	180	189	1
-8172	-3256	14916	-201	310	-4	-17048	-56	-7568	1240	939	0	-18592	6192	-4216	828	2367	657	6448	15296	11184	396	-4429	2025	-4712	1800	-3152	1376	-2861	712	-19192	-480	-15032	-84	-3237	342	169	178	1
-7800	-5412	13876	-291	391	26	-19008	320	-4200	-81	702	-113	-14352	-568	-2648	244	2463	115	368	12288	10328	944	-4716	2627	-5928	2176	-4120	651	-3850	1138	-11600	-672	-16536	-800	-3085	-19	149	154	1
-7720	-6684	13368	-194	441	124	-13816	-4088	-3120	-1227	500	-362	-17224	80	-3312	-94	2450	147	-5352	11608	10992	1330	-5071	3169	-6880	360	-4960	27	-4603	1415	-6184	-2264	-15400	-894	-2557	91	142	140	1
-8128	-6728	12808	-98	461	191	-14712	-7144	-2856	-1388	464	-364	-16288	152	-2184	-653	2230	256	-9152	11072	12896	1440	-5507	3599	-6504	-80	-7648	-150	-5173	1594	-4304	560	-15392	-956	-1808	261	146	154	1
-8320	-6132	13084	-31	450	256	-16200	-7112	-2176	-679	553	-158	-13776	-1592	1008	-613	1884	409	-10432	8496	15624	1731	-5677	3924	-10272	-272	-7456	-258	-5843	1799	-3168	2472	-14328	-942	-1401	348	148	145	1
-8468	-4688	13364	-55	460	282	-15104	-2568	-2384	-170	655	-101	-11744	-1096	1752	-498	1586	428	-15952	10064	18968	2029	-5576	3945	-14272	-3504	-9760	-340	-6382	1947	600	2464	-15584	-1768	-1123	125	140	139	1
-8544	-4688	13436	-72	543	301	-15216	-1640	-2808	-412	746	-152	-15592	1200	5344	-300	2017	342	-25824	11944	24776	2177	-5782	4141	-16296	-3128	-12768	-336	-6499	1990	1520	1560	-15376	-2221	-795	-70	112	129	1
-9188	-5496	12292	-73	507	314	-14920	-3456	-2720	-889	843	-212	-19400	-136	424	-1235	2987	528	-26272	14016	26792	2276	-5823	4755	-22512	-2200	-14832	-430	-6762	1888	-1176	744	-10800	-1718	-1061	-115	110	129	1
-8512	-6456	12720	-46	473	435	-14304	-3880	-2072	-1000	961	-254	-18256	1400	-312	-1421	2285	622	-32768	17112	27152	1976	-5214	4991	-32768	-2152	-17976	-458	-6907	2049	-4080	368	-4888	-827	-1156	34	146	130	1
-9056	-6248	12820	-59	540	531	-15416	-2416	-1056	-1203	1169	-288	-17336	80	5504	-708	1611	-150	-32768	11112	22896	2046	-4598	4989	-25488	3656	-20184	-1218	-6499	2082	-7288	1920	-1776	-704	-1037	212	142	127	1
-9496	-5040	13516	-85	726	553	-16208	-3224	-608	-1170	1444	-219	-16912	-1968	6536	-1243	2077	-37	-32768	5496	12472	1598	-3658	5194	-23224	-2160	-24288	-2397	-5233	1289	-21776	1128	13480	-1197	-2509	622	143	127	1
-9204	-5000	14696	-114	1080	608	-18152	-2824	848	-912	1805	-142	-19424	-2192	8256	-1398	2128	358	-32768	-15304	-6952	625	-1927	4737	-16496	-4048	-30152	-2275	-3468	465	-32768	-2488	23112	-1885	-4078	1003	129	122	1
-8480	-4968	16288	-135	1740	707	-20168	-2696	3224	-447	2303	-51	-24448	-3696	12800	-540	1683	323	-32768	-26296	-18664	813	-419	2476	2128	2408	-32768	-1738	-1067	447	-6400	-2536	32767	-185	-1085	-99	102	73	1
-8152	-5604	17236	-134	2615	883	-22008	-2320	3904	95	2906	-8	-28416	-2456	15456	62	866	182	-32768	-22360	-16760	367	733	482	1776	-5184	-32768	-1025	1676	89	-21064	-6784	17552	-1711	1622	-85	82	60	1
-7492	-5904	18736	-234	3661	1164	-24080	-3056	4144	393	3474	-73	-26584	-4168	18736	176	-123	231	-32768	32767	-16608	-3174	2846	-635	-10552	3480	-25968	448	4031	-81	-21272	-2408	-7344	-716	1805	-474	77	66	1
-4724	-10176	18880	-443	5087	1942	-32768	680	6936	-7	3874	-368	-26456	-2696	30808	402	-1664	103	32767	12632	32767	-2500	5237	-306	-32768	-3584	32767	1519	2915	-1287	8888	15800	-26936	1228	3891	671	107	96	1
-1664	-11624	25444	-882	7015	3405	-32768	968	14560	-1601	3904	-660	-31480	-648	19200	1181	11	373	-32768	-32208	32767	-1954	5699	-2833	-17736	-11240	-32768	-5738	2902	778	-26504	15320	-3136	-4094	-236	377	145	169	1
-16380	-13488	23736	-1418	9453	5037	-32768	-32	10360	-3175	3788	-870	-30448	26104	22040	-922	-2336	970	-18160	26352	6168	-1060	3728	-2057	-2840	-11392	-23776	-2431	3660	-2416	-27464	-32768	-27176	-4190	939	-223	136	202	1
-32768	-888	27924	-3919	10424	4471	-32768	-4736	-3168	-4656	4365	-467	-31872	-7688	-15272	-5129	-985	1055	-17976	-18856	28240	-1267	1182	-1239	-18816	-192	-23528	-3041	2412	576	-6584	880	-19152	1879	1031	248	136	174	1
-32768	-32768	32767	-2963	8748	5322	-32768	-24768	-4840	-2853	2748	-596	-32768	1768	-14272	-3915	-2404	299	-13152	5904	15960	-711	679	-651	-19936	-17336	-21216	801	2347	451	-15344	8520	-18280	45	1482	-169	140	151	1
-16236	-32768	32767	-250	3439	4847	-17872	-18624	-29568	1266	2271	-1124	-32768	1736	-6640	-1123	-2636	-1438	-8176	11048	12176	-201	620	-481	-22024	4272	-11856	3088	2119	487	-20672	5216	-13512	643	1777	1346	135	131	1
-9160	-32768	32767	-280	-4801	-1376	-14016	3728	2376	-257	1244	14	-32768	864	-8024	-890	-2582	-1274	-8720	7128	12640	-98	471	-407	-13208	10896	-11296	444	1262	366	-16672	7880	-12248	380	2134	544	93	124	1
17780	-15576	16184	386	-4731	-2353	-15552	-6176	1920	-145	-1030	301	-32768	7168	-16992	813	-2244	-1732	-8400	6440	13088	-36	444	-350	-17648	3176	-10376	-1508	772	-241	-21024	6232	-11880	-377	2362	-211	96	119	1
14196	-9532	14212	-246	-4136	-2564	-6440	-688	-1616	1035	-2368	-579	-23680	9640	-14456	40	-2931	-1561	-8104	6544	13032	-29	470	-310	-19976	-5160	-8376	-971	496	-61	-16608	2312	-6624	-974	2539	-22	113	107	1
4116	-10320	16548	-743	-4432	-2797	-4152	1584	-3976	872	-3359	-66	-16536	8040	-14840	-113	-3268	-1238	-7896	6440	12880	-57	516	-328	-18112	-3136	-6192	740	452	134	-16528	-3528	-6488	-888	2760	360	122	83	1
-3572	-9056	16764	-746	-5126	-3255	-7216	3312	-4584	1054	-4291	-287	-4792	8472	-12480	-290	-3082	-1171	-8200	5800	12640	-73	618	-325	-16480	752	-4944	1148	314	292	-15040	-6648	-4936	218	3046	403	108	72	1
-5228	-4972	16328	-607	-5597	-3694	-6600	5488	-5712	604	-5069	-270	-3272	3936	-13056	-435	-2440	-1096	-8304	5816	12472	-66	675	-298	-16944	2192	-3320	722	308	227	-13800	-4064	-1680	1773	3307	513	118	76	1
-6884	-804	17944	-691	-5622	-3901	-8056	3400	-5840	385	-5724	-195	-3344	2056	-14472	-580	-1963	-837	-7768	6536	12656	-16	718	-363	-17504	272	-2592	666	461	83	-14888	-1392	1920	1251	2690	424	119	74	1
-11908	-2044	22072	-868	-5704	-3590	-11576	2456	-9488	691	-6325	-152	-1488	216	-14528	-2	-1663	-622	-9040	5672	11208	8	725	-413	-15664	1008	-3144	825	591	133	-13248	-416	3760	-186	1867	513	122	92	1
-19296	-4472	27444	-940	-6196	-3270	-15128	1176	-12016	235	-6682	203	-736	-48	-13776	977	-1416	-376	-9520	5808	10520	17	643	-433	-13544	1608	-2016	725	717	55	-14176	816	-408	622	2696	856	124	97	1
-25132	-8760	26588	-966	-6592	-3327	-17448	592	-12008	197	-6995	217	104	544	-15080	2180	-1398	-284	-9288	5928	11080	-14	559	-494	-14824	1352	-2784	784	872	92	-17544	2296	-4408	1515	2777	962	120	97	1
-28552	-14904	24424	-605	-6248	-3608	-22080	-3480	-13240	770	-7150	138	-712	3512	-11160	2407	-1568	-257	-9496	6088	11080	-28	561	-564	-17552	424	-2112	1063	1007	47	-21800	224	-2880	923	2195	846	123	100	1
-32768	-20516	24324	-143	-5371	-4289	-31800	-4600	-19408	1806	-6938	275	-4096	3616	-744	2306	-2102	-183	-9816	5848	11896	-38	680	-615	-16720	208	-504	1318	1244	5	-22264	208	-2048	919	2072	730	127	112	1
-32768	-15200	19908	-151	-4690	-5337	-23184	-5752	-22784	1653	-6212	446	-14144	4624	1072	1881	-2023	-283	-9456	4488	13104	-77	906	-649	-16112	2192	2536	1157	1584	-115	-14672	-56	7848	997	2006	454	122	108	1
-32768	-7492	860	694	-3810	-5424	-22224	-6280	-24600	1642	-4838	553	-20928	1720	21992	1365	-3208	-50	-8880	5832	15224	-99	1376	-663	-20088	2664	5328	396	2030	-453	-25592	-5112	8200	722	1602	702	126	115	1
-32768	12208	-19244	921	-2131	-3795	-11384	-9296	-32768	1735	-3035	169	-32768	14024	18656	272	-3112	-1463	-8432	6464	16720	-112	2048	-852	-22968	824	4048	-363	2559	-725	-29016	240	9576	775	1336	191	116	108	1
-32768	18168	-26252	-702	-1156	-1241	1736	-5392	-32768	945	-801	22	-2320	-8512	32767	-255	458	-89	-8696	7240	17240	-124	2834	-1150	-24240	136	3280	-509	3030	-861	-27336	4680	8376	334	833	-93	120	107	1
-32768	17584	-30368	-808	-111	978	1280	-784	-32768	-937	1657	-524	-13872	1744	11256	-33	2452	-109	-8112	10720	18160	-100	3727	-1628	-26328	2904	4320	-477	3487	-963	-28240	1600	12312	-130	-165	-246	107	100	1
-32768	4216	-11924	-998	881	2035	-3800	-8312	-31704	-1589	3711	-805	-14200	4888	-1552	-1369	2577	-265	-6008	15144	17648	9	4669	-2762	-28872	-216	6360	-379	3860	-812	-26720	-3144	18176	-179	-1051	-347	101	87	1
32767	-11708	32767	2681	4057	2850	-32768	8808	32767	-168	1256	60	5528	-6872	-29184	-4183	4245	499	-2240	12952	24616	124	6320	-4413	-32768	-2480	5200	652	3928	-455	-29440	-1472	28776	223	-3742	-273	106	81	1
-32768	24748	32767	1137	6449	2698	-7336	-1256	-28304	7794	3498	-192	-32768	-22616	4096	2229	-483	-883	-32272	18328	21472	66	8378	-5638	-32768	512	1608	2454	4016	-383	-28056	-15280	10008	-176	-1210	-1051	10	17	1
-30760	-16132	23564	586	4311	2386	-12304	9800	-15632	1104	3845	344	-27608	32767	-6432	3802	1118	-723	-32768	10928	32767	1471	8262	-5388	-32768	9072	-8464	2429	4708	-539	-25120	3408	-3608	4959	-2323	-756	38	35	1
-22792	28628	32767	1128	1124	913	-29696	-8296	-22936	2116	3397	-2018	-6536	8576	-26784	-967	824	-130	-32768	32767	32648	814	6486	-5668	-32768	18440	-7952	1363	3886	-814	-32768	15024	-29504	5144	-2283	233	82	78	1
-12368	-16376	12580	671	463	347	-10072	-5872	-19680	-1572	2655	-599	-12416	-1416	-25000	-699	1510	1063	-26488	32767	32767	-655	2459	-4618	-22168	5160	-21304	-1518	2640	-140	-32768	8320	-15248	1065	-3587	1203	180	199	1
-9944	-7080	13424	159	129	64	-15432	-368	-15880	-2514	1926	-849	-21544	-792	-17856	-596	1946	-580	856	32767	31184	-237	-2457	278	-18424	-1208	-5464	-661	1501	-1041	-32768	8160	-14192	-1719	-3318	777	190	191	1
-8388	-6496	13048	46	104	11	-20296	-7808	-11944	-2908	1243	-759	-17688	-7568	-13352	-143	2298	-421	16504	19896	15992	-364	-3260	1781	-11496	552	-128	507	-572	-538	-28784	-4512	-16968	-1018	-2912	669	191	183	1
-7924	-3720	14784	-125	232	23	-18264	-12200	-9200	371	931	-349	-23232	4112	-8888	755	2407	1131	10968	17064	12624	130	-3481	2233	-7336	1416	-944	709	-1933	329	-22368	-5488	-15824	-225	-2821	735	175	181	1
-8424	-4392	14108	-311	315	-53	-16392	760	-5968	1194	925	-126	-17048	3592	-3016	472	2286	507	3456	16088	13448	143	-4193	2486	-3984	3160	-3360	437	-3020	536	-18144	-1360	-16152	-632	-3249	567	154	168	1
-8068	-6120	13312	-361	395	-43	-17544	-2656	-3696	-47	724	-142	-14608	-2624	-1720	125	2384	262	-3784	10552	12400	748	-5166	3005	-5240	784	-4944	-242	-3878	891	-9944	-1856	-16200	-1110	-2958	162	122	147	1
-8020	-7576	12832	-214	418	79	-14624	-4248	-3032	-1137	551	-352	-16936	-816	-2840	-83	2370	51	-3944	10000	9912	1375	-5714	3462	-6960	-1232	-4408	-361	-4694	1135	-5896	-1056	-14816	-1084	-2532	253	151	141	1
-8572	-6700	12484	-56	377	181	-13960	-5536	-3784	-1376	543	-323	-15936	1224	-2672	-636	2238	167	-7080	10736	11280	1445	-5663	3636	-8128	-2248	-6496	54	-5328	1420	-4128	-1624	-14360	-746	-1644	421	133	144	1
-8524	-6144	12380	35	328	229	-15352	-5856	-3352	-856	567	-182	-13448	536	-2152	-987	2194	238	-13360	8816	16408	1723	-5776	3836	-10056	-2376	-8960	350	-5872	1727	-2616	1680	-14392	-1065	-1225	432	145	142	1
-8456	-5588	13020	65	337	280	-15560	-4416	-3792	-331	616	-173	-12696	-1616	976	-1066	2066	300	-17640	10152	18800	2319	-5913	4051	-12840	-3712	-10360	444	-6274	2014	208	1904	-14760	-1935	-1014	187	146	136	1
-8052	-5112	13540	-35	419	326	-15712	-1312	-4304	-359	657	-137	-15720	1152	1640	-897	2054	419	-22528	12896	20240	2436	-5757	4115	-16616	-792	-9568	357	-6419	2210	1160	1416	-15880	-2472	-881	-115	109	128	1
-9572	-5376	12632	-135	481	314	-15624	80	-5024	-1247	694	-197	-15504	968	2168	-991	2430	430	-26640	17296	25696	2194	-5347	4481	-23400	1416	-15512	-678	-6618	2292	-2056	1920	-9912	-1996	-1242	-237	104	127	1
-9624	-5204	12400	-191	471	325	-15232	-2512	-2688	-1758	773	-337	-16176	-688	168	-1438	2680	443	-32768	21512	27864	2029	-4966	5008	-32768	-696	-20432	-1368	-6786	2067	-6320	-200	-4968	-1448	-1530	-3	131	128	1
-9452	-5840	12512	-183	537	365	-14560	-4464	-248	-1354	1044	-244	-18296	-1240	3224	-810	1986	354	-32768	16400	16720	1934	-4213	5276	-24720	4592	-18416	-1735	-6474	1931	-7504	16	-2496	-1002	-971	164	127	126	1
-9332	-5668	13332	-158	711	392	-14840	-5280	120	-674	1421	-131	-20000	-2928	6584	-600	1806	373	-32768	2952	11000	1707	-2713	5698	-20488	1760	-25152	-2442	-5027	1499	-23272	-3360	11872	-1208	-2267	459	149	127	1
-8800	-5648	14700	-229	1095	423	-19744	-1912	1168	-287	1807	27	-23480	-2600	8848	-627	1941	110	-32768	-15024	-5656	613	-1372	5066	-18064	-1824	-30760	-1987	-3448	851	-32768	-4856	23944	-1701	-4105	1039	132	127	1
-8444	-4896	16804	-236	1774	633	-21288	-3440	3760	-492	2284	-18	-23768	-2544	13520	-459	1797	267	-32768	-27640	-14360	995	-361	2212	-320	-576	-32768	-1542	-1334	552	-7024	-1448	32488	204	-641	237	114	87	1
-7876	-6284	16940	-296	2620	877	-21112	-3008	5208	-152	2865	71	-27040	-1512	17232	-139	1032	284	-32768	-22736	-15560	1066	91	-144	792	-6256	-32768	-429	1360	533	-12672	-7664	17432	-1216	1589	455	75	53	1
-7500	-6324	18564	-414	3732	1195	-23568	-1936	4648	340	3505	4	-26616	-1368	18736	-48	32	182	-32768	-11832	-7376	404	1182	-1527	-6688	-552	-31688	1321	3647	414	-20392	-6560	-3224	-66	1523	-24	86	60	1
-5740	-9332	19788	-664	5075	1864	-32768	3232	6496	125	3924	-245	-27096	992	26704	319	-1429	-2	1784	19800	17696	-5403	2934	-1479	-25408	6936	800	1241	3848	-11	10856	6312	-32368	936	4964	678	93	77	1
-2276	-10260	22680	-1172	6766	3004	-32768	6096	13344	-1401	4037	-538	-24304	3744	32767	2699	-3011	122	8136	-32768	24320	-4741	6887	-3295	-32768	5528	30408	-2680	1534	-570	-32768	32767	19000	-2039	-2146	1391	131	140	1
-9272	-11832	23048	-1776	9342	4405	-32768	3824	12296	-2854	3891	-509	-23472	23840	17984	-1542	-2452	1245	-32768	17432	24648	-1655	3375	-3060	-17288	-32768	-32768	-7677	3726	-1582	-32768	-32768	-11528	-8389	2339	-504	128	214	1
-32768	-172	25640	-3690	11108	3880	-32768	-960	-5936	-3787	4352	1	-32640	-7592	-11888	-5058	-768	1248	-14568	-22824	32767	-1711	1824	-957	-12992	-32768	-32768	-4524	4652	-2423	-8336	-18728	-18224	1768	598	-1204	138	191	1
-32768	-32768	32767	-2734	9465	5175	-32768	-25368	-4048	-2096	3198	-137	-32768	-4600	-15648	-3730	-2392	681	-10792	23576	7752	-367	1118	-446	-11424	-13232	-16816	1038	2609	1163	17360	3456	-20680	3337	660	-459	136	142	1
-32768	-32768	32767	-2326	8809	5270	-18992	-20560	-24152	2281	2369	-861	-32768	192	-7960	-290	-2848	-1195	-11168	8728	12568	-186	743	-465	-18464	8104	-19496	2680	2429	404	-29272	24600	-22384	2774	1818	1035	119	136	1
-32768	-32768	32767	-1036	-4748	-353	-16176	1648	-5888	882	1365	434	-32768	-8616	-11040	1087	-2328	-1564	-10680	7312	12624	-104	523	-305	-21192	12088	-15952	862	1245	523	-28168	15216	-20760	-9	2320	1914	92	127	1
12700	-19860	18876	349	-6359	-1144	-11288	-3928	976	-459	-1105	842	-32768	10264	-18704	979	-2360	-1373	-7832	5088	14328	-40	447	-337	-17592	2176	-11200	-1447	550	-258	-22304	4488	-13272	-1028	2600	-894	106	112	1
15104	-9292	11036	399	-5591	-1300	-8712	592	-568	289	-2578	-273	-22640	7216	-15664	44	-3104	-1094	-7592	6072	13888	186	658	-253	-20056	-9720	-9368	-778	398	-3	-17552	-7192	-6224	-1115	2619	-100	126	107	1
4920	-10572	12628	-490	-5428	-1801	-2032	3504	-3520	-273	-3596	252	-15088	1576	-15520	193	-3444	-518	-7712	5536	13760	317	807	-244	-20176	-3512	-5584	1591	141	376	-14048	72	-2976	-491	3215	468	129	77	1
-4844	-12928	12528	-810	-5764	-2545	-5736	-2416	-4856	-654	-4416	241	-4760	4672	-13856	166	-3005	-700	-7328	7632	12944	421	898	-255	-18440	4448	-2176	2037	236	334	-17376	-4104	-1040	711	3288	352	117	74	1
-6872	-12900	11188	-388	-6060	-3085	-6080	-2928	-5184	-325	-5163	-10	-3944	3224	-14432	85	-2475	-874	-8624	8152	11592	274	983	-382	-16160	7960	-1056	1224	321	203	-17160	-2624	3688	1628	2596	686	116	81	1
-7992	-10204	11140	-395	-5853	-3447	-8344	-3152	-6344	460	-5762	-36	-4416	1760	-14736	-153	-1970	-929	-9120	7568	10480	125	951	-482	-14184	3400	-560	638	455	0	-12656	2904	4024	1295	2208	518	119	85	1
-13840	-12028	15176	-615	-5640	-3775	-10664	-3480	-9056	1300	-6199	-175	-1488	2224	-13984	388	-1709	-785	-9440	6376	9752	9	842	-539	-12712	2640	-1800	506	655	28	-8080	2560	3952	-59	1988	765	121	90	1
-19404	-13656	19840	-804	-5711	-4025	-13152	-3408	-11216	1078	-6548	84	-8	1840	-14256	1282	-1591	-659	-9800	7080	9392	-66	702	-536	-12832	1784	-2024	648	770	0	-15264	-104	-960	857	2847	825	123	97	1
-25808	-17324	23256	-775	-5823	-4413	-17576	-3864	-14648	1181	-6893	2	632	1976	-14464	1486	-1593	-626	-9584	7608	9816	-154	582	-637	-14504	2360	-1768	784	997	78	-20672	-864	-3504	1626	2652	990	124	101	1
-32768	-18656	24292	-635	-5698	-5062	-24672	-2560	-16968	1429	-7018	256	-720	1984	-9296	2165	-1956	-379	-9928	6104	10584	-208	564	-706	-16808	872	-976	956	1257	-3	-19312	-1160	776	1281	2072	691	119	100	1
-32768	-16324	22256	-414	-5152	-5622	-22776	-4288	-17928	1029	-6799	35	-4904	-48	-2400	1632	-1934	-490	-9904	5184	11544	-157	680	-703	-15704	-240	56	1036	1452	-56	-15160	1960	3968	1313	2303	676	125	106	1
-32768	-14292	19776	229	-4780	-5071	-28320	-9824	-21376	975	-6245	-113	-13736	2104	-440	1168	-1698	-606	-9672	5056	11824	-140	709	-696	-16920	1352	176	611	1742	-212	-15712	32	1328	983	2255	507	130	120	1
-32768	-740	4816	-309	-4397	-4253	-22720	-5992	-24496	1158	-5003	41	-25504	-888	21808	847	-3299	-361	-9368	5344	14888	-33	1472	-549	-20472	1792	2392	-58	2084	-517	-25672	-48	1808	579	1527	354	130	123	1
-32768	7948	-14404	-536	-2980	-2632	-11224	-4744	-31032	1142	-3412	-243	-32768	12720	15472	767	-3441	-1602	-9264	7296	15240	-8	2092	-709	-22312	2184	1400	-507	2468	-649	-25344	5304	5424	205	1197	-92	128	121	1
-32768	13780	-20068	-1037	-1724	-1320	-4224	-2896	-32768	-71	-1330	-508	1904	-5736	32767	-185	-163	-384	-8896	8528	15864	-16	2756	-1044	-23344	2168	1368	-420	2806	-729	-24552	2176	6544	31	941	25	123	113	1
-32768	16116	-28808	-1221	-463	216	-1560	-3616	-31224	-1081	1217	-890	-13232	4992	16048	-539	1617	-436	-8288	9968	15856	-2	3466	-1561	-24024	3832	4056	-274	3192	-814	-26784	1672	10840	-89	236	-96	109	107	1
-29844	-32768	-16020	743	1970	872	-4784	-4512	-27088	-498	3286	-368	-20408	5400	-2360	-1560	2251	-368	-8040	10792	15440	8	3567	-1663	-25984	1304	6984	-78	3609	-735	-26976	-1872	16136	-171	-554	-178	100	93	1
32767	6452	32767	3119	4620	1757	-32768	12056	32767	-12	2026	-482	-4616	3184	-16120	-1699	4785	-646	-6224	12808	21616	265	5857	-3658	-32768	-872	9216	741	3881	-428	-25880	-5408	24904	559	-1803	-337	95	79	1
-32768	32767	32767	1341	5180	3394	-12584	-7032	-32768	8137	3801	-608	-32768	-25848	1376	1473	246	-497	-31120	14776	22480	299	7846	-4576	-32768	-2816	8760	1617	4088	-484	-28160	-12952	29712	-1882	-2849	-543	54	49	1
-18304	-24588	9564	409	3865	2210	-5144	12616	-18080	1196	4009	496	-22120	32767	-21200	4338	1112	224	-32768	9744	28800	1306	8224	-4672	-32768	-2584	-8080	983	4648	-567	-22520	-5440	-2096	4830	-1865	-1115	40	23	1
-32768	10380	25208	1810	2009	1659	-22264	-24752	-25592	817	3139	-1741	-8000	8960	-18144	-665	728	-579	-32768	32767	30080	739	7509	-5179	-32768	16904	744	1798	4066	-798	-32768	10704	-21664	4858	-2684	152	58	48	1
-13768	-18608	14584	982	877	791	-15704	6032	-20632	-843	2432	-939	-17224	-8352	-23368	-903	1530	888	-18256	32767	32767	205	4334	-4588	-28192	6360	-16464	-438	2939	-304	-30056	8584	-15136	2497	-3010	910	135	135	1
-10556	-3820	15136	476	274	302	-16944	-1776	-15488	-2088	2003	-486	-22744	-3064	-16344	187	1824	-460	-20400	32767	32767	699	-2073	-1153	-20552	-80	-14800	-493	2597	-739	-32768	3760	-11832	-324	-3529	791	195	204	1
-8972	-4748	14056	280	147	108	-17016	-6960	-10344	-2270	1390	-576	-14432	-1520	-9320	474	1998	-410	11624	24664	19416	282	-4026	452	-16656	-688	-336	1183	137	-213	-32768	-3560	-16392	-872	-3107	396	181	192	1
-8004	-3132	14704	11	234	51	-16656	-9880	-9936	635	1167	-357	-20312	4896	-6352	847	2268	550	13464	18232	10840	500	-3990	1013	-11016	-1448	-208	1749	-1271	349	-24624	-6040	-15048	-312	-3288	536	186	189	1
-8176	-3336	14768	-32	254	43	-19840	3152	-7384	1149	1019	-135	-17992	3632	-3808	452	2335	550	8680	17520	11232	302	-3990	1610	-4920	2216	-3088	1259	-2365	671	-21416	-3824	-14608	-114	-3556	492	181	174	1
-8256	-4008	14460	-263	341	-9	-15752	-1096	-3712	-918	756	-312	-16096	-2264	-2480	9	2316	259	1888	12208	11760	588	-4284	2452	-5072	1208	-4752	428	-3491	1054	-13712	-1296	-16192	-489	-3201	43	168	156	1
-8188	-6552	12972	-169	440	155	-14632	-4784	-3488	-1774	614	-531	-16656	712	-3840	-481	2239	116	-3832	10088	11896	1319	-4822	3241	-6128	-152	-5744	-86	-4359	1324	-7640	-1784	-16040	-457	-2790	291	141	143	1
-8868	-5884	12924	-88	436	189	-15336	-9376	-4088	-1084	607	-371	-15672	-1016	-2552	-873	2363	206	-7544	9088	12960	1669	-5398	3731	-5456	-1016	-6952	-61	-4982	1511	-4944	1424	-16216	-657	-2122	304	117	144	1
-8780	-5320	13176	-51	418	217	-16160	-4424	-4080	102	671	5	-15336	-448	-2096	-538	2236	292	-8960	8280	14712	1658	-5698	3923	-7432	-1104	-7008	-122	-5670	1723	-2336	1824	-14936	-932	-1620	244	128	152	1
-9088	-4780	13252	-39	446	224	-15128	-1288	-5112	161	689	-23	-13128	40	-2672	-297	2116	374	-14264	5832	18416	2110	-5880	3902	-10464	-4264	-9000	-72	-6223	1945	1600	1432	-15744	-1558	-1185	16	138	148	1
-8828	-5168	13100	-72	492	219	-15392	-1376	-5384	-364	623	-53	-14560	984	-3072	-682	2228	538	-19568	7360	22352	2623	-6101	3888	-13024	-7384	-11064	136	-6501	2074	1816	1768	-15680	-1806	-1125	-66	144	135	1
-9228	-4888	13120	-85	497	216	-16304	-3464	-4640	-894	628	-175	-14872	616	184	-1036	2392	692	-23472	10128	25280	2752	-6062	4006	-16896	-4760	-11552	721	-6662	2075	496	-824	-14232	-2274	-803	-435	109	126	1
-9360	-5596	12148	-112	517	308	-16232	-3424	-2496	-1029	682	-149	-15176	-960	4344	-854	2825	484	-29800	16048	27736	2145	-5631	4388	-29144	-624	-15576	632	-6880	2378	-1864	-1120	-7168	-594	-1024	-230	114	129	1
-9380	-6268	11924	-64	483	401	-12672	-2576	592	-1209	904	-198	-15400	-2096	3608	-902	2301	434	-32768	15320	27744	1469	-5008	4861	-30392	1080	-17272	-557	-6633	2106	-6224	4200	-1152	-13	-972	234	143	132	1
-9168	-5288	12812	1	528	418	-11632	-4584	976	-873	1277	-184	-20352	-608	6184	-634	1645	496	-32768	7512	15448	1216	-4282	5347	-21920	1792	-19536	-2912	-5871	1357	-9272	5264	800	-344	-1007	788	146	126	1
-9476	-5072	13616	-11	734	454	-17864	-2888	984	-597	1685	-176	-22936	-248	9296	-679	1850	290	-32768	-2808	1640	109	-2366	5557	-21208	-7304	-26464	-3872	-4551	471	-31072	6288	20984	-2270	-3963	943	133	125	1
-9416	-4840	14856	-43	1186	531	-20272	-2416	1928	-598	2067	-96	-21888	-1384	11504	-815	2280	287	-32768	-20960	-11448	-591	-542	4625	-8816	-4888	-32768	-2912	-2644	-200	-32768	1024	23800	-2636	-4331	887	122	118	1
-8876	-5188	15708	-50	1858	701	-18296	-3080	3832	-477	2608	-5	-22232	-528	13208	-540	1647	37	-32768	-27288	-13016	-53	47	1626	128	3704	-32768	-2108	-298	-87	-7456	4512	32767	-1471	-7	-834	89	55	1
-8660	-5036	16944	-88	2669	851	-19104	-3480	2928	110	3186	21	-25136	-2424	13984	-330	631	-29	-32768	-20712	-13272	200	274	-786	-2800	-8728	-32768	-120	2155	95	-19048	-9888	7560	-2344	2061	-687	88	61	1
-8068	-7424	18472	-142	3749	1190	-26232	-3024	2584	441	3686	9	-27232	-6360	17536	-135	-401	68	-32768	3496	-23248	-2918	2599	-2767	-12496	5480	-20896	1973	3954	-10	-20840	-5720	19728	1003	745	-403	86	58	1
-5320	-12028	21256	-353	5191	2203	-32768	-88	6104	-234	4001	-378	-28088	-5272	32216	19	-2056	407	20592	28896	32767	-1834	5221	-2651	-32768	1416	26232	427	1979	-1097	-2712	20608	-10848	2769	2719	657	119	110	1
-648	-16324	28212	-879	7439	3960	-32768	576	16488	-1914	3973	-593	-32056	5160	5432	971	-174	436	-32768	9096	32767	-1614	4426	-2730	-14112	-8608	-24600	-5452	2968	296	-25808	-1736	-2448	-2065	560	-10	140	186	1
-19580	-11508	25412	-1698	9930	5599	-32768	2992	6016	-3649	3772	-659	-32768	23136	16304	-661	-1958	907	-32768	18368	23464	-1673	3540	-1977	-6600	-9232	-25160	-2618	3575	-1866	-23112	-6752	-11920	-2294	1494	-296	143	206	1
-32768	-2468	27488	-3993	10325	4473	-32768	-10608	-5992	-5058	4245	-355	-30120	-1040	-19056	-4954	-1509	1117	-11824	208	18944	-595	1197	-965	-20072	-18944	-19912	-1554	2296	1024	-18304	-25056	-13208	262	283	1115	125	168	1
-32768	-32768	32767	-2721	7662	5514	-32768	-28336	-8384	-2211	2319	-323	-32224	5352	-11272	-3280	-2638	-238	-9192	4672	14616	-239	742	-585	-19168	-5272	-17344	3038	2494	350	-19024	17552	-21536	898	1818	-337	137	142	1
1236	-30228	32767	981	1152	3911	-13680	-13064	-29504	1817	2090	-882	-32768	712	-10464	-938	-2472	-1193	-10616	6600	13248	-8	588	-427	-21016	12880	-14984	2480	1658	544	-23072	16288	-20584	650	1949	149	119	135	1
13028	-32768	30560	-544	-5558	-1791	-17160	7200	9168	-228	677	426	-32768	-5424	-13856	606	-1936	-1529	-9496	6768	12648	34	471	-278	-15480	10632	-11456	-469	1032	-52	-18704	10784	-12304	-322	2219	112	94	129	1
20012	-17180	11500	639	-4670	-2286	-15816	-6184	1328	-207	-1346	-173	-31200	8408	-16480	723	-2448	-1632	-8328	6496	12880	65	455	-215	-18752	1720	-9144	-1896	526	-404	-19200	4720	-8952	-1301	2352	-366	107	120	1
10404	-9552	14964	38	-4039	-2696	-5544	-312	-2824	1510	-2817	-543	-21744	8304	-14584	96	-2988	-1314	-7744	7064	12840	54	530	-247	-19248	-7696	-6952	-517	376	-31	-16256	-704	-4520	-1526	2578	183	122	108	1
964	-10584	17040	-621	-4529	-3204	-5232	112	-4576	1168	-3694	44	-15448	6016	-14968	-57	-3260	-1180	-8016	6328	12952	69	618	-291	-19384	-1280	-4448	1284	418	146	-16592	-5024	-3656	-887	2681	267	130	78	1
-5252	-9396	16108	-493	-5233	-3485	-7160	1728	-5096	948	-4664	-108	-4680	5400	-13736	-173	-2946	-1183	-8336	7000	12376	47	640	-333	-16448	3080	-2488	1392	348	218	-14936	-6696	-1728	593	2969	434	104	67	1
-7368	-5212	15768	-492	-5674	-3658	-6408	2512	-5696	511	-5298	-134	-1192	2888	-13408	-243	-2259	-1134	-7848	6608	12144	-69	709	-422	-16480	4048	-2624	711	392	90	-14272	-5568	1856	2124	3177	728	126	76	1
-9948	-4696	17180	-723	-5817	-3676	-7944	1152	-6160	652	-5796	-153	-2656	3152	-14160	-232	-1948	-934	-8800	5952	11368	-61	737	-474	-16744	-936	-2000	508	437	-2	-12520	-3832	6504	1379	2533	537	126	84	1
-13864	-6716	21184	-851	-5941	-3483	-13440	736	-10200	716	-6417	-130	-1312	2144	-12928	394	-1741	-707	-9720	5800	10296	-45	704	-468	-14216	264	-1480	872	660	20	-11648	-1568	2352	220	2448	645	127	91	1
-21652	-8580	24840	-1018	-6186	-3468	-17120	584	-12096	42	-6829	-65	648	1200	-13688	1224	-1516	-481	-9320	6032	10464	-80	576	-460	-11992	2920	-1576	896	873	12	-16952	1552	-3896	1136	2978	862	129	96	1
-26236	-10432	25184	-1216	-6286	-3587	-17368	-1960	-11424	147	-7070	-190	-384	2160	-13664	2206	-1580	-372	-9320	6640	10608	-103	528	-496	-15496	2288	-2016	527	1084	-40	-18968	5416	-4928	1221	2406	956	127	96	1
-30560	-16956	25260	-1121	-5769	-3877	-26072	-5304	-14240	947	-7095	-330	-3088	4760	-6496	2129	-1974	-276	-9248	6576	10752	-105	521	-506	-17920	-736	-2272	641	1192	-88	-19320	296	-592	752	2143	415	129	102	1
-32768	-18088	25720	-783	-4958	-4583	-30952	-5232	-19296	1735	-6782	-70	-6312	1816	1608	1727	-2309	-355	-9880	5432	12008	-175	774	-585	-17192	-400	8	952	1390	-140	-16216	3128	1936	702	2268	196	131	110	1
-32768	-12732	18756	-321	-4519	-5456	-24344	-2728	-22240	1679	-5540	292	-11528	-920	2080	950	-1905	-641	-9584	4224	13616	-112	1078	-543	-16864	2136	3512	608	1785	-323	-18488	-176	5760	273	1885	345	123	110	1
-32768	120	-3596	545	-3398	-4911	-20248	-3560	-24920	1152	-4475	63	-32768	-168	32767	823	-3958	-1203	-9168	6112	15512	-86	1574	-637	-20576	2280	3504	-229	2195	-631	-27296	-6672	7456	8	1437	345	132	121	1
-32768	20276	-16000	-497	-1962	-2667	-8848	-8160	-32768	1135	-2660	-101	-22584	12352	14992	-880	-1787	-2169	-8448	7048	16584	-98	2264	-891	-23736	-408	2656	-534	2638	-757	-27200	-456	7632	365	1271	-64	122	120	1
-32768	19332	-25648	-1325	-1517	-193	984	-936	-32768	-235	-287	-679	-13952	-2856	31376	-1285	904	-15	-8608	7952	17096	-96	3063	-1202	-24568	1416	3472	-341	3056	-841	-27000	2224	8928	274	694	-41	126	112	1
-32768	18624	-26056	-1055	268	1406	-664	264	-32384	-1841	2105	-746	-18072	-256	6936	-192	1633	-142	-7696	12472	16960	-60	3921	-1841	-26200	4064	5368	-419	3472	-963	-28760	-472	13176	-15	-308	-82	108	100	1
-32768	5124	-6588	-1323	1053	2047	-7216	-8192	-31312	-1396	3774	-879	-17984	6848	32767	-1403	2438	-42	-3880	16704	16272	139	4920	-3103	-27720	-1392	7760	-155	3829	-754	-23672	-4128	20392	-75	-1343	-391	106	92	1
4200	-11028	30312	3177	2904	1479	-23712	-2192	27000	-1391	2984	-560	30536	-6528	-32768	-5439	5014	1576	-9344	10864	21016	344	6629	-4660	-32768	-5984	15344	1520	3970	-461	-23936	-9432	14992	246	-3231	-400	109	81	1
25008	32767	5176	5905	7263	6731	-32768	-32768	-20576	5766	1715	-1775	-32768	-32768	32767	641	-617	-1242	-32768	11152	21120	-29	8279	-5583	-32768	3504	-1776	2483	4190	-330	-18200	-16848	8296	2139	-1380	-1030	31	33	1
-32768	-31416	32767	3343	5820	4850	-24536	32767	-32176	6510	4638	2896	-32768	32767	23256	6727	182	-971	-32768	11976	31832	997	7968	-5096	-32768	10912	-5352	1719	4768	-1079	-29312	12464	-1640	5432	-2315	-108	46	41	1
712	32767	32767	709	490	543	-32768	24232	-26256	1268	3998	-1707	-17856	30424	-27616	1330	1738	-607	-32768	32767	32767	358	5878	-5489	-32768	15160	-8480	383	3867	-1129	-32768	25536	-29072	4860	-1836	174	163	153	1
-11580	1264	15792	-73	483	26	-2776	-6216	-14040	-2192	2693	-1117	1464	21224	-23112	-1651	783	785	-32768	20952	32767	-1020	1216	-4278	-22240	2896	-21184	-2254	2707	-499	-32768	9376	-14472	-1520	-4323	1319	152	184	1
-8788	-5464	13952	-46	247	23	-7208	-5712	-17976	-2202	2109	-930	-18112	1384	-23952	-3895	1096	910	5352	32767	27496	-325	-3322	-274	-22128	-184	-3704	-411	1292	-1461	-32768	2504	-11904	-2936	-3744	579	171	178	1
-8320	-7472	12796	-165	180	-43	-9696	-5552	-19152	-2223	1964	-1046	-20120	-25504	-20208	-2172	2293	-809	13000	22184	14864	-933	-3819	989	-12416	-280	-4000	394	-715	-528	-32512	-11040	-20352	-751	-2685	616	153	174	1
-8112	-6168	13712	-127	150	-5	-17944	-12800	-8896	-622	794	-353	-25584	-9176	-11768	536	2317	1187	9296	18768	14056	-302	-4352	2140	-7344	200	-5360	802	-2233	-97	-25936	-2200	-19176	274	-3205	794	158	170	1
-8184	-4452	14448	-172	180	13	-16648	-1048	-6824	-113	716	18	-18240	7720	-3624	724	2273	489	2840	15624	12344	180	-4831	2931	-5288	1472	-5112	823	-3509	172	-17888	6680	-18440	-959	-3232	336	177	162	1
-7700	-4800	14088	-269	288	-7	-15800	-2576	-3864	-545	666	-203	-13920	752	-616	-387	2404	22	-2792	12864	11136	571	-5460	3454	-6080	1408	-6112	123	-4503	659	-11072	480	-17544	-1804	-3067	-32	161	141	1
-7548	-6764	13600	-294	408	28	-18448	-6424	-3064	-656	556	-248	-17816	-3960	-2984	-431	2350	429	-5520	9368	11432	1092	-5861	3651	-7016	-216	-7232	-78	-5294	976	-6888	-1664	-16080	-1853	-2494	-3	132	151	1
-7944	-7028	13040	-212	476	118	-14760	-6560	-3672	-678	499	-89	-17296	-288	-3576	-547	2301	342	-10600	8616	13744	1774	-6061	3605	-8256	-1440	-7560	387	-5864	1254	-5000	-608	-15960	-1728	-1821	39	124	142	1
-8212	-6984	12540	-91	461	234	-14944	-4680	-3520	-722	478	-10	-14416	-1960	-2448	-671	2258	358	-16872	10376	16984	2314	-6354	3444	-10992	-2832	-10432	423	-6365	1752	-776	472	-14920	-1936	-1386	57	139	137	1
-8216	-5784	13236	-94	427	355	-14936	-4376	-3936	-679	466	-25	-10712	-2176	-384	-568	2007	501	-19904	12296	18240	2670	-6220	3474	-13904	-3504	-8984	717	-6583	2097	2272	-1720	-15936	-2560	-1182	-189	146	130	1
-8740	-4508	13396	-40	506	375	-15384	-2512	-3872	-664	488	-35	-13880	1512	2216	-668	2044	495	-24800	17832	20104	2410	-5725	3989	-17088	72	-10816	382	-6612	2170	3352	-3288	-14536	-1879	-972	-482	129	117	1
-8476	-5716	12684	-94	531	394	-16072	-2440	-2952	-855	557	-44	-18072	1280	1368	-939	2639	453	-27944	19296	26248	2095	-5040	4895	-26640	400	-17728	-756	-6863	2374	-328	-1512	-6496	-1044	-1492	-485	117	123	1
-8888	-6484	12216	-124	541	501	-15200	-1872	-1200	-1212	687	-154	-17000	-216	2000	-1701	2157	737	-32768	21128	26192	2105	-4377	5287	-32040	-1848	-17280	-1159	-6957	2337	-3208	-1456	-4888	-294	-1146	-282	117	122	1
-8804	-6804	12332	-100	592	551	-13288	-4056	952	-1487	1000	-162	-19968	-1936	4952	-1056	1607	472	-32768	17744	18856	1793	-3874	5601	-22416	3624	-17496	-2736	-6243	2016	-7464	1976	-1816	-527	-798	134	165	126	1
-9420	-5516	13468	-81	728	574	-15016	-6312	224	-1027	1392	-77	-18856	-3784	8992	-1129	2073	-51	-32768	-944	12440	1422	-2729	6401	-23640	-4488	-25512	-2851	-4879	905	-28824	3648	20808	-1492	-3095	536	126	130	1
-9276	-5220	14480	-101	1085	639	-19912	-1984	2072	-620	1787	68	-20936	-1040	9960	-1083	2372	92	-32768	-19744	-9224	66	-1338	4714	-14704	984	-28344	-1868	-3329	360	-32768	-3856	17080	-1512	-3521	1287	126	125	1
-8808	-4976	16012	-142	1714	703	-19280	-2248	4936	-437	2344	113	-23664	-2744	13904	-555	1752	620	-32768	-28688	-13864	1136	-661	1507	2704	864	-32768	-1941	-1122	613	472	-4224	32767	-711	-949	343	111	108	1
-8524	-5088	17116	-154	2529	845	-18792	-2784	4152	161	2992	102	-27360	-2632	14224	-39	742	403	-32768	-20480	-14424	553	182	-256	-912	-10936	-32768	222	1751	267	-17328	-12464	18096	-1102	1670	199	83	60	1
-7892	-6372	18260	-248	3590	1107	-24728	-2312	1952	593	3492	81	-24992	-1360	13632	235	-129	134	-32768	-9144	-6840	206	1084	-1612	-9872	6152	-30960	1742	3895	225	-17512	-3504	-6672	1360	1152	-251	83	53	1
-6084	-10316	18828	-380	4823	1843	-31864	776	5032	12	3785	-193	-26528	-1200	21432	2	-1007	359	-32768	7880	4688	142	2040	-1857	-14944	1128	-25920	-237	4027	-26	10640	15256	-27416	1638	5043	640	88	63	1
-2252	-11516	21576	-768	6410	3160	-32768	1952	9272	-1248	3896	-590	-27376	1704	32767	4124	-1696	15	32767	32767	30120	-3377	2953	-123	-32768	-1136	32767	2574	2229	-1285	20448	32767	-32768	149	2255	-480	137	122	1
-4764	-11780	20344	-1533	8475	4750	-32768	9112	13792	-2985	3796	-859	-18096	32767	20440	-903	-2447	948	-32768	-32768	32767	-4472	6987	-4718	-32768	11136	-32768	-6499	1258	1750	-32768	-6216	8648	-10180	-308	3074	136	185	1
-32768	-12504	17648	-3445	10349	4414	-32464	-1912	-8008	-4208	4049	-503	-27592	-1040	944	-5396	-816	1237	-32768	32767	32767	-3884	5003	-3857	-18336	-25784	-30208	-4533	3702	-2444	-32768	-32768	12352	-4798	655	-487	145	192	1
-32768	-32768	30900	-5085	9240	4423	-32768	-24624	-4312	-4542	3405	-349	-29600	-8688	-19984	-5449	-1749	1349	5240	-7072	22312	299	1016	-433	-29192	-32768	-13960	-2092	1854	897	11248	-18632	-32272	3152	1830	873	119	164	1
-32768	-32768	32767	-866	5024	6124	-23040	-28720	-8832	683	2777	-1043	-32768	-2248	-6072	-1542	-2553	-811	-7248	7784	13552	268	727	-161	-7944	12872	-19576	3829	3024	551	2344	7384	-27096	4834	1227	-686	138	116	1
-32768	-32768	32767	-130	-1911	2386	-17832	-3544	-21056	2310	1834	-336	-32768	-7152	-12680	649	-2389	-1679	-9264	6584	12688	119	451	-129	-14848	13120	-19184	2148	1801	1059	-21240	32767	-24016	3432	2223	1408	130	114	1
8336	-32768	21848	216	-5999	-1117	-15992	-1136	-192	449	-257	636	-32768	7136	-16736	1488	-2230	-2191	-8680	6784	12424	133	442	-125	-25080	11504	-13296	758	974	246	-27736	22672	-19168	-329	2418	1210	109	115	1
16532	-15792	8672	756	-5220	-2295	-12192	-1848	-2136	745	-1691	-23	-28336	7184	-18200	187	-2801	-1681	-7312	6520	13560	70	383	-188	-21880	-1016	-7712	-857	256	-29	-24960	-1560	-10232	-1520	2762	-459	106	98	1
8724	-10648	10428	-54	-4537	-3243	-3304	1976	-4240	864	-3269	103	-19048	1400	-16072	-212	-3141	-1211	-7400	4840	14416	257	647	-174	-16944	-9928	-6032	436	365	210	-16312	-10272	-1848	-896	2582	78	103	72	1
-2796	-11644	13028	-387	-4651	-3865	-3784	-2792	-4944	340	-4092	364	-10656	552	-15280	283	-3090	-987	-7616	6576	13096	404	851	-152	-19040	208	-2776	1815	211	318	-10376	1056	200	-56	3198	253	104	58	1
-9036	-12552	13960	301	-5335	-4021	-4400	-4168	-5480	622	-4830	283	-3352	1296	-15160	695	-2715	-1134	-8520	7352	11688	411	851	-213	-17224	6000	-72	1872	401	382	-17736	-2088	2608	435	2882	348	111	66	1
-9732	-7992	13492	656	-5909	-3880	-6792	-5720	-5032	1266	-5419	350	-3440	1464	-14720	783	-2169	-1185	-8256	7696	11856	413	839	-229	-15360	6408	1400	979	498	-22	-16584	-1448	2672	1045	2017	537	118	82	1
-10812	-6336	13904	-10	-5956	-3752	-7240	-4136	-5256	1169	-5435	386	-4376	1688	-15016	1065	-1911	-1050	-8840	7576	10880	143	858	-459	-14336	2600	248	578	767	-93	-11320	1360	8032	451	1684	887	126	97	1
-11492	-7300	14384	-126	-5944	-3696	-12872	-1056	-10240	1434	-6308	709	-2520	3216	-14464	1685	-1733	-835	-9640	6624	9816	-1	746	-541	-12832	1880	-800	351	873	-59	-13536	-2552	3496	531	2320	918	126	103	1
-24556	-16056	22784	-377	-6117	-3529	-13664	-1648	-10648	1343	-6351	714	-488	4600	-15424	2445	-1733	-575	-9472	7624	9640	-122	578	-589	-13000	2616	-2424	635	1052	-8	-18112	-2376	-4064	1950	2606	725	124	102	1
-29572	-19300	25376	-491	-6343	-4173	-22056	-4496	-15760	1116	-7097	402	-376	5936	-13016	2733	-2008	-313	-9560	7856	9496	-142	564	-603	-17216	2168	-3832	730	1199	43	-18408	-184	-4240	1729	2456	748	123	110	1
-32768	-23640	22580	-210	-5970	-4866	-27624	-2192	-18912	1236	-7247	306	-2496	4008	-6376	2138	-1954	-326	-10304	5680	11640	-225	614	-799	-17768	-2208	-1680	1050	1422	24	-16112	1952	-48	1358	2365	649	121	98	1
-32768	-14684	20852	-269	-5200	-5258	-22432	-8968	-21424	915	-6755	-67	-4168	1912	-2800	1942	-1568	-281	-9456	4112	13008	-141	866	-672	-15144	104	1200	974	1628	-88	-13200	3280	2072	1079	2301	734	124	108	1
-32768	-4848	13464	-708	-4494	-4928	-27296	1216	-23344	1368	-5295	-42	-13120	5256	9440	835	-1949	-221	-9504	4176	14632	-46	1316	-587	-19336	1376	1088	-31	1921	-385	-22936	-2952	1760	316	1755	477	128	123	1
-32768	-4188	9932	-717	-4295	-4744	-16616	-5704	-30848	1199	-4001	-23	-32768	1768	28232	593	-4366	-1030	-8888	5472	16160	42	1959	-583	-22600	704	1832	-654	2270	-618	-27392	3240	5592	75	1414	-24	130	128	1
-32768	14728	-24444	-880	-2168	-1264	-488	-3888	-32768	87	-2039	-275	-2760	6616	25784	-1008	-745	-1946	-8816	9032	16088	59	2620	-875	-23632	2488	3424	-555	2716	-694	-27704	2856	9512	-69	1007	-117	126	123	1
-32768	21164	-26384	-1178	-904	527	-1088	-248	-32544	-964	654	-763	-15712	40	25456	-1455	1439	-754	-8184	10168	16464	68	3361	-1375	-24088	4216	4720	-389	3185	-737	-27848	-744	12624	-159	332	128	114	110	1
-32768	-6636	-32768	2967	2592	2663	-5904	-5744	-31576	-890	2951	-810	-23096	3488	4368	-1555	1691	-214	-6120	13320	16368	133	4311	-2222	-27448	1712	6920	-311	3622	-748	-28328	-3520	15664	-19	-503	46	100	95	1
32528	-1516	32767	2921	5201	1898	-32768	17472	32767	729	2444	608	-28144	-7912	20304	-1921	1948	-756	-3944	14792	23936	292	5776	-3442	-32768	456	11112	359	3855	-561	-26728	-2936	22472	511	-1481	-234	95	80	1
-32768	22196	32767	837	5102	2593	-13744	6520	-23800	7134	4253	-983	-11840	-11376	-13520	864	1390	342	-27664	13256	23040	106	7896	-4579	-32768	-1672	13016	1183	3982	-435	-30616	-4880	23584	-908	-2934	-337	59	56	1
-11968	-12220	10024	-124	3567	1870	-5824	4192	-15872	773	4021	463	-13512	27136	-27448	3447	1971	1968	-32768	12688	30864	669	8634	-4823	-32768	-2128	-2048	637	4495	-566	-19840	-6904	120	3223	-1671	-1303	29	19	1
-32768	-3476	23848	1594	1503	1314	-15840	-31656	-28008	603	3161	-1777	-5480	9840	-20688	-470	310	-797	-32768	32767	32767	1197	8410	-4950	-32768	17048	672	1670	4400	-875	-32768	6360	-17696	4196	-3131	-22	63	47	1
-12396	-19216	11940	746	397	561	-22728	16032	-24288	-1204	2199	-789	-24504	-5672	-25464	-1486	2170	467	-20160	32767	32767	-106	4950	-4634	-32392	8768	-7360	-369	2956	-540	-30728	9912	-16832	3517	-2902	688	165	167	1
-9872	-5980	14592	210	135	129	-16056	-248	-14792	-2916	1778	-459	-24328	-1160	-14624	-285	1991	-746	-32768	32767	32767	116	-904	-1171	-19192	-3480	-22432	-1079	2489	-483	-32768	6264	-12768	-147	-3539	772	179	196	1
-8424	-5168	13680	115	75	24	-16552	-6448	-9168	-3044	1242	-741	-14688	-3640	-6592	-155	2027	313	7272	22840	25872	247	-4026	673	-16976	-1720	-848	922	357	-652	-32768	-2792	-15736	-1248	-3006	418	171	190	1
-7384	-3344	15072	-84	174	-8	-16392	-13832	-7696	354	1079	-455	-18000	5864	-5720	584	2335	632	10280	18568	14928	491	-4572	1072	-11848	-1360	-1040	1849	-1194	80	-24904	-5248	-16608	-799	-3442	378	185	187	1
-7692	-4276	14044	-269	261	-76	-17448	-1800	-6704	1976	1040	125	-16936	-2072	-5128	232	2460	564	8496	16312	12232	295	-5089	1341	-5240	2328	-2520	1726	-2396	504	-19648	-4576	-13784	-353	-3616	222	174	167	1
-7904	-6708	13328	-222	277	-12	-18480	-1616	-4160	-37	730	-87	-16640	-5544	-3496	379	2439	520	3920	10400	10320	747	-5210	1866	-5224	1296	-3304	1014	-3504	871	-14912	-3256	-15680	-92	-2978	-30	154	154	1
-7808	-6852	13204	-197	262	10	-13120	-3824	-3064	-1539	605	-255	-15736	816	-2880	-259	2522	-97	-3168	10408	10216	1469	-5364	2602	-6368	-88	-5984	419	-4358	1185	-9296	-912	-16528	-296	-2802	167	154	134	1
-7976	-6040	12928	88	250	213	-15128	-6712	-3784	-1585	485	-322	-16432	-864	-2712	-702	2379	172	-6328	11720	10720	1562	-5681	3259	-5480	-1064	-6792	305	-4980	1305	-4128	1576	-16640	-578	-2226	142	139	139	1
-7904	-5364	13740	76	295	236	-17328	-6872	-3568	-198	554	13	-14824	-216	-1896	-354	2277	440	-9256	9504	12920	1603	-5749	3718	-7160	-632	-6976	287	-5569	1573	-1544	2616	-15712	-881	-1751	92	147	153	1
-8424	-4140	13760	19	374	224	-16472	-2232	-4736	458	602	106	-13336	1896	-1576	-404	2236	668	-13328	9128	16272	1883	-5802	4059	-9240	-1960	-8616	-42	-6089	1821	1680	1112	-16272	-1676	-1302	-135	148	142	1
-8264	-4392	13968	-79	450	217	-16088	848	-4016	-22	624	76	-15544	704	800	-269	2241	636	-18312	11792	20104	2081	-5827	4372	-12176	-3648	-10344	-417	-6471	1890	2024	1280	-16712	-1880	-1286	-202	126	130	1
-7784	-5828	13588	-77	532	334	-15888	-1608	-3136	-874	646	-152	-15504	1464	4520	-520	2373	659	-21688	12832	24712	2040	-5719	4650	-19776	-3488	-13784	-663	-6841	1890	456	-1024	-13672	-2191	-792	-501	100	126	1
-8452	-5832	12900	-105	543	435	-15752	-2040	-840	-1641	732	-300	-16400	1608	2832	-1375	2542	372	-31424	14184	30424	1809	-5255	5183	-29296	-5680	-18416	-461	-7201	1858	-1904	-872	-6664	-1031	-1001	-290	153	130	1
-8564	-5740	13012	-92	545	487	-13248	-5272	1744	-1430	1046	-240	-21624	-920	5112	-1145	1785	492	-32768	10128	28232	1791	-4963	5309	-27440	2272	-20200	-219	-6701	1496	-4480	5264	-2760	-533	-803	230	152	128	1
-8736	-5676	13332	-14	699	503	-15088	-5288	1152	-750	1458	-109	-21160	-2984	7008	-1032	1815	164	-32768	8040	14184	965	-4521	4716	-24984	2040	-22768	-1550	-5884	1256	-11896	5280	1560	-596	-1043	913	143	124	1
-9544	-4948	14408	-17	1010	545	-19032	-2792	512	-531	1817	5	-17160	-3504	8320	-1009	2243	123	-32768	-5424	-3384	368	-2946	3910	-19592	-832	-29768	-2558	-4366	572	-32768	2888	24576	-1844	-4672	912	130	129	1
-8968	-4924	15608	-26	1481	650	-18008	-2976	3416	-867	2238	-33	-19896	-1784	11608	-804	2030	329	-32768	-18472	-16992	323	-933	3023	-4992	-5392	-32768	-2232	-1959	70	-32768	-32768	19344	-1131	-2011	87	107	127	1
-8404	-6216	16872	44	2240	797	-19168	-6232	4576	-332	2856	125	-26232	-4512	13984	-480	1128	228	-32768	-21808	-17216	511	207	1077	560	2288	-32768	-395	512	121	-5872	4192	30728	-583	451	-431	98	69	1
-8052	-6144	18016	145	3124	1142	-22752	-4056	3056	691	3428	124	-27016	-5288	14872	102	307	22	-32768	-16112	-12608	388	856	-1084	-4720	1152	-32768	463	2713	519	-18152	-7216	2920	-1182	2252	-539	85	62	1
-6800	-9264	19872	202	4310	1685	-28608	-448	3448	665	3837	8	-25056	-5912	19528	646	-832	104	-3448	-6352	17344	-3577	3324	-2319	-23608	984	-600	1549	4032	-89	-13920	-8704	-12448	-1248	1821	-310	85	53	1
-3872	-11580	22908	30	5884	2876	-32768	552	6544	-306	4051	-404	-28680	-5440	32767	600	-2299	258	-27552	-29376	27984	-2635	5503	-3743	-32768	952	-10832	-2286	2631	-549	-25552	26704	-928	-125	-190	1634	124	116	1
1072	-17500	27460	-392	8249	4704	-32768	-1224	15816	-1583	3874	-612	-28640	11096	-3152	-143	-662	903	-25264	12208	19768	-1151	3768	-2289	-7080	-20696	-31840	-6111	3356	-843	-29592	-12112	-20544	-4829	1634	110	132	194	1
-32768	-9260	26444	-1307	10585	5711	-32768	1728	-1568	-2640	3962	-628	-32120	9048	8832	-1571	-1053	836	-32768	6520	28160	-1449	1869	-1624	-15904	2200	-31416	-2231	2879	-831	-19128	-29896	-14208	-783	395	255	157	192	1
-32768	-31080	32767	-2684	10028	4496	-32768	-15928	-8128	-4023	3770	-168	-31216	-2736	-23992	-4417	-1840	592	-12848	10536	13312	-360	986	-801	-18288	-20992	-21736	40	2184	1226	-6240	5672	-21984	2494	1492	-153	123	156	1
-32768	-32768	32767	-1193	6221	4493	-24880	-25144	-13800	256	2531	-468	-32768	6712	-7024	-1745	-2907	-1027	-6640	7200	12944	-51	653	-458	-18520	-1528	-13712	3505	2336	415	-18328	14784	-17520	1614	2038	381	133	134	1
-32768	-32768	32767	179	-1393	-408	-17048	-608	-16072	1068	1802	-663	-32768	360	-10232	-219	-2235	-1061	-9248	5816	13424	49	600	-333	-18352	15056	-11992	1924	1308	658	-18440	11872	-12384	629	2212	1215	115	127	1
16696	-22072	23548	288	-4174	-2665	-14704	-3200	4192	-272	-423	790	-32768	-1576	-16784	763	-2150	-1543	-8720	6704	12992	61	587	-317	-16136	8920	-10712	-1471	870	-220	-20240	8984	-12056	-359	2453	31	93	113	1
15272	-11340	16168	32	-3958	-2647	-10296	-4656	1280	893	-1812	-488	-24272	8616	-16096	563	-2846	-1639	-7856	6960	12696	84	564	-218	-20648	-2184	-8808	-2035	442	-315	-19344	2704	-7576	-1068	2529	-306	117	110	1
3148	-10420	19672	-386	-4863	-2649	-2048	1360	-4048	1064	-2986	-156	-17856	7024	-14072	-166	-3133	-1065	-7888	7456	12736	82	608	-248	-18272	-7840	-6760	602	376	181	-16376	-1200	-4400	-921	2824	351	125	89	1
-2332	-7068	17336	-845	-5992	-2917	-6472	-160	-3200	676	-3892	-114	-8232	4976	-13248	-204	-3155	-1005	-8224	6856	12448	93	641	-288	-18208	1784	-4528	1863	399	290	-14880	-4208	-3552	32	3345	340	111	73	1
-3680	-6288	12860	-1017	-6439	-3113	-8248	3184	-3704	298	-4846	-68	-4464	3344	-13272	-228	-2648	-1105	-8248	7000	11752	48	650	-340	-16560	5312	-1672	1496	374	248	-14744	-5136	1016	1457	3454	597	114	73	1
-3740	-4692	11676	-884	-6045	-3027	-7304	1520	-4776	244	-5502	-85	-4472	2368	-14560	-291	-2192	-1001	-7936	6344	12240	-69	706	-491	-17032	2176	456	736	408	68	-13992	-3168	3776	1256	2601	624	124	72	1
-9576	-8400	17496	-609	-5705	-2937	-10760	-1336	-8248	946	-6028	-346	-2928	2072	-13992	222	-1929	-758	-8640	6392	11536	-57	743	-542	-15480	-192	136	902	670	73	-11280	-448	5072	-46	2045	688	122	93	1
-18244	-8280	24384	-801	-6045	-3158	-14832	1072	-11952	515	-6382	134	-1936	2344	-12344	739	-1768	-655	-9704	5400	10464	-55	666	-516	-12840	2176	-584	678	817	52	-17456	-1640	-960	551	2455	744	123	99	1
-20476	-10344	24340	-1279	-6291	-3565	-17960	-3088	-11432	284	-6850	6	-1752	1280	-13832	1656	-1725	-508	-9456	7256	10752	-95	589	-518	-13608	3392	-1464	303	1013	-51	-18680	2632	-3872	1435	2333	695	120	98	1
-23880	-14628	25468	-989	-5815	-3733	-21704	-4464	-13640	692	-7140	-59	-2248	3672	-11128	2105	-1973	-338	-9736	7000	11656	-179	575	-642	-18688	768	-2880	368	1176	-54	-20168	992	-928	797	2228	592	129	108	1
-32768	-15708	29264	-665	-5315	-4024	-28680	-3848	-19088	1306	-7051	-78	-4080	3544	-3608	1784	-2074	-293	-9536	5512	11856	-177	731	-690	-17576	-1296	-968	953	1404	-112	-18072	2232	2072	781	2415	468	130	108	1
-32768	-10108	25552	-915	-4975	-4705	-24552	-4672	-21176	1130	-6546	73	-7840	656	-8	1177	-1801	-484	-9200	5064	13472	-150	1021	-696	-16728	1144	2928	843	1681	-201	-16352	-1232	4368	625	2154	474	127	112	1
-32768	6436	12448	18	-3967	-3997	-25696	-6576	-25784	980	-5392	161	-16560	224	8784	395	-2131	-556	-9144	4736	14896	-121	1453	-676	-18520	1992	3312	37	2095	-477	-23424	-6264	5400	299	1505	458	127	120	1
-32768	15148	-4032	-557	-3432	-3085	-13840	-5664	-31544	1134	-3763	-107	-32768	4640	25456	306	-3527	-1498	-8624	6816	16008	-103	2113	-754	-22912	640	2288	-741	2468	-754	-26176	-504	6064	374	1276	174	124	120	1
-32768	14984	-23388	-416	-1619	-1716	-4040	-4064	-32768	978	-1816	-58	-4480	-3912	27056	-591	-770	-880	-8824	8040	16456	-96	2844	-1070	-24848	104	1672	-628	2833	-776	-27032	3656	6448	299	1005	-29	122	115	1
-32768	22456	-24380	-580	-270	-157	-312	104	-32768	-580	618	-487	-17568	-1208	20384	-889	1617	-192	-8072	9464	16488	-29	3603	-1553	-23936	2608	4256	-331	3240	-840	-26376	1520	10480	-126	208	-1	111	105	1
-32768	-2676	-32768	3139	3216	2806	-4296	-7856	-29176	-729	2840	-531	-22128	864	7856	-168	1438	-129	-4144	13832	15600	106	4448	-2432	-26496	1872	6288	-283	3606	-829	-26032	-1288	15600	-172	-689	-177	101	88	1
21432	-18436	32767	2546	6380	3124	-32768	17640	14640	2019	2484	712	-29120	-9896	21376	-589	1940	-1311	-4440	15448	21464	69	6026	-3768	-32768	928	10568	394	3732	-688	-30776	56	24576	478	-2151	-338	90	75	1
-32768	2136	32767	636	4175	2255	-13760	10008	-20712	6060	4725	-516	-10704	-1248	-3944	1300	1752	1218	-27408	18696	22968	-182	7860	-4877	-32768	-528	11072	1262	3942	-661	-27312	-9320	25560	-2329	-2570	-677	49	48	1
-24364	-14836	16580	845	3253	1927	-5912	-6544	-17816	257	3980	98	-13688	19160	-25600	2452	1410	909	-32768	6440	29992	495	8185	-5032	-32768	-3504	-9768	390	4531	-671	-20056	-1936	-2528	3963	-1837	-1084	40	22	1
-26824	1788	23960	1266	1282	1030	-10592	-13288	-21792	1737	2915	-1705	760	4408	-19624	-1015	452	-766	-32768	32767	28512	106	7901	-5251	-32768	15216	-1352	959	3863	-1046	-32768	8280	-21864	3996	-2823	196	80	60	1
-11480	-12456	14992	740	324	382	-23952	11456	-22624	-1897	2161	-752	-22376	-5128	-23672	-606	2120	512	-12872	32767	32767	-1120	4445	-4950	-27304	8680	-16192	-806	2660	-386	-31296	7512	-14944	2398	-2894	778	166	179	1
-8524	-6520	14056	131	129	70	-18544	-4600	-12128	-3131	1723	-671	-28120	1056	-15472	61	1936	-700	-22648	32767	32767	761	-1905	-360	-20544	-4120	-16656	-829	2331	-774	-32768	3784	-13536	-391	-3341	612	191	193	1
-8724	-4716	14136	99	112	59	-17504	-7976	-10328	-2211	1214	-564	-16344	-3216	-8520	-9	2003	367	7720	24720	21824	587	-4297	1189	-15560	-584	440	1625	76	-562	-32768	-4552	-16432	-1018	-2975	245	180	186	1
-7232	-3472	15060	-116	269	15	-14464	-12992	-10640	1120	1046	-315	-17672	4832	-6616	689	2392	501	9888	18952	13712	439	-4933	1489	-10912	1048	192	2338	-1378	409	-23104	-6072	-14016	-351	-3074	371	180	177	1
-8040	-5184	14084	-306	310	-74	-19352	2352	-7872	1748	870	62	-16296	-1880	-5824	489	2587	533	7864	16064	11392	588	-5272	1737	-5248	3800	-1768	1777	-2466	702	-19040	-4504	-12200	56	-3522	215	152	162	1
-7676	-6232	13700	-295	336	-38	-17304	-1024	-4512	-601	537	-214	-18088	-1608	-4128	529	2562	297	1680	12512	9384	1016	-5381	2292	-6584	2488	-4392	673	-3542	1101	-15176	-1992	-15888	-157	-2956	-19	169	149	1
-7604	-6752	13284	-140	360	109	-13864	-4040	-2624	-1890	321	-479	-15800	3056	-2112	-488	2607	-160	-2296	11944	8744	1509	-5394	2987	-7808	856	-5464	-84	-4441	1369	-7720	280	-15864	-227	-2528	239	158	136	1
-7988	-5876	13160	-68	382	175	-15840	-8784	-2200	-1690	354	-450	-15928	-1376	-1128	-1005	2435	183	-6672	12616	10936	1616	-5314	3583	-7352	-472	-7288	-261	-5158	1539	-5776	3176	-17040	-693	-1980	364	135	137	1
-7652	-5756	13936	-47	459	254	-17448	-7680	-1720	-55	492	-42	-14256	-240	-192	-717	2077	520	-13144	11984	15344	1685	-5478	4148	-9392	-40	-9488	-409	-5757	1765	-2200	2912	-15560	-1134	-1599	252	138	146	1
-8232	-4384	13936	-110	562	293	-16688	-1144	-2992	416	575	18	-13880	-304	1088	-813	1769	604	-15424	10200	17720	1933	-5614	4540	-12096	-3248	-9416	-536	-6302	1861	2568	1200	-15952	-2036	-1215	-67	142	141	1
-8412	-4804	14040	-153	721	324	-15536	-888	-3600	-345	609	-100	-15256	-760	5560	-441	2104	455	-15856	10168	18120	1977	-5580	4574	-15976	-4080	-10568	-464	-6608	1930	3120	384	-15952	-2572	-917	-461	129	125	1
-8960	-5880	12592	-195	731	337	-15416	-2512	-2168	-1177	695	-198	-18760	-2656	-352	-1068	3147	732	-25912	14320	27752	2155	-5366	4873	-21928	-2400	-16008	-686	-6843	1938	-808	-520	-9416	-1943	-1000	-387	117	127	1
-8964	-6028	12280	-174	658	403	-13232	-5368	-1488	-1151	851	-212	-17304	-96	-1000	-1062	2191	650	-32768	17528	30456	1995	-5168	5067	-32768	-2224	-18064	-264	-6907	1866	-4288	232	-2024	-598	-1278	-70	103	132	1
-9232	-5896	12352	-145	674	477	-13968	-3968	-752	-937	1099	-164	-17960	160	5752	-427	1477	99	-32768	9392	22872	1969	-4803	4777	-26032	4152	-18216	-303	-6473	1711	-6568	5216	-664	-272	-948	507	140	131	1
-9572	-5140	13040	-118	789	481	-16184	-3240	-528	-970	1375	-139	-16872	-2128	7456	-1001	2212	47	-32768	10064	10272	1263	-3922	4254	-23616	2984	-22864	-1739	-5372	1389	-17328	4792	10600	-657	-2156	1078	142	122	1
-9160	-5216	14136	-151	1091	503	-17488	-2112	1824	-892	1739	-51	-16632	-2216	7432	-1105	2311	45	-32768	-6792	-10280	723	-2200	4031	-14608	-1344	-29616	-2489	-3694	688	-32768	1192	21176	-2202	-4404	960	132	125	1
-9072	-4032	15756	-165	1649	551	-19024	-3400	4464	-663	2266	16	-23520	-3104	13128	-589	1694	491	-32768	-9160	-13424	688	-1802	3950	-1520	-1096	-32768	-2109	-1370	375	-13320	-11944	30656	-725	-1230	9	114	112	1
-8284	-5536	17032	-150	2445	689	-20432	-4480	4816	179	2916	186	-27768	-2312	15720	-239	992	209	-32768	-22104	-18512	691	245	2886	-1024	-808	-32768	-760	1000	245	-14288	-5064	17832	-1380	1412	59	81	58	1
